type,name,time_units,begin_time,frequency,count,units
signal,"Noraxon MyoMotion-Segments-Forearm RT-Roll","s",0.0000,200,4916,"deg"

time,value
0.0000,1.452098702
0.0050,1.450885262
0.0100,1.44967194
0.0150,1.448458735
0.0200,1.447213904
0.0250,1.445960123
0.0300,1.444722282
0.0350,1.443525912
0.0400,1.442396093
0.0450,1.44135675
0.0500,1.440430164
0.0550,1.439636494
0.0600,1.438993101
0.0650,1.438513965
0.0700,1.438209797
0.0750,1.438088891
0.0800,1.438158072
0.0850,1.43842321
0.0900,1.438889278
0.0950,1.439560037
0.1000,1.440437317
0.1050,1.441519798
0.1100,1.442801657
0.1150,1.4442719
0.1200,1.445914884
0.1250,1.44771135
0.1300,1.449638961
0.1350,1.451672491
0.1400,1.453784406
0.1450,1.455945859
0.1500,1.45812763
0.1550,1.461741085
0.1600,1.46548313
0.1650,1.46924567
0.1700,1.472841219
0.1750,1.476686531
0.1800,1.480516315
0.1850,1.484306508
0.1900,1.488047359
0.1950,1.491791054
0.2000,1.495435113
0.2050,1.499081278
0.2100,1.502615258
0.2150,1.506077642
0.2200,1.50940713
0.2250,1.512738387
0.2300,1.515831881
0.2350,1.518964728
0.2400,1.521982148
0.2450,1.525037376
0.2500,1.52814006
0.2550,1.531114397
0.2600,1.534093767
0.2650,1.536944663
0.2700,1.5397434
0.2750,1.542565829
0.2800,1.545390397
0.2850,1.548329653
0.2900,1.55135764
0.2950,1.554512793
0.3000,1.557813929
0.3050,1.561380011
0.3100,1.565051456
0.3150,1.568844815
0.3200,1.57283178
0.3250,1.577116083
0.3300,1.581568494
0.3350,1.586183864
0.3400,1.590994865
0.3450,1.595974278
0.3500,1.601121534
0.3550,1.606255161
0.3600,1.611594519
0.3650,1.616956706
0.3700,1.622652083
0.3750,1.62841986
0.3800,1.634304367
0.3850,1.64016397
0.3900,1.64608336
0.3950,1.652007518
0.4000,1.657744025
0.4050,1.663349765
0.4100,1.668714177
0.4150,1.674006671
0.4200,1.679136954
0.4250,1.684201678
0.4300,1.689195208
0.4350,1.694115216
0.4400,1.698939221
0.4450,1.703716992
0.4500,1.708448429
0.4550,1.713209829
0.4600,1.717941491
0.4650,1.722687832
0.4700,1.727580639
0.4750,1.732235589
0.4800,1.736986752
0.4850,1.741773975
0.4900,1.746508302
0.4950,1.751305132
0.5000,1.756073763
0.5050,1.760926339
0.5100,1.76588297
0.5150,1.770993392
0.5200,1.776225953
0.5250,1.781755238
0.5300,1.787865327
0.5350,1.794458753
0.5400,1.801915757
0.5450,1.810159475
0.5500,1.819314649
0.5550,1.829626552
0.5600,1.84115604
0.5650,1.853889646
0.5700,1.86770728
0.5750,1.882654952
0.5800,1.89903295
0.5850,1.916572785
0.5900,1.935310117
0.5950,1.955389071
0.6000,1.976987083
0.6050,2.00004047
0.6100,2.024623842
0.6150,2.050848661
0.6200,2.078852676
0.6250,2.108527634
0.6300,2.140163961
0.6350,2.173632288
0.6400,2.209039691
0.6450,2.246338796
0.6500,2.285572572
0.6550,2.326724648
0.6600,2.369694347
0.6650,2.414618318
0.6700,2.461230373
0.6750,2.5097185
0.6800,2.559917225
0.6850,2.612014867
0.6900,2.665763709
0.6950,2.721035179
0.7000,2.777856316
0.7050,2.835798848
0.7100,2.895031377
0.7150,2.955140318
0.7200,3.016068373
0.7250,3.077737093
0.7300,3.139862128
0.7350,3.202629565
0.7400,3.265698246
0.7450,3.329294099
0.7500,3.39312112
0.7550,3.457270043
0.7600,3.521650303
0.7650,3.586338359
0.7700,3.651447483
0.7750,3.717092444
0.7800,3.783050427
0.7850,3.84942715
0.7900,3.916429961
0.7950,3.983950885
0.8000,4.052231896
0.8050,4.121164149
0.8100,4.190837522
0.8150,4.261422245
0.8200,4.332961844
0.8250,4.405284633
0.8300,4.47844649
0.8350,4.552555864
0.8400,4.627243251
0.8450,4.702663002
0.8500,4.778883417
0.8550,4.855789354
0.8600,4.933242871
0.8650,5.011415748
0.8700,5.090337127
0.8750,5.170141058
0.8800,5.250815319
0.8850,5.332416113
0.8900,5.414956465
0.8950,5.498406283
0.9000,5.582678905
0.9050,5.667606919
0.9100,5.753318463
0.9150,5.839621445
0.9200,5.926404315
0.9250,6.013743015
0.9300,6.101537417
0.9350,6.189780484
0.9400,6.278510559
0.9450,6.367684299
0.9500,6.457234144
0.9550,6.547182896
0.9600,6.637465007
0.9650,6.728165672
0.9700,6.819293893
0.9750,6.910583131
0.9800,7.002130947
0.9850,7.093693767
0.9900,7.185579557
0.9950,7.277380456
1.0000,7.369068513
1.0050,7.460696959
1.0100,7.552342869
1.0150,7.643957946
1.0200,7.735712077
1.0250,7.82770943
1.0300,7.920187417
1.0350,8.01304166
1.0400,8.106632962
1.0450,8.200775026
1.0500,8.295696926
1.0550,8.391415078
1.0600,8.488025176
1.0650,8.585453965
1.0700,8.683788011
1.0750,8.783043072
1.0800,8.883460657
1.0850,8.985117199
1.0900,9.088122159
1.0950,9.192571983
1.1000,9.29852928
1.1050,9.406081411
1.1100,9.515371408
1.1150,9.626231758
1.1200,9.738735391
1.1250,9.852974132
1.1300,9.968956952
1.1350,10.08660007
1.1400,10.20620391
1.1450,10.32770395
1.1500,10.45082762
1.1550,10.57598151
1.1600,10.70328766
1.1650,10.83268339
1.1700,10.96445619
1.1750,11.09842725
1.1800,11.2347912
1.1850,11.37357695
1.1900,11.51506265
1.1950,11.65915216
1.2000,11.80615795
1.2050,11.95612367
1.2100,12.10922476
1.2150,12.26544792
1.2200,12.42493965
1.2250,12.58771672
1.2300,12.75373623
1.2350,12.92314123
1.2400,13.09567814
1.2450,13.27141359
1.2500,13.45028981
1.2550,13.63227165
1.2600,13.81723441
1.2650,14.0048718
1.2700,14.1953719
1.2750,14.38858905
1.2800,14.5843946
1.2850,14.78298434
1.2900,14.98383031
1.2950,15.18739646
1.3000,15.39365255
1.3050,15.60255754
1.3100,15.81380562
1.3150,16.02751221
1.3200,16.24358694
1.3250,16.46187964
1.3300,16.6822866
1.3350,16.9049872
1.3400,17.12995195
1.3450,17.35742575
1.3500,17.58725961
1.3550,17.81954771
1.3600,18.05444497
1.3650,18.29210274
1.3700,18.53236578
1.3750,18.77537239
1.3800,19.02118744
1.3850,19.26981697
1.3900,19.52142608
1.3950,19.77591631
1.4000,20.03337398
1.4050,20.29405296
1.4100,20.55788459
1.4150,20.82483948
1.4200,21.09514686
1.4250,21.36863704
1.4300,21.64516933
1.4350,21.92486904
1.4400,22.20733619
1.4450,22.49276028
1.4500,22.78130309
1.4550,23.07270953
1.4600,23.36711061
1.4650,23.66448047
1.4700,23.96452887
1.4750,24.2675441
1.4800,24.57308246
1.4850,24.88151146
1.4900,25.19252955
1.4950,25.50623815
1.5000,25.82220987
1.5050,26.14059172
1.5100,26.46132418
1.5150,26.78441703
1.5200,27.10984678
1.5250,27.43728719
1.5300,27.76669781
1.5350,28.09792157
1.5400,28.43131818
1.5450,28.76659541
1.5500,29.1036591
1.5550,29.44250912
1.5600,29.78321824
1.5650,30.12569436
1.5700,30.46989229
1.5750,30.81595656
1.5800,31.16355126
1.5850,31.5123575
1.5900,31.86263926
1.5950,32.21419755
1.6000,32.5670383
1.6050,32.921224
1.6100,33.27695466
1.6150,33.63437662
1.6200,33.99376346
1.6250,34.35512215
1.6300,34.71861024
1.6350,35.08407811
1.6400,35.45158078
1.6450,35.82091663
1.6500,36.19235957
1.6550,36.56599038
1.6600,36.94149032
1.6650,37.3190118
1.6700,37.69866889
1.6750,38.08033792
1.6800,38.46400719
1.6850,38.84971179
1.6900,39.23734228
1.6950,39.62670197
1.7000,40.01780022
1.7050,40.41035295
1.7100,40.80445514
1.7150,41.20015352
1.7200,41.5971406
1.7250,41.99543932
1.7300,42.39480165
1.7350,42.79534491
1.7400,43.19746849
1.7450,43.60027656
1.7500,44.00415786
1.7550,44.40888423
1.7600,44.81423863
1.7650,45.22048612
1.7700,45.6277716
1.7750,46.03566266
1.7800,46.44443672
1.7850,46.85388188
1.7900,47.26401592
1.7950,47.67474549
1.8000,48.08623669
1.8050,48.49836774
1.8100,48.91096058
1.8150,49.32402808
1.8200,49.73753344
1.8250,50.15174309
1.8300,50.56629603
1.8350,50.98142497
1.8400,51.39698566
1.8450,51.81319171
1.8500,52.23022689
1.8550,52.64814319
1.8600,53.06653066
1.8650,53.48562259
1.8700,53.90528289
1.8750,54.32547413
1.8800,54.74648557
1.8850,55.16862653
1.8900,55.59201887
1.8950,56.0166389
1.9000,56.44292358
1.9050,56.87088189
1.9100,57.3007389
1.9150,57.73214681
1.9200,58.16496726
1.9250,58.59980739
1.9300,59.03661187
1.9350,59.47575146
1.9400,59.91751539
1.9450,60.3618764
1.9500,60.80935811
1.9550,61.25974583
1.9600,61.71351011
1.9650,62.17041808
1.9700,62.63065118
1.9750,63.09438234
1.9800,63.56176508
1.9850,64.0330714
1.9900,64.50843183
1.9950,64.98799252
2.0000,65.47165412
2.0050,65.95967796
2.0100,66.45174609
2.0150,66.94792431
2.0200,67.44819006
2.0250,67.95254183
2.0300,68.46121066
2.0350,68.97400737
2.0400,69.49102122
2.0450,70.01298405
2.0500,70.53943984
2.0550,71.07070044
2.0600,71.60683428
2.0650,72.14769732
2.0700,72.6933044
2.0750,73.24407759
2.0800,73.80002561
2.0850,74.36114785
2.0900,74.92738636
2.0950,75.49875207
2.1000,76.07503525
2.1050,76.65604311
2.1100,77.24219807
2.1150,77.83329298
2.1200,78.42915638
2.1250,79.02996974
2.1300,79.63564744
2.1350,80.24608759
2.1400,80.86116857
2.1450,81.48034675
2.1500,82.1035287
2.1550,82.73043772
2.1600,83.3613758
2.1650,83.99623195
2.1700,84.63467576
2.1750,85.27683651
2.1800,85.92254079
2.1850,86.57147924
2.1900,87.22364544
2.1950,87.87932893
2.2000,88.53806129
2.2050,89.19980367
2.2100,89.86428938
2.2150,90.53203335
2.2200,91.20274159
2.2250,91.87604227
2.2300,92.5516379
2.2350,93.2293299
2.2400,93.90864806
2.2450,94.58999394
2.2500,95.27271107
2.2550,95.95656
2.2600,96.64125374
2.2650,97.326445
2.2700,98.01178612
2.2750,98.69741856
2.2800,99.38297692
2.2850,100.0681917
2.2900,100.752793
2.2950,101.4366759
2.3000,102.11983
2.3050,102.8014481
2.3100,103.481746
2.3150,104.1604487
2.3200,104.837293
2.3250,105.512289
2.3300,106.1851638
2.3350,106.8554307
2.3400,107.5227518
2.3450,108.1870734
2.3500,108.8479487
2.3550,109.5053655
2.3600,110.1591326
2.3650,110.8088189
2.3700,111.4549637
2.3750,112.0967699
2.3800,112.7344646
2.3850,113.3674789
2.3900,113.9959669
2.3950,114.6196064
2.4000,115.2381532
2.4050,115.8519101
2.4100,116.4604771
2.4150,117.0640316
2.4200,117.662505
2.4250,118.2558188
2.4300,118.8443272
2.4350,119.4279582
2.4400,120.00647
2.4450,120.5798244
2.4500,121.1477178
2.4550,121.7098678
2.4600,122.2661559
2.4650,122.8161067
2.4700,123.3598129
2.4750,123.8969901
2.4800,124.4275579
2.4850,124.9510999
2.4900,125.4675585
2.4950,125.9769224
2.5000,126.4795745
2.5050,126.9758446
2.5100,127.4659472
2.5150,127.9499597
2.5200,128.4279493
2.5250,128.8999936
2.5300,129.3659593
2.5350,129.8261337
2.5400,130.2808531
2.5450,130.7298013
2.5500,131.1732917
2.5550,131.6110375
2.5600,132.0430501
2.5650,132.4696611
2.5700,132.8907089
2.5750,133.3058775
2.5800,133.7151925
2.5850,134.1184346
2.5900,134.5156391
2.5950,134.906913
2.6000,135.2924636
2.6050,135.6727212
2.6100,136.0474307
2.6150,136.4172526
2.6200,136.7824771
2.6250,137.1432608
2.6300,137.499901
2.6350,137.852682
2.6400,138.2021253
2.6450,138.5482302
2.6500,138.89107
2.6550,139.2308439
2.6600,139.5676692
2.6650,139.9016156
2.6700,140.2325746
2.6750,140.5604336
2.6800,140.8852
2.6850,141.2068782
2.6900,141.5250313
2.6950,141.8399215
2.7000,142.1516992
2.7050,142.4604128
2.7100,142.7662465
2.7150,143.0694011
2.7200,143.3704221
2.7250,143.668944
2.7300,143.9649059
2.7350,144.2578679
2.7400,144.5479979
2.7450,144.8353645
2.7500,145.1200635
2.7550,145.4027115
2.7600,145.6834983
2.7650,145.96283
2.7700,146.2404589
2.7750,146.5167907
2.7800,146.7918291
2.7850,147.0660802
2.7900,147.3395737
2.7950,147.612016
2.8000,147.8832018
2.8050,148.1526802
2.8100,148.4204398
2.8150,148.6861888
2.8200,148.9501755
2.8250,149.2123418
2.8300,149.4731779
2.8350,149.73301
2.8400,149.9922781
2.8450,150.2511461
2.8500,150.5095373
2.8550,150.7675641
2.8600,151.0252756
2.8650,151.2823626
2.8700,151.5387047
2.8750,151.7942745
2.8800,152.0490567
2.8850,152.3031049
2.8900,152.5563807
2.8950,152.808883
2.9000,153.0608056
2.9050,153.3119441
2.9100,153.5622035
2.9150,153.8113028
2.9200,154.0593246
2.9250,154.3060576
2.9300,154.5515377
2.9350,154.7956865
2.9400,155.0384479
2.9450,155.2795691
2.9500,155.5194498
2.9550,155.7579759
2.9600,155.9948285
2.9650,156.2305824
2.9700,156.4649234
2.9750,156.6981306
2.9800,156.9299519
2.9850,157.1602755
2.9900,157.3896053
2.9950,157.6176155
3.0000,157.8439832
3.0050,158.0685575
3.0100,158.2911407
3.0150,158.5121747
3.0200,158.7312343
3.0250,158.9483983
3.0300,159.1637567
3.0350,159.377606
3.0400,159.589688
3.0450,159.8001678
3.0500,160.0092906
3.0550,160.2169177
3.0600,160.4228989
3.0650,160.6273255
3.0700,160.8301127
3.0750,161.0312081
3.0800,161.2306935
3.0850,161.4284514
3.0900,161.6242331
3.0950,161.8183717
3.1000,162.0108101
3.1050,162.2018742
3.1100,162.3916163
3.1150,162.580022
3.1200,162.7671188
3.1250,162.953073
3.1300,163.1376413
3.1350,163.3206846
3.1400,163.5022236
3.1450,163.6823616
3.1500,163.8614749
3.1550,164.039589
3.1600,164.2165548
3.1650,164.3925764
3.1700,164.5676046
3.1750,164.7414386
3.1800,164.9139061
3.1850,165.0849648
3.1900,165.2544245
3.1950,165.4222807
3.2000,165.5879826
3.2050,165.7516331
3.2100,165.9135268
3.2150,166.0735408
3.2200,166.2315755
3.2250,166.3877052
3.2300,166.5419216
3.2350,166.6943855
3.2400,166.845213
3.2450,166.9946316
3.2500,167.1425301
3.2550,167.2889309
3.2600,167.4341503
3.2650,167.5777741
3.2700,167.7199887
3.2750,167.8609522
3.2800,168.0006254
3.2850,168.1392853
3.2900,168.2766281
3.2950,168.4128463
3.3000,168.5479253
3.3050,168.6819621
3.3100,168.814959
3.3150,168.9464496
3.3200,169.0766155
3.3250,169.2055382
3.3300,169.3330053
3.3350,169.45932
3.3400,169.5844789
3.3450,169.7088274
3.3500,169.832228
3.3550,169.9549306
3.3600,170.0768784
3.3650,170.1980915
3.3700,170.3189764
3.3750,170.4393554
3.3800,170.5591925
3.3850,170.6785289
3.3900,170.7974944
3.3950,170.9158422
3.4000,171.0335309
3.4050,171.1500694
3.4100,171.265434
3.4150,171.3796169
3.4200,171.4926586
3.4250,171.6043998
3.4300,171.7146943
3.4350,171.8232207
3.4400,171.929635
3.4450,172.0340099
3.4500,172.1358978
3.4550,172.2352223
3.4600,172.3319157
3.4650,172.4259153
3.4700,172.5172918
3.4750,172.6060908
3.4800,172.692472
3.4850,172.7765052
3.4900,172.8581493
3.4950,172.9375699
3.5000,173.0149937
3.5050,173.0904882
3.5100,173.1638956
3.5150,173.235246
3.5200,173.3047679
3.5250,173.3726108
3.5300,173.4388604
3.5350,173.5034712
3.5400,173.566436
3.5450,173.6280461
3.5500,173.6881075
3.5550,173.7466254
3.5600,173.8036881
3.5650,173.8596321
3.5700,173.914512
3.5750,173.9682927
3.5800,174.0212587
3.5850,174.0734501
3.5900,174.1251075
3.5950,174.1763763
3.6000,174.2274407
3.6050,174.2784058
3.6100,174.3293523
3.6150,174.3807349
3.6200,174.4326321
3.6250,174.4852284
3.6300,174.5385485
3.6350,174.5924469
3.6400,174.6472042
3.6450,174.7025587
3.6500,174.7586497
3.6550,174.8152687
3.6600,174.8724263
3.6650,174.9300513
3.6700,174.9876947
3.6750,175.0454065
3.6800,175.102977
3.6850,175.1603114
3.6900,175.2171432
3.6950,175.2734366
3.7000,175.3289182
3.7050,175.3836767
3.7100,175.4374336
3.7150,175.4901521
3.7200,175.5416003
3.7250,175.5917233
3.7300,175.6402589
3.7350,175.6873853
3.7400,175.733091
3.7450,175.7769896
3.7500,175.8193225
3.7550,175.8601546
3.7600,175.8994792
3.7650,175.9373903
3.7700,175.9737702
3.7750,176.0086784
3.7800,176.0421008
3.7850,176.0738282
3.7900,176.1041219
3.7950,176.1329746
3.8000,176.1602755
3.8050,176.1859172
3.8100,176.2101146
3.8150,176.2328117
3.8200,176.2541976
3.8250,176.2739531
3.8300,176.2920955
3.8350,176.308575
3.8400,176.3233616
3.8450,176.3364348
3.8500,176.3479621
3.8550,176.3580593
3.8600,176.366661
3.8650,176.3736601
3.8700,176.3791042
3.8750,176.3832165
3.8800,176.3862442
3.8850,176.3881493
3.8900,176.3888522
3.8950,176.3884041
3.9000,176.3868242
3.9050,176.3843304
3.9100,176.3808895
3.9150,176.3763528
3.9200,176.3708643
3.9250,176.364267
3.9300,176.3566313
3.9350,176.3477902
3.9400,176.3375567
3.9450,176.3259164
3.9500,176.312911
3.9550,176.2981972
3.9600,176.2818293
3.9650,176.2637583
3.9700,176.2438355
3.9750,176.2219245
3.9800,176.1978908
3.9850,176.1715161
3.9900,176.1428331
3.9950,176.1117092
4.0000,176.0782566
4.0050,176.042221
4.0100,176.0038014
4.0150,175.9626393
4.0200,175.918769
4.0250,175.8719565
4.0300,175.822482
4.0350,175.7701015
4.0400,175.7146889
4.0450,175.65622
4.0500,175.594615
4.0550,175.5297846
4.0600,175.4618666
4.0650,175.3907372
4.0700,175.3163843
4.0750,175.2388565
4.0800,175.1581784
4.0850,175.0743294
4.0900,174.9872633
4.0950,174.8969257
4.1000,174.8033991
4.1050,174.7068441
4.1100,174.6072375
4.1150,174.5048381
4.1200,174.3992556
4.1250,174.2909937
4.1300,174.1801666
4.1350,174.0669853
4.1400,173.9515168
4.1450,173.8337947
4.1500,173.714013
4.1550,173.5921721
4.1600,173.4685433
4.1650,173.3430294
4.1700,173.2157714
4.1750,173.0867565
4.1800,172.9558274
4.1850,172.8230215
4.1900,172.6885366
4.1950,172.552414
4.2000,172.4148853
4.2050,172.2758625
4.2100,172.1356018
4.2150,171.9942917
4.2200,171.8517952
4.2250,171.7082338
4.2300,171.5637289
4.2350,171.418349
4.2400,171.2720674
4.2450,171.124797
4.2500,170.9764329
4.2550,170.8271565
4.2600,170.6771392
4.2650,170.5261897
4.2700,170.3744358
4.2750,170.2217412
4.2800,170.0681272
4.2850,169.9136471
4.2900,169.7583331
4.2950,169.6022116
4.3000,169.4449321
4.3050,169.2865835
4.3100,169.126843
4.3150,168.9657986
4.3200,168.8034238
4.3250,168.6398951
4.3300,168.4748061
4.3350,168.3082403
4.3400,168.1402521
4.3450,167.9710827
4.3500,167.8005994
4.3550,167.6287423
4.3600,167.4554526
4.3650,167.2806839
4.3700,167.10461
4.3750,166.9271101
4.3800,166.7480744
4.3850,166.567757
4.3900,166.3862062
4.3950,166.2034485
4.4000,166.0194895
4.4050,165.8344189
4.4100,165.6481907
4.4150,165.4607078
4.4200,165.2721232
4.4250,165.0824051
4.4300,164.8916018
4.4350,164.6997149
4.4400,164.5068882
4.4450,164.3131319
4.4500,164.1185044
4.4550,163.9231706
4.4600,163.7270674
4.4650,163.5303537
4.4700,163.3329388
4.4750,163.1348843
4.4800,162.9362334
4.4850,162.737029
4.4900,162.5372016
4.4950,162.3369307
4.5000,162.1361082
4.5050,161.9347767
4.5100,161.7329946
4.5150,161.5303228
4.5200,161.327075
4.5250,161.1230634
4.5300,160.9181001
4.5350,160.7125041
4.5400,160.5061682
4.5450,160.2991778
4.5500,160.091651
4.5550,159.8834602
4.5600,159.6744247
4.5650,159.4645115
4.5700,159.2538015
4.5750,159.0424684
4.5800,158.8306369
4.5850,158.6182705
4.5900,158.4051887
4.5950,158.1912037
4.6000,157.9766615
4.6050,157.7616035
4.6100,157.5460327
4.6150,157.330015
4.6200,157.1134632
4.6250,156.8961546
4.6300,156.6783315
4.6350,156.4598297
4.6400,156.2405198
4.6450,156.0202286
4.6500,155.7987451
4.6550,155.5763912
4.6600,155.352989
4.6650,155.1283301
4.6700,154.9023197
4.6750,154.6748567
4.6800,154.4460838
4.6850,154.2156989
4.6900,153.9835999
4.6950,153.7497299
4.7000,153.5138788
4.7050,153.2760949
4.7100,153.0360433
4.7150,152.7937917
4.7200,152.5492965
4.7250,152.3023689
4.7300,152.0527365
4.7350,151.8002966
4.7400,151.5449015
4.7450,151.2865724
4.7500,151.0251614
4.7550,150.7604646
4.7600,150.492653
4.7650,150.2214763
4.7700,149.9471618
4.7750,149.6695369
4.7800,149.3884801
4.7850,149.104463
4.7900,148.8176647
4.7950,148.5278834
4.8000,148.2352379
4.8050,147.939618
4.8100,147.6409046
4.8150,147.339576
4.8200,147.0357539
4.8250,146.7294447
4.8300,146.4209875
4.8350,146.1099314
4.8400,145.7965763
4.8450,145.480891
4.8500,145.1627082
4.8550,144.8422214
4.8600,144.5196943
4.8650,144.1950047
4.8700,143.8681292
4.8750,143.5390529
4.8800,143.2076415
4.8850,142.8739555
4.8900,142.5378702
4.8950,142.1993869
4.9000,141.8581132
4.9050,141.5143015
4.9100,141.1675741
4.9150,140.8177449
4.9200,140.4643715
4.9250,140.1078756
4.9300,139.7480369
4.9350,139.3848808
4.9400,139.0186894
4.9450,138.6490497
4.9500,138.2763271
4.9550,137.8999083
4.9600,137.5196097
4.9650,137.135302
4.9700,136.7472561
4.9750,136.3551008
4.9800,135.9585647
4.9850,135.5577732
4.9900,135.1524383
4.9950,134.7426808
5.0000,134.3283087
5.0050,133.9091585
5.0100,133.4855194
5.0150,133.0572235
5.0200,132.6243197
5.0250,132.1866239
5.0300,131.7441758
5.0350,131.2970138
5.0400,130.8451577
5.0450,130.3884678
5.0500,129.9267428
5.0550,129.4600319
5.0600,128.9880952
5.0650,128.5111217
5.0700,128.0292555
5.0750,127.5426679
5.0800,127.0514341
5.0850,126.5552988
5.0900,126.0542406
5.0950,125.5485487
5.1000,125.0383283
5.1050,124.5235213
5.1100,124.0036343
5.1150,123.4788602
5.1200,122.9486406
5.1250,122.4137996
5.1300,121.8736761
5.1350,121.3286401
5.1400,120.778768
5.1450,120.2243469
5.1500,119.6651753
5.1550,119.1015224
5.1600,118.5332668
5.1650,117.9608275
5.1700,117.3842556
5.1750,116.8035327
5.1800,116.2187598
5.1850,115.6297515
5.1900,115.0369832
5.1950,114.4410142
5.2000,113.8425148
5.2050,113.241284
5.2100,112.6378357
5.2150,112.0323243
5.2200,111.42533
5.2250,110.8162298
5.2300,110.2055536
5.2350,109.5932676
5.2400,108.9791935
5.2450,108.3636432
5.2500,107.7467173
5.2550,107.1288442
5.2600,106.5099224
5.2650,105.890495
5.2700,105.27033
5.2750,104.6498905
5.2800,104.0291372
5.2850,103.4077724
5.2900,102.7859709
5.2950,102.1636383
5.3000,101.5409386
5.3050,100.9178963
5.3100,100.2943766
5.3150,99.67037387
5.3200,99.04546867
5.3250,98.4197616
5.3300,97.79331448
5.3350,97.16593745
5.3400,96.53773218
5.3450,95.90855389
5.3500,95.2790027
5.3550,94.64884788
5.3600,94.01831973
5.3650,93.38717422
5.3700,92.75519673
5.3750,92.12233479
5.3800,91.48873602
5.3850,90.85447133
5.3900,90.21927715
5.3950,89.58340605
5.4000,88.94715351
5.4050,88.31054097
5.4100,87.67382136
5.4150,87.03698216
5.4200,86.40022166
5.4250,85.76345435
5.4300,85.12728826
5.4350,84.49207649
5.4400,83.85818888
5.4450,83.22596638
5.4500,82.59523504
5.4550,81.96594044
5.4600,81.33833875
5.4650,80.71224002
5.4700,80.08791153
5.4750,79.46586576
5.4800,78.84594109
5.4850,78.22846365
5.4900,77.61332091
5.4950,77.00049767
5.5000,76.39035804
5.5050,75.78307585
5.5100,75.17892318
5.5150,74.57824796
5.5200,73.980738
5.5250,73.38680287
5.5300,72.79652267
5.5350,72.20946031
5.5400,71.62599215
5.5450,71.04618723
5.5500,70.4700313
5.5550,69.89764207
5.5600,69.32948751
5.5650,68.76580616
5.5700,68.20711932
5.5750,67.65352451
5.5800,67.10485892
5.5850,66.56140144
5.5900,66.02308961
5.5950,65.48970944
5.6000,64.96093465
5.6050,64.43628912
5.6100,63.91567557
5.6150,63.39943505
5.6200,62.88765529
5.6250,62.38041709
5.6300,61.87794624
5.6350,61.38026724
5.6400,60.8872482
5.6450,60.39917083
5.6500,59.91553672
5.6550,59.43652306
5.6600,58.96193145
5.6650,58.49199604
5.6700,58.02636688
5.6750,57.56495413
5.6800,57.10725324
5.6850,56.65311372
5.6900,56.20251502
5.6950,55.75530817
5.7000,55.3113726
5.7050,54.87067752
5.7100,54.43340406
5.7150,53.99929058
5.7200,53.56872067
5.7250,53.14113889
5.7300,52.71624195
5.7350,52.29340029
5.7400,51.87230382
5.7450,51.45269217
5.7500,51.03499414
5.7550,50.61948653
5.7600,50.20609392
5.7650,49.79525138
5.7700,49.38684144
5.7750,48.98091896
5.7800,48.57757358
5.7850,48.17667508
5.7900,47.77855099
5.7950,47.38326214
5.8000,46.99057217
5.8050,46.60085869
5.8100,46.21356677
5.8150,45.82853462
5.8200,45.44567212
5.8250,45.06470714
5.8300,44.68540305
5.8350,44.30818461
5.8400,43.93289981
5.8450,43.55946966
5.8500,43.18817092
5.8550,42.81900887
5.8600,42.45172401
5.8650,42.086366
5.8700,41.72280082
5.8750,41.36097624
5.8800,41.00126687
5.8850,40.64360535
5.8900,40.28789727
5.8950,39.93398749
5.9000,39.58199292
5.9050,39.2318958
5.9100,38.88391084
5.9150,38.53809791
5.9200,38.19446028
5.9250,37.85336365
5.9300,37.51441196
5.9350,37.17765688
5.9400,36.84318652
5.9450,36.5106292
5.9500,36.17977419
5.9550,35.85016394
5.9600,35.52184199
5.9650,35.19464504
5.9700,34.86870414
5.9750,34.54396338
5.9800,34.22071162
5.9850,33.89890286
5.9900,33.57849152
5.9950,33.25921057
6.0000,32.94093967
6.0050,32.62399903
6.0100,32.30799485
6.0150,31.99304975
6.0200,31.67890911
6.0250,31.36576837
6.0300,31.05375787
6.0350,30.74315595
6.0400,30.43378784
6.0450,30.12591286
6.0500,29.8193955
6.0550,29.5141947
6.0600,29.21026779
6.0650,28.9079244
6.0700,28.60704395
6.0750,28.30759499
6.0800,28.00977893
6.0850,27.71340498
6.0900,27.41860474
6.0950,27.12529762
6.1000,26.83331787
6.1050,26.54240017
6.1100,26.25261736
6.1150,25.96360924
6.1200,25.6756898
6.1250,25.38880144
6.1300,25.10282343
6.1350,24.81750507
6.1400,24.53316548
6.1450,24.24962329
6.1500,23.96689517
6.1550,23.6849641
6.1600,23.40400294
6.1650,23.12393019
6.1700,22.84494866
6.1750,22.56694921
6.1800,22.29024734
6.1850,22.01499553
6.1900,21.74168642
6.1950,21.47048137
6.2000,21.20180188
6.2050,20.93581991
6.2100,20.67285024
6.2150,20.41293789
6.2200,20.15637559
6.2250,19.90308875
6.2300,19.65337452
6.2350,19.40718444
6.2400,19.1643836
6.2450,18.92496808
6.2500,18.68937924
6.2550,18.45746739
6.2600,18.22910825
6.2650,18.00420771
6.2700,17.78276584
6.2750,17.56488263
6.2800,17.35044744
6.2850,17.13945928
6.2900,16.93182543
6.2950,16.72771655
6.3000,16.52707602
6.3050,16.32988722
6.3100,16.13625429
6.3150,15.94629103
6.3200,15.75982865
6.3250,15.57698273
6.3300,15.39769974
6.3350,15.2218963
6.3400,15.04955915
6.3450,14.88071465
6.3500,14.71531637
6.3550,14.55327702
6.3600,14.39462348
6.3650,14.23896314
6.3700,14.08621251
6.3750,13.93648432
6.3800,13.78956246
6.3850,13.64540969
6.3900,13.50367684
6.3950,13.36429969
6.4000,13.22706361
6.4050,13.09194161
6.4100,12.95903137
6.4150,12.82804763
6.4200,12.69891677
6.4250,12.57173313
6.4300,12.44623866
6.4350,12.32243537
6.4400,12.2001474
6.4450,12.07959476
6.4500,11.96058349
6.4550,11.84282519
6.4600,11.72646488
6.4650,11.61129348
6.4700,11.4971411
6.4750,11.38421089
6.4800,11.27249985
6.4850,11.16183922
6.4900,11.05206883
6.4950,10.94316126
6.5000,10.83518354
6.5050,10.72816451
6.5100,10.62207863
6.5150,10.51705838
6.5200,10.41307325
6.5250,10.3101211
6.5300,10.20826437
6.5350,10.10748773
6.5400,10.00808132
6.5450,9.910200398
6.5500,9.813635871
6.5550,9.718595442
6.5600,9.624969507
6.5650,9.532999823
6.5700,9.442637736
6.5750,9.353760488
6.5800,9.266495831
6.5850,9.180697901
6.5900,9.096385966
6.5950,9.013312401
6.6000,8.931581967
6.6050,8.851154765
6.6100,8.77204198
6.6150,8.694002624
6.6200,8.61695414
6.6250,8.540834709
6.6300,8.465566645
6.6350,8.391017308
6.6400,8.317231605
6.6450,8.244126972
6.6500,8.171510697
6.6550,8.099319049
6.6600,8.027491367
6.6650,7.955963605
6.6700,7.884700072
6.6750,7.813597695
6.6800,7.742606442
6.6850,7.671783731
6.6900,7.601204158
6.6950,7.530719255
6.7000,7.460438944
6.7050,7.390273229
6.7100,7.319956637
6.7150,7.249843686
6.7200,7.179714223
6.7250,7.109357779
6.7300,7.039104371
6.7350,6.968867099
6.7400,6.898604353
6.7450,6.82828786
6.7500,6.75796314
6.7550,6.688063699
6.7600,6.618546649
6.7650,6.549824244
6.7700,6.481983662
6.7750,6.415036359
6.7800,6.349155095
6.7850,6.284511575
6.7900,6.221432882
6.7950,6.160084762
6.8000,6.100383402
6.8050,6.042672747
6.8100,5.98711279
6.8150,5.933598125
6.8200,5.88242069
6.8250,5.833470303
6.8300,5.786679739
6.8350,5.742120877
6.8400,5.699615452
6.8450,5.659097414
6.8500,5.620365676
6.8550,5.583338182
6.8600,5.54801857
6.8650,5.514104146
6.8700,5.481390959
6.8750,5.449878307
6.8800,5.419436742
6.8850,5.390043041
6.8900,5.361661757
6.8950,5.334345656
6.9000,5.308245705
6.9050,5.283258728
6.9100,5.259572705
6.9150,5.237195052
6.9200,5.216476334
6.9250,5.197288148
6.9300,5.179686731
6.9350,5.16378776
6.9400,5.14961493
6.9450,5.137196065
6.9500,5.126617693
6.9550,5.118039514
6.9600,5.111250256
6.9650,5.106401008
6.9700,5.103508906
6.9750,5.102611939
6.9800,5.103634841
6.9850,5.106531303
6.9900,5.111215958
6.9950,5.117477155
7.0000,5.125524549
7.0050,5.135370038
7.0100,5.14695883
7.0150,5.160278997
7.0200,5.175460521
7.0250,5.192570445
7.0300,5.211491274
7.0350,5.23251799
7.0400,5.255684642
7.0450,5.281143628
7.0500,5.309021521
7.0550,5.339410362
7.0600,5.372316116
7.0650,5.407728068
7.0700,5.445792559
7.0750,5.486744134
7.0800,5.530579714
7.0850,5.577390891
7.0900,5.627024571
7.0950,5.679738116
7.1000,5.735644477
7.1050,5.794799247
7.1100,5.85718907
7.1150,5.923039267
7.1200,5.992313894
7.1250,6.065150329
7.1300,6.14159411
7.1350,6.221602686
7.1400,6.305128131
7.1450,6.392215963
7.1500,6.482814109
7.1550,6.576867907
7.1600,6.674467101
7.1650,6.77563416
7.1700,6.880543473
7.1750,6.988904641
7.1800,7.100629421
7.1850,7.215722503
7.1900,7.33397276
7.1950,7.455374047
7.2000,7.579767645
7.2050,7.707264346
7.2100,7.837857873
7.2150,7.971648758
7.2200,8.108480878
7.2250,8.24858222
7.2300,8.392243366
7.2350,8.539384893
7.2400,8.690311635
7.2450,8.845184167
7.2500,9.004055035
7.2550,9.167001483
7.2600,9.334175913
7.2650,9.505688898
7.2700,9.681541387
7.2750,9.861644384
7.2800,10.04600631
7.2850,10.23443538
7.2900,10.42686788
7.2950,10.62342545
7.3000,10.82403759
7.3050,11.02826275
7.3100,11.23618309
7.3150,11.44753447
7.3200,11.66216412
7.3250,11.8800082
7.3300,12.10106958
7.3350,12.32505104
7.3400,12.55189369
7.3450,12.78126269
7.3500,13.01304727
7.3550,13.24702324
7.3600,13.48302081
7.3650,13.72092107
7.3700,13.96065299
7.3750,14.2021916
7.3800,14.44552747
7.3850,14.69073427
7.3900,14.93790204
7.3950,15.18675145
7.4000,15.43714075
7.4050,15.68886476
7.4100,15.94176479
7.4150,16.19576967
7.4200,16.45070447
7.4250,16.70650974
7.4300,16.96317868
7.4350,17.22060073
7.4400,17.47867758
7.4450,17.73746109
7.4500,17.99703583
7.4550,18.25729751
7.4600,18.51817128
7.4650,18.77976053
7.4700,19.04211054
7.4750,19.30529004
7.4800,19.56929626
7.4850,19.83439804
7.4900,20.10089488
7.4950,20.36879793
7.5000,20.63828106
7.5050,20.90922546
7.5100,21.18176456
7.5150,21.45595098
7.5200,21.73158822
7.5250,22.00890507
7.5300,22.28760898
7.5350,22.56809349
7.5400,22.84987693
7.5450,23.13309736
7.5500,23.41785335
7.5550,23.70404609
7.5600,23.99179201
7.5650,24.28090602
7.5700,24.5713203
7.5750,24.86265754
7.5800,25.1548635
7.5850,25.44798197
7.5900,25.74175909
7.5950,26.03613775
7.6000,26.33073803
7.6050,26.62587085
7.6100,26.92144142
7.6150,27.21764043
7.6200,27.51428756
7.6250,27.81149398
7.6300,28.10926711
7.6350,28.40759465
7.6400,28.70633638
7.6450,29.00553012
7.6500,29.30540463
7.6550,29.60579603
7.6600,29.90710755
7.6650,30.20947729
7.6700,30.51284382
7.6750,30.81727647
7.6800,31.12239693
7.6850,31.42807477
7.6900,31.73437871
7.6950,32.04138217
7.7000,32.34888224
7.7050,32.65712388
7.7100,32.96582867
7.7150,33.27494114
7.7200,33.58434038
7.7250,33.89385329
7.7300,34.20349664
7.7350,34.5133408
7.7400,34.82335974
7.7450,35.13385083
7.7500,35.44462766
7.7550,35.75556617
7.7600,36.06665925
7.7650,36.37815164
7.7700,36.69014985
7.7750,37.00263793
7.7800,37.31584061
7.7850,37.62963441
7.7900,37.94399228
7.7950,38.25896856
7.8000,38.57448378
7.8050,38.89107508
7.8100,39.20874713
7.8150,39.52765836
7.8200,39.8482701
7.8250,40.17044645
7.8300,40.49464165
7.8350,40.82046273
7.8400,41.14837049
7.8450,41.47831235
7.8500,41.81057644
7.8550,42.14523239
7.8600,42.48198348
7.8650,42.82119837
7.8700,43.16293563
7.8750,43.5078667
7.8800,43.85620509
7.8850,44.20822022
7.8900,44.56378059
7.8950,44.92312461
7.9000,45.286441
7.9050,45.65362711
7.9100,46.02476948
7.9150,46.39944561
7.9200,46.77786054
7.9250,47.15988961
7.9300,47.54568409
7.9350,47.93545085
7.9400,48.32942289
7.9450,48.72806578
7.9500,49.13140719
7.9550,49.53998023
7.9600,49.95374782
7.9650,50.37276731
7.9700,50.79713647
7.9750,51.2267675
7.9800,51.66213862
7.9850,52.10322662
7.9900,52.5496582
7.9950,53.00180789
8.0000,53.4597898
8.0050,53.92344936
8.0100,54.3930818
8.0150,54.8682923
8.0200,55.34912063
8.0250,55.83515523
8.0300,56.32640382
8.0350,56.82263348
8.0400,57.32358412
8.0450,57.82870642
8.0500,58.33811576
8.0550,58.85217268
8.0600,59.37065747
8.0650,59.89332525
8.0700,60.4199983
8.0750,60.95082874
8.0800,61.4858355
8.0850,62.02492374
8.0900,62.56825308
8.0950,63.11584434
8.1000,63.66752668
8.1050,64.22352712
8.1100,64.78387748
8.1150,65.34888854
8.1200,65.91842371
8.1250,66.4924382
8.1300,67.07077732
8.1350,67.6538332
8.1400,68.24154031
8.1450,68.83387926
8.1500,69.4303554
8.1550,70.03106562
8.1600,70.63589874
8.1650,71.24443049
8.1700,71.85664354
8.1750,72.47206089
8.1800,73.09079653
8.1850,73.71255733
8.1900,74.33739004
8.1950,74.96527979
8.2000,75.59625517
8.2050,76.23005242
8.2100,76.86632143
8.2150,77.50478088
8.2200,78.14617399
8.2250,78.7898071
8.2300,79.43484952
8.2350,80.08110594
8.2400,80.72879639
8.2450,81.37751346
8.2500,82.02664205
8.2550,82.67560938
8.2600,83.32392503
8.2650,83.9712847
8.2700,84.61739483
8.2750,85.26164047
8.2800,85.90329696
8.2850,86.54230636
8.2900,87.17817485
8.2950,87.81053692
8.3000,88.43901767
8.3050,89.06348584
8.3100,89.68357949
8.3150,90.29977661
8.3200,90.91199789
8.3250,91.52053942
8.3300,92.12543752
8.3350,92.72715428
8.3400,93.32601367
8.3450,93.92213501
8.3500,94.51600559
8.3550,95.10761957
8.3600,95.69728747
8.3650,96.28493894
8.3700,96.87104841
8.3750,97.45537127
8.3800,98.03797916
8.3850,98.61899949
8.3900,99.19833458
8.3950,99.7764519
8.4000,100.3534081
8.4050,100.9287126
8.4100,101.5025931
8.4150,102.0749667
8.4200,102.6459935
8.4250,103.2156803
8.4300,103.7845619
8.4350,104.352605
8.4400,104.9196177
8.4450,105.4860202
8.4500,106.0518998
8.4550,106.6172257
8.4600,107.1823383
8.4650,107.7475546
8.4700,108.3127063
8.4750,108.8784029
8.4800,109.4444815
8.4850,110.0109021
8.4900,110.5776354
8.4950,111.1448219
8.5000,111.7121238
8.5050,112.2791142
8.5100,112.8453761
8.5150,113.4116337
8.5200,113.9763058
8.5250,114.5400934
8.5300,115.1033366
8.5350,115.6661392
8.5400,116.2282645
8.5450,116.7896014
8.5500,117.3503766
8.5550,117.9104712
8.5600,118.470132
8.5650,119.0292514
8.5700,119.5876661
8.5750,120.1452953
8.5800,120.70211
8.5850,121.2577826
8.5900,121.8121916
8.5950,122.3648751
8.6000,122.9160795
8.6050,123.4657192
8.6100,124.0138518
8.6150,124.560047
8.6200,125.1040553
8.6250,125.6457475
8.6300,126.1846434
8.6350,126.7205382
8.6400,127.2529705
8.6450,127.7818427
8.6500,128.3066541
8.6550,128.8269236
8.6600,129.3426957
8.6650,129.8537672
8.6700,130.3595831
8.6750,130.8605602
8.6800,131.3566004
8.6850,131.8485305
8.6900,132.3360583
8.6950,132.8191342
8.7000,133.2982037
8.7050,133.7734589
8.7100,134.2447491
8.7150,134.7116897
8.7200,135.1743944
8.7250,135.6326588
8.7300,136.0862568
8.7350,136.5347419
8.7400,136.978609
8.7450,137.4173364
8.7500,137.8510984
8.7550,138.2798729
8.7600,138.7033626
8.7650,139.1212267
8.7700,139.5338376
8.7750,139.9406672
8.7800,140.3417575
8.7850,140.7370136
8.7900,141.1263022
8.7950,141.5092864
8.8000,141.8863625
8.8050,142.2576267
8.8100,142.6232422
8.8150,142.9833725
8.8200,143.3388446
8.8250,143.6895495
8.8300,144.0357011
8.8350,144.3774339
8.8400,144.7148012
8.8450,145.047668
8.8500,145.3761037
8.8550,145.7000387
8.8600,146.0195045
8.8650,146.3342942
8.8700,146.6445539
8.8750,146.9508453
8.8800,147.2531754
8.8850,147.5517241
8.8900,147.8465233
8.8950,148.1378874
8.9000,148.4256303
8.9050,148.7100522
8.9100,148.9909499
8.9150,149.2684965
8.9200,149.5425411
8.9250,149.8130023
8.9300,150.0801066
8.9350,150.3437531
8.9400,150.6042164
8.9450,150.8617953
8.9500,151.1167609
8.9550,151.3700833
8.9600,151.6216821
8.9650,151.8721026
8.9700,152.1216248
8.9750,152.370347
8.9800,152.6181912
8.9850,152.864855
8.9900,153.1104551
8.9950,153.3548719
9.0000,153.5979331
9.0050,153.8397491
9.0100,154.0805541
9.0150,154.3206466
9.0200,154.5601313
9.0250,154.7990417
9.0300,155.0375065
9.0350,155.2759031
9.0400,155.5139801
9.0450,155.7520111
9.0500,155.9899511
9.0550,156.2277628
9.0600,156.4655792
9.0650,156.7033312
9.0700,156.9406545
9.0750,157.1775086
9.0800,157.4138204
9.0850,157.64959
9.0900,157.8848072
9.0950,158.1194517
9.1000,158.3531439
9.1050,158.5857686
9.1100,158.8172927
9.1150,159.0476286
9.1200,159.2760983
9.1250,159.5027637
9.1300,159.7273096
9.1350,159.9496035
9.1400,160.1696981
9.1450,160.3871586
9.1500,160.6018514
9.1550,160.8137815
9.1600,161.0227241
9.1650,161.2289213
9.1700,161.4322217
9.1750,161.6323107
9.1800,161.8294558
9.1850,162.0235793
9.1900,162.2146371
9.1950,162.4024564
9.2000,162.5870681
9.2050,162.768156
9.2100,162.9458029
9.2150,163.1198278
9.2200,163.2903122
9.2250,163.4574172
9.2300,163.6208978
9.2350,163.7807006
9.2400,163.9367851
9.2450,164.0888692
9.2500,164.236811
9.2550,164.3802376
9.2600,164.5191668
9.2650,164.6537226
9.2700,164.7837549
9.2750,164.9096906
9.2800,165.0317538
9.2850,165.1502922
9.2900,165.2658882
9.2950,165.3786233
9.3000,165.4889478
9.3050,165.5971936
9.3100,165.7033645
9.3150,165.8079496
9.3200,165.9109772
9.3250,166.0128493
9.3300,166.113522
9.3350,166.213261
9.3400,166.3121376
9.3450,166.4102251
9.3500,166.5077666
9.3550,166.6047737
9.3600,166.7012865
9.3650,166.797464
9.3700,166.8935783
9.3750,166.9895767
9.3800,167.0856438
9.3850,167.1816388
9.3900,167.2779319
9.3950,167.3743833
9.4000,167.4711654
9.4050,167.5684611
9.4100,167.6663506
9.4150,167.7649532
9.4200,167.8643939
9.4250,167.9648588
9.4300,168.0660934
9.4350,168.1683352
9.4400,168.2714044
9.4450,168.3752975
9.4500,168.4799493
9.4550,168.5853076
9.4600,168.6910076
9.4650,168.7968545
9.4700,168.9024975
9.4750,169.0078522
9.4800,169.1124616
9.4850,169.2161957
9.4900,169.3187722
9.4950,169.4198829
9.5000,169.519236
9.5050,169.6164703
9.5100,169.7114107
9.5150,169.8040144
9.5200,169.8940559
9.5250,169.9812458
9.5300,170.0654746
9.5350,170.1467675
9.5400,170.2250706
9.5450,170.3004702
9.5500,170.3731057
9.5550,170.442849
9.5600,170.5099171
9.5650,170.5739696
9.5700,170.6355101
9.5750,170.6944814
9.5800,170.7510521
9.5850,170.8052924
9.5900,170.8571703
9.5950,170.9071175
9.6000,170.9552846
9.6050,171.0017092
9.6100,171.0467761
9.6150,171.0904619
9.6200,171.132985
9.6250,171.174122
9.6300,171.2141361
9.6350,171.2528043
9.6400,171.2902176
9.6450,171.3266299
9.6500,171.3617273
9.6550,171.3955829
9.6600,171.4285895
9.6650,171.4607894
9.6700,171.4922997
9.6750,171.5235259
9.6800,171.5543843
9.6850,171.5850763
9.6900,171.615549
9.6950,171.6458402
9.7000,171.6760903
9.7050,171.7063281
9.7100,171.7367278
9.7150,171.7672777
9.7200,171.7982867
9.7250,171.8297384
9.7300,171.8620587
9.7350,171.8949886
9.7400,171.9285416
9.7450,171.9627564
9.7500,171.9976771
9.7550,172.0331528
9.7600,172.0692835
9.7650,172.1057668
9.7700,172.1426184
9.7750,172.1799924
9.7800,172.2174224
9.7850,172.2546883
9.7900,172.2917732
9.7950,172.3286248
9.8000,172.3648773
9.8050,172.400716
9.8100,172.4359109
9.8150,172.4703174
9.8200,172.5037978
9.8250,172.5363082
9.8300,172.5678229
9.8350,172.5982221
9.8400,172.6274807
9.8450,172.6553668
9.8500,172.6817431
9.8550,172.7067909
9.8600,172.7302511
9.8650,172.7524627
9.8700,172.7730675
9.8750,172.792098
9.8800,172.8095327
9.8850,172.8253334
9.8900,172.8395048
9.8950,172.8518415
9.9000,172.8621382
9.9050,172.8703802
9.9100,172.8766518
9.9150,172.8807893
9.9200,172.8828679
9.9250,172.8828662
9.9300,172.8806217
9.9350,172.8763903
9.9400,172.8700741
9.9450,172.8616443
9.9500,172.8511093
9.9550,172.8385821
9.9600,172.8236103
9.9650,172.8062253
9.9700,172.7865105
9.9750,172.7642036
9.9800,172.7392673
9.9850,172.7117243
9.9900,172.6814491
9.9950,172.6486285
10.0000,172.61335
10.0050,172.5756118
10.0100,172.5352048
10.0150,172.4920315
10.0200,172.4461067
10.0250,172.3971938
10.0300,172.345205
10.0350,172.2903035
10.0400,172.2324864
10.0450,172.1718995
10.0500,172.1083917
10.0550,172.0418979
10.0600,171.9724268
10.0650,171.9000519
10.0700,171.8249097
10.0750,171.7466794
10.0800,171.665495
10.0850,171.5815795
10.0900,171.4948199
10.0950,171.4051615
10.1000,171.3131455
10.1050,171.2186478
10.1100,171.1219642
10.1150,171.023161
10.1200,170.9223033
10.1250,170.8195633
10.1300,170.7149754
10.1350,170.6087694
10.1400,170.5007808
10.1450,170.3911372
10.1500,170.2799002
10.1550,170.1670039
10.1600,170.0526537
10.1650,169.9366281
10.1700,169.8192099
10.1750,169.7001817
10.1800,169.5797217
10.1850,169.4580465
10.1900,169.3348462
10.1950,169.2103408
10.2000,169.0845286
10.2050,168.9574075
10.2100,168.8286991
10.2150,168.6985736
10.2200,168.5667059
10.2250,168.4334021
10.2300,168.2986655
10.2350,168.1624469
10.2400,168.0250025
10.2450,167.8861668
10.2500,167.7460068
10.2550,167.6044705
10.2600,167.4619354
10.2650,167.318294
10.2700,167.1735709
10.2750,167.0276696
10.2800,166.880743
10.2850,166.7327884
10.2900,166.5838507
10.2950,166.4338757
10.3000,166.2828405
10.3050,166.1308368
10.3100,165.9779024
10.3150,165.8244403
10.3200,165.6701053
10.3250,165.5151429
10.3300,165.3595583
10.3350,165.2030868
10.3400,165.0457964
10.3450,164.8877444
10.3500,164.7289292
10.3550,164.5694215
10.3600,164.409003
10.3650,164.2476404
10.3700,164.0852142
10.3750,163.9217562
10.3800,163.7572446
10.3850,163.5917573
10.3900,163.4254347
10.3950,163.2583506
10.4000,163.0905539
10.4050,162.9219635
10.4100,162.7526036
10.4150,162.5826845
10.4200,162.4123373
10.4250,162.2414554
10.4300,162.070152
10.4350,161.8984531
10.4400,161.7261973
10.4450,161.553612
10.4500,161.3807248
10.4550,161.2075709
10.4600,161.0340675
10.4650,160.8604706
10.4700,160.6865954
10.4750,160.5126289
10.4800,160.3384191
10.4850,160.1636863
10.4900,159.988532
10.4950,159.8127895
10.5000,159.6363983
10.5050,159.4592948
10.5100,159.2814023
10.5150,159.1025841
10.5200,158.9228853
10.5250,158.7422161
10.5300,158.560583
10.5350,158.3779
10.5400,158.1940505
10.5450,158.0092307
10.5500,157.8234258
10.5550,157.6368682
10.5600,157.449222
10.5650,157.2607932
10.5700,157.0713493
10.5750,156.8811276
10.5800,156.6899112
10.5850,156.4976121
10.5900,156.3042436
10.5950,156.1097135
10.6000,155.9139436
10.6050,155.7168485
10.6100,155.5184773
10.6150,155.3185506
10.6200,155.1174921
10.6250,154.9151088
10.6300,154.7115709
10.6350,154.5067696
10.6400,154.3006328
10.6450,154.0927704
10.6500,153.8831109
10.6550,153.671588
10.6600,153.4585054
10.6650,153.2437475
10.6700,153.0272423
10.6750,152.8089967
10.6800,152.5892858
10.6850,152.3678504
10.6900,152.1447436
10.6950,151.9199321
10.7000,151.6930856
10.7050,151.4642356
10.7100,151.2329972
10.7150,150.9991115
10.7200,150.7623175
10.7250,150.5224596
10.7300,150.2794757
10.7350,150.033268
10.7400,149.7839827
10.7450,149.531532
10.7500,149.2760127
10.7550,149.0172307
10.7600,148.7551764
10.7650,148.4895219
10.7700,148.2201671
10.7750,147.946959
10.7800,147.6696943
10.7850,147.3883438
10.7900,147.1031493
10.7950,146.8139546
10.8000,146.5208659
10.8050,146.2238573
10.8100,145.9230316
10.8150,145.6183996
10.8200,145.3101009
10.8250,144.9980332
10.8300,144.6827554
10.8350,144.3641931
10.8400,144.0426
10.8450,143.7180057
10.8500,143.3908779
10.8550,143.0608667
10.8600,142.7280443
10.8650,142.3923345
10.8700,142.0538414
10.8750,141.7128038
10.8800,141.3695586
10.8850,141.0240296
10.8900,140.6764649
10.8950,140.3269469
10.9000,139.9752827
10.9050,139.6216562
10.9100,139.2660393
10.9150,138.9082061
10.9200,138.5479374
10.9250,138.1851856
10.9300,137.8197356
10.9350,137.4520084
10.9400,137.0815856
10.9450,136.7088024
10.9500,136.3335713
10.9550,135.955633
10.9600,135.574563
10.9650,135.1905132
10.9700,134.8034899
10.9750,134.4131803
10.9800,134.0195256
10.9850,133.6223816
10.9900,133.2217199
10.9950,132.8175081
11.0000,132.4098921
11.0050,131.9990276
11.0100,131.5850657
11.0150,131.1676665
11.0200,130.746702
11.0250,130.3215652
11.0300,129.892174
11.0350,129.4583358
11.0400,129.0200267
11.0450,128.5769515
11.0500,128.1289761
11.0550,127.6759139
11.0600,127.21787
11.0650,126.7548393
11.0700,126.2870469
11.0750,125.8145091
11.0800,125.3371155
11.0850,124.8550107
11.0900,124.3675468
11.0950,123.8746433
11.1000,123.3764296
11.1050,122.8727935
11.1100,122.3638702
11.1150,121.8493132
11.1200,121.3292648
11.1250,120.8037448
11.1300,120.2721518
11.1350,119.7347491
11.1400,119.1912635
11.1450,118.6416769
11.1500,118.0857818
11.1550,117.5238833
11.1600,116.9563699
11.1650,116.3835153
11.1700,115.8052418
11.1750,115.2221612
11.1800,114.6341085
11.1850,114.0418338
11.1900,113.4456977
11.1950,112.8457585
11.2000,112.242505
11.2050,111.6357468
11.2100,111.0258329
11.2150,110.4130513
11.2200,109.7977059
11.2250,109.1801232
11.2300,108.5605772
11.2350,107.9392966
11.2400,107.3168158
11.2450,106.693068
11.2500,106.0684376
11.2550,105.4433625
11.2600,104.8179609
11.2650,104.1926638
11.2700,103.5677621
11.2750,102.9439214
11.2800,102.3213053
11.2850,101.7003866
11.2900,101.0813361
11.2950,100.4645699
11.3000,99.84982056
11.3050,99.23766147
11.3100,98.62833011
11.3150,98.02213522
11.3200,97.41939461
11.3250,96.8205263
11.3300,96.2252724
11.3350,95.6337865
11.3400,95.04561861
11.3450,94.46102895
11.3500,93.88001575
11.3550,93.3030912
11.3600,92.73019914
11.3650,92.16091911
11.3700,91.59509172
11.3750,91.03248344
11.3800,90.47279353
11.3850,89.91575243
11.3900,89.36114579
11.3950,88.80876
11.4000,88.25840338
11.4050,87.71011159
11.4100,87.16328298
11.4150,86.61815867
11.4200,86.07444711
11.4250,85.53203433
11.4300,84.99086806
11.4350,84.4507885
11.4400,83.91169975
11.4450,83.37363408
11.4500,82.83621692
11.4550,82.29929939
11.4600,81.76277458
11.4650,81.22633632
11.4700,80.69034889
11.4750,80.15443205
11.4800,79.61916634
11.4850,79.08464054
11.4900,78.55100762
11.4950,78.01867339
11.5000,77.48727253
11.5050,76.95697798
11.5100,76.42737938
11.5150,75.89834868
11.5200,75.36982335
11.5250,74.84194935
11.5300,74.3148236
11.5350,73.78861621
11.5400,73.26369299
11.5450,72.73990123
11.5500,72.2171804
11.5550,71.69564211
11.5600,71.17544892
11.5650,70.65629844
11.5700,70.13817341
11.5750,69.62146919
11.5800,69.1064942
11.5850,68.59349655
11.5900,68.08280088
11.5950,67.5743905
11.6000,67.0682516
11.6050,66.56439366
11.6100,66.06272478
11.6150,65.56333966
11.6200,65.06601067
11.6250,64.57059861
11.6300,64.07771965
11.6350,63.58730938
11.6400,63.09995306
11.6450,62.61563887
11.6500,62.13401891
11.6550,61.65468887
11.6600,61.17739418
11.6650,60.70261833
11.6700,60.23036741
11.6750,59.76075085
11.6800,59.29378857
11.6850,58.82920552
11.6900,58.36722573
11.6950,57.9076867
11.7000,57.45064516
11.7050,56.99578697
11.7100,56.54351909
11.7150,56.093767
11.7200,55.6463883
11.7250,55.20154688
11.7300,54.75954133
11.7350,54.32008518
11.7400,53.88307022
11.7450,53.44829224
11.7500,53.01566285
11.7550,52.58532398
11.7600,52.15717657
11.7650,51.73167995
11.7700,51.30896376
11.7750,50.88887913
11.7800,50.47113536
11.7850,50.05584832
11.7900,49.64320711
11.7950,49.23344304
11.8000,48.82674926
11.8050,48.42352393
11.8100,48.02411441
11.8150,47.62852352
11.8200,47.23673783
11.8250,46.84840789
11.8300,46.46399194
11.8350,46.08372183
11.8400,45.7076048
11.8450,45.33529246
11.8500,44.96648874
11.8550,44.60155895
11.8600,44.2409622
11.8650,43.88466364
11.8700,43.53283352
11.8750,43.18506391
11.8800,42.84100874
11.8850,42.50040092
11.8900,42.16282175
11.8950,41.82849706
11.9000,41.49791292
11.9050,41.17107448
11.9100,40.84809426
11.9150,40.52915974
11.9200,40.21474212
11.9250,39.90485016
11.9300,39.59936588
11.9350,39.29836223
11.9400,39.00145513
11.9450,38.70837903
11.9500,38.41941129
11.9550,38.13450509
11.9600,37.85422275
11.9650,37.57820596
11.9700,37.30623887
11.9750,37.03841018
11.9800,36.77435855
11.9850,36.51402924
11.9900,36.25708932
11.9950,36.00372502
12.0000,35.75376192
12.0050,35.50724621
12.0100,35.26375472
12.0150,35.02320303
12.0200,34.78569398
12.0250,34.55068248
12.0300,34.31789616
12.0350,34.08736292
12.0400,33.85906763
12.0450,33.63322694
12.0500,33.4099187
12.0550,33.18893702
12.0600,32.97040251
12.0650,32.75404608
12.0700,32.53938442
12.0750,32.32663964
12.0800,32.11571061
12.0850,31.90637503
12.0900,31.69844013
12.0950,31.49170184
12.1000,31.28606241
12.1050,31.08148645
12.1100,30.87771453
12.1150,30.67485397
12.1200,30.47285307
12.1250,30.27178878
12.1300,30.07126937
12.1350,29.87120279
12.1400,29.67156055
12.1450,29.47315536
12.1500,29.27628048
12.1550,29.08070929
12.1600,28.88685517
12.1650,28.69492291
12.1700,28.50469267
12.1750,28.31643207
12.1800,28.13018137
12.1850,27.94626713
12.1900,27.76508987
12.1950,27.58671678
12.2000,27.41133601
12.2050,27.23892054
12.2100,27.06962014
12.2150,26.90361133
12.2200,26.74064448
12.2250,26.58099705
12.2300,26.42472235
12.2350,26.2715035
12.2400,26.12140573
12.2450,25.97430971
12.2500,25.82967521
12.2550,25.68736132
12.2600,25.54684373
12.2650,25.40779506
12.2700,25.27010103
12.2750,25.13337211
12.2800,24.99749677
12.2850,24.86236113
12.2900,24.72793677
12.2950,24.59380893
12.3000,24.45972928
12.3050,24.32563426
12.3100,24.19167533
12.3150,24.05773488
12.3200,23.92339171
12.3250,23.78859301
12.3300,23.65304538
12.3350,23.51633924
12.3400,23.37825123
12.3450,23.23835815
12.3500,23.09629417
12.3550,22.95195642
12.3600,22.80517557
12.3650,22.65580259
12.3700,22.50419379
12.3750,22.35007312
12.3800,22.19377754
12.3850,22.03538411
12.3900,21.87469448
12.3950,21.71189548
12.4000,21.54690149
12.4050,21.37954084
12.4100,21.21008223
12.4150,21.0385714
12.4200,20.86517899
12.4250,20.68992755
12.4300,20.5131777
12.4350,20.33491103
12.4400,20.15517282
12.4450,19.97411579
12.4500,19.79203849
12.4550,19.60931727
12.4600,19.42597296
12.4650,19.2423175
12.4700,19.05882299
12.4750,18.87553546
12.4800,18.69289924
12.4850,18.51098257
12.4900,18.33018427
12.4950,18.15059622
12.5000,17.97259081
12.5050,17.79650055
12.5100,17.62274015
12.5150,17.45151276
12.5200,17.28326185
12.5250,17.11803524
12.5300,16.95594713
12.5350,16.79730367
12.5400,16.64208534
12.5450,16.49040635
12.5500,16.34242202
12.5550,16.19826049
12.5600,16.05771083
12.5650,15.92098456
12.5700,15.78772705
12.5750,15.65788631
12.5800,15.53134742
12.5850,15.40766324
12.5900,15.28668512
12.5950,15.16828695
12.6000,15.05226329
12.6050,14.9384495
12.6100,14.82642622
12.6150,14.715974
12.6200,14.60676469
12.6250,14.49855324
12.6300,14.39085763
12.6350,14.28381344
12.6400,14.17706402
12.6450,14.07054106
12.6500,13.96400833
12.6550,13.85728045
12.6600,13.7500389
12.6650,13.64205039
12.6700,13.53284491
12.6750,13.42238728
12.6800,13.3103648
12.6850,13.19662946
12.6900,13.08141313
12.6950,12.96461862
12.7000,12.84649078
12.7050,12.72736354
12.7100,12.60735936
12.7150,12.48711923
12.7200,12.36682062
12.7250,12.24721087
12.7300,12.12848474
12.7350,12.01117666
12.7400,11.89576162
12.7450,11.78260076
12.7500,11.67178958
12.7550,11.5637614
12.7600,11.45873077
12.7650,11.35706324
12.7700,11.258904
12.7750,11.16471804
12.7800,11.07470759
12.7850,10.98916623
12.7900,10.90809897
12.7950,10.83187288
12.8000,10.76032617
12.8050,10.69386133
12.8100,10.6322518
12.8150,10.57568793
12.8200,10.52393661
12.8250,10.47722512
12.8300,10.43538995
12.8350,10.39838164
12.8400,10.3662547
12.8450,10.33909949
12.8500,10.31681765
12.8550,10.29941537
12.8600,10.28695449
12.8650,10.27932646
12.8700,10.27680945
12.8750,10.27928706
12.8800,10.28674013
12.8850,10.29932528
12.8900,10.31693048
12.8950,10.33952136
12.9000,10.3671861
12.9050,10.39985362
12.9100,10.43748107
12.9150,10.47979813
12.9200,10.52683828
12.9250,10.57846911
12.9300,10.63501831
12.9350,10.69617062
12.9400,10.76194036
12.9450,10.83219356
12.9500,10.90678953
12.9550,10.98580635
12.9600,11.0690935
12.9650,11.15651349
12.9700,11.24825157
12.9750,11.3441228
12.9800,11.44438512
12.9850,11.54901891
12.9900,11.65803837
12.9950,11.77165034
13.0000,11.89006579
13.0050,12.01304344
13.0100,12.14085058
13.0150,12.27320085
13.0200,12.41013111
13.0250,12.55152551
13.0300,12.69745949
13.0350,12.84787793
13.0400,13.00271004
13.0450,13.16204132
13.0500,13.32595131
13.0550,13.49428688
13.0600,13.66731701
13.0650,13.84512471
13.0700,14.02768896
13.0750,14.21491999
13.0800,14.40666649
13.0850,14.60295446
13.0900,14.80379609
13.0950,15.00922787
13.1000,15.21911828
13.1050,15.4333685
13.1100,15.65211402
13.1150,15.87519064
13.1200,16.10270756
13.1250,16.33451777
13.1300,16.57076292
13.1350,16.81150541
13.1400,17.05674487
13.1450,17.30619019
13.1500,17.55994644
13.1550,17.81767456
13.1600,18.0794415
13.1650,18.34498141
13.1700,18.61400148
13.1750,18.88642704
13.1800,19.16220321
13.1850,19.44124126
13.1900,19.72346886
13.1950,20.00885463
13.2000,20.29722805
13.2050,20.5882745
13.2100,20.88212528
13.2150,21.17857072
13.2200,21.47772008
13.2250,21.77941803
13.2300,22.08349375
13.2350,22.39021304
13.2400,22.69934752
13.2450,23.01096094
13.2500,23.32499637
13.2550,23.64116838
13.2600,23.95976196
13.2650,24.28083841
13.2700,24.6042279
13.2750,24.93016835
13.2800,25.25856586
13.2850,25.58929653
13.2900,25.92241781
13.2950,26.25778361
13.3000,26.59532199
13.3050,26.93523593
13.3100,27.27748452
13.3150,27.6222646
13.3200,27.96960226
13.3250,28.3193719
13.3300,28.67167558
13.3350,29.02642344
13.3400,29.38391101
13.3450,29.74378869
13.3500,30.10633673
13.3550,30.47152703
13.3600,30.83918647
13.3650,31.20920209
13.3700,31.58147627
13.3750,31.95593653
13.3800,32.33269515
13.3850,32.71161849
13.3900,33.09279565
13.3950,33.47605314
13.4000,33.86145762
13.4050,34.24887348
13.4100,34.63829271
13.4150,35.02945952
13.4200,35.42232547
13.4250,35.81652909
13.4300,36.21196481
13.4350,36.60859765
13.4400,37.00620031
13.4450,37.40468945
13.4500,37.8041246
13.4550,38.20472445
13.4600,38.60598257
13.4650,39.00796084
13.4700,39.41067425
13.4750,39.81388051
13.4800,40.21764379
13.4850,40.62176641
13.4900,41.02628693
13.4950,41.43090663
13.5000,41.83571837
13.5050,42.24048623
13.5100,42.64514465
13.5150,43.04987437
13.5200,43.45465371
13.5250,43.85926015
13.5300,44.26392566
13.5350,44.66807189
13.5400,45.07178882
13.5450,45.47494164
13.5500,45.87765615
13.5550,46.28007405
13.5600,46.68180011
13.5650,47.08269664
13.5700,47.48295523
13.5750,47.88222738
13.5800,48.28076643
13.5850,48.67859827
13.5900,49.07556818
13.5950,49.47188145
13.6000,49.86757934
13.6050,50.26292136
13.6100,50.65784251
13.6150,51.05225532
13.6200,51.44638934
13.6250,51.8407437
13.6300,52.23540018
13.6350,52.63059836
13.6400,53.0260763
13.6450,53.42192204
13.6500,53.81818737
13.6550,54.2147445
13.6600,54.6118133
13.6650,55.00922446
13.6700,55.40726751
13.6750,55.80606044
13.6800,56.20574777
13.6850,56.60623199
13.6900,57.00767603
13.6950,57.41005551
13.7000,57.81347221
13.7050,58.21822014
13.7100,58.62405007
13.7150,59.03122639
13.7200,59.43993892
13.7250,59.85058414
13.7300,60.26350646
13.7350,60.6788762
13.7400,61.09687379
13.7450,61.51772033
13.7500,61.9413125
13.7550,62.36745693
13.7600,62.79634931
13.7650,63.22796009
13.7700,63.66234791
13.7750,64.09967496
13.7800,64.5399236
13.7850,64.98307169
13.7900,65.42875809
13.7950,65.87722397
13.8000,66.32826606
13.8050,66.78185148
13.8100,67.23804897
13.8150,67.69672047
13.8200,68.15780067
13.8250,68.62153585
13.8300,69.08749781
13.8350,69.55624034
13.8400,70.0274821
13.8450,70.50137761
13.8500,70.97809366
13.8550,71.45753107
13.8600,71.94000579
13.8650,72.42549385
13.8700,72.91390388
13.8750,73.40541419
13.8800,73.89989755
13.8850,74.39763552
13.8900,74.89845495
13.8950,75.40225101
13.9000,75.90889597
13.9050,76.41843525
13.9100,76.930885
13.9150,77.44635518
13.9200,77.96526485
13.9250,78.48718069
13.9300,79.01218479
13.9350,79.54023518
13.9400,80.07164568
13.9450,80.60652879
13.9500,81.14486954
13.9550,81.68686915
13.9600,82.23253944
13.9650,82.78195379
13.9700,83.33530972
13.9750,83.89255008
13.9800,84.45348026
13.9850,85.01852785
13.9900,85.58758999
13.9950,86.16053521
14.0000,86.73747905
14.0050,87.31813683
14.0100,87.9028591
14.0150,88.49126935
14.0200,89.08321003
14.0250,89.67853127
14.0300,90.27708374
14.0350,90.87830798
14.0400,91.4825004
14.0450,92.08909948
14.0500,92.69789034
14.0550,93.30883193
14.0600,93.92180161
14.0650,94.53678661
14.0700,95.15402367
14.0750,95.77336697
14.0800,96.39446742
14.0850,97.01715045
14.0900,97.64103173
14.0950,98.26582128
14.1000,98.89092049
14.1050,99.51641831
14.1100,100.1417228
14.1150,100.7668702
14.1200,101.3912208
14.1250,102.0146388
14.1300,102.6366149
14.1350,103.2566346
14.1400,103.8746459
14.1450,104.4901177
14.1500,105.1027857
14.1550,105.7125461
14.1600,106.319112
14.1650,106.9227774
14.1700,107.523265
14.1750,108.1206841
14.1800,108.7146058
14.1850,109.3047517
14.1900,109.8913301
14.1950,110.4742744
14.2000,111.0539085
14.2050,111.6299347
14.2100,112.2023532
14.2150,112.7712917
14.2200,113.3363648
14.2250,113.8978134
14.2300,114.4557902
14.2350,115.010224
14.2400,115.560821
14.2450,116.1075901
14.2500,116.6504854
14.2550,117.1895196
14.2600,117.7244222
14.2650,118.2550309
14.2700,118.7813252
14.2750,119.3033824
14.2800,119.8213569
14.2850,120.3351644
14.2900,120.8446581
14.2950,121.3498621
14.3000,121.8507877
14.3050,122.3476582
14.3100,122.840138
14.3150,123.3284392
14.3200,123.8126522
14.3250,124.2929656
14.3300,124.7694783
14.3350,125.2429478
14.3400,125.7131636
14.3450,126.1806512
14.3500,126.6456615
14.3550,127.1084098
14.3600,127.5692642
14.3650,128.028564
14.3700,128.4862384
14.3750,128.9428903
14.3800,129.3983959
14.3850,129.8525819
14.3900,130.305337
14.3950,130.7566153
14.4000,131.2065393
14.4050,131.6552087
14.4100,132.1025763
14.4150,132.5486182
14.4200,132.9933987
14.4250,133.4371028
14.4300,133.8796796
14.4350,134.3209897
14.4400,134.7614459
14.4450,135.2008794
14.4500,135.6394778
14.4550,136.0770432
14.4600,136.5132466
14.4650,136.9480085
14.4700,137.3811208
14.4750,137.8119756
14.4800,138.2403963
14.4850,138.6663218
14.4900,139.0898158
14.4950,139.5107926
14.5000,139.9285074
14.5050,140.343006
14.5100,140.754103
14.5150,141.1615034
14.5200,141.5652447
14.5250,141.9651088
14.5300,142.3608495
14.5350,142.7521779
14.5400,143.1391694
14.5450,143.5213712
14.5500,143.8989828
14.5550,144.2716998
14.5600,144.6397296
14.5650,145.0032448
14.5700,145.3622094
14.5750,145.7164775
14.5800,146.0656572
14.5850,146.4096238
14.5900,146.7479379
14.5950,147.0809627
14.6000,147.4082428
14.6050,147.7295616
14.6100,148.0447669
14.6150,148.3538456
14.6200,148.6568363
14.6250,148.9539748
14.6300,149.2454427
14.6350,149.5308129
14.6400,149.8102733
14.6450,150.083679
14.6500,150.3510439
14.6550,150.6126651
14.6600,150.8684349
14.6650,151.1182746
14.6700,151.3620399
14.6750,151.5992441
14.6800,151.8303203
14.6850,152.0552095
14.6900,152.2739394
14.6950,152.4866072
14.7000,152.6933244
14.7050,152.8943994
14.7100,153.0901256
14.7150,153.2803782
14.7200,153.4651981
14.7250,153.6448267
14.7300,153.8197618
14.7350,153.9900947
14.7400,154.156085
14.7450,154.3179849
14.7500,154.4760638
14.7550,154.630419
14.7600,154.7818975
14.7650,154.9304262
14.7700,155.0767739
14.7750,155.2211309
14.7800,155.3637268
14.7850,155.5048523
14.7900,155.6441769
14.7950,155.7818278
14.8000,155.9182056
14.8050,156.0532292
14.8100,156.187218
14.8150,156.3201261
14.8200,156.4521232
14.8250,156.5829817
14.8300,156.7124865
14.8350,156.840734
14.8400,156.9675549
14.8450,157.0930838
14.8500,157.2170366
14.8550,157.3396761
14.8600,157.4607245
14.8650,157.5799639
14.8700,157.6973314
14.8750,157.8123717
14.8800,157.9251005
14.8850,158.0353839
14.8900,158.1435219
14.8950,158.2488557
14.9000,158.3516521
14.9050,158.4517923
14.9100,158.5492298
14.9150,158.6442457
14.9200,158.7362454
14.9250,158.8248913
14.9300,158.9097682
14.9350,158.991041
14.9400,159.068763
14.9450,159.1430713
14.9500,159.2141557
14.9550,159.282039
14.9600,159.3471788
14.9650,159.4096079
14.9700,159.4696677
14.9750,159.5278304
14.9800,159.5839904
14.9850,159.6387664
14.9900,159.6925125
14.9950,159.745396
15.0000,159.7976047
15.0050,159.8494245
15.0100,159.9009064
15.0150,159.9525558
15.0200,160.0046584
15.0250,160.0570678
15.0300,160.1100036
15.0350,160.163621
15.0400,160.2176646
15.0450,160.2723851
15.0500,160.3273985
15.0550,160.3833843
15.0600,160.4400554
15.0650,160.4973899
15.0700,160.5552599
15.0750,160.6138694
15.0800,160.6731928
15.0850,160.733245
15.0900,160.794209
15.0950,160.8559753
15.1000,160.9185945
15.1050,160.9816487
15.1100,161.0449473
15.1150,161.1083979
15.1200,161.1717229
15.1250,161.2350454
15.1300,161.2984214
15.1350,161.3615697
15.1400,161.4243805
15.1450,161.4864777
15.1500,161.5477353
15.1550,161.6079781
15.1600,161.6673187
15.1650,161.7256607
15.1700,161.7832661
15.1750,161.8400648
15.1800,161.8959794
15.1850,161.9510294
15.1900,162.0050466
15.1950,162.0583733
15.2000,162.1109583
15.2050,162.1630992
15.2100,162.2149503
15.2150,162.2664613
15.2200,162.3180092
15.2250,162.3697938
15.2300,162.4220837
15.2350,162.475051
15.2400,162.5285794
15.2450,162.5829623
15.2500,162.6383081
15.2550,162.6946204
15.2600,162.7519665
15.2650,162.8104524
15.2700,162.8698947
15.2750,162.9300857
15.2800,162.9909493
15.2850,163.0525099
15.2900,163.1145543
15.2950,163.1770196
15.3000,163.2397671
15.3050,163.3025801
15.3100,163.3653782
15.3150,163.4278586
15.3200,163.4897341
15.3250,163.5511198
15.3300,163.6115494
15.3350,163.6710613
15.3400,163.7299685
15.3450,163.7881163
15.3500,163.8456762
15.3550,163.902359
15.3600,163.9578103
15.3650,164.0122133
15.3700,164.0654089
15.3750,164.1173836
15.3800,164.1679595
15.3850,164.2170047
15.3900,164.2645195
15.3950,164.3101983
15.4000,164.3539373
15.4050,164.3957983
15.4100,164.4357384
15.4150,164.4736386
15.4200,164.5094485
15.4250,164.5427149
15.4300,164.573244
15.4350,164.6008875
15.4400,164.6255183
15.4450,164.6472064
15.4500,164.6659189
15.4550,164.6817212
15.4600,164.6943575
15.4650,164.7040266
15.4700,164.710328
15.4750,164.7135148
15.4800,164.7136606
15.4850,164.7107202
15.4900,164.7048829
15.4950,164.6961055
15.5000,164.6843888
15.5050,164.6696824
15.5100,164.6519212
15.5150,164.6310581
15.5200,164.6073077
15.5250,164.5807586
15.5300,164.5515093
15.5350,164.5193365
15.5400,164.4844998
15.5450,164.4466153
15.5500,164.4054329
15.5550,164.3608949
15.5600,164.3126229
15.5650,164.2605889
15.5700,164.2046814
15.5750,164.1451182
15.5800,164.0817874
15.5850,164.0144583
15.5900,163.9431957
15.5950,163.8679895
15.6000,163.7888894
15.6050,163.7055942
15.6100,163.6181554
15.6150,163.5266341
15.6200,163.4313976
15.6250,163.3322766
15.6300,163.2294374
15.6350,163.1227338
15.6400,163.0119824
15.6450,162.897567
15.6500,162.77936
15.6550,162.6572755
15.6600,162.5318097
15.6650,162.40292
15.6700,162.2708415
15.6750,162.1353582
15.6800,161.9968537
15.6850,161.8553499
15.6900,161.7106463
15.6950,161.5630293
15.7000,161.4126616
15.7050,161.2596643
15.7100,161.1040141
15.7150,160.9459343
15.7200,160.7855038
15.7250,160.6228981
15.7300,160.4582521
15.7350,160.2917515
15.7400,160.1233997
15.7450,159.9531377
15.7500,159.7811723
15.7550,159.607416
15.7600,159.4320017
15.7650,159.2550137
15.7700,159.0765617
15.7750,158.8970367
15.7800,158.7164517
15.7850,158.5348228
15.7900,158.3521345
15.7950,158.1685536
15.8000,157.9841838
15.8050,157.7989658
15.8100,157.6129526
15.8150,157.4262676
15.8200,157.2388864
15.8250,157.0507596
15.8300,156.8618633
15.8350,156.6724877
15.8400,156.4824984
15.8450,156.2921161
15.8500,156.1012088
15.8550,155.9098057
15.8600,155.7178412
15.8650,155.5250877
15.8700,155.3315178
15.8750,155.1368914
15.8800,154.9413049
15.8850,154.7445264
15.8900,154.5463649
15.8950,154.3469778
15.9000,154.1461587
15.9050,153.9440822
15.9100,153.7407487
15.9150,153.5361382
15.9200,153.329923
15.9250,153.121986
15.9300,152.9122583
15.9350,152.700624
15.9400,152.486885
15.9450,152.2705885
15.9500,152.05154
15.9550,151.8296697
15.9600,151.6048027
15.9650,151.3771368
15.9700,151.1467424
15.9750,150.9139005
15.9800,150.678335
15.9850,150.4400121
15.9900,150.1988861
15.9950,149.9550058
16.0000,149.7078735
16.0050,149.4570747
16.0100,149.2025457
16.0150,148.9442477
16.0200,148.6821932
16.0250,148.416139
16.0300,148.146189
16.0350,147.8719335
16.0400,147.5930756
16.0450,147.3097638
16.0500,147.0218023
16.0550,146.7290339
16.0600,146.431424
16.0650,146.1286378
16.0700,145.8209479
16.0750,145.508267
16.0800,145.19058
16.0850,144.8680454
16.0900,144.5406769
16.0950,144.2086836
16.1000,143.8723314
16.1050,143.5318739
16.1100,143.1876708
16.1150,142.8397422
16.1200,142.4884243
16.1250,142.1339263
16.1300,141.7763512
16.1350,141.4158213
16.1400,141.0525183
16.1450,140.6865881
16.1500,140.3186221
16.1550,139.9485729
16.1600,139.5767723
16.1650,139.2032962
16.1700,138.8283054
16.1750,138.4520419
16.1800,138.0742268
16.1850,137.6951136
16.1900,137.3147109
16.1950,136.9329934
16.2000,136.5500254
16.2050,136.1659072
16.2100,135.7805125
16.2150,135.3938402
16.2200,135.0059392
16.2250,134.6170038
16.2300,134.2270614
16.2350,133.8363328
16.2400,133.4448642
16.2450,133.052769
16.2500,132.6600674
16.2550,132.2666712
16.2600,131.8723681
16.2650,131.4767633
16.2700,131.0794076
16.2750,130.6800346
16.2800,130.2785393
16.2850,129.874916
16.2900,129.4690998
16.2950,129.061247
16.3000,128.6515508
16.3050,128.2399183
16.3100,127.826202
16.3150,127.4098409
16.3200,126.9907212
16.3250,126.5688741
16.3300,126.1437471
16.3350,125.715455
16.3400,125.2840338
16.3450,124.8495543
16.3500,124.4118499
16.3550,123.9709672
16.3600,123.5267363
16.3650,123.0796896
16.3700,122.6293445
16.3750,122.1755396
16.3800,121.7181986
16.3850,121.257245
16.3900,120.7924717
16.3950,120.3239372
16.4000,119.8513331
16.4050,119.3747302
16.4100,118.8938685
16.4150,118.4087602
16.4200,117.9193526
16.4250,117.4257347
16.4300,116.9278856
16.4350,116.425749
16.4400,115.9192997
16.4450,115.4083936
16.4500,114.8930251
16.4550,114.3732286
16.4600,113.8493017
16.4650,113.3214436
16.4700,112.7897832
16.4750,112.2540169
16.4800,111.7142604
16.4850,111.1706151
16.4900,110.6229682
16.4950,110.0713599
16.5000,109.5159152
16.5050,108.9567777
16.5100,108.3938508
16.5150,107.8275126
16.5200,107.2578364
16.5250,106.6847824
16.5300,106.1082218
16.5350,105.5280508
16.5400,104.9444645
16.5450,104.3575325
16.5500,103.7676001
16.5550,103.1748611
16.5600,102.5793815
16.5650,101.9813682
16.5700,101.3810026
16.5750,100.7783038
16.5800,100.1734848
16.5850,99.56647037
16.5900,98.95752593
16.5950,98.34633355
16.6000,97.73308038
16.6050,97.1185167
16.6100,96.5023653
16.6150,95.88463117
16.6200,95.2652365
16.6250,94.64454195
16.6300,94.02283972
16.6350,93.40031612
16.6400,92.77683317
16.6450,92.15245001
16.6500,91.52736456
16.6550,90.90149615
16.6600,90.27495423
16.6650,89.64740428
16.6700,89.01928289
16.6750,88.39047941
16.6800,87.76108876
16.6850,87.13117611
16.6900,86.50090917
16.6950,85.87006642
16.7000,85.23924192
16.7050,84.60887426
16.7100,83.97926843
16.7150,83.35059423
16.7200,82.72326656
16.7250,82.09675321
16.7300,81.47158062
16.7350,80.84790195
16.7400,80.22602694
16.7450,79.60628284
16.7500,78.98854175
16.7550,78.37335279
16.7600,77.76069516
16.7650,77.15087488
16.7700,76.54405699
16.7750,75.94050049
16.7800,75.3401118
16.7850,74.74336402
16.7900,74.15046804
16.7950,73.56140892
16.8000,72.97586731
16.8050,72.39349052
16.8100,71.81440007
16.8150,71.2388108
16.8200,70.6665589
16.8250,70.09761271
16.8300,69.53202353
16.8350,68.96986404
16.8400,68.41114677
16.8450,67.85564237
16.8500,67.3032015
16.8550,66.75339504
16.8600,66.20631414
16.8650,65.66191779
16.8700,65.12004535
16.8750,64.58058932
16.8800,64.04344798
16.8850,63.50835534
16.8900,62.97515736
16.8950,62.44377032
16.9000,61.91390218
16.9050,61.38568739
16.9100,60.85925977
16.9150,60.33473704
16.9200,59.81204697
16.9250,59.29082933
16.9300,58.77087645
16.9350,58.25162033
16.9400,57.73312558
16.9450,57.21503104
16.9500,56.69720067
16.9550,56.17932984
16.9600,55.66158271
16.9650,55.14402392
16.9700,54.62667923
16.9750,54.10934586
16.9800,53.59235764
16.9850,53.07558305
16.9900,52.55906025
16.9950,52.04267757
17.0000,51.52567931
17.0050,51.00773435
17.0100,50.48893858
17.0150,49.96908832
17.0200,49.44862121
17.0250,48.9276824
17.0300,48.40657603
17.0350,47.88561039
17.0400,47.36458974
17.0450,46.84388916
17.0500,46.32364126
17.0550,45.80343386
17.0600,45.28364661
17.0650,44.76428526
17.0700,44.24574883
17.0750,43.72817076
17.0800,43.21175551
17.0850,42.69618231
17.0900,42.18157023
17.0950,41.66844153
17.1000,41.15749563
17.1050,40.64930612
17.1100,40.14439821
17.1150,39.64325974
17.1200,39.14650538
17.1250,38.65498354
17.1300,38.1693202
17.1350,37.68983033
17.1400,37.21680181
17.1450,36.75060046
17.1500,36.29180808
17.1550,35.84070875
17.1600,35.39763383
17.1650,34.96278852
17.1700,34.53631165
17.1750,34.11823097
17.1800,33.70871326
17.1850,33.30792265
17.1900,32.91586527
17.1950,32.53264402
17.2000,32.15829477
17.2050,31.79249496
17.2100,31.43514562
17.2150,31.08594184
17.2200,30.74477294
17.2250,30.41142379
17.2300,30.08587002
17.2350,29.76822237
17.2400,29.45843133
17.2450,29.15650487
17.2500,28.8626238
17.2550,28.57684518
17.2600,28.29888649
17.2650,28.02865445
17.2700,27.76589046
17.2750,27.5101326
17.2800,27.26091951
17.2850,27.01771603
17.2900,26.78020292
17.2950,26.54797203
17.3000,26.32082193
17.3050,26.0983874
17.3100,25.88011061
17.3150,25.66573432
17.3200,25.45462703
17.3250,25.24684276
17.3300,25.04194569
17.3350,24.83973266
17.3400,24.64018588
17.3450,24.44305057
17.3500,24.24832036
17.3550,24.05608304
17.3600,23.86603304
17.3650,23.67798983
17.3700,23.49182809
17.3750,23.30745376
17.3800,23.12488778
17.3850,22.94417732
17.3900,22.76524814
17.3950,22.58794371
17.4000,22.41216571
17.4050,22.23805836
17.4100,22.06586274
17.4150,21.89527748
17.4200,21.72647243
17.4250,21.55910753
17.4300,21.39277593
17.4350,21.22736971
17.4400,21.06289947
17.4450,20.89926099
17.4500,20.73607381
17.4550,20.57334856
17.4600,20.41101669
17.4650,20.24884973
17.4700,20.08655932
17.4750,19.92429792
17.4800,19.76183418
17.4850,19.59895924
17.4900,19.43567875
17.4950,19.27174858
17.5000,19.10699427
17.5050,18.94144544
17.5100,18.77477366
17.5150,18.60711714
17.5200,18.43841816
17.5250,18.26864833
17.5300,18.09789292
17.5350,17.92605094
17.5400,17.753224
17.5450,17.57955848
17.5500,17.40502003
17.5550,17.2297387
17.5600,17.05402838
17.5650,16.87783315
17.5700,16.70117646
17.5750,16.52434895
17.5800,16.34748224
17.5850,16.17075334
17.5900,15.99430826
17.5950,15.81825249
17.6000,15.64274208
17.6050,15.46781713
17.6100,15.29372667
17.6150,15.12058842
17.6200,14.94853321
17.6250,14.77769035
17.6300,14.60810082
17.6350,14.43995914
17.6400,14.27360041
17.6450,14.10886728
17.6500,13.94607225
17.6550,13.78518287
17.6600,13.62631665
17.6650,13.46973699
17.6700,13.3154378
17.6750,13.16352066
17.6800,13.01390908
17.6850,12.86667838
17.6900,12.7217917
17.6950,12.57902603
17.7000,12.43862863
17.7050,12.30026058
17.7100,12.16363322
17.7150,12.02865118
17.7200,11.8950711
17.7250,11.76263676
17.7300,11.63136075
17.7350,11.50113048
17.7400,11.37149303
17.7450,11.24235874
17.7500,11.11350799
17.7550,10.98472203
17.7600,10.85567035
17.7650,10.72603135
17.7700,10.59598857
17.7750,10.46499753
17.7800,10.33314262
17.7850,10.20034535
17.7900,10.06652375
17.7950,9.931892329
17.8000,9.796606093
17.8050,9.660801433
17.8100,9.524725416
17.8150,9.388427611
17.8200,9.251933281
17.8250,9.115429362
17.8300,8.978958872
17.8350,8.842574313
17.8400,8.706124837
17.8450,8.569657719
17.8500,8.433095464
17.8550,8.296739892
17.8600,8.160538981
17.8650,8.024725589
17.8700,7.889503557
17.8750,7.755201771
17.8800,7.622088717
17.8850,7.490562149
17.8900,7.360979845
17.8950,7.233946283
17.9000,7.109795546
17.9050,6.988957199
17.9100,6.871919763
17.9150,6.759182215
17.9200,6.651332349
17.9250,6.548822502
17.9300,6.452001321
17.9350,6.361006549
17.9400,6.275836681
17.9450,6.196542573
17.9500,6.12270723
17.9550,6.05410355
17.9600,5.990265491
17.9650,5.930490683
17.9700,5.874283528
17.9750,5.820984909
17.9800,5.770081469
17.9850,5.720851972
17.9900,5.67293115
17.9950,5.625885557
18.0000,5.578873049
18.0050,5.53170335
18.0100,5.48395571
18.0150,5.435788796
18.0200,5.386887027
18.0250,5.33748195
18.0300,5.287792016
18.0350,5.237890141
18.0400,5.188352289
18.0450,5.139416861
18.0500,5.091439301
18.0550,5.04491911
18.0600,5.000330962
18.0650,4.958239643
18.0700,4.91883323
18.0750,4.882543021
18.0800,4.849391791
18.0850,4.81946421
18.0900,4.792706155
18.0950,4.769018498
18.1000,4.748257631
18.1050,4.73012501
18.1100,4.714436583
18.1150,4.70110439
18.1200,4.689997537
18.1250,4.680965641
18.1300,4.673829225
18.1350,4.668590911
18.1400,4.665336321
18.1450,4.664051955
18.1500,4.664939814
18.1550,4.667939856
18.1600,4.67316015
18.1650,4.680667996
18.1700,4.690570676
18.1750,4.703101415
18.1800,4.718277143
18.1850,4.736220072
18.1900,4.756931983
18.1950,4.780278177
18.2000,4.806397664
18.2050,4.835478437
18.2100,4.867500223
18.2150,4.902621935
18.2200,4.940551348
18.2250,4.981142786
18.2300,5.024514174
18.2350,5.070530839
18.2400,5.119142248
18.2450,5.170339357
18.2500,5.22410975
18.2550,5.2803466
18.2600,5.339040918
18.2650,5.400110403
18.2700,5.463463062
18.2750,5.528970127
18.2800,5.596428345
18.2850,5.666041999
18.2900,5.737588902
18.2950,5.811119592
18.3000,5.886673673
18.3050,5.964309921
18.3100,6.044153107
18.3150,6.126208546
18.3200,6.21051898
18.3250,6.297065418
18.3300,6.385806547
18.3350,6.476790097
18.3400,6.569913935
18.3450,6.665256554
18.3500,6.762768364
18.3550,6.862541145
18.3600,6.964384538
18.3650,7.068186144
18.3700,7.173998423
18.3750,7.281766191
18.3800,7.391470198
18.3850,7.503259118
18.3900,7.617133506
18.3950,7.733078716
18.4000,7.851019283
18.4050,7.970769552
18.4100,8.092347782
18.4150,8.215714401
18.4200,8.340875107
18.4250,8.467783278
18.4300,8.596554891
18.4350,8.727231536
18.4400,8.85983346
18.4450,8.99445957
18.4500,9.131142755
18.4550,9.269640829
18.4600,9.410088412
18.4650,9.552554016
18.4700,9.696991058
18.4750,9.843440127
18.4800,9.991984066
18.4850,10.14298022
18.4900,10.2963591
18.4950,10.4525214
18.5000,10.61138948
18.5050,10.77301451
18.5100,10.937294
18.5150,11.10426618
18.5200,11.27426259
18.5250,11.44717792
18.5300,11.62310173
18.5350,11.80220474
18.5400,11.98447021
18.5450,12.169968
18.5500,12.35871014
18.5550,12.5506467
18.5600,12.74591131
18.5650,12.94459138
18.5700,13.1466194
18.5750,13.35204516
18.5800,13.56083954
18.5850,13.77268395
18.5900,13.98774007
18.5950,14.20586676
18.6000,14.42698221
18.6050,14.65112019
18.6100,14.87828495
18.6150,15.1085258
18.6200,15.34193352
18.6250,15.57859738
18.6300,15.81843374
18.6350,16.06173423
18.6400,16.30856421
18.6450,16.55884563
18.6500,16.81285893
18.6550,17.07024029
18.6600,17.33146584
18.6650,17.59652148
18.6700,17.86545996
18.6750,18.13819907
18.6800,18.41478083
18.6850,18.69517393
18.6900,18.97921883
18.6950,19.26661075
18.7000,19.55752401
18.7050,19.85198362
18.7100,20.14980381
18.7150,20.45071102
18.7200,20.75462992
18.7250,21.06162793
18.7300,21.37144198
18.7350,21.68411773
18.7400,21.99952388
18.7450,22.31736895
18.7500,22.63753623
18.7550,22.96008152
18.7600,23.28506072
18.7650,23.6124175
18.7700,23.94213162
18.7750,24.27403677
18.7800,24.60795672
18.7850,24.94363597
18.7900,25.2810877
18.7950,25.61989707
18.8000,25.96001506
18.8050,26.30130092
18.8100,26.64384913
18.8150,26.98743294
18.8200,27.33179687
18.8250,27.677097
18.8300,28.02321654
18.8350,28.37003698
18.8400,28.71738277
18.8450,29.06524546
18.8500,29.41364838
18.8550,29.76273545
18.8600,30.11250624
18.8650,30.46293249
18.8700,30.81430465
18.8750,31.16673154
18.8800,31.52044445
18.8850,31.87568189
18.8900,32.23247444
18.8950,32.59113737
18.9000,32.95184723
18.9050,33.31469286
18.9100,33.67985051
18.9150,34.04706794
18.9200,34.41652975
18.9250,34.78833738
18.9300,35.16248822
18.9350,35.53870529
18.9400,35.91710717
18.9450,36.29774
18.9500,36.68060774
18.9550,37.0659282
18.9600,37.45337076
18.9650,37.84300464
18.9700,38.23471285
18.9750,38.62890351
18.9800,39.02565507
18.9850,39.42501669
18.9900,39.82728509
18.9950,40.23275584
19.0000,40.64118031
19.0050,41.05251671
19.0100,41.4669586
19.0150,41.88460628
19.0200,42.30552371
19.0250,42.72941861
19.0300,43.1564639
19.0350,43.58640137
19.0400,44.01943506
19.0450,44.45565541
19.0500,44.89491465
19.0550,45.33741553
19.0600,45.78304183
19.0650,46.23148086
19.0700,46.68290356
19.0750,47.13701789
19.0800,47.5940762
19.0850,48.0538894
19.0900,48.51674462
19.0950,48.98267406
19.1000,49.45169846
19.1050,49.92385173
19.1100,50.399413
19.1150,50.87842055
19.1200,51.36078779
19.1250,51.84676746
19.1300,52.33641943
19.1350,52.82972109
19.1400,53.3268758
19.1450,53.82777163
19.1500,54.33251054
19.1550,54.84113932
19.1600,55.35344986
19.1650,55.86961267
19.1700,56.38942329
19.1750,56.91283936
19.1800,57.43984438
19.1850,57.97038311
19.1900,58.50453916
19.1950,59.0419261
19.2000,59.58290059
19.2050,60.12733593
19.2100,60.6753135
19.2150,61.227097
19.2200,61.78288047
19.2250,62.34266157
19.2300,62.90627037
19.2350,63.47396267
19.2400,64.04528774
19.2450,64.62038296
19.2500,65.19925004
19.2550,65.78171676
19.2600,66.36790574
19.2650,66.95767564
19.2700,67.55106842
19.2750,68.14773486
19.2800,68.74739197
19.2850,69.34982292
19.2900,69.95451684
19.2950,70.56149666
19.3000,71.17076798
19.3050,71.7825135
19.3100,72.39661579
19.3150,73.01310848
19.3200,73.63171084
19.3250,74.25279862
19.3300,74.87617935
19.3350,75.50160693
19.3400,76.12922236
19.3450,76.75875207
19.3500,77.390309
19.3550,78.02378048
19.3600,78.65894082
19.3650,79.29579634
19.3700,79.93393687
19.3750,80.57362861
19.3800,81.21472157
19.3850,81.85702463
19.3900,82.50061482
19.3950,83.14555109
19.4000,83.79183093
19.4050,84.43913511
19.4100,85.08737708
19.4150,85.73648912
19.4200,86.3867017
19.4250,87.03775443
19.4300,87.68939965
19.4350,88.34159221
19.4400,88.99432142
19.4450,89.64737781
19.4500,90.30086566
19.4550,90.95467004
19.4600,91.60877434
19.4650,92.2630935
19.4700,92.91773438
19.4750,93.57271327
19.4800,94.22783305
19.4850,94.88281954
19.4900,95.53752375
19.4950,96.19183349
19.5000,96.84580736
19.5050,97.49930291
19.5100,98.15206062
19.5150,98.80395524
19.5200,99.45472027
19.5250,100.1038574
19.5300,100.7516443
19.5350,101.3979079
19.5400,102.0429961
19.5450,102.6865733
19.5500,103.3283874
19.5550,103.9686271
19.5600,104.6070497
19.5650,105.2437105
19.5700,105.878356
19.5750,106.5107782
19.5800,107.1411422
19.5850,107.7692572
19.5900,108.3950411
19.5950,109.0180787
19.6000,109.6385802
19.6050,110.2564388
19.6100,110.8715697
19.6150,111.4840503
19.6200,112.0937894
19.6250,112.7005396
19.6300,113.3040792
19.6350,113.9050177
19.6400,114.5029823
19.6450,115.0983229
19.6500,115.6907892
19.6550,116.2803188
19.6600,116.8668814
19.6650,117.4507408
19.6700,118.0319211
19.6750,118.6102037
19.6800,119.1856023
19.6850,119.7583847
19.6900,120.3283683
19.6950,120.8951111
19.7000,121.4589799
19.7050,122.0198593
19.7100,122.5777004
19.7150,123.1323515
19.7200,123.6837066
19.7250,124.2314836
19.7300,124.7755444
19.7350,125.3158668
19.7400,125.8520617
19.7450,126.3841871
19.7500,126.9116086
19.7550,127.4339622
19.7600,127.9508619
19.7650,128.4625086
19.7700,128.9687332
19.7750,129.4694008
19.7800,129.9645926
19.7850,130.4544174
19.7900,130.9388812
19.7950,131.4183272
19.8000,131.8923598
19.8050,132.3609525
19.8100,132.8241219
19.8150,133.2816561
19.8200,133.7333885
19.8250,134.1792848
19.8300,134.6193543
19.8350,135.0532899
19.8400,135.480671
19.8450,135.901868
19.8500,136.3170905
19.8550,136.7265058
19.8600,137.1303826
19.8650,137.5283592
19.8700,137.92094
19.8750,138.308079
19.8800,138.6900788
19.8850,139.0668192
19.8900,139.438664
19.8950,139.8061664
19.9000,140.1696381
19.9050,140.5288416
19.9100,140.883932
19.9150,141.2350703
19.9200,141.5827072
19.9250,141.9274214
19.9300,142.2694061
19.9350,142.6082949
19.9400,142.9439595
19.9450,143.2761256
19.9500,143.6050587
19.9550,143.930508
19.9600,144.2524092
19.9650,144.5704641
19.9700,144.8846751
19.9750,145.1950762
19.9800,145.5016151
19.9850,145.8044007
19.9900,146.10342
19.9950,146.3990021
20.0000,146.6907418
20.0050,146.9792084
20.0100,147.2640465
20.0150,147.5455358
20.0200,147.8237458
20.0250,148.0986066
20.0300,148.3703752
20.0350,148.6391124
20.0400,148.9051677
20.0450,149.1687773
20.0500,149.4300551
20.0550,149.6892719
20.0600,149.9467479
20.0650,150.2024318
20.0700,150.4563042
20.0750,150.7083456
20.0800,150.9583808
20.0850,151.2063846
20.0900,151.4521547
20.0950,151.6953657
20.1000,151.9359337
20.1050,152.1742476
20.1100,152.4103768
20.1150,152.64428
20.1200,152.876132
20.1250,153.1060947
20.1300,153.3343418
20.1350,153.5607686
20.1400,153.7852494
20.1450,154.0077585
20.1500,154.2281035
20.1550,154.4463654
20.1600,154.6625795
20.1650,154.8769087
20.1700,155.0893759
20.1750,155.3001276
20.1800,155.5094258
20.1850,155.7173962
20.1900,155.9241281
20.1950,156.1295805
20.2000,156.3336765
20.2050,156.536808
20.2100,156.7391222
20.2150,156.9405063
20.2200,157.1409386
20.2250,157.3401284
20.2300,157.5381055
20.2350,157.7350857
20.2400,157.9311195
20.2450,158.1263753
20.2500,158.320792
20.2550,158.5143946
20.2600,158.7072613
20.2650,158.8992737
20.2700,159.09
20.2750,159.2795652
20.2800,159.4676808
20.2850,159.6541572
20.2900,159.8386999
20.2950,160.0210882
20.3000,160.2014936
20.3050,160.3793118
20.3100,160.5548016
20.3150,160.727732
20.3200,160.8978518
20.3250,161.0654202
20.3300,161.2305596
20.3350,161.3931617
20.3400,161.5533915
20.3450,161.7111358
20.3500,161.8665014
20.3550,162.0196941
20.3600,162.1709192
20.3650,162.3201191
20.3700,162.4673259
20.3750,162.6127563
20.3800,162.7566706
20.3850,162.8988888
20.3900,163.0394294
20.3950,163.1786553
20.4000,163.3164359
20.4050,163.4527708
20.4100,163.5875747
20.4150,163.7209635
20.4200,163.8528999
20.4250,163.9834915
20.4300,164.1124444
20.4350,164.2401401
20.4400,164.3667858
20.4450,164.4923371
20.4500,164.6169459
20.4550,164.7403837
20.4600,164.8626792
20.4650,164.9837831
20.4700,165.1035539
20.4750,165.2223943
20.4800,165.3400231
20.4850,165.4565105
20.4900,165.5718959
20.4950,165.6864231
20.5000,165.7999638
20.5050,165.9126423
20.5100,166.0245782
20.5150,166.1357957
20.5200,166.2461073
20.5250,166.3553383
20.5300,166.4638708
20.5350,166.5713659
20.5400,166.6779856
20.5450,166.7833659
20.5500,166.8877919
20.5550,166.9910541
20.5600,167.0929493
20.5650,167.1935846
20.5700,167.2930237
20.5750,167.3910978
20.5800,167.4879544
20.5850,167.5835233
20.5900,167.6778504
20.5950,167.7709904
20.6000,167.8630195
20.6050,167.9540613
20.6100,168.0438431
20.6150,168.1324816
20.6200,168.2199221
20.6250,168.3061966
20.6300,168.3909567
20.6350,168.4744512
20.6400,168.5563721
20.6450,168.6366591
20.6500,168.7151956
20.6550,168.7918928
20.6600,168.8665926
20.6650,168.9392618
20.6700,169.0100653
20.6750,169.0786446
20.6800,169.1450217
20.6850,169.209147
20.6900,169.2712131
20.6950,169.3312395
20.7000,169.3893166
20.7050,169.4453529
20.7100,169.499471
20.7150,169.5516711
20.7200,169.6021063
20.7250,169.6507024
20.7300,169.6978711
20.7350,169.7435861
20.7400,169.787905
20.7450,169.8307977
20.7500,169.8722605
20.7550,169.9126972
20.7600,169.9520054
20.7650,169.9902304
20.7700,170.0273505
20.7750,170.0633655
20.7800,170.0985579
20.7850,170.1328723
20.7900,170.1663517
20.7950,170.1988207
20.8000,170.2304564
20.8050,170.261
20.8100,170.2906766
20.8150,170.3194065
20.8200,170.3473766
20.8250,170.3747149
20.8300,170.4010152
20.8350,170.4263936
20.8400,170.4506322
20.8450,170.4738761
20.8500,170.4957647
20.8550,170.5162911
20.8600,170.5354821
20.8650,170.5528507
20.8700,170.5684123
20.8750,170.5820843
20.8800,170.5935416
20.8850,170.6027412
20.8900,170.6094381
20.8950,170.6136896
20.9000,170.6150759
20.9050,170.613778
20.9100,170.6096575
20.9150,170.6028708
20.9200,170.5934907
20.9250,170.5813812
20.9300,170.5668228
20.9350,170.549777
20.9400,170.5303824
20.9450,170.5085638
20.9500,170.4847886
20.9550,170.4589438
20.9600,170.4311745
20.9650,170.4014995
20.9700,170.3698425
20.9750,170.3365171
20.9800,170.3015681
20.9850,170.265
20.9900,170.226835
20.9950,170.1868932
21.0000,170.145328
21.0050,170.1022013
21.0100,170.0573264
21.0150,170.0107953
21.0200,169.9627116
21.0250,169.913123
21.0300,169.8619837
21.0350,169.8092861
21.0400,169.7550795
21.0450,169.6992383
21.0500,169.641762
21.0550,169.5825684
21.0600,169.5215445
21.0650,169.4589338
21.0700,169.3947805
21.0750,169.3289643
21.0800,169.2611034
21.0850,169.1913571
21.0900,169.1196943
21.0950,169.0459847
21.1000,168.9702222
21.1050,168.8923514
21.1100,168.8120784
21.1150,168.7294931
21.1200,168.6444071
21.1250,168.5568171
21.1300,168.4668863
21.1350,168.3744355
21.1400,168.2794444
21.1450,168.1818724
21.1500,168.0817222
21.1550,167.979033
21.1600,167.8738152
21.1650,167.7660643
21.1700,167.655977
21.1750,167.543342
21.1800,167.4283638
21.1850,167.3107707
21.1900,167.1908539
21.1950,167.068265
21.2000,166.943083
21.2050,166.8151733
21.2100,166.6848791
21.2150,166.5519078
21.2200,166.4165834
21.2250,166.2787317
21.2300,166.1382587
21.2350,165.9951384
21.2400,165.8495812
21.2450,165.7016858
21.2500,165.5514279
21.2550,165.3988905
21.2600,165.2440646
21.2650,165.0871373
21.2700,164.9278817
21.2750,164.7662249
21.2800,164.6019694
21.2850,164.4352948
21.2900,164.2659944
21.2950,164.093924
21.3000,163.9191135
21.3050,163.7415184
21.3100,163.5613064
21.3150,163.3784264
21.3200,163.192734
21.3250,163.0044169
21.3300,162.8132631
21.3350,162.6190214
21.3400,162.4216717
21.3450,162.2213109
21.3500,162.0177745
21.3550,161.8108846
21.3600,161.6008074
21.3650,161.3873174
21.3700,161.1706183
21.3750,160.9505322
21.3800,160.7271585
21.3850,160.5004514
21.3900,160.2700992
21.3950,160.0362824
21.4000,159.7987125
21.4050,159.557412
21.4100,159.3122783
21.4150,159.0629935
21.4200,158.8095656
21.4250,158.5518072
21.4300,158.2893668
21.4350,158.0224311
21.4400,157.7509842
21.4450,157.4749696
21.4500,157.1943281
21.4550,156.9091399
21.4600,156.6191785
21.4650,156.3245825
21.4700,156.0249988
21.4750,155.7207551
21.4800,155.4115519
21.4850,155.0976056
21.4900,154.7789044
21.4950,154.4551947
21.5000,154.1264964
21.5050,153.7928363
21.5100,153.453892
21.5150,153.1098518
21.5200,152.7605427
21.5250,152.406369
21.5300,152.0473721
21.5350,151.6836225
21.5400,151.314754
21.5450,150.9406908
21.5500,150.5611962
21.5550,150.1764089
21.5600,149.7860481
21.5650,149.3901127
21.5700,148.9885097
21.5750,148.5813474
21.5800,148.1685431
21.5850,147.7501011
21.5900,147.3261222
21.5950,146.8967671
21.6000,146.4620286
21.6050,146.0217972
21.6100,145.575765
21.6150,145.1240194
21.6200,144.6665156
21.6250,144.2029373
21.6300,143.7334557
21.6350,143.2579474
21.6400,142.7764773
21.6450,142.2891445
21.6500,141.7958692
21.6550,141.2967934
21.6600,140.7916944
21.6650,140.2807621
21.6700,139.7635967
21.6750,139.2404
21.6800,138.7109987
21.6850,138.1749929
21.6900,137.6323819
21.6950,137.0830013
21.7000,136.5271009
21.7050,135.9647496
21.7100,135.3958453
21.7150,134.8203302
21.7200,134.2379328
21.7250,133.6487943
21.7300,133.0529505
21.7350,132.450155
21.7400,131.8401985
21.7450,131.2231842
21.7500,130.598625
21.7550,129.9665984
21.7600,129.3270255
21.7650,128.6795867
21.7700,128.0244538
21.7750,127.3612301
21.7800,126.6898961
21.7850,126.0106521
21.7900,125.3229115
21.7950,124.627157
21.8000,123.9231182
21.8050,123.2106308
21.8100,122.4899543
21.8150,121.7612413
21.8200,121.0243682
21.8250,120.2791259
21.8300,119.5252323
21.8350,118.7626998
21.8400,117.991487
21.8450,117.2119817
21.8500,116.4239874
21.8550,115.6275988
21.8600,114.8231305
21.8650,114.0106854
21.8700,113.1908726
21.8750,112.3642526
21.8800,111.5315835
21.8850,110.692736
21.8900,109.8476777
21.8950,108.9969652
21.9000,108.1408871
21.9050,107.2795897
21.9100,106.4134774
21.9150,105.5430088
21.9200,104.6683535
21.9250,103.7901628
21.9300,102.9091004
21.9350,102.0256183
21.9400,101.1404929
21.9450,100.2542141
21.9500,99.36764981
21.9550,98.4810051
21.9600,97.59523659
21.9650,96.71055485
21.9700,95.82777401
21.9750,94.94723768
21.9800,94.06970185
21.9850,93.19554925
21.9900,92.32504251
21.9950,91.45805255
22.0000,90.59470768
22.0050,89.73528998
22.0100,88.88035003
22.0150,88.03002843
22.0200,87.18425272
22.0250,86.34276708
22.0300,85.50556484
22.0350,84.67294794
22.0400,83.84477187
22.0450,83.02081405
22.0500,82.201438
22.0550,81.38634805
22.0600,80.57568397
22.0650,79.76947589
22.0700,78.96738903
22.0750,78.16945989
22.0800,77.37570824
22.0850,76.58555579
22.0900,75.79893169
22.0950,75.01520264
22.1000,74.23432548
22.1050,73.45588942
22.1100,72.67908141
22.1150,71.90368885
22.1200,71.12984983
22.1250,70.35770649
22.1300,69.58785046
22.1350,68.82021721
22.1400,68.05479041
22.1450,67.29137615
22.1500,66.53047003
22.1550,65.77211048
22.1600,65.01635985
22.1650,64.2632608
22.1700,63.51298648
22.1750,62.7660207
22.1800,62.02306856
22.1850,61.2850544
22.1900,60.55227684
22.1950,59.82471534
22.2000,59.10255018
22.2050,58.38616097
22.2100,57.67593219
22.2150,56.97221921
22.2200,56.27564741
22.2250,55.58660899
22.2300,54.90512824
22.2350,54.23144377
22.2400,53.56507655
22.2450,52.90683993
22.2500,52.25691144
22.2550,51.61546838
22.2600,50.98259527
22.2650,50.35850371
22.2700,49.74323721
22.2750,49.13720155
22.2800,48.54050997
22.2850,47.95326297
22.2900,47.37553983
22.2950,46.80734296
22.3000,46.24871705
22.3050,45.69921697
22.3100,45.15903135
22.3150,44.6281358
22.3200,44.10663743
22.3250,43.59454719
22.3300,43.09151482
22.3350,42.5972564
22.3400,42.11184473
22.3450,41.63516864
22.3500,41.16704152
22.3550,40.70753319
22.3600,40.25646496
22.3650,39.81382223
22.3700,39.3799015
22.3750,38.95448757
22.3800,38.53752228
22.3850,38.12890879
22.3900,37.72836031
22.3950,37.33592317
22.4000,36.9517344
22.4050,36.57586426
22.4100,36.20839988
22.4150,35.84891184
22.4200,35.49655617
22.4250,35.15107558
22.4300,34.81187513
22.4350,34.4785438
22.4400,34.15088487
22.4450,33.82864994
22.4500,33.51138521
22.4550,33.19861036
22.4600,32.8902002
22.4650,32.58562774
22.4700,32.28460454
22.4750,31.98665571
22.4800,31.69126062
22.4850,31.39795632
22.4900,31.10674141
22.4950,30.81751795
22.5000,30.53030951
22.5050,30.24497587
22.5100,29.96109606
22.5150,29.67855247
22.5200,29.39729622
22.5250,29.11700805
22.5300,28.83749805
22.5350,28.55869647
22.5400,28.28053794
22.5450,28.00318431
22.5500,27.72638578
22.5550,27.4503487
22.5600,27.17534785
22.5650,26.90126769
22.5700,26.62797173
22.5750,26.35550554
22.5800,26.0836273
22.5850,25.81240477
22.5900,25.54206078
22.5950,25.27249782
22.6000,25.00398116
22.6050,24.73666122
22.6100,24.47050256
22.6150,24.20548615
22.6200,23.94201757
22.6250,23.68035683
22.6300,23.42075204
22.6350,23.16344956
22.6400,22.90852765
22.6450,22.65614622
22.6500,22.40618872
22.6550,22.1587475
22.6600,21.91386493
22.6650,21.67168864
22.6700,21.43171013
22.6750,21.19399036
22.6800,20.95860111
22.6850,20.72556861
22.6900,20.4950423
22.6950,20.26674927
22.7000,20.04077409
22.7050,19.81714936
22.7100,19.59554313
22.7150,19.37602383
22.7200,19.15882022
22.7250,18.9435653
22.7300,18.73014073
22.7350,18.51853326
22.7400,18.30843029
22.7450,18.09985604
22.7500,17.89288422
22.7550,17.68747113
22.7600,17.48329499
22.7650,17.28043209
22.7700,17.07885736
22.7750,16.87848142
22.7800,16.67928747
22.7850,16.48117499
22.7900,16.28403278
22.7950,16.08797487
22.8000,15.8928314
22.8050,15.69856144
22.8100,15.50547859
22.8150,15.31329817
22.8200,15.12214497
22.8250,14.93218764
22.8300,14.74354089
22.8350,14.55658483
22.8400,14.37134507
22.8450,14.18767151
22.8500,14.00573407
22.8550,13.82568093
22.8600,13.64730138
22.8650,13.47108778
22.8700,13.29709107
22.8750,13.12511347
22.8800,12.95546158
22.8850,12.78815049
22.8900,12.62333053
22.8950,12.46128014
22.9000,12.30175214
22.9050,12.14484786
22.9100,11.99064165
22.9150,11.83917872
22.9200,11.69035498
22.9250,11.54394585
22.9300,11.40002476
22.9350,11.2586071
22.9400,11.11947893
22.9450,10.98254707
22.9500,10.8479268
22.9550,10.71561194
22.9600,10.58559294
22.9650,10.45765243
22.9700,10.33199175
22.9750,10.20839437
22.9800,10.08680204
22.9850,9.96709719
22.9900,9.849246158
22.9950,9.733351995
23.0000,9.619208298
23.0050,9.506872987
23.0100,9.396553672
23.0150,9.288188534
23.0200,9.181686456
23.0250,9.076987034
23.0300,8.974228056
23.0350,8.873328448
23.0400,8.774184555
23.0450,8.676779827
23.0500,8.581068858
23.0550,8.486988358
23.0600,8.394701665
23.0650,8.303996211
23.0700,8.214733453
23.0750,8.126959943
23.0800,8.040571191
23.0850,7.955587037
23.0900,7.871993131
23.0950,7.789580702
23.1000,7.70843461
23.1050,7.628355819
23.1100,7.549108952
23.1150,7.470932261
23.1200,7.393635585
23.1250,7.317167148
23.1300,7.241560369
23.1350,7.166637406
23.1400,7.092732689
23.1450,7.01973088
23.1500,6.947744605
23.1550,6.876861505
23.1600,6.80713579
23.1650,6.738321473
23.1700,6.670483446
23.1750,6.603810811
23.1800,6.538175097
23.1850,6.473692417
23.1900,6.410274323
23.1950,6.348113664
23.2000,6.287342743
23.2050,6.228217535
23.2100,6.170691003
23.2150,6.114823737
23.2200,6.060742505
23.2250,6.008637137
23.2300,5.958716555
23.2350,5.910862263
23.2400,5.865438239
23.2450,5.822502317
23.2500,5.782156424
23.2550,5.744340045
23.2600,5.709310376
23.2650,5.677112551
23.2700,5.647810439
23.2750,5.621482838
23.2800,5.597952372
23.2850,5.577362194
23.2900,5.559531926
23.2950,5.544311265
23.3000,5.531544006
23.3050,5.520972606
23.3100,5.512382826
23.3150,5.505496673
23.3200,5.500254986
23.3250,5.496568755
23.3300,5.494084681
23.3350,5.492809228
23.3400,5.492458269
23.3450,5.492815778
23.3500,5.493705452
23.3550,5.494917402
23.3600,5.496407996
23.3650,5.498220518
23.3700,5.500214029
23.3750,5.502463647
23.3800,5.504823568
23.3850,5.507280463
23.3900,5.509845449
23.3950,5.512524199
23.4000,5.51528752
23.4050,5.518137064
23.4100,5.521033871
23.4150,5.523871946
23.4200,5.526715412
23.4250,5.529591694
23.4300,5.532454694
23.4350,5.535339264
23.4400,5.538128254
23.4450,5.540954881
23.4500,5.543832872
23.4550,5.546801247
23.4600,5.549850961
23.4650,5.553064267
23.4700,5.556619131
23.4750,5.560400136
23.4800,5.564581128
23.4850,5.56915438
23.4900,5.574147244
23.4950,5.579288224
23.5000,5.58477978
23.5050,5.590432469
23.5100,5.59647252
23.5150,5.602980283
23.5200,5.610017521
23.5250,5.617540271
23.5300,5.625541313
23.5350,5.634149735
23.5400,5.643350743
23.5450,5.653154203
23.5500,5.663514612
23.5550,5.674488115
23.5600,5.686068606
23.5650,5.698216784
23.5700,5.710918368
23.5750,5.724244145
23.5800,5.738365324
23.5850,5.753299977
23.5900,5.76898359
23.5950,5.785633865
23.6000,5.80325862
23.6050,5.821823095
23.6100,5.84146379
23.6150,5.862288633
23.6200,5.884049923
23.6250,5.906860423
23.6300,5.930667948
23.6350,5.955452325
23.6400,5.981343618
23.6450,6.008589922
23.6500,6.03718602
23.6550,6.067397426
23.6600,6.099138636
23.6650,6.132482358
23.6700,6.167539569
23.6750,6.204347843
23.6800,6.243076826
23.6850,6.283822429
23.6900,6.326495907
23.6950,6.371308524
23.7000,6.418246767
23.7050,6.467609435
23.7100,6.519491334
23.7150,6.57414229
23.7200,6.6315483
23.7250,6.691845094
23.7300,6.755251514
23.7350,6.821795314
23.7400,6.891464694
23.7450,6.964253831
23.7500,7.040218489
23.7550,7.119054404
23.7600,7.200837643
23.7650,7.285663027
23.7700,7.373209031
23.7750,7.463727883
23.7800,7.556935625
23.7850,7.652952463
23.7900,7.751646614
23.7950,7.853069329
23.8000,7.957052875
23.8050,8.063690997
23.8100,8.172805505
23.8150,8.284604393
23.8200,8.398863024
23.8250,8.515691829
23.8300,8.635107924
23.8350,8.757277275
23.8400,8.881973168
23.8450,9.009570114
23.8500,9.140141967
23.8550,9.273974324
23.8600,9.410954306
23.8650,9.551518019
23.8700,9.695813156
23.8750,9.843960112
23.8800,9.99630101
23.8850,10.15272813
23.8900,10.3137838
23.8950,10.47944197
23.9000,10.65003822
23.9050,10.82564298
23.9100,11.00640127
23.9150,11.19267127
23.9200,11.38465355
23.9250,11.58266622
23.9300,11.78715988
23.9350,11.99810346
23.9400,12.21603083
23.9450,12.44117542
23.9500,12.67391838
23.9550,12.91443206
23.9600,13.16321982
23.9650,13.42061016
23.9700,13.68684279
23.9750,13.9623374
23.9800,14.24742209
23.9850,14.54228831
23.9900,14.84730101
23.9950,15.16246211
24.0000,15.48803785
24.0050,15.82405314
24.0100,16.17060114
24.0150,16.52749875
24.0200,16.89485229
24.0250,17.2723927
24.0300,17.65979875
24.0350,18.05682648
24.0400,18.46304316
24.0450,18.87822044
24.0500,19.30178479
24.0550,19.7333095
24.0600,20.17251277
24.0650,20.61877446
24.0700,21.07183422
24.0750,21.53073097
24.0800,21.99520656
24.0850,22.46468723
24.0900,22.93887753
24.0950,23.41745936
24.1000,23.9000107
24.1050,24.38643131
24.1100,24.87620118
24.1150,25.36894488
24.1200,25.86449662
24.1250,26.36243761
24.1300,26.862425
24.1350,27.36432503
24.1400,27.86821857
24.1450,28.37380523
24.1500,28.88118801
24.1550,29.39016432
24.1600,29.9007791
24.1650,30.41272064
24.1700,30.92592493
24.1750,31.44063825
24.1800,31.95660667
24.1850,32.47385942
24.1900,32.99239784
24.1950,33.51224998
24.2000,34.03341651
24.2050,34.55613599
24.2100,35.08047526
24.2150,35.60630258
24.2200,36.13383323
24.2250,36.66319551
24.2300,37.19438863
24.2350,37.72758765
24.2400,38.26265168
24.2450,38.79932601
24.2500,39.33792681
24.2550,39.87867685
24.2600,40.42197961
24.2650,40.9677977
24.2700,41.51674996
24.2750,42.06853039
24.2800,42.62320256
24.2850,43.18105367
24.2900,43.74229645
24.2950,44.30716462
24.3000,44.87594824
24.3050,45.44874029
24.3100,46.02561961
24.3150,46.60692237
24.3200,47.19224988
24.3250,47.78194389
24.3300,48.3761484
24.3350,48.97495307
24.3400,49.57845278
24.3450,50.18641327
24.3500,50.79891711
24.3550,51.41627151
24.3600,52.03816791
24.3650,52.66480258
24.3700,53.29600967
24.3750,53.93234377
24.3800,54.57386315
24.3850,55.22043392
24.3900,55.87215096
24.3950,56.52927835
24.4000,57.19225415
24.4050,57.86148685
24.4100,58.53782864
24.4150,59.22204548
24.4200,59.91490299
24.4250,60.61757658
24.4300,61.33124819
24.4350,62.05700749
24.4400,62.79636918
24.4450,63.5513302
24.4500,64.32433206
24.4550,65.11772255
24.4600,65.93433658
24.4650,66.77753149
24.4700,67.65049045
24.4750,68.55631469
24.4800,69.49841767
24.4850,70.48039336
24.4900,71.50572756
24.4950,72.57805483
24.5000,73.7005438
24.5050,74.87607168
24.5100,76.10690052
24.5150,76.57537244
24.5200,77.08843367
24.5250,77.64445385
24.5300,78.24094115
24.5350,78.87467793
24.5400,79.54183038
24.5450,80.23803644
24.5500,80.95847766
24.5550,81.6979397
24.5600,82.45086547
24.5650,83.2114046
24.5700,83.97346174
24.5750,84.73074608
