type,name,time_units,begin_time,frequency,count,units
signal,"Noraxon Ultium-RT BICEPS BR.","s",0.00000,2000,49160,"uV"

time,value
0.00000,1.888209279
0.00050,2.193403687
0.00100,2.193403687
0.00150,2.498598094
0.00200,2.803792502
0.00250,1.583014871
0.00300,0.3622372405
0.00350,0.05704283282
0.00400,0.3622372405
0.00450,0.3622372405
0.00500,0.05704283282
0.00550,0.05704283282
0.00600,0.05704283282
0.00650,0.05704283282
0.00700,0.05704283282
0.00750,0.05704283282
0.00800,0.05704283282
0.00850,0.3622372405
0.00900,0.9726260559
0.00950,1.888209279
0.01000,1.277820464
0.01050,0.05704283282
0.01100,-0.5533459826
0.01150,0.05704283282
0.01200,0.6674316482
0.01250,0.6674316482
0.01300,0.05704283282
0.01350,0.3622372405
0.01400,0.9726260559
0.01450,1.277820464
0.01500,0.9726260559
0.01550,0.05704283282
0.01600,0.05704283282
0.01650,-0.2481515749
0.01700,0.05704283282
0.01750,0.9726260559
0.01800,2.498598094
0.01850,2.498598094
0.01900,1.583014871
0.01950,0.6674316482
0.02000,0.6674316482
0.02050,1.277820464
0.02100,1.583014871
0.02150,1.888209279
0.02200,2.803792502
0.02250,3.414181318
0.02300,3.10898691
0.02350,2.193403687
0.02400,2.193403687
0.02450,3.10898691
0.02500,2.803792502
0.02550,1.583014871
0.02600,0.9726260559
0.02650,1.583014871
0.02700,1.888209279
0.02750,1.583014871
0.02800,1.583014871
0.02850,2.193403687
0.02900,2.498598094
0.02950,1.583014871
0.03000,0.6674316482
0.03050,0.9726260559
0.03100,1.583014871
0.03150,1.583014871
0.03200,1.277820464
0.03250,1.277820464
0.03300,1.277820464
0.03350,0.05704283282
0.03400,-0.5533459826
0.03450,0.05704283282
0.03500,0.6674316482
0.03550,0.3622372405
0.03600,-0.8585403903
0.03650,-1.774123613
0.03700,-1.163734798
0.03750,-0.2481515749
0.03800,0.05704283282
0.03850,0.05704283282
0.03900,0.05704283282
0.03950,0.3622372405
0.04000,0.05704283282
0.04050,-0.2481515749
0.04100,-0.5533459826
0.04150,-0.2481515749
0.04200,0.05704283282
0.04250,0.3622372405
0.04300,0.05704283282
0.04350,-0.5533459826
0.04400,-0.5533459826
0.04450,0.05704283282
0.04500,0.05704283282
0.04550,-0.8585403903
0.04600,-1.774123613
0.04650,-2.079318021
0.04700,-1.774123613
0.04750,-1.774123613
0.04800,-1.468929206
0.04850,-1.163734798
0.04900,-1.163734798
0.04950,-1.774123613
0.05000,-2.384512429
0.05050,-1.774123613
0.05100,-0.8585403903
0.05150,-0.8585403903
0.05200,-1.774123613
0.05250,-2.079318021
0.05300,-1.774123613
0.05350,-2.079318021
0.05400,-2.384512429
0.05450,-1.774123613
0.05500,-0.5533459826
0.05550,-0.5533459826
0.05600,-1.468929206
0.05650,-1.468929206
0.05700,-0.2481515749
0.05750,-0.2481515749
0.05800,-2.079318021
0.05850,-3.60529006
0.05900,-3.300095652
0.05950,-1.774123613
0.06000,-0.5533459826
0.06050,-0.2481515749
0.06100,0.3622372405
0.06150,0.9726260559
0.06200,0.6674316482
0.06250,0.05704283282
0.06300,0.05704283282
0.06350,0.05704283282
0.06400,-0.5533459826
0.06450,-1.163734798
0.06500,-1.468929206
0.06550,-1.468929206
0.06600,-1.774123613
0.06650,-1.774123613
0.06700,-0.8585403903
0.06750,0.3622372405
0.06800,0.9726260559
0.06850,0.05704283282
0.06900,-1.163734798
0.06950,-1.163734798
0.07000,-0.5533459826
0.07050,0.05704283282
0.07100,0.3622372405
0.07150,0.3622372405
0.07200,0.3622372405
0.07250,0.05704283282
0.07300,-0.2481515749
0.07350,0.05704283282
0.07400,0.9726260559
0.07450,1.583014871
0.07500,1.277820464
0.07550,0.3622372405
0.07600,0.3622372405
0.07650,1.583014871
0.07700,2.803792502
0.07750,2.803792502
0.07800,0.9726260559
0.07850,-0.2481515749
0.07900,-0.5533459826
0.07950,0.05704283282
0.08000,0.05704283282
0.08050,0.05704283282
0.08100,0.3622372405
0.08150,1.277820464
0.08200,1.888209279
0.08250,1.277820464
0.08300,0.9726260559
0.08350,1.583014871
0.08400,2.193403687
0.08450,2.193403687
0.08500,1.888209279
0.08550,2.193403687
0.08600,2.193403687
0.08650,1.583014871
0.08700,0.6674316482
0.08750,0.3622372405
0.08800,1.277820464
0.08850,2.193403687
0.08900,1.888209279
0.08950,0.3622372405
0.09000,-0.2481515749
0.09050,0.3622372405
0.09100,1.888209279
0.09150,2.498598094
0.09200,1.277820464
0.09250,-0.2481515749
0.09300,-1.163734798
0.09350,-0.5533459826
0.09400,0.05704283282
0.09450,0.6674316482
0.09500,1.583014871
0.09550,2.498598094
0.09600,2.193403687
0.09650,1.277820464
0.09700,0.9726260559
0.09750,1.888209279
0.09800,2.193403687
0.09850,0.9726260559
0.09900,0.05704283282
0.09950,0.3622372405
0.10000,0.9726260559
0.10050,0.05704283282
0.10100,-1.774123613
0.10150,-2.384512429
0.10200,-1.163734798
0.10250,0.05704283282
0.10300,0.05704283282
0.10350,0.05704283282
0.10400,0.6674316482
0.10450,0.9726260559
0.10500,0.3622372405
0.10550,0.05704283282
0.10600,0.05704283282
0.10650,0.9726260559
0.10700,1.888209279
0.10750,2.193403687
0.10800,1.583014871
0.10850,0.9726260559
0.10900,0.05704283282
0.10950,-0.5533459826
0.11000,-1.163734798
0.11050,-1.163734798
0.11100,-0.5533459826
0.11150,0.6674316482
0.11200,1.277820464
0.11250,0.9726260559
0.11300,0.05704283282
0.11350,0.05704283282
0.11400,0.3622372405
0.11450,0.9726260559
0.11500,0.6674316482
0.11550,0.6674316482
0.11600,1.277820464
0.11650,1.888209279
0.11700,1.583014871
0.11750,0.3622372405
0.11800,0.05704283282
0.11850,1.277820464
0.11900,2.193403687
0.11950,1.277820464
0.12000,-0.2481515749
0.12050,-1.163734798
0.12100,-0.8585403903
0.12150,0.05704283282
0.12200,0.05704283282
0.12250,0.05704283282
0.12300,-0.8585403903
0.12350,-1.468929206
0.12400,-1.468929206
0.12450,-0.8585403903
0.12500,0.9726260559
0.12550,4.329764541
0.12600,7.07651421
0.12650,7.381708618
0.12700,4.940153356
0.12750,2.193403687
0.12800,1.583014871
0.12850,2.498598094
0.12900,2.803792502
0.12950,1.583014871
0.13000,0.6674316482
0.13050,0.3622372405
0.13100,0.05704283282
0.13150,-1.774123613
0.13200,-2.994901244
0.13250,-2.689706836
0.13300,-1.774123613
0.13350,-1.163734798
0.13400,-0.5533459826
0.13450,0.05704283282
0.13500,0.3622372405
0.13550,-0.5533459826
0.13600,-1.774123613
0.13650,-0.5533459826
0.13700,1.888209279
0.13750,2.803792502
0.13800,1.277820464
0.13850,0.05704283282
0.13900,0.3622372405
0.13950,0.3622372405
0.14000,-0.5533459826
0.14050,-0.8585403903
0.14100,0.05704283282
0.14150,0.9726260559
0.14200,0.6674316482
0.14250,0.3622372405
0.14300,0.9726260559
0.14350,2.193403687
0.14400,2.193403687
0.14450,0.6674316482
0.14500,-0.5533459826
0.14550,-1.163734798
0.14600,-1.468929206
0.14650,-2.384512429
0.14700,-3.60529006
0.14750,-4.215678875
0.14800,-3.910484467
0.14850,-2.689706836
0.14900,-2.384512429
0.14950,-3.60529006
0.15000,-4.215678875
0.15050,-2.994901244
0.15100,-0.2481515749
0.15150,0.05704283282
0.15200,-1.468929206
0.15250,-1.774123613
0.15300,0.3622372405
0.15350,3.414181318
0.15400,3.10898691
0.15450,0.9726260559
0.15500,0.05704283282
0.15550,0.05704283282
0.15600,-0.2481515749
0.15650,-1.774123613
0.15700,-2.079318021
0.15750,0.3622372405
0.15800,3.10898691
0.15850,2.803792502
0.15900,0.6674316482
0.15950,-1.163734798
0.16000,-2.384512429
0.16050,-3.300095652
0.16100,-3.60529006
0.16150,-3.910484467
0.16200,-3.910484467
0.16250,-3.910484467
0.16300,-4.215678875
0.16350,-4.520873283
0.16400,-4.215678875
0.16450,-3.910484467
0.16500,-3.300095652
0.16550,-2.079318021
0.16600,-1.163734798
0.16650,-0.5533459826
0.16700,0.05704283282
0.16750,1.277820464
0.16800,1.277820464
0.16850,0.05704283282
0.16900,-0.8585403903
0.16950,-0.8585403903
0.17000,0.05704283282
0.17050,-0.5533459826
0.17100,-2.384512429
0.17150,-3.60529006
0.17200,-3.60529006
0.17250,-2.994901244
0.17300,-2.994901244
0.17350,-2.384512429
0.17400,-1.468929206
0.17450,-1.163734798
0.17500,-2.079318021
0.17550,-2.689706836
0.17600,-2.384512429
0.17650,-1.468929206
0.17700,-0.2481515749
0.17750,0.05704283282
0.17800,1.277820464
0.17850,1.888209279
0.17900,1.277820464
0.17950,0.05704283282
0.18000,-0.8585403903
0.18050,-0.5533459826
0.18100,0.9726260559
0.18150,2.803792502
0.18200,3.10898691
0.18250,2.193403687
0.18300,0.9726260559
0.18350,1.277820464
0.18400,1.583014871
0.18450,0.6674316482
0.18500,-1.163734798
0.18550,-2.079318021
0.18600,-0.8585403903
0.18650,0.05704283282
0.18700,0.05704283282
0.18750,-1.468929206
0.18800,-2.384512429
0.18850,-1.468929206
0.18900,0.05704283282
0.18950,1.277820464
0.19000,1.277820464
0.19050,0.05704283282
0.19100,-1.774123613
0.19150,-2.689706836
0.19200,-2.689706836
0.19250,-1.774123613
0.19300,-1.774123613
0.19350,-2.384512429
0.19400,-2.689706836
0.19450,-2.384512429
0.19500,-1.163734798
0.19550,0.05704283282
0.19600,1.277820464
0.19650,0.9726260559
0.19700,0.05704283282
0.19750,-0.2481515749
0.19800,0.05704283282
0.19850,0.05704283282
0.19900,-0.5533459826
0.19950,-1.774123613
0.20000,-2.079318021
0.20050,-1.468929206
0.20100,-0.8585403903
0.20150,-0.8585403903
0.20200,-1.163734798
0.20250,-1.774123613
0.20300,-2.384512429
0.20350,-2.689706836
0.20400,-1.468929206
0.20450,0.6674316482
0.20500,1.583014871
0.20550,0.6674316482
0.20600,-0.5533459826
0.20650,-0.2481515749
0.20700,0.6674316482
0.20750,1.277820464
0.20800,1.277820464
0.20850,1.583014871
0.20900,1.888209279
0.20950,0.9726260559
0.21000,0.05704283282
0.21050,0.3622372405
0.21100,1.583014871
0.21150,1.583014871
0.21200,0.05704283282
0.21250,-0.2481515749
0.21300,1.277820464
0.21350,3.414181318
0.21400,3.719375725
0.21450,2.498598094
0.21500,1.888209279
0.21550,1.583014871
0.21600,0.3622372405
0.21650,-0.2481515749
0.21700,-0.2481515749
0.21750,0.05704283282
0.21800,-0.5533459826
0.21850,-2.079318021
0.21900,-1.774123613
0.21950,0.05704283282
0.22000,0.6674316482
0.22050,-0.5533459826
0.22100,-2.384512429
0.22150,-2.689706836
0.22200,-1.468929206
0.22250,-0.8585403903
0.22300,-1.468929206
0.22350,-2.079318021
0.22400,-1.774123613
0.22450,-0.5533459826
0.22500,0.3622372405
0.22550,1.583014871
0.22600,2.803792502
0.22650,3.414181318
0.22700,3.10898691
0.22750,2.498598094
0.22800,2.193403687
0.22850,2.498598094
0.22900,2.498598094
0.22950,1.583014871
0.23000,0.05704283282
0.23050,-0.8585403903
0.23100,-1.163734798
0.23150,-0.5533459826
0.23200,0.05704283282
0.23250,1.277820464
0.23300,1.888209279
0.23350,1.277820464
0.23400,0.05704283282
0.23450,-0.8585403903
0.23500,-0.8585403903
0.23550,-0.5533459826
0.23600,-1.163734798
0.23650,-1.774123613
0.23700,-2.384512429
0.23750,-2.079318021
0.23800,-1.774123613
0.23850,-1.163734798
0.23900,-0.2481515749
0.23950,0.3622372405
0.24000,1.277820464
0.24050,2.498598094
0.24100,2.803792502
0.24150,1.277820464
0.24200,-0.2481515749
0.24250,0.05704283282
0.24300,1.277820464
0.24350,1.583014871
0.24400,0.05704283282
0.24450,-1.774123613
0.24500,-1.774123613
0.24550,-1.163734798
0.24600,-1.163734798
0.24650,-0.8585403903
0.24700,0.05704283282
0.24750,0.9726260559
0.24800,0.9726260559
0.24850,0.6674316482
0.24900,0.3622372405
0.24950,0.05704283282
0.25000,-1.163734798
0.25050,-1.468929206
0.25100,-0.5533459826
0.25150,0.05704283282
0.25200,-0.2481515749
0.25250,-0.5533459826
0.25300,-0.2481515749
0.25350,-0.5533459826
0.25400,-1.163734798
0.25450,-0.5533459826
0.25500,0.9726260559
0.25550,2.193403687
0.25600,0.9726260559
0.25650,-0.5533459826
0.25700,-0.8585403903
0.25750,-0.5533459826
0.25800,-1.163734798
0.25850,-2.689706836
0.25900,-3.300095652
0.25950,-3.910484467
0.26000,-5.131262098
0.26050,-5.741650914
0.26100,-3.300095652
0.26150,1.583014871
0.26200,5.550542171
0.26250,7.07651421
0.26300,7.07651421
0.26350,7.992097433
0.26400,8.907680656
0.26450,8.907680656
0.26500,7.381708618
0.26550,6.466125395
0.26600,6.466125395
0.26650,5.855736579
0.26700,4.024570133
0.26750,1.888209279
0.26800,0.6674316482
0.26850,0.9726260559
0.26900,1.888209279
0.26950,2.498598094
0.27000,2.498598094
0.27050,2.193403687
0.27100,1.888209279
0.27150,2.193403687
0.27200,2.498598094
0.27250,2.803792502
0.27300,2.498598094
0.27350,1.888209279
0.27400,1.888209279
0.27450,1.583014871
0.27500,0.9726260559
0.27550,0.05704283282
0.27600,-0.2481515749
0.27650,-0.5533459826
0.27700,-0.8585403903
0.27750,-0.2481515749
0.27800,0.6674316482
0.27850,1.888209279
0.27900,0.9726260559
0.27950,-0.8585403903
0.28000,-1.468929206
0.28050,-0.2481515749
0.28100,0.3622372405
0.28150,-0.2481515749
0.28200,-2.384512429
0.28250,-2.994901244
0.28300,-2.384512429
0.28350,-1.468929206
0.28400,-1.163734798
0.28450,-0.8585403903
0.28500,-1.163734798
0.28550,-1.163734798
0.28600,0.05704283282
0.28650,2.498598094
0.28700,4.634958948
0.28750,4.024570133
0.28800,1.888209279
0.28850,0.6674316482
0.28900,0.6674316482
0.28950,0.6674316482
0.29000,0.05704283282
0.29050,-0.5533459826
0.29100,-0.8585403903
0.29150,-0.8585403903
0.29200,-0.8585403903
0.29250,-1.163734798
0.29300,-1.774123613
0.29350,-2.689706836
0.29400,-2.994901244
0.29450,-2.384512429
0.29500,-2.079318021
0.29550,-2.689706836
0.29600,-3.300095652
0.29650,-2.994901244
0.29700,-2.384512429
0.29750,-2.079318021
0.29800,-1.468929206
0.29850,0.05704283282
0.29900,1.277820464
0.29950,0.6674316482
0.30000,-1.774123613
0.30050,-3.60529006
0.30100,-3.300095652
0.30150,-2.384512429
0.30200,-2.689706836
0.30250,-2.079318021
0.30300,-0.2481515749
0.30350,1.277820464
0.30400,1.277820464
0.30450,0.6674316482
0.30500,0.05704283282
0.30550,-1.163734798
0.30600,-2.689706836
0.30650,-3.910484467
0.30700,-3.60529006
0.30750,-2.384512429
0.30800,-1.774123613
0.30850,-1.774123613
0.30900,-1.163734798
0.30950,0.05704283282
0.31000,0.6674316482
0.31050,0.05704283282
0.31100,-1.163734798
0.31150,-2.384512429
0.31200,-3.300095652
0.31250,-2.994901244
0.31300,-2.079318021
0.31350,-0.8585403903
0.31400,-0.8585403903
0.31450,-1.468929206
0.31500,-1.468929206
0.31550,-0.8585403903
0.31600,0.3622372405
0.31650,1.583014871
0.31700,1.583014871
0.31750,0.9726260559
0.31800,0.05704283282
0.31850,-0.2481515749
0.31900,0.05704283282
0.31950,0.05704283282
0.32000,-0.5533459826
0.32050,-2.079318021
0.32100,-2.384512429
0.32150,-1.163734798
0.32200,-0.8585403903
0.32250,-2.079318021
0.32300,-3.910484467
0.32350,-3.300095652
0.32400,-1.163734798
0.32450,0.05704283282
0.32500,0.05704283282
0.32550,-0.2481515749
0.32600,0.05704283282
0.32650,0.6674316482
0.32700,0.05704283282
0.32750,-1.163734798
0.32800,-2.079318021
0.32850,-2.384512429
0.32900,-2.689706836
0.32950,-2.079318021
0.33000,0.3622372405
0.33050,2.803792502
0.33100,2.498598094
0.33150,0.3622372405
0.33200,-1.163734798
0.33250,-1.163734798
0.33300,-0.2481515749
0.33350,0.05704283282
0.33400,-0.2481515749
0.33450,-1.468929206
0.33500,-1.468929206
0.33550,2.498598094
0.33600,11.65443033
0.33650,22.641429
0.33700,29.66090038
0.33750,31.18687242
0.33800,29.05051156
0.33850,25.69337308
0.33900,21.11545696
0.33950,15.01156881
0.34000,8.907680656
0.34050,4.329764541
0.34100,1.583014871
0.34150,0.05704283282
0.34200,-2.079318021
0.34250,-5.436456506
0.34300,-8.488400583
0.34350,-9.098789398
0.34400,-8.488400583
0.34450,-8.183206175
0.34500,-9.403983806
0.34550,-10.31956703
0.34600,-9.403983806
0.34650,-7.57281736
0.34700,-6.352039729
0.34750,-5.436456506
0.34800,-4.82606769
0.34850,-3.60529006
0.34900,-2.689706836
0.34950,-1.774123613
0.35000,-1.468929206
0.35050,-2.079318021
0.35100,-2.689706836
0.35150,-2.079318021
0.35200,-1.163734798
0.35250,-1.163734798
0.35300,-1.774123613
0.35350,-1.468929206
0.35400,0.3622372405
0.35450,2.498598094
0.35500,3.10898691
0.35550,2.498598094
0.35600,1.277820464
0.35650,0.05704283282
0.35700,-0.2481515749
0.35750,-0.8585403903
0.35800,-2.079318021
0.35850,-3.300095652
0.35900,-3.910484467
0.35950,-3.60529006
0.36000,-2.689706836
0.36050,-3.300095652
0.36100,-4.215678875
0.36150,-4.520873283
0.36200,-4.215678875
0.36250,-3.910484467
0.36300,-3.60529006
0.36350,-2.079318021
0.36400,-0.5533459826
0.36450,-1.163734798
0.36500,-3.60529006
0.36550,-5.131262098
0.36600,-5.131262098
0.36650,-4.215678875
0.36700,-2.994901244
0.36750,-2.384512429
0.36800,-2.384512429
0.36850,-2.994901244
0.36900,-2.689706836
0.36950,-1.468929206
0.37000,0.3622372405
0.37050,1.277820464
0.37100,1.888209279
0.37150,3.10898691
0.37200,3.719375725
0.37250,2.498598094
0.37300,1.277820464
0.37350,1.277820464
0.37400,2.498598094
0.37450,2.498598094
0.37500,2.193403687
0.37550,3.10898691
0.37600,4.634958948
0.37650,4.024570133
0.37700,2.193403687
0.37750,1.888209279
0.37800,3.414181318
0.37850,4.024570133
0.37900,2.193403687
0.37950,0.9726260559
0.38000,1.583014871
0.38050,2.498598094
0.38100,1.583014871
0.38150,0.6674316482
0.38200,1.583014871
0.38250,3.414181318
0.38300,3.719375725
0.38350,2.803792502
0.38400,3.10898691
0.38450,4.940153356
0.38500,4.940153356
0.38550,2.498598094
0.38600,-0.2481515749
0.38650,-1.163734798
0.38700,0.05704283282
0.38750,2.498598094
0.38800,4.634958948
0.38850,5.550542171
0.38900,4.329764541
0.38950,2.498598094
0.39000,1.888209279
0.39050,2.193403687
0.39100,2.498598094
0.39150,1.888209279
0.39200,1.277820464
0.39250,1.583014871
0.39300,1.277820464
0.39350,0.05704283282
0.39400,-0.5533459826
0.39450,0.05704283282
0.39500,1.277820464
0.39550,1.583014871
0.39600,0.6674316482
0.39650,0.05704283282
0.39700,0.05704283282
0.39750,0.3622372405
0.39800,0.6674316482
0.39850,0.9726260559
0.39900,1.277820464
0.39950,1.277820464
0.40000,0.9726260559
0.40050,0.9726260559
0.40100,1.888209279
0.40150,2.193403687
0.40200,0.9726260559
0.40250,0.05704283282
0.40300,0.05704283282
0.40350,0.6674316482
0.40400,0.6674316482
0.40450,0.05704283282
0.40500,-0.5533459826
0.40550,-0.8585403903
0.40600,-1.774123613
0.40650,-2.994901244
0.40700,-3.910484467
0.40750,-4.215678875
0.40800,-3.910484467
0.40850,-2.689706836
0.40900,-0.8585403903
0.40950,0.05704283282
0.41000,0.05704283282
0.41050,0.05704283282
0.41100,2.803792502
0.41150,7.686903025
0.41200,11.65443033
0.41250,13.18040236
0.41300,13.48559677
0.41350,13.79079118
0.41400,14.40117999
0.41450,15.01156881
0.41500,15.62195763
0.41550,15.31676322
0.41600,13.48559677
0.41650,11.65443033
0.41700,11.04404151
0.41750,10.43365269
0.41800,7.992097433
0.41850,4.329764541
0.41900,1.583014871
0.41950,0.3622372405
0.42000,-1.774123613
0.42050,-3.910484467
0.42100,0.05704283282
0.42150,12.57001355
0.42200,29.66090038
0.42250,41.86867669
0.42300,45.22581517
0.42350,42.4790655
0.42400,36.37517735
0.42450,27.21934512
0.42500,15.31676322
0.42550,2.498598094
0.42600,-9.403983806
0.42650,-21.30656571
0.42700,-31.98836998
0.42750,-39.92342458
0.42800,-44.8065351
0.42850,-48.16367358
0.42900,-50.30003444
0.42950,-49.99484003
0.43000,-47.85847918
0.43050,-45.41692391
0.43100,-42.97536865
0.43150,-40.22861898
0.43200,-36.56628609
0.43250,-31.37798116
0.43300,-25.27409301
0.43350,-19.17020485
0.43400,-14.89748314
0.43450,-12.76112229
0.43500,-11.23515025
0.43550,-9.098789398
0.43600,-6.962428544
0.43650,-5.436456506
0.43700,-4.520873283
0.43750,-2.994901244
0.43800,-1.774123613
0.43850,-1.774123613
0.43900,-1.468929206
0.43950,0.3622372405
0.44000,3.414181318
0.44050,4.024570133
0.44100,2.803792502
0.44150,3.10898691
0.44200,5.550542171
0.44250,7.381708618
0.44300,7.381708618
0.44350,7.07651421
0.44400,7.686903025
0.44450,8.297291841
0.44500,7.686903025
0.44550,7.07651421
0.44600,7.686903025
0.44650,7.07651421
0.44700,4.940153356
0.44750,3.10898691
0.44800,2.803792502
0.44850,3.414181318
0.44900,3.10898691
0.44950,2.193403687
0.45000,2.193403687
0.45050,2.498598094
0.45100,1.888209279
0.45150,1.583014871
0.45200,1.583014871
0.45250,2.498598094
0.45300,2.803792502
0.45350,3.414181318
0.45400,4.329764541
0.45450,5.550542171
0.45500,5.855736579
0.45550,5.550542171
0.45600,4.634958948
0.45650,4.024570133
0.45700,4.329764541
0.45750,5.855736579
0.45800,7.07651421
0.45850,5.550542171
0.45900,2.193403687
0.45950,0.05704283282
0.46000,0.05704283282
0.46050,1.583014871
0.46100,1.888209279
0.46150,0.9726260559
0.46200,0.05704283282
0.46250,-1.163734798
0.46300,-2.079318021
0.46350,-2.079318021
0.46400,-0.5533459826
0.46450,0.9726260559
0.46500,1.277820464
0.46550,0.6674316482
0.46600,0.3622372405
0.46650,0.9726260559
0.46700,1.277820464
0.46750,1.277820464
0.46800,1.583014871
0.46850,2.803792502
0.46900,3.414181318
0.46950,2.803792502
0.47000,1.277820464
0.47050,0.3622372405
0.47100,0.05704283282
0.47150,0.05704283282
0.47200,-0.2481515749
0.47250,-1.468929206
0.47300,-2.384512429
0.47350,-2.689706836
0.47400,-2.994901244
0.47450,-3.300095652
0.47500,-2.689706836
0.47550,-1.163734798
0.47600,0.6674316482
0.47650,1.888209279
0.47700,2.193403687
0.47750,1.888209279
0.47800,2.193403687
0.47850,3.10898691
0.47900,2.803792502
0.47950,1.888209279
0.48000,0.9726260559
0.48050,1.277820464
0.48100,1.277820464
0.48150,0.9726260559
0.48200,0.9726260559
0.48250,1.888209279
0.48300,1.888209279
0.48350,0.05704283282
0.48400,-0.8585403903
0.48450,0.05704283282
0.48500,2.498598094
0.48550,2.803792502
0.48600,1.277820464
0.48650,0.6674316482
0.48700,1.277820464
0.48750,0.3622372405
0.48800,-0.8585403903
0.48850,-1.163734798
0.48900,-1.163734798
0.48950,-2.384512429
0.49000,-3.300095652
0.49050,-1.163734798
0.49100,0.05704283282
0.49150,-2.994901244
0.49200,-5.741650914
0.49250,2.498598094
0.49300,22.3362346
0.49350,40.64789906
0.49400,47.36217603
0.49450,44.61542636
0.49500,39.12192702
0.49550,32.10245564
0.49600,23.55701223
0.49650,18.06351289
0.49700,17.14792966
0.49750,17.14792966
0.49800,18.36870729
0.49850,26.6089563
0.49900,40.64789906
0.49950,49.80373129
0.50000,49.49853688
0.50050,51.32970333
0.50100,66.2842293
0.50150,88.86861547
0.50200,102.6023638
0.50250,103.2127526
0.50300,98.02444771
0.50350,91.61536514
0.50400,80.32317206
0.50450,63.23228523
0.50500,44.92062076
0.50550,28.74531716
0.50600,13.18040236
0.50650,-2.384512429
0.50700,-17.33903841
0.50750,-30.76759235
0.50800,-42.67017425
0.50850,-51.21561766
0.50900,-55.48833937
0.50950,-57.01431141
0.51000,-56.40392259
0.51050,-51.21561766
0.51100,-39.61823017
0.51150,-26.80006504
0.51200,-17.94942722
0.51250,-11.84553907
0.51300,-1.468929206
0.51350,11.34923592
0.51400,18.6739017
0.51450,14.09598559
0.51500,2.498598094
0.51550,-10.01437262
0.51600,-22.52734334
0.51650,-36.56628609
0.51700,-52.13120088
0.51750,-66.17014364
0.51800,-76.85194791
0.51850,-84.78700251
0.51900,-90.89089066
0.51950,-94.55322355
0.52000,-94.55322355
0.52050,-92.11166829
0.52100,-89.36491862
0.52150,-88.4493354
0.52200,-89.36491862
0.52250,-88.75452981
0.52300,-84.4818081
0.52350,-78.68311435
0.52400,-74.10519824
0.52450,-70.74805975
0.52500,-67.39092127
0.52550,-63.42339397
0.52600,-59.45586667
0.52650,-55.48833937
0.52700,-51.21561766
0.52750,-47.85847918
0.52800,-45.11172951
0.52850,-42.05978543
0.52900,-37.78706372
0.52950,-34.73511965
0.53000,-34.42992524
0.53050,-36.56628609
0.53100,-37.78706372
0.53150,-38.09225813
0.53200,-37.48186931
0.53250,-36.26109168
0.53300,-34.12473083
0.53350,-31.98836998
0.53400,-31.37798116
0.53450,-30.76759235
0.53500,-28.02084268
0.53550,-22.83253774
0.53600,-17.64423281
0.53650,-13.98189992
0.53700,-11.23515025
0.53750,-8.488400583
0.53800,-5.741650914
0.53850,-3.910484467
0.53900,-1.774123613
0.53950,1.277820464
0.54000,4.940153356
0.54050,7.992097433
0.54100,9.823263879
0.54150,10.43365269
0.54200,10.12845829
0.54250,9.212875064
0.54300,8.602486248
0.54350,8.907680656
0.54400,10.12845829
0.54450,11.65443033
0.54500,12.87520796
0.54550,14.09598559
0.54600,15.31676322
0.54650,15.92715203
0.54700,15.31676322
0.54750,15.92715203
0.54800,22.03104019
0.54850,34.84920531
0.54900,50.71931451
0.54950,61.70631319
0.55000,64.45306286
0.55050,61.70631319
0.55100,57.12839707
0.55150,51.94009214
0.55200,44.31023195
0.55250,34.5440109
0.55300,24.77778986
0.55350,16.53754085
0.55400,9.823263879
0.55450,4.634958948
0.55500,1.583014871
0.55550,0.05704283282
0.55600,-0.5533459826
0.55650,-1.163734798
0.55700,-1.774123613
0.55750,-2.994901244
0.55800,-4.520873283
0.55850,-2.994901244
0.55900,7.07651421
0.55950,27.21934512
0.56000,49.49853688
0.56050,64.75825727
0.56100,69.33617338
0.56150,67.19981253
0.56200,61.70631319
0.56250,53.16086977
0.56300,42.1738711
0.56350,30.5764836
0.56400,21.42065137
0.56450,14.40117999
0.56500,7.686903025
0.56550,1.583014871
0.56600,-1.163734798
0.56650,-1.774123613
0.56700,-0.8585403903
0.56750,0.05704283282
0.56800,1.583014871
0.56850,3.10898691
0.56900,3.719375725
0.56950,4.634958948
0.57000,4.940153356
0.57050,3.719375725
0.57100,2.803792502
0.57150,8.907680656
0.57200,25.99856749
0.57250,47.36217603
0.57300,62.62189641
0.57350,66.58942371
0.57400,63.23228523
0.57450,56.21281385
0.57500,46.1413984
0.57550,35.45959413
0.57600,26.91415071
0.57650,19.89467933
0.57700,10.12845829
0.57750,-2.689706836
0.57800,-10.62476144
0.57850,-6.352039729
0.57900,6.771319802
0.57950,20.19987374
0.58000,25.38817867
0.58050,23.55701223
0.58100,22.641429
0.58150,33.62842768
0.58200,57.73878589
0.58250,83.37511614
0.58300,97.7192533
0.58350,103.517947
0.58400,115.4205289
0.58450,135.5633599
0.58500,149.2971082
0.58550,147.1607473
0.58600,140.4464704
0.58650,145.9399697
0.58700,160.8944957
0.58750,167.3035783
0.58800,158.147746
0.58850,142.2776368
0.58900,126.1023332
0.58950,104.1283359
0.59000,71.47253423
0.59050,34.84920531
0.59100,2.498598094
0.59150,-28.02084268
0.59200,-63.11819956
0.59250,-96.38439
0.59300,-116.8324153
0.59350,-122.3259147
0.59400,-123.2414979
0.59450,-125.0726643
0.59500,-120.7999426
0.59550,-102.4882782
0.59600,-75.63117028
0.59650,-52.7415897
0.59700,-36.8714805
0.59750,-17.94942722
0.59800,11.95962473
0.59850,44.00503754
0.59900,62.62189641
0.59950,63.23228523
0.60000,53.46606418
0.60050,34.84920531
0.60100,-0.8585403903
0.60150,-57.62470022
0.60200,-118.3583874
0.60250,-159.8648268
0.60300,-175.4297416
0.60350,-176.6505192
0.60400,-177.260908
0.60450,-179.0920745
0.60500,-178.1764913
0.60550,-172.9881863
0.60600,-161.3907988
0.60650,-142.1635512
0.60700,-118.0531929
0.60750,-95.46880678
0.60800,-79.59869758
0.60850,-69.52728212
0.60900,-61.89742193
0.60950,-53.96236733
0.61000,-43.28056306
0.61050,-30.15720353
0.61100,-18.86501044
0.61150,-14.89748314
0.61200,-20.39098248
0.61250,-31.68317557
0.61300,-45.11172951
0.61350,-59.15067226
0.61400,-73.80000383
0.61450,-88.14414099
0.61500,-102.1830837
0.61550,-115.6116377
0.61600,-124.7674699
0.61650,-126.293442
0.61700,-122.6311091
0.61750,-119.579165
0.61800,-116.8324153
0.61850,-109.5077495
0.61900,-93.94283474
0.61950,-73.49480942
0.62000,-52.13120088
0.62050,-32.9039532
0.62100,-17.33903841
0.62150,-7.57281736
0.62200,-0.8585403903
0.62250,7.686903025
0.62300,17.45312407
0.62350,20.81026256
0.62400,14.09598559
0.62450,3.414181318
0.62500,-3.910484467
0.62550,-8.488400583
0.62600,-13.37151111
0.62650,-17.033844
0.62700,-16.11826078
0.62750,-11.23515025
0.62800,-4.82606769
0.62850,2.193403687
0.62900,12.26481914
0.62950,23.55701223
0.63000,32.10245564
0.63050,37.90114939
0.63100,40.95309346
0.63150,41.86867669
0.63200,38.2063438
0.63250,31.79726123
0.63300,24.77778986
0.63350,17.75831848
0.63400,10.43365269
0.63450,5.855736579
0.63500,5.550542171
0.63550,8.297291841
0.63600,11.04404151
0.63650,12.57001355
0.63700,15.62195763
0.63750,20.19987374
0.63800,24.77778986
0.63850,28.13492834
0.63900,31.18687242
0.63950,35.15439972
0.64000,38.2063438
0.64050,40.34270465
0.64100,42.4790655
0.64150,45.53100958
0.64200,47.05698162
0.64250,47.66737043
0.64300,48.58295366
0.64350,50.71931451
0.64400,51.94009214
0.64450,51.63489773
0.64500,51.32970333
0.64550,52.24528655
0.64600,53.46606418
0.64650,52.55048096
0.64700,50.1089257
0.64750,49.19334247
0.64800,50.4141201
0.64850,51.63489773
0.64900,51.32970333
0.64950,49.49853688
0.65000,47.66737043
0.65050,46.1413984
0.65100,45.83620399
0.65150,46.1413984
0.65200,46.1413984
0.65250,45.22581517
0.65300,44.92062076
0.65350,45.53100958
0.65400,45.83620399
0.65450,45.53100958
0.65500,46.1413984
0.65550,48.27775925
0.65600,48.88814807
0.65650,47.05698162
0.65700,47.05698162
0.65750,52.55048096
0.65800,59.56995233
0.65850,61.70631319
0.65900,61.40111878
0.65950,68.42059016
0.66000,85.20628258
0.66050,101.6867806
0.66100,107.7906688
0.66150,105.3491135
0.66200,104.4335303
0.66250,106.5698911
0.66300,104.4335303
0.66350,92.83614277
0.66400,75.44006154
0.66450,59.56995233
0.66500,48.88814807
0.66550,40.34270465
0.66600,32.71284446
0.66650,27.21934512
0.66700,25.08298426
0.66750,23.55701223
0.66800,18.6739017
0.66850,11.04404151
0.66900,4.940153356
0.66950,2.498598094
0.67000,3.10898691
0.67050,6.160930987
0.67100,11.65443033
0.67150,16.84273526
0.67200,18.06351289
0.67250,12.87520796
0.67300,3.414181318
0.67350,-9.403983806
0.67400,-24.9688986
0.67450,-39.92342458
0.67500,-49.99484003
0.67550,-55.18314496
0.67600,-59.15067226
0.67650,-57.92989463
0.67700,-42.67017425
0.67750,-10.31956703
0.67800,25.69337308
0.67850,48.88814807
0.67900,54.68684181
0.67950,50.4141201
0.68000,44.00503754
0.68050,38.81673261
0.68100,36.06998294
0.68150,36.37517735
0.68200,35.76478853
0.68250,29.05051156
0.68300,20.50506815
0.68350,22.03104019
0.68400,39.12192702
0.68450,63.23228523
0.68500,83.68031054
0.68550,97.7192533
0.68600,106.5698911
0.68650,108.0958632
0.68700,99.55041974
0.68750,81.8491441
0.68800,58.95956352
0.68850,31.49206683
0.68900,-0.2481515749
0.68950,-34.73511965
0.69000,-68.00131008
0.69050,-97.60516763
0.69100,-122.3259147
0.69150,-140.3323847
0.69200,-149.1830225
0.69250,-151.3193834
0.69300,-148.2674393
0.69350,-140.9427735
0.69400,-129.9557748
0.69450,-119.8843594
0.69500,-115.3064433
0.69550,-115.0012489
0.69600,-115.9168321
0.69650,-115.0012489
0.69700,-111.0337216
0.69750,-101.5726949
0.69800,-86.00778014
0.69850,-67.69611568
0.69900,-52.43639529
0.69950,-41.44939661
0.70000,-33.20914761
0.70050,-27.71564827
0.70100,-26.80006504
0.70150,-29.85200912
0.70200,-33.51434201
0.70250,-35.65070287
0.70300,-35.95589728
0.70350,-35.95589728
0.70400,-35.95589728
0.70450,-34.73511965
0.70500,-33.20914761
0.70550,-31.07278675
0.70600,-29.24162031
0.70650,-28.63123149
0.70700,-28.63123149
0.70750,-27.71564827
0.70800,-25.27409301
0.70850,-23.13773215
0.70900,-23.44292656
0.70950,-24.66370419
0.71000,-26.18967623
0.71050,-29.24162031
0.71100,-35.04031405
0.71150,-41.44939661
0.71200,-44.8065351
0.71250,-45.11172951
0.71300,-44.19614628
0.71350,-42.05978543
0.71400,-37.17667491
0.71450,-29.54681471
0.71500,-22.22214893
0.71550,-15.50787196
0.71600,-7.267622952
0.71650,3.414181318
0.71700,15.62195763
0.71750,27.21934512
0.71800,37.29076057
0.71850,45.22581517
0.71900,50.71931451
0.71950,54.076453
0.72000,56.51800826
0.72050,57.43359148
0.72100,54.076453
0.72150,44.92062076
0.72200,32.71284446
0.72250,20.81026256
0.72300,9.823263879
0.72350,-1.468929206
0.72400,-13.0663167
0.72450,-21.91695452
0.72500,-26.80006504
0.72550,-28.32603708
0.72600,-28.02084268
0.72650,-26.80006504
0.72700,-23.44292656
0.72750,-17.64423281
0.72800,-10.92995584
0.72850,-4.82606769
0.72900,0.05704283282
0.72950,5.245347764
0.73000,10.43365269
0.73050,14.40117999
0.73100,16.23234644
0.73150,16.53754085
0.73200,17.45312407
0.73250,18.6739017
0.73300,19.89467933
0.73350,21.11545696
0.73400,22.641429
0.73450,24.47259545
0.73500,26.3037619
0.73550,27.82973393
0.73600,29.05051156
0.73650,27.82973393
0.73700,24.16740104
0.73750,21.11545696
0.73800,19.28429052
0.73850,16.84273526
0.73900,18.06351289
0.73950,34.84920531
0.74000,76.96603357
0.74050,132.2062214
0.74100,175.5438273
0.74150,191.1087421
0.74200,185.6152427
0.74250,173.7126608
0.74300,159.0633292
0.74350,138.0049151
0.74400,109.9270296
0.74450,80.93356087
0.74500,55.60242503
0.74550,35.15439972
0.74600,19.89467933
0.74650,10.7388471
0.74700,7.07651421
0.74750,8.297291841
0.74800,13.48559677
0.74850,20.81026256
0.74900,27.82973393
0.74950,34.84920531
0.75000,47.05698162
0.75050,65.36864608
0.75100,80.32317206
0.75150,77.27122798
0.75200,51.32970333
0.75250,13.18040236
0.75300,-26.49487064
0.75350,-66.78053245
0.75400,-109.2025551
0.75450,-145.2154952
0.75500,-159.254438
0.75550,-146.4362729
0.75600,-121.105137
0.75650,-98.21555645
0.75700,-79.90389198
0.75750,-56.709117
0.75800,-25.27409301
0.75850,5.245347764
0.75900,25.99856749
0.75950,35.15439972
0.76000,36.06998294
0.76050,31.49206683
0.76100,24.47259545
0.76150,16.23234644
0.76200,7.07651421
0.76250,-5.131262098
0.76300,-24.35850978
0.76350,-49.38445121
0.76400,-76.24155909
0.76450,-99.74152849
0.76500,-118.6635818
0.76550,-134.533691
0.76600,-148.8778281
0.76650,-158.9492436
0.76700,-160.1700212
0.76750,-153.7609386
0.76800,-145.2154952
0.76850,-136.9752462
0.76900,-126.5986364
0.76950,-111.338916
0.77000,-96.68958441
0.77050,-87.22855777
0.77100,-80.81947521
0.77150,-70.74805975
0.77200,-57.31950582
0.77250,-45.72211832
0.77300,-38.09225813
0.77350,-30.76759235
0.77400,-20.39098248
0.77450,-5.741650914
0.77500,17.14792966
0.77550,52.24528655
0.77600,94.36211481
0.77650,128.8490829
0.77700,145.9399697
0.77750,147.7711362
0.77800,142.2776368
0.77850,131.5958326
0.77900,113.5893625
0.77950,89.17380988
0.78000,64.45306286
0.78050,43.39464873
0.78100,24.77778986
0.78150,6.160930987
0.78200,-11.84553907
0.78250,-27.10525945
0.78300,-38.09225813
0.78350,-45.11172951
0.78400,-50.60522885
0.78450,-55.48833937
0.78500,-60.37144989
0.78550,-65.25456042
0.78600,-69.83247653
0.78650,-72.5792262
0.78700,-71.96883738
0.78750,-66.47533805
0.78800,-58.54028345
0.78850,-52.7415897
0.78900,-52.13120088
0.78950,-53.96236733
0.79000,-52.7415897
0.79050,-46.63770155
0.79100,-39.00784135
0.79150,-34.73511965
0.79200,-35.34550846
0.79250,-38.39745254
0.79300,-40.22861898
0.79350,-40.8390078
0.79400,-42.05978543
0.79450,-42.36497984
0.79500,-36.26109168
0.79550,-20.69617689
0.79600,-2.384512429
0.79650,8.907680656
0.79700,10.7388471
0.79750,7.686903025
0.79800,2.803792502
0.79850,-5.741650914
0.79900,-17.33903841
0.79950,-22.83253774
0.80000,-16.42345518
0.80050,-3.60529006
0.80100,6.771319802
0.80150,16.23234644
0.80200,29.66090038
0.80250,45.53100958
0.80300,54.3816474
0.80350,53.46606418
0.80400,47.66737043
0.80450,40.95309346
0.80500,31.49206683
0.80550,18.97909611
0.80600,6.160930987
0.80650,-4.215678875
0.80700,-15.81306637
0.80750,-28.63123149
0.80800,-36.8714805
0.80850,-33.20914761
0.80900,-17.033844
0.80950,4.634958948
0.81000,22.641429
0.81050,31.18687242
0.81100,31.49206683
0.81150,29.66090038
0.81200,33.32323327
0.81250,42.78425991
0.81300,52.55048096
0.81350,57.73878589
0.81400,58.3491747
0.81450,57.43359148
0.81500,56.82320267
0.81550,54.3816474
0.81600,50.1089257
0.81650,45.22581517
0.81700,41.25828787
0.81750,35.45959413
0.81800,25.38817867
0.81850,11.34923592
0.81900,-0.8585403903
0.81950,-8.488400583
0.82000,-13.98189992
0.82050,-20.69617689
0.82100,-26.80006504
0.82150,-26.49487064
0.82200,-17.33903841
0.82250,-4.215678875
0.82300,6.771319802
0.82350,15.62195763
0.82400,22.641429
0.82450,27.82973393
0.82500,28.44012275
0.82550,24.16740104
0.82600,14.7063744
0.82650,2.193403687
0.82700,-11.84553907
0.82750,-27.10525945
0.82800,-43.58575747
0.82850,-58.23508904
0.82900,-66.17014364
0.82950,-66.47533805
0.83000,-62.50781075
0.83050,-56.09872818
0.83100,-41.14420221
0.83150,-11.84553907
0.83200,24.16740104
0.83250,51.02450892
0.83300,65.67384049
0.83350,82.45953291
0.83400,108.706252
0.83450,130.6802493
0.83500,130.9854437
0.83550,110.5374184
0.83600,84.29069936
0.83650,57.73878589
0.83700,28.13492834
0.83750,0.05704283282
0.83800,-15.50787196
0.83850,-18.25462163
0.83900,-20.39098248
0.83950,-25.88448182
0.84000,-24.35850978
0.84050,-7.878011767
0.84100,15.62195763
0.84150,38.5115382
0.84200,61.40111878
0.84250,85.20628258
0.84300,102.2971694
0.84350,108.4010576
0.84400,108.706252
0.84450,105.9595023
0.84500,96.19328126
0.84550,84.59589377
0.84600,88.86861547
0.84650,116.946501
0.84700,148.381525
0.84750,157.5373572
0.84800,141.9724424
0.84850,115.4205289
0.84900,81.54394969
0.84950,40.95309346
0.85000,7.07651421
0.85050,-3.910484467
0.85100,0.05704283282
0.85150,-5.436456506
0.85200,-28.32603708
0.85250,-51.52081207
0.85300,-61.89742193
0.85350,-65.55975482
0.85400,-69.83247653
0.85450,-71.05325416
0.85500,-63.72858838
0.85550,-55.18314496
0.85600,-54.87795055
0.85650,-64.03378278
0.85700,-78.68311435
0.85750,-98.21555645
0.85800,-123.5466923
0.85850,-151.3193834
0.85900,-176.6505192
0.85950,-196.1829613
0.86000,-209.0011264
0.86050,-212.6634593
0.86100,-206.8647656
0.86150,-194.3517949
0.86200,-179.0920745
0.86250,-164.4427429
0.86300,-153.4557442
0.86350,-146.4362729
0.86400,-139.7219959
0.86450,-129.9557748
0.86500,-118.3583874
0.86550,-108.5921663
0.86600,-100.0467229
0.86650,-89.97530744
0.86700,-77.76753113
0.86750,-66.17014364
0.86800,-55.79353378
0.86850,-46.63770155
0.86900,-37.17667491
0.86950,-28.02084268
0.87000,-18.86501044
0.87050,-9.709178214
0.87100,-2.384512429
0.87150,3.719375725
0.87200,13.79079118
0.87250,29.05051156
0.87300,45.53100958
0.87350,57.12839707
0.87400,62.62189641
0.87450,64.75825727
0.87500,66.2842293
0.87550,65.9790349
0.87600,63.23228523
0.87650,60.79072997
0.87700,62.62189641
0.87750,69.33617338
0.87800,76.66083917
0.87850,80.01797765
0.87900,79.10239443
0.87950,78.79720002
0.88000,80.93356087
0.88050,82.1543385
0.88100,79.40758884
0.88150,75.13486713
0.88200,72.99850627
0.88250,72.38811746
0.88300,70.86214542
0.88350,68.42059016
0.88400,65.67384049
0.88450,60.18034115
0.88500,50.4141201
0.88550,42.1738711
0.88600,42.4790655
0.88650,51.63489773
0.88700,64.45306286
0.88750,76.66083917
0.88800,84.90108817
0.88850,84.90108817
0.88900,76.05045035
0.88950,66.89461812
0.89000,68.11539575
0.89050,80.01797765
0.89100,91.31017074
0.89150,90.69978192
0.89200,74.2192839
0.89250,46.4465928
0.89300,15.62195763
0.89350,-8.183206175
0.89400,-24.05331538
0.89450,-37.48186931
0.89500,-51.21561766
0.89550,-57.31950582
0.89600,-48.16367358
0.89650,-28.32603708
0.89700,-13.0663167
0.89750,-11.23515025
0.89800,-19.17020485
0.89850,-26.49487064
0.89900,-24.9688986
0.89950,-17.64423281
0.90000,-13.67670551
0.90050,-18.25462163
0.90100,-20.69617689
0.90150,-6.657234137
0.90200,22.3362346
0.90250,52.24528655
0.90300,73.30370068
0.90350,89.17380988
0.90400,101.0763918
0.90450,104.1283359
0.90500,102.6023638
0.90550,110.5374184
0.90600,131.5958326
0.90650,149.6023026
0.90700,147.7711362
0.90750,131.5958326
0.90800,115.7257234
0.90850,100.7711974
0.90900,79.10239443
0.90950,52.24528655
0.91000,30.2712892
0.91050,15.62195763
0.91100,3.414181318
0.91150,-8.183206175
0.91200,-19.78059367
0.91250,-35.95589728
0.91300,-61.89742193
0.91350,-96.38439
0.91400,-131.7869413
0.91450,-162.9167709
0.91500,-188.8582955
0.91550,-206.2543768
0.91600,-209.9167097
0.91650,-200.1504886
0.91700,-181.8388242
0.91750,-160.78041
0.91800,-140.6375791
0.91850,-124.7674699
0.91900,-111.9493048
0.91950,-97.91036204
0.92000,-81.12466962
0.92050,-66.47533805
0.92100,-56.40392259
0.92150,-49.38445121
0.92200,-43.58575747
0.92250,-42.05978543
0.92300,-48.16367358
0.92350,-56.09872818
0.92400,-57.01431141
0.92450,-50.60522885
0.92500,-43.58575747
0.92550,-41.14420221
0.92600,-43.28056306
0.92650,-47.24809036
0.92700,-48.16367358
0.92750,-44.8065351
0.92800,-40.53381339
0.92850,-39.61823017
0.92900,-36.56628609
0.92950,-18.86501044
0.93000,13.48559677
0.93050,49.49853688
0.93100,80.01797765
0.93150,111.4530016
0.93200,148.9919138
0.93250,183.1736875
0.93300,199.6541855
0.93350,196.6022414
0.93400,181.6477154
0.93450,157.5373572
0.93500,124.8815556
0.93550,88.86861547
0.93600,56.21281385
0.93650,25.08298426
0.93700,-6.962428544
0.93750,-31.98836998
0.93800,-40.22861898
0.93850,-35.95589728
0.93900,-29.85200912
0.93950,-24.35850978
0.94000,-16.42345518
0.94050,-9.403983806
0.94100,-10.01437262
0.94150,-13.0663167
0.94200,-8.793594991
0.94250,0.6674316482
0.94300,5.245347764
0.94350,2.803792502
0.94400,1.583014871
0.94450,4.024570133
0.94500,6.466125395
0.94550,11.04404151
0.94600,26.6089563
0.94650,50.71931451
0.94700,69.9465622
0.94750,76.05045035
0.94800,74.52447831
0.94850,67.19981253
0.94900,47.66737043
0.94950,13.48559677
0.95000,-25.27409301
0.95050,-61.89742193
0.95100,-97.29997322
0.95150,-130.8713581
0.95200,-151.9297722
0.95250,-154.6765219
0.95300,-147.6570505
0.95350,-138.5012183
0.95400,-122.6311091
0.95450,-91.80647389
0.95500,-51.52081207
0.95550,-15.50787196
0.95600,13.48559677
0.95650,47.97256484
0.95700,93.44653159
0.95750,139.8360816
0.95800,171.8814944
0.95850,185.0048539
0.95900,186.5308259
0.95950,185.0048539
0.96000,183.1736875
0.96050,178.5957713
0.96100,170.0503279
0.96150,159.0633292
0.96200,148.0763306
0.96250,136.1737487
0.96300,119.6932507
0.96350,95.27769804
0.96400,63.84267404
0.96450,28.44012275
0.96500,-7.878011767
0.96550,-44.19614628
0.96600,-78.68311435
0.96650,-110.7285272
0.96700,-140.3323847
0.96750,-165.968715
0.96800,-185.1959626
0.96850,-195.8777669
0.96900,-199.8452942
0.96950,-200.1504886
0.97000,-199.2349054
0.97050,-196.1829613
0.97100,-190.9946564
0.97150,-181.8388242
0.97200,-166.5791038
0.97250,-143.3843288
0.97300,-115.6116377
0.97350,-89.36491862
0.97400,-69.22208772
0.97450,-53.96236733
0.97500,-41.44939661
0.97550,-31.07278675
0.97600,-21.61176011
0.97650,-10.01437262
0.97700,3.10898691
0.97750,14.09598559
0.97800,20.50506815
0.97850,26.6089563
0.97900,36.68037176
0.97950,46.1413984
0.98000,49.80373129
0.98050,54.68684181
0.98100,73.9140895
0.98150,111.7581961
0.98200,154.4854131
0.98250,183.4788819
0.98300,189.58277
0.98350,174.9334384
0.98400,145.6347753
0.98450,108.0958632
0.98500,68.42059016
0.98550,32.40765005
0.98600,2.803792502
0.98650,-20.39098248
0.98700,-38.09225813
0.98750,-51.21561766
0.98800,-59.15067226
0.98850,-63.72858838
0.98900,-67.08572686
0.98950,-64.94936601
0.99000,-50.30003444
0.99050,-21.0013713
0.99100,10.43365269
0.99150,30.2712892
0.99200,35.45959413
0.99250,34.84920531
0.99300,31.79726123
0.99350,21.72584578
0.99400,8.297291841
0.99450,11.34923592
0.99500,42.78425991
0.99550,86.42706021
0.99600,113.8945569
0.99650,116.946501
0.99700,108.4010576
0.99750,97.10886448
0.99800,78.49200561
0.99850,48.88814807
0.99900,15.62195763
0.99950,-13.0663167
1.00000,-41.14420221
1.00050,-71.05325416
1.00100,-96.99477882
1.00150,-110.4233328
1.00200,-112.5596936
1.00250,-110.4233328
1.00300,-107.3713887
1.00350,-102.1830837
1.00400,-96.07919559
1.00450,-89.67011303
1.00500,-79.29350317
1.00550,-60.98183871
1.00600,-38.70264695
1.00650,-20.69617689
1.00700,-11.23515025
1.00750,-6.352039729
1.00800,-2.689706836
1.00850,0.05704283282
1.00900,3.414181318
1.00950,11.04404151
1.01000,23.86220663
1.01050,37.29076057
1.01100,47.97256484
1.01150,57.12839707
1.01200,66.89461812
1.01250,72.08292305
1.01300,65.06345167
1.01350,45.53100958
1.01400,22.94662341
1.01450,4.024570133
1.01500,-12.15073348
1.01550,-28.9364259
1.01600,-41.75459102
1.01650,-44.19614628
1.01700,-38.70264695
1.01750,-34.73511965
1.01800,-35.04031405
1.01850,-30.46239794
1.01900,-11.84553907
1.01950,15.92715203
1.02000,37.29076057
1.02050,39.73231583
1.02100,26.6089563
1.02150,11.34923592
1.02200,7.07651421
1.02250,19.28429052
1.02300,40.64789906
1.02350,57.43359148
1.02400,59.26475793
1.02450,49.80373129
1.02500,40.64789906
1.02550,41.56348228
1.02600,50.71931451
1.02650,59.87514674
1.02700,62.0115076
1.02750,56.82320267
1.02800,48.88814807
1.02850,42.1738711
1.02900,35.76478853
1.02950,24.77778986
1.03000,8.297291841
1.03050,-10.31956703
1.03100,-30.46239794
1.03150,-54.87795055
1.03200,-82.34544725
1.03250,-104.3194446
1.03300,-112.864888
1.03350,-109.8129439
1.03400,-99.43633408
1.03450,-83.26103047
1.03500,-61.59222752
1.03550,-41.44939661
1.03600,-28.32603708
1.03650,-20.39098248
1.03700,-12.76112229
1.03750,-6.962428544
1.03800,-8.793594991
1.03850,-16.72864959
1.03900,-22.83253774
1.03950,-25.57928741
1.04000,-32.59875879
1.04050,-47.85847918
1.04100,-63.11819956
1.04150,-68.00131008
1.04200,-60.06625548
1.04250,-46.63770155
1.04300,-34.73511965
1.04350,-27.41045386
1.04400,-22.52734334
1.04450,-13.0663167
1.04500,9.518069472
1.04550,47.97256484
1.04600,95.27769804
1.04650,138.6153039
1.04700,169.1347447
1.04750,189.58277
1.04800,207.5892401
1.04850,226.8164878
1.04900,242.9917914
1.04950,248.4852907
1.05000,241.4658193
1.05050,223.7645437
1.05100,198.4334078
1.05150,167.3035783
1.05200,130.9854437
1.05250,89.17380988
1.05300,39.42712143
1.05350,-18.55981604
1.05400,-79.59869758
1.05450,-134.8388854
1.05500,-179.7024633
1.05550,-213.2738482
1.05600,-236.4686231
1.05650,-248.6763994
1.05700,-250.5075659
1.05750,-245.9296498
1.05800,-238.604984
1.05850,-229.4491518
1.05900,-215.410209
1.05950,-195.5725725
1.06000,-171.7674087
1.06050,-147.6570505
1.06100,-123.5466923
1.06150,-96.99477882
1.06200,-64.03378278
1.06250,-28.02084268
1.06300,4.940153356
1.06350,29.96609479
1.06400,46.75178721
1.06450,58.95956352
1.06500,67.50500693
1.06550,71.77772864
1.06600,70.2517566
1.06650,66.2842293
1.06700,66.2842293
1.06750,74.2192839
1.06800,82.76472732
1.06850,82.76472732
1.06900,74.52447831
1.06950,70.86214542
1.07000,80.93356087
1.07050,98.32964211
1.07100,110.232224
1.07150,111.1478072
1.07200,105.0439191
1.07250,93.14133718
1.07300,73.60889509
1.07350,49.80373129
1.07400,30.88167801
1.07450,27.21934512
1.07500,40.95309346
1.07550,62.0115076
1.07600,73.30370068
1.07650,68.72578457
1.07700,60.79072997
1.07750,67.19981253
1.07800,85.20628258
1.07850,96.19328126
1.07900,97.10886448
1.07950,108.4010576
1.08000,142.2776368
1.08050,177.3749937
1.08100,182.5632986
1.08150,153.8750243
1.08200,111.4530016
1.08250,69.9465622
1.08300,30.88167801
1.08350,-4.82606769
1.08400,-31.68317557
1.08450,-49.07925681
1.08500,-62.20261634
1.08550,-73.80000383
1.08600,-80.5142808
1.08650,-82.65064165
1.08700,-86.00778014
1.08750,-93.94283474
1.08800,-105.2350278
1.08850,-119.8843594
1.08900,-139.4168015
1.08950,-162.6115765
1.09000,-186.1115459
1.09050,-209.3063209
1.09100,-230.9751238
1.09150,-245.319261
1.09200,-247.4556218
1.09250,-240.130956
1.09300,-226.0920133
1.09350,-202.2868495
1.09400,-167.1894926
1.09450,-129.6505804
1.09500,-96.99477882
1.09550,-65.25456042
1.09600,-27.41045386
1.09650,8.907680656
1.09700,31.79726123
1.09750,41.86867669
1.09800,51.02450892
1.09850,60.79072997
1.09900,62.92709082
1.09950,57.73878589
1.10000,54.68684181
1.10050,54.076453
1.10100,47.66737043
1.10150,40.03751024
1.10200,44.31023195
1.10250,56.51800826
1.10300,54.076453
1.10350,37.90114939
1.10400,47.97256484
1.10450,115.7257234
1.10500,214.6087114
1.10550,287.2449805
1.10600,309.2189778
1.10650,303.4202841
1.10700,297.0112015
1.10750,289.3813413
1.10800,265.2709831
1.10850,220.7125996
1.10900,166.387995
1.10950,116.0309178
1.11000,79.10239443
1.11050,56.51800826
1.11100,36.06998294
1.11150,4.634958948
1.11200,-35.04031405
1.11250,-68.6116989
1.11300,-85.39739132
1.11350,-91.80647389
1.11400,-99.43633408
1.11450,-115.9168321
1.11500,-142.1635512
1.11550,-175.734936
1.11600,-208.3907376
1.11650,-230.9751238
1.11700,-244.7088721
1.11750,-258.1374261
1.11800,-272.1763688
1.11850,-275.8387017
1.11900,-262.1049534
1.11950,-241.0465393
1.12000,-225.1764301
1.12050,-210.5270985
1.12100,-180.6180465
1.12150,-130.8713581
1.12200,-78.37791995
1.12250,-40.8390078
1.12300,-18.86501044
1.12350,-2.689706836
1.12400,10.43365269
1.12450,15.92715203
1.12500,9.823263879
1.12550,-6.046845321
1.12600,-29.54681471
1.12650,-56.40392259
1.12700,-79.59869758
1.12750,-93.02725152
1.12800,-97.91036204
1.12850,-100.3519173
1.12900,-100.3519173
1.12950,-90.28050185
1.13000,-67.08572686
1.13050,-38.70264695
1.13100,-14.59228874
1.13150,1.277820464
1.13200,9.212875064
1.13250,7.381708618
1.13300,-3.910484467
1.13350,-19.78059367
1.13400,-34.42992524
1.13450,-49.99484003
1.13500,-69.83247653
1.13550,-89.97530744
1.13600,-102.7934726
1.13650,-106.4558055
1.13700,-104.0142502
1.13750,-96.07919559
1.13800,-81.12466962
1.13850,-63.11819956
1.13900,-49.68964562
1.13950,-42.36497984
1.14000,-33.20914761
1.14050,-15.50787196
1.14100,8.907680656
1.14150,35.45959413
1.14200,58.95956352
1.14250,76.96603357
1.14300,90.0893931
1.14350,104.1283359
1.14400,122.1348059
1.14450,140.4464704
1.14500,149.907497
1.14550,149.907497
1.14600,148.9919138
1.14650,154.1802187
1.14700,164.862023
1.14750,174.9334384
1.14800,179.2061602
1.14850,175.5438273
1.14900,166.6931894
1.14950,159.0633292
1.15000,152.0438579
1.15050,137.3945263
1.15100,112.6737793
1.15150,90.0893931
1.15200,82.1543385
1.15250,84.29069936
1.15300,84.59589377
1.15350,80.32317206
1.15400,75.44006154
1.15450,65.9790349
1.15500,50.1089257
1.15550,44.92062076
1.15600,70.55695101
1.15650,116.3361122
1.15700,151.7386635
1.15750,166.0828006
1.15800,177.0697993
1.15850,194.4658805
1.15900,202.7061295
1.15950,186.8360203
1.16000,153.5698299
1.16050,116.0309178
1.16100,71.47253423
1.16150,15.92715203
1.16200,-42.05978543
1.16250,-89.67011303
1.16300,-125.6830531
1.16350,-154.9817163
1.16400,-176.6505192
1.16450,-188.5531011
1.16500,-194.0466005
1.16550,-194.3517949
1.16600,-182.1440186
1.16650,-155.2869107
1.16700,-123.8518867
1.16750,-98.82594526
1.16800,-82.04025284
1.16850,-68.00131008
1.16900,-55.79353378
1.16950,-44.50134069
1.17000,-29.85200912
1.17050,-11.84553907
1.17100,2.193403687
1.17150,7.07651421
1.17200,7.992097433
1.17250,14.7063744
1.17300,30.5764836
1.17350,49.49853688
1.17400,62.62189641
1.17450,63.53747963
1.17500,50.4141201
1.17550,26.6089563
1.17600,2.498598094
1.17650,-8.793594991
1.17700,1.888209279
1.17750,35.15439972
1.17800,76.96603357
1.17850,108.4010576
1.17900,120.9140283
1.17950,120.3036395
1.18000,115.7257234
1.18050,107.1802799
1.18100,91.00497633
1.18150,69.9465622
1.18200,51.32970333
1.18250,37.59595498
1.18300,27.52453953
1.18350,21.11545696
1.18400,17.45312407
1.18450,10.7388471
1.18500,-3.60529006
1.18550,-22.83253774
1.18600,-39.61823017
1.18650,-54.57275615
1.18700,-73.18961502
1.18750,-92.4168627
1.18800,-103.7090558
1.18850,-107.0661943
1.18900,-111.6441104
1.18950,-115.0012489
1.19000,-96.99477882
1.19050,-45.11172951
1.19100,19.89467933
1.19150,65.06345167
1.19200,80.32317206
1.19250,81.54394969
1.19300,80.01797765
1.19350,63.53747963
1.19400,23.86220663
1.19450,-23.44292656
1.19500,-56.09872818
1.19550,-70.13767094
1.19600,-77.76753113
1.19650,-81.42986402
1.19700,-73.18961502
1.19750,-51.82600648
1.19800,-26.80006504
1.19850,-6.657234137
1.19900,5.550542171
1.19950,6.160930987
1.20000,-8.488400583
1.20050,-31.98836998
1.20100,-52.13120088
1.20150,-64.03378278
1.20200,-72.27403179
1.20250,-75.93636468
1.20300,-69.52728212
1.20350,-55.79353378
1.20400,-47.85847918
1.20450,-53.96236733
1.20500,-66.47533805
1.20550,-75.02078146
1.20600,-77.15714232
1.20650,-77.15714232
1.20700,-77.15714232
1.20750,-73.18961502
1.20800,-61.89742193
1.20850,-43.89095188
1.20900,-24.9688986
1.20950,-11.84553907
1.21000,-3.300095652
1.21050,7.381708618
1.21100,24.47259545
1.21150,46.1413984
1.21200,67.81020134
1.21250,88.25822666
1.21300,104.4335303
1.21350,113.2841681
1.21400,115.1153345
1.21450,112.0633905
1.21500,99.24522534
1.21550,71.47253423
1.21600,33.62842768
1.21650,-2.384512429
1.21700,-33.20914761
1.21750,-60.6766443
1.21800,-80.81947521
1.21850,-87.22855777
1.21900,-88.14414099
1.21950,-92.72205711
1.22000,-86.31297455
1.22050,-43.89095188
1.22100,25.99856749
1.22150,81.54394969
1.22200,100.7711974
1.22250,108.0958632
1.22300,127.6283053
1.22350,142.5828312
1.22400,126.4075276
1.22450,91.61536514
1.22500,72.38811746
1.22550,78.79720002
1.22600,88.86861547
1.22650,83.98550495
1.22700,65.06345167
1.22750,43.69984313
1.22800,33.32323327
1.22850,44.61542636
1.22900,76.35564476
1.22950,107.7906688
1.23000,119.3880562
1.23050,112.3685849
1.23100,100.466003
1.23150,88.25822666
1.23200,71.16733983
1.23250,48.88814807
1.23300,29.05051156
1.23350,16.84273526
1.23400,11.34923592
1.23450,6.466125395
1.23500,-7.57281736
1.23550,-33.51434201
1.23600,-55.48833937
1.23650,-49.99484003
1.23700,-13.98189992
1.23750,25.99856749
1.23800,42.1738711
1.23850,29.96609479
1.23900,2.498598094
1.23950,-29.85200912
1.24000,-64.6441716
1.24050,-97.91036204
1.24100,-123.2414979
1.24150,-140.6375791
1.24200,-154.3713275
1.24250,-167.7998814
1.24300,-180.3128521
1.24350,-189.7738788
1.24400,-194.3517949
1.24450,-193.1310172
1.24500,-188.5531011
1.24550,-182.1440186
1.24600,-172.0726031
1.24650,-151.3193834
1.24700,-116.8324153
1.24750,-76.5467535
1.24800,-41.14420221
1.24850,-14.28709433
1.24900,7.686903025
1.24950,28.74531716
1.25000,46.4465928
1.25050,58.65436911
1.25100,65.9790349
1.25150,67.81020134
1.25200,59.87514674
1.25250,40.03751024
1.25300,17.75831848
1.25350,6.160930987
1.25400,9.212875064
1.25450,18.6739017
1.25500,25.99856749
1.25550,28.74531716
1.25600,31.18687242
1.25650,35.45959413
1.25700,40.34270465
1.25750,41.56348228
1.25800,35.76478853
1.25850,24.77778986
1.25900,12.87520796
1.25950,0.6674316482
1.26000,-14.28709433
1.26050,-31.68317557
1.26100,-44.8065351
1.26150,-52.7415897
1.26200,-59.76106108
1.26250,-53.96236733
1.26300,-0.8585403903
1.26350,123.3555835
1.26400,294.8748407
1.26450,453.2707383
1.26500,553.9848928
1.26550,591.2186106
1.26600,574.1277237
1.26650,504.5433988
1.26700,388.8747182
1.26750,252.7580124
1.26800,125.7971388
1.26850,17.75831848
1.26900,-77.46233672
1.26950,-161.0856044
1.27000,-218.7673475
1.27050,-237.079012
1.27100,-219.3777363
1.27150,-187.9427123
1.27200,-169.3258534
1.27250,-173.2933807
1.27300,-187.9427123
1.27350,-194.9621837
1.27400,-192.215434
1.27450,-188.8582955
1.27500,-185.1959626
1.27550,-168.4102702
1.27600,-135.1440798
1.27650,-100.6571117
1.27700,-78.68311435
1.27750,-62.20261634
1.27800,-37.78706372
1.27850,-5.131262098
1.27900,22.94662341
1.27950,42.1738711
1.28000,54.68684181
1.28050,60.48553556
1.28100,55.29723063
1.28150,38.81673261
1.28200,11.34923592
1.28250,-29.54681471
1.28300,-80.5142808
1.28350,-128.4298028
1.28400,-163.5271597
1.28450,-192.215434
1.28500,-219.9881251
1.28550,-234.9426511
1.28600,-224.2608468
1.28650,-195.8777669
1.28700,-159.5596324
1.28750,-103.098667
1.28800,-10.01437262
1.28850,100.7711974
1.28900,188.3619924
1.28950,235.6671256
1.29000,259.7774838
1.29050,271.9852601
1.29100,266.1865663
1.29150,247.2645131
1.29200,233.8359591
1.29250,225.9009045
1.29300,200.2645743
1.29350,156.0113852
1.29400,129.7646661
1.29450,148.6867194
1.29500,188.9723812
1.29550,201.7905463
1.29600,167.6087727
1.29650,102.2971694
1.29700,29.35570597
1.29750,-35.65070287
1.29800,-84.4818081
1.29850,-118.0531929
1.29900,-148.8778281
1.29950,-189.1634899
1.30000,-237.3842064
1.30050,-282.5529787
1.30100,-317.3451412
1.30150,-339.9295273
1.30200,-348.7801652
1.30250,-343.2866658
1.30300,-323.7542237
1.30350,-293.5399774
1.30400,-263.9361198
1.30450,-250.8127603
1.30500,-253.55951
1.30550,-249.2867883
1.30600,-216.6309866
1.30650,-165.968715
1.30700,-126.5986364
1.30750,-112.2544992
1.30800,-111.0337216
1.30850,-110.4233328
1.30900,-109.8129439
1.30950,-108.8973607
1.31000,-102.1830837
1.31050,-87.53375218
1.31100,-69.52728212
1.31150,-49.07925681
1.31200,-21.91695452
1.31250,7.686903025
1.31300,30.5764836
1.31350,43.39464873
1.31400,52.24528655
1.31450,59.87514674
1.31500,59.87514674
1.31550,54.99203622
1.31600,57.73878589
1.31650,74.2192839
1.31700,94.97250363
1.31750,110.8426128
1.31800,125.7971388
1.31850,142.8880256
1.31900,154.7906075
1.31950,151.4334691
1.32000,136.1737487
1.32050,119.6932507
1.32100,105.0439191
1.32150,88.25822666
1.32200,68.42059016
1.32250,50.4141201
1.32300,35.45959413
1.32350,21.42065137
1.32400,7.686903025
1.32450,-1.163734798
1.32500,-3.910484467
1.32550,-4.520873283
1.32600,-8.183206175
1.32650,-14.89748314
1.32700,-20.69617689
1.32750,-21.91695452
1.32800,-16.11826078
1.32850,-4.82606769
1.32900,4.940153356
1.32950,9.823263879
1.33000,15.31676322
1.33050,31.49206683
1.33100,56.21281385
1.33150,72.69331187
1.33200,72.69331187
1.33250,70.2517566
1.33300,83.37511614
1.33350,108.706252
1.33400,125.18675
1.33450,124.2711668
1.33500,116.946501
1.33550,115.7257234
1.33600,121.8296115
1.33650,136.4789431
1.33700,163.0308565
1.33750,196.6022414
1.33800,219.7970164
1.33850,221.9333772
1.33900,212.1671562
1.33950,199.6541855
1.34000,178.2905769
1.34050,138.9204983
1.34100,88.56342107
1.34150,44.00503754
1.34200,9.212875064
1.34250,-19.17020485
1.34300,-38.09225813
1.34350,-39.00784135
1.34400,-26.18967623
1.34450,-7.57281736
1.34500,21.42065137
1.34550,73.9140895
1.34600,141.3620536
1.34650,194.1606861
1.34700,209.1152121
1.34750,183.1736875
1.34800,124.5763612
1.34850,42.78425991
1.34900,-47.55328477
1.34950,-132.0921357
1.35000,-208.3907376
1.35050,-277.0594794
1.35100,-319.481502
1.35150,-308.4945034
1.35200,-245.319261
1.35250,-168.4102702
1.35300,-110.1181383
1.35350,-69.52728212
1.35400,-31.98836998
1.35450,-0.2481515749
1.35500,12.87520796
1.35550,9.823263879
1.35600,2.803792502
1.35650,-5.131262098
1.35700,-20.39098248
1.35750,-43.28056306
1.35800,-66.47533805
1.35850,-85.09219692
1.35900,-98.52075085
1.35950,-106.150611
1.36000,-107.3713887
1.36050,-104.9298334
1.36100,-102.4882782
1.36150,-100.0467229
1.36200,-95.16361237
1.36250,-86.31297455
1.36300,-72.88442061
1.36350,-53.04678411
1.36400,-28.32603708
1.36450,-1.163734798
1.36500,25.08298426
1.36550,50.71931451
1.36600,72.69331187
1.36650,84.59589377
1.36700,80.93356087
1.36750,65.67384049
1.36800,50.71931451
1.36850,50.4141201
1.36900,66.58942371
1.36950,83.68031054
1.37000,85.20628258
1.37050,77.57642239
1.37100,91.31017074
1.37150,149.2971082
1.37200,237.498292
1.37250,316.2384492
1.37300,353.472167
1.37350,341.8747795
1.37400,291.5177022
1.37450,217.6606555
1.37500,138.0049151
1.37550,71.47253423
1.37600,29.96609479
1.37650,13.48559677
1.37700,11.95962473
1.37750,11.65443033
1.37800,2.498598094
1.37850,-18.25462163
1.37900,-48.46886799
1.37950,-79.59869758
1.38000,-102.7934726
1.38050,-115.9168321
1.38100,-126.9038308
1.38150,-146.4362729
1.38200,-174.5141584
1.38250,-200.455683
1.38300,-217.8517643
1.38350,-230.6699294
1.38400,-237.3842064
1.38450,-227.3127909
1.38500,-199.8452942
1.38550,-174.208964
1.38600,-161.6959932
1.38650,-143.9947176
1.38700,-100.6571117
1.38750,-46.33250714
1.38800,-14.59228874
1.38850,-12.45592788
1.38900,-14.59228874
1.38950,-3.910484467
1.39000,9.212875064
1.39050,14.09598559
1.39100,18.36870729
1.39150,26.91415071
1.39200,28.74531716
1.39250,18.36870729
1.39300,11.04404151
1.39350,20.50506815
1.39400,35.45959413
1.39450,33.62842768
1.39500,10.43365269
1.39550,-20.39098248
1.39600,-43.58575747
1.39650,-51.52081207
1.39700,-42.05978543
1.39750,-17.033844
1.39800,14.09598559
1.39850,42.1738711
1.39900,62.316702
1.39950,73.9140895
1.40000,81.23875528
1.40050,91.00497633
1.40100,105.9595023
1.40150,113.5893625
1.40200,97.7192533
1.40250,65.06345167
1.40300,39.42712143
1.40350,32.10245564
1.40400,25.99856749
1.40450,2.803792502
1.40500,-33.81953642
1.40550,-72.88442061
1.40600,-114.6960545
1.40650,-161.0856044
1.40700,-197.0985445
1.40750,-203.8128215
1.40800,-182.449213
1.40850,-151.014189
1.40900,-120.7999426
1.40950,-90.28050185
1.41000,-59.76106108
1.41050,-33.20914761
1.41100,-7.267622952
1.41150,23.55701223
1.41200,56.21281385
1.41250,80.62836647
1.41300,96.80367007
1.41350,111.1478072
1.41400,121.5244171
1.41450,116.0309178
1.41500,91.61536514
1.41550,57.73878589
1.41600,26.91415071
1.41650,8.907680656
1.41700,13.48559677
1.41750,38.81673261
1.41800,61.40111878
1.41850,59.26475793
1.41900,41.86867669
1.41950,40.95309346
1.42000,64.45306286
1.42050,85.20628258
1.42100,78.49200561
1.42150,51.94009214
1.42200,24.77778986
1.42250,3.719375725
1.42300,-13.0663167
1.42350,-20.69617689
1.42400,-16.11826078
1.42450,-8.488400583
1.42500,-7.878011767
1.42550,-12.45592788
1.42600,-17.94942722
1.42650,-27.10525945
1.42700,-41.14420221
1.42750,-53.04678411
1.42800,-60.06625548
1.42850,-71.96883738
1.42900,-89.97530744
1.42950,-98.82594526
1.43000,-85.70258573
1.43050,-60.37144989
1.43100,-36.26109168
1.43150,-9.098789398
1.43200,28.13492834
1.43250,62.316702
1.43300,73.9140895
1.43350,67.50500693
1.43400,67.19981253
1.43450,80.62836647
1.43500,91.31017074
1.43550,87.03744903
1.43600,75.44006154
1.43650,65.67384049
1.43700,57.73878589
1.43750,50.71931451
1.43800,48.27775925
1.43850,47.66737043
1.43900,39.12192702
1.43950,20.19987374
1.44000,1.583014871
1.44050,-7.57281736
1.44100,-12.45592788
1.44150,-15.50787196
1.44200,-11.54034466
1.44250,1.888209279
1.44300,16.53754085
1.44350,25.38817867
1.44400,34.84920531
1.44450,53.16086977
1.44500,73.30370068
1.44550,80.01797765
1.44600,69.33617338
1.44650,45.83620399
1.44700,14.09598559
1.44750,-22.83253774
1.44800,-54.57275615
1.44850,-71.96883738
1.44900,-80.20908639
1.44950,-90.28050185
1.45000,-95.16361237
1.45050,-73.18961502
1.45100,-21.91695452
1.45150,30.5764836
1.45200,57.43359148
1.45250,57.73878589
1.45300,48.27775925
1.45350,35.45959413
1.45400,14.40117999
1.45450,-13.0663167
1.45500,-34.73511965
1.45550,-42.36497984
1.45600,-40.53381339
1.45650,-35.95589728
1.45700,-28.9364259
1.45750,-20.08578808
1.45800,-14.89748314
1.45850,-18.25462163
1.45900,-28.63123149
1.45950,-41.14420221
1.46000,-50.30003444
1.46050,-49.38445121
1.46100,-28.32603708
1.46150,14.09598559
1.46200,59.26475793
1.46250,78.79720002
1.46300,66.89461812
1.46350,44.92062076
1.46400,33.93362209
1.46450,24.77778986
1.46500,-3.300095652
1.46550,-42.67017425
1.46600,-53.35197851
1.46650,-11.23515025
1.46700,58.0439803
1.46750,112.0633905
1.46800,138.3101095
1.46850,158.147746
1.46900,188.056798
1.46950,216.4398779
1.47000,222.543766
1.47050,203.6217128
1.47100,177.3749937
1.47150,160.5893013
1.47200,150.5178858
1.47250,125.18675
1.47300,66.58942371
1.47350,-14.59228874
1.47400,-88.4493354
1.47450,-134.533691
1.47500,-159.254438
1.47550,-180.0076577
1.47600,-201.3712663
1.47650,-219.3777363
1.47700,-236.4686231
1.47750,-256.3062596
1.47800,-275.5335073
1.47850,-286.8257004
1.47900,-287.1308948
1.47950,-269.7348136
1.48000,-219.6829307
1.48050,-134.8388854
1.48100,-42.05978543
1.48150,25.99856749
1.48200,65.06345167
1.48250,94.0569204
1.48300,120.6088339
1.48350,132.5114158
1.48400,122.7451947
1.48450,100.7711974
1.48500,74.52447831
1.48550,38.81673261
1.48600,-7.267622952
1.48650,-49.38445121
1.48700,-70.74805975
1.48750,-70.74805975
1.48800,-63.42339397
1.48850,-57.62470022
1.48900,-54.57275615
1.48950,-50.60522885
1.49000,-42.97536865
1.49050,-31.68317557
1.49100,-21.30656571
1.49150,-18.25462163
1.49200,-21.91695452
1.49250,-25.88448182
1.49300,-27.10525945
1.49350,-31.68317557
1.49400,-43.89095188
1.49450,-59.45586667
1.49500,-70.74805975
1.49550,-78.37791995
1.49600,-86.61816895
1.49650,-94.24802915
1.49700,-94.85841796
1.49750,-88.75452981
1.49800,-87.22855777
1.49850,-99.13113967
1.49900,-117.4428041
1.49950,-126.293442
1.50000,-116.2220265
1.50050,-95.16361237
1.50100,-75.02078146
1.50150,-60.6766443
1.50200,-48.46886799
1.50250,-36.56628609
1.50300,-26.18967623
1.50350,-17.033844
1.50400,-5.741650914
1.50450,7.686903025
1.50500,19.28429052
1.50550,25.69337308
1.50600,29.35570597
1.50650,34.2388165
1.50700,41.56348228
1.50750,50.4141201
1.50800,57.73878589
1.50850,61.70631319
1.50900,60.18034115
1.50950,53.77125859
1.51000,44.92062076
1.51050,35.15439972
1.51100,25.38817867
1.51150,17.14792966
1.51200,13.18040236
1.51250,13.18040236
1.51300,15.31676322
1.51350,20.81026256
1.51400,32.10245564
1.51450,50.71931451
1.51500,74.52447831
1.51550,96.80367007
1.51600,109.0114464
1.51650,109.3166408
1.51700,105.6543079
1.51750,112.3685849
1.51800,130.9854437
1.51850,145.9399697
1.51900,144.4139977
1.51950,133.426999
1.52000,129.1542773
1.52050,133.426999
1.52100,130.9854437
1.52150,111.4530016
1.52200,81.8491441
1.52250,53.16086977
1.52300,27.82973393
1.52350,1.583014871
1.52400,-24.05331538
1.52450,-44.50134069
1.52500,-56.09872818
1.52550,-60.6766443
1.52600,-60.37144989
1.52650,-55.18314496
1.52700,-39.61823017
1.52750,-10.31956703
1.52800,25.38817867
1.52850,53.16086977
1.52900,66.2842293
1.52950,76.05045035
1.53000,91.31017074
1.53050,104.1283359
1.53100,104.7387247
1.53150,101.991975
1.53200,115.1153345
1.53250,139.8360816
1.53300,147.7711362
1.53350,121.8296115
1.53400,77.57642239
1.53450,40.95309346
1.53500,18.97909611
1.53550,-0.5533459826
1.53600,-29.85200912
1.53650,-67.69611568
1.53700,-105.5402222
1.53750,-133.3129133
1.53800,-147.9622449
1.53850,-159.8648268
1.53900,-179.3972689
1.53950,-190.689462
1.54000,-158.9492436
1.54050,-75.93636468
1.54100,17.14792966
1.54150,70.55695101
1.54200,77.27122798
1.54250,67.19981253
1.54300,58.95956352
1.54350,44.92062076
1.54400,22.94662341
1.54450,15.92715203
1.54500,40.03751024
1.54550,77.27122798
1.54600,97.10886448
1.54650,91.92055955
1.54700,80.01797765
1.54750,74.52447831
1.54800,72.38811746
1.54850,69.03097897
1.54900,67.19981253
1.54950,70.2517566
1.55000,73.30370068
1.55050,69.03097897
1.55100,53.16086977
1.55150,21.11545696
1.55200,-27.71564827
1.55250,-86.31297455
1.55300,-138.5012183
1.55350,-176.0401304
1.55400,-204.4232103
1.55450,-232.8062902
1.55500,-259.6633981
1.55550,-277.6698682
1.55600,-284.3841451
1.55650,-280.7218123
1.55700,-263.325731
1.55750,-229.4491518
1.55800,-188.8582955
1.55850,-154.9817163
1.55900,-127.2090252
1.55950,-93.33244592
1.56000,-51.52081207
1.56050,-16.42345518
1.56100,3.10898691
1.56150,21.11545696
1.56200,52.24528655
1.56250,86.73225462
1.56300,104.4335303
1.56350,101.991975
1.56400,94.36211481
1.56450,89.47900429
1.56500,76.66083917
1.56550,50.71931451
1.56600,21.42065137
1.56650,0.05704283282
1.56700,-18.86501044
1.56750,-44.50134069
1.56800,-74.10519824
1.56850,-94.85841796
1.56900,-99.43633408
1.56950,-91.19608507
1.57000,-75.93636468
1.57050,-58.23508904
1.57100,-41.44939661
1.57150,-22.83253774
1.57200,6.160930987
1.57250,46.4465928
1.57300,81.54394969
1.57350,94.97250363
1.57400,91.00497633
1.57450,86.73225462
1.57500,87.34264344
1.57550,82.1543385
1.57600,65.06345167
1.57650,48.27775925
1.57700,46.4465928
1.57750,55.29723063
1.57800,60.79072997
1.57850,54.99203622
1.57900,42.4790655
1.57950,29.05051156
1.58000,17.14792966
1.58050,10.43365269
1.58100,12.57001355
1.58150,22.641429
1.58200,33.32323327
1.58250,38.81673261
1.58300,40.64789906
1.58350,43.39464873
1.58400,49.19334247
1.58450,54.076453
1.58500,52.24528655
1.58550,38.2063438
1.58600,11.95962473
1.58650,-21.30656571
1.58700,-54.26756174
1.58750,-80.5142808
1.58800,-96.38439
1.58850,-99.13113967
1.58900,-86.92336336
1.58950,-62.81300515
1.59000,-36.26109168
1.59050,-13.0663167
1.59100,13.79079118
1.59150,58.3491747
1.59200,119.3880562
1.59250,172.7970776
1.59300,193.2451029
1.59350,180.4269378
1.59400,152.6542467
1.59450,121.2192227
1.59500,84.29069936
1.59550,46.1413984
1.59600,21.72584578
1.59650,17.75831848
1.59700,21.42065137
1.59750,21.72584578
1.59800,23.55701223
1.59850,33.93362209
1.59900,44.61542636
1.59950,43.69984313
1.60000,35.15439972
1.60050,27.82973393
1.60100,16.53754085
1.60150,-10.92995584
1.60200,-49.38445121
1.60250,-76.85194791
1.60300,-84.17661369
1.60350,-83.87141929
1.60400,-89.97530744
1.60450,-101.2675005
1.60500,-105.8454166
1.60550,-98.21555645
1.60600,-82.34544725
1.60650,-69.22208772
1.60700,-66.17014364
1.60750,-70.44286535
1.60800,-71.35844857
1.60850,-65.86494923
1.60900,-59.76106108
1.60950,-57.92989463
1.61000,-55.79353378
1.61050,-48.46886799
1.61100,-41.14420221
1.61150,-40.22861898
1.61200,-42.97536865
1.61250,-40.22861898
1.61300,-29.85200912
1.61350,-17.64423281
1.61400,-9.709178214
1.61450,-6.657234137
1.61500,-6.046845321
1.61550,-5.131262098
1.61600,-1.163734798
1.61650,3.10898691
1.61700,4.634958948
1.61750,4.634958948
1.61800,6.466125395
1.61850,9.823263879
1.61900,13.18040236
1.61950,22.3362346
1.62000,44.31023195
1.62050,71.77772864
1.62100,91.92055955
1.62150,109.6218352
1.62200,141.9724424
1.62250,191.4139365
1.62300,242.3814025
1.62350,293.0436742
1.62400,362.9331936
1.62450,453.2707383
1.62500,523.7706464
1.62550,530.179729
1.62600,472.8031804
1.62650,388.5695238
1.62700,302.1995065
1.62750,208.8100177
1.62800,99.55041974
1.62850,-18.86501044
1.62900,-132.3973301
1.62950,-226.3972077
1.63000,-291.7088109
1.63050,-329.2477231
1.63100,-352.1373037
1.63150,-371.9749402
1.63200,-383.8775221
1.63250,-378.3840227
1.63300,-357.630803
1.63350,-332.6048616
1.63400,-303.9165872
1.63450,-266.9880639
1.63500,-226.3972077
1.63550,-190.3842676
1.63600,-155.5921051
1.63650,-115.3064433
1.63700,-78.68311435
1.63750,-62.50781075
1.63800,-57.01431141
1.63850,-29.24162031
1.63900,32.71284446
1.63950,98.02444771
1.64000,126.4075276
1.64050,112.0633905
1.64100,75.13486713
1.64150,33.01803886
1.64200,-8.793594991
1.64250,-43.89095188
1.64300,-66.78053245
1.64350,-82.34544725
1.64400,-99.74152849
1.64450,-115.6116377
1.64500,-118.9687762
1.64550,-108.2869719
1.64600,-93.33244592
1.64650,-80.20908639
1.64700,-66.47533805
1.64750,-50.30003444
1.64800,-38.09225813
1.64850,-35.34550846
1.64900,-39.92342458
1.64950,-48.7740624
1.65000,-60.37144989
1.65050,-71.35844857
1.65100,-76.5467535
1.65150,-73.80000383
1.65200,-63.72858838
1.65250,-47.55328477
1.65300,-27.41045386
1.65350,-8.488400583
1.65400,4.329764541
1.65450,11.95962473
1.65500,20.81026256
1.65550,34.2388165
1.65600,51.32970333
1.65650,71.16733983
1.65700,92.83614277
1.65750,114.1997513
1.65800,130.9854437
1.65850,142.5828312
1.65900,151.7386635
1.65950,160.5893013
1.66000,165.4724118
1.66050,161.1996901
1.66100,148.0763306
1.66150,133.1218046
1.66200,121.2192227
1.66250,112.3685849
1.66300,101.3815862
1.66350,86.73225462
1.66400,69.64136779
1.66450,51.94009214
1.66500,33.62842768
1.66550,13.48559677
1.66600,-6.657234137
1.66650,-27.71564827
1.66700,-49.38445121
1.66750,-68.6116989
1.66800,-78.68311435
1.66850,-75.93636468
1.66900,-63.42339397
1.66950,-46.63770155
1.67000,-29.85200912
1.67050,-15.50787196
1.67100,-6.352039729
1.67150,-2.689706836
1.67200,-2.994901244
1.67250,-5.131262098
1.67300,-7.57281736
1.67350,-4.82606769
1.67400,7.07651421
1.67450,25.38817867
1.67500,39.12192702
1.67550,41.56348228
1.67600,34.5440109
1.67650,25.69337308
1.67700,19.28429052
1.67750,13.48559677
1.67800,4.634958948
1.67850,-8.183206175
1.67900,-21.61176011
1.67950,-27.10525945
1.68000,-20.69617689
1.68050,-6.962428544
1.68100,8.907680656
1.68150,29.35570597
1.68200,53.77125859
1.68250,76.35564476
1.68300,96.49847567
1.68350,128.2386941
1.68400,181.9529098
1.68450,240.8554305
1.68500,277.7839538
1.68550,286.9397861
1.68600,279.6151203
1.68650,255.1995677
1.68700,199.0437967
1.68750,118.1672786
1.68800,46.1413984
1.68850,2.498598094
1.68900,-29.24162031
1.68950,-69.52728212
1.69000,-106.7609999
1.69050,-119.579165
1.69100,-115.0012489
1.69150,-118.6635818
1.69200,-137.585635
1.69250,-152.8453554
1.69300,-154.9817163
1.69350,-153.1505498
1.69400,-154.6765219
1.69450,-153.1505498
1.69500,-146.4362729
1.69550,-143.6895232
1.69600,-144.9103008
1.69650,-133.9233021
1.69700,-104.3194446
1.69750,-73.49480942
1.69800,-57.31950582
1.69850,-41.14420221
1.69900,2.498598094
1.69950,72.99850627
1.70000,138.0049151
1.70050,174.628244
1.70100,189.2775756
1.70150,195.3814638
1.70200,191.7191309
1.70250,175.5438273
1.70300,156.9269684
1.70350,147.1607473
1.70400,137.6997207
1.70450,110.8426128
1.70500,61.40111878
1.70550,1.277820464
1.70600,-57.92989463
1.70650,-110.7285272
1.70700,-153.4557442
1.70750,-182.449213
1.70800,-199.5400998
1.70850,-204.1180159
1.70900,-189.1634899
1.70950,-152.8453554
1.71000,-111.6441104
1.71050,-87.22855777
1.71100,-82.34544725
1.71150,-80.81947521
1.71200,-72.5792262
1.71250,-61.28703312
1.71300,-50.91042325
1.71350,-36.8714805
1.71400,-21.0013713
1.71450,-12.45592788
1.71500,-13.37151111
1.71550,-15.50787196
1.71600,-16.42345518
1.71650,-24.66370419
1.71700,-39.00784135
1.71750,-40.8390078
1.71800,-15.81306637
1.71850,22.641429
1.71900,51.02450892
1.71950,58.95956352
1.72000,52.85567537
1.72050,40.03751024
1.72100,23.55701223
1.72150,9.823263879
1.72200,4.329764541
1.72250,3.10898691
1.72300,1.583014871
1.72350,5.550542171
1.72400,23.55701223
1.72450,47.66737043
1.72500,59.56995233
1.72550,52.24528655
1.72600,35.15439972
1.72650,17.14792966
1.72700,-5.131262098
1.72750,-34.42992524
1.72800,-61.59222752
1.72850,-77.46233672
1.72900,-84.78700251
1.72950,-91.80647389
1.73000,-96.99477882
1.73050,-95.16361237
1.73100,-87.22855777
1.73150,-79.59869758
1.73200,-72.27403179
1.73250,-60.6766443
1.73300,-44.50134069
1.73350,-25.57928741
1.73400,0.3622372405
1.73450,37.90114939
1.73500,76.66083917
1.73550,101.3815862
1.73600,112.6737793
1.73650,127.0179164
1.73700,147.1607473
1.73750,153.5698299
1.73800,131.5958326
1.73850,94.66730922
1.73900,62.92709082
1.73950,33.93362209
1.74000,-5.436456506
1.74050,-47.85847918
1.74100,-70.44286535
1.74150,-66.78053245
1.74200,-53.96236733
1.74250,-46.33250714
1.74300,-39.92342458
1.74350,-31.07278675
1.74400,-26.49487064
1.74450,-31.68317557
1.74500,-40.53381339
1.74550,-46.63770155
1.74600,-51.82600648
1.74650,-56.09872818
1.74700,-49.38445121
1.74750,-26.49487064
1.74800,-1.774123613
1.74850,7.686903025
1.74900,5.245347764
1.74950,9.518069472
1.75000,26.91415071
1.75050,48.27775925
1.75100,62.92709082
1.75150,69.9465622
1.75200,70.55695101
1.75250,62.316702
1.75300,44.61542636
1.75350,22.03104019
1.75400,-2.384512429
1.75450,-28.63123149
1.75500,-54.87795055
1.75550,-76.85194791
1.75600,-93.63764033
1.75650,-105.2350278
1.75700,-105.8454166
1.75750,-88.75452981
1.75800,-58.54028345
1.75850,-27.41045386
1.75900,-2.079318021
1.75950,17.45312407
1.76000,32.10245564
1.76050,41.25828787
1.76100,49.80373129
1.76150,63.53747963
1.76200,76.96603357
1.76250,81.54394969
1.76300,81.8491441
1.76350,91.00497633
1.76400,105.9595023
1.76450,106.8750855
1.76500,86.1218658
1.76550,58.65436911
1.76600,35.15439972
1.76650,7.381708618
1.76700,-23.74812097
1.76750,-35.04031405
1.76800,-8.183206175
1.76850,35.76478853
1.76900,59.56995233
1.76950,51.63489773
1.77000,29.96609479
1.77050,7.992097433
1.77100,-17.33903841
1.77150,-43.89095188
1.77200,-58.54028345
1.77250,-57.92989463
1.77300,-53.65717292
1.77350,-54.26756174
1.77400,-54.26756174
1.77450,-49.38445121
1.77500,-47.85847918
1.77550,-56.09872818
1.77600,-67.08572686
1.77650,-69.52728212
1.77700,-65.25456042
1.77750,-60.98183871
1.77800,-50.30003444
1.77850,-16.11826078
1.77900,42.78425991
1.77950,102.2971694
1.78000,130.6802493
1.78050,120.6088339
1.78100,94.0569204
1.78150,74.52447831
1.78200,64.14786845
1.78250,53.77125859
1.78300,44.92062076
1.78350,45.83620399
1.78400,52.55048096
1.78450,50.1089257
1.78500,35.15439972
1.78550,23.55701223
1.78600,23.55701223
1.78650,24.77778986
1.78700,18.97909611
1.78750,16.84273526
1.78800,30.5764836
1.78850,48.88814807
1.78900,52.24528655
1.78950,44.00503754
1.79000,42.1738711
1.79050,48.88814807
1.79100,47.36217603
1.79150,29.96609479
1.79200,10.7388471
1.79250,3.10898691
1.79300,2.193403687
1.79350,-2.689706836
1.79400,-16.42345518
1.79450,-37.78706372
1.79500,-59.45586667
1.79550,-63.72858838
1.79600,-35.65070287
1.79650,13.79079118
1.79700,54.076453
1.79750,68.72578457
1.79800,68.72578457
1.79850,65.67384049
1.79900,53.46606418
1.79950,26.6089563
1.80000,-4.520873283
1.80050,-31.68317557
1.80100,-64.94936601
1.80150,-113.4752768
1.80200,-162.9167709
1.80250,-194.3517949
1.80300,-212.3582649
1.80350,-232.8062902
1.80400,-250.2023715
1.80450,-240.7413448
1.80500,-196.4881557
1.80550,-136.3648574
1.80600,-79.29350317
1.80650,-27.41045386
1.80700,19.89467933
1.80750,55.60242503
1.80800,73.60889509
1.80850,79.10239443
1.80900,80.01797765
1.80950,77.57642239
1.81000,70.2517566
1.81050,58.95956352
1.81100,44.00503754
1.81150,20.50506815
1.81200,-14.89748314
1.81250,-56.09872818
1.81300,-88.4493354
1.81350,-99.13113967
1.81400,-87.53375218
1.81450,-65.25456042
1.81500,-46.63770155
1.81550,-33.51434201
1.81600,-18.55981604
1.81650,-2.994901244
1.81700,-0.8585403903
1.81750,-19.17020485
1.81800,-41.14420221
1.81850,-40.53381339
1.81900,-9.709178214
1.81950,36.98556616
1.82000,81.23875528
1.82050,112.3685849
1.82100,125.18675
1.82150,125.18675
1.82200,127.6283053
1.82250,146.2451641
1.82300,173.102272
1.82350,187.1412148
1.82400,177.9853825
1.82450,153.5698299
1.82500,123.660778
1.82550,91.61536514
1.82600,59.56995233
1.82650,29.96609479
1.82700,-0.8585403903
1.82750,-41.44939661
1.82800,-88.4493354
1.82850,-125.9882475
1.82900,-143.9947176
1.82950,-145.2154952
1.83000,-137.2804406
1.83050,-126.9038308
1.83100,-120.4947482
1.83150,-121.7155258
1.83200,-121.105137
1.83250,-106.150611
1.83300,-80.20908639
1.83350,-59.45586667
1.83400,-52.43639529
1.83450,-48.16367358
1.83500,-38.70264695
1.83550,-30.15720353
1.83600,-31.98836998
1.83650,-40.22861898
1.83700,-45.41692391
1.83750,-44.50134069
1.83800,-39.61823017
1.83850,-29.54681471
1.83900,-15.20267755
1.83950,-0.8585403903
1.84000,13.18040236
1.84050,32.71284446
1.84100,56.82320267
1.84150,71.77772864
1.84200,69.64136779
1.84250,59.56995233
1.84300,55.60242503
1.84350,56.82320267
1.84400,55.90761944
1.84450,52.85567537
1.84500,50.71931451
1.84550,44.61542636
1.84600,27.52453953
1.84650,9.212875064
1.84700,8.297291841
1.84750,26.6089563
1.84800,47.66737043
1.84850,59.26475793
1.84900,65.9790349
1.84950,76.96603357
1.85000,91.61536514
1.85050,104.1283359
1.85100,113.5893625
1.85150,120.3036395
1.85200,124.5763612
1.85250,128.2386941
1.85300,134.0373878
1.85350,137.3945263
1.85400,129.7646661
1.85450,105.6543079
1.85500,65.36864608
1.85550,7.992097433
1.85600,-63.42339397
1.85650,-134.533691
1.85700,-185.501157
1.85750,-212.0530705
1.85800,-224.5660412
1.85850,-226.7024021
1.85900,-205.643988
1.85950,-153.4557442
1.86000,-84.4818081
1.86050,-25.27409301
1.86100,9.212875064
1.86150,18.97909611
1.86200,9.518069472
1.86250,-6.962428544
1.86300,-17.033844
1.86350,-16.72864959
1.86400,-14.89748314
1.86450,-15.81306637
1.86500,-13.37151111
1.86550,-3.300095652
1.86600,4.024570133
1.86650,0.05704283282
1.86700,-8.183206175
1.86750,-10.62476144
1.86800,-10.01437262
1.86850,-13.67670551
1.86900,-15.81306637
1.86950,-5.741650914
1.87000,11.04404151
1.87050,21.42065137
1.87100,22.641429
1.87150,24.16740104
1.87200,28.13492834
1.87250,27.52453953
1.87300,24.47259545
1.87350,28.74531716
1.87400,41.86867669
1.87450,54.3816474
1.87500,62.92709082
1.87550,73.9140895
1.87600,86.73225462
1.87650,91.00497633
1.87700,82.1543385
1.87750,68.72578457
1.87800,58.3491747
1.87850,47.05698162
1.87900,29.05051156
1.87950,6.771319802
1.88000,-13.67670551
1.88050,-32.59875879
1.88100,-48.7740624
1.88150,-59.45586667
1.88200,-66.78053245
1.88250,-76.85194791
1.88300,-86.92336336
1.88350,-85.09219692
1.88400,-68.30650449
1.88450,-53.04678411
1.88500,-54.57275615
1.88550,-64.6441716
1.88600,-61.59222752
1.88650,-40.53381339
1.88700,-17.33903841
1.88750,-6.352039729
1.88800,-3.60529006
1.88850,0.05704283282
1.88900,7.381708618
1.88950,15.01156881
1.89000,20.19987374
1.89050,22.03104019
1.89100,20.19987374
1.89150,17.14792966
1.89200,17.75831848
1.89250,22.94662341
1.89300,29.66090038
1.89350,38.81673261
1.89400,54.99203622
1.89450,77.27122798
1.89500,92.22575396
1.89550,88.86861547
1.89600,73.30370068
1.89650,59.26475793
1.89700,50.1089257
1.89750,36.68037176
1.89800,13.18040236
1.89850,-16.11826078
1.89900,-44.50134069
1.89950,-64.94936601
1.90000,-71.96883738
1.90050,-63.11819956
1.90100,-46.33250714
1.90150,-32.29356438
1.90200,-24.05331538
1.90250,-15.50787196
1.90300,-2.384512429
1.90350,12.26481914
1.90400,25.99856749
1.90450,36.68037176
1.90500,41.56348228
1.90550,36.06998294
1.90600,20.19987374
1.90650,3.10898691
1.90700,-3.60529006
1.90750,5.245347764
1.90800,23.55701223
1.90850,37.90114939
1.90900,38.2063438
1.90950,27.82973393
1.91000,14.7063744
1.91050,0.05704283282
1.91100,-20.08578808
1.91150,-42.67017425
1.91200,-53.96236733
1.91250,-47.24809036
1.91300,-30.15720353
1.91350,-13.67670551
1.91400,-2.079318021
1.91450,2.803792502
1.91500,-3.60529006
1.91550,-22.22214893
1.91600,-41.44939661
1.91650,-51.82600648
1.91700,-55.79353378
1.91750,-59.45586667
1.91800,-61.28703312
1.91850,-58.54028345
1.91900,-54.87795055
1.91950,-53.96236733
1.92000,-48.46886799
1.92050,-32.59875879
1.92100,-10.92995584
1.92150,6.466125395
1.92200,20.50506815
1.92250,36.37517735
1.92300,52.55048096
1.92350,63.23228523
1.92400,64.45306286
1.92450,58.0439803
1.92500,44.00503754
1.92550,23.86220663
1.92600,2.193403687
1.92650,-15.50787196
1.92700,-29.85200912
1.92750,-39.61823017
1.92800,-45.11172951
1.92850,-50.30003444
1.92900,-60.6766443
1.92950,-69.52728212
1.93000,-60.06625548
1.93050,-28.63123149
1.93100,5.245347764
1.93150,25.08298426
1.93200,35.45959413
1.93250,51.94009214
1.93300,74.82967272
1.93350,92.22575396
1.93400,99.24522534
1.93450,101.991975
1.93500,109.9270296
1.93550,124.5763612
1.93600,143.4984145
1.93650,157.5373572
1.93700,154.1802187
1.93750,130.0698605
1.93800,95.88808685
1.93850,65.67384049
1.93900,44.61542636
1.93950,30.88167801
1.94000,23.25181782
1.94050,15.01156881
1.94100,-4.520873283
1.94150,-39.61823017
1.94200,-78.07272554
1.94250,-106.4558055
1.94300,-127.819414
1.94350,-151.014189
1.94400,-172.0726031
1.94450,-180.3128521
1.94500,-177.8712969
1.94550,-176.9557136
1.94600,-180.6180465
1.94650,-176.0401304
1.94700,-154.0661331
1.94750,-119.8843594
1.94800,-83.87141929
1.94850,-51.82600648
1.94900,-26.18967623
1.94950,-13.98189992
1.95000,-18.86501044
1.95050,-31.37798116
1.95100,-34.12473083
1.95150,-18.55981604
1.95200,5.855736579
1.95250,27.52453953
1.95300,41.86867669
1.95350,53.46606418
1.95400,63.53747963
1.95450,66.89461812
1.95500,62.316702
1.95550,59.56995233
1.95600,67.19981253
1.95650,82.45953291
1.95700,94.97250363
1.95750,99.55041974
1.95800,98.63483652
1.95850,94.36211481
1.95900,89.7841987
1.95950,90.69978192
1.96000,99.24522534
1.96050,103.8231415
1.96100,90.69978192
1.96150,65.36864608
1.96200,48.58295366
1.96250,47.66737043
1.96300,45.83620399
1.96350,27.82973393
1.96400,-0.2481515749
1.96450,-23.44292656
1.96500,-40.53381339
1.96550,-58.23508904
1.96600,-73.49480942
1.96650,-75.93636468
1.96700,-66.78053245
1.96750,-60.37144989
1.96800,-64.94936601
1.96850,-75.63117028
1.96900,-84.78700251
1.96950,-87.53375218
1.97000,-82.04025284
1.97050,-68.30650449
1.97100,-55.48833937
1.97150,-53.96236733
1.97200,-62.81300515
1.97250,-70.74805975
1.97300,-68.30650449
1.97350,-56.09872818
1.97400,-37.78706372
1.97450,-18.55981604
1.97500,-3.60529006
1.97550,5.245347764
1.97600,13.79079118
1.97650,26.91415071
1.97700,40.03751024
1.97750,44.92062076
1.97800,44.00503754
1.97850,42.78425991
1.97900,38.5115382
1.97950,23.55701223
1.98000,3.719375725
1.98050,-4.520873283
1.98100,1.277820464
1.98150,8.907680656
1.98200,8.602486248
1.98250,4.634958948
1.98300,2.803792502
1.98350,3.414181318
1.98400,10.12845829
1.98450,29.96609479
1.98500,61.09592437
1.98550,90.0893931
1.98600,109.6218352
1.98650,123.9659724
1.98700,136.7841375
1.98750,146.2451641
1.98800,150.2126914
1.98850,148.381525
1.98900,136.4789431
1.98950,109.6218352
1.99000,73.9140895
1.99050,40.03751024
1.99100,7.381708618
1.99150,-29.85200912
1.99200,-63.72858838
1.99250,-74.41039265
1.99300,-61.28703312
1.99350,-49.07925681
1.99400,-59.76106108
1.99450,-89.67011303
1.99500,-116.5272209
1.99550,-122.9363035
1.99600,-103.7090558
1.99650,-68.91689331
1.99700,-42.05978543
1.99750,-40.8390078
1.99800,-56.40392259
1.99850,-62.50781075
1.99900,-45.72211832
1.99950,-18.86501044
2.00000,2.193403687
2.00050,17.45312407
2.00100,30.2712892
2.00150,34.84920531
2.00200,23.86220663
2.00250,3.719375725
2.00300,-14.28709433
2.00350,-30.15720353
2.00400,-49.38445121
2.00450,-68.6116989
2.00500,-76.24155909
2.00550,-69.83247653
2.00600,-59.45586667
2.00650,-50.91042325
2.00700,-35.34550846
2.00750,-2.384512429
2.00800,39.12192702
2.00850,71.16733983
2.00900,88.86861547
2.00950,105.0439191
2.01000,130.3750549
2.01050,157.8425516
2.01100,172.7970776
2.01150,170.0503279
2.01200,156.9269684
2.01250,142.8880256
2.01300,131.2906381
2.01350,119.0828618
2.01400,98.32964211
2.01450,62.92709082
2.01500,19.58948493
2.01550,-15.20267755
2.01600,-36.26109168
2.01650,-57.31950582
2.01700,-92.72205711
2.01750,-136.059663
2.01800,-167.1894926
2.01850,-177.8712969
2.01900,-176.0401304
2.01950,-169.020659
2.02000,-154.3713275
2.02050,-129.6505804
2.02100,-102.1830837
2.02150,-82.04025284
2.02200,-73.49480942
2.02250,-76.5467535
2.02300,-85.70258573
2.02350,-90.58569625
2.02400,-82.34544725
2.02450,-64.33897719
2.02500,-46.63770155
2.02550,-33.20914761
2.02600,-18.25462163
2.02650,3.719375725
2.02700,28.44012275
2.02750,47.36217603
2.02800,55.90761944
2.02850,53.77125859
2.02900,44.61542636
2.02950,38.81673261
2.03000,47.97256484
2.03050,69.33617338
2.03100,86.1218658
2.03150,86.73225462
2.03200,76.35564476
2.03250,65.9790349
2.03300,58.0439803
2.03350,50.4141201
2.03400,47.66737043
2.03450,52.24528655
2.03500,54.99203622
2.03550,43.39464873
2.03600,22.3362346
2.03650,4.634958948
2.03700,-7.57281736
2.03750,-24.9688986
2.03800,-44.19614628
2.03850,-50.30003444
2.03900,-39.31303576
2.03950,-27.41045386
2.04000,-25.88448182
2.04050,-25.57928741
2.04100,-15.81306637
2.04150,-5.436456506
2.04200,-6.046845321
2.04250,-10.92995584
2.04300,-6.046845321
2.04350,6.160930987
2.04400,15.01156881
2.04450,19.89467933
2.04500,29.05051156
2.04550,36.06998294
2.04600,25.69337308
2.04650,-1.163734798
2.04700,-25.57928741
2.04750,-34.12473083
2.04800,-35.65070287
2.04850,-43.58575747
2.04900,-55.48833937
2.04950,-59.76106108
2.05000,-52.7415897
2.05050,-43.58575747
2.05100,-40.8390078
2.05150,-41.14420221
2.05200,-33.51434201
2.05250,-11.54034466
2.05300,14.7063744
2.05350,30.5764836
2.05400,33.32323327
2.05450,35.15439972
2.05500,45.83620399
2.05550,59.56995233
2.05600,65.36864608
2.05650,62.316702
2.05700,58.95956352
2.05750,62.92709082
2.05800,79.40758884
2.05850,109.3166408
2.05900,142.2776368
2.05950,159.6737181
2.06000,150.5178858
2.06050,121.8296115
2.06100,84.59589377
2.06150,39.73231583
2.06200,-14.28709433
2.06250,-70.13767094
2.06300,-115.3064433
2.06350,-143.9947176
2.06400,-159.254438
2.06450,-162.9167709
2.06500,-158.3388548
2.06550,-151.014189
2.06600,-144.6051064
2.06650,-140.9427735
2.06700,-139.4168015
2.06750,-139.4168015
2.06800,-134.2284966
2.06850,-114.6960545
2.06900,-82.34544725
2.06950,-48.7740624
2.07000,-23.13773215
2.07050,-3.910484467
2.07100,13.79079118
2.07150,31.18687242
2.07200,49.49853688
2.07250,69.64136779
2.07300,86.1218658
2.07350,91.00497633
2.07400,88.86861547
2.07450,94.66730922
2.07500,109.9270296
2.07550,117.2516954
2.07600,106.8750855
2.07650,89.47900429
2.07700,80.32317206
2.07750,78.49200561
2.07800,75.13486713
2.07850,68.72578457
2.07900,63.84267404
2.07950,56.82320267
2.08000,37.90114939
2.08050,5.550542171
2.08100,-28.02084268
2.08150,-48.16367358
2.08200,-46.33250714
2.08250,-28.9364259
2.08300,-12.76112229
2.08350,-7.57281736
2.08400,-6.657234137
2.08450,1.888209279
2.08500,15.01156881
2.08550,19.58948493
2.08600,11.65443033
2.08650,0.3622372405
2.08700,-8.183206175
2.08750,-13.67670551
2.08800,-11.23515025
2.08850,4.634958948
2.08900,26.91415071
2.08950,39.73231583
2.09000,40.03751024
2.09050,35.15439972
2.09100,27.82973393
2.09150,17.75831848
2.09200,19.28429052
2.09250,49.19334247
2.09300,92.83614277
2.09350,110.8426128
2.09400,85.20628258
2.09450,36.68037176
2.09500,-7.267622952
2.09550,-43.58575747
2.09600,-75.93636468
2.09650,-100.3519173
2.09700,-114.0856656
2.09750,-124.7674699
2.09800,-135.1440798
2.09850,-135.4492742
2.09900,-122.9363035
2.09950,-107.3713887
2.10000,-89.97530744
2.10050,-57.92989463
2.10100,-8.183206175
2.10150,40.34270465
2.10200,76.96603357
2.10250,112.3685849
2.10300,154.1802187
2.10350,186.2256315
2.10400,192.6347141
2.10450,176.7646049
2.10500,145.9399697
2.10550,98.32964211
2.10600,43.08945432
2.10650,8.297291841
2.10700,3.414181318
2.10750,-0.8585403903
2.10800,-35.95589728
2.10850,-86.61816895
2.10900,-118.0531929
2.10950,-125.6830531
2.11000,-131.4817469
2.11050,-138.8064127
2.11100,-129.6505804
2.11150,-101.5726949
2.11200,-76.24155909
2.11250,-66.47533805
2.11300,-61.59222752
2.11350,-51.82600648
2.11400,-40.53381339
2.11450,-31.98836998
2.11500,-20.39098248
2.11550,-8.488400583
2.11600,-10.01437262
2.11650,-29.85200912
2.11700,-52.43639529
2.11750,-61.89742193
2.11800,-60.6766443
2.11850,-59.15067226
2.11900,-58.84547785
2.11950,-56.09872818
2.12000,-49.68964562
2.12050,-40.22861898
2.12100,-22.83253774
2.12150,5.245347764
2.12200,34.5440109
2.12250,50.1089257
2.12300,52.55048096
2.12350,54.3816474
2.12400,58.65436911
2.12450,56.21281385
2.12500,44.00503754
2.12550,37.59595498
2.12600,48.58295366
2.12650,61.09592437
2.12700,51.02450892
2.12750,20.19987374
2.12800,-5.131262098
2.12850,-16.72864959
2.12900,-34.73511965
2.12950,-71.96883738
2.13000,-106.7609999
2.13050,-113.7804712
2.13100,-100.0467229
2.13150,-89.67011303
2.13200,-80.5142808
2.13250,-48.46886799
2.13300,7.992097433
2.13350,62.0115076
2.13400,96.80367007
2.13450,125.18675
2.13500,156.3165796
2.13550,172.1866888
2.13600,154.1802187
2.13650,119.0828618
2.13700,98.32964211
2.13750,98.94003093
2.13800,97.41405889
2.13850,78.1868112
2.13900,49.49853688
2.13950,24.16740104
2.14000,0.9726260559
2.14050,-23.44292656
2.14100,-35.65070287
2.14150,-17.033844
2.14200,24.16740104
2.14250,53.16086977
2.14300,44.31023195
2.14350,12.87520796
2.14400,-7.57281736
2.14450,-11.54034466
2.14500,-19.78059367
2.14550,-44.8065351
2.14600,-67.69611568
2.14650,-65.25456042
2.14700,-39.61823017
2.14750,-10.62476144
2.14800,7.686903025
2.14850,16.23234644
2.14900,17.14792966
2.14950,15.01156881
2.15000,15.62195763
2.15050,22.3362346
2.15100,29.66090038
2.15150,32.71284446
2.15200,33.01803886
2.15250,32.71284446
2.15300,27.52453953
2.15350,14.09598559
2.15400,-2.079318021
2.15450,-17.033844
2.15500,-31.07278675
2.15550,-37.78706372
2.15600,-23.13773215
2.15650,16.84273526
2.15700,62.92709082
2.15750,89.47900429
2.15800,91.00497633
2.15850,77.8816168
2.15900,57.73878589
2.15950,34.84920531
2.16000,19.89467933
2.16050,17.75831848
2.16100,15.62195763
2.16150,-2.079318021
2.16200,-31.37798116
2.16250,-53.96236733
2.16300,-63.72858838
2.16350,-71.05325416
2.16400,-77.46233672
2.16450,-71.66364298
2.16500,-52.13120088
2.16550,-33.81953642
2.16600,-29.54681471
2.16650,-32.59875879
2.16700,-31.07278675
2.16750,-25.88448182
2.16800,-24.9688986
2.16850,-28.02084268
2.16900,-28.02084268
2.16950,-23.13773215
2.17000,-23.13773215
2.17050,-35.65070287
2.17100,-56.40392259
2.17150,-73.18961502
2.17200,-79.29350317
2.17250,-80.81947521
2.17300,-85.70258573
2.17350,-86.00778014
2.17400,-61.89742193
2.17450,-8.183206175
2.17500,51.32970333
2.17550,87.95303225
2.17600,101.0763918
2.17650,112.0633905
2.17700,131.2906381
2.17750,142.8880256
2.17800,129.7646661
2.17850,97.41405889
2.17900,60.79072997
2.17950,22.03104019
2.18000,-25.27409301
2.18050,-75.93636468
2.18100,-111.338916
2.18150,-120.4947482
2.18200,-111.6441104
2.18250,-96.07919559
2.18300,-75.93636468
2.18350,-49.68964562
2.18400,-25.57928741
2.18450,-17.33903841
2.18500,-28.32603708
2.18550,-46.94289595
2.18600,-60.98183871
2.18650,-64.03378278
2.18700,-55.48833937
2.18750,-34.42992524
2.18800,-5.741650914
2.18850,17.45312407
2.18900,27.21934512
2.18950,26.91415071
2.19000,25.38817867
2.19050,24.47259545
2.19100,20.81026256
2.19150,17.45312407
2.19200,20.19987374
2.19250,26.91415071
2.19300,27.82973393
2.19350,19.58948493
2.19400,11.34923592
2.19450,8.907680656
2.19500,7.992097433
2.19550,0.6674316482
2.19600,-12.76112229
2.19650,-26.80006504
2.19700,-35.04031405
2.19750,-33.81953642
2.19800,-25.57928741
2.19850,-18.55981604
2.19900,-19.78059367
2.19950,-26.49487064
2.20000,-28.9364259
2.20050,-24.05331538
2.20100,-17.33903841
2.20150,-13.67670551
2.20200,-12.15073348
2.20250,-11.23515025
2.20300,-10.31956703
2.20350,-6.962428544
2.20400,-2.384512429
2.20450,-6.657234137
2.20500,-23.13773215
2.20550,-36.56628609
2.20600,-24.66370419
2.20650,10.43365269
2.20700,44.61542636
2.20750,65.06345167
2.20800,83.68031054
2.20850,111.7581961
2.20900,138.6153039
2.20950,146.5503585
2.21000,134.6477766
2.21050,113.5893625
2.21100,88.86861547
2.21150,58.65436911
2.21200,22.94662341
2.21250,-14.59228874
2.21300,-46.63770155
2.21350,-62.81300515
2.21400,-61.89742193
2.21450,-61.59222752
2.21500,-78.98830876
2.21550,-100.9623061
2.21600,-92.11166829
2.21650,-44.8065351
2.21700,3.719375725
2.21750,16.84273526
2.21800,1.277820464
2.21850,-7.878011767
2.21900,-1.163734798
2.21950,2.193403687
2.22000,-7.878011767
2.22050,-20.39098248
2.22100,-23.44292656
2.22150,-24.35850978
2.22200,-31.07278675
2.22250,-38.39745254
2.22300,-41.75459102
2.22350,-49.68964562
2.22400,-69.22208772
2.22450,-88.4493354
2.22500,-89.05972422
2.22550,-70.44286535
2.22600,-46.02731273
2.22650,-18.55981604
2.22700,19.28429052
2.22750,65.9790349
2.22800,103.2127526
2.22850,119.6932507
2.22900,120.3036395
2.22950,112.9789737
2.23000,95.88808685
2.23050,67.19981253
2.23100,33.93362209
2.23150,4.940153356
2.23200,-18.55981604
2.23250,-36.56628609
2.23300,-41.44939661
2.23350,-27.71564827
2.23400,0.6674316482
2.23450,32.71284446
2.23500,56.21281385
2.23550,62.0115076
2.23600,49.49853688
2.23650,30.88167801
2.23700,17.45312407
2.23750,7.07651421
2.23800,-9.098789398
2.23850,-27.41045386
2.23900,-32.9039532
2.23950,-24.05331538
2.24000,-13.67670551
2.24050,-11.23515025
2.24100,-13.98189992
2.24150,-22.83253774
2.24200,-38.70264695
2.24250,-46.63770155
2.24300,-29.24162031
2.24350,2.498598094
2.24400,15.31676322
2.24450,0.9726260559
2.24500,-8.793594991
2.24550,7.381708618
2.24600,27.21934512
2.24650,18.36870729
2.24700,-10.92995584
2.24750,-33.20914761
2.24800,-43.89095188
2.24850,-59.45586667
2.24900,-78.98830876
2.24950,-81.73505843
2.25000,-62.81300515
2.25050,-43.28056306
2.25100,-36.56628609
2.25150,-34.73511965
2.25200,-25.27409301
2.25250,-9.403983806
2.25300,9.518069472
2.25350,35.15439972
2.25400,66.58942371
2.25450,94.0569204
2.25500,110.8426128
2.25550,121.8296115
2.25600,132.2062214
2.25650,135.5633599
2.25700,124.8815556
2.25750,105.3491135
2.25800,86.73225462
2.25850,66.58942371
2.25900,37.29076057
2.25950,3.414181318
2.26000,-22.22214893
2.26050,-40.8390078
2.26100,-65.25456042
2.26150,-98.52075085
2.26200,-120.7999426
2.26250,-110.1181383
2.26300,-66.17014364
2.26350,-7.878011767
2.26400,46.75178721
2.26450,91.00497633
2.26500,120.6088339
2.26550,131.2906381
2.26600,123.660778
2.26650,106.8750855
2.26700,88.86861547
2.26750,66.58942371
2.26800,28.44012275
2.26850,-32.59875879
2.26900,-106.4558055
2.26950,-170.2414367
2.27000,-205.3387936
2.27050,-211.7478761
2.27100,-203.5076271
2.27150,-194.0466005
2.27200,-185.1959626
2.27250,-170.8518255
2.27300,-149.4882169
2.27350,-127.5142196
2.27400,-110.4233328
2.27450,-93.63764033
2.27500,-67.39092127
2.27550,-32.29356438
2.27600,0.3622372405
2.27650,22.3362346
2.27700,39.42712143
2.27750,59.87514674
2.27800,83.98550495
2.27850,109.3166408
2.27900,138.6153039
2.27950,168.5243559
2.28000,179.816549
2.28050,156.3165796
2.28100,113.8945569
2.28150,86.73225462
2.28200,85.8166714
2.28250,90.39458751
2.28300,83.98550495
2.28350,74.82967272
2.28400,71.47253423
2.28450,63.23228523
2.28500,41.56348228
2.28550,22.641429
2.28600,25.38817867
2.28650,40.34270465
2.28700,41.25828787
2.28750,28.44012275
2.28800,25.08298426
2.28850,36.37517735
2.28900,34.5440109
2.28950,3.10898691
2.29000,-35.95589728
2.29050,-51.82600648
2.29100,-44.8065351
2.29150,-37.48186931
2.29200,-35.34550846
2.29250,-21.61176011
2.29300,10.7388471
2.29350,45.22581517
2.29400,60.48553556
2.29450,54.3816474
2.29500,37.90114939
2.29550,19.58948493
2.29600,2.803792502
2.29650,-10.31956703
2.29700,-25.27409301
2.29750,-47.55328477
2.29800,-74.71558705
2.29850,-93.33244592
2.29900,-96.99477882
2.29950,-92.72205711
2.30000,-86.92336336
2.30050,-70.13767094
2.30100,-29.54681471
2.30150,29.05051156
2.30200,83.06992173
2.30250,112.9789737
2.30300,113.8945569
2.30350,91.92055955
2.30400,57.12839707
2.30450,19.89467933
2.30500,-14.59228874
2.30550,-45.72211832
2.30600,-71.35844857
2.30650,-84.4818081
2.30700,-80.5142808
2.30750,-65.86494923
2.30800,-51.21561766
2.30850,-39.00784135
2.30900,-23.13773215
2.30950,0.6674316482
2.31000,28.44012275
2.31050,48.27775925
2.31100,49.80373129
2.31150,34.5440109
2.31200,15.92715203
2.31250,7.686903025
2.31300,12.87520796
2.31350,21.72584578
2.31400,25.38817867
2.31450,19.58948493
2.31500,2.498598094
2.31550,-26.80006504
2.31600,-60.6766443
2.31650,-81.73505843
2.31700,-81.12466962
2.31750,-69.52728212
2.31800,-61.59222752
2.31850,-58.84547785
2.31900,-51.82600648
2.31950,-38.09225813
2.32000,-25.27409301
2.32050,-17.94942722
2.32100,-14.28709433
2.32150,-12.76112229
2.32200,-14.89748314
2.32250,-17.94942722
2.32300,-11.23515025
2.32350,7.686903025
2.32400,27.52453953
2.32450,32.10245564
2.32500,21.72584578
2.32550,11.34923592
2.32600,10.43365269
2.32650,15.92715203
2.32700,21.72584578
2.32750,30.88167801
2.32800,47.97256484
2.32850,69.9465622
2.32900,88.86861547
2.32950,101.991975
2.33000,113.2841681
2.33050,123.3555835
2.33100,121.5244171
2.33150,96.19328126
2.33200,52.55048096
2.33250,14.7063744
2.33300,0.6674316482
2.33350,4.024570133
2.33400,2.498598094
2.33450,-10.92995584
2.33500,-21.30656571
2.33550,-15.81306637
2.33600,-6.046845321
2.33650,-13.67670551
2.33700,-39.31303576
2.33750,-59.76106108
2.33800,-60.37144989
2.33850,-50.60522885
2.33900,-44.8065351
2.33950,-41.14420221
2.34000,-28.63123149
2.34050,-4.215678875
2.34100,23.25181782
2.34150,44.31023195
2.34200,51.02450892
2.34250,42.1738711
2.34300,26.6089563
2.34350,14.09598559
2.34400,1.277820464
2.34450,-26.80006504
2.34500,-70.44286535
2.34550,-100.9623061
2.34600,-94.24802915
2.34650,-64.33897719
2.34700,-45.11172951
2.34750,-46.33250714
2.34800,-47.24809036
2.34850,-30.76759235
2.34900,-7.878011767
2.34950,4.329764541
2.35000,0.9726260559
2.35050,-15.81306637
2.35100,-45.11172951
2.35150,-73.49480942
2.35200,-75.32597587
2.35250,-40.8390078
2.35300,5.245347764
2.35350,25.99856749
2.35400,7.686903025
2.35450,-34.73511965
2.35500,-82.95583606
2.35550,-125.0726643
2.35600,-152.540161
2.35650,-157.4232715
2.35700,-139.1116071
2.35750,-104.3194446
2.35800,-59.15067226
2.35850,-7.57281736
2.35900,41.25828787
2.35950,76.35564476
2.36000,90.39458751
2.36050,84.59589377
2.36100,65.9790349
2.36150,43.39464873
2.36200,28.74531716
2.36250,33.62842768
2.36300,59.87514674
2.36350,96.80367007
2.36400,131.2906381
2.36450,155.7061908
2.36500,164.862023
2.36550,153.5698299
2.36600,117.2516954
2.36650,61.40111878
2.36700,4.024570133
2.36750,-32.9039532
2.36800,-42.36497984
2.36850,-36.8714805
2.36900,-35.04031405
2.36950,-40.22861898
2.37000,-39.31303576
2.37050,-23.74812097
2.37100,-2.079318021
2.37150,8.297291841
2.37200,4.329764541
2.37250,-0.2481515749
2.37300,8.602486248
2.37350,32.71284446
2.37400,56.82320267
2.37450,62.92709082
2.37500,50.1089257
2.37550,31.49206683
2.37600,17.75831848
2.37650,2.193403687
2.37700,-22.52734334
2.37750,-46.33250714
2.37800,-50.60522885
2.37850,-35.95589728
2.37900,-17.94942722
2.37950,-0.2481515749
2.38000,29.05051156
2.38050,70.55695101
2.38100,101.6867806
2.38150,104.4335303
2.38200,84.90108817
2.38250,56.51800826
2.38300,22.641429
2.38350,-16.42345518
2.38400,-51.82600648
2.38450,-76.85194791
2.38500,-96.99477882
2.38550,-118.9687762
2.38600,-137.8908294
2.38650,-149.4882169
2.38700,-157.4232715
2.38750,-161.3907988
2.38800,-149.4882169
2.38850,-112.5596936
2.38900,-60.37144989
2.38950,-11.23515025
2.39000,25.99856749
2.39050,48.88814807
2.39100,54.3816474
2.39150,46.1413984
2.39200,38.81673261
2.39250,43.39464873
2.39300,55.29723063
2.39350,65.67384049
2.39400,74.52447831
2.39450,79.71278324
2.39500,69.64136779
2.39550,37.29076057
2.39600,-3.60529006
2.39650,-30.46239794
2.39700,-35.95589728
2.39750,-31.37798116
2.39800,-33.81953642
2.39850,-47.85847918
2.39900,-60.6766443
2.39950,-47.85847918
2.40000,0.3622372405
2.40050,62.62189641
2.40100,100.466003
2.40150,102.6023638
2.40200,94.66730922
2.40250,105.6543079
2.40300,136.1737487
2.40350,166.9983838
2.40400,180.7321322
2.40450,172.7970776
2.40500,144.4139977
2.40550,104.4335303
2.40600,69.03097897
2.40650,46.4465928
2.40700,31.49206683
2.40750,13.18040236
2.40800,-8.793594991
2.40850,-29.24162031
2.40900,-42.05978543
2.40950,-46.63770155
2.41000,-47.85847918
2.41050,-53.04678411
2.41100,-64.03378278
2.41150,-72.88442061
2.41200,-73.49480942
2.41250,-74.41039265
2.41300,-89.67011303
2.41350,-116.5272209
2.41400,-132.7025245
2.41450,-124.7674699
2.41500,-101.2675005
2.41550,-78.37791995
2.41600,-60.06625548
2.41650,-44.8065351
2.41700,-37.17667491
2.41750,-39.61823017
2.41800,-43.28056306
2.41850,-33.81953642
2.41900,-10.62476144
2.41950,13.48559677
2.42000,27.21934512
2.42050,30.5764836
2.42100,28.74531716
2.42150,23.86220663
2.42200,12.57001355
2.42250,-2.689706836
2.42300,-14.89748314
2.42350,-17.033844
2.42400,-15.50787196
2.42450,-22.52734334
2.42500,-41.44939661
2.42550,-60.6766443
2.42600,-66.47533805
2.42650,-57.62470022
2.42700,-43.89095188
2.42750,-34.42992524
2.42800,-32.9039532
2.42850,-38.70264695
2.42900,-49.07925681
2.42950,-59.15067226
2.43000,-69.52728212
2.43050,-84.17661369
2.43100,-103.7090558
2.43150,-118.6635818
2.43200,-121.7155258
2.43250,-117.7479985
2.43300,-112.864888
2.43350,-99.13113967
2.43400,-64.6441716
2.43450,-15.81306637
2.43500,21.72584578
2.43550,35.15439972
2.43600,42.4790655
2.43650,67.81020134
2.43700,105.9595023
2.43750,123.0503891
2.43800,98.63483652
2.43850,49.19334247
2.43900,5.245347764
2.43950,-25.57928741
2.44000,-55.18314496
2.44050,-81.42986402
2.44100,-80.81947521
2.44150,-39.61823017
2.44200,22.3362346
2.44250,74.82967272
2.44300,102.2971694
2.44350,106.8750855
2.44400,95.88808685
2.44450,80.62836647
2.44500,77.8816168
2.44550,91.92055955
2.44600,108.4010576
2.44650,117.2516954
2.44700,130.3750549
2.44750,158.4529404
2.44800,182.5632986
2.44850,173.4074664
2.44900,133.426999
2.44950,94.36211481
2.45000,75.74525594
2.45050,70.55695101
2.45100,69.64136779
2.45150,75.44006154
2.45200,86.1218658
2.45250,90.0893931
2.45300,86.42706021
2.45350,87.64783784
2.45400,96.49847567
2.45450,96.80367007
2.45500,76.35564476
2.45550,42.78425991
2.45600,10.43365269
2.45650,-18.86501044
2.45700,-47.85847918
2.45750,-71.96883738
2.45800,-85.09219692
2.45850,-87.53375218
2.45900,-86.31297455
2.45950,-85.09219692
2.46000,-84.78700251
2.46050,-86.92336336
2.46100,-92.4168627
2.46150,-99.74152849
2.46200,-104.0142502
2.46250,-95.46880678
2.46300,-64.94936601
2.46350,-15.50787196
2.46400,29.66090038
2.46450,49.49853688
2.46500,42.4790655
2.46550,25.08298426
2.46600,7.686903025
2.46650,-11.84553907
2.46700,-38.09225813
2.46750,-61.89742193
2.46800,-71.66364298
2.46850,-66.17014364
2.46900,-57.31950582
2.46950,-56.40392259
2.47000,-62.50781075
2.47050,-63.72858838
2.47100,-52.7415897
2.47150,-38.39745254
2.47200,-37.17667491
2.47250,-53.04678411
2.47300,-74.71558705
2.47350,-87.53375218
2.47400,-83.56622488
2.47450,-61.28703312
2.47500,-24.35850978
2.47550,15.62195763
2.47600,46.1413984
2.47650,65.36864608
2.47700,81.23875528
2.47750,98.94003093
2.47800,112.6737793
2.47850,116.6413066
2.47900,112.6737793
2.47950,105.3491135
2.48000,94.36211481
2.48050,78.49200561
2.48100,58.0439803
2.48150,31.18687242
2.48200,-5.741650914
2.48250,-47.85847918
2.48300,-81.73505843
2.48350,-103.4038614
2.48400,-123.5466923
2.48450,-149.1830225
2.48500,-165.0531317
2.48550,-150.7089946
2.48600,-107.3713887
2.48650,-59.45586667
2.48700,-28.02084268
2.48750,-14.59228874
2.48800,-9.403983806
2.48850,-2.994901244
2.48900,6.771319802
2.48950,18.36870729
2.49000,26.3037619
2.49050,30.88167801
2.49100,39.73231583
2.49150,56.21281385
2.49200,70.86214542
2.49250,76.05045035
2.49300,77.57642239
2.49350,83.68031054
2.49400,85.8166714
2.49450,69.03097897
2.49500,38.5115382
2.49550,19.58948493
2.49600,24.47259545
2.49650,38.81673261
2.49700,46.1413984
2.49750,49.49853688
2.49800,59.87514674
2.49850,72.99850627
2.49900,76.35564476
2.49950,67.50500693
2.50000,54.076453
2.50050,38.2063438
2.50100,14.09598559
2.50150,-20.39098248
2.50200,-61.28703312
2.50250,-102.1830837
2.50300,-139.1116071
2.50350,-163.5271597
2.50400,-165.968715
2.50450,-140.0271903
2.50500,-86.31297455
2.50550,-16.11826078
2.50600,47.66737043
2.50650,81.8491441
2.50700,79.40758884
2.50750,57.73878589
2.50800,35.45959413
2.50850,15.31676322
2.50900,-6.046845321
2.50950,-20.08578808
2.51000,-13.98189992
2.51050,4.024570133
2.51100,10.12845829
2.51150,-5.741650914
2.51200,-27.71564827
2.51250,-33.51434201
2.51300,-23.13773215
2.51350,-11.54034466
2.51400,-7.57281736
2.51450,-4.82606769
2.51500,8.602486248
2.51550,37.29076057
2.51600,72.38811746
2.51650,98.02444771
2.51700,106.5698911
2.51750,108.4010576
2.51800,114.5049457
2.51850,118.1672786
2.51900,102.9075582
2.51950,68.72578457
2.52000,36.06998294
2.52050,17.45312407
2.52100,3.414181318
2.52150,-21.30656571
2.52200,-54.87795055
2.52250,-83.56622488
2.52300,-103.7090558
2.52350,-129.345386
2.52400,-169.3258534
2.52450,-210.5270985
2.52500,-225.7868189
2.52550,-202.2868495
2.52600,-157.4232715
2.52650,-116.8324153
2.52700,-78.68311435
2.52750,-18.55981604
2.52800,64.45306286
2.52850,130.6802493
2.52900,144.7191921
2.52950,117.5568898
2.53000,84.90108817
2.53050,58.0439803
2.53100,24.77778986
2.53150,-14.89748314
2.53200,-50.60522885
2.53250,-86.00778014
2.53300,-128.4298028
2.53350,-154.9817163
2.53400,-132.3973301
2.53450,-70.13767094
2.53500,-17.33903841
2.53550,2.498598094
2.53600,14.09598559
2.53650,36.68037176
2.53700,53.46606418
2.53750,45.83620399
2.53800,26.3037619
2.53850,10.43365269
2.53900,-6.046845321
2.53950,-26.18967623
2.54000,-31.37798116
2.54050,-15.81306637
2.54100,-6.657234137
2.54150,-27.41045386
2.54200,-54.26756174
2.54250,-47.24809036
2.54300,0.3622372405
2.54350,60.79072997
2.54400,107.4854743
2.54450,125.7971388
2.54500,110.8426128
2.54550,79.40758884
2.54600,72.69331187
2.54650,110.5374184
2.54700,154.7906075
2.54750,151.7386635
2.54800,99.24522534
2.54850,41.86867669
2.54900,6.160930987
2.54950,-19.78059367
2.55000,-42.36497984
2.55050,-45.11172951
2.55100,-22.52734334
2.55150,2.498598094
2.55200,20.50506815
2.55250,50.4141201
2.55300,100.1608086
2.55350,135.8685543
2.55400,124.2711668
2.55450,81.8491441
2.55500,52.55048096
2.55550,50.71931451
2.55600,55.60242503
2.55650,51.94009214
2.55700,44.00503754
2.55750,33.62842768
2.55800,10.43365269
2.55850,-25.88448182
2.55900,-61.59222752
2.55950,-86.00778014
2.56000,-95.77400119
2.56050,-84.78700251
2.56100,-49.99484003
2.56150,-11.23515025
2.56200,-2.079318021
2.56250,-31.07278675
2.56300,-67.08572686
2.56350,-78.68311435
2.56400,-68.00131008
2.56450,-59.76106108
2.56500,-64.03378278
2.56550,-68.30650449
2.56600,-60.98183871
2.56650,-46.02731273
2.56700,-32.9039532
2.56750,-21.61176011
2.56800,-4.215678875
2.56850,21.42065137
2.56900,46.75178721
2.56950,56.82320267
2.57000,47.97256484
2.57050,32.71284446
2.57100,29.66090038
2.57150,46.1413984
2.57200,74.52447831
2.57250,100.466003
2.57300,111.1478072
2.57350,101.3815862
2.57400,75.44006154
2.57450,44.92062076
2.57500,21.72584578
2.57550,11.04404151
2.57600,8.907680656
2.57650,6.160930987
2.57700,-3.300095652
2.57750,-16.72864959
2.57800,-24.66370419
2.57850,-21.61176011
2.57900,-12.15073348
2.57950,-6.962428544
2.58000,-12.45592788
2.58050,-24.05331538
2.58100,-34.42992524
2.58150,-39.00784135
2.58200,-37.48186931
2.58250,-29.24162031
2.58300,-13.67670551
2.58350,4.634958948
2.58400,16.53754085
2.58450,12.87520796
2.58500,-1.774123613
2.58550,-15.50787196
2.58600,-20.39098248
2.58650,-18.86501044
2.58700,-17.033844
2.58750,-14.59228874
2.58800,-12.45592788
2.58850,-14.59228874
2.58900,-24.35850978
2.58950,-38.70264695
2.59000,-49.99484003
2.59050,-50.60522885
2.59100,-39.61823017
2.59150,-23.13773215
2.59200,-12.45592788
2.59250,-10.01437262
2.59300,-0.2481515749
2.59350,35.76478853
2.59400,93.44653159
2.59450,144.7191921
2.59500,166.9983838
2.59550,163.336051
2.59600,145.6347753
2.59650,119.6932507
2.59700,86.42706021
2.59750,46.75178721
2.59800,1.277820464
2.59850,-46.63770155
2.59900,-83.26103047
2.59950,-94.24802915
2.60000,-91.50127948
2.60050,-104.9298334
2.60100,-142.1635512
2.60150,-174.8193528
2.60200,-180.3128521
2.60250,-169.020659
2.60300,-158.0336604
2.60350,-142.77394
2.60400,-114.3908601
2.60450,-88.75452981
2.60500,-87.22855777
2.60550,-100.6571117
2.60600,-104.624639
2.60650,-97.91036204
2.60700,-93.02725152
2.60750,-84.78700251
2.60800,-58.54028345
2.60850,-32.59875879
2.60900,-47.24809036
2.60950,-103.4038614
2.61000,-143.6895232
2.61050,-117.7479985
2.61100,-37.78706372
2.61150,45.83620399
2.61200,100.466003
2.61250,120.3036395
2.61300,108.0958632
2.61350,74.52447831
2.61400,41.25828787
2.61450,22.641429
2.61500,10.43365269
2.61550,-2.689706836
2.61600,-1.163734798
2.61650,29.96609479
2.61700,67.19981253
2.61750,70.55695101
2.61800,38.2063438
2.61850,13.18040236
2.61900,26.3037619
2.61950,63.23228523
2.62000,93.14133718
2.62050,108.0958632
2.62100,118.7776674
2.62150,127.0179164
2.62200,126.4075276
2.62250,112.3685849
2.62300,86.1218658
2.62350,54.3816474
2.62400,26.3037619
2.62450,9.823263879
2.62500,4.329764541
2.62550,3.10898691
2.62600,3.719375725
2.62650,4.634958948
2.62700,-2.689706836
2.62750,-27.41045386
2.62800,-63.11819956
2.62850,-89.36491862
2.62900,-93.33244592
2.62950,-81.73505843
2.63000,-69.83247653
2.63050,-69.22208772
2.63100,-83.26103047
2.63150,-107.6765831
2.63200,-127.5142196
2.63250,-124.4622755
2.63300,-92.72205711
2.63350,-43.89095188
2.63400,0.6674316482
2.63450,23.86220663
2.63500,25.38817867
2.63550,21.72584578
2.63600,29.66090038
2.63650,47.36217603
2.63700,55.60242503
2.63750,45.83620399
2.63800,31.18687242
2.63850,28.44012275
2.63900,34.84920531
2.63950,38.5115382
2.64000,39.42712143
2.64050,46.75178721
2.64100,61.70631319
2.64150,74.52447831
2.64200,73.30370068
2.64250,54.99203622
2.64300,26.6089563
2.64350,4.940153356
2.64400,4.634958948
2.64450,22.94662341
2.64500,40.03751024
2.64550,44.61542636
2.64600,47.05698162
2.64650,60.79072997
2.64700,77.8816168
2.64750,75.74525594
2.64800,47.36217603
2.64850,12.57001355
2.64900,-5.131262098
2.64950,-3.300095652
2.65000,4.329764541
2.65050,10.12845829
2.65100,15.92715203
2.65150,23.55701223
2.65200,29.05051156
2.65250,30.2712892
2.65300,29.05051156
2.65350,25.69337308
2.65400,16.53754085
2.65450,6.160930987
2.65500,8.907680656
2.65550,25.38817867
2.65600,32.71284446
2.65650,9.823263879
2.65700,-35.65070287
2.65750,-80.5142808
2.65800,-116.2220265
2.65850,-147.3518561
2.65900,-168.7154646
2.65950,-164.1375485
2.66000,-136.9752462
2.66050,-114.6960545
2.66100,-117.4428041
2.66150,-136.059663
2.66200,-144.299912
2.66250,-127.819414
2.66300,-91.80647389
2.66350,-54.87795055
2.66400,-33.51434201
2.66450,-27.71564827
2.66500,-23.74812097
2.66550,-10.92995584
2.66600,7.992097433
2.66650,29.66090038
2.66700,55.60242503
2.66750,82.76472732
2.66800,97.10886448
2.66850,93.44653159
2.66900,87.03744903
2.66950,87.03744903
2.67000,78.1868112
2.67050,53.16086977
2.67100,46.75178721
2.67150,104.7387247
2.67200,214.9139059
2.67250,305.8618393
2.67300,319.2903933
2.67350,268.0177328
2.67400,205.1476848
2.67450,162.7256621
2.67500,133.426999
2.67550,103.517947
2.67600,73.9140895
2.67650,51.32970333
2.67700,29.05051156
2.67750,-1.774123613
2.67800,-34.73511965
2.67850,-53.35197851
2.67900,-57.92989463
2.67950,-71.05325416
2.68000,-104.9298334
2.68050,-139.1116071
2.68100,-144.6051064
2.68150,-123.5466923
2.68200,-104.624639
2.68250,-105.8454166
2.68300,-115.3064433
2.68350,-114.3908601
2.68400,-101.2675005
2.68450,-88.14414099
2.68500,-85.09219692
2.68550,-92.4168627
2.68600,-99.74152849
2.68650,-93.94283474
2.68700,-70.44286535
2.68750,-45.11172951
2.68800,-37.78706372
2.68850,-48.7740624
2.68900,-57.31950582
2.68950,-46.94289595
2.69000,-23.74812097
2.69050,-4.520873283
2.69100,6.771319802
2.69150,23.25181782
2.69200,51.63489773
2.69250,80.93356087
2.69300,90.0893931
2.69350,71.16733983
2.69400,41.56348228
2.69450,27.21934512
2.69500,35.45959413
2.69550,48.88814807
2.69600,49.80373129
2.69650,41.56348228
2.69700,40.03751024
2.69750,48.27775925
2.69800,51.63489773
2.69850,41.86867669
2.69900,29.35570597
2.69950,29.66090038
2.70000,38.5115382
2.70050,35.76478853
2.70100,10.7388471
2.70150,-29.24162031
2.70200,-72.88442061
2.70250,-113.7804712
2.70300,-143.9947176
2.70350,-152.540161
2.70400,-134.533691
2.70450,-101.2675005
2.70500,-68.00131008
2.70550,-40.8390078
2.70600,-20.08578808
2.70650,-9.098789398
2.70700,-10.92995584
2.70750,-17.64423281
2.70800,-18.25462163
2.70850,-9.098789398
2.70900,5.550542171
2.70950,23.86220663
2.71000,39.12192702
2.71050,40.03751024
2.71100,22.641429
2.71150,1.888209279
2.71200,-7.57281736
2.71250,-18.25462163
2.71300,-54.57275615
2.71350,-109.5077495
2.71400,-141.8583567
2.71450,-124.7674699
2.71500,-81.12466962
2.71550,-53.35197851
2.71600,-53.35197851
2.71650,-56.40392259
2.71700,-39.00784135
2.71750,-2.384512429
2.71800,36.98556616
2.71850,67.50500693
2.71900,83.98550495
2.71950,90.39458751
2.72000,94.66730922
2.72050,101.3815862
2.72100,105.3491135
2.72150,98.02444771
2.72200,79.71278324
2.72250,62.0115076
2.72300,54.3816474
2.72350,61.09592437
2.72400,84.90108817
2.72450,117.8620842
2.72500,133.1218046
2.72550,107.7906688
2.72600,59.26475793
2.72650,34.5440109
2.72700,54.99203622
2.72750,86.73225462
2.72800,85.8166714
2.72850,51.94009214
2.72900,21.11545696
2.72950,12.26481914
2.73000,14.40117999
2.73050,11.95962473
2.73100,3.719375725
2.73150,-11.23515025
2.73200,-37.78706372
2.73250,-71.05325416
2.73300,-96.68958441
2.73350,-106.150611
2.73400,-99.74152849
2.73450,-78.68311435
2.73500,-49.68964562
2.73550,-31.07278675
2.73600,-36.8714805
2.73650,-54.26756174
2.73700,-61.28703312
2.73750,-60.6766443
2.73800,-62.20261634
2.73850,-49.99484003
2.73900,0.3622372405
2.73950,67.50500693
2.74000,97.10886448
2.74050,76.35564476
2.74100,49.80373129
2.74150,48.27775925
2.74200,47.66737043
2.74250,25.69337308
2.74300,12.26481914
2.74350,40.95309346
2.74400,85.8166714
2.74450,93.751726
2.74500,57.43359148
2.74550,16.23234644
2.74600,-5.436456506
2.74650,-19.47539926
2.74700,-35.65070287
2.74750,-45.72211832
2.74800,-43.58575747
2.74850,-38.39745254
2.74900,-36.8714805
2.74950,-31.98836998
2.75000,-15.20267755
2.75050,9.823263879
2.75100,31.18687242
2.75150,36.37517735
2.75200,25.08298426
2.75250,11.04404151
2.75300,6.160930987
2.75350,7.992097433
2.75400,6.771319802
2.75450,3.10898691
2.75500,8.907680656
2.75550,25.38817867
2.75600,37.29076057
2.75650,35.45959413
2.75700,26.3037619
2.75750,21.72584578
2.75800,24.77778986
2.75850,33.93362209
2.75900,47.66737043
2.75950,62.316702
2.76000,74.2192839
2.76050,81.54394969
2.76100,81.23875528
2.76150,67.50500693
2.76200,43.39464873
2.76250,19.58948493
2.76300,1.277820464
2.76350,-21.30656571
2.76400,-53.65717292
2.76450,-83.26103047
2.76500,-98.21555645
2.76550,-106.7609999
2.76600,-119.579165
2.76650,-125.6830531
2.76700,-109.8129439
2.76750,-77.76753113
2.76800,-48.46886799
2.76850,-23.74812097
2.76900,7.992097433
2.76950,45.22581517
2.77000,70.55695101
2.77050,72.99850627
2.77100,58.95956352
2.77150,43.08945432
2.77200,38.5115382
2.77250,49.80373129
2.77300,63.23228523
2.77350,54.076453
2.77400,15.62195763
2.77450,-29.54681471
2.77500,-57.31950582
2.77550,-67.39092127
2.77600,-74.41039265
2.77650,-81.42986402
2.77700,-76.5467535
2.77750,-50.91042325
2.77800,-8.488400583
2.77850,29.96609479
2.77900,38.81673261
2.77950,10.7388471
2.78000,-24.66370419
2.78050,-29.54681471
2.78100,-8.793594991
2.78150,-5.741650914
2.78200,-39.31303576
2.78250,-75.93636468
2.78300,-79.59869758
2.78350,-56.709117
2.78400,-31.98836998
2.78450,-4.82606769
2.78500,34.2388165
2.78550,69.33617338
2.78600,73.9140895
2.78650,50.4141201
2.78700,29.05051156
2.78750,23.86220663
2.78800,21.42065137
2.78850,11.65443033
2.78900,-0.2481515749
2.78950,-12.45592788
2.79000,-32.29356438
2.79050,-60.98183871
2.79100,-83.87141929
2.79150,-90.28050185
2.79200,-87.22855777
2.79250,-84.17661369
2.79300,-77.15714232
2.79350,-60.06625548
2.79400,-42.97536865
2.79450,-40.8390078
2.79500,-46.33250714
2.79550,-28.9364259
2.79600,25.08298426
2.79650,89.7841987
2.79700,123.0503891
2.79750,116.3361122
2.79800,100.1608086
2.79850,103.517947
2.79900,119.3880562
2.79950,117.8620842
2.80000,83.37511614
2.80050,26.6089563
2.80100,-29.85200912
2.80150,-71.96883738
2.80200,-96.07919559
2.80250,-106.7609999
2.80300,-110.1181383
2.80350,-108.5921663
2.80400,-101.5726949
2.80450,-86.61816895
2.80500,-65.86494923
2.80550,-47.55328477
2.80600,-44.50134069
2.80650,-59.76106108
2.80700,-78.68311435
2.80750,-76.85194791
2.80800,-49.38445121
2.80850,-17.033844
2.80900,-2.079318021
2.80950,-1.774123613
2.81000,0.3622372405
2.81050,11.04404151
2.81100,23.55701223
2.81150,33.32323327
2.81200,40.95309346
2.81250,44.31023195
2.81300,40.03751024
2.81350,36.06998294
2.81400,44.00503754
2.81450,60.18034115
2.81500,67.19981253
2.81550,56.82320267
2.81600,42.4790655
2.81650,43.39464873
2.81700,59.87514674
2.81750,72.69331187
2.81800,63.23228523
2.81850,36.68037176
2.81900,14.09598559
2.81950,5.855736579
2.82000,-6.046845321
2.82050,-45.72211832
2.82100,-106.7609999
2.82150,-156.5076883
2.82200,-176.0401304
2.82250,-176.3453248
2.82300,-167.1894926
2.82350,-132.0921357
2.82400,-54.26756174
2.82450,43.39464873
2.82500,115.4205289
2.82550,141.0568592
2.82600,141.0568592
2.82650,143.8036089
2.82700,153.8750243
2.82750,157.8425516
2.82800,145.6347753
2.82850,116.6413066
2.82900,79.10239443
2.82950,52.24528655
2.83000,57.12839707
2.83050,91.92055955
2.83100,123.9659724
2.83150,121.2192227
2.83200,86.1218658
2.83250,48.58295366
2.83300,24.77778986
2.83350,5.245347764
2.83400,-18.25462163
2.83450,-32.29356438
2.83500,-23.44292656
2.83550,-5.131262098
2.83600,0.05704283282
2.83650,-10.62476144
2.83700,-25.27409301
2.83750,-42.67017425
2.83800,-69.83247653
2.83850,-93.63764033
2.83900,-83.56622488
2.83950,-32.29356438
2.84000,27.82973393
2.84050,62.92709082
2.84100,71.47253423
2.84150,73.9140895
2.84200,76.66083917
2.84250,64.75825727
2.84300,24.47259545
2.84350,-37.48186931
2.84400,-94.85841796
2.84450,-116.5272209
2.84500,-93.63764033
2.84550,-52.43639529
2.84600,-31.98836998
2.84650,-47.85847918
2.84700,-79.29350317
2.84750,-95.46880678
2.84800,-86.31297455
2.84850,-61.59222752
2.84900,-36.8714805
2.84950,-20.69617689
2.85000,-12.45592788
2.85050,-6.046845321
2.85100,1.888209279
2.85150,7.992097433
2.85200,6.771319802
2.85250,-0.5533459826
2.85300,-10.31956703
2.85350,-21.91695452
2.85400,-35.04031405
2.85450,-42.36497984
2.85500,-38.09225813
2.85550,-28.02084268
2.85600,-20.39098248
2.85650,-13.37151111
2.85700,0.3622372405
2.85750,17.45312407
2.85800,26.3037619
2.85850,24.16740104
2.85900,19.28429052
2.85950,16.53754085
2.86000,13.79079118
2.86050,8.602486248
2.86100,1.277820464
2.86150,-10.62476144
2.86200,-29.54681471
2.86250,-45.72211832
2.86300,-47.55328477
2.86350,-34.12473083
2.86400,-17.33903841
2.86450,-5.436456506
2.86500,1.888209279
2.86550,8.297291841
2.86600,14.7063744
2.86650,23.55701223
2.86700,38.2063438
2.86750,55.29723063
2.86800,64.45306286
2.86850,60.48553556
2.86900,48.27775925
2.86950,34.84920531
2.87000,22.3362346
2.87050,11.04404151
2.87100,3.719375725
2.87150,1.583014871
2.87200,-2.079318021
2.87250,-13.37151111
2.87300,-27.41045386
2.87350,-31.68317557
2.87400,-24.35850978
2.87450,-15.20267755
2.87500,-9.098789398
2.87550,3.10898691
2.87600,25.38817867
2.87650,39.42712143
2.87700,25.99856749
2.87750,-6.657234137
2.87800,-32.59875879
2.87850,-41.44939661
2.87900,-48.46886799
2.87950,-66.47533805
2.88000,-87.22855777
2.88050,-99.74152849
2.88100,-105.5402222
2.88150,-108.2869719
2.88200,-101.5726949
2.88250,-81.73505843
2.88300,-57.62470022
2.88350,-42.67017425
2.88400,-40.53381339
2.88450,-45.72211832
2.88500,-49.99484003
2.88550,-41.75459102
2.88600,-14.28709433
2.88650,23.25181782
2.88700,47.66737043
2.88750,45.22581517
2.88800,27.82973393
2.88850,16.53754085
2.88900,18.6739017
2.88950,28.44012275
2.89000,40.34270465
2.89050,55.29723063
2.89100,72.69331187
2.89150,87.64783784
2.89200,95.27769804
2.89250,93.44653159
2.89300,83.68031054
2.89350,67.81020134
2.89400,47.05698162
2.89450,23.25181782
2.89500,4.634958948
2.89550,-0.2481515749
2.89600,5.550542171
2.89650,7.381708618
2.89700,-4.520873283
2.89750,-21.30656571
2.89800,-31.98836998
2.89850,-44.8065351
2.89900,-73.18961502
2.89950,-106.150611
2.90000,-112.5596936
2.90050,-80.20908639
2.90100,-31.37798116
2.90150,4.940153356
2.90200,20.81026256
2.90250,21.72584578
2.90300,8.907680656
2.90350,-17.94942722
2.90400,-49.99484003
2.90450,-71.35844857
2.90500,-72.88442061
2.90550,-59.45586667
2.90600,-41.44939661
2.90650,-25.57928741
2.90700,-10.62476144
2.90750,8.602486248
2.90800,32.71284446
2.90850,54.076453
2.90900,70.55695101
2.90950,91.31017074
2.91000,123.9659724
2.91050,156.9269684
2.91100,169.1347447
2.91150,153.2646355
2.91200,123.660778
2.91250,97.10886448
2.91300,79.71278324
2.91350,69.9465622
2.91400,63.84267404
2.91450,53.46606418
2.91500,31.18687242
2.91550,0.05704283282
2.91600,-31.07278675
2.91650,-56.709117
2.91700,-75.02078146
2.91750,-78.07272554
2.91800,-58.23508904
2.91850,-26.49487064
2.91900,-11.54034466
2.91950,-31.37798116
2.92000,-74.41039265
2.92050,-116.5272209
2.92100,-146.4362729
2.92150,-163.8323541
2.92200,-165.0531317
2.92250,-139.1116071
2.92300,-82.65064165
2.92350,-11.54034466
2.92400,46.75178721
2.92450,73.30370068
2.92500,72.38811746
2.92550,67.19981253
2.92600,77.8816168
2.92650,103.2127526
2.92700,128.2386941
2.92750,141.9724424
2.92800,140.141276
2.92850,116.0309178
2.92900,66.2842293
