type,name,time_units,begin_time,frequency,count,units
signal_3d,"Noraxon MyoMotion-Segments-Upper arm RT-Acceleration","s",0.0000,200,4916,"mG"

time,x,y,z
0.0000,6.593348165,1.394377844,-5.940617519
0.0050,-5.093987039,-0.4425176739,-6.174392468
0.0100,-2.809256172,2.728357575,-5.15494111
0.0150,3.449608835,1.968830843,-3.472656045
0.0200,4.717923354,-4.760115871,-3.183472733
0.0250,5.394781376,-0.6947260097,1.441620484
0.0300,9.44896862,1.519279409,-4.261174194
0.0350,8.309768228,4.172794332,-3.252629314
0.0400,0.5600243451,-0.7370509398,-4.313903928
0.0450,7.241523842,-6.094389143,-0.4434055825
0.0500,5.536969549,-0.3029359913,-2.696331437
0.0550,6.669817743,3.568872386,-3.837798671
0.0600,1.235981835,-0.1658168028,0.120570215
0.0650,0.7474657197,-7.705742695,0.892432305
0.0700,17.04530075,0.7383794385,-10.61288449
0.0750,-0.07511915207,-7.430922125,0.1339074985
0.0800,6.682011413,-12.97058351,-3.165834327
0.0850,2.239224896,2.342142368,-8.750101691
0.0900,10.17226729,-7.955722834,-1.933832581
0.0950,-1.352147688,-7.7494798,3.002243015
0.1000,2.654547055,-0.5384335699,-9.027070654
0.1050,4.356637729,-0.3156393131,-2.89932306
0.1100,-0.1903783649,-4.329649003,-4.840739006
0.1150,3.229104229,6.817781832,-7.326703962
0.1200,-6.589004951,-1.861928292,-0.2841919804
0.1250,15.33876338,-2.239440821,-6.772307042
0.1300,9.061731228,-5.680011768,-2.037901062
0.1350,9.354563943,-3.463550736,-3.521246451
0.1400,2.793747498,2.469073263,-2.826071386
0.1450,4.217271037,-5.440359488,-1.093000049
0.1500,12.98477132,-1.670079848,-0.4322123256
0.1550,-0.3639162165,2.670793853,0.193878211
0.1600,0.461277719,-3.963887208,4.201075974
0.1650,6.827761143,-3.311104477,8.493177002
0.1700,7.23363482,-5.408909883,6.728285054
0.1750,6.192456269,-7.454593275,5.40513313
0.1800,15.85280469,4.574474738,-11.09603124
0.1850,-7.539222027,-4.906429917,3.511299383
0.1900,-1.852739785,-1.617382341,-5.147757065
0.1950,10.77331417,-0.01272811386,-10.81458997
0.2000,-0.9759591552,3.529167178,-15.3263164
0.2050,1.635747303,0.3105453991,-12.17017878
0.2100,3.074860822,0.9026964952,-16.10650518
0.2150,-3.465473504,-2.918196742,-2.105197696
0.2200,-2.758418174,-3.102773407,1.769610895
0.2250,-7.478249753,-8.584526798,10.53922863
0.2300,-10.83000301,1.616810504,6.955998534
0.2350,8.358662323,-1.754794728,12.324683
0.2400,-5.178573831,-3.111679741,18.30722889
0.2450,-2.557818736,14.2164824,8.16526583
0.2500,-0.5059279893,4.53707351,14.7087761
0.2550,-21.48092065,13.77915615,7.080790764
0.2600,4.386974339,1.864972044,8.544028293
0.2650,4.929831403,2.212519508,5.340446188
0.2700,-1.756950009,-3.2482743,3.975214676
0.2750,11.50275409,0.5146717927,-1.307277846
0.2800,6.276028231,-3.434846829,-0.46129049
0.2850,4.229567346,-7.831242461,6.023118085
0.2900,3.86666633,-12.16948148,3.403727669
0.2950,13.25314827,-1.123554197,-2.953720128
0.3000,13.06904006,-11.29242159,3.781412416
0.3050,14.42647074,-9.739259999,-4.24484616
0.3100,9.421566685,-12.95966487,-0.3704228806
0.3150,11.71159953,-9.318809937,-2.892688277
0.3200,7.232948948,-3.905436367,-9.476069442
0.3250,10.45227533,-0.4266565106,-3.135469722
0.3300,15.7438118,8.113413118,-15.01020618
0.3350,-2.796660471,-5.559189656,3.07594391
0.3400,4.835859947,-6.442687046,0.2637534227
0.3450,6.630386499,1.037012368,-1.426987823
0.3500,-4.870598561,-1.708467579,-2.2166194
0.3550,3.214843168,-5.339761207,3.401580729
0.3600,16.17688375,-9.645797226,-1.145883232
0.3650,3.569139548,-5.025975537,1.265990438
0.3700,13.26583194,-8.173225208,-1.237479745
0.3750,6.774720914,1.503617467,-2.963761131
0.3800,5.325764371,-2.420721461,-5.269169294
0.3850,16.52808468,-0.2259489302,-7.978799169
0.3900,-0.7183615076,-0.5955076949,-7.460006716
0.3950,-3.623048218,-8.644227178,5.764740456
0.4000,-5.904589753,1.335146248,-3.258854373
0.4050,9.475863158,-4.983712361,1.077573215
0.4100,-1.989193826,-4.177242755,4.530563756
0.4150,10.23244024,0.1522213256,6.250960462
0.4200,10.05948597,-0.843096076,6.76093823
0.4250,8.766242959,3.024274031,6.319145311
0.4300,12.44142872,-5.911249465,7.399624521
0.4350,9.42298023,-4.936564168,8.332154102
0.4400,4.727460982,-4.019128072,1.603094429
0.4450,9.273077902,-6.011855379,5.258649935
0.4500,1.668057485,-8.726231974,5.37677875
0.4550,9.662702437,-2.664495847,7.910862269
0.4600,3.939134553,-4.569114752,2.891812208
0.4650,12.17257684,0.9125321331,2.261707221
0.4700,3.673128662,-0.6661262668,5.723257375
0.4750,7.896284953,8.027708237,0.7932832256
0.4800,-2.025882135,9.229906788,2.786861963
0.4850,4.717104238,6.094609844,5.773552102
0.4900,12.28478937,-0.8385643121,-1.372317807
0.4950,7.275425291,-3.016253976,3.074310661
0.5000,10.70387014,-6.776978272,-3.715765155
0.5050,3.2500163,-7.35714216,0.5075442078
0.5100,18.16397056,-1.376462965,-4.684186277
0.5150,9.348204944,-11.86597492,7.210946815
0.5200,5.775830014,-3.191060148,4.542330148
0.5250,5.516668595,-3.217030362,5.143046477
0.5300,6.863485234,5.324383602,6.639553573
0.5350,-3.270605623,-2.362264966,12.88431299
0.5400,-2.932013329,-0.5160248495,4.224891525
0.5450,5.502055051,0.6908509438,7.370492647
0.5500,-0.5049495811,-0.9883392425,-1.651120305
0.5550,6.918569887,1.942496922,2.407086429
0.5600,2.820431662,-5.979893069,0.7328269351
0.5650,5.534473984,-3.58294996,1.046906145
0.5700,6.143404755,-5.935624663,-3.828351986
0.5750,8.16821857,-4.886132809,5.323310399
0.5800,11.22394239,-15.30140136,10.60142416
0.5850,26.10282331,-7.972506068,6.000467299
0.5900,21.7786307,-11.31961247,13.76867678
0.5950,36.39203825,-13.33482152,18.49854593
0.6000,35.34052656,-9.889031976,16.93726948
0.6050,36.74331296,-5.429282777,23.32937303
0.6100,35.6547056,-6.365296587,21.03871142
0.6150,16.59454733,-7.062366002,26.16748583
0.6200,14.33342213,-2.034742583,16.34858723
0.6250,10.88086879,-0.5231517544,14.38702468
0.6300,7.091328797,1.272762233,9.95500356
0.6350,8.407535865,-1.918871977,9.377980295
0.6400,5.136129008,0.5790090045,3.319707598
0.6450,11.68158912,1.869434894,0.3890221493
0.6500,9.282975508,-1.709256308,2.456426516
0.6550,10.07406182,-5.661841287,2.56660575
0.6600,7.382909157,-9.268840642,3.697359913
0.6650,23.06951348,-8.042745759,7.235750206
0.6700,39.07163965,-13.85423742,6.828117215
0.6750,31.45497537,-11.62877849,21.42379334
0.6800,44.48336744,-18.21780066,30.48150262
0.6850,52.25244261,-3.771356428,28.73832255
0.6900,41.97419431,0.4639195372,28.86541938
0.6950,30.22147156,10.3422133,35.25051128
0.7000,22.27832347,26.56276088,23.43433751
0.7050,10.47656304,34.71207199,16.4508462
0.7100,-6.388485706,36.26045502,7.096627661
0.7150,-22.45965068,29.96637161,2.732694804
0.7200,-27.37326393,23.81578611,-4.381210495
0.7250,-25.92414775,13.43095875,-18.69188265
0.7300,-11.62803735,-2.034370659,-22.69638423
0.7350,-27.02022739,-10.39866098,-26.80827956
0.7400,-31.54292294,-19.39732004,-33.59953775
0.7450,-20.426821,-25.9462011,-34.17150701
0.7500,-17.94293462,-27.23274315,-42.12993912
0.7550,-22.18408683,-34.810112,-38.67572172
0.7600,-15.23369704,-28.16201259,-49.57460736
0.7650,-11.89448997,-20.21710202,-47.13202624
0.7700,-8.905419811,-20.91866678,-38.87457769
0.7750,-3.349083467,-13.99418816,-29.45683787
0.7800,10.65428521,-4.507310757,-28.99964395
0.7850,7.383031046,2.788037214,-17.99298845
0.7900,-3.533294245,3.598887285,-9.129918205
0.7950,12.01910488,1.765455793,1.595895313
0.8000,5.354090472,-3.057148115,2.908002761
0.8050,-2.278376861,0.6348687797,6.901474079
0.8100,2.984029129,1.653260136,6.993774469
0.8150,13.51723438,-0.9682288194,12.49314095
0.8200,24.90862238,-0.00235769394,12.31698728
0.8250,18.55052356,5.659390786,3.212573773
0.8300,31.73722797,5.319538169,1.393609786
0.8350,29.52446957,7.656119611,3.718139013
0.8400,14.42934266,10.50298216,-7.495836186
0.8450,16.07200077,0.5521006331,-3.783553656
0.8500,19.14153689,-5.012264353,2.74470372
0.8550,-1.703844048,-6.014937668,8.342169137
0.8600,10.06589866,5.325445712,-0.265505825
0.8650,0.621195835,-5.67582847,4.098986443
0.8700,-17.28297419,-4.854795741,9.373873382
0.8750,4.666151742,3.467130376,5.279463661
0.8800,-10.63806445,-2.50524006,14.14405399
0.8850,-4.814033616,-0.5370381415,16.0599687
0.8900,5.95070763,-1.151446208,11.35847414
0.8950,-6.574594369,3.536932783,12.67073683
0.9000,-11.79900688,-2.882435347,19.01503729
0.9050,1.08208282,1.701508234,11.31946191
0.9100,-9.026387576,-2.495736827,14.63987741
0.9150,-8.36126454,7.582698679,4.159693432
0.9200,-3.067075806,-0.2279066911,13.01666153
0.9250,-6.138375706,7.890484614,12.16001851
0.9300,6.005929816,1.539957271,8.332910329
0.9350,1.285078503,10.24123553,11.07781483
0.9400,8.459668121,8.133073529,5.338057786
0.9450,1.739454928,-13.41650673,20.24580353
0.9500,4.827522804,-4.401773532,14.56090316
0.9550,-3.103979698,-3.932853752,10.78944759
0.9600,-14.91257423,-2.955073215,8.670485867
0.9650,-9.806743476,2.868738186,3.817318407
0.9700,-10.67553801,1.505031602,-4.112416177
0.9750,-22.25409155,11.31403924,-4.424957536
0.9800,-24.19568798,10.75514471,-7.950757291
0.9850,-19.14066794,3.276436363,-3.100991959
0.9900,-18.97417335,5.492373118,-1.005267484
0.9950,-27.55628474,13.90159035,-1.215064424
1.0000,-2.04231853,13.86771887,2.495142322
1.0050,-28.37855063,12.57650415,3.618458109
1.0100,-9.489244711,15.73742911,-3.873993878
1.0150,-11.70073902,12.43643418,-1.300339039
1.0200,-18.14357715,8.278263156,-3.597430604
1.0250,-19.93510292,10.52436922,-6.050343723
1.0300,-14.03387627,1.653152507,-1.937899713
1.0350,-18.6635669,9.955282922,-0.7631930422
1.0400,-7.426426953,8.803994965,-4.573123786
1.0450,-18.38803578,7.337296395,-2.385001165
1.0500,-12.63447996,2.159446426,4.418257117
1.0550,-14.22025787,3.330885902,12.12132646
1.0600,-4.045630209,3.930024427,10.15142688
1.0650,1.785010346,-6.323721023,7.587367256
1.0700,21.05267691,-8.499949397,2.31986202
1.0750,6.014461277,-5.488707615,4.862279695
1.0800,3.409663179,-6.90854914,2.02273025
1.0850,1.694409939,-16.06946832,-0.8129954541
1.0900,5.967866423,-13.9772836,1.073523331
1.0950,-1.456465987,-8.280504202,3.004746981
1.1000,-9.62602187,-13.88049576,4.255923599
1.1050,1.215472866,-9.923496406,1.223026784
1.1100,-4.764043938,-10.32250811,7.084414645
1.1150,-6.93209426,2.046279654,7.677159004
1.1200,-3.382600807,-8.325931306,6.870895051
1.1250,-12.14476951,5.13440879,2.293078176
1.1300,-20.30059731,-1.059244621,8.159224318
1.1350,-22.06663296,4.628055378,0.7922853202
1.1400,-14.84068225,-0.4822874982,-0.926894798
1.1450,-24.9552567,-1.330869566,7.76926654
1.1500,-11.34029837,4.678823785,0.3534864587
1.1550,-4.69865695,-2.873458657,8.42996881
1.1600,2.327390108,-3.038197219,-1.808184266
1.1650,18.39891721,-8.23114675,3.468455525
1.1700,21.96026564,-5.972841316,-2.578405424
1.1750,32.6567239,-12.88128339,-0.8803922421
1.1800,21.96076208,-16.34260963,8.318039219
1.1850,25.81026833,-9.511211559,7.888726098
1.1900,29.20968545,-8.496044482,9.473350544
1.1950,37.01727656,-8.655805348,18.80832161
1.2000,42.11127964,1.835941691,15.53765164
1.2050,41.64348264,-3.431647305,26.17842347
1.2100,43.16459218,6.240415485,24.91605814
1.2150,44.93016151,6.284669585,24.81943428
1.2200,37.28766569,3.154436636,27.45254349
1.2250,43.54050912,13.60129568,9.942058223
1.2300,35.79745245,-6.350039782,15.13484575
1.2350,31.78133194,-7.903424025,10.56602963
1.2400,36.86773633,-17.70973477,6.102360023
1.2450,27.70366624,-34.40140893,0.09394709376
1.2500,14.13197437,-41.89293731,-1.800457486
1.2550,22.79168446,-33.8854528,-14.39498692
1.2600,6.593285077,-32.45468831,-15.27026331
1.2650,-2.224875001,-21.90238919,-14.99593716
1.2700,-9.571066832,-10.25958952,-16.13675169
1.2750,-15.01366182,-0.1374120936,-11.80747418
1.2800,-3.224621486,4.285590012,-0.9408425864
1.2850,-5.188044461,5.971112632,3.689107893
1.2900,5.388193321,11.04345023,9.795457443
1.2950,-7.171716549,13.81362473,17.06229181
1.3000,-3.379388701,18.47993996,5.847370652
1.3050,-12.65940933,19.4507003,8.510967162
1.3100,-4.835633144,19.95483414,2.579196569
1.3150,-13.54234972,15.61556738,5.450299454
1.3200,-3.550008245,9.826682837,-2.794340492
1.3250,-0.5652851771,1.782013566,6.218451296
1.3300,-2.00942913,4.06485119,-1.011554017
1.3350,-11.52536883,-6.519030576,0.4044674164
1.3400,-0.7867502848,6.721066958,-8.594618679
1.3450,-1.191086971,-5.020253816,-7.824353775
1.3500,-15.22048997,-9.604708715,-9.469112296
1.3550,-22.13081998,4.927249001,0.4234506909
1.3600,-18.34435516,8.225705189,-3.149012994
1.3650,-24.49458747,1.775605937,-0.5790172339
1.3700,-22.15160474,-1.112706199,3.696724233
1.3750,2.010012211,0.07165624673,1.75917777
1.3800,5.340677955,-0.8515625814,-1.796986948
1.3850,0.2140551448,-4.904058464,-6.550315352
1.3900,11.00747576,-2.980343048,-3.532624132
1.3950,9.593980506,-13.97377083,4.742929812
1.4000,20.94745911,-10.45697206,-1.054972647
1.4050,35.31558377,-14.72112245,-2.786590904
1.4100,19.74084156,-24.60797516,3.007135002
1.4150,36.23691032,-11.28921925,-5.605691437
1.4200,19.62541259,-19.2930919,-7.097478818
1.4250,40.3330298,-8.680981851,-6.26562098
1.4300,11.89801541,-4.118589373,-8.137061192
1.4350,11.04090906,4.332401546,-2.128125928
1.4400,-8.869909787,9.716946332,-8.490848132
1.4450,-12.45365899,14.04863573,-7.332062397
1.4500,-23.64116067,14.86130583,-1.034504336
1.4550,-38.60483492,18.15272813,4.354648498
1.4600,-27.48387531,19.06432366,3.71248185
1.4650,-36.76346785,12.94330416,5.763907881
1.4700,-22.68515984,13.78025054,-6.912992013
1.4750,-37.16356684,7.16038011,0.2180185643
1.4800,-25.96360601,1.522062148,-12.78118011
1.4850,-20.6369663,-4.441969241,-13.87216882
1.4900,-12.21831979,-14.22375269,-13.91129817
1.4950,-7.057805547,-17.2899397,-12.84755388
1.5000,-14.85847928,-19.08029075,-9.518501108
1.5050,-7.744696639,-6.470637045,-12.23927664
1.5100,-15.96573195,4.187685369,-7.976359483
1.5150,-25.21840031,4.081178307,-6.183106176
1.5200,-30.40302541,17.02788394,-16.47102904
1.5250,-25.68513212,11.37050865,-7.159514539
1.5300,-28.31077344,23.21441049,-15.15331147
1.5350,-31.72023423,22.02476002,-12.52505801
1.5400,-33.29214005,31.04810241,-19.86579324
1.5450,-38.04023066,13.6239625,-8.54313884
1.5500,-30.64091311,17.99508771,-6.401296704
1.5550,-35.68187353,10.75377915,-1.372351161
1.5600,-28.60251048,-3.108505675,10.62896785
1.5650,-32.93444456,-0.334718258,9.069213647
1.5700,-22.98634457,8.498349487,4.480092695
1.5750,-25.02491616,8.828052118,11.87420698
1.5800,-25.54420773,14.38131751,13.84893365
1.5850,-32.32941778,9.058428709,16.92304393
1.5900,-13.22801379,23.97830021,8.756390955
1.5950,-16.21843282,17.18129906,12.18802207
1.6000,-4.873774501,15.06288656,6.345372615
1.6050,-0.5081496818,7.383404788,4.962441644
1.6100,-4.569684027,4.780784665,4.210851141
1.6150,13.39195551,12.0422955,5.824593826
1.6200,13.96636912,11.39718702,-0.8216849956
1.6250,-5.720546192,-1.470992113,4.850386491
1.6300,-3.627636628,-0.6501810759,-2.204221185
1.6350,-16.53406064,-1.718142968,7.410605066
1.6400,-5.530898273,-2.973437082,6.742232574
1.6450,-6.560031077,11.34054018,-0.4514185007
1.6500,-4.681281246,4.65469891,3.499845738
1.6550,-2.134500684,3.536521956,4.923315806
1.6600,-10.054357,-15.77542122,11.40742121
1.6650,-3.161858713,5.321738687,-4.557470842
1.6700,-10.13890132,-1.527243922,-4.037417959
1.6750,-10.27117968,-4.077357515,-4.426167863
1.6800,-16.48655078,-8.391193235,-1.997722073
1.6850,-8.132064707,0.6874118008,0.06695126559
1.6900,-5.188193378,4.252602141,7.111564143
1.6950,-5.205368292,10.05364477,2.438363015
1.7000,-5.445709661,-2.117114198,3.671440855
1.7050,5.267788078,12.04079051,-3.47065991
1.7100,-2.099883386,4.338626541,5.803381441
1.7150,-9.860506391,5.819372587,15.59966411
1.7200,4.186916597,8.296538608,18.19927191
1.7250,-11.78589969,12.78116223,23.59429318
1.7300,-10.37925157,10.8681706,25.80322489
1.7350,-19.76834014,9.498529764,25.25035087
1.7400,-7.589783887,7.93288385,11.347338
1.7450,-18.86986723,9.942677971,8.486132634
1.7500,-8.137310541,10.58457054,5.34694852
1.7550,-19.58100958,6.734025511,-3.851243586
1.7600,-13.58626561,6.599650322,-14.78720055
1.7650,-12.5013938,-1.544520445,-19.49605351
1.7700,-24.8428442,0.4392173332,-17.34219054
1.7750,-15.30672753,0.517617666,-8.880689468
1.7800,-7.277973413,-2.720067963,-1.131005954
1.7850,0.8143486483,6.045373391,-0.4180433517
1.7900,-14.77203977,-4.79488606,4.127248547
1.7950,-8.947846971,-2.178888511,-0.4833585308
1.8000,-13.54817101,0.6779337052,-5.328763099
1.8050,-20.0688142,-6.104891185,-5.001728189
1.8100,1.661277916,4.141128925,-6.534648796
1.8150,-4.696370723,12.92015715,-6.329620749
1.8200,3.174494358,4.334779523,-4.633082469
1.8250,-12.5452794,5.423944499,-7.511395999
1.8300,2.021723057,13.27234458,-10.50952111
1.8350,-2.078462373,19.20752724,-6.543050374
1.8400,1.866568647,15.57035691,-1.69056069
1.8450,-13.18476044,7.981891275,8.557852722
1.8500,-5.655982128,3.965365802,7.051032002
1.8550,2.019911095,5.243912433,-0.3189894297
1.8600,-13.08439906,4.232290756,4.178947407
1.8650,-11.13103727,3.659594831,8.304582624
1.8700,0.3912908187,6.274452093,-5.902036574
1.8750,-2.683705555,-5.829275536,-3.605037127
1.8800,10.27104947,-10.68476088,-13.2038059
1.8850,29.09127958,-18.86722101,-2.291050027
1.8900,11.479685,-23.08917206,2.251621747
1.8950,17.62798122,-1.963462861,-4.770515568
1.9000,26.98207301,-17.04636788,5.107548133
1.9050,3.216805542,-1.296957469,-5.374744146
1.9100,18.84839558,-4.748191996,-2.893777099
1.9150,22.9337528,6.47453353,-4.259699933
1.9200,3.395399194,1.793410504,-4.720366256
1.9250,14.6869083,3.693366683,-8.13370118
1.9300,0.8786695897,-0.1006349644,-8.356472448
1.9350,-3.626414562,6.404613745,-11.34997892
1.9400,-0.8673731123,-8.008749165,-11.70297006
1.9450,0.06180989973,-4.217226361,-13.06456416
1.9500,5.429136268,-12.59691056,-8.116663959
1.9550,5.034310007,-13.53325581,-0.1459805515
1.9600,8.980599335,-10.67789751,-5.638102161
1.9650,-5.046629311,-5.263594598,-9.653195172
1.9700,-13.12938676,-4.355026144,-8.268273899
1.9750,-3.128871825,3.573082059,-14.35287688
1.9800,-2.306704518,-15.12153047,-5.170886207
1.9850,-3.096645254,-32.41266971,0.01005205568
1.9900,7.918535546,-31.10424005,-11.13039127
1.9950,25.31423297,-30.56034364,-15.17024287
2.0000,22.02335962,-31.81998022,-17.6311695
2.0050,20.78537534,-28.310088,-8.988681903
2.0100,25.11362769,-19.22377193,-3.764005511
2.0150,14.21992293,-17.2607098,6.987983228
2.0200,11.17768483,-13.48801775,11.17304579
2.0250,-5.078802192,-9.870634787,15.14930295
2.0300,1.088492027,-6.309459383,19.30123824
2.0350,-2.185570973,6.87777156,20.20259793
2.0400,27.62940277,12.00326874,9.177630589
2.0450,-0.9841810263,5.80257206,7.169381196
2.0500,13.33164186,16.05152444,-0.2718500245
2.0550,-12.07535387,14.81577492,4.318061545
2.0600,6.732972773,25.37508257,-2.520857369
2.0650,2.684222041,22.37137895,1.854324135
2.0700,11.05736471,18.45896707,-7.935654197
2.0750,25.92861348,8.716051039,-16.42137566
2.0800,4.861003691,-14.07771047,-13.25515262
2.0850,15.7182351,-1.984315071,-13.65396008
2.0900,2.681424776,-12.37056663,0.938450184
2.0950,-11.41528978,-10.17681619,14.48993946
2.1000,-15.90412114,-7.107480326,16.03082708
2.1050,-14.26196269,-0.1398451019,13.8034368
2.1100,-21.40428049,6.791448149,12.46973993
2.1150,-7.145974385,5.166066224,6.545564767
2.1200,3.512270493,11.94484898,0.09200364681
2.1250,6.26213033,11.58444036,-7.467176692
2.1300,11.49416692,9.62178824,-6.142459883
2.1350,3.475953806,4.959456207,1.621857476
2.1400,-11.78890332,-17.99342259,9.5397722
2.1450,-23.2409835,-1.649281183,4.672229905
2.1500,-25.95232973,3.284851302,2.824820463
2.1550,-25.90637737,10.84185543,0.3554201607
2.1600,-33.11321969,10.16817992,4.761844128
2.1650,-26.60319754,17.76921976,-2.616462731
2.1700,-23.2909553,3.876492674,-4.360324233
2.1750,-24.03870438,2.23068858,-4.953444284
2.1800,-13.31521395,-3.312192114,-17.87335174
2.1850,-10.36448825,-1.926768971,-22.04873336
2.1900,-21.29613062,-11.14155309,-21.36120127
2.1950,-6.654636915,-3.128606391,-14.86741362
2.2000,-11.73911397,0.05063193061,-9.596259624
2.2050,-6.468096123,3.986116102,3.015606363
2.2100,-14.75128762,1.956695292,2.022873842
2.2150,-9.559700554,-6.769316446,12.13418606
2.2200,-1.228014684,-5.218350522,13.96659539
2.2250,-11.10768424,-2.160595954,19.47803862
2.2300,2.344751002,5.523093168,16.42729482
2.2350,-14.65625523,-0.4689355402,16.76022004
2.2400,-13.4689991,5.117410529,18.5653677
2.2450,-4.752529712,16.72176458,13.67780971
2.2500,-15.2271219,-7.43411051,23.52248959
2.2550,-4.696541567,0.5066759403,12.75044951
2.2600,-10.76280129,-2.134808831,7.370492633
2.2650,-4.750759292,-22.23379642,9.943746517
2.2700,-12.90990639,-25.70048224,5.256849087
2.2750,-9.434717204,-10.23796186,-2.431007432
2.2800,-8.707684546,-15.44760399,-0.7209883433
2.2850,-2.139949567,-7.270175706,1.155317121
2.2900,-7.685443027,-10.40796498,0.8768657515
2.2950,-7.895276266,-11.48866976,-4.329643659
2.3000,-12.85933803,-16.02685357,3.473219046
2.3050,-27.16358129,-3.384621334,4.600212814
2.3100,-3.292821874,-6.627348376,10.89317795
2.3150,-22.3421965,-1.134498547,15.12367377
2.3200,-14.50221233,-9.58024211,28.52976068
2.3250,-16.73521755,3.089943648,14.48925961
2.3300,-22.70759534,5.120680038,6.223776596
2.3350,-5.574936806,-0.4009503786,-0.1020522831
2.3400,-1.29513288,5.55246844,-12.44750167
2.3450,-1.934521026,10.39735323,-12.89638335
2.3500,2.356032819,8.421169127,-15.28933066
2.3550,-4.961906034,-7.03680616,-13.32892354
2.3600,-12.26751418,-6.20575697,-19.00453618
2.3650,-1.401704072,-22.00445136,-8.517671271
2.3700,-16.58332687,-8.749433536,-0.4751078392
2.3750,-19.10102044,-2.209838166,6.127210204
2.3800,-5.127421144,-5.577226429,3.276376698
2.3850,-8.203685653,-7.226118109,6.219916558
2.3900,-7.959528092,-17.16698764,10.24094859
2.3950,0.5736535122,-2.92054626,7.202063404
2.4000,-13.73877499,-12.25240098,19.11486944
2.4050,-14.19950366,-10.51716269,22.73097042
2.4100,-13.89278252,-24.19517258,26.72521589
2.4150,-14.37931732,-19.3984343,29.78393523
2.4200,-43.14851876,-5.445046617,26.70299575
2.4250,-24.24558251,17.7230307,1.863999043
2.4300,-32.49259091,14.26820164,-10.87500324
2.4350,-11.24244081,11.77710713,-18.06141413
2.4400,18.96085222,13.99738938,-28.95365132
2.4450,5.349961822,11.49583458,-26.7938959
2.4500,18.92777079,2.550751827,-17.21209668
2.4550,18.08691222,3.123775722,-3.385557234
2.4600,26.02902083,5.538517552,-3.327343421
2.4650,20.31391424,-0.8938944091,16.37062844
2.4700,5.268929057,-19.06255317,30.68485718
2.4750,-4.700270805,-14.86976643,38.66247462
2.4800,-9.657649627,-4.038434081,31.9737746
2.4850,-1.217466549,-1.185380059,24.19874573
2.4900,-4.79591478,-7.24346131,10.4697585
2.4950,-3.78155417,-33.18928395,20.95451254
2.5000,7.656442019,-14.60160696,4.784803956
2.5050,-3.464235656,-7.637705287,-2.413324898
2.5100,4.910710754,-4.436079234,-25.57089535
2.5150,-1.633997628,-29.65223136,-21.98022069
2.5200,17.19192974,-36.77357425,-26.91373329
2.5250,9.880499426,-38.04175323,-23.76633438
2.5300,9.527452787,-19.87200091,-26.72355141
2.5350,4.792909683,-9.551693934,-2.66836672
2.5400,-2.459503787,-11.32615559,8.687144017
2.5450,-0.5089006097,-17.87000593,29.08103076
2.5500,7.805490617,-14.06473591,32.9569654
2.5550,7.841670111,-1.542499683,32.20405434
2.5600,16.82656493,3.634896667,18.32234537
2.5650,21.76427607,-7.688931217,26.27359917
2.5700,5.988979345,-19.79672938,39.8817653
2.5750,0.2994281644,-13.25663698,44.72044226
2.5800,-14.88756547,25.9312565,25.5272184
2.5850,3.882637315,19.35821407,11.30803389
2.5900,8.063792591,13.79677865,-13.37086943
2.5950,25.04516533,-8.506978183,-11.98433163
2.6000,31.62231568,-9.004284237,-19.62271507
2.6050,31.35646433,-13.55854352,-30.19538112
2.6100,29.92694947,-9.501155286,-51.27834451
2.6150,31.37676729,-8.625702328,-50.43160134
2.6200,51.64201095,-24.46988539,-38.26196085
2.6250,26.1908921,-31.10148374,-8.784407784
2.6300,15.23960231,-28.7593763,11.4073728
2.6350,-0.4570292137,-25.16031243,40.60844845
2.6400,-2.939259163,-10.53175705,51.99915318
2.6450,12.7974181,-6.316996343,50.23164363
2.6500,3.622877192,12.45104897,41.88277742
2.6550,0.9501063613,18.01866951,21.93328024
2.6600,1.182990365,23.80163025,-2.404841613
2.6650,7.818411067,18.78527632,-14.17521125
2.6700,23.46788388,13.04113761,-30.94737051
2.6750,5.760502794,6.373543787,-23.80836663
2.6800,23.55507602,-17.45084261,-22.96342974
2.6850,29.77386893,-31.37103146,-17.50568263
2.6900,15.65370896,-32.38293232,-2.461260511
2.6950,26.30650311,-34.60372755,0.5335662295
2.7000,36.62866302,-32.5255271,-11.75873985
2.7050,30.28208364,-26.64864029,-7.812353555
2.7100,6.662644579,-33.17520214,4.933772939
2.7150,11.60402055,-8.470209533,1.651509431
2.7200,4.672865445,-1.064579853,0.7480757021
2.7250,7.757760344,5.318045382,6.03321574
2.7300,1.610306404,9.640414865,11.97762321
2.7350,11.76224237,15.9891682,20.21181367
2.7400,11.96076461,10.83894909,14.41686574
2.7450,12.4274487,15.16406462,4.703042258
2.7500,17.98796886,17.69401297,0.1292999637
2.7550,11.06812329,16.17823136,-2.984879296
2.7600,19.86231975,13.61478482,-10.15456495
2.7650,5.153884317,1.378306574,-2.440256572
2.7700,9.836018747,7.744940339,-0.8667146839
2.7750,1.518332014,5.405784248,-3.958458845
2.7800,4.834884928,-6.908997652,-0.7222230727
2.7850,12.90125971,-22.03393337,-0.9929604841
2.7900,17.66557955,-10.14317241,-3.883087347
2.7950,6.058544064,-16.56711546,18.0796186
2.8000,1.773527146,-4.600050167,1.934927772
2.8050,6.327221396,-8.339264142,-16.58333085
2.8100,6.594438229,-3.295764742,-35.02652255
2.8150,11.47764019,-0.8322392595,-42.83391501
2.8200,7.222383345,3.922198585,-42.42510737
2.8250,-10.19747294,-1.709929371,-32.94230243
2.8300,1.774137234,5.357465272,-24.38774119
2.8350,-6.991794399,-10.17883644,1.93377848
2.8400,-5.780109307,-19.4050929,24.64333732
2.8450,0.5430093944,-6.121555614,34.1610815
2.8500,-5.512650559,-4.135645992,27.5068611
2.8550,-29.09666263,-4.956173563,25.62311453
2.8600,13.98442746,-16.10978115,15.28939407
2.8650,2.411217632,-13.48987679,16.0999477
2.8700,-12.46308843,-29.04619041,22.94477286
2.8750,-4.928570443,-18.69294507,9.669701663
2.8800,18.53286003,-15.69707567,-5.859503724
2.8850,19.91213342,-15.34676562,-11.89123984
2.8900,14.11718566,-16.10053456,-21.58393453
2.8950,13.60375176,-2.654404132,-27.47744322
2.9000,35.51241716,-7.024698207,-31.4484515
2.9050,19.68872505,-11.45237141,-22.58960347
2.9100,13.26219714,-12.28993461,-21.28755178
2.9150,2.459400641,-15.26452412,6.172955968
2.9200,0.3937646719,-3.942991307,7.758931955
2.9250,1.06131654,12.79234211,6.820297083
2.9300,14.16071979,12.80668926,0.5424959015
2.9350,2.079120137,10.44458224,7.077126586
2.9400,18.39883465,-1.176185061,-0.4315885795
2.9450,26.71996132,-6.098140931,-2.249090832
2.9500,9.809507576,-4.568514995,-2.634555795
2.9550,-7.349837023,-4.995057066,0.6638675172
2.9600,-13.39744879,-1.536308667,-5.256969297
2.9650,-3.875869403,4.686336152,-3.411643674
2.9700,-1.820424148,-13.68443569,15.86989271
2.9750,12.71850496,-8.052574598,-4.015574444
2.9800,10.01044926,-16.41593976,-8.389089482
2.9850,12.3532684,-9.434413394,-25.7507123
2.9900,11.4067653,-11.80119286,-30.08338931
2.9950,-7.95271021,-6.857013841,-33.80484537
3.0000,1.007891352,-9.948381476,-33.13227407
3.0050,14.20922543,-9.53781638,-30.58725623
3.0100,4.403106663,-12.32104797,-11.53651127
3.0150,8.624081762,-10.15657867,9.121939471
3.0200,13.07117189,-15.39682102,16.81989006
3.0250,-14.02290313,-22.73968657,25.3969468
3.0300,-24.2394749,-6.055600113,16.0557724
3.0350,-23.3784045,-4.143562756,12.02559855
3.0400,-10.33058403,6.312719222,8.033815084
3.0450,-3.042379314,-2.980442618,9.008944607
3.0500,6.264491389,-12.64140807,9.761862273
3.0550,10.86860239,-8.692817504,13.97448877
3.0600,29.57780584,2.860727999,-6.530472345
3.0650,3.733789232,-5.767489051,-2.75837248
3.0700,9.984687891,-11.40815411,-7.89240385
3.0750,7.539308276,-24.38871772,1.249936323
3.0800,-1.839347167,-16.74277287,-10.14803405
3.0850,-19.3234668,-13.73731082,3.268543497
3.0900,0.2676604171,-13.03197445,1.119627135
3.0950,-10.55108026,-27.19956616,28.42696524
3.1000,-10.07802377,-15.70529434,28.53376241
3.1050,13.72679942,-7.606623214,9.892764057
3.1100,14.60715325,-0.3578811355,-14.43389674
3.1150,-7.57964681,10.78807051,-24.77057669
3.1200,-13.63536276,-2.94826396,-26.2622979
3.1250,-5.805786598,10.8209055,-28.95190929
3.1300,3.197603699,15.45576458,-25.47769554
3.1350,23.5329045,-4.144810775,-9.166030942
3.1400,4.287022135,-2.751731418,10.09437689
3.1450,4.758276359,18.66561987,20.16125128
3.1500,0.2925608829,16.94575683,37.92437529
3.1550,-2.0340993,-0.933706919,47.43771466
3.1600,-30.31330038,-2.855057353,39.85022961
3.1650,-15.23024597,-5.052550673,26.28042381
3.1700,-11.98447325,1.845303171,15.46961843
3.1750,-9.320626765,-17.02978106,15.63171609
3.1800,16.948545,-12.53845499,-4.738258405
3.1850,-2.740809257,-12.78194291,0.5979222608
3.1900,-4.534965156,-10.9182378,-1.740570177
3.1950,3.447231177,8.78862296,-6.232228252
3.2000,-14.47399246,1.584738543,-10.32379357
3.2050,2.849015154,-4.346835631,-14.04810412
3.2100,-1.436935418,-11.43979167,-4.106915988
3.2150,6.820926619,-18.02431877,-1.288978797
3.2200,0.7160654822,-14.47069512,-8.633984257
3.2250,-9.704411125,-5.637978141,-11.28307487
3.2300,-7.790111365,-18.37664344,-4.264980583
3.2350,-4.254766526,-22.22917567,18.66007598
3.2400,-17.83327818,-16.20368709,16.05988201
3.2450,-9.232632931,-7.481259058,-3.438457252
3.2500,-6.180554079,-13.41799719,-10.40921607
3.2550,0.6932966371,-13.38250604,-15.70531538
3.2600,-4.539970893,-17.22536535,-19.28640505
3.2650,5.162139047,-8.726344103,-23.11250047
3.2700,4.331431322,-7.251530905,-15.04887644
3.2750,-3.484303081,-8.09961905,2.051980087
3.2800,12.57556699,-11.10420719,5.435182506
3.2850,2.288253466,-2.703304442,1.934610454
3.2900,13.51296183,-9.537769271,-9.329137126
3.2950,10.65107036,-11.88442903,-6.653896109
3.3000,17.29664475,-24.61663299,-12.35626457
3.3050,15.87667514,-14.1830991,-13.41918323
3.3100,6.263945021,-11.52017222,-11.78668909
3.3150,13.80514522,-13.89140348,-8.959823919
3.3200,-2.820221704,-19.00031651,-1.07829941
3.3250,2.334282554,-1.361359225,-17.2748923
3.3300,15.38170462,-15.29725768,-15.40944498
3.3350,4.156843456,-7.213947517,-6.892203158
3.3400,10.80284509,-10.77318983,-7.606260949
3.3450,23.84083716,-5.795205389,-8.791930237
3.3500,21.22385606,-1.087853905,-23.81114284
3.3550,16.60711754,1.325359695,-17.41992459
3.3600,25.17798035,-7.94500097,-6.997949574
3.3650,14.04972932,-8.028153099,22.18699901
3.3700,-6.14577812,3.626396567,21.27620645
3.3750,12.62534788,2.585904966,7.45147431
3.3800,24.10536022,8.852966009,-2.365992721
3.3850,21.67849832,10.10822846,-4.320741269
3.3900,17.15089159,30.25591708,-2.077749536
3.3950,37.47119282,24.3671386,-5.05935462
3.4000,24.51031231,20.40841723,-5.970382813
3.4050,26.61952033,-6.937528247,-1.533247008
3.4100,38.29238587,-5.653465829,-0.7649240077
3.4150,33.00998483,-17.99108972,1.613867844
3.4200,36.03783052,-33.63720707,3.499233665
3.4250,54.49166132,-34.66805788,4.641449035
3.4300,41.67789748,-28.57755062,-0.03219809525
3.4350,16.76990528,-25.99417505,5.768749455
3.4400,21.28792072,-16.81026278,3.824074409
3.4450,22.1657667,-7.877631235,3.832264499
3.4500,25.49750315,-7.156991421,-3.459196587
3.4550,21.30203373,-8.650346721,-1.942032507
3.4600,24.44061935,-8.018828955,-12.428767
3.4650,25.86802296,-8.605299954,-4.079824102
3.4700,1.216320704,-21.38710563,2.537403192
3.4750,20.3964359,-23.98999734,-7.351454963
3.4800,13.34545919,-10.23702908,-15.63390832
3.4850,9.652929579,-13.96996829,-12.31823212
3.4900,7.459444129,-7.979828268,-16.9395224
3.4950,6.135684852,-12.25197878,-10.43175977
3.5000,-7.713138161,-6.659536574,-8.774455615
3.5050,-9.295110056,-8.003404682,-10.12083001
3.5100,8.711642729,-4.395701484,-15.05893577
3.5150,-5.917529758,-7.379026475,-5.521431087
3.5200,6.777288632,-1.067149995,-10.54511452
3.5250,-1.139234659,5.44929507,-0.8739466938
3.5300,0.4786280113,3.117311201,-6.372576847
3.5350,-21.04261189,5.095251839,-0.7186244793
3.5400,-9.355410243,3.815886984,-8.329532109
3.5450,-14.16355763,-4.866528078,-2.151388096
3.5500,-16.61642225,-4.354047055,8.828697961
3.5550,-6.56859528,1.315591429,4.624375904
3.5600,-19.75260791,-1.740109232,-1.396101496
3.5650,-15.60319681,-2.469650587,-12.24151397
3.5700,-17.71902376,-7.744059716,-17.85717829
3.5750,-3.595351726,-8.836454325,0.05236471615
3.5800,-20.77531574,-6.724819668,2.280139275
3.5850,-0.5694575577,-9.321198062,-8.420127773
3.5900,-1.320332333,10.71496085,-9.787277849
3.5950,-6.265194557,1.861799828,-2.965696658
3.6000,2.899719101,-2.304189502,-13.14512345
3.6050,-9.693507659,6.478721245,-11.31657456
3.6100,2.469428426,9.475947948,-15.92104066
3.6150,-5.243698688,18.14475986,-3.00181185
3.6200,-19.82550448,18.03786814,2.481688973
3.6250,-9.625687276,16.25548549,-11.48705161
3.6300,-11.71378788,0.6252247793,0.007611259407
3.6350,-5.695525722,20.31692481,-0.7760404464
3.6400,-7.027501964,25.45252485,2.82230989
3.6450,-0.7204996558,36.18882322,0.5589153979
3.6500,-10.14948303,22.30474421,-7.916762257
3.6550,-20.29932931,22.22655194,2.985386036
3.6600,-24.41129234,22.33635327,0.04648766466
3.6650,-8.491986425,22.5218915,-9.096025781
3.6700,-4.441577841,-5.421054759,-7.373817298
3.6750,-12.88476436,-9.959195996,2.618777107
3.6800,-17.80222815,-10.29751244,-12.2502383
3.6850,-21.12950423,-18.38417232,-9.063927617
3.6900,-24.23659984,-16.73552508,-15.52479593
3.6950,-22.90976713,-20.72118669,-14.39626086
3.7000,-33.28469082,-32.02924557,-0.6645226317
3.7050,-19.52618412,-38.17586255,-0.6250825927
3.7100,-18.64029181,-47.37980316,3.457895298
3.7150,-16.83386199,-39.95144893,-2.737954223
3.7200,-11.47431168,-35.30375392,7.885619679
3.7250,-23.17911759,-18.21374856,6.208352471
3.7300,-4.07128194,-3.026223126,-20.2360744
3.7350,6.4988547,-8.756753575,-13.82088083
3.7400,-8.489357813,-8.582535198,2.938099004
3.7450,-16.21009774,-5.794534267,16.55630326
3.7500,-0.4556332676,-14.10219283,7.120530709
3.7550,-7.292354593,-17.60472371,11.9079682
3.7600,-8.145081575,-8.221823216,2.34510246
3.7650,-8.89577386,6.905215358,-12.64628132
3.7700,11.22297933,-0.5554694761,-14.39327085
3.7750,-4.720269203,-1.163298438,11.5376162
3.7800,2.012175289,0.5249198876,6.599448779
3.7850,9.073237918,4.276715139,6.792719959
3.7900,17.37451324,-4.241633752,10.73928473
3.7950,8.085576348,-1.631451529,23.68401358
3.8000,-1.157029061,1.819172899,12.36924922
3.8050,1.849624644,-1.841510423,16.40189487
3.8100,16.41340197,1.034509059,11.67969696
3.8150,18.69372482,-3.254256326,12.23174646
3.8200,12.80827852,4.235101886,11.36787683
3.8250,14.00051348,-5.194838555,13.69653186
3.8300,16.01282276,-8.434373892,18.92167023
3.8350,24.82362863,-5.607401179,19.15333914
3.8400,33.2445285,-3.495911228,22.07170752
3.8450,30.9190967,-9.980055336,29.1577154
3.8500,40.2703195,2.255442232,17.33240439
3.8550,18.92534399,7.272667944,25.72607608
3.8600,30.04863348,18.29312752,15.81422678
3.8650,28.94749756,33.18456097,25.3143015
3.8700,25.95461866,24.45473752,26.12548102
3.8750,40.50096142,20.10290721,23.82075409
3.8800,24.61206344,20.95961473,27.19633887
3.8850,31.30384962,2.237093353,21.18404263
3.8900,24.77653269,-10.97008467,22.02181691
3.8950,29.92081679,-21.71339681,20.86467809
3.9000,26.42652497,-19.86503737,18.34513403
3.9050,26.29446877,-17.65303377,17.02760448
3.9100,23.83085602,-1.713127143,20.64467447
3.9150,20.58551078,8.37113557,29.70153711
3.9200,32.77089579,41.40261601,23.7052307
3.9250,31.70581872,33.23466844,29.64575265
3.9300,39.74260515,41.84724857,16.48947333
3.9350,36.7396716,40.58394701,7.651176514
3.9400,38.85766675,37.14304859,2.799223835
3.9450,31.93419099,20.2929475,12.8643899
3.9500,35.8786731,4.975266331,13.67163239
3.9550,40.53497085,-6.561228687,15.79187556
3.9600,17.2771964,-14.16851776,26.79347401
3.9650,27.08629482,-27.81962484,22.11410011
3.9700,18.01169264,-26.80090683,15.15392924
3.9750,5.439539471,-41.03598488,16.06258527
3.9800,12.34671144,-45.95349982,12.1611466
3.9850,15.35469095,-40.25220135,2.276255305
3.9900,5.141050835,-34.19559223,4.876475451
3.9950,4.738240428,-27.42822566,4.545185384
4.0000,3.960191027,-16.24105691,-4.885941458
4.0050,28.36948538,-8.699222315,-8.298990425
4.0100,26.42160896,5.325519756,3.279909323
4.0150,15.05818728,18.48049075,10.25407985
4.0200,16.40953623,20.9893299,7.870195354
4.0250,16.55372167,23.4091796,7.975627804
4.0300,22.80151869,29.2033447,-3.066079395
4.0350,28.93764334,8.199066261,17.08548164
4.0400,16.34313364,-7.734741894,19.69139979
4.0450,20.75741599,-17.56438984,34.3164829
4.0500,32.88124835,-15.72541907,20.41470922
4.0550,21.7293346,-26.95979972,15.76455568
4.0600,10.20369517,-36.49628314,7.240497979
4.0650,18.38872771,-33.70162276,1.201245258
4.0700,10.57846869,-30.65298545,1.294924771
4.0750,6.886990941,-29.96304356,-3.755291276
4.0800,8.65157217,-33.83035783,-3.113383111
4.0850,8.890632904,-19.01145549,-14.70052164
4.0900,7.830633692,-15.19677839,-12.28388858
4.0950,-4.260167507,-5.532923321,-3.971658351
4.1000,3.486925648,2.201863908,-2.436665885
4.1050,3.092449166,10.15961843,3.687017447
4.1100,6.478722604,15.32773452,-0.7550537261
4.1150,0.2237178091,5.109927315,14.13832454
4.1200,10.82338902,10.43751116,7.504641894
4.1250,5.114457544,16.21066738,8.033442385
4.1300,-9.628972973,-7.870249037,24.64587882
4.1350,-5.916777811,-17.0133989,21.50609294
4.1400,2.006008178,-10.86571778,17.95011681
4.1450,10.47174109,-10.52093749,23.35186032
4.1500,7.565772218,-9.211337799,23.50727255
4.1550,17.43909885,-3.679354054,10.66913588
4.1600,5.066585118,-1.347601703,14.7557825
4.1650,-7.746775176,3.139874967,18.55901067
4.1700,-3.678471526,18.70655369,10.29691749
4.1750,1.383118319,20.81292214,1.19508585
4.1800,-12.97491365,18.98760498,4.803532104
4.1850,-11.69076451,10.34292968,-0.1453198736
4.1900,-16.50240929,18.28151495,-2.723113204
4.1950,-16.63093927,14.89811246,-1.20581803
4.2000,-11.11269857,5.134378117,-1.305900301
4.2050,0.3087135037,-9.146674054,5.682143856
4.2100,-6.293435767,-6.7699452,11.48160897
4.2150,-10.03451231,-13.09810002,12.98380157
4.2200,-13.21296383,-7.904878139,2.748842914
4.2250,-0.1589220059,-6.507236723,2.115430856
4.2300,-3.881859797,8.247331236,-4.332329829
4.2350,-3.565191836,6.585474009,2.09609975
4.2400,-0.2902135406,8.599875131,7.395392757
4.2450,-1.604994963,14.77340057,12.00194347
4.2500,-8.814859521,23.31976541,3.045473443
4.2550,-6.221000271,17.90037576,1.579196871
4.2600,10.06408629,17.76217914,-17.50545648
4.2650,-1.605320049,12.70158476,-10.06018777
4.2700,-7.677494313,10.9639144,1.673559834
4.2750,2.27239962,7.59612684,5.344097448
4.2800,-6.967561443,0.1125596627,16.29479566
4.2850,0.2362400053,1.087901302,-0.6988342443
4.2900,14.42105731,-12.32307952,-0.1309261443
4.2950,6.92265289,-10.01263021,4.055443187
4.3000,2.14068302,-5.581910641,-6.293539542
4.3050,-11.02753097,-7.934208821,-2.111290589
4.3100,-13.33331943,0.2534063369,-2.797334503
4.3150,-0.617702589,1.688325248,-9.135917848
4.3200,-7.692614545,-10.71505892,-4.916925921
4.3250,2.719166718,-10.81289688,-23.46525978
4.3300,5.657170321,-17.80576047,-19.14019431
4.3350,2.220732653,-8.718778325,-16.65993538
4.3400,-4.396712679,-7.352404326,-7.543503046
4.3450,6.667092796,-4.809823761,-8.745343058
4.3500,-1.424015477,4.875226767,4.288633104
4.3550,12.09625111,10.24493471,-2.509038511
4.3600,20.50305061,10.23014,-4.310377412
4.3650,11.97927276,10.76249354,-1.750418885
4.3700,-5.513320248,20.45175189,5.166907665
4.3750,1.423337762,22.57185284,5.248785134
4.3800,-4.930109958,11.57084664,7.968447077
4.3850,14.88876978,0.2405362328,-0.4484487135
4.3900,-0.5941044753,0.999649696,-1.027238094
4.3950,12.33886697,-7.713178057,-1.086838183
4.4000,10.38664762,-20.41498223,-5.177377159
4.4050,2.098294937,-13.52024565,-15.32860913
4.4100,-2.491262056,-9.182080462,-26.03784384
4.4150,-6.377265127,-2.747722562,-28.31752111
4.4200,10.7359572,2.078778879,-32.36657332
4.4250,5.292811991,3.034357601,-18.31909177
4.4300,6.04286661,0.8057037532,-8.36159384
4.4350,5.287720946,5.820400559,-4.737676021
4.4400,2.245237951,5.362706102,-15.75358989
4.4450,15.6944348,8.553960343,-18.68369204
4.4500,26.98133413,0.4780390068,-10.68499564
4.4550,17.04086268,-1.158067969,-3.760926704
4.4600,-1.744923561,-13.21660146,9.355127287
4.4650,16.77155815,-14.86079138,-4.089621115
4.4700,0.6122284105,-5.340896151,-3.673770926
4.4750,4.992031449,-11.79360582,-6.949480876
4.4800,10.37918236,-7.553755634,-18.50235842
4.4850,5.047233491,-4.874224881,-16.57895449
4.4900,1.662182946,-4.091071222,-17.38663982
4.4950,-2.023955324,12.55729493,-11.79963854
4.5000,-4.68948909,11.96737267,-5.96141784
4.5050,-6.219702338,5.728220487,-4.109587359
4.5100,-5.311059647,7.11596726,0.1573799805
4.5150,-17.90722475,6.104604608,9.502527104
4.5200,-15.29113469,-7.580521378,11.61485177
4.5250,-15.62585643,-12.09775334,4.971428521
4.5300,-7.020742188,-15.13785571,-10.54974786
4.5350,-3.369655802,-9.817076461,-19.68237236
4.5400,-10.51695715,-11.39317413,-22.17456615
4.5450,-14.14904195,-8.726986458,-22.33864554
4.5500,0.0177275042,-9.272906858,-29.06340444
4.5550,-6.034354276,-5.544032064,-13.7687681
4.5600,-13.82245149,0.2021056639,0.1209262522
4.5650,-6.910741278,0.0612099866,4.359478747
4.5700,-9.496313958,-1.833419888,8.845033542
4.5750,-6.151235594,10.73510514,3.280021024
4.5800,3.410853946,10.32199153,-0.07458870626
4.5850,2.816500655,15.32793295,5.73330224
4.5900,5.029656195,1.179426824,16.34285548
4.5950,-8.074072245,7.495844147,18.52424582
4.6000,-2.89112196,10.86899707,9.676659335
4.6050,-0.3782148542,2.361422745,8.794972346
4.6100,-1.126542578,0.4557382341,7.691818922
4.6150,2.022957289,-3.302187599,5.815298221
4.6200,-2.112470859,-1.953828736,-4.870680864
4.6250,4.361505106,-11.3385051,2.884398755
4.6300,-1.327099993,-6.175224397,-0.1552618921
4.6350,-3.511397903,-8.128749702,5.908336964
4.6400,9.422355313,-10.12570632,3.606798773
4.6450,9.247320801,-14.27482697,0.8869596573
4.6500,8.99041753,-5.461642976,-6.85743864
4.6550,-4.377531611,-9.376803572,1.161478205
4.6600,9.708507033,-8.691274774,-2.919186041
4.6650,-8.73262291,-11.76122722,11.9662732
4.6700,-5.05220002,-7.453883547,7.705789807
4.6750,-16.84389281,-10.84583177,17.70928018
4.6800,-12.40676447,4.234522958,2.870513288
4.6850,-2.22154732,-1.782398319,-0.1192193885
4.6900,0.3047553784,2.340326848,-11.48300417
4.6950,-1.847923171,-7.301368978,-1.361333621
4.7000,-1.820190291,-15.64309234,4.109964577
4.7050,2.849935144,-16.20843563,6.462912634
4.7100,-4.081851366,-11.70801518,12.64306592
4.7150,-1.375668526,-0.3759617258,4.267701811
4.7200,-2.274921495,0.7572445443,-1.822835001
4.7250,8.189596712,5.594810944,-4.41435959
4.7300,6.994103582,5.196921843,-2.124833045
4.7350,-2.601101886,-1.357004761,10.32834915
4.7400,-9.339390156,2.938172219,14.46372282
4.7450,-6.419405299,-2.881392943,24.61621322
4.7500,-8.407537013,-3.520864842,22.52920178
4.7550,-3.699158521,-1.298910982,22.68273043
4.7600,-0.9622453339,-6.185515926,18.77067402
4.7650,6.774299567,-17.77419556,18.25367423
4.7700,13.19480328,-7.625013653,1.851144634
4.7750,10.48590333,-19.292784,9.621544664
4.7800,19.74460743,-38.10913632,9.571455339
4.7850,3.912505325,-42.07820347,15.97031391
4.7900,-11.18721279,-41.59727687,24.69778987
4.7950,1.454263888,-44.10785152,26.90783637
4.8000,-16.91644291,-28.80056412,16.12286297
4.8050,-0.496715543,-16.76428177,-4.563349448
4.8100,-5.305442167,-12.63129358,-9.595446583
4.8150,-5.489862433,-4.775515087,-19.7312838
4.8200,18.6443463,10.71219871,-33.89810164
4.8250,-0.8875227014,2.580337178,-22.13432046
4.8300,15.95303404,16.50820237,-28.30123319
4.8350,-2.9132508,16.92224009,-19.82305695
4.8400,22.80157102,11.43949779,-16.09493064
4.8450,29.81327103,12.44815397,-17.10026954
4.8500,27.91585441,6.070485599,-13.96986383
4.8550,26.73521796,-8.43670115,-7.83358768
4.8600,9.333141113,-5.4048779,1.899003035
4.8650,9.783921619,-1.414492538,3.959815567
4.8700,13.60554533,-3.504622167,11.35837488
4.8750,24.16580291,0.07566293821,11.50587764
4.8800,14.39034938,-1.489529836,9.46018209
4.8850,12.25504974,-4.715367392,12.064849
4.8900,23.3963593,-3.085504931,-7.225132349
4.8950,34.39713,0.5005961035,-6.038490888
4.9000,35.91417786,5.684577382,-16.72854661
4.9050,30.24620762,-2.966348145,-14.10622606
4.9100,25.46670453,-9.241566409,-0.5014543922
4.9150,1.035721891,-18.29160656,13.67318724
4.9200,10.23501606,-11.915733,20.05203175
4.9250,-1.073787229,-17.12135148,27.91618879
4.9300,9.288752154,-3.000263344,11.83260789
4.9350,6.09575207,1.063210193,20.06959766
4.9400,14.17655475,11.30969861,15.64431516
4.9450,-0.1576655796,9.39854161,17.24939607
4.9500,21.05352666,2.742916087,4.302700078
4.9550,29.17473665,8.91313893,-8.453607306
4.9600,28.34383681,0.8615337171,-7.686557398
4.9650,27.18093351,-1.177801483,-14.18707175
4.9700,16.02993302,1.834757099,-9.543525584
4.9750,6.735527718,12.38000686,5.29744304
4.9800,8.587161906,9.708120164,9.105758859
4.9850,7.123055687,2.25979829,12.18427406
4.9900,6.860139803,6.519787326,-0.451032337
4.9950,11.54227332,-5.332496614,1.035624987
5.0000,4.599864761,-1.922614742,-7.225660755
5.0050,-3.203182431,-7.049664821,-10.33996537
5.0100,-5.541252017,-12.14309049,-8.540053227
5.0150,-9.381440738,-11.91571895,-3.166763111
5.0200,6.526787385,-15.06517402,0.9221819777
5.0250,-16.9884684,-9.927208561,1.991808838
5.0300,-10.71146184,-8.322972896,-5.751434073
5.0350,-1.390570465,-19.11841336,-8.955547455
5.0400,-1.347405439,-21.64492654,-23.00322865
5.0450,4.747293282,-34.48449259,-16.76623296
5.0500,5.9041833,-17.66727692,-21.55228234
5.0550,2.958910639,-10.53452766,-12.12535553
5.0600,5.081386938,-2.162024723,-5.856845419
5.0650,10.48994842,-0.8114334832,-5.058721752
5.0700,3.752575157,2.348598375,-2.161956222
5.0750,1.712409955,-0.3882253969,1.010987961
5.0800,4.950843631,-10.3248692,1.491872521
5.0850,-19.76201892,-8.458963181,7.863816483
5.0900,-12.01833555,-12.56963419,-0.3897125636
5.0950,0.2261586494,-15.78341075,7.18550194
5.1000,-5.080665765,-7.518936311,4.436618131
5.1050,5.826165395,-17.49545107,7.599302679
5.1100,-3.065816216,-8.54242699,5.172643871
5.1150,3.695689727,-2.802818762,-3.016400157
5.1200,5.705272216,3.355372914,-14.74059907
5.1250,12.85497998,-6.308983818,-13.3192706
5.1300,-4.434817656,-4.741066106,-5.912469841
5.1350,6.456000129,-7.980560841,3.633698056
5.1400,-5.744875095,-5.801107916,12.41374915
5.1450,-13.73912561,-13.97120155,18.93131108
5.1500,-19.48504133,2.369913977,9.755472642
5.1550,-14.46381819,-3.552119133,13.6142041
5.1600,7.241905639,5.15347444,-3.332130244
5.1650,-4.375332116,2.948074274,-4.720474272
5.1700,-0.3805455648,-6.03223997,-10.32837127
5.1750,-3.76476087,-11.63941167,-5.43565765
5.1800,10.4045623,-2.190880024,-16.63843721
5.1850,9.453276264,-2.780002082,-17.20703786
5.1900,6.772032755,-10.80422759,-10.29509416
5.1950,14.32028508,-17.27250265,-4.512651816
5.2000,-3.647237907,-31.39094988,8.603774352
5.2050,19.24651084,-31.43166605,11.49444456
5.2100,17.78146442,-40.07131749,13.23348016
5.2150,25.26764734,-39.86561901,9.611107869
5.2200,19.20337691,-55.8782824,13.61166675
5.2250,10.00177629,-48.03280516,10.65555875
5.2300,5.537699548,-47.01529185,5.994606712
5.2350,16.992152,-29.61877268,-5.78953826
5.2400,16.68451603,-16.19187404,-18.4143143
5.2450,17.06705563,-0.5516025043,-34.33682557
5.2500,21.5994851,-3.046668183,-30.8388055
5.2550,24.19247719,5.007243002,-27.01534155
5.2600,25.41770931,13.57905055,-28.49468162
5.2650,21.88925624,6.784061537,-16.71087344
5.2700,4.783439345,1.386969764,-8.071457375
5.2750,6.946127656,19.44821424,-5.032302242
5.2800,-3.929813449,18.4663851,6.615563673
5.2850,-3.970439752,10.8027773,17.72518498
5.2900,11.09202344,19.07267224,17.23601448
5.2950,-9.278493661,18.60776861,27.24890171
5.3000,2.414119961,17.09331351,16.31798894
5.3050,-21.71755015,10.96719601,9.538253464
5.3100,-19.80544539,-1.194630669,-1.316248424
5.3150,-29.68690738,6.179404929,-6.056008243
5.3200,-31.78750046,1.782214867,3.708229976
5.3250,-38.56540532,0.8445135833,7.974757674
5.3300,-23.3761896,1.713249503,-3.440011372
5.3350,-15.61937141,-8.519313931,-3.570814124
5.3400,-23.36012937,-8.449403992,-15.48444207
5.3450,0.5315852137,0.1783252614,-16.9123416
5.3500,2.268377305,7.222588726,-7.033932131
5.3550,-4.605172512,24.02991956,10.3440658
5.3600,3.735326273,24.56216695,19.79968218
5.3650,-4.596141339,27.7193896,21.88045988
5.3700,-13.15637323,29.76709328,16.93600114
5.3750,-4.680478673,37.09830776,15.25150891
5.3800,-15.38216893,20.81152575,16.8331233
5.3850,-16.31772542,22.35833399,23.5162927
5.3900,-30.8696962,14.15908953,25.48865027
5.3950,-39.42579284,-2.681050479,31.9654415
5.4000,-34.23470219,7.85812115,10.30844583
5.4050,-26.30221418,-16.06669635,2.235850524
5.4100,-20.95894796,-13.67641564,-15.44408907
5.4150,-8.814355746,-16.20673508,-23.56513726
5.4200,-14.67125299,-21.44317804,-24.47019791
5.4250,-10.55565365,-2.499271151,-32.00234569
5.4300,0.2338907821,-11.87834578,-14.75914482
5.4350,-10.66699134,-4.09194296,1.427409299
5.4400,9.150588801,-4.480500895,14.32524594
5.4450,8.013907178,-11.38693577,23.59738882
5.4500,-7.736131156,-18.40606832,27.67451891
5.4550,-18.10907153,-21.5737359,20.85134907
5.4600,-39.94159485,-12.01103622,6.068129788
5.4650,-43.39927564,-23.4082154,21.08410136
5.4700,-43.82011568,6.650211562,3.753127049
5.4750,-55.73731184,0.9538189168,1.077186051
5.4800,-34.03406542,-7.434553897,-12.01783933
5.4850,-33.68563907,0.7604533193,-28.87215288
5.4900,-26.79104467,-10.93991017,-35.79034492
5.4950,1.50671354,0.4651255806,-39.57131426
5.5000,17.41740716,-5.247822817,-46.24720992
5.5050,12.06955723,-11.01852101,-32.98295781
5.5100,6.77577468,-21.4341666,-9.545288164
5.5150,-5.065632225,-22.16097675,10.36535184
5.5200,-23.83786836,-24.03480689,27.04650063
5.5250,-46.63207556,-16.46045689,31.77881747
5.5300,-51.03586532,-31.84187881,39.17718002
5.5350,-73.90708526,-18.50842937,29.63764534
5.5400,-46.63452209,-3.017055822,7.351808515
5.5450,-51.4832345,-6.769864857,2.664196323
5.5500,-26.59567237,-12.89610969,-13.4710607
5.5550,-12.67039606,-7.625175817,-17.24039287
5.5600,15.58258038,1.888462447,-32.35694455
5.5650,23.42658642,10.34557848,-39.32662194
5.5700,30.3377315,18.94661416,-49.02904736
5.5750,37.87808236,25.89351875,-28.79054385
5.5800,51.99212492,19.26664995,-8.336231522
5.5850,55.81262402,9.016659762,11.57069238
5.5900,37.57228788,-8.543882385,45.40933782
5.5950,13.15590122,-3.170213314,57.0153331
5.6000,5.105654767,8.213171654,63.96402946
5.6050,-21.98796692,3.335206889,61.66981309
5.6100,-37.78683068,-9.957128191,47.44333174
5.6150,-52.53932546,-14.84149014,28.75810111
5.6200,-43.03485428,-4.812776551,4.80000563
5.6250,-27.99478851,-4.076237116,-9.777519307
5.6300,-16.47345523,-14.39947673,-31.03995549
5.6350,-0.06488307464,-11.86674681,-46.45730816
5.6400,13.85632569,-5.126644054,-61.22339493
5.6450,31.0739227,-4.239623147,-56.70929048
5.6500,31.70729052,12.13807266,-48.924973
5.6550,40.67635874,8.499579238,-20.87174968
5.6600,24.62975158,2.696480044,-7.86643168
5.6650,15.83713053,-9.025008,14.10260203
5.6700,-11.16006374,-11.66489782,34.2405357
5.6750,-44.60225201,-11.99207107,45.36532211
5.6800,-43.57766984,6.991974785,37.50297258
5.6850,-47.10641083,11.12811764,32.48976881
5.6900,-51.27253979,13.21563683,19.83043716
5.6950,-45.99666832,15.02842389,19.96084231
5.7000,-45.34441605,42.70790506,1.378868255
5.7050,-15.96320795,24.02973433,6.408456389
5.7100,8.3794974,25.12276616,-18.33264866
5.7150,6.751120864,3.593907725,-27.89350866
5.7200,-5.715007967,-0.6419859133,-34.78957995
5.7250,20.20390334,10.34413823,-28.96177993
5.7300,6.972873983,12.92113441,-11.86473784
5.7350,-2.876114024,10.24228459,7.958607534
5.7400,3.220112552,8.949697625,17.52312828
5.7450,-41.94780975,7.345190981,21.18141057
5.7500,-36.2269248,-0.0588925794,24.87401217
5.7550,-48.17450747,0.2085399185,30.98498869
5.7600,-55.35971032,1.013485361,29.86067833
5.7650,-63.19037191,14.3160635,25.93996004
5.7700,-67.25104351,14.00204511,13.80852874
5.7750,-50.78947983,16.86576618,-5.274208427
5.7800,-33.26117277,0.860704944,-20.0139708
5.7850,1.343569158,-27.65565069,-27.37727359
5.7900,17.63158867,-41.23749416,-36.40289401
5.7950,32.95471989,-44.85213029,-38.30145099
5.8000,50.97612558,-45.38472356,-35.27838832
5.8050,52.62249635,-38.51424922,-18.40689891
5.8100,35.85271313,-23.94245526,-3.520699417
5.8150,18.1084667,-9.027982896,13.78250414
5.8200,-0.9622923878,7.269957605,26.47257807
5.8250,-18.98990537,14.93239909,33.65418288
5.8300,-34.84601952,21.59247407,34.85362754
5.8350,-42.69826763,17.92799177,34.80277129
5.8400,-57.48748057,23.32420045,32.97647882
5.8450,-50.75079088,35.49633505,21.43643163
5.8500,-49.71981068,23.98144838,12.21353753
5.8550,-23.13410408,14.98802615,1.002649674
5.8600,3.208216593,5.782286799,-14.33374311
5.8650,25.42825365,-4.744646927,-36.5950394
5.8700,38.59536408,-24.14858424,-43.2373137
5.8750,69.8710356,-34.04964485,-37.55296831
5.8800,93.46593673,-30.5594697,-39.88296969
5.8850,84.82790678,-28.79300848,-31.64182371
5.8900,68.0964174,-27.69803571,-10.80524801
5.8950,39.31316713,-18.17354165,9.964921493
5.9000,15.35104634,-5.50888226,26.05590224
5.9050,4.968449266,7.66695611,33.30141243
5.9100,-19.06979298,3.964654846,42.34206943
5.9150,-28.16664074,4.742988012,45.43912587
5.9200,-36.81684491,5.000815211,39.54571411
5.9250,-35.24481039,-4.603312908,34.79538528
5.9300,-33.0074213,4.663237044,19.94463143
5.9350,-21.55598765,-10.8404438,6.844246488
5.9400,-6.935886806,-13.74209932,-26.37916785
5.9450,3.713732375,-20.31565676,-34.14746653
5.9500,32.72918178,-21.42087849,-38.07695379
5.9550,47.85275524,-37.34697232,-29.72982731
5.9600,59.8531084,-30.67079784,-38.74797537
5.9650,64.509903,-33.18038822,-22.52903354
5.9700,54.41498642,-34.14926632,-9.414714184
5.9750,28.97742337,-20.59160836,8.617066412
5.9800,18.01860214,4.190458702,17.61966361
5.9850,-7.946216585,15.55018376,33.5623444
5.9900,-29.53546071,35.15279598,37.61731886
5.9950,-39.22728998,29.07862026,47.62506815
6.0000,-55.25689491,34.85415722,37.21088117
6.0050,-39.88607495,33.14137775,25.63072296
6.0100,-34.57356488,25.2061001,25.35988332
6.0150,-28.37747122,20.78344061,4.381199174
6.0200,-21.61736536,2.668368572,-7.71253071
6.0250,-16.50373381,0.5908905792,-21.96081868
6.0300,-6.734361298,-6.426622234,-32.41054148
6.0350,26.29191366,-17.42701225,-35.91704153
6.0400,22.0082663,-31.6363638,-38.87289761
6.0450,29.58659862,-39.17785051,-42.33424558
6.0500,38.22188214,-41.39609252,-34.50411361
6.0550,20.73328108,-38.27683703,-21.73477837
6.0600,-4.436997403,-34.83849454,-11.00109801
6.0650,-7.158565955,-24.29874494,-1.806027512
6.0700,-9.88622131,-10.57108158,-1.688552283
6.0750,-18.76912037,-15.16976005,7.27217404
6.0800,-5.95777473,-0.7177528918,-3.461395618
6.0850,-21.78119374,2.446474782,-12.84564397
6.0900,-8.339585653,-2.892006793,0.4231287006
6.0950,-22.7570776,11.23987015,6.633210347
6.1000,-7.489185085,13.64261934,-0.9094914691
6.1050,4.266979069,14.83819369,-6.837237954
6.1100,-1.406810014,10.87987497,-4.060859001
6.1150,16.47950201,6.024234296,8.291407978
6.1200,6.998981577,1.987034211,15.48437213
6.1250,9.751729748,2.113351587,24.92925873
6.1300,12.99172354,-0.5022004124,25.29308119
6.1350,-2.324861666,-4.740768942,27.72011055
6.1400,-10.58979144,-10.90070647,31.20205455
6.1450,-12.10342993,-11.25551253,32.2493366
6.1500,-20.76094977,0.8609647572,26.11837949
6.1550,-29.31248908,6.978228222,23.72457159
6.1600,-39.7844413,1.766807342,19.28347272
6.1650,-40.7443332,11.2019183,15.06481501
6.1700,-35.99510027,20.28791587,7.92560836
6.1750,-14.55353567,13.93697205,7.615053876
6.1800,-17.57457801,23.55713764,-12.90905634
6.1850,-2.046074912,4.921240198,-3.661318424
6.1900,4.105972612,12.26805742,-4.190041255
6.1950,26.9566614,1.353554687,-5.305599108
6.2000,25.9364383,-3.602871809,-12.91930836
6.2050,45.197565,-17.06906053,-16.63844248
6.2100,49.76139979,-19.18303778,-15.73368007
6.2150,50.28324869,-29.04233175,-15.46450695
6.2200,66.58363828,-25.5903159,-18.219464
6.2250,52.63766385,-23.81350093,-10.80771661
6.2300,48.04039124,-23.88043977,-11.86566209
6.2350,31.62104354,-22.02602721,-8.779524653
6.2400,33.78667504,-21.80581773,-1.788824763
6.2450,12.1048834,-14.35863464,-2.770246663
6.2500,-8.464210371,-21.89551045,-1.947546733
6.2550,-2.502211662,-16.95973369,-10.94871385
6.2600,-20.86294855,-28.15190462,-16.68408578
6.2650,-22.61175345,-19.82067461,-26.39219965
6.2700,-29.59302636,-31.43358935,-20.95571923
6.2750,-20.14347599,-38.28270401,-26.48668246
6.2800,-31.23726307,-38.32948411,-17.33228246
6.2850,-24.24984042,-40.75870123,-14.95158618
6.2900,-41.9245104,-38.40922136,-15.17907246
6.2950,-29.8468021,-35.64502364,-10.06248644
6.3000,-7.625911438,-25.49572561,-12.17593786
6.3050,-12.26375085,-25.35334546,-2.44892136
6.3100,20.45748329,-15.77416319,-7.711460342
6.3150,37.66188697,-10.83170192,3.96533895
6.3200,42.09954128,-4.43563305,7.192094076
6.3250,43.4175562,13.75859007,-0.2767937429
6.3300,60.45300697,26.31365172,5.523740393
6.3350,63.77059026,33.36927369,-1.328673824
6.3400,63.42283225,26.50204034,4.302863907
6.3450,60.13980348,29.11490557,6.281630706
6.3500,49.84304318,32.16027236,6.616977011
6.3550,46.82712456,26.47199739,-0.2830921058
6.3600,23.43464311,7.417568246,9.731245178
6.3650,25.2322356,-1.321242186,-1.640078252
6.3700,1.19748232,-3.887438099,3.773792653
6.3750,-18.22445398,-19.9276653,13.62334383
6.3800,8.348818965,-18.6106188,2.742336245
6.3850,2.831928516,-16.51973912,-5.483314949
6.3900,11.97210533,-31.10458073,-2.102814851
6.3950,25.98951601,-16.41926566,-5.772900142
6.4000,26.74206979,-30.16685613,3.226975755
6.4050,21.48871957,-22.28601946,14.42436803
6.4100,44.87487458,-11.74904558,5.019194573
6.4150,39.75636786,9.200862984,5.315545958
6.4200,31.48883426,9.353692775,15.11114009
6.4250,22.01799642,2.724226965,16.16965219
6.4300,13.5189246,8.019900832,4.945764029
6.4350,36.42430612,11.05412949,2.489897004
6.4400,13.37588961,-0.9042525665,7.149902758
6.4450,12.02855297,8.130590105,-2.373188805
6.4500,9.877175607,3.039282309,-2.902779094
6.4550,3.905870274,-0.1314529211,0.1426761846
6.4600,26.4813833,3.205130083,-6.310634
6.4650,11.31131501,0.254510375,-0.4968584667
6.4700,28.8953444,-7.091894985,5.806403565
6.4750,20.90723014,4.269677555,16.37594255
6.4800,22.24722354,1.285572645,15.67044009
6.4850,22.30655938,14.88635055,10.39874184
6.4900,21.5528127,20.83725189,16.49713682
6.4950,3.289351401,19.44554702,16.63704894
6.5000,-1.871277505,7.379105992,20.99445073
6.5050,3.474172413,16.12574052,22.38826292
6.5100,-5.362465744,8.481807497,20.90532752
6.5150,0.4583641421,10.04265564,15.10091347
6.5200,-2.433456162,7.803752094,13.81789439
6.5250,-6.25358402,3.117954628,14.8231506
6.5300,-2.466608353,-5.80023303,15.570815
6.5350,5.840059884,3.473200996,5.004324002
6.5400,5.632455587,4.952324082,4.477736211
6.5450,1.547512421,-6.178187258,10.49493349
6.5500,26.32751283,-5.474645497,-4.601448677
6.5550,30.7537311,-13.77161467,5.848421827
6.5600,30.22791597,-19.61289539,3.139710464
6.5650,37.3677739,-16.40237026,6.350363624
6.5700,24.31057079,-14.60521185,8.304027063
6.5750,43.31817831,-5.510986895,4.965749512
6.5800,37.99499916,-4.860349215,-0.4807749376
6.5850,28.24167639,-5.620759283,14.18344692
6.5900,32.8582256,-3.254412955,5.284311883
6.5950,12.32325301,5.644581802,11.6635348
6.6000,21.64255254,9.496331389,11.00824737
6.6050,13.38460236,14.57615074,8.745038384
6.6100,-1.888707084,21.40907051,1.793276988
6.6150,10.05917252,15.33401511,5.98515597
6.6200,7.361710946,19.04369723,-7.034417709
6.6250,16.43022336,14.67388106,4.978970481
6.6300,11.83797792,-0.5390751842,0.653053777
6.6350,9.235062494,-0.9819948149,0.3170748582
6.6400,8.797097742,-3.770185541,-3.962644704
6.6450,-6.979511108,-8.953576095,2.602104933
6.6500,4.190362197,-9.471666563,-11.24022595
6.6550,-4.267542309,-17.59239144,1.487877832
6.6600,-14.56643471,-7.134846722,-6.088369198
6.6650,-15.18367905,-4.184957194,-6.970671761
6.6700,-0.7794190353,-6.56406677,-4.868229802
6.6750,5.329204034,-9.367813046,2.093484727
6.6800,-8.498688015,-2.581895265,5.373595042
6.6850,-8.170666564,2.413122727,10.99509086
6.6900,-4.790749112,11.81484922,3.303703207
6.6950,-16.00235268,14.63930374,0.3144323477
6.7000,-19.30227845,18.98138336,-4.785051226
6.7050,-8.032970451,20.36356732,1.539127701
6.7100,-9.74462203,23.34143381,-10.32827529
6.7150,-13.04028749,11.20364523,-0.6017962269
6.7200,-13.58407742,-1.689821397,-3.172654938
6.7250,-17.73833605,-3.620587465,-8.276946081
6.7300,-6.065668019,-14.16621137,-11.78075662
6.7350,6.951139627,-14.58746486,-3.961923408
6.7400,-11.41710564,0.8735110832,-6.142518816
6.7450,-0.1418751547,-8.619538669,6.574274459
6.7500,-3.708970643,8.34404334,-5.600844876
6.7550,-5.919491273,12.4449186,-1.27725715
6.7600,-11.58560067,9.923840289,1.911357137
6.7650,-4.402570969,25.35648013,-13.34318945
6.7700,2.584564352,17.10615844,-3.75383627
6.7750,16.42206526,21.0020245,-0.05378657421
6.7800,18.51909878,16.95424724,1.023233477
6.7850,20.37449686,19.61850792,2.466679985
6.7900,26.11338149,15.83267939,-1.830170529
6.7950,30.98840421,6.587801323,-0.3451395057
6.8000,33.71243418,-0.8015716977,-5.841585002
6.8050,36.31101876,-13.81390835,3.422777612
6.8100,52.01802062,-28.83902096,0.06727741513
6.8150,50.03411883,-41.4916306,6.723593144
6.8200,56.29833476,-44.87598897,1.274658534
6.8250,67.04343728,-55.08179168,-0.7552598222
6.8300,46.48895346,-45.12125467,9.627592909
6.8350,55.39553131,-34.93381522,10.48922589
6.8400,34.16508456,-22.11345448,14.96750321
6.8450,18.85146307,-10.20706024,19.54685458
6.8500,3.304504152,8.566185963,3.369783756
6.8550,-19.29410629,7.130711014,12.25241351
6.8600,-22.0103483,15.36136201,-1.804631817
6.8650,-18.12031784,18.54592802,-5.290054772
6.8700,-32.52962627,13.49234142,3.390779179
6.8750,-17.33193501,17.79685188,0.00936917736
6.8800,-27.63710451,18.68252399,-7.258125907
6.8850,-38.4280982,7.196348008,0.5474952779
6.8900,-22.7431215,10.41558462,-10.59392096
6.8950,-25.75743602,12.77548411,-14.8560947
6.9000,-32.04771537,4.485909056,-5.193270389
6.9050,-25.83100064,16.78726589,-14.0188836
6.9100,-19.68227677,11.97602205,-8.517827912
6.9150,-4.516584555,7.276435503,-4.832815916
6.9200,-7.479935765,10.57441736,-2.37110255
6.9250,7.882155712,11.66362115,-1.048539881
6.9300,6.836669707,8.519130587,5.20917646
6.9350,-7.185354155,2.577291141,13.31919633
6.9400,1.259367586,0.650779681,5.944295786
6.9450,4.63650152,4.593607362,-7.35324111
6.9500,4.598686423,-6.806378064,-2.680677151
6.9550,1.257183593,2.15456113,-11.17188875
6.9600,-8.864962764,1.704791744,-5.577359445
6.9650,-6.946435403,-0.4090349958,-3.208550077
6.9700,-11.42994407,-0.769923335,8.86971722
6.9750,-9.148842886,11.17378518,-1.175825732
6.9800,-11.06809586,19.0844841,1.253123378
6.9850,-9.982030312,30.12707006,-3.790749925
6.9900,-16.86709131,26.57389952,-1.713931079
6.9950,-14.48795962,31.90072946,-8.325033256
7.0000,-20.65930898,18.35825736,-1.121046251
7.0050,-19.09484778,24.05531507,-10.49619362
7.0100,-21.26769657,15.3179245,-3.826224489
7.0150,-14.73663884,9.737337549,3.382379798
7.0200,-13.89472023,9.668503504,0.7443221757
7.0250,0.2609897734,4.052180495,5.607006599
7.0300,13.34958524,-3.016247988,8.181644034
7.0350,22.02824082,0.7388902707,10.38729
7.0400,27.26779298,-14.1193694,7.530851574
7.0450,29.95107813,-20.84138012,11.31175653
7.0500,28.68876654,-17.56606012,5.873676813
7.0550,25.69402297,-7.451837087,-0.8877780854
7.0600,28.61247007,-6.551345026,2.553447177
7.0650,1.963640343,0.8373942081,11.87225545
7.0700,-3.69762023,16.42290208,11.73682483
7.0750,11.10870749,24.4455458,13.58025424
7.0800,0.5705751997,20.18244747,23.69176181
7.0850,22.41094579,6.629709717,27.30047404
7.0900,21.32671252,11.06992916,20.2348205
7.0950,12.10023226,-7.509400115,25.40496723
7.1000,30.59669007,-15.3941782,11.65942184
7.1050,41.52319205,-31.71298289,19.64361124
7.1100,28.93473864,-41.05623352,23.01464748
7.1150,40.75613384,-55.27280431,23.56387839
7.1200,46.05243607,-52.89874817,7.040130674
7.1250,54.74740368,-46.19974021,9.497024491
7.1300,56.31536889,-39.00548855,6.509901926
7.1350,42.71323184,-37.26466421,16.99611957
7.1400,33.48913084,-26.82839137,10.34135097
7.1450,21.85250619,-7.105027538,11.23687593
7.1500,40.70382063,-2.576205059,11.81136319
7.1550,22.70716811,2.830599114,22.68042434
7.1600,23.69976297,15.56739799,10.15380064
7.1650,13.00150904,11.35410071,19.52859424
7.1700,1.368223817,8.329266743,19.3785526
7.1750,-0.343676512,5.286387826,13.60922571
7.1800,-12.97283146,8.93596898,16.9890649
7.1850,-15.44263613,12.7124014,11.54940948
7.1900,-8.220040332,2.778646787,12.08374169
7.1950,-20.38292543,16.12191527,3.226469594
7.2000,-17.54326648,6.811417335,-0.4320435943
7.2050,-38.33488516,12.35790354,3.048738745
7.2100,-34.1994621,11.52800036,-14.73277398
7.2150,-32.5103048,15.40461817,-1.419044409
7.2200,-37.00971563,8.826389113,-0.08998035345
7.2250,-39.63054746,12.20543949,2.321014002
7.2300,-27.99283403,23.25279002,-7.858695442
7.2350,-21.44808586,12.42702652,13.09085185
7.2400,-19.72490981,7.202820219,3.304328265
7.2450,-6.291592174,-2.249966241,7.254955116
7.2500,1.596906719,0.2145837484,8.385441991
7.2550,15.58300302,-3.785244649,11.17923457
7.2600,20.00371566,-5.453124693,4.671264653
7.2650,13.39325895,-15.4346308,18.52723341
7.2700,29.11995479,-11.5119524,14.57142081
7.2750,34.28816948,-13.96745724,18.55229765
7.2800,34.92774623,-4.660423536,9.20967084
7.2850,20.08653485,-7.91164328,16.44854566
7.2900,27.45013516,-1.808150678,9.533125999
7.2950,26.77900968,11.97434308,9.320785006
7.3000,25.3849919,14.21763099,2.588659768
7.3050,13.55577968,15.47500882,-1.370794526
7.3100,-2.541129777,15.5196563,1.667025227
7.3150,-11.52689939,30.12225999,-3.109640727
7.3200,-30.61194269,28.26836458,-0.1855205527
7.3250,-46.57168606,23.67608826,2.82968885
7.3300,-56.30619743,22.35728264,-7.38787813
7.3350,-41.05267858,5.236977149,4.161545499
7.3400,-51.52594729,1.375623811,-3.215056303
7.3450,-45.66816838,-1.748698562,-1.400305467
7.3500,-34.90038244,-9.084598977,-4.190040694
7.3550,-42.32521188,-3.174014699,-1.216797834
7.3600,-26.41744163,-16.05821153,3.058679705
7.3650,-28.68945614,-0.7530413025,9.595415038
7.3700,-16.34552905,2.66260395,3.24481545
7.3750,-11.23964813,8.867771408,4.356111996
7.3800,-25.65633974,17.90696373,1.415105672
7.3850,-8.147442764,19.87765488,-0.4815640815
7.3900,-10.79459995,16.39902306,3.077218873
7.3950,-9.564095731,21.33423149,0.2380688337
7.4000,-14.33966907,21.2282651,0.3807324923
7.4050,-24.00270355,19.87770472,-0.4822856918
7.4100,-29.44140802,13.60028151,-8.353123044
7.4150,-20.75588117,12.85928311,1.282881288
7.4200,-30.93598322,6.378339641,1.110445773
7.4250,-34.08485762,10.30248153,0.2455366719
7.4300,-23.30977769,1.413667922,2.519016974
7.4350,-30.84754516,11.49030023,-5.17274952
7.4400,-45.20629143,6.227107454,4.765461738
7.4450,-26.17753529,1.45115304,5.865296533
7.4500,-24.70333486,7.079043674,4.032731751
7.4550,-20.43841836,5.859503752,7.426924349
7.4600,-14.57074873,13.92940345,-7.724350469
7.4650,-18.01954192,5.295608045,0.2162783338
7.4700,12.90215358,-4.842988871,2.043949921
7.4750,17.07029653,-3.546879346,-2.345208385
7.4800,25.08372977,-5.456560084,-8.464145365
7.4850,30.18025054,-6.68765431,2.769098043
7.4900,38.12818796,-11.13190476,0.2088017348
7.4950,37.1290667,-12.69545518,0.5944217714
7.5000,23.93453161,-10.56331238,-3.275725654
7.5050,26.92909434,-15.90822417,14.22232753
7.5100,42.74645684,7.454015024,14.14697616
7.5150,51.41340863,20.37147112,4.058518971
7.5200,34.14326708,30.7389822,10.72806992
7.5250,30.73162624,36.37082177,12.31388952
7.5300,24.49272885,27.14649672,20.94541319
7.5350,3.807941724,5.146935306,31.7821944
7.5400,3.520487713,-16.06024261,41.54375705
7.5450,-20.30615855,-1.344711291,40.42548206
7.5500,-24.80457232,0.0177314189,39.58981351
7.5550,-26.20028578,11.98789906,24.36635469
7.5600,-24.18138267,1.665683624,14.79620215
7.5650,-16.38066136,4.591582774,-5.421417483
7.5700,-26.22376216,-20.67143099,12.07704743
7.5750,-27.97219649,-18.70978312,17.61431805
7.5800,-29.00523894,-16.33946927,17.30647969
7.5850,-19.44610884,-11.82216545,19.62837641
7.5900,-18.73720425,-10.44918675,9.985126385
7.5950,-13.4258368,-4.646346815,8.06753966
7.6000,-15.90082873,-4.243006303,2.538679259
7.6050,4.012552834,18.97109567,-10.2680069
7.6100,-0.9895766297,14.19730787,-3.137327423
7.6150,-7.143933151,8.103189375,4.362667293
7.6200,-7.700957637,22.96735328,-7.958879186
7.6250,-23.64809087,19.48730415,-6.069530568
7.6300,-7.648135299,21.59797177,-14.92236173
7.6350,-18.58777625,16.91052308,-8.456170991
7.6400,-17.33830481,16.6929347,-16.6188535
7.6450,-31.48931698,13.62105112,-17.34470936
7.6500,-39.18767021,-0.772501345,-11.81544412
7.6550,-29.92780245,-7.515078903,-9.69671974
7.6600,-21.74648676,-13.08498837,-11.84947313
7.6650,-14.36014306,-1.833142987,-19.95664517
7.6700,-7.587005104,-19.45345438,-20.02278094
7.6750,-5.696202759,-22.23481968,-17.54763237
7.6800,-2.524060434,-20.62528641,-17.06825441
7.6850,0.5746956799,-19.6478467,-7.344939756
7.6900,3.42109431,-17.84220865,-11.33733251
7.6950,-6.000378841,-16.19211733,2.84104934
7.7000,8.359674076,-15.43120669,5.971261979
7.7050,11.19782978,9.6713312,8.527133628
7.7100,-20.20275768,15.35933596,16.83789106
7.7150,-36.27964016,14.41310625,27.55794143
7.7200,-39.08716704,24.83693716,22.22534611
7.7250,-45.29875048,28.84945255,31.86519704
7.7300,-41.19297829,23.89391641,41.338184
7.7350,-36.20490988,42.78439977,34.1557609
7.7400,-40.23676214,19.81544045,49.29544946
7.7450,-51.94894775,14.9734629,45.8394498
7.7500,-45.43452445,8.821425015,29.97780264
7.7550,-35.28180932,11.21112397,19.64685079
7.7600,-24.05280571,7.727986136,6.950535791
7.7650,-12.65530929,5.171128464,0.3786675899
7.7700,-3.346115872,4.575857545,-4.041707449
7.7750,6.309136254,-14.29739563,-0.9079925952
7.7800,2.597924825,-21.51663544,-0.7078920049
7.7850,-0.9432416009,-22.851581,1.409493929
7.7900,12.57732601,-3.000579008,-13.1199642
7.7950,24.7821469,-3.413280117,-15.9673914
7.8000,27.80382866,-16.08954098,-12.38097561
7.8050,47.9972136,-14.70019313,-19.84704538
7.8100,25.59052106,-17.30391484,-15.90473884
7.8150,19.97350034,-9.092469806,-15.68870561
7.8200,12.5154881,-6.592356781,-8.265472967
7.8250,13.56152083,-7.442744575,-0.9607801062
7.8300,1.870682965,-9.923025752,1.629018023
7.8350,11.07329056,-15.61085004,-0.8289008334
7.8400,14.32257962,-21.77685114,-8.651544373
7.8450,-13.09724726,-10.07176836,-14.34953209
7.8500,4.818020299,-6.267562317,-13.33788502
7.8550,22.04533876,-19.12245005,-0.3913384075
7.8600,19.10161112,-33.92715023,2.944872814
7.8650,19.31222394,-35.31835533,-5.83817876
7.8700,15.09905546,-38.21020426,-7.185524635
7.8750,5.331657182,-32.98600142,-4.599414023
7.8800,7.817125115,-19.55135618,-10.39671522
7.8850,21.64905751,-14.53334305,-18.294634
7.8900,11.41292453,-15.3607883,-13.07137402
7.8950,18.04324874,-6.869856513,-11.45358933
7.9000,12.30044557,5.212711714,-2.330942184
7.9050,5.014014591,7.109659099,10.80299004
7.9100,2.843540458,-1.888666496,11.88276865
7.9150,-9.228517141,3.098088318,-3.68456957
7.9200,-1.673513599,-2.26542616,-4.044877977
7.9250,1.439521036,5.886275414,-4.915399071
7.9300,-5.623504007,-6.892273609,9.404439624
7.9350,-14.35957965,-8.997712,10.62006015
7.9400,-7.138637563,-4.3854269,-3.823126825
7.9450,-1.154280909,-11.88454184,-4.751646666
7.9500,4.484138223,-13.10337968,-8.529861489
7.9550,-14.73767457,-23.42934808,-2.066768707
7.9600,2.853109046,-22.12091583,-3.375213599
7.9650,0.2210194957,-23.35259264,-8.107451978
7.9700,6.269164758,-28.88083866,-9.002838152
7.9750,7.509547581,-23.22817242,-21.00919085
7.9800,1.510535574,-31.09000283,-18.14686733
7.9850,5.773115788,-24.86195344,-19.79674764
7.9900,6.287321748,-10.90878802,-22.19402064
7.9950,17.3242502,-7.635783393,-24.49231584
8.0000,26.71778549,-11.15706001,-23.4530237
8.0050,18.45627084,-9.856994566,-21.77512612
8.0100,21.95445231,2.077357644,-11.77649941
8.0150,23.73836329,0.08665927767,2.060845274
8.0200,27.92319519,-0.2977453511,4.901473909
8.0250,29.39952601,-0.5324430825,-0.03808341716
8.0300,4.755518148,1.395859053,11.59360531
8.0350,-0.6011469757,10.30041265,14.73225897
8.0400,1.025806035,15.57241102,11.93358364
8.0450,-21.61412261,5.661137835,22.70051756
8.0500,-12.97081711,-3.954319663,14.67073144
8.0550,-32.9901403,-4.476302387,8.443601024
8.0600,-18.65408355,1.684807993,-6.562117414
8.0650,-4.277090846,12.64646388,-10.18110472
8.0700,2.136992427,-4.126742123,-13.60426526
8.0750,6.902860303,-16.18036357,-8.177810116
8.0800,7.642113466,-8.89192032,-21.86790971
8.0850,6.689680621,-12.80036887,-14.81116342
8.0900,16.33552259,-9.302434225,-13.5191421
8.0950,15.978224,-2.680491353,-9.832074567
8.1000,8.81698434,-0.1433636525,-11.31006157
8.1050,1.993964461,-8.454675407,-6.050471946
8.1100,-5.283121374,2.338812148,-5.052696622
8.1150,2.767968975,10.25911966,8.297401836
8.1200,7.857714251,14.29277163,-1.176667845
8.1250,-0.954778655,7.180001094,-1.930556585
8.1300,6.358528175,13.22119033,-9.562164468
8.1350,4.929622979,24.40091531,-4.756226178
8.1400,10.06696097,27.90584669,-3.976900459
8.1450,-7.027808548,17.15896514,-3.091714194
8.1500,-20.92178213,4.39839102,4.306570646
8.1550,-15.61888333,-1.471682421,1.022021326
8.1600,-13.6573594,-7.416458456,1.357106707
8.1650,1.816807507,-15.34122534,-3.423589307
8.1700,15.24144672,-30.94506262,3.401003928
8.1750,9.397071107,-21.07788218,-3.69143074
8.1800,5.045346208,-19.92812908,1.262648057
8.1850,-0.2583432105,-10.90183826,0.7825682241
8.1900,-7.641191083,-4.718218149,3.98601194
8.1950,-15.5239316,-2.25719879,6.629525711
8.2000,-11.32491052,9.201416849,-1.594389925
8.2050,0.01861179157,8.918580959,1.582607484
8.2100,8.831502443,7.584014188,-0.6658125936
8.2150,-1.966238854,10.48601264,-1.084487364
8.2200,5.474586893,7.679523245,0.64291942
8.2250,-6.424870277,8.404844612,4.158382823
8.2300,-16.44529864,3.376223838,11.81864585
8.2350,-0.8900751522,11.97331801,6.824734469
8.2400,8.51339472,8.857342517,2.142512635
8.2450,-4.68028086,-11.22857637,5.748356224
8.2500,-11.31950211,-18.52692484,-2.465438549
8.2550,-11.56031289,-12.52098875,-4.146601091
8.2600,-0.5127454106,-2.458199069,-10.03911084
8.2650,9.105563186,0.6290835447,-6.598236712
8.2700,26.6425234,0.01016067105,-3.625673599
8.2750,17.79139269,4.584740254,2.962872724
8.2800,22.35446493,-18.16772104,2.68951376
8.2850,18.99820497,-24.75961692,-5.511706641
8.2900,10.9652012,-49.20596877,-1.941857858
8.2950,16.55568158,-49.30020965,1.786196016
8.3000,13.9419771,-66.78005357,19.5542725
8.3050,-7.629521981,-69.87113139,19.46674759
8.3100,-25.75041822,-76.14659126,21.01874183
8.3150,-23.07965051,-52.30710592,10.82050565
8.3200,-33.02974907,-48.51450193,6.75414487
8.3250,-62.52899383,-36.11194036,16.05099708
8.3300,-76.13949723,-14.32786893,13.10107023
8.3350,-58.88324231,20.71365305,4.068534393
8.3400,-51.54714361,28.6057889,-13.81533384
8.3450,-41.7049474,31.99753753,-28.51422985
8.3500,-26.70746345,21.51171521,-38.16509186
8.3550,-12.35109676,29.78015212,-38.49481608
8.3600,-4.239498881,39.5723421,-30.436524
8.3650,15.8614063,42.54401962,-12.5378633
8.3700,20.54966726,31.5192653,-9.097605424
8.3750,26.79398519,9.310302415,-6.490399915
8.3800,41.23480592,-4.352025587,-5.745951339
8.3850,44.33479152,-2.163422964,0.03554223662
8.3900,32.68536623,-2.36583261,1.911316798
8.3950,34.10509409,-12.71266955,19.63303032
8.4000,33.84601411,-13.2710724,23.83257948
8.4050,50.76623551,-2.939007236,24.95935471
8.4100,56.02642387,-8.909821735,17.78619522
8.4150,47.91060299,-22.87188505,16.72293942
8.4200,52.25961256,-4.796314231,5.73831496
8.4250,29.49434032,-7.10541387,19.73906989
8.4300,14.02779615,-8.16994707,14.06995859
8.4350,16.22820578,-10.91912804,13.20810573
8.4400,36.00407223,-10.93758109,13.47407177
8.4450,25.83943965,-8.131873596,2.381731285
8.4500,14.92078272,-20.13185614,3.064741043
8.4550,24.70061189,-17.47717638,-4.552497255
8.4600,28.08647409,-28.3937305,6.331647653
8.4650,22.61143802,6.795782123,-7.056595496
8.4700,21.43519994,21.04183815,-10.36896294
8.4750,27.79352738,20.8582192,-22.77815384
8.4800,17.05636596,8.200839106,-24.36729909
8.4850,3.197257575,7.828173232,-11.44942435
8.4900,1.244019602,0.8644263382,1.012334398
8.4950,3.375233553,-2.413666201,1.084071796
8.5000,6.363882122,-11.15706433,-11.10135059
8.5050,9.659181143,-5.10395124,-11.92703821
8.5100,-6.449253361,-0.0893800619,-10.76911885
8.5150,5.884162202,17.40522519,-13.32468247
8.5200,20.25607025,11.70272244,-16.00065388
8.5250,12.57990628,10.09210907,-11.62538729
8.5300,5.899572445,-3.607823409,-1.742877718
8.5350,-9.487868282,-11.78160337,-5.561410414
8.5400,-5.149997067,-10.11989156,-10.01085432
8.5450,-18.36726922,-12.03443136,-3.214450505
8.5500,-15.75409772,-19.4817214,7.937414838
8.5550,-15.75665382,-16.61317961,5.627302372
8.5600,-33.4052905,0.9916778175,3.223515963
8.5650,-28.21391517,14.63451272,3.941153355
8.5700,-39.64954194,18.0570295,-9.952887808
8.5750,-28.09479419,15.64845537,-16.8276324
8.5800,-0.7987771384,23.71149569,-26.24425084
8.5850,-2.486738767,12.40284785,-17.36351212
8.5900,-2.762977967,11.8730264,-20.46135694
8.5950,-8.240666986,14.62799392,-5.253443256
8.6000,3.714076572,15.26914821,-5.936810726
8.6050,-6.719702739,6.972973023,6.701387344
8.6100,-13.58571591,7.153745584,6.207772341
8.6150,-10.51756455,-2.224302739,16.62797885
8.6200,-17.08964478,-5.801757974,9.00929048
8.6250,-17.20048311,-19.64411804,10.42588056
8.6300,-18.15445738,-24.15029896,9.810644818
8.6350,-21.094773,-22.42686276,0.9072473065
8.6400,-25.74486804,-9.894474083,0.8778769212
8.6450,-11.11498039,-0.7495621656,-6.078062303
8.6500,-31.47142067,-5.555076508,-10.35058936
8.6550,-10.57594614,-0.3683858154,-6.671594857
8.6600,-4.846013984,-6.482584067,-14.17064739
8.6650,0.066916935,-4.25062583,-10.30808367
8.6700,0.08838428881,-14.36974525,-19.18663371
8.6750,-7.463347376,-12.06396957,-9.534400452
8.6800,-7.017540576,-8.586438456,-2.7400584
8.6850,-18.72378593,-15.22681014,15.72266174
8.6900,4.009903144,-4.611927752,18.22216965
8.6950,-17.19393839,1.76111094,21.00496998
8.7000,-3.247949113,19.91025925,12.58583814
8.7050,-2.353519641,30.11375307,4.604611782
8.7100,-6.713019895,16.43807739,-2.837076098
8.7150,-16.54374957,4.379756985,4.705988471
8.7200,-10.51286365,3.149382744,-0.06582445991
8.7250,-11.48667566,5.253978576,-0.3081072589
8.7300,5.719027954,18.53831516,-1.984017757
8.7350,13.21309155,5.471321689,4.694431231
8.7400,0.3007799138,-5.493406027,8.988874873
8.7450,3.108426211,-12.94012856,12.28583508
8.7500,17.9062638,-26.854197,13.38246928
8.7550,2.707026558,-15.76513745,20.66886412
8.7600,24.6004221,-12.64877303,17.43397752
8.7650,-10.24742699,5.763111441,8.835177533
8.7700,21.18547499,-18.15677162,2.748855579
8.7750,23.48487791,-8.443299838,-3.929507459
8.7800,14.36394453,8.415849693,-13.94934588
8.7850,-1.648504263,4.098770668,-0.6268632959
8.7900,0.9354659784,1.112942644,-0.3304867467
8.7950,19.16332994,-5.196655326,0.6864628366
8.8000,-4.966680902,-16.04570784,5.362159261
8.8050,27.59354976,-8.331149424,-13.38700623
8.8100,18.17088408,-9.208266737,-7.738794829
8.8150,1.784016224,2.184417467,8.574989771
8.8200,16.5706837,1.858392884,20.80620576
8.8250,1.561990522,13.28245489,17.99834816
8.8300,15.93323284,-2.442505025,20.57453177
8.8350,20.04299606,-13.67698694,22.0179689
8.8400,13.99709231,-10.91365872,19.51659712
8.8450,2.734977555,-14.33619958,20.03058531
8.8500,12.4891138,-2.203477538,-1.966572372
8.8550,7.918083868,-10.33428218,-8.199200273
8.8600,26.57142615,-7.211673117,-15.55082662
8.8650,-2.16554675,-25.33705012,2.656950972
8.8700,5.396019759,-33.52160109,9.486352832
8.8750,15.77648229,-24.26893197,6.675455299
8.8800,27.2882449,-1.958826933,-1.361626541
8.8850,21.53472455,-3.368532596,1.158082145
8.8900,11.72081272,-0.85824179,-0.0837232623
8.8950,18.71628461,5.696187223,-10.77512805
8.9000,17.19275271,18.24050793,-20.58014579
8.9050,26.05988291,16.86293872,-21.60756316
8.9100,25.59983012,15.29873703,3.02745486
8.9150,-3.722926584,1.932742988,21.62816492
8.9200,-6.950399488,9.446944904,8.277970295
8.9250,-3.235850802,2.834699003,-1.314027668
8.9300,-5.42474926,-7.770826864,-14.35712157
8.9350,-0.1497213421,-10.10284347,-14.86903513
8.9400,16.94631554,-23.62043647,-16.02261019
8.9450,9.860528308,-15.90673375,-6.063014963
8.9500,3.0926135,-2.959099744,-5.912718264
8.9550,1.483166182,-4.565284364,-7.512132768
8.9600,11.75326995,-6.053604476,-11.77750755
8.9650,9.998964672,-20.39395192,-0.1146632924
8.9700,-5.438038021,-11.77543897,5.831449989
8.9750,4.907267358,-0.5227291537,-3.539286902
8.9800,9.496625663,10.01299837,-7.991871693
8.9850,18.1028178,22.23416872,4.116405933
8.9900,19.5939562,12.24142039,21.27232681
8.9950,6.902165002,13.17169521,34.24072076
9.0000,0.9342147311,24.82277996,22.31051685
9.0050,7.021963727,21.3652522,22.23432991
9.0100,18.73549696,1.437272212,22.74223833
9.0150,0.9109567537,-6.680472264,24.37814283
9.0200,4.078453324,2.07908644,3.886550243
9.0250,13.64974887,-4.937372874,-6.302393697
9.0300,5.111347026,-13.36842316,1.327805684
9.0350,1.909418969,-13.02961494,-2.425436564
9.0400,1.929173065,-11.9482052,-4.98253267
9.0450,13.84773836,-0.6592145701,-25.92150903
9.0500,25.12774688,-7.475584416,-33.75786498
9.0550,10.17254592,-11.48882913,-22.87402109
9.0600,0.9820086919,-10.67694604,-25.25476502
9.0650,13.58191589,2.819826309,-19.77555084
9.0700,-10.55653068,0.2503273048,-5.782475775
9.0750,9.085819806,12.7194947,-5.804076343
9.0800,-6.773406439,-6.179087606,8.26666319
9.0850,-4.941440508,4.942516215,12.05887825
9.0900,-7.335014562,-1.459523572,7.884698866
9.0950,-14.32743375,-10.0239577,1.873951091
9.1000,1.260751832,-18.31806716,-18.36535372
9.1050,-13.90163382,-2.624775665,-33.42959423
9.1100,-11.98315434,-7.472830408,-30.90347932
9.1150,-12.12372159,-5.230817702,-21.05299179
9.1200,-30.39095653,-2.061334944,-3.956243134
9.1250,-5.234281862,-3.221913186,-2.259357557
9.1300,1.878034155,16.57554182,-7.867069388
9.1350,11.81964565,8.731039764,0.7468418083
9.1400,-6.593417343,3.368425789,2.951803804
9.1450,10.7402726,10.98866759,-1.206803509
9.1500,-1.34753595,25.26435782,2.429063669
9.1550,0.2464377849,36.18213007,6.681980587
9.1600,8.265852198,35.91543345,9.155338978
9.1650,-0.5045840308,15.61828055,35.48714731
9.1700,7.477626776,18.66595487,43.69498758
9.1750,-12.14941588,12.22925427,65.56613885
9.1800,9.945541293,17.14588356,46.30333149
9.1850,1.952999673,3.516246829,33.58693412
9.1900,4.077511534,-10.17073136,14.19452465
9.1950,4.696484717,-11.38216345,-9.556165468
9.2000,-7.68237382,-7.924319249,-15.41248057
9.2050,0.407152736,-22.21125994,-17.40679418
9.2100,-1.775700864,-21.57211383,-13.80520293
9.2150,5.750485125,-14.54859697,-5.502158197
9.2200,5.123695484,-17.28548036,4.436864255
9.2250,9.214150259,-21.91845641,-0.6626800171
9.2300,12.03661418,-8.58108658,-16.9446216
9.2350,32.3226569,-3.953897331,-20.76885471
9.2400,14.57277106,-13.44102111,-16.18203965
9.2450,14.7406618,-12.17246374,-16.46166236
9.2500,4.786076605,-15.7992576,-12.06789955
9.2550,-4.380033929,-14.74932337,-9.340385055
9.2600,21.7970713,-28.33251862,-13.07483768
9.2650,-0.1770566422,-34.97509474,-2.965178703
9.2700,-5.60281506,-41.82181349,-4.54921421
9.2750,-8.342784889,-43.9315643,-10.08094705
9.2800,2.205476955,-22.69138773,-27.46656893
9.2850,13.73702869,-24.98957749,-27.43907551
9.2900,6.073712526,-20.8090562,-24.66946996
9.2950,2.097329459,-8.143677279,-13.93171521
9.3000,14.17214287,1.318353486,-16.58334478
9.3050,1.470059349,-8.152384853,-1.997418089
9.3100,-2.629543371,-4.262871317,-1.15416144
9.3150,-5.009870835,-3.936771164,8.989900043
9.3200,-1.373780632,-5.42013807,-2.078563787
9.3250,9.847592086,3.048167407,-9.493317262
9.3300,17.80450197,14.65397954,-20.52464164
9.3350,9.546492752,-3.86486906,-8.238504062
9.3400,7.049486083,5.660435859,-14.57945927
9.3450,-2.154238099,2.651921627,-7.060774205
9.3500,-0.2102913918,2.696510527,-7.930334042
9.3550,1.755976257,-13.80510528,1.894195513
9.3600,7.285883873,-9.101571558,4.956704298
9.3650,12.35127888,-3.389086497,3.77799274
9.3700,5.726700123,3.316938594,-6.959659768
9.3750,23.71206458,6.346862647,-6.770314035
9.3800,16.5743804,4.322244179,-6.392235377
9.3850,13.47352614,12.49407064,7.991076454
9.3900,15.13779559,16.25448986,9.72084436
9.3950,20.71142038,7.420986956,5.496039308
9.4000,-2.762459653,4.118389598,12.42475022
9.4050,11.25125254,8.393342934,4.132738384
9.4100,14.18952106,5.366576927,-2.051107153
9.4150,-8.105574814,-14.77943964,11.40625161
9.4200,2.022743346,-10.78704567,9.370742216
9.4250,-5.9104712,2.750198549,9.220972924
9.4300,1.780922253,10.13807323,1.941180148
9.4350,17.84627096,11.96556761,-5.428188577
9.4400,1.832151681,7.935639601,-1.225413246
9.4450,-9.709150435,7.113633896,0.3086287781
9.4500,-8.281973215,5.727145384,-9.654066462
9.4550,1.7526696,9.735436714,-17.75887062
9.4600,1.975866263,10.18091715,-9.723264724
9.4650,0.5344390767,7.22397093,-3.382452475
9.4700,-12.0612348,11.4833508,3.841501802
9.4750,10.92552842,13.22272898,8.240128904
9.4800,19.31949306,25.32382722,8.390714964
9.4850,2.974794965,13.42163619,16.59984104
9.4900,15.53310408,6.878846118,10.78683256
9.4950,12.48518379,24.11305545,1.565715873
9.5000,-3.371141789,9.848638151,14.31077925
9.5050,23.76577988,3.684405313,7.599927206
9.5100,43.01918673,-0.9441957007,6.237137786
9.5150,24.58646953,-10.11971376,-0.4825524249
9.5200,22.07644696,-21.09454375,3.365390252
9.5250,17.9140588,-26.8058857,12.49837416
9.5300,8.85835511,-28.78355453,20.28478138
9.5350,5.17242227,-15.62852441,10.79553421
9.5400,7.858516709,-15.89687779,5.014130907
9.5450,40.929192,-12.70207046,-9.372647735
9.5500,26.6966444,-6.210675004,-0.1352056563
9.5550,14.58996303,-2.220935477,8.065064283
9.5600,22.07790829,5.385927242,2.816392745
9.5650,8.06785265,-4.687556595,3.685932786
9.5700,13.61320758,5.529516731,-8.125478191
9.5750,15.68088166,-4.826282769,-0.7403295531
9.5800,15.14910831,-5.57062403,-2.010426932
9.5850,17.19602689,-6.692877386,-0.2996359442
9.5900,10.68785099,-5.794932939,3.962181585
9.5950,4.572339915,-10.41126242,7.23920661
9.6000,4.380185103,-14.63782043,4.277241019
9.6050,6.26050018,-3.027465872,10.9740551
9.6100,15.45073973,3.036843303,-6.685907775
9.6150,6.067804311,-4.006553528,-16.03425748
9.6200,14.29270577,-19.37602794,-20.34017647
9.6250,2.500733927,4.159645367,-16.67197091
9.6300,6.099534192,8.652749568,-25.87193989
9.6350,10.3606726,-4.845132289,-20.42453244
9.6400,3.932659208,-29.91774549,-10.14768853
9.6450,15.19995554,-4.265954714,-26.93881772
9.6500,10.35519108,-14.74752891,-29.74067535
9.6550,12.99941425,2.597567312,-36.2307797
9.6600,12.69361932,-7.263311005,-22.42131644
9.6650,17.22426465,-3.730311787,-13.78835763
9.6700,-4.87814833,-11.8539374,8.979633107
9.6750,1.838698549,-15.04114817,4.281168201
9.6800,18.38694202,-10.65442348,-18.62685527
9.6850,22.6766681,-7.894931086,-27.56919845
9.6900,-3.484742202,-5.530843776,-16.88856513
9.6950,-16.29905136,-8.036427018,3.130407049
9.7000,8.728889713,5.898420835,-11.96479143
9.7050,3.700058226,13.69959559,-2.129868395
9.7100,6.542301617,7.604264684,18.43482702
9.7150,1.828775156,10.60037413,20.04087927
9.7200,15.07697215,19.24316209,4.194454118
9.7250,4.387682401,27.22363917,14.99576059
9.7300,-3.700518232,38.24734693,9.308866128
9.7350,-14.44970854,27.69835352,10.71628576
9.7400,-7.588235168,47.3870589,-7.326135736
9.7450,-5.678317317,29.61364208,19.40408459
9.7500,8.773369408,29.81866626,5.993261649
9.7550,2.506788722,22.80740118,-9.77298533
9.7600,9.904382034,25.99530862,-35.83266448
9.7650,-7.037774161,10.15075667,-9.555445249
9.7700,1.098334767,5.095091879,1.297592417
9.7750,1.249781933,11.3316524,-9.44594948
9.7800,-0.3932902424,-17.68452401,-13.68086539
9.7850,-16.87016138,-14.51009589,-12.53978346
9.7900,-10.00389791,-16.75197338,-9.938368254
9.7950,9.205838596,-29.41956903,-6.183270596
9.8000,-4.472817723,-28.82698758,-15.04792168
9.8050,-7.263590031,-27.90124998,-3.491832235
9.8100,-9.611260978,-16.77953292,3.634123121
9.8150,19.11580368,-10.38528587,-1.998398387
9.8200,14.46859982,-16.75531333,2.496636841
9.8250,8.477360424,-13.59900228,-4.98141893
9.8300,14.07930329,-8.005192304,-5.098849779
9.8350,1.810197165,1.416169335,-2.52579617
9.8400,4.345464507,4.45703882,-6.963840131
9.8450,-0.4050086424,-2.901846201,6.069123612
9.8500,19.26159866,0.1787966772,0.2384784314
9.8550,4.270378501,3.886668544,17.3172163
9.8600,27.46949308,-1.008498791,13.47649961
9.8650,23.70027888,-8.461511312,12.569673
9.8700,28.08026513,-16.14450902,12.32121158
9.8750,20.47574204,-14.78311877,18.03641657
9.8800,9.701175544,-6.977283566,17.52213432
9.8850,15.90301804,-14.43009642,19.89375604
9.8900,14.253852,-3.496249374,18.12782754
9.8950,11.25081168,-4.324974421,27.23996476
9.9000,1.691652535,4.575779876,31.94752747
9.9050,17.25511142,14.42870629,32.55853468
9.9100,13.10640272,3.870742714,37.6957295
9.9150,14.19287656,23.03416684,18.76612049
9.9200,16.87487321,25.37647058,8.062717607
9.9250,23.31896245,25.57851639,8.883249478
9.9300,13.47596997,25.89386349,19.52049969
9.9350,6.266321637,20.16209045,26.77179547
9.9400,17.18682478,12.3245651,35.36558678
9.9450,26.7827419,26.37579841,15.89955734
9.9500,6.522734275,5.136303442,30.05089796
9.9550,11.90358607,11.08958602,25.43478742
9.9600,8.870117182,13.71628793,25.46327107
9.9650,20.60615844,-7.903658824,16.67450091
9.9700,9.939174884,-2.965548375,17.46105843
9.9750,23.92774745,-14.28812246,10.60481502
9.9800,-0.3903781874,-12.214822,11.18609133
9.9850,-4.837976805,-13.09679893,16.80750102
9.9900,8.454332833,4.79834714,7.911457116
9.9950,-5.721991817,3.012947407,25.01046225
10.0000,13.31712197,1.080031948,19.40277173
10.0050,-0.510356881,13.86107195,10.02083761
10.0100,-0.1995088438,7.671183356,9.532910282
10.0150,0.1406994091,5.214543263,6.39502241
10.0200,-0.9948463197,-6.091457698,9.598586835
10.0250,-12.91293873,-7.051633867,13.08288056
10.0300,4.075113687,-12.0301435,-0.9297486007
10.0350,-10.84203062,-15.27720917,6.434012633
10.0400,-2.352872759,-29.60705904,-4.982948029
10.0450,0.07733898259,-20.10677476,-6.834222076
10.0500,-13.55398355,-22.55048487,0.574609255
10.0550,-11.24927125,-21.58682677,-0.9551176279
10.0600,-17.81644536,-24.46459154,3.416336506
10.0650,-10.54802798,-16.52369035,-0.1209859914
10.0700,-13.35737474,-9.146104763,1.157305024
10.0750,-13.88278354,-5.055844707,4.013876496
10.0800,-14.83614111,-11.34790608,8.752389433
10.0850,-15.62105909,-4.375867063,5.214115679
10.0900,-8.014379769,-4.849531001,-4.686134946
10.0950,-17.72105099,-6.712117556,3.618830053
10.1000,-21.98223379,-6.875962881,7.159464479
10.1050,-12.28313888,-7.198003462,1.441616212
10.1100,2.516783305,-9.665146228,-5.737117789
10.1150,0.9742804198,1.122888255,-9.458482792
10.1200,-11.34389824,-4.445363578,0.2221069858
10.1250,-9.559417414,6.648522974,-0.9131650391
10.1300,-16.23407129,6.018288839,0.5187471295
10.1350,-13.48126492,7.405369398,4.354496467
10.1400,-14.99347878,19.06176624,2.128493248
10.1450,-9.063675898,13.55811651,-0.5979621714
10.1500,-7.569853445,8.861802203,2.180020405
10.1550,8.507870056,6.535827577,-0.1125122595
10.1600,10.6860387,16.10376799,-9.677707945
10.1650,-9.538417636,10.7628876,8.529116046
10.1700,7.075326965,10.92413403,2.785557827
10.1750,1.869758079,17.235911,5.346822517
10.1800,0.4416624307,3.89795921,12.51183176
10.1850,26.45341091,6.352244575,-4.520183216
10.1900,13.33897779,3.569626821,2.82012367
10.1950,4.873597357,0.1464775102,5.853957328
10.2000,14.62254655,5.105857648,-0.02195452996
10.2050,-0.3436181059,1.549757895,11.59695881
10.2100,-13.70106468,-9.04024823,7.262662741
10.2150,-1.16000595,-7.111873957,-5.577236746
10.2200,-2.166157322,-20.14246806,-6.068929887
10.2250,-5.056034155,-13.80062648,-14.03936988
10.2300,0.4090623987,-2.096828458,-16.5374556
10.2350,-10.37101569,3.269338594,-8.275773913
10.2400,-11.24139883,4.956634838,-6.073210124
10.2450,-18.23380228,-0.2452592052,7.41335761
10.2500,-15.52923015,3.903837578,0.7510456352
10.2550,-2.559252644,-0.1426908433,5.870449307
10.2600,1.056262361,-1.281486413,2.557159152
10.2650,-6.232479343,0.8739975575,4.608368718
10.2700,5.206771361,6.183280432,-7.543293409
10.2750,-0.8514911651,-0.6070146511,-3.491606782
10.2800,-11.01686246,9.39137074,-9.420180106
10.2850,0.468176481,14.00265196,-15.47561016
10.2900,-3.943459471,8.593189814,-6.476146675
10.2950,-1.807928289,10.78446032,-6.871410098
10.3000,-15.87999263,19.15939648,1.636554688
10.3050,-10.56439732,20.49243518,1.151081972
10.3100,-6.257825594,25.793855,6.872780834
10.3150,1.61754418,17.37391948,23.40348308
10.3200,-7.381004543,24.94501308,22.11490539
10.3250,7.137048402,19.45507791,13.31098697
10.3300,31.03234085,7.136340445,7.283301527
10.3350,17.70401734,-12.80948984,13.40160915
10.3400,15.11867544,-9.3174176,10.55572285
10.3450,12.34436516,-15.15983013,14.95079798
10.3500,13.60309497,-26.60982559,9.716034643
10.3550,13.84304206,-25.23194209,6.543676855
10.3600,16.14405488,-33.77825559,-3.053169199
10.3650,12.61647829,-28.38147989,-2.35037184
10.3700,19.02969419,-17.97114977,-9.960605408
10.3750,14.88250986,-4.896485614,-1.987591163
10.3800,8.119226576,6.058234598,5.818434812
10.3850,5.747968364,3.847530799,14.67820077
10.3900,7.002411956,9.522829812,14.43963701
10.3950,16.51173349,9.159724053,16.85535402
10.4000,26.63273836,14.10021617,6.714697387
10.4050,22.01195262,12.69926762,3.072468597
10.4100,14.13087681,2.155968966,9.597023837
10.4150,19.87765047,-8.868191629,5.324835468
10.4200,18.24983247,-9.418584581,3.308780826
10.4250,19.72119291,-23.73078217,0.7822679714
10.4300,19.11336844,-32.04544507,0.1538347006
10.4350,22.50653521,-20.01018835,-6.672354117
10.4400,14.63112822,0.7927307721,-4.740927567
10.4450,23.5303219,5.389231983,-1.636306587
10.4500,27.19643806,7.069633702,-1.766206671
10.4550,35.24582212,15.09717969,-5.08497807
10.4600,37.42779204,17.41179813,-1.501272983
10.4650,30.91377945,16.15367356,22.73024924
10.4700,30.06579867,18.72415464,16.11633761
10.4750,26.60321758,14.99115987,21.34945317
10.4800,30.79660135,10.7102779,6.025147601
10.4850,28.73807823,-2.121880887,5.737668971
10.4900,38.14280611,-3.093661335,-1.308382162
10.4950,23.30438837,-16.9611312,3.475881184
10.5000,19.73761351,-9.599882828,-8.566778363
10.5050,20.80857176,-4.80841622,-13.56045836
10.5100,19.02756183,-15.4568244,-3.613039017
10.5150,20.62089085,-3.632290029,-6.268340035
10.5200,32.30356394,-5.240600785,-11.98500446
10.5250,28.66485418,6.053603325,-8.718114516
10.5300,35.42285094,14.77323629,-9.306862768
10.5350,19.4095363,14.48582845,-3.531762011
10.5400,21.62511241,13.82452425,8.764358368
10.5450,26.58351111,25.71228042,1.188527055
10.5500,25.11132696,24.36798998,-2.429027476
10.5550,21.81055722,21.45806269,2.691403034
10.5600,14.10157094,18.38973528,-3.27820416
10.5650,21.44328718,13.9091383,-9.705921829
10.5700,18.47026878,3.973351699,-1.939640975
10.5750,20.27112298,-2.159669629,-3.74195688
10.5800,16.32934659,0.200358087,-10.71634813
10.5850,22.93424188,2.51067732,-21.50137685
10.5900,21.49822032,0.1755370005,-16.96876635
10.5950,20.66760436,8.369612963,-18.50846089
10.6000,18.91129693,-0.7825291025,-11.30252087
10.6050,18.99857331,8.442474511,-18.63872733
10.6100,20.10222466,0.9979764982,-7.574887018
10.6150,16.30956962,15.25921744,3.514632989
10.6200,15.61346347,23.37860471,3.540100096
10.6250,10.99744566,30.70900944,10.3221447
10.6300,14.90992142,32.9749917,12.20089595
10.6350,26.28742,27.35912483,2.155256975
10.6400,14.1651573,22.56613665,2.767730768
10.6450,12.79601949,15.30879711,9.34859422
10.6500,5.715180186,10.89008709,4.13974537
10.6550,11.30689639,6.983884045,7.549186404
10.6600,21.39027464,-1.810049804,-1.850268708
10.6650,11.99322132,6.615047926,-12.2200452
10.6700,22.83914531,-9.405374649,-12.47883264
10.6750,10.02319682,-9.99384154,-6.726271421
10.6800,22.80169563,-10.5560292,-8.368948421
10.6850,13.96925816,-8.587627473,0.713594936
10.6900,14.45579982,-6.435654665,7.874455575
10.6950,11.67049746,-9.101442476,12.87355163
10.7000,11.98835642,3.453328882,15.58522926
10.7050,9.86733273,15.6178695,12.00910361
10.7100,4.164899793,4.715413943,17.92049491
10.7150,0.01059226024,2.447144152,16.06551748
10.7200,-5.536727295,0.7477355658,11.56427414
10.7250,4.394910397,5.556586744,11.21461117
10.7300,6.975878434,-8.337140818,10.85320709
10.7350,6.85534833,-14.10184743,13.60622741
10.7400,9.426148353,-26.9581338,3.368444875
10.7450,0.1882531351,-41.02080074,8.686493461
10.7500,-7.771345813,-35.24231926,0.5045185609
10.7550,-15.28133125,-38.09182948,-4.814811548
10.7600,-8.279501384,-42.34530006,-14.22538702
10.7650,-14.86168496,-38.37890656,-21.30011182
10.7700,-26.14396287,-32.88980365,-19.20326865
10.7750,-32.26888186,-24.76673988,-16.73130234
10.7800,-27.7710582,-14.30376696,-26.18280474
10.7850,-12.95773767,1.216651516,-34.92664733
10.7900,-8.479934854,-6.192939279,-20.01058695
10.7950,-12.00745761,-11.83689922,-7.316581586
10.8000,-17.170362,-9.126280262,1.30081095
10.8050,-16.37358531,-8.120153512,7.007481006
10.8100,1.822661624,-8.775198099,1.084822593
10.8150,6.499415245,-9.903793065,2.819547612
10.8200,-2.125493493,-8.116963011,8.582917408
10.8250,-15.02583224,-2.21078339,17.3218304
10.8300,-5.666246272,0.8372589316,0.9427866829
10.8350,5.72817239,-1.717748028,13.46005273
10.8400,1.566292358,3.621858536,5.737497587
10.8450,-4.76225319,4.507635317,10.52959226
10.8500,-1.074094507,-5.888054534,0.3030732575
10.8550,-6.703254131,-6.863909727,6.500327614
10.8600,7.802563423,-1.690094396,-4.189006161
10.8650,2.800573583,-6.456575557,0.8215216353
10.8700,-1.536148992,1.759748557,-9.471674933
10.8750,12.86357544,-2.714944591,-11.17621122
10.8800,16.67953182,15.09224342,-14.89493722
10.8850,3.881302223,9.490140293,5.402285435
10.8900,1.987583213,20.63415303,6.375804748
10.8950,4.708774582,19.23931087,16.27991619
10.9000,14.65278013,17.20334919,12.1069369
10.9050,10.2910706,23.18115363,7.598726722
10.9100,9.054427487,18.22179104,17.86984408
10.9150,6.145916841,20.92584094,19.78680845
10.9200,15.94303311,23.15538306,5.74393764
10.9250,-2.080493265,11.9271276,13.83476094
10.9300,5.342323531,3.42754209,5.85902158
10.9350,2.770450507,-20.62154006,7.607513166
10.9400,-0.4469282741,-19.25160871,-1.375948209
10.9450,-2.955622924,-23.06866238,-0.5010065058
10.9500,3.303439057,-15.28786516,-11.21576725
10.9550,5.287398127,-4.797102361,-14.95248407
10.9600,23.08610633,-5.394996585,-17.24528017
10.9650,33.09427383,1.860758398,-22.09555752
10.9700,13.12144915,10.50628207,-10.6241152
10.9750,6.30414666,14.27894154,-4.170873763
10.9800,16.06974212,9.182186827,18.62622365
10.9850,5.282705208,30.99788818,23.05197088
10.9900,0.1821050787,14.88850876,32.41942242
10.9950,-14.89451033,12.44001486,34.04947367
11.0000,-11.94786293,7.832629803,18.74578466
11.0050,-15.25703899,0.9434286977,19.36776654
11.0100,-4.963447628,-6.858150395,9.052831541
11.0150,-21.16181491,-25.27899555,5.319444716
11.0200,-11.47068755,-37.91990072,-21.86112843
11.0250,-7.49449619,-27.55049418,-42.99244002
11.0300,-8.146139783,-28.9635898,-39.26930862
11.0350,-10.93104539,-32.27889373,-30.79509051
11.0400,-8.449216046,-17.42351427,-29.43267608
11.0450,-0.423420595,-21.84477959,-12.93432037
11.0500,1.357090094,1.115429323,-9.658120249
11.0550,-1.252499357,-1.481286175,-1.247084866
11.0600,4.436860592,16.37446208,-0.4961717047
11.0650,10.7136812,20.32644165,14.63194542
11.0700,-1.322234971,15.26143695,21.36448764
11.0750,-19.47838995,16.21657677,33.52228633
11.0800,-5.653740027,13.69113412,30.07691676
11.0850,-14.51491138,12.41430163,16.90685992
11.0900,1.418540993,16.47168799,-8.015501581
11.0950,3.30788887,3.38597867,-12.17480735
11.1000,2.744068437,-4.646935737,-24.64101927
11.1050,0.5867530202,-1.805042065,-34.89152591
11.1100,-8.198921861,-2.818680177,-25.32326536
11.1150,5.527083981,-7.155821225,-13.22151455
11.1200,6.833135608,-5.312171908,-10.37221362
11.1250,-5.191946248,-0.1910464376,2.498935686
11.1300,5.286278201,6.348812036,3.192185113
11.1350,-1.347136799,0.0321502598,16.25890861
11.1400,-2.794518426,14.23329351,9.854580744
11.1450,-4.693639213,2.580577607,11.92571424
11.1500,-3.742188956,1.640648027,4.024985229
11.1550,-19.18500953,4.879063605,5.431727336
11.1600,-9.642215223,3.26308615,1.412393927
11.1650,-10.13149852,8.438670201,-1.430009854
11.1700,-8.814421326,6.213446947,-2.016407865
11.1750,-1.013028349,5.800042734,-5.922738799
11.1800,4.820011447,-12.35578155,-18.48895017
11.1850,1.342566362,-22.52006132,-20.74574034
11.1900,-0.4693327852,-20.65137626,-22.40834355
11.1950,16.04961452,-4.652951108,-18.53552299
11.2000,13.95413505,13.99173048,-5.305274884
11.2050,16.29506814,19.40970699,1.427959061
11.2100,8.820918666,28.10608388,0.8034278175
11.2150,5.923238947,5.336424014,17.11813705
11.2200,12.91151216,15.40306961,5.979146321
11.2250,-9.078946704,8.611031067,27.24085163
11.2300,-15.35373293,9.98506982,33.47331365
11.2350,-22.64201349,15.52957599,32.65103209
11.2400,-13.97369598,3.8051075,17.33187798
11.2450,-10.65052643,-5.6055198,2.125202204
11.2500,-11.47557716,-19.48765183,-5.743691691
11.2550,8.042846977,-9.65319196,-42.81009181
11.2600,9.977244887,-33.76819399,-44.6812908
11.2650,20.39680719,-33.697578,-59.86440466
11.2700,14.83629197,-21.1527424,-51.20393404
11.2750,25.92224739,-12.12292242,-37.63826467
11.2800,9.539246956,-0.3461101494,-24.11292553
11.2850,1.527362252,-0.9481337307,-6.430026247
11.2900,-3.152201877,-4.246634721,4.983012418
11.2950,-10.14314026,-11.34395484,16.92957863
11.3000,-19.07133749,-16.95841642,3.980134715
11.3050,-32.25964478,-19.52628215,7.908763683
11.3100,-28.80064175,-8.085676174,0.8133567373
11.3150,-29.16028978,7.230077844,-11.07540811
11.3200,-9.158969455,10.71956713,-13.13815036
11.3250,-8.826376638,3.111958761,-21.34140673
11.3300,6.943929308,-7.728529491,-26.59430739
11.3350,-1.136729939,-4.132178996,-32.24319636
11.3400,6.749995944,1.939060888,-42.5385953
11.3450,13.36197173,-1.611543063,-26.0507075
11.3500,12.2383329,3.613208504,-13.09673705
11.3550,19.78525546,2.514578771,4.951211317
11.3600,5.929160702,-7.250476874,22.67195132
11.3650,-5.530498363,-9.592681288,26.33730869
11.3700,-5.095350989,-2.478584,19.97983428
11.3750,-32.60989325,-12.30841276,25.81758817
11.3800,-26.08507026,-6.546196489,16.65073287
11.3850,-33.76563732,-0.3490789877,22.73517841
11.3900,-26.01403924,13.24719064,9.207599728
11.3950,-32.77716937,8.135483251,2.923301668
11.4000,-23.63527654,11.44488273,-18.78870668
11.4050,-24.38801782,5.646457948,-15.91100988
11.4100,-9.70206684,5.777683645,-12.0262441
11.4150,-4.826358631,21.12365494,-11.81853864
11.4200,-18.92309048,17.38415284,3.886838983
11.4250,-22.36339038,27.10676532,1.015798412
11.4300,-12.21808459,13.62972502,11.7478172
11.4350,-2.055520921,24.25073566,13.85597698
11.4400,-12.0675407,15.95607093,22.00139146
11.4450,-9.194928323,20.3798428,29.71376743
11.4500,-21.48397041,9.402982758,28.38409649
11.4550,-14.11985945,2.960720955,33.73015585
11.4600,-26.10101609,-0.4355971012,30.96811081
11.4650,-26.630433,7.323514942,25.11697973
11.4700,-31.02421548,12.46486916,7.247446177
11.4750,-55.81233117,4.305521772,2.434975406
11.4800,-25.4541922,11.52292066,-14.62042661
11.4850,-7.048952725,-1.190825198,-13.74383303
11.4900,8.546233395,-2.019746657,-29.64294022
11.4950,8.354763761,-17.94502596,-22.46440541
11.5000,14.96142056,-30.39996034,-16.08408999
11.5050,24.10393541,-23.19005402,-18.50458485
11.5100,9.903797281,-19.31459662,0.9566619194
11.5150,8.272298575,-12.83544926,16.62559793
11.5200,-11.36086299,1.129217113,23.30089516
11.5250,-1.309787348,-3.771180921,36.4351431
11.5300,-13.39660337,8.534702713,30.88970648
11.5350,-34.38819931,16.29941979,35.84982935
11.5400,-30.1799761,19.85483669,34.04380388
11.5450,-29.33541748,35.66776213,24.53351607
11.5500,-14.0006438,34.14217526,8.381833911
11.5550,-8.627894041,29.21319792,0.7003845363
11.5600,-5.582037183,19.18587772,-10.64694656
11.5650,8.999375227,19.08040985,-25.75980207
11.5700,34.56625727,0.009295518416,-21.83633027
11.5750,32.74631892,-10.43674462,-19.03683295
11.5800,35.70503826,-25.8369384,-15.32096158
11.5850,33.81634362,-15.73549023,-9.419808562
11.5900,34.96382191,-19.54709136,3.72384014
11.5950,24.17266959,-5.246171225,12.87031065
11.6000,7.039715611,4.004331516,11.97957523
11.6050,-12.76019786,11.52904021,15.66121792
11.6100,-18.23223626,23.56676685,16.20587306
11.6150,-29.20901312,24.10276659,30.06791163
11.6200,-29.91688864,20.88653187,25.49818768
11.6250,-26.27896086,16.84280723,22.92936577
11.6300,-15.12534753,37.21938771,-1.844301302
11.6350,-8.09206185,33.97522165,-8.866901926
11.6400,21.03344095,13.80265425,-15.99475046
11.6450,14.25357547,6.66658354,-16.87320248
11.6500,24.3783575,-5.763996653,-13.52274815
11.6550,-1.094143511,-11.16693558,5.305277638
11.6600,1.288741726,-5.226208228,2.861752985
11.6650,4.025928605,-11.38230316,1.675348883
11.6700,-4.751479289,-24.77526303,1.167186734
11.6750,-6.428904926,-17.06288374,-2.689819145
11.6800,-12.21382563,-20.91463653,0.006392354725
11.6850,-23.42814786,-23.6428665,17.37043019
11.6900,-17.12559977,-8.210966677,20.39287172
11.6950,-16.10036223,-0.2320823215,9.241970452
11.7000,-27.8681255,-4.087742526,4.686517817
11.7050,-11.80906018,12.9164126,-7.362607498
11.7100,10.52330009,15.64246732,-3.215089203
11.7150,22.65070082,23.56263859,-10.63935185
11.7200,51.24872146,16.83736377,-15.62985906
11.7250,46.74251282,8.905380113,-17.78972138
11.7300,49.88517967,-3.899660961,-0.6862182035
11.7350,14.09970364,4.904131312,15.23186811
11.7400,5.234957158,15.40695133,29.18608348
11.7450,-25.75855475,10.58235559,38.94321781
11.7500,-12.56101814,9.368039591,22.82266956
11.7550,-17.17292663,11.05363567,21.71385404
11.7600,-18.78142705,12.31585742,14.82292775
11.7650,-22.56441572,8.467767956,23.971385
11.7700,-21.86319711,18.26010006,29.14092974
11.7750,-15.31050422,19.95243177,30.76346003
11.7800,0.03055985414,26.5222006,9.235130148
11.7850,5.883406249,14.39706263,-4.625115749
11.7900,29.51164308,3.210054815,-28.44793587
11.7950,12.0976416,-2.791617316,-27.99801879
11.8000,28.97504814,2.323708131,-30.36330286
11.8050,34.77194154,0.2796690631,-18.72786168
11.8100,32.95866283,-5.011936002,-13.85421413
11.8150,5.371734724,-17.24951041,-7.002075722
11.8200,2.862180947,-22.62064577,-5.56725961
11.8250,-17.00895821,-33.20468123,-2.478914167
11.8300,-6.806163451,-36.70453882,14.29427076
11.8350,-8.402258206,-32.91963348,21.03106376
11.8400,-12.56575499,-29.84908972,17.74501911
11.8450,-28.68279254,-19.63322827,19.48501465
11.8500,-21.45553371,-10.6603709,8.879050066
11.8550,7.698848482,-3.530927754,2.490411771
11.8600,0.7409272458,13.85294251,-8.966736591
11.8650,29.5948416,16.75746029,-7.178611321
11.8700,40.87053052,17.07158613,-7.633922217
11.8750,43.43494284,24.29969363,-19.27991731
11.8800,26.34963981,30.18766329,-12.30881626
11.8850,14.30647697,26.96170498,7.050993828
11.8900,6.750182038,19.32660726,12.18244491
11.8950,-8.988721831,31.9883492,8.152426465
11.9000,-12.11200172,5.589046004,2.185302228
11.9050,-9.224208738,-6.174626932,-2.583955934
11.9100,-25.54324134,-29.62893425,-8.040407553
11.9150,-11.98342902,-25.54318484,-13.74402053
11.9200,-4.898450319,-29.28915738,-15.96919977
11.9250,-12.29687782,-21.78609234,-17.44283681
11.9300,-2.783786009,-17.12875425,-27.35957125
11.9350,3.383178457,-20.26403538,-16.25363509
11.9400,-3.128462883,-16.32765501,-21.81765448
11.9450,6.902027366,-2.560518921,-18.61752318
11.9500,13.70275741,3.510549817,-16.66984136
11.9550,14.83346138,16.60267927,-14.09426042
11.9600,10.30133605,1.817154764,-9.559299388
11.9650,7.271902375,-2.388794083,-11.38296065
11.9700,16.04667628,-16.18261483,2.60771161
11.9750,0.01389376764,-19.54200436,9.807680146
11.9800,-2.885732267,-15.98803635,10.80397978
11.9850,3.724885248,-6.837740547,11.86846377
11.9900,-1.426534489,-17.17445811,25.09416104
11.9950,-1.111928481,-15.00199521,13.61634733
12.0000,0.1834494854,-3.390337656,-9.237920109
12.0050,-13.11309757,22.20504354,-12.43759602
12.0100,-14.36863845,36.56918658,-16.96796438
12.0150,3.507601176,35.54198618,-10.74580093
12.0200,12.7760646,23.30050097,-7.072396849
12.0250,29.72496861,16.61115761,-3.746651495
12.0300,19.95285797,17.09828635,-1.658268709
12.0350,20.05203348,11.59115174,-4.523014215
12.0400,24.56569337,8.439356924,-3.137728528
12.0450,10.19409764,-1.897546407,2.783362082
12.0500,-5.755395325,5.491245563,-4.267788384
12.0550,-4.224819537,-0.76413507,3.197764955
12.0600,-22.79866006,-7.552176646,7.520017021
12.0650,-14.0986047,-6.74297933,0.9366166998
12.0700,-31.52399525,-19.10855531,7.92478942
12.0750,-31.00166987,-16.43368138,0.986697403
12.0800,-34.31100008,-14.54702087,-3.679165664
12.0850,-38.82838605,-11.3251728,-4.785122103
12.0900,-30.16446147,-13.33798501,3.587302571
12.0950,-11.37580436,10.6565848,-18.22680399
12.1000,-6.129634771,8.095435701,-17.96679663
12.1050,-11.64299044,22.36884455,-10.37523247
12.1100,3.28442513,32.24768765,-6.452991249
12.1150,4.667196674,35.931791,7.010964432
12.1200,-12.85848041,49.4221901,12.87724829
12.1250,-40.45616173,47.87765769,17.81154314
12.1300,-30.78573986,51.98978554,16.70437969
12.1350,-31.84023332,43.34486489,13.31814448
12.1400,-37.43625488,7.185159433,21.89872996
12.1450,-40.28808424,-9.077835823,11.76994047
12.1500,-39.41758317,-21.14558485,0.02154019637
12.1550,-50.05771415,-13.35482475,-7.260938844
12.1600,-60.49778125,-9.58227615,-14.62366035
12.1650,-58.42471191,-10.03730285,-22.4514987
12.1700,-37.25130065,-2.764281561,-29.80927758
12.1750,-1.841605779,-20.86162448,-7.569544592
12.1800,10.90750922,-20.20771812,-7.599832573
12.1850,46.36269798,-37.32944735,4.347605039
12.1900,48.38938553,-30.03620844,2.206146127
12.1950,45.05986985,-26.45566698,3.307750867
12.2000,48.63760033,-9.977022136,-4.973814561
12.2050,29.04578852,0.4573417929,4.598720454
12.2100,22.44245181,20.7406628,2.735710836
12.2150,1.432006429,22.80619382,6.553022262
12.2200,-2.30436178,16.53193624,3.150079716
12.2250,-2.345714263,1.935045534,7.198911811
12.2300,22.47857211,-15.33316322,4.663509297
12.2350,23.45513005,-27.74324835,0.7105005286
12.2400,26.13105514,-48.14895844,5.976253113
12.2450,37.70560744,-43.08139074,-6.068253512
12.2500,40.78634529,-37.81539541,-7.054080297
12.2550,35.13995618,-25.32183251,-1.636839035
12.2600,38.42489644,-14.51425523,4.9599947
12.2650,34.2843984,-3.226249107,7.274309409
12.2700,27.88021713,5.151155213,11.35747601
12.2750,16.40081827,14.20966803,15.50784048
12.2800,23.87663092,20.88570835,6.806010931
12.2850,6.948741522,25.55343083,16.3153653
12.2900,0.08542175449,25.02768926,11.25413035
12.2950,-2.249210058,33.79670089,0.5626259149
12.3000,-10.66075656,20.2430468,6.399842975
12.3050,-27.66995262,19.01303328,5.665763386
12.3100,-30.20646838,10.83883586,-6.334910658
12.3150,-42.51047799,3.328288032,-8.490264983
12.3200,-31.18549712,-5.497097695,-16.222436
12.3250,-25.92115164,-15.39494678,-6.495380935
12.3300,-2.623185044,-14.97877552,-13.53711267
12.3350,7.363848057,-19.53819512,-10.53115725
12.3400,20.76549006,-21.86469921,-3.032963319
12.3450,11.24105259,-18.22756015,-3.548424421
12.3500,9.900706561,-10.0250614,-7.788792421
12.3550,1.983931533,-7.329472388,3.53405279
12.3600,-0.3928684535,-6.313533793,-3.858719743
12.3650,-30.98076633,13.68725035,-9.036540188
12.3700,-33.01972119,10.56796905,-1.545728143
12.3750,-35.7305978,17.42428331,-0.6339389854
12.3800,-42.51391018,15.97528654,0.1943698562
12.3850,-38.26325923,13.15937984,5.677543884
12.3900,-24.06970524,8.080753589,9.563627411
12.3950,-41.413638,7.958285667,13.35791872
12.4000,-31.45417047,6.144468738,15.03477691
12.4050,-48.02770372,-0.8268731362,25.9810774
12.4100,-26.54517185,4.672208963,10.2465832
12.4150,-13.10437593,8.519822217,3.875409084
12.4200,-9.034597505,0.3654423361,14.75171432
12.4250,17.32199235,1.348783151,19.03944324
12.4300,21.98476957,-1.688550439,23.41930668
12.4350,28.12963043,-1.724772856,20.54094851
12.4400,33.08587011,-0.2130142241,13.89451842
12.4450,25.3938121,1.791110087,15.48271538
12.4500,20.46320502,11.92182587,6.718185383
12.4550,20.30101571,9.325278415,2.816603387
12.4600,36.51308635,0.01467216847,0.7643317837
12.4650,28.44035025,1.468436221,3.555222022
12.4700,21.38511636,-5.343619705,4.596052522
12.4750,0.4476618114,3.343496692,6.314993644
12.4800,0.5868784403,3.74605688,5.850568945
12.4850,-19.28036134,-3.001272901,15.90209242
12.4900,-18.27497579,4.299033043,-2.094114153
12.4950,0.302837714,1.391649941,5.198851631
12.5000,18.72281769,-0.1990915473,0.6508552191
12.5050,40.56825578,-8.058399917,3.877954378
12.5100,63.33546658,-12.85515217,10.82838997
12.5150,85.54462926,-21.83564346,17.06309072
12.5200,75.8419375,-26.50109502,15.35942387
12.5250,59.8942392,-29.86003776,20.33759569
12.5300,73.43710017,-16.10711021,10.25684682
12.5350,54.07721224,-8.191590621,8.826635552
12.5400,57.43744447,-5.723138001,-2.223178463
12.5450,50.89405821,-4.639666282,-7.80642012
12.5500,67.9062183,0.3606418741,-8.550669043
12.5550,60.9771682,-4.201706427,4.120518495
12.5600,69.02513843,-1.718417454,-1.872865214
12.5650,85.07436048,-1.501426261,5.99466886
12.5700,77.00884083,0.8576838376,7.950195291
12.5750,88.6358022,-3.785187163,13.7844336
12.5800,75.05415915,-0.38718434,10.28143806
12.5850,87.02138375,-1.961912689,13.84515308
12.5900,72.33431419,1.589003604,12.668326
12.5950,74.98332506,-2.231866002,7.541192614
12.6000,61.20616996,-6.926933811,7.275704898
12.6050,51.29089907,-6.987395359,5.044851251
12.6100,45.13856086,-14.94163828,9.020976505
12.6150,25.64735195,-7.222881413,8.077332453
12.6200,14.43969986,-19.11385896,14.76405365
12.6250,0.2184702482,-13.12621239,14.11362293
12.6300,0.6402910256,-15.05954866,12.61197333
12.6350,2.043584886,-15.81167348,10.25235689
12.6400,-3.370573572,-23.57983234,14.94602464
12.6450,15.61836473,-13.61234903,3.63163517
12.6500,-17.48571491,-7.863930145,6.891253485
12.6550,-37.57230271,-0.1719165677,4.40223045
12.6600,-37.54912238,10.09452407,-4.461956554
12.6650,-47.32463368,27.44644201,-10.96119726
12.6700,-61.44888624,28.88129252,-6.982761435
12.6750,-70.34783211,35.06457059,-9.380930592
12.6800,-76.82040579,20.75203085,-0.5895949916
12.6850,-73.96116806,26.88567877,-9.632574815
12.6900,-78.65508155,26.79774576,-11.00812479
12.6950,-100.4917903,32.5725534,-7.772807993
12.7000,-88.90675566,33.02281602,-9.459102457
12.7050,-74.09732869,41.78556997,-12.88922686
12.7100,-67.08059354,27.82187987,-12.13223326
12.7150,-54.0270237,16.50021024,-3.121929498
12.7200,-25.63496851,9.534073436,-5.532135305
12.7250,-30.27788642,4.300275511,-12.18225455
12.7300,-14.25929067,-1.60921262,-11.82414117
12.7350,-3.979100574,0.27610606,-13.55328407
12.7400,-0.6354354946,-7.361794267,-14.8961187
12.7450,0.0390674286,-7.05756966,-16.72072122
12.7500,15.16003409,-20.1915356,-16.3612058
12.7550,25.50423539,-15.63387462,-18.12533876
12.7600,37.39363489,-14.96354288,-16.15629026
12.7650,18.12136529,-14.2432643,-12.9497783
12.7700,14.59446684,-10.32291005,-14.08897662
12.7750,15.91241747,-5.031640607,-12.60381928
12.7800,24.93499622,-7.999715693,-9.143940748
12.7850,24.04216531,-2.170078708,-5.985430488
12.7900,40.23098168,-0.8546289147,3.366207435
12.7950,13.49006127,16.50742161,-2.336515368
12.8000,8.170176947,6.459227857,9.803051668
12.8050,16.78989391,16.26253466,1.267387693
12.8100,4.5860336,3.90399556,-4.908824899
12.8150,-0.7225287947,3.085884966,-0.7253095128
12.8200,10.82485919,-7.078490056,-6.47250982
12.8250,12.95843624,-17.46201969,2.881993586
12.8300,19.15849584,-13.7745153,-6.732396369
12.8350,18.41668088,-18.18173455,-2.761377798
12.8400,28.52207926,-21.37542956,7.050157075
12.8450,25.17533664,-29.49688623,15.4549486
12.8500,45.42187597,-17.4513231,4.451638037
12.8550,54.42794948,-11.96766085,13.35101426
12.8600,65.73938346,-5.505129504,20.01070782
12.8650,51.72274251,-4.631905009,22.70752413
12.8700,63.92216542,8.098179484,13.58212088
12.8750,55.6228366,9.029381989,21.18549038
12.8800,56.969365,2.419853988,12.76120595
12.8850,46.3053157,2.335750044,22.12833971
12.8900,37.45365277,5.470981523,22.69861332
12.8950,24.07949533,10.8163798,20.48834428
12.9000,12.90582478,22.25001238,22.5976833
12.9050,11.65825697,15.66602019,15.97032371
12.9100,4.497756696,8.339897339,13.67110117
12.9150,35.8128935,-5.19181511,20.73224326
12.9200,48.55393599,-4.747220966,5.57922245
12.9250,52.44627209,-12.1452076,9.08603064
12.9300,64.26186779,-22.05297119,0.5900815546
12.9350,59.59670255,-20.17647666,-4.208677292
12.9400,53.79931748,-30.39119731,-1.800586599
12.9450,52.65315403,-31.95410318,-2.49324164
12.9500,47.28396078,-28.69315677,-5.087162935
12.9550,41.33872798,-28.84854917,3.760269363
12.9600,41.19954662,-27.84579144,11.38410463
12.9650,28.71525014,-16.41891833,12.800758
12.9700,1.390009952,-6.992642597,20.72457315
12.9750,-2.772408698,7.979487349,22.60150118
12.9800,-19.43187698,18.06439782,26.28548009
12.9850,-9.087902791,14.88386367,28.25590545
12.9900,1.24423057,26.26122582,22.76506499
12.9950,12.36375762,20.47827168,31.16837687
13.0000,11.74636147,29.25131088,15.24903268
13.0050,46.07436959,25.45963417,21.26815156
13.0100,40.76246177,13.7040243,16.37031135
13.0150,43.82042529,10.11732394,18.97285259
13.0200,24.52045333,1.282938521,12.55972652
13.0250,21.44253032,2.576301019,3.102460365
13.0300,14.45394497,-7.703433871,-5.955328521
13.0350,11.50072003,-6.886042817,-13.42023074
13.0400,10.16175594,-13.39872765,-15.06289778
13.0450,-6.805917519,-8.606248805,-13.40745828
13.0500,6.022160626,-4.812334652,-3.139087746
13.0550,-4.928029538,3.188421183,-5.853919034
13.0600,-24.87749091,12.50626614,-6.052431295
13.0650,-28.79753458,11.09829072,2.103863482
13.0700,-45.52792501,17.40161732,5.584972912
13.0750,-30.54928939,22.80897148,-0.0966184941
13.0800,-14.17604942,9.682374805,3.606480101
13.0850,-1.040149587,11.53277866,8.285364071
13.0900,-4.380109814,20.56283334,-4.386981632
13.0950,-8.478789603,13.70923411,-1.037995525
13.1000,-10.73093752,13.83610241,-10.69675077
13.1050,-22.63919421,1.55628693,-12.57444233
13.1100,-7.818599578,-1.72848151,-21.39848257
13.1150,-1.898770314,-12.47055203,-12.67362716
13.1200,2.046087343,-23.310104,-18.08687255
13.1250,-8.765121706,-38.32242661,-11.02854918
13.1300,4.8493696,-29.64990335,-23.39452217
13.1350,-0.2968299885,-29.54121804,-17.39620972
13.1400,8.616447597,-21.30878719,-12.64241468
13.1450,0.8248166553,-10.03208028,-13.39356728
13.1500,-22.5435001,-8.212665556,-4.34525912
13.1550,-14.11298457,2.906417699,0.4641127658
13.1600,-15.56999384,12.72885376,4.541529509
13.1650,-5.731809124,17.19783967,13.23661743
13.1700,-10.85201217,26.21947196,16.37177624
13.1750,-6.798564544,40.06284363,18.75739387
13.1800,6.087164096,32.60211274,22.93412385
13.1850,0.8343241624,28.87806975,15.36219442
13.1900,-2.071446221,28.38449259,19.24553016
13.1950,-27.70931841,21.5811802,12.47964779
13.2000,-9.92991627,22.45664488,5.324996094
13.2050,-12.76422121,9.348991636,-5.647987506
13.2100,-10.04253152,-3.491994413,-2.938911711
13.2150,-6.580688807,4.444087386,-6.297326576
13.2200,-17.84726776,-1.578999917,-2.432019243
13.2250,-25.58883812,3.721748026,-12.66132171
13.2300,-29.93226432,8.529978019,-18.27949413
13.2350,-29.2158505,14.30220505,-11.15090896
13.2400,-29.19054774,8.303600363,-4.348806852
13.2450,-28.50217519,13.43766,-4.803597161
13.2500,-24.18026792,11.17680721,5.212750944
13.2550,-34.71699655,19.88737638,13.34816672
13.2600,-32.47060216,18.92763327,9.706612298
13.2650,-32.94005183,25.75902953,8.012967124
13.2700,-30.49321988,35.7177978,4.35916803
13.2750,-39.23043714,35.68646431,8.331556257
13.2800,-24.10362015,26.15248849,14.59667896
13.2850,-28.28012382,37.26779272,1.587813643
13.2900,-27.85307431,39.62348285,-3.720176889
13.2950,-32.38681073,37.01506008,-8.912355895
13.3000,-21.87819918,23.95134072,-4.789947527
13.3050,-29.98271399,21.46235724,-1.937544864
13.3100,-29.60998259,13.11787598,2.346491254
13.3150,-34.80386805,18.99590508,-6.661680348
13.3200,-17.84643885,12.13776234,-2.563758133
13.3250,-10.15076643,10.06978872,-5.215953472
13.3300,-7.532142812,13.03370407,-14.74129199
13.3350,5.361842838,12.87971049,-3.666968726
13.3400,0.4188445963,6.497868392,-0.03359719272
13.3450,-7.021056095,7.33998513,16.6922342
13.3500,-28.03673735,5.262528297,20.54377567
13.3550,-35.25594996,11.28306744,22.2899535
13.3600,-29.77751339,10.17122154,20.19271649
13.3650,-7.997118846,18.14192617,14.76419077
13.3700,1.719514623,16.10555338,8.032207686
13.3750,8.663351971,6.210974365,16.07437777
13.3800,2.341196058,11.52674595,15.06117565
13.3850,9.72320567,14.06289014,7.292973641
13.3900,0.198525641,9.534483673,3.970554023
13.3950,3.781448266,8.166413416,-0.5431094689
13.4000,1.004790118,-2.823482898,-5.971939291
13.4050,1.039724005,-5.858283889,1.205256777
13.4100,-13.49778386,4.051128292,-21.0283618
13.4150,-17.61066496,2.076556642,-18.32149275
13.4200,-17.58503479,4.017862901,-11.27974764
13.4250,-30.91947426,11.63640509,-13.4244715
13.4300,-21.11054919,7.475787119,-16.99629401
13.4350,-23.23812888,-0.1753507016,-13.03007829
