type,name,time_units,begin_time,frequency,count,units
signal,"Noraxon MyoMotion-Segments-Forearm RT-Course","s",0.0000,200,4916,"deg"

time,value
0.0000,-29.14149187
0.0050,-29.15328541
0.0100,-29.16507892
0.0150,-29.17687238
0.0200,-29.18952152
0.0250,-29.20293537
0.0300,-29.21701209
0.0350,-29.23164553
0.0400,-29.24673023
0.0450,-29.26216388
0.0500,-29.27784849
0.0550,-29.29369121
0.0600,-29.30960506
0.0650,-29.325509
0.0700,-29.34132681
0.0750,-29.3569847
0.0800,-29.37240894
0.0850,-29.38752469
0.0900,-29.40225674
0.0950,-29.41653089
0.1000,-29.43027503
0.1050,-29.44341996
0.1100,-29.45590088
0.1150,-29.46765845
0.1200,-29.47863925
0.1250,-29.4887969
0.1300,-29.49809392
0.1350,-29.50650298
0.1400,-29.51400748
0.1450,-29.52060266
0.1500,-29.52629832
0.1550,-29.54501889
0.1600,-29.56290188
0.1650,-29.57990137
0.1700,-29.59610381
0.1750,-29.61144498
0.1800,-29.6259189
0.1850,-29.63972152
0.1900,-29.65300786
0.1950,-29.66587845
0.2000,-29.6784131
0.2050,-29.69062666
0.2100,-29.70271635
0.2150,-29.71460664
0.2200,-29.72655668
0.2250,-29.73841699
0.2300,-29.75035717
0.2350,-29.76220836
0.2400,-29.77400718
0.2450,-29.78582817
0.2500,-29.79768152
0.2550,-29.80964872
0.2600,-29.82163116
0.2650,-29.8338755
0.2700,-29.84617744
0.2750,-29.85849042
0.2800,-29.87071773
0.2850,-29.88285092
0.2900,-29.89465117
0.2950,-29.90611653
0.3000,-29.91714855
0.3050,-29.92776703
0.3100,-29.93805888
0.3150,-29.94774676
0.3200,-29.95696849
0.3250,-29.96567223
0.3300,-29.97403423
0.3350,-29.98204537
0.3400,-29.98933908
0.3450,-29.99611574
0.3500,-30.00225718
0.3550,-30.00785577
0.3600,-30.01296868
0.3650,-30.01753052
0.3700,-30.02152106
0.3750,-30.02489655
0.3800,-30.02767301
0.3850,-30.03017475
0.3900,-30.03220231
0.3950,-30.03401811
0.4000,-30.03565798
0.4050,-30.03702282
0.4100,-30.03818898
0.4150,-30.03899194
0.4200,-30.03944268
0.4250,-30.03969501
0.4300,-30.03971539
0.4350,-30.03953939
0.4400,-30.03904646
0.4450,-30.03826505
0.4500,-30.03739482
0.4550,-30.03630688
0.4600,-30.03488192
0.4650,-30.03333731
0.4700,-30.03138979
0.4750,-30.02938486
0.4800,-30.02728418
0.4850,-30.02499476
0.4900,-30.02251979
0.4950,-30.0198803
0.5000,-30.01701753
0.5050,-30.01388844
0.5100,-30.01036695
0.5150,-30.00661207
0.5200,-30.00268224
0.5250,-29.99856221
0.5300,-29.99405371
0.5350,-29.98923714
0.5400,-29.98392747
0.5450,-29.97803402
0.5500,-29.97149564
0.5550,-29.96426105
0.5600,-29.95628508
0.5650,-29.94755687
0.5700,-29.93819731
0.5750,-29.92838543
0.5800,-29.91813663
0.5850,-29.90737341
0.5900,-29.89614087
0.5950,-29.88428263
0.6000,-29.87150813
0.6050,-29.85786431
0.6100,-29.84325206
0.6150,-29.82760339
0.6200,-29.81107921
0.6250,-29.79368541
0.6300,-29.77548356
0.6350,-29.75665761
0.6400,-29.73751865
0.6450,-29.7181341
0.6500,-29.69863696
0.6550,-29.67917278
0.6600,-29.65951271
0.6650,-29.63993671
0.6700,-29.62045647
0.6750,-29.60114661
0.6800,-29.58215777
0.6850,-29.56313896
0.6900,-29.54439455
0.6950,-29.52568801
0.7000,-29.50714292
0.7050,-29.48881296
0.7100,-29.47070774
0.7150,-29.4530971
0.7200,-29.43587527
0.7250,-29.41877739
0.7300,-29.40188204
0.7350,-29.38503666
0.7400,-29.36809098
0.7450,-29.35106624
0.7500,-29.3338645
0.7550,-29.3165586
0.7600,-29.29925831
0.7650,-29.2821002
0.7700,-29.26504887
0.7750,-29.2480925
0.7800,-29.23137843
0.7850,-29.21511944
0.7900,-29.19954398
0.7950,-29.18461835
0.8000,-29.17052984
0.8050,-29.15754607
0.8100,-29.14558912
0.8150,-29.1345961
0.8200,-29.12474276
0.8250,-29.1159718
0.8300,-29.10857188
0.8350,-29.10262963
0.8400,-29.09837218
0.8450,-29.09577353
0.8500,-29.09490164
0.8550,-29.09587945
0.8600,-29.09874974
0.8650,-29.10342847
0.8700,-29.10951028
0.8750,-29.11678573
0.8800,-29.12527937
0.8850,-29.13492114
0.8900,-29.14571874
0.8950,-29.15768426
0.9000,-29.17104262
0.9050,-29.18574017
0.9100,-29.20171977
0.9150,-29.21931991
0.9200,-29.23812252
0.9250,-29.2582363
0.9300,-29.27940488
0.9350,-29.30157933
0.9400,-29.32456287
0.9450,-29.34833807
0.9500,-29.37290377
0.9550,-29.39814465
0.9600,-29.42429306
0.9650,-29.45103941
0.9700,-29.47853781
0.9750,-29.50669641
0.9800,-29.53565566
0.9850,-29.56511287
0.9900,-29.59504893
0.9950,-29.625697
1.0000,-29.6570227
1.0050,-29.68889927
1.0100,-29.72125891
1.0150,-29.75383183
1.0200,-29.78650759
1.0250,-29.81895829
1.0300,-29.85100406
1.0350,-29.88240447
1.0400,-29.91325643
1.0450,-29.94352643
1.0500,-29.97313606
1.0550,-30.00195175
1.0600,-30.03005227
1.0650,-30.0573308
1.0700,-30.08372425
1.0750,-30.10912099
1.0800,-30.13320283
1.0850,-30.15598903
1.0900,-30.17706521
1.0950,-30.19636607
1.1000,-30.21358748
1.1050,-30.2286964
1.1100,-30.24198215
1.1150,-30.25336295
1.1200,-30.26290791
1.1250,-30.27082639
1.1300,-30.27699096
1.1350,-30.28161838
1.1400,-30.28458105
1.1450,-30.28613777
1.1500,-30.28659667
1.1550,-30.2856308
1.1600,-30.28329245
1.1650,-30.2794352
1.1700,-30.27428781
1.1750,-30.26778299
1.1800,-30.25971711
1.1850,-30.25030943
1.1900,-30.23930795
1.1950,-30.22671112
1.2000,-30.21218867
1.2050,-30.19579904
1.2100,-30.17727414
1.2150,-30.15657378
1.2200,-30.13352724
1.2250,-30.10790273
1.2300,-30.07962306
1.2350,-30.0484802
1.2400,-30.01473722
1.2450,-29.97832497
1.2500,-29.93928131
1.2550,-29.89768999
1.2600,-29.85366565
1.2650,-29.80742179
1.2700,-29.7589959
1.2750,-29.70849165
1.2800,-29.65587912
1.2850,-29.60136129
1.2900,-29.54502133
1.2950,-29.48653855
1.3000,-29.42608167
1.3050,-29.36368316
1.3100,-29.29946992
1.3150,-29.23346916
1.3200,-29.16593208
1.3250,-29.09700977
1.3300,-29.02687806
1.3350,-28.95534865
1.3400,-28.8824035
1.3450,-28.80765999
1.3500,-28.7314565
1.3550,-28.65364596
1.3600,-28.57422432
1.3650,-28.49304425
1.3700,-28.41029528
1.3750,-28.32588826
1.3800,-28.24014376
1.3850,-28.15280607
1.3900,-28.0639428
1.3950,-27.97365222
1.4000,-27.88212864
1.4050,-27.78914608
1.4100,-27.69463799
1.4150,-27.59867673
1.4200,-27.50112921
1.4250,-27.40195575
1.4300,-27.30127072
1.4350,-27.19874037
1.4400,-27.09475323
1.4450,-26.98890197
1.4500,-26.88090527
1.4550,-26.77080118
1.4600,-26.65860699
1.4650,-26.54421886
1.4700,-26.42768965
1.4750,-26.30882166
1.4800,-26.18794037
1.4850,-26.06462471
1.4900,-25.93899478
1.4950,-25.81109251
1.5000,-25.68119486
1.5050,-25.54918065
1.5100,-25.41512671
1.5150,-25.27883404
1.5200,-25.14045226
1.5250,-25.00038229
1.5300,-24.85865969
1.5350,-24.71558851
1.5400,-24.57089396
1.5450,-24.42468798
1.5500,-24.27713474
1.5550,-24.12836635
1.5600,-23.97825415
1.5650,-23.82702355
1.5700,-23.6744385
1.5750,-23.52077333
1.5800,-23.36616368
1.5850,-23.21096192
1.5900,-23.05507811
1.5950,-22.89885639
1.6000,-22.74201087
1.6050,-22.58456135
1.6100,-22.42610587
1.6150,-22.26657522
1.6200,-22.10556571
1.6250,-21.94323931
1.6300,-21.77915188
1.6350,-21.61353068
1.6400,-21.44646308
1.6450,-21.27786052
1.6500,-21.10755083
1.6550,-20.9356323
1.6600,-20.76206299
1.6650,-20.586708
1.6700,-20.40948088
1.6750,-20.23057877
1.6800,-20.04979691
1.6850,-19.86719669
1.6900,-19.68278276
1.6950,-19.49690171
1.7000,-19.30928215
1.7050,-19.12020799
1.7100,-18.92956845
1.7150,-18.73741085
1.7200,-18.54374989
1.7250,-18.3487159
1.7300,-18.15255897
1.7350,-17.95519361
1.7400,-17.75595624
1.7450,-17.55571103
1.7500,-17.35400585
1.7550,-17.15098342
1.7600,-16.9466006
1.7650,-16.74084413
1.7700,-16.53358548
1.7750,-16.32508211
1.7800,-16.11515391
1.7850,-15.90408446
1.7900,-15.69193717
1.7950,-15.47884704
1.8000,-15.26466726
1.8050,-15.04942075
1.8100,-14.83336419
1.8150,-14.61659813
1.8200,-14.39913929
1.8250,-14.18070424
1.8300,-13.96184831
1.8350,-13.74209966
1.8400,-13.52166902
1.8450,-13.30045473
1.8500,-13.0782193
1.8550,-12.85477056
1.8600,-12.63049577
1.8650,-12.40503985
1.8700,-12.17878331
1.8750,-11.95138726
1.8800,-11.72268195
1.8850,-11.4922571
1.8900,-11.25995637
1.8950,-11.02568874
1.9000,-10.78919447
1.9050,-10.55053564
1.9100,-10.30953613
1.9150,-10.06635893
1.9200,-9.821334624
1.9250,-9.573649468
1.9300,-9.323526228
1.9350,-9.070618882
1.9400,-8.814392292
1.9450,-8.555115341
1.9500,-8.292122788
1.9550,-8.025427816
1.9600,-7.754592982
1.9650,-7.479839827
1.9700,-7.20091132
1.9750,-6.917584008
1.9800,-6.629642693
1.9850,-6.336925692
1.9900,-6.039268543
1.9950,-5.73653325
2.0000,-5.428995949
2.0050,-5.11635994
2.0100,-4.798804375
2.0150,-4.476614296
2.0200,-4.149733595
2.0250,-3.818267932
2.0300,-3.482050961
2.0350,-3.141257082
2.0400,-2.796014866
2.0450,-2.445959561
2.0500,-2.091649543
2.0550,-1.732934372
2.0600,-1.369822718
2.0650,-1.00244037
2.0700,-0.6307206895
2.0750,-0.2544911953
2.0800,0.126469782
2.0850,0.5119583433
2.0900,0.901903892
2.0950,1.296443624
2.1000,1.695307883
2.1050,2.098272658
2.1100,2.505740268
2.1150,2.917637994
2.1200,3.333758936
2.1250,3.754252548
2.1300,4.179068525
2.1350,4.60812404
2.1400,5.041347765
2.1450,5.478224468
2.1500,5.918729031
2.1550,6.362586979
2.1600,6.810210691
2.1650,7.261364043
2.1700,7.715824466
2.1750,8.173801211
2.1800,8.635108146
2.1850,9.0995203
2.1900,9.567074347
2.1950,10.03816747
2.2000,10.5125515
2.2050,10.99023763
2.2100,11.47091906
2.2150,11.95501987
2.2200,12.44238149
2.2250,12.93257414
2.2300,13.4252677
2.2350,13.92057337
2.2400,14.41810996
2.2450,14.91800455
2.2500,15.4199208
2.2550,15.92372875
2.2600,16.42913686
2.2650,16.93590667
2.2700,17.44383077
2.2750,17.95293071
2.2800,18.46298999
2.2850,18.97380543
2.2900,19.48525214
2.2950,19.99711623
2.3000,20.50928604
2.3050,21.02108005
2.3100,21.53255606
2.3150,22.04353249
2.3200,22.55374927
2.3250,23.0630815
2.3300,23.57134373
2.3350,24.07803676
2.3400,24.58272682
2.3450,25.08558374
2.3500,25.58606359
2.3550,26.08426519
2.3600,26.57989918
2.3650,27.07261435
2.3700,27.56274264
2.3750,28.04949278
2.3800,28.53295893
2.3850,29.01290911
2.3900,29.48925767
2.3950,29.96166741
2.4000,30.42995745
2.4050,30.89433334
2.4100,31.35438594
2.4150,31.81025816
2.4200,32.26198732
2.4250,32.70951847
2.4300,33.1532051
2.4350,33.59295962
2.4400,34.0288427
2.4450,34.46073147
2.4500,34.88803403
2.4550,35.31048617
2.4600,35.72795214
2.4650,36.14007554
2.4700,36.54693144
2.4750,36.94814169
2.4800,37.34361603
2.4850,37.73279596
2.4900,38.11583394
2.4950,38.49268934
2.5000,38.86383021
2.5050,39.22967077
2.5100,39.5906959
2.5150,39.94692446
2.5200,40.29862286
2.5250,40.64582972
2.5300,40.98845482
2.5350,41.3267203
2.5400,41.66090007
2.5450,41.99102014
2.5500,42.31725737
2.5550,42.63923969
2.5600,42.9571142
2.5650,43.27118929
2.5700,43.58085033
2.5750,43.88596844
2.5800,44.1865054
2.5850,44.48202858
2.5900,44.77227775
2.5950,45.05740697
2.6000,45.33763812
2.6050,45.61312742
2.6100,45.88361336
2.6150,46.14985954
2.6200,46.4119612
2.6250,46.67033023
2.6300,46.92510496
2.6350,47.17651482
2.6400,47.42509472
2.6450,47.67066837
2.6500,47.91342237
2.6550,48.15338861
2.6600,48.39082548
2.6650,48.62565377
2.6700,48.85768262
2.6750,49.08679607
2.6800,49.31280287
2.6850,49.5355456
2.6900,49.7546077
2.6950,49.97025741
2.7000,50.18242497
2.7050,50.39135176
2.7100,50.59729545
2.7150,50.80019587
2.7200,51.00061454
2.7250,51.19836993
2.7300,51.39362799
2.7350,51.58561378
2.7400,51.77407529
2.7450,51.95932656
2.7500,52.14181958
2.7550,52.32202002
2.7600,52.49995516
2.7650,52.67632301
2.7700,52.85094513
2.7750,53.02413274
2.7800,53.19594493
2.7850,53.36720442
2.7900,53.53795581
2.7950,53.70799193
2.8000,53.87681709
2.8050,54.04388322
2.8100,54.20897939
2.8150,54.371842
2.8200,54.53268404
2.8250,54.69152413
2.8300,54.84894943
2.8350,55.00546217
2.8400,55.16171863
2.8450,55.31801991
2.8500,55.47409452
2.8550,55.62983712
2.8600,55.78511653
2.8650,55.93956331
2.8700,56.09305795
2.8750,56.2453616
2.8800,56.39607602
2.8850,56.54521547
2.8900,56.69290064
2.8950,56.83871594
2.9000,56.98274854
2.9050,57.12509314
2.9100,57.26534011
2.9150,57.40310133
2.9200,57.53823795
2.9250,57.67036287
2.9300,57.79953502
2.9350,57.92552933
2.9400,58.04842396
2.9450,58.167987
2.9500,58.28471375
2.9550,58.39866178
2.9600,58.50982775
2.9650,58.6186888
2.9700,58.72500679
2.9750,58.82918811
2.9800,58.9312698
2.9850,59.03110584
2.9900,59.12901474
2.9950,59.22500593
3.0000,59.31924654
3.0050,59.41134717
3.0100,59.50133623
3.0150,59.58990762
3.0200,59.67691614
3.0250,59.76256533
3.0300,59.84702581
3.0350,59.93096686
3.0400,60.01429297
3.0450,60.09696601
3.0500,60.17926696
3.0550,60.26138232
3.0600,60.34340641
3.0650,60.4253061
3.0700,60.50704253
3.0750,60.58881606
3.0800,60.67069654
3.0850,60.75215976
3.0900,60.83284902
3.0950,60.91303829
3.1000,60.99270224
3.1050,61.07232598
3.1100,61.15183136
3.1150,61.23125194
3.1200,61.31046235
3.1250,61.38954966
3.1300,61.46814816
3.1350,61.54571641
3.1400,61.62234343
3.1450,61.69812469
3.1500,61.77367987
3.1550,61.84926812
3.1600,61.9248108
3.1650,62.00039502
3.1700,62.07604488
3.1750,62.15136666
3.1800,62.22628071
3.1850,62.30069465
3.1900,62.37413034
3.1950,62.44668594
3.2000,62.51773303
3.2050,62.58688454
3.2100,62.65461218
3.2150,62.72071727
3.2200,62.78517831
3.2250,62.84790571
3.2300,62.90900995
3.2350,62.9688349
3.2400,63.02721607
3.2450,63.08452925
3.2500,63.14046578
3.2550,63.19492335
3.2600,63.24778665
3.2650,63.29881259
3.2700,63.34836887
3.2750,63.39676481
3.2800,63.44405179
3.2850,63.49073353
3.2900,63.53686098
3.2950,63.58243045
3.3000,63.62738814
3.3050,63.67197518
3.3100,63.7160928
3.3150,63.75958993
3.3200,63.80242088
3.3250,63.84450482
3.3300,63.88585559
3.3350,63.92671389
3.3400,63.96762664
3.3450,64.00904062
3.3500,64.05086779
3.3550,64.09329071
3.3600,64.13651913
3.3650,64.18042932
3.3700,64.22551712
3.3750,64.27166848
3.3800,64.31893419
3.3850,64.36760434
3.3900,64.41781957
3.3950,64.46917408
3.4000,64.52164837
3.4050,64.57456774
3.4100,64.62796528
3.4150,64.6820061
3.4200,64.73684292
3.4250,64.79241408
3.4300,64.84854804
3.4350,64.90493446
3.4400,64.96110876
3.4450,65.01684469
3.4500,65.07170545
3.4550,65.12548941
3.4600,65.17825568
3.4650,65.22993235
3.4700,65.28061957
3.4750,65.33032361
3.4800,65.37896206
3.4850,65.42655785
3.4900,65.47324392
3.4950,65.51891586
3.5000,65.56372468
3.5050,65.6077895
3.5100,65.65072947
3.5150,65.69212043
3.5200,65.73234306
3.5250,65.77152721
3.5300,65.80939694
3.5350,65.84573074
3.5400,65.88055213
3.5450,65.91398708
3.5500,65.94576239
3.5550,65.97554111
3.5600,66.00352872
3.5650,66.02995597
3.5700,66.05479174
3.5750,66.07770073
3.5800,66.09860131
3.5850,66.11747411
3.5900,66.13461637
3.5950,66.14983436
3.6000,66.16305201
3.6050,66.17429549
3.6100,66.18369431
3.6150,66.19141941
3.6200,66.19763868
3.6250,66.20265389
3.6300,66.20600308
3.6350,66.2076073
3.6400,66.20760783
3.6450,66.20599668
3.6500,66.20294802
3.6550,66.19835587
3.6600,66.1920159
3.6650,66.18423682
3.6700,66.17471026
3.6750,66.16362305
3.6800,66.15108483
3.6850,66.13706435
3.6900,66.12159457
3.6950,66.1049141
3.7000,66.08708818
3.7050,66.06856905
3.7100,66.04938655
3.7150,66.02946648
3.7200,66.00874285
3.7250,65.98739954
3.7300,65.96568886
3.7350,65.94399764
3.7400,65.92218238
3.7450,65.9004263
3.7500,65.87893465
3.7550,65.85832466
3.7600,65.83861821
3.7650,65.81992332
3.7700,65.80230663
3.7750,65.78601343
3.7800,65.77119275
3.7850,65.75780168
3.7900,65.74585667
3.7950,65.73548414
3.8000,65.72675989
3.8050,65.7195544
3.8100,65.71416454
3.8150,65.71103913
3.8200,65.7101608
3.8250,65.7112482
3.8300,65.71462331
3.8350,65.72016448
3.8400,65.72798096
3.8450,65.73803119
3.8500,65.75048933
3.8550,65.76561892
3.8600,65.78295474
3.8650,65.80230188
3.8700,65.82345505
3.8750,65.84633604
3.8800,65.87135618
3.8850,65.89836348
3.8900,65.92701906
3.8950,65.95733247
3.9000,65.9891998
3.9050,66.02270546
3.9100,66.05764822
3.9150,66.09392156
3.9200,66.1313522
3.9250,66.16962162
3.9300,66.20898208
3.9350,66.24930666
3.9400,66.29016739
3.9450,66.33135893
3.9500,66.37291907
3.9550,66.4145641
3.9600,66.45638894
3.9650,66.49810142
3.9700,66.5397167
3.9750,66.58091266
3.9800,66.62146502
3.9850,66.66136208
3.9900,66.70052775
3.9950,66.73894691
4.0000,66.77668911
4.0050,66.81356668
4.0100,66.84942538
4.0150,66.88405803
4.0200,66.91758657
4.0250,66.94977531
4.0300,66.98068038
4.0350,67.010175
4.0400,67.0384209
4.0450,67.06538757
4.0500,67.09101523
4.0550,67.11501059
4.0600,67.13741392
4.0650,67.15833061
4.0700,67.17786536
4.0750,67.19632166
4.0800,67.21381065
4.0850,67.23030649
4.0900,67.24569707
4.0950,67.26011052
4.1000,67.27342873
4.1050,67.28597594
4.1100,67.2977344
4.1150,67.30872301
4.1200,67.31864698
4.1250,67.32764611
4.1300,67.33567702
4.1350,67.3431197
4.1400,67.34995357
4.1450,67.35608899
4.1500,67.36155794
4.1550,67.36623667
4.1600,67.3704169
4.1650,67.37400907
4.1700,67.37710189
4.1750,67.37989104
4.1800,67.38179825
4.1850,67.38254131
4.1900,67.38233483
4.1950,67.38126432
4.2000,67.37961081
4.2050,67.37722854
4.2100,67.37405228
4.2150,67.37025395
4.2200,67.3656098
4.2250,67.36001313
4.2300,67.35319507
4.2350,67.34517941
4.2400,67.33603694
4.2450,67.32574859
4.2500,67.31401061
4.2550,67.3008155
4.2600,67.28627549
4.2650,67.27063439
4.2700,67.25404278
4.2750,67.23633469
4.2800,67.21743778
4.2850,67.19722945
4.2900,67.17587728
4.2950,67.15348589
4.3000,67.12965692
4.3050,67.10436469
4.3100,67.07738445
4.3150,67.04882106
4.3200,67.01871506
4.3250,66.98722011
4.3300,66.95407007
4.3350,66.91932504
4.3400,66.88304071
4.3450,66.84522286
4.3500,66.80582176
4.3550,66.764808
4.3600,66.72205432
4.3650,66.67758065
4.3700,66.63132718
4.3750,66.5831935
4.3800,66.53313964
4.3850,66.48118858
4.3900,66.42753875
4.3950,66.3721067
4.4000,66.31492728
4.4050,66.25598394
4.4100,66.19516986
4.4150,66.13224365
4.4200,66.06742378
4.4250,66.00101996
4.4300,65.93295302
4.4350,65.86322797
4.4400,65.79153804
4.4450,65.71797733
4.4500,65.64266785
4.4550,65.56575983
4.4600,65.48723546
4.4650,65.40701044
4.4700,65.32495775
4.4750,65.24093129
4.4800,65.15510105
4.4850,65.06755349
4.4900,64.97810252
4.4950,64.88682383
4.5000,64.79340617
4.5050,64.69805732
4.5100,64.60082453
4.5150,64.50123199
4.5200,64.39955918
4.5250,64.29565947
4.5300,64.18980435
4.5350,64.0820466
4.5400,63.97220489
4.5450,63.86024002
4.5500,63.74636948
4.5550,63.63058988
4.5600,63.51286399
4.5650,63.39302402
4.5700,63.27101088
4.5750,63.14707154
4.5800,63.02175003
4.5850,62.89507299
4.5900,62.76692016
4.5950,62.63689858
4.6000,62.50554338
4.6050,62.37286138
4.6100,62.23923451
4.6150,62.10477484
4.6200,61.96922619
4.6250,61.83238
4.6300,61.6945864
4.6350,61.55584228
4.6400,61.41616969
4.6450,61.27560804
4.6500,61.13425197
4.6550,60.99237349
4.6600,60.85015299
4.6650,60.7073444
4.6700,60.56399566
4.6750,60.41996697
4.6800,60.27548329
4.6850,60.13037337
4.6900,59.98464513
4.6950,59.83848899
4.7000,59.69178493
4.7050,59.54459047
4.7100,59.39660153
4.7150,59.24827644
4.7200,59.0994033
4.7250,58.94983884
4.7300,58.79955333
4.7350,58.64827152
4.7400,58.49636818
4.7450,58.34370246
4.7500,58.19020528
4.7550,58.03588204
4.7600,57.88081603
4.7650,57.72500073
4.7700,57.56848877
4.7750,57.41112268
4.7800,57.25272456
4.7850,57.09358278
4.7900,56.93402401
4.7950,56.77375335
4.8000,56.61279642
4.8050,56.45072204
4.8100,56.28725569
4.8150,56.12267255
4.8200,55.95693442
4.8250,55.78996945
4.8300,55.6216086
4.8350,55.45145735
4.8400,55.27950772
4.8450,55.10557172
4.8500,54.92959542
4.8550,54.75188293
4.8600,54.57243129
4.8650,54.3911069
4.8700,54.20795674
4.8750,54.0229236
4.8800,53.83579967
4.8850,53.6466554
4.8900,53.45522192
4.8950,53.26169351
4.9000,53.06564473
4.9050,52.8673062
4.9100,52.66616844
4.9150,52.46195726
4.9200,52.25426419
4.9250,52.04338685
4.9300,51.82905551
4.9350,51.61128679
4.9400,51.39024169
4.9450,51.16552061
4.9500,50.93735431
4.9550,50.70507977
4.9600,50.4682514
4.9650,50.22687584
4.9700,49.98118398
4.9750,49.73086713
4.9800,49.47561472
4.9850,49.2157143
4.9900,48.9508697
4.9950,48.68123601
5.0000,48.40676321
5.0050,48.12737497
5.0100,47.8433162
5.0150,47.55441876
5.0200,47.26084867
5.0250,46.96239592
5.0300,46.65898921
5.0350,46.35082121
5.0400,46.03764416
5.0450,45.71957536
5.0500,45.39642287
5.0550,45.06812566
5.0600,44.73439055
5.0650,44.39537308
5.0700,44.05127647
5.0750,43.7025539
5.0800,43.34913628
5.0850,42.99088003
5.0900,42.62770488
5.0950,42.25984035
5.1000,41.88742293
5.1050,41.51045341
5.1100,41.12859
5.1150,40.74177722
5.1200,40.34955252
5.1250,39.95259551
5.1300,39.55037329
5.1350,39.14322939
5.1400,38.73153952
5.1450,38.31545719
5.1500,37.89463696
5.1550,37.46936925
5.1600,37.03965159
5.1650,36.60580649
5.1700,36.16790159
5.1750,35.72627354
5.1800,35.28080117
5.1850,34.83156986
5.1900,34.3788294
5.1950,33.92316711
5.2000,33.46499734
5.2050,33.00432815
5.2100,32.54153949
5.2150,32.07667733
5.2200,31.61033152
5.2250,31.1419178
5.2300,30.67153244
5.2350,30.19907041
5.2400,29.72434274
5.2450,29.24750318
5.2500,28.76866559
5.2550,28.28821584
5.2600,27.80635289
5.2650,27.32336704
5.2700,26.83910505
5.2750,26.35405458
5.2800,25.86817461
5.2850,25.38119494
5.2900,24.89345269
5.2950,24.40470331
5.3000,23.91512113
5.3050,23.42468927
5.3100,22.933434
5.3150,22.44153419
5.3200,21.94878671
5.3250,21.45536627
5.3300,20.96137184
5.3350,20.46658161
5.3400,19.97127272
5.3450,19.47515091
5.3500,18.97875573
5.3550,18.48185319
5.3600,17.98470673
5.3650,17.48700079
5.3700,16.9886453
5.3750,16.48945859
5.3800,15.98974235
5.3850,15.48957419
5.3900,14.98878711
5.3950,14.48750804
5.4000,13.98607435
5.4050,13.48454709
5.4100,12.98332035
5.4150,12.48248844
5.4200,11.98224311
5.4250,11.48262923
5.4300,10.98424584
5.4350,10.48742281
5.4400,9.992375432
5.4450,9.499516045
5.4500,9.008824285
5.4550,8.520260336
5.4600,8.034200517
5.4650,7.550584754
5.4700,7.069773048
5.4750,6.592151672
5.4800,6.117634062
5.4850,5.646340148
5.4900,5.178451185
5.4950,4.713637443
5.5000,4.252529196
5.5050,3.795203281
5.5100,3.341720563
5.5150,2.892522658
5.5200,2.447194
5.5250,2.00620557
5.5300,1.569740614
5.5350,1.137365443
5.5400,0.7092771662
5.5450,0.285456436
5.5500,-0.1342140502
5.5550,-0.5497104473
5.5600,-0.9607313257
5.5650,-1.367143388
5.5700,-1.768495954
5.5750,-2.164810224
5.5800,-2.556340917
5.5850,-2.942788871
5.5900,-3.324573712
5.5950,-3.701672894
5.6000,-4.074514948
5.6050,-4.443573376
5.6100,-4.80871569
5.6150,-5.169706214
5.6200,-5.526657618
5.6250,-5.879441294
5.6300,-6.22801479
5.6350,-6.572187729
5.6400,-6.912000992
5.6450,-7.247230624
5.6500,-7.578244643
5.6550,-7.9050877
5.6600,-8.227736941
5.6650,-8.545977173
5.6700,-8.860065269
5.6750,-9.170331998
5.6800,-9.477011603
5.6850,-9.780127651
5.6900,-10.07994451
5.6950,-10.37628437
5.7000,-10.66909918
5.7050,-10.95835625
5.7100,-11.24405848
5.7150,-11.52619076
5.7200,-11.8044214
5.7250,-12.07926074
5.7300,-12.35107693
5.7350,-12.62035949
5.7400,-12.88745555
5.7450,-13.15235814
5.7500,-13.41460506
5.7550,-13.67397894
5.7600,-13.93053206
5.7650,-14.18372318
5.7700,-14.43370294
5.7750,-14.68046145
5.7800,-14.92380583
5.7850,-15.16378905
5.7900,-15.40020221
5.7950,-15.6326492
5.8000,-15.8618637
5.8050,-16.0875073
5.8100,-16.30983751
5.8150,-16.52923035
5.8200,-16.74587126
5.8250,-16.96018985
5.8300,-17.17242856
5.8350,-17.3822914
5.8400,-17.59000043
5.8450,-17.79556434
5.8500,-17.99893003
5.8550,-18.19997937
5.8600,-18.39915822
5.8650,-18.59624453
5.8700,-18.79154139
5.8750,-18.98514358
5.8800,-19.1767057
5.8850,-19.36611316
5.8900,-19.55328442
5.8950,-19.73864206
5.9000,-19.92190189
5.9050,-20.10291926
5.9100,-20.28168664
5.9150,-20.45813707
5.9200,-20.63211696
5.9250,-20.8033702
5.9300,-20.97180769
5.9350,-21.13764681
5.9400,-21.30101254
5.9450,-21.46204839
5.9500,-21.62097452
5.9550,-21.77796685
5.9600,-21.93324513
5.9650,-22.08690052
5.9700,-22.23878401
5.9750,-22.38889149
5.9800,-22.53710991
5.9850,-22.68352098
5.9900,-22.82809615
5.9950,-22.97115416
6.0000,-23.11294561
6.0050,-23.25315332
6.0100,-23.3920455
6.0150,-23.52969509
6.0200,-23.66623886
6.0250,-23.80152691
6.0300,-23.93533238
6.0350,-24.06747498
6.0400,-24.19801918
6.0450,-24.32681359
6.0500,-24.45407962
6.0550,-24.5799243
6.0600,-24.7045116
6.0650,-24.82784196
6.0700,-24.95005222
6.0750,-25.07119371
6.0800,-25.19115656
6.0850,-25.31009648
6.0900,-25.42789224
6.0950,-25.54485532
6.1000,-25.66082088
6.1050,-25.77621279
6.1100,-25.8911498
6.1150,-26.00570424
6.1200,-26.1197928
6.1250,-26.23339414
6.1300,-26.34655866
6.1350,-26.45947514
6.1400,-26.57189046
6.1450,-26.68406866
6.1500,-26.7960301
6.1550,-26.90811733
6.1600,-27.02028947
6.1650,-27.13299851
6.1700,-27.24575986
6.1750,-27.35896829
6.1800,-27.47214164
6.1850,-27.5853474
6.1900,-27.69806008
6.1950,-27.80978526
6.2000,-27.92010247
6.2050,-28.02872851
6.2100,-28.13509106
6.2150,-28.23905243
6.2200,-28.34015203
6.2250,-28.43812587
6.2300,-28.53274331
6.2350,-28.6236731
6.2400,-28.71086809
6.2450,-28.79394347
6.2500,-28.87263467
6.2550,-28.94693981
6.2600,-29.01676254
6.2650,-29.08196367
6.2700,-29.14254321
6.2750,-29.19833495
6.2800,-29.24927963
6.2850,-29.29562305
6.2900,-29.33765599
6.2950,-29.37519402
6.3000,-29.40856144
6.3050,-29.4381345
6.3100,-29.46388972
6.3150,-29.48584409
6.3200,-29.50430737
6.3250,-29.51948469
6.3300,-29.53138974
6.3350,-29.54045632
6.3400,-29.54660627
6.3450,-29.54970221
6.3500,-29.54976407
6.3550,-29.54666248
6.3600,-29.5404451
6.3650,-29.53134121
6.3700,-29.51929239
6.3750,-29.50428427
6.3800,-29.4866024
6.3850,-29.4664431
6.3900,-29.44432611
6.3950,-29.42030581
6.4000,-29.3943678
6.4050,-29.36667384
6.4100,-29.33723837
6.4150,-29.30625462
6.4200,-29.27376099
6.4250,-29.23978347
6.4300,-29.20445198
6.4350,-29.1678682
6.4400,-29.13021439
6.4450,-29.09160082
6.4500,-29.05223896
6.4550,-29.01209312
6.4600,-28.97143923
6.4650,-28.9300742
6.4700,-28.88844526
6.4750,-28.84617238
6.4800,-28.80356587
6.4850,-28.76056184
6.4900,-28.71719555
6.4950,-28.67352326
6.5000,-28.62941394
6.5050,-28.58473809
6.5100,-28.53966345
6.5150,-28.49400196
6.5200,-28.4476843
6.5250,-28.40087962
6.5300,-28.35361565
6.5350,-28.30593106
6.5400,-28.25761029
6.5450,-28.2087718
6.5500,-28.15946887
6.5550,-28.10968091
6.5600,-28.05933372
6.5650,-28.00837231
6.5700,-27.95696901
6.5750,-27.90507312
6.5800,-27.85293218
6.5850,-27.80032651
6.5900,-27.7473094
6.5950,-27.69413815
6.6000,-27.64084117
6.6050,-27.58743197
6.6100,-27.53409331
6.6150,-27.48101412
6.6200,-27.42832021
6.6250,-27.37584337
6.6300,-27.32362152
6.6350,-27.27144356
6.6400,-27.21961506
6.6450,-27.1683141
6.6500,-27.11777477
6.6550,-27.06813476
6.6600,-27.01939212
6.6650,-26.97167043
6.6700,-26.92512668
6.6750,-26.87999979
6.6800,-26.83614113
6.6850,-26.79342473
6.6900,-26.75167602
6.6950,-26.71106547
6.7000,-26.67174329
6.7050,-26.63368848
6.7100,-26.59706185
6.7150,-26.56196054
6.7200,-26.52865791
6.7250,-26.49724774
6.7300,-26.4679401
6.7350,-26.44098907
6.7400,-26.4165763
6.7450,-26.39464197
6.7500,-26.3751861
6.7550,-26.35821796
6.7600,-26.34348368
6.7650,-26.33108881
6.7700,-26.32084783
6.7750,-26.31271423
6.7800,-26.30647898
6.7850,-26.30202058
6.7900,-26.29917932
6.7950,-26.29768969
6.8000,-26.29742931
6.8050,-26.29786274
6.8100,-26.29860441
6.8150,-26.2993578
6.8200,-26.29992506
6.8250,-26.30011947
6.8300,-26.29978388
6.8350,-26.29901907
6.8400,-26.29760063
6.8450,-26.29554115
6.8500,-26.29289859
6.8550,-26.2897279
6.8600,-26.28609692
6.8650,-26.28221541
6.8700,-26.27801296
6.8750,-26.27380887
6.8800,-26.26935834
6.8850,-26.26506686
6.8900,-26.26071219
6.8950,-26.25639506
6.9000,-26.25172158
6.9050,-26.24662
6.9100,-26.24092178
6.9150,-26.23440994
6.9200,-26.22679541
6.9250,-26.21817084
6.9300,-26.20870455
6.9350,-26.19837056
6.9400,-26.18684778
6.9450,-26.17422262
6.9500,-26.1603286
6.9550,-26.14524292
6.9600,-26.12890229
6.9650,-26.1113142
6.9700,-26.09263012
6.9750,-26.07273128
6.9800,-26.0518116
6.9850,-26.03040312
6.9900,-26.00870496
6.9950,-25.98695273
7.0000,-25.96542703
7.0050,-25.9441957
7.0100,-25.92342808
7.0150,-25.90326353
7.0200,-25.88368258
7.0250,-25.86466908
7.0300,-25.84622502
7.0350,-25.82812526
7.0400,-25.81054108
7.0450,-25.79348769
7.0500,-25.77715901
7.0550,-25.7614376
7.0600,-25.74667993
7.0650,-25.73272082
7.0700,-25.71972172
7.0750,-25.70769948
7.0800,-25.69669786
7.0850,-25.68673509
7.0900,-25.67780007
7.0950,-25.66969309
7.1000,-25.66233306
7.1050,-25.65568484
7.1100,-25.64976084
7.1150,-25.64458438
7.1200,-25.64000014
7.1250,-25.63595473
7.1300,-25.63237508
7.1350,-25.62915892
7.1400,-25.62632368
7.1450,-25.62378997
7.1500,-25.62136415
7.1550,-25.61880617
7.1600,-25.61609169
7.1650,-25.61305022
7.1700,-25.60960058
7.1750,-25.60565719
7.1800,-25.60138959
7.1850,-25.59659302
7.1900,-25.59140177
7.1950,-25.58569765
7.2000,-25.57967956
7.2050,-25.57323111
7.2100,-25.56631193
7.2150,-25.55876343
7.2200,-25.55070539
7.2250,-25.54174009
7.2300,-25.53145661
7.2350,-25.51966401
7.2400,-25.50613204
7.2450,-25.49083593
7.2500,-25.47363454
7.2550,-25.45447797
7.2600,-25.43327456
7.2650,-25.41018084
7.2700,-25.38511129
7.2750,-25.35820454
7.2800,-25.32979798
7.2850,-25.29978008
7.2900,-25.26808033
7.2950,-25.23467236
7.3000,-25.19953354
7.3050,-25.1628044
7.3100,-25.12437754
7.3150,-25.08418896
7.3200,-25.0423728
7.3250,-24.99890162
7.3300,-24.9537915
7.3350,-24.90754613
7.3400,-24.86001816
7.3450,-24.81153885
7.3500,-24.76217807
7.3550,-24.71248729
7.3600,-24.66239488
7.3650,-24.61214608
7.3700,-24.56153831
7.3750,-24.51052703
7.3800,-24.45895531
7.3850,-24.40688501
7.3900,-24.35438201
7.3950,-24.30169129
7.4000,-24.24906589
7.4050,-24.19687011
7.4100,-24.14526971
7.4150,-24.09437995
7.4200,-24.04433362
7.4250,-23.99528457
7.4300,-23.94713954
7.4350,-23.90019507
7.4400,-23.85452004
7.4450,-23.81008148
7.4500,-23.76701961
7.4550,-23.72544328
7.4600,-23.68544295
7.4650,-23.64701604
7.4700,-23.61007113
7.4750,-23.57453243
7.4800,-23.54034652
7.4850,-23.50737963
7.4900,-23.47514873
7.4950,-23.44357143
7.5000,-23.41240565
7.5050,-23.38143165
7.5100,-23.35017928
7.5150,-23.31879389
7.5200,-23.28684445
7.5250,-23.25414036
7.5300,-23.22070331
7.5350,-23.18606288
7.5400,-23.15043475
7.5450,-23.11327712
7.5500,-23.07435821
7.5550,-23.03361223
7.5600,-22.9908504
7.5650,-22.9459802
7.5700,-22.89924124
7.5750,-22.85095287
7.5800,-22.80115143
7.5850,-22.74979338
7.5900,-22.69716286
7.5950,-22.64332974
7.6000,-22.58847423
7.6050,-22.5324444
7.6100,-22.47529846
7.6150,-22.41706624
7.6200,-22.35750831
7.6250,-22.296734
7.6300,-22.23475746
7.6350,-22.17149485
7.6400,-22.10701294
7.6450,-22.04133337
7.6500,-21.97423434
7.6550,-21.90547978
7.6600,-21.83479133
7.6650,-21.76193779
7.6700,-21.68714605
7.6750,-21.61042663
7.6800,-21.53218589
7.6850,-21.45232586
7.6900,-21.37076133
7.6950,-21.28752644
7.7000,-21.20251703
7.7050,-21.11559139
7.7100,-21.02693496
7.7150,-20.93668237
7.7200,-20.84523169
7.7250,-20.7525521
7.7300,-20.65888157
7.7350,-20.5637863
7.7400,-20.46740936
7.7450,-20.36952034
7.7500,-20.27035302
7.7550,-20.17024159
7.7600,-20.06904859
7.7650,-19.96646411
7.7700,-19.86272006
7.7750,-19.75795875
7.7800,-19.65198723
7.7850,-19.54488406
7.7900,-19.43691416
7.7950,-19.32809958
7.8000,-19.21838422
7.8050,-19.10729453
7.8100,-18.994837
7.8150,-18.88049276
7.8200,-18.76403421
7.8250,-18.64542122
7.8300,-18.52421948
7.8350,-18.40094146
7.8400,-18.27512712
7.8450,-18.14667313
7.8500,-18.01552109
7.8550,-17.88150762
7.8600,-17.74506328
7.8650,-17.60576561
7.8700,-17.46340213
7.8750,-17.31726341
7.8800,-17.16711971
7.8850,-17.01281808
7.8900,-16.85453034
7.8950,-16.69210058
7.9000,-16.52537805
7.9050,-16.35460851
7.9100,-16.17985532
7.9150,-16.00136035
7.9200,-15.81918105
7.9250,-15.63338126
7.9300,-15.4437016
7.9350,-15.24994354
7.9400,-15.05184542
7.9450,-14.84881269
7.9500,-14.64093098
7.9550,-14.42774801
7.9600,-14.20922547
7.9650,-13.9853926
7.9700,-13.75627611
7.9750,-13.52191678
7.9800,-13.28193404
7.9850,-13.03652315
7.9900,-12.78611048
7.9950,-12.53025501
8.0000,-12.26918808
8.0050,-12.00293369
8.0100,-11.73127076
8.0150,-11.4543875
8.0200,-11.17213196
8.0250,-10.88493468
8.0300,-10.59273872
8.0350,-10.29592082
8.0400,-9.994619072
8.0450,-9.689309679
8.0500,-9.379765416
8.0550,-9.065624214
8.0600,-8.747011967
8.0650,-8.424463697
8.0700,-8.097871711
8.0750,-7.766980022
8.0800,-7.431831981
8.0850,-7.092462728
8.0900,-6.748857749
8.0950,-6.400734164
8.1000,-6.048224711
8.1050,-5.691377495
8.1100,-5.330045218
8.1150,-4.964160668
8.1200,-4.593631547
8.1250,-4.218611753
8.1300,-3.839009286
8.1350,-3.454219142
8.1400,-3.064355603
8.1450,-2.66947902
8.1500,-2.269921158
8.1550,-1.865541476
8.1600,-1.456253793
8.1650,-1.042461327
8.1700,-0.6241667664
8.1750,-0.2017619361
8.1800,0.2249395882
8.1850,0.6556813197
8.1900,1.090505761
8.1950,1.529560264
8.2000,1.97280345
8.2050,2.420083699
8.2100,2.871320832
8.2150,3.326251043
8.2200,3.785645441
8.2250,4.248750216
8.2300,4.714984416
8.2350,5.184252744
8.2400,5.656749289
8.2450,6.131848639
8.2500,6.609421553
8.2550,7.088963907
8.2600,7.569934267
8.2650,8.052002892
8.2700,8.535011791
8.2750,9.018551301
8.2800,9.501858736
8.2850,9.985020807
8.2900,10.46754592
8.2950,10.94919131
8.3000,11.42957057
8.3050,11.90852549
8.3100,12.38571589
8.3150,12.86140075
8.3200,13.33538841
8.3250,13.80792789
8.3300,14.27888912
8.3350,14.74853872
8.3400,15.21696041
8.3450,15.68423158
8.3500,16.1504456
8.3550,16.61553967
8.3600,17.0796817
8.3650,17.54273717
8.3700,18.00491156
8.3750,18.465755
8.3800,18.92488469
8.3850,19.38246535
8.3900,19.83824324
8.3950,20.29239312
8.4000,20.74488666
8.4050,21.19536274
8.4100,21.64361679
8.4150,22.08994754
8.4200,22.53412137
8.4250,22.97655798
8.4300,23.41752311
8.4350,23.85685474
8.4400,24.2945196
8.4450,24.73082608
8.4500,25.1657839
8.4550,25.59949497
8.4600,26.03199049
8.4650,26.46368838
8.4700,26.89442218
8.4750,27.32464149
8.4800,27.75424838
8.4850,28.18337259
8.4900,28.61198793
8.4950,29.04024508
8.5000,29.46791391
8.5050,29.89463273
8.5100,30.31977696
8.5150,30.74392832
8.5200,31.16556885
8.5250,31.58537968
8.5300,32.00365141
8.5350,32.42045925
8.5400,32.83579247
8.5450,33.24979419
8.5500,33.66277308
8.5550,34.07471017
8.5600,34.48601123
8.5650,34.89687685
8.5700,35.30714052
8.5750,35.716656
8.5800,36.12559675
8.5850,36.53352866
8.5900,36.94037077
8.5950,37.34581665
8.6000,37.75011696
8.6050,38.1532382
8.6100,38.55538082
8.6150,38.95641923
8.6200,39.35630619
8.6250,39.75481861
8.6300,40.15175765
8.6350,40.54707615
8.6400,40.94039616
8.6450,41.33123683
8.6500,41.71947099
8.6550,42.10439699
8.6600,42.48582411
8.6650,42.86364831
8.6700,43.23722015
8.6750,43.60700846
8.6800,43.97310882
8.6850,44.33625594
8.6900,44.69665337
8.6950,45.05420744
8.7000,45.40938273
8.7050,45.76234357
8.7100,46.11324372
8.7150,46.46124273
8.7200,46.80660972
8.7250,47.14875679
8.7300,47.48748396
8.7350,47.82236639
8.7400,48.15372744
8.7450,48.48111732
8.7500,48.80484921
8.7550,49.12471678
8.7600,49.44039832
8.7650,49.75159287
8.7700,50.05849813
8.7750,50.36084449
8.7800,50.6584504
8.7850,50.95098141
8.7900,51.23833262
8.7950,51.52004931
8.8000,51.79638556
8.8050,52.06732396
8.8100,52.33317405
8.8150,52.59427825
8.8200,52.85145286
8.8250,53.10468992
8.8300,53.35427219
8.8350,53.60053208
8.8400,53.84333436
8.8450,54.08260764
8.8500,54.31793556
8.8550,54.54938435
8.8600,54.77678759
8.8650,54.99972358
8.8700,55.21824031
8.8750,55.43314124
8.8800,55.64422982
8.8850,55.8515656
8.8900,56.05527796
8.8950,56.25522405
8.9000,56.45155768
8.9050,56.64445821
8.9100,56.83329998
8.9150,57.0180694
8.9200,57.19850875
8.9250,57.37435713
8.9300,57.54567814
8.9350,57.71219312
8.9400,57.87413167
8.9450,58.03220215
8.9500,58.18676802
8.9550,58.33897263
8.9600,58.4891363
8.9650,58.63782016
8.9700,58.78542337
8.9750,58.93190402
8.9800,59.07721945
8.9850,59.22109943
8.9900,59.36328935
8.9950,59.50352638
9.0000,59.64154022
9.0050,59.77723566
9.0100,59.91095114
9.0150,60.04312918
9.0200,60.17385866
9.0250,60.30331166
9.0300,60.43186509
9.0350,60.55999891
9.0400,60.6875197
9.0450,60.81492331
9.0500,60.94218334
9.0550,61.06933293
9.0600,61.1968669
9.0650,61.32470535
9.0700,61.45264376
9.0750,61.58038643
9.0800,61.70842171
9.0850,61.83679824
9.0900,61.96580586
9.0950,62.09541539
9.1000,62.22554633
9.1050,62.35622434
9.1100,62.48749409
9.1150,62.61921221
9.1200,62.75090185
9.1250,62.8825692
9.1300,63.01392915
9.1350,63.14474797
9.1400,63.27524384
9.1450,63.40506736
9.1500,63.53444089
9.1550,63.66312498
9.1600,63.79111594
9.1650,63.91892823
9.1700,64.04651508
9.1750,64.17334962
9.1800,64.29972259
9.1850,64.42578538
9.1900,64.55154422
9.1950,64.6770663
9.2000,64.80195916
9.2050,64.92584349
9.2100,65.0488287
9.2150,65.17048327
9.2200,65.29062952
9.2250,65.40948825
9.2300,65.52659588
9.2350,65.64198149
9.2400,65.75518841
9.2450,65.86572841
9.2500,65.97300447
9.2550,66.0763933
9.2600,66.1753846
9.2650,66.26992839
9.2700,66.35977896
9.2750,66.4453204
9.2800,66.52691282
9.2850,66.60472859
9.2900,66.67938834
9.2950,66.75122675
9.3000,66.82061918
9.3050,66.8881953
9.3100,66.95379275
9.3150,67.01774194
9.3200,67.08005715
9.3250,67.14088008
9.3300,67.20013299
9.3350,67.25782344
9.3400,67.31419122
9.3450,67.36909694
9.3500,67.42268614
9.3550,67.47496169
9.3600,67.52586591
9.3650,67.57573923
9.3700,67.62493986
9.3750,67.67383285
9.3800,67.72222578
9.3850,67.77012503
9.3900,67.81786015
9.3950,67.86555245
9.4000,67.91357574
9.4050,67.96216117
9.4100,68.01161163
9.4150,68.06203195
9.4200,68.11374566
9.4250,68.16705134
9.4300,68.22172606
9.4350,68.27813446
9.4400,68.33635833
9.4450,68.3964007
9.4500,68.45815095
9.4550,68.52170402
9.4600,68.58676234
9.4650,68.65277782
9.4700,68.71968921
9.4750,68.78752336
9.4800,68.85567161
9.4850,68.92383823
9.4900,68.99155593
9.4950,69.05847291
9.5000,69.12419436
9.5050,69.18834003
9.5100,69.25076177
9.5150,69.31139166
9.5200,69.37009178
9.5250,69.42640643
9.5300,69.48017946
9.5350,69.53154074
9.5400,69.58054511
9.5450,69.6271743
9.5500,69.67178664
9.5550,69.71429233
9.5600,69.75503132
9.5650,69.79363145
9.5700,69.83041589
9.5750,69.86515059
9.5800,69.8977692
9.5850,69.92835605
9.5900,69.95689886
9.5950,69.98394567
9.6000,70.00958349
9.6050,70.0337418
9.6100,70.056755
9.6150,70.07889723
9.6200,70.10008625
9.6250,70.12018861
9.6300,70.13912473
9.6350,70.15677641
9.6400,70.17315012
9.6450,70.18852371
9.6500,70.20280773
9.6550,70.21624217
9.6600,70.22930156
9.6650,70.24207247
9.6700,70.25496732
9.6750,70.26840733
9.6800,70.28266232
9.6850,70.2982967
9.6900,70.31510395
9.6950,70.3334508
9.7000,70.35302641
9.7050,70.37390707
9.7100,70.39614166
9.7150,70.42000966
9.7200,70.44576094
9.7250,70.47352366
9.7300,70.50352964
9.7350,70.53556315
9.7400,70.56924549
9.7450,70.60447442
9.7500,70.64118604
9.7550,70.67900266
9.7600,70.71785008
9.7650,70.7573643
9.7700,70.79706754
9.7750,70.8365795
9.7800,70.87573781
9.7850,70.91395635
9.7900,70.95090626
9.7950,70.98633295
9.8000,71.01986513
9.8050,71.0515383
9.8100,71.08096505
9.8150,71.10807523
9.8200,71.13267958
9.8250,71.15498112
9.8300,71.17486047
9.8350,71.19214609
9.8400,71.20663305
9.8450,71.21827285
9.8500,71.22686221
9.8550,71.23270271
9.8600,71.23567289
9.8650,71.23623422
9.8700,71.23456535
9.8750,71.23110383
9.8800,71.22615176
9.8850,71.21986931
9.8900,71.21240697
9.8950,71.20326755
9.9000,71.19273369
9.9050,71.18080962
9.9100,71.16756783
9.9150,71.15285437
9.9200,71.13726597
9.9250,71.12097563
9.9300,71.10404178
9.9350,71.08658239
9.9400,71.06861658
9.9450,71.05025723
9.9500,71.03150293
9.9550,71.01233654
9.9600,70.99249028
9.9650,70.97197188
9.9700,70.95096505
9.9750,70.92918765
9.9800,70.90669419
9.9850,70.88353029
9.9900,70.85957823
9.9950,70.83482577
10.0000,70.80976656
10.0050,70.78439821
10.0100,70.7585907
10.0150,70.73216437
10.0200,70.70495687
10.0250,70.67681804
10.0300,70.64775591
10.0350,70.61794599
10.0400,70.58742589
10.0450,70.5565046
10.0500,70.52510175
10.0550,70.49304572
10.0600,70.46026203
10.0650,70.42703576
10.0700,70.39333949
10.0750,70.35905188
10.0800,70.32400824
10.0850,70.2884882
10.0900,70.25254027
10.0950,70.21595719
10.1000,70.17903748
10.1050,70.14178315
10.1100,70.10464219
10.1150,70.06756328
10.1200,70.03037851
10.1250,69.99301352
10.1300,69.95582948
10.1350,69.91862803
10.1400,69.88170045
10.1450,69.84478283
10.1500,69.80789399
10.1550,69.77099085
10.1600,69.73399061
10.1650,69.69674954
10.1700,69.65937559
10.1750,69.62172608
10.1800,69.5837675
10.1850,69.54605796
10.1900,69.50850092
10.1950,69.47150746
10.2000,69.43483349
10.2050,69.39863765
10.2100,69.36262748
10.2150,69.32661932
10.2200,69.29037395
10.2250,69.25387739
10.2300,69.21727321
10.2350,69.18061453
10.2400,69.14404009
10.2450,69.10743221
10.2500,69.07098583
10.2550,69.03485773
10.2600,68.99920885
10.2650,68.96423025
10.2700,68.92966618
10.2750,68.89555973
10.2800,68.86193527
10.2850,68.82858913
10.2900,68.79565746
10.2950,68.7628236
10.3000,68.73039858
10.3050,68.69834558
10.3100,68.66678035
10.3150,68.63618166
10.3200,68.60645532
10.3250,68.57784926
10.3300,68.55023037
10.3350,68.52361771
10.3400,68.49782511
10.3450,68.47289234
10.3500,68.4485435
10.3550,68.42489938
10.3600,68.40182969
10.3650,68.37902393
10.3700,68.35638121
10.3750,68.33369218
10.3800,68.31086022
10.3850,68.28786393
10.3900,68.26482443
10.3950,68.24171718
10.4000,68.21855847
10.4050,68.19521382
10.4100,68.17159648
10.4150,68.14768259
10.4200,68.12371427
10.4250,68.09960791
10.4300,68.07503649
10.4350,68.04997335
10.4400,68.02392442
10.4450,67.99697505
10.4500,67.96907887
10.4550,67.94029432
10.4600,67.91052811
10.4650,67.87994666
10.4700,67.84845606
10.4750,67.81607464
10.4800,67.78267464
10.4850,67.74761401
10.4900,67.71093281
10.4950,67.67227793
10.5000,67.63146372
10.5050,67.58821845
10.5100,67.54236897
10.5150,67.4939808
10.5200,67.44281642
10.5250,67.38897355
10.5300,67.33216912
10.5350,67.27243945
10.5400,67.20975623
10.5450,67.14418832
10.5500,67.07549393
10.5550,67.00387347
10.5600,66.92915187
10.5650,66.85123632
10.5700,66.7702224
10.5750,66.68607873
10.5800,66.59848833
10.5850,66.50739706
10.5900,66.41294001
10.5950,66.31549559
10.6000,66.21464456
10.6050,66.11068772
10.6100,66.00375814
10.6150,65.89376228
10.6200,65.78118389
10.6250,65.66594345
10.6300,65.54854443
10.6350,65.42888947
10.6400,65.30717497
10.6450,65.18309386
10.6500,65.05678633
10.6550,64.92815365
10.6600,64.79750955
10.6650,64.66481559
10.6700,64.53025828
10.6750,64.39399821
10.6800,64.25628287
10.6850,64.11703521
10.6900,63.97654899
10.6950,63.83485567
10.7000,63.69187332
10.7050,63.54752768
10.7100,63.40132023
10.7150,63.2532904
10.7200,63.10295366
10.7250,62.95005215
10.7300,62.79455976
10.7350,62.63658592
10.7400,62.47627164
10.7450,62.31397957
10.7500,62.14988239
10.7550,61.98376359
10.7600,61.8158746
10.7650,61.64581054
10.7700,61.47351242
10.7750,61.29888933
10.7800,61.12192386
10.7850,60.94246622
10.7900,60.76046138
10.7950,60.57596075
10.8000,60.38903803
10.8050,60.19971722
10.8100,60.00817425
10.8150,59.81410873
10.8200,59.61756912
10.8250,59.41830832
10.8300,59.21686282
10.8350,59.01319243
10.8400,58.80738409
10.8450,58.5995287
10.8500,58.39008432
10.8550,58.17870572
10.8600,57.96544442
10.8650,57.7503325
10.8700,57.53319544
10.8750,57.31435305
10.8800,57.09412949
10.8850,56.87259425
10.8900,56.64982728
10.8950,56.42574536
10.9000,56.2002711
10.9050,55.97335064
10.9100,55.7450067
10.9150,55.51483628
10.9200,55.28267197
10.9250,55.04845998
10.9300,54.81176714
10.9350,54.57294351
10.9400,54.33181581
10.9450,54.08832188
10.9500,53.84249951
10.9550,53.59412042
10.9600,53.34261842
10.9650,53.08824377
10.9700,52.83077207
10.9750,52.57000138
10.9800,52.30582532
10.9850,52.038146
10.9900,51.76687713
10.9950,51.49220524
11.0000,51.21418523
11.0050,50.93305906
11.0100,50.64908108
11.0150,50.36200739
11.0200,50.07163817
11.0250,49.77750766
11.0300,49.47951928
11.0350,49.17722065
11.0400,48.87070254
11.0450,48.55951629
11.0500,48.24349825
11.0550,47.92261006
11.0600,47.59705358
11.0650,47.26677539
11.0700,46.93191433
11.0750,46.59263502
11.0800,46.24855041
11.0850,45.89986761
11.0900,45.54594718
11.0950,45.18669009
11.1000,44.82232029
11.1050,44.452788
11.1100,44.07827892
11.1150,43.69887932
11.1200,43.31471221
11.1250,42.92591025
11.1300,42.53204208
11.1350,42.13316092
11.1400,41.72905207
11.1450,41.31981127
11.1500,40.90495606
11.1550,40.48477437
11.1600,40.05935158
11.1650,39.62891557
11.1700,39.19348307
11.1750,38.75356767
11.1800,38.30904834
11.1850,37.8604264
11.1900,37.40813653
11.1950,36.9520603
11.2000,36.49254255
11.2050,36.02941913
11.2100,35.5627975
11.2150,35.09292967
11.2200,34.6197344
11.2250,34.14354344
11.2300,33.66479611
11.2350,33.18338179
11.2400,32.69966582
11.2450,32.21386607
11.2500,31.7260784
11.2550,31.23678005
11.2600,30.74617117
11.2650,30.25433466
11.2700,29.76182902
11.2750,29.26910756
11.2800,28.77654813
11.2850,28.28450869
11.2900,27.79309039
11.2950,27.30250095
11.3000,26.81265118
11.3050,26.32411353
11.3100,25.83701966
11.3150,25.35142075
11.3200,24.86780525
11.3250,24.38658587
11.3300,23.90753079
11.3350,23.43123802
11.3400,22.95728322
11.3450,22.48595673
11.3500,22.01722011
11.3550,21.55152051
11.3600,21.08876168
11.3650,20.62888136
11.3700,20.17181622
11.3750,19.71738168
11.3800,19.26551879
11.3850,18.81600275
11.3900,18.36885278
11.3950,17.92405596
11.4000,17.48135992
11.4050,17.04090542
11.4100,16.60239939
11.4150,16.16584044
11.4200,15.73128313
11.4250,15.29874122
11.4300,14.86795883
11.4350,14.43911129
11.4400,14.01220283
11.4450,13.58702779
11.4500,13.16360924
11.4550,12.74177234
11.4600,12.32152518
11.4650,11.90247032
11.4700,11.48509804
11.4750,11.06884146
11.4800,10.65439228
11.4850,10.24161486
11.4900,9.83057637
11.4950,9.421689856
11.5000,9.014529278
11.5050,8.609067725
11.5100,8.204991859
11.5150,7.802027847
11.5200,7.400318842
11.5250,6.999856866
11.5300,6.600463026
11.5350,6.202744566
11.5400,5.806581745
11.5450,5.411828935
11.5500,5.018283372
11.5550,4.625969276
11.5600,4.234833037
11.5650,3.844864129
11.5700,3.455713337
11.5750,3.067627179
11.5800,2.680871737
11.5850,2.295548935
11.5900,1.911986465
11.5950,1.530429589
11.6000,1.150736678
11.6050,0.7728077887
11.6100,0.3966986052
11.6150,0.02254060336
11.6200,-0.3497741082
11.6250,-0.720455665
11.6300,-1.088709947
11.6350,-1.454729839
11.6400,-1.818038718
11.6450,-2.178733902
11.6500,-2.537191848
11.6550,-2.893869301
11.6600,-3.248856286
11.6650,-3.601822743
11.6700,-3.952651515
11.6750,-4.301376612
11.6800,-4.64779803
11.6850,-4.992130621
11.6900,-5.334101961
11.6950,-5.674147604
11.7000,-6.011948179
11.7050,-6.347928756
11.7100,-6.681924668
11.7150,-7.013969493
11.7200,-7.344334755
11.7250,-7.673051488
11.7300,-7.999630888
11.7350,-8.324420428
11.7400,-8.647687625
11.7450,-8.969300407
11.7500,-9.289528629
11.7550,-9.608173597
11.7600,-9.925059295
11.7650,-10.23978412
11.7700,-10.55247155
11.7750,-10.86328491
11.7800,-11.17250945
11.7850,-11.479925
11.7900,-11.78518839
11.7950,-12.08804849
11.8000,-12.38822778
11.8050,-12.68508103
11.8100,-12.97823556
11.8150,-13.2675635
11.8200,-13.55323189
11.8250,-13.83569798
11.8300,-14.11390098
11.8350,-14.38801649
11.8400,-14.65785202
11.8450,-14.92392424
11.8500,-15.1863073
11.8550,-15.44488614
11.8600,-15.69901819
11.8650,-15.94873668
11.8700,-16.19379194
11.8750,-16.43435935
11.8800,-16.67066627
11.8850,-16.90286281
11.8900,-17.1312656
11.8950,-17.35585612
11.9000,-17.57602652
11.9050,-17.791493
11.9100,-18.00227804
11.9150,-18.20791803
11.9200,-18.40824524
11.9250,-18.60316588
11.9300,-18.79267913
11.9350,-18.97687368
11.9400,-19.15582062
11.9450,-19.32962245
11.9500,-19.49806323
11.9550,-19.66112487
11.9600,-19.81860997
11.9650,-19.97108206
11.9700,-20.11900184
11.9750,-20.26247382
11.9800,-20.4022892
11.9850,-20.53877045
11.9900,-20.67269746
11.9950,-20.80399437
12.0000,-20.93320429
12.0050,-21.06043714
12.0100,-21.18621744
12.0150,-21.31049848
12.0200,-21.43317508
12.0250,-21.5546397
12.0300,-21.67507788
12.0350,-21.79447105
12.0400,-21.91278893
12.0450,-22.03005221
12.0500,-22.14627215
12.0550,-22.26163041
12.0600,-22.37648649
12.0650,-22.49098487
12.0700,-22.60563686
12.0750,-22.72011338
12.0800,-22.8345822
12.0850,-22.94900564
12.0900,-23.06375496
12.0950,-23.17891178
12.1000,-23.29456262
12.1050,-23.41094261
12.1100,-23.52808624
12.1150,-23.64600837
12.1200,-23.76448387
12.1250,-23.88335889
12.1300,-24.00328917
12.1350,-24.12416142
12.1400,-24.24552401
12.1450,-24.36656939
12.1500,-24.48700472
12.1550,-24.60654466
12.1600,-24.72471732
12.1650,-24.84121129
12.1700,-24.95592497
12.1750,-25.06868421
12.1800,-25.17930895
12.1850,-25.28739762
12.1900,-25.39251683
12.1950,-25.49465983
12.2000,-25.59366677
12.2050,-25.68967426
12.2100,-25.78231679
12.2150,-25.87166264
12.2200,-25.95763088
12.2250,-26.04001167
12.2300,-26.11893872
12.2350,-26.19446796
12.2400,-26.26692948
12.2450,-26.33648121
12.2500,-26.403297
12.2550,-26.46749306
12.2600,-26.52949059
12.2650,-26.58944431
12.2700,-26.64719135
12.2750,-26.70307587
12.2800,-26.75695157
12.2850,-26.80875897
12.2900,-26.85836016
12.2950,-26.90600721
12.3000,-26.95190239
12.3050,-26.99601864
12.3100,-27.03824333
12.3150,-27.0788012
12.3200,-27.11818609
12.3250,-27.15646167
12.3300,-27.19399183
12.3350,-27.23091084
12.3400,-27.26751295
12.3450,-27.30384466
12.3500,-27.33990528
12.3550,-27.3758327
12.3600,-27.41155227
12.3650,-27.44741222
12.3700,-27.48316899
12.3750,-27.51903158
12.3800,-27.55484706
12.3850,-27.59075266
12.3900,-27.62699643
12.3950,-27.6635481
12.4000,-27.70051973
12.4050,-27.73782702
12.4100,-27.77574056
12.4150,-27.81408173
12.4200,-27.85297164
12.4250,-27.89195835
12.4300,-27.93111213
12.4350,-27.97051436
12.4400,-28.01031793
12.4450,-28.05040802
12.4500,-28.09057306
12.4550,-28.13073383
12.4600,-28.17078212
12.4650,-28.21068253
12.4700,-28.2502415
12.4750,-28.28919992
12.4800,-28.32758257
12.4850,-28.36524016
12.4900,-28.40213348
12.4950,-28.43791984
12.5000,-28.47270162
12.5050,-28.50621339
12.5100,-28.53839362
12.5150,-28.56922071
12.5200,-28.59854988
12.5250,-28.62650271
12.5300,-28.65336039
12.5350,-28.67903002
12.5400,-28.70358305
12.5450,-28.72703594
12.5500,-28.74929277
12.5550,-28.77041212
12.5600,-28.79024127
12.5650,-28.80880089
12.5700,-28.82631543
12.5750,-28.84287836
12.5800,-28.85844518
12.5850,-28.87314563
12.5900,-28.88683259
12.5950,-28.89958663
12.6000,-28.91094504
12.6050,-28.92081897
12.6100,-28.92914965
12.6150,-28.93583621
12.6200,-28.94076145
12.6250,-28.94404153
12.6300,-28.94566386
12.6350,-28.94571514
12.6400,-28.94415724
12.6450,-28.94130464
12.6500,-28.93724419
12.6550,-28.93222805
12.6600,-28.92642308
12.6650,-28.91978648
12.6700,-28.91252824
12.6750,-28.90470935
12.6800,-28.89664964
12.6850,-28.88846055
12.6900,-28.87987018
12.6950,-28.87117848
12.7000,-28.86207565
12.7050,-28.8526091
12.7100,-28.84240919
12.7150,-28.83120326
12.7200,-28.81846112
12.7250,-28.80429918
12.7300,-28.78821691
12.7350,-28.77003675
12.7400,-28.74957418
12.7450,-28.72670595
12.7500,-28.70129313
12.7550,-28.67304537
12.7600,-28.64191657
12.7650,-28.60775406
12.7700,-28.57050079
12.7750,-28.53007522
12.7800,-28.48618981
12.7850,-28.43897535
12.7900,-28.38838512
12.7950,-28.33453223
12.8000,-28.27728265
12.8050,-28.21676908
12.8100,-28.153005
12.8150,-28.08587633
12.8200,-28.01542295
12.8250,-27.94195059
12.8300,-27.86533154
12.8350,-27.78601674
12.8400,-27.70397707
12.8450,-27.61944343
12.8500,-27.53276635
12.8550,-27.44409061
12.8600,-27.35386817
12.8650,-27.26236844
12.8700,-27.16986181
12.8750,-27.07644463
12.8800,-26.98255001
12.8850,-26.88826217
12.8900,-26.79390763
12.8950,-26.69968298
12.9000,-26.60583828
12.9050,-26.51259692
12.9100,-26.42012031
12.9150,-26.32870662
12.9200,-26.23885097
12.9250,-26.15038284
12.9300,-26.06339331
12.9350,-25.97799176
12.9400,-25.89413757
12.9450,-25.811931
12.9500,-25.73153652
12.9550,-25.65281353
12.9600,-25.57589951
12.9650,-25.5010289
12.9700,-25.42829159
12.9750,-25.35759862
12.9800,-25.28879817
12.9850,-25.22175238
12.9900,-25.15639736
12.9950,-25.09229272
13.0000,-25.0294691
13.0050,-24.96773995
13.0100,-24.90723287
13.0150,-24.84788782
13.0200,-24.78966141
13.0250,-24.73235559
13.0300,-24.6756869
13.0350,-24.61942626
13.0400,-24.5634041
13.0450,-24.5073534
13.0500,-24.45101938
13.0550,-24.39421912
13.0600,-24.33669001
13.0650,-24.27821021
13.0700,-24.21875357
13.0750,-24.15829992
13.0800,-24.09696556
13.0850,-24.0345304
13.0900,-23.9709686
13.0950,-23.90603809
13.1000,-23.83983656
13.1050,-23.77225368
13.1100,-23.70336949
13.1150,-23.63316788
13.1200,-23.56174941
13.1250,-23.48893969
13.1300,-23.41449556
13.1350,-23.33850595
13.1400,-23.26074478
13.1450,-23.1813147
13.1500,-23.1002245
13.1550,-23.01770536
13.1600,-22.93378705
13.1650,-22.84847053
13.1700,-22.76194061
13.1750,-22.67424321
13.1800,-22.58531959
13.1850,-22.49519038
13.1900,-22.40378363
13.1950,-22.31121548
13.2000,-22.21752037
13.2050,-22.12277282
13.2100,-22.02695756
13.2150,-21.93013635
13.2200,-21.83173692
13.2250,-21.73202216
13.2300,-21.63093061
13.2350,-21.52832917
13.2400,-21.42424025
13.2450,-21.31858965
13.2500,-21.21144712
13.2550,-21.10292275
13.2600,-20.99269
13.2650,-20.88055864
13.2700,-20.76632413
13.2750,-20.65005796
13.2800,-20.5317136
13.2850,-20.41156653
13.2900,-20.28942476
13.2950,-20.16558193
13.3000,-20.0400433
13.3050,-19.91264143
13.3100,-19.78297154
13.3150,-19.6510081
13.3200,-19.51684016
13.3250,-19.38054989
13.3300,-19.24218978
13.3350,-19.10186484
13.3400,-18.95933939
13.3450,-18.81473524
13.3500,-18.66796595
13.3550,-18.51914325
13.3600,-18.36839574
13.3650,-18.21593786
13.3700,-18.06175106
13.3750,-17.90585874
13.3800,-17.74811203
13.3850,-17.5886802
13.3900,-17.42745924
13.3950,-17.26451724
13.4000,-17.09992051
13.4050,-16.93378487
13.4100,-16.76591753
13.4150,-16.59657515
13.4200,-16.42577007
13.4250,-16.25377938
13.4300,-16.08079235
13.4350,-15.90645039
13.4400,-15.73115044
13.4450,-15.55482254
13.4500,-15.3774966
13.4550,-15.19905828
13.4600,-15.01965285
13.4650,-14.83942767
13.4700,-14.65833875
13.4750,-14.47667217
13.4800,-14.29430885
13.4850,-14.11165985
13.4900,-13.92877226
13.4950,-13.74578848
13.5000,-13.5628329
13.5050,-13.37997429
13.5100,-13.19732441
13.5150,-13.01461611
13.5200,-12.83209642
13.5250,-12.64990265
13.5300,-12.46785234
13.5350,-12.28633182
13.5400,-12.10533612
13.5450,-11.92487267
13.5500,-11.74485318
13.5550,-11.56526411
13.5600,-11.3864869
13.5650,-11.20856366
13.5700,-11.03160689
13.5750,-10.8558697
13.5800,-10.68098789
13.5850,-10.50698198
13.5900,-10.33412478
13.5950,-10.162159
13.6000,-9.990907748
13.6050,-9.820562069
13.6100,-9.65107626
13.6150,-9.482548121
13.6200,-9.314599421
13.6250,-9.146685349
13.6300,-8.978751447
13.6350,-8.810568706
13.6400,-8.642207878
13.6450,-8.473615727
13.6500,-8.304550373
13.6550,-8.135223683
13.6600,-7.965460964
13.6650,-7.795145019
13.6700,-7.624109288
13.6750,-7.452123755
13.6800,-7.279212285
13.6850,-7.105351788
13.6900,-6.93037416
13.6950,-6.754341986
13.7000,-6.577172254
13.7050,-6.39833891
13.7100,-6.218180942
13.7150,-6.036551663
13.7200,-5.853053524
13.7250,-5.667244047
13.7300,-5.478843331
13.7350,-5.287648613
13.7400,-5.093494026
13.7450,-4.896102059
13.7500,-4.695302232
13.7550,-4.491387559
13.7600,-4.284175948
13.7650,-4.073522249
13.7700,-3.859583627
13.7750,-3.641998723
13.7800,-3.420954052
13.7850,-3.196493432
13.7900,-2.968728373
13.7950,-2.737450252
13.8000,-2.502768039
13.8050,-2.264876024
13.8100,-2.023562357
13.8150,-1.778984875
13.8200,-1.531158153
13.8250,-1.279699612
13.8300,-1.02495939
13.8350,-0.7664184955
13.8400,-0.5041279183
13.8450,-0.2379355284
13.8500,0.03240468077
13.8550,0.3069864597
13.8600,0.5860651759
13.8650,0.8698568607
13.8700,1.158266919
13.8750,1.451703338
13.8800,1.749739472
13.8850,2.052907664
13.8900,2.361006022
13.8950,2.673865248
13.9000,2.991466654
13.9050,3.313991326
13.9100,3.641108955
13.9150,3.973061058
13.9200,4.310029024
13.9250,4.651531061
13.9300,4.997633575
13.9350,5.348382922
13.9400,5.703835819
13.9450,6.064081987
13.9500,6.429044656
13.9550,6.799130439
13.9600,7.174438824
13.9650,7.554863037
13.9700,7.940654103
13.9750,8.331498834
13.9800,8.727429012
13.9850,9.128807508
13.9900,9.535439462
13.9950,9.94709277
14.0000,10.36373276
14.0050,10.7850667
14.0100,11.21120434
14.0150,11.64186203
14.0200,12.07676525
14.0250,12.51564316
14.0300,12.95834433
14.0350,13.40438945
14.0400,13.85388924
14.0450,14.30633387
14.0500,14.76136159
14.0550,15.21889449
14.0600,15.67847193
14.0650,16.13991029
14.0700,16.60335842
14.0750,17.06849062
14.0800,17.53490212
14.0850,18.0026899
14.0900,18.47133874
14.0950,18.94086291
14.1000,19.41073502
14.1050,19.88104073
14.1100,20.35130465
14.1150,20.82151148
14.1200,21.29111993
14.1250,21.75997907
14.1300,22.22772233
14.1350,22.69401829
14.1400,23.15880349
14.1450,23.62181355
14.1500,24.08286792
14.1550,24.54186626
14.1600,24.99875634
14.1650,25.45334806
14.1700,25.90572067
14.1750,26.35600848
14.1800,26.80395216
14.1850,27.24919101
14.1900,27.69188414
14.1950,28.13190655
14.2000,28.56949206
14.2050,29.00435005
14.2100,29.43646886
14.2150,29.86601524
14.2200,30.29265752
14.2250,30.71659494
14.2300,31.13804273
14.2350,31.55684191
14.2400,31.97294905
14.2450,32.3862467
14.2500,32.79681403
14.2550,33.20445009
14.2600,33.60862118
14.2650,34.0090746
14.2700,34.40555113
14.2750,34.7982464
14.2800,35.18704887
14.2850,35.57176517
14.2900,35.95235856
14.2950,36.32872675
14.3000,36.70091427
14.3050,37.06892504
14.3100,37.43234144
14.3150,37.79131143
14.3200,38.14573105
14.3250,38.49576908
14.3300,38.84142952
14.3350,39.18316054
14.3400,39.52081418
14.3450,39.85446487
14.3500,40.18408707
14.3550,40.50979407
14.3600,40.8318772
14.3650,41.15096884
14.3700,41.46735594
14.3750,41.78151477
14.3800,42.09367026
14.3850,42.40360155
14.3900,42.71105699
14.3950,43.01568843
14.4000,43.31756873
14.4050,43.61687483
14.4100,43.91355893
14.4150,44.20753233
14.4200,44.49907692
14.4250,44.78847921
14.4300,45.0755572
14.4350,45.36031403
14.4400,45.64296807
14.4450,45.92360181
14.4500,46.20223874
14.4550,46.4788394
14.4600,46.75318262
14.4650,47.02549454
14.4700,47.29542281
14.4750,47.56219542
14.4800,47.82567173
14.4850,48.08563811
14.4900,48.34222136
14.4950,48.59571493
14.5000,48.84542938
14.5050,49.09144149
14.5100,49.33387707
14.5150,49.57239408
14.5200,49.80713013
14.5250,50.03803061
14.5300,50.26496151
14.5350,50.48788238
14.5400,50.70674019
14.5450,50.92136325
14.5500,51.13206664
14.5550,51.33886729
14.5600,51.54227196
14.5650,51.74295686
14.5700,51.94122395
14.5750,52.13727579
14.5800,52.33090903
14.5850,52.52231862
14.5900,52.71125869
14.5950,52.89825508
14.6000,53.08318315
14.6050,53.26598236
14.6100,53.44682663
14.6150,53.62582169
14.6200,53.80308604
14.6250,53.97878161
14.6300,54.15324177
14.6350,54.32628655
14.6400,54.49790125
14.6450,54.66812723
14.6500,54.8371211
14.6550,55.0053628
14.6600,55.17274551
14.6650,55.33893759
14.6700,55.50332568
14.6750,55.66555065
14.6800,55.82571809
14.6850,55.98368331
14.6900,56.1392482
14.6950,56.29250977
14.7000,56.44356731
14.7050,56.59259036
14.7100,56.73981386
14.7150,56.88513077
14.7200,57.02831198
14.7250,57.16924359
14.7300,57.30820428
14.7350,57.44489526
14.7400,57.57954318
14.7450,57.71202721
14.7500,57.84236247
14.7550,57.97058873
14.7600,58.09706001
14.7650,58.22174997
14.7700,58.34507096
14.7750,58.46711868
14.7800,58.58809979
14.7850,58.70814714
14.7900,58.82691778
14.7950,58.94441619
14.8000,59.06088339
14.8050,59.17637082
14.8100,59.29087588
14.8150,59.40446439
14.8200,59.51727943
14.8250,59.62928033
14.8300,59.74019531
14.8350,59.85010357
14.8400,59.95921421
14.8450,60.0675696
14.8500,60.1749121
14.8550,60.28149542
14.8600,60.38742847
14.8650,60.49238198
14.8700,60.5965797
14.8750,60.69958754
14.8800,60.80149351
14.8850,60.9021568
14.8900,61.00160232
14.8950,61.09933895
14.9000,61.19544289
14.9050,61.28990662
14.9100,61.38271173
14.9150,61.47408213
14.9200,61.56358494
14.9250,61.65090295
14.9300,61.73563436
14.9350,61.81767125
14.9400,61.89718513
14.9450,61.9743227
14.9500,62.04917227
14.9550,62.12140783
14.9600,62.191547
14.9650,62.25979413
14.9700,62.32651322
14.9750,62.39200623
14.9800,62.45611614
14.9850,62.51921786
14.9900,62.58151982
14.9950,62.64326712
15.0000,62.70434791
15.0050,62.7650298
15.0100,62.82542596
15.0150,62.88561889
15.0200,62.94590889
15.0250,63.00609759
15.0300,63.06646141
15.0350,63.12724958
15.0400,63.18791946
15.0450,63.24847063
15.0500,63.3086511
15.0550,63.36870929
15.0600,63.42834493
15.0650,63.48731822
15.0700,63.54542783
15.0750,63.60295918
15.0800,63.65985818
15.0850,63.71647896
15.0900,63.7729199
15.0950,63.8289713
15.1000,63.88451634
15.1050,63.93912735
15.1100,63.99250193
15.1150,64.04467992
15.1200,64.09558568
15.1250,64.1453314
15.1300,64.19407011
15.1350,64.24162212
15.1400,64.28745984
15.1450,64.33122328
15.1500,64.3726265
15.1550,64.41173888
15.1600,64.44830706
15.1650,64.48265409
15.1700,64.51505299
15.1750,64.54545581
15.1800,64.57358297
15.1850,64.59923738
15.1900,64.62243196
15.1950,64.64322001
15.2000,64.66175904
15.2050,64.67835265
15.2100,64.69321628
15.2150,64.70643394
15.2200,64.71814897
15.2250,64.72862732
15.2300,64.73801974
15.2350,64.74633339
15.2400,64.75358088
15.2450,64.75977077
15.2500,64.76500941
15.2550,64.76961592
15.2600,64.77374471
15.2650,64.77705355
15.2700,64.77948669
15.2750,64.78056747
15.2800,64.78028691
15.2850,64.77899711
15.2900,64.77727064
15.2950,64.77506256
15.3000,64.77283201
15.3050,64.77058764
15.3100,64.76814909
15.3150,64.76580249
15.3200,64.76286401
15.3250,64.75952121
15.3300,64.7555077
15.3350,64.75102059
15.3400,64.74663616
15.3450,64.74247211
15.3500,64.73884108
15.3550,64.7357181
15.3600,64.73306977
15.3650,64.73096612
15.3700,64.72951063
15.3750,64.72872653
15.3800,64.72864266
15.3850,64.72905506
15.3900,64.72983546
15.3950,64.73066385
15.4000,64.73162226
15.4050,64.73284948
15.4100,64.73462616
15.4150,64.73675022
15.4200,64.73893943
15.4250,64.74065193
15.4300,64.74167402
15.4350,64.74182654
15.4400,64.74146141
15.4450,64.74078341
15.4500,64.73999015
15.4550,64.73894354
15.4600,64.7374165
15.4650,64.73507158
15.4700,64.73133918
15.4750,64.72615172
15.4800,64.71975577
15.4850,64.71239739
15.4900,64.70407654
15.4950,64.69501489
15.5000,64.68488122
15.5050,64.67315371
15.5100,64.65968059
15.5150,64.64408157
15.5200,64.62676158
15.5250,64.60794041
15.5300,64.58760027
15.5350,64.56563328
15.5400,64.54234402
15.5450,64.5175521
15.5500,64.49103002
15.5550,64.46270189
15.5600,64.43212341
15.5650,64.39944391
15.5700,64.36494416
15.5750,64.32927367
15.5800,64.29247446
15.5850,64.25451063
15.5900,64.21512008
15.5950,64.17459985
15.6000,64.13283888
15.6050,64.08965331
15.6100,64.04503166
15.6150,63.99919279
15.6200,63.95293012
15.6250,63.90635797
15.6300,63.85949073
15.6350,63.81205383
15.6400,63.76402538
15.6450,63.7154831
15.6500,63.66646587
15.6550,63.61667843
15.6600,63.5665029
15.6650,63.51598971
15.6700,63.46522028
15.6750,63.41396619
15.6800,63.3622088
15.6850,63.30978045
15.6900,63.25669925
15.6950,63.20320593
15.7000,63.14929044
15.7050,63.09497221
15.7100,63.04018054
15.7150,62.98517877
15.7200,62.92997514
15.7250,62.8748749
15.7300,62.81978155
15.7350,62.76468206
15.7400,62.70932426
15.7450,62.65343456
15.7500,62.5966962
15.7550,62.53904847
15.7600,62.48028798
15.7650,62.42049903
15.7700,62.35982362
15.7750,62.29878581
15.7800,62.23724245
15.7850,62.17483656
15.7900,62.11164979
15.7950,62.04737887
15.8000,61.98211642
15.8050,61.91598828
15.8100,61.84870364
15.8150,61.78045944
15.8200,61.71096786
15.8250,61.64012359
15.8300,61.56773392
15.8350,61.49445943
15.8400,61.41983411
15.8450,61.34414936
15.8500,61.26728885
15.8550,61.18925345
15.8600,61.10999559
15.8650,61.02960561
15.8700,60.9478422
15.8750,60.86453928
15.8800,60.77970085
15.8850,60.69313586
15.8900,60.60483006
15.8950,60.51498694
15.9000,60.42352726
15.9050,60.33068272
15.9100,60.23692199
15.9150,60.14208018
15.9200,60.04603133
15.9250,59.94872705
15.9300,59.85015306
15.9350,59.75016696
15.9400,59.64854757
15.9450,59.54514862
15.9500,59.43928078
15.9550,59.3311568
15.9600,59.22080629
15.9650,59.10857806
15.9700,58.99482815
15.9750,58.87975831
15.9800,58.76341783
15.9850,58.64551203
15.9900,58.52602662
15.9950,58.40491984
16.0000,58.28165977
16.0050,58.15574189
16.0100,58.02683426
16.0150,57.89480813
16.0200,57.75971777
16.0250,57.62144488
16.0300,57.4801993
16.0350,57.33587549
16.0400,57.18814401
16.0450,57.03719917
16.0500,56.88314335
16.0550,56.72569106
16.0600,56.56472058
16.0650,56.40011443
16.0700,56.23155719
16.0750,56.05880148
16.0800,55.88194611
16.0850,55.70090344
16.0900,55.51551634
16.0950,55.32599128
16.1000,55.1324682
16.1050,54.93482542
16.1100,54.73362915
16.1150,54.52848343
16.1200,54.31954767
16.1250,54.10673249
16.1300,53.89001785
16.1350,53.66890575
16.1400,53.44365211
16.1450,53.21405211
16.1500,52.98044948
16.1550,52.74274
16.1600,52.50116604
16.1650,52.25568954
16.1700,52.006423
16.1750,51.75367005
16.1800,51.49743809
16.1850,51.23786388
16.1900,50.97507872
16.1950,50.70912265
16.2000,50.44005978
16.2050,50.16802099
16.2100,49.8929423
16.2150,49.61486662
16.2200,49.33398445
16.2250,49.05048208
16.2300,48.76447296
16.2350,48.47634437
16.2400,48.18622721
16.2450,47.89424989
16.2500,47.60101066
16.2550,47.30635696
16.2600,47.01020913
16.2650,46.71215469
16.2700,46.41193151
16.2750,46.10924623
16.2800,45.80410044
16.2850,45.49700204
16.2900,45.18810445
16.2950,44.87781153
16.3000,44.56661459
16.3050,44.25472386
16.3100,43.94222338
16.3150,43.62846814
16.3200,43.313677
16.3250,42.99766377
16.3300,42.68003416
16.3350,42.36076503
16.3400,42.04007584
16.3450,41.71804429
16.3500,41.394557
16.3550,41.06969347
16.3600,40.74371835
16.3650,40.41666872
16.3700,40.08837221
16.3750,39.75862528
16.3800,39.42697752
16.3850,39.09337564
16.3900,38.75769627
16.3950,38.41983789
16.4000,38.07945784
16.4050,37.73690408
16.4100,37.39155608
16.4150,37.04337263
16.4200,36.69248886
16.4250,36.33879748
16.4300,35.98232113
16.4350,35.62313311
16.4400,35.26098996
16.4450,34.89558694
16.4500,34.52690374
16.4550,34.15490734
16.4600,33.77957576
16.4650,33.40093895
16.4700,33.01902653
16.4750,32.63351844
16.4800,32.24435281
16.4850,31.85160723
16.4900,31.45511164
16.4950,31.05470669
16.5000,30.6505157
16.5050,30.24278826
16.5100,29.83117178
16.5150,29.41609411
16.5200,28.99764382
16.5250,28.57563305
16.5300,28.1501431
16.5350,27.72102057
16.5400,27.28835202
16.5450,26.85244034
16.5500,26.41352781
16.5550,25.97204671
16.5600,25.52808211
16.5650,25.08210143
16.5700,24.63439002
16.5750,24.18509617
16.5800,23.73457368
16.5850,23.28277275
16.5900,22.82994804
16.5950,22.37582319
16.6000,21.92051778
16.6050,21.46474727
16.6100,21.00833071
16.6150,20.55147444
16.6200,20.09407689
16.6250,19.63637906
16.6300,19.17873308
16.6350,18.72132678
16.6400,18.26384518
16.6450,17.80652661
16.6500,17.34948866
16.6550,16.89264495
16.6600,16.43600936
16.6650,15.979456
16.6700,15.52327866
16.6750,15.06734033
16.6800,14.61211037
16.6850,14.15767721
16.6900,13.70412158
16.6950,13.25151553
16.7000,12.80032145
16.7050,12.35051648
16.7100,11.90239422
16.7150,11.4562874
16.7200,11.01231167
16.7250,10.5700589
16.7300,10.12989773
16.7350,9.691787523
16.7400,9.25588751
16.7450,8.822521939
16.7500,8.391418768
16.7550,7.962858217
16.7600,7.53675487
16.7650,7.113145143
16.7700,6.692045854
16.7750,6.273460469
16.7800,5.857332165
16.7850,5.443849538
16.7900,5.03312124
16.7950,4.625047345
16.8000,4.219377544
16.8050,3.815758795
16.8100,3.414527141
16.8150,3.01580278
16.8200,2.619255239
16.8250,2.225146134
16.8300,1.833604774
16.8350,1.444793693
16.8400,1.058672559
16.8450,0.6750934323
16.8500,0.2939715057
16.8550,-0.08488269066
16.8600,-0.4613012266
16.8650,-0.8352877259
16.8700,-1.206952259
16.8750,-1.576226957
16.8800,-1.943275891
16.8850,-2.308173924
16.8900,-2.67112933
16.8950,-3.032228101
16.9000,-3.391486652
16.9050,-3.74901101
16.9100,-4.10440802
16.9150,-4.457560762
16.9200,-4.808501143
16.9250,-5.157403825
16.9300,-5.504348629
16.9350,-5.849699119
16.9400,-6.193305811
16.9450,-6.535743585
16.9500,-6.87670757
16.9550,-7.216571782
16.9600,-7.555265377
16.9650,-7.892805454
16.9700,-8.229234869
16.9750,-8.564717629
16.9800,-8.899138781
16.9850,-9.232624773
16.9900,-9.565252165
16.9950,-9.897155768
17.0000,-10.22896272
17.0050,-10.56055427
17.0100,-10.89193586
17.0150,-11.22310751
17.0200,-11.553511
17.0250,-11.88309662
17.0300,-12.21152237
17.0350,-12.53863045
17.0400,-12.8644886
17.0450,-13.1890578
17.0500,-13.51206915
17.0550,-13.83384181
17.0600,-14.15398358
17.0650,-14.47249192
17.0700,-14.7887654
17.0750,-15.10278726
17.0800,-15.41476492
17.0850,-15.72494007
17.0900,-16.03320883
17.0950,-16.33951742
17.1000,-16.64343096
17.1050,-16.94481387
17.1100,-17.24343315
17.1150,-17.53905795
17.1200,-17.83121308
17.1250,-18.11943055
17.1300,-18.40352669
17.1350,-18.683205
17.1400,-18.95810998
17.1450,-19.22813412
17.1500,-19.49267657
17.1550,-19.75158503
17.1600,-20.00456508
17.1650,-20.25137684
17.1700,-20.49192358
17.1750,-20.7261607
17.1800,-20.95391943
17.1850,-21.1748034
17.1900,-21.38891331
17.1950,-21.59597066
17.2000,-21.79610694
17.2050,-21.98942056
17.2100,-22.17606172
17.2150,-22.35626234
17.2200,-22.53022577
17.2250,-22.69810765
17.2300,-22.85979446
17.2350,-23.01521928
17.2400,-23.1643046
17.2450,-23.30657016
17.2500,-23.4420075
17.2550,-23.57021641
17.2600,-23.69111119
17.2650,-23.80462688
17.2700,-23.91070165
17.2750,-24.00953881
17.2800,-24.10146132
17.2850,-24.18651187
17.2900,-24.26480863
17.2950,-24.33676022
17.3000,-24.40233829
17.3050,-24.46209495
17.3100,-24.51613877
17.3150,-24.56504911
17.3200,-24.60954343
17.3250,-24.64959167
17.3300,-24.68556052
17.3350,-24.71752477
17.3400,-24.74576204
17.3450,-24.77046867
17.3500,-24.79177375
17.3550,-24.80990513
17.3600,-24.82522556
17.3650,-24.83797696
17.3700,-24.84877636
17.3750,-24.85758004
17.3800,-24.86428729
17.3850,-24.868955
17.3900,-24.87184635
17.3950,-24.87279159
17.4000,-24.87178146
17.4050,-24.8687595
17.4100,-24.86351848
17.4150,-24.85599958
17.4200,-24.84615226
17.4250,-24.83412224
17.4300,-24.82007222
17.4350,-24.80403164
17.4400,-24.78616426
17.4450,-24.76655542
17.4500,-24.74554949
17.4550,-24.72316838
17.4600,-24.69955229
17.4650,-24.67501349
17.4700,-24.6496776
17.4750,-24.6233441
17.4800,-24.59608996
17.4850,-24.56830086
17.4900,-24.53983793
17.4950,-24.51092156
17.5000,-24.48159499
17.5050,-24.45202868
17.5100,-24.42259446
17.5150,-24.39321819
17.5200,-24.36404568
17.5250,-24.33497241
17.5300,-24.30626816
17.5350,-24.27802359
17.5400,-24.25026846
17.5450,-24.22323956
17.5500,-24.19716945
17.5550,-24.17243882
17.5600,-24.14919113
17.5650,-24.12766891
17.5700,-24.1082069
17.5750,-24.09099749
17.5800,-24.07612526
17.5850,-24.06382198
17.5900,-24.05415256
17.5950,-24.04700716
17.6000,-24.04245613
17.6050,-24.040437
17.6100,-24.04074336
17.6150,-24.04311383
17.6200,-24.04729688
17.6250,-24.05333803
17.6300,-24.06112355
17.6350,-24.0705364
17.6400,-24.08105943
17.6450,-24.09267191
17.6500,-24.10516047
17.6550,-24.11845674
17.6600,-24.13222737
17.6650,-24.14645948
17.6700,-24.16077861
17.6750,-24.17524635
17.6800,-24.18986924
17.6850,-24.20472077
17.6900,-24.21963448
17.6950,-24.23471075
17.7000,-24.25006612
17.7050,-24.2657354
17.7100,-24.28206426
17.7150,-24.29926478
17.7200,-24.31733659
17.7250,-24.33650006
17.7300,-24.35666623
17.7350,-24.378075
17.7400,-24.40074902
17.7450,-24.42478523
17.7500,-24.45019863
17.7550,-24.47725366
17.7600,-24.50627161
17.7650,-24.53768871
17.7700,-24.57174269
17.7750,-24.60909973
17.7800,-24.65016717
17.7850,-24.69514864
17.7900,-24.7442145
17.7950,-24.79720244
17.8000,-24.85390027
17.8050,-24.91379939
17.8100,-24.97657223
17.8150,-25.04230392
17.8200,-25.11079506
17.8250,-25.18219822
17.8300,-25.25665453
17.8350,-25.33442777
17.8400,-25.41578534
17.8450,-25.50078971
17.8500,-25.5895903
17.8550,-25.68200316
17.8600,-25.77789792
17.8650,-25.87685701
17.8700,-25.97861552
17.8750,-26.08263878
17.8800,-26.18831134
17.8850,-26.29521774
17.8900,-26.40282351
17.8950,-26.51037884
17.9000,-26.61702754
17.9050,-26.72172458
17.9100,-26.82340258
17.9150,-26.92050132
17.9200,-27.01154872
17.9250,-27.09483139
17.9300,-27.16930959
17.9350,-27.23413211
17.9400,-27.28888168
17.9450,-27.33297717
17.9500,-27.36677971
17.9550,-27.39036356
17.9600,-27.40440398
17.9650,-27.40926067
17.9700,-27.4057276
17.9750,-27.39469792
17.9800,-27.37693251
17.9850,-27.35343687
17.9900,-27.32550725
17.9950,-27.29427747
18.0000,-27.2612876
18.0050,-27.22770011
18.0100,-27.19461277
18.0150,-27.16278975
18.0200,-27.1331422
18.0250,-27.10595103
18.0300,-27.08157973
18.0350,-27.05991863
18.0400,-27.04074791
18.0450,-27.02370955
18.0500,-27.00840462
18.0550,-26.9941214
18.0600,-26.98014133
18.0650,-26.9656746
18.0700,-26.95009676
18.0750,-26.93282755
18.0800,-26.9132283
18.0850,-26.8909598
18.0900,-26.86571839
18.0950,-26.83748046
18.1000,-26.80609071
18.1050,-26.77196177
18.1100,-26.73515001
18.1150,-26.69574545
18.1200,-26.65384561
18.1250,-26.6096498
18.1300,-26.56342812
18.1350,-26.51523058
18.1400,-26.46530285
18.1450,-26.41378696
18.1500,-26.36095759
18.1550,-26.30714717
18.1600,-26.25267575
18.1650,-26.19795242
18.1700,-26.14302656
18.1750,-26.08818905
18.1800,-26.03365243
18.1850,-25.97934066
18.1900,-25.9254227
18.1950,-25.87197915
18.2000,-25.81918873
18.2050,-25.76695255
18.2100,-25.71563083
18.2150,-25.66580979
18.2200,-25.61777997
18.2250,-25.57201246
18.2300,-25.52845302
18.2350,-25.48706521
18.2400,-25.44774845
18.2450,-25.41062424
18.2500,-25.37521085
18.2550,-25.34165512
18.2600,-25.30999813
18.2650,-25.28083319
18.2700,-25.25439806
18.2750,-25.23130702
18.2800,-25.21197817
18.2850,-25.1964979
18.2900,-25.18507396
18.2950,-25.1777263
18.3000,-25.17416437
18.3050,-25.17426328
18.3100,-25.17787512
18.3150,-25.1848348
18.3200,-25.19500344
18.3250,-25.20843931
18.3300,-25.22483951
18.3350,-25.24416909
18.3400,-25.26632714
18.3450,-25.29114153
18.3500,-25.31859561
18.3550,-25.3484534
18.3600,-25.38068222
18.3650,-25.41495376
18.3700,-25.45085659
18.3750,-25.48809759
18.3800,-25.52654419
18.3850,-25.56593255
18.3900,-25.60588296
18.3950,-25.64642688
18.4000,-25.68777137
18.4050,-25.72966102
18.4100,-25.77217176
18.4150,-25.81504867
18.4200,-25.85840728
18.4250,-25.90213412
18.4300,-25.94578227
18.4350,-25.98911136
18.4400,-26.03185865
18.4450,-26.07386151
18.4500,-26.11489397
18.4550,-26.15471011
18.4600,-26.19333349
18.4650,-26.23040601
18.4700,-26.26590782
18.4750,-26.29973921
18.4800,-26.33158063
18.4850,-26.36149071
18.4900,-26.38924577
18.4950,-26.4146555
18.5000,-26.43750405
18.5050,-26.45758112
18.5100,-26.47486896
18.5150,-26.48882005
18.5200,-26.49938548
18.5250,-26.50665013
18.5300,-26.51025185
18.5350,-26.51012672
18.5400,-26.50613368
18.5450,-26.49834817
18.5500,-26.4870384
18.5550,-26.47234214
18.5600,-26.45432911
18.5650,-26.43296556
18.5700,-26.40872514
18.5750,-26.38136341
18.5800,-26.35149911
18.5850,-26.31965032
18.5900,-26.28593571
18.5950,-26.25062829
18.6000,-26.21417118
18.6050,-26.17661404
18.6100,-26.13823966
18.6150,-26.09903599
18.6200,-26.05896994
18.6250,-26.01798583
18.6300,-25.97616712
18.6350,-25.93336426
18.6400,-25.88938229
18.6450,-25.84429154
18.6500,-25.79778223
18.6550,-25.7498058
18.6600,-25.6999829
18.6650,-25.64804839
18.6700,-25.59411689
18.6750,-25.53799001
18.6800,-25.4793976
18.6850,-25.41855434
18.6900,-25.35570027
18.6950,-25.2909704
18.7000,-25.22435401
18.7050,-25.15607912
18.7100,-25.08620406
18.7150,-25.01497216
18.7200,-24.94229315
18.7250,-24.86803992
18.7300,-24.79236932
18.7350,-24.715302
18.7400,-24.63673862
18.7450,-24.55694186
18.7500,-24.4756449
18.7550,-24.3928671
18.7600,-24.30819175
18.7650,-24.22158213
18.7700,-24.13281833
18.7750,-24.04168307
18.7800,-23.94831751
18.7850,-23.85272376
18.7900,-23.75488476
18.7950,-23.65499849
18.8000,-23.55314203
18.8050,-23.44963962
18.8100,-23.34438761
18.8150,-23.23746634
18.8200,-23.12894354
18.8250,-23.01865892
18.8300,-22.9069477
18.8350,-22.79379485
18.8400,-22.67954852
18.8450,-22.56398258
18.8500,-22.44707442
18.8550,-22.32842997
18.8600,-22.2078506
18.8650,-22.08523214
18.8700,-21.95993544
18.8750,-21.83206287
18.8800,-21.7012015
18.8850,-21.56685222
18.8900,-21.42907003
18.8950,-21.28755214
18.9000,-21.14216245
18.9050,-20.99287497
18.9100,-20.83955228
18.9150,-20.68257486
18.9200,-20.5220845
18.9250,-20.35822189
18.9300,-20.19146556
18.9350,-20.02206562
18.9400,-19.85027661
18.9450,-19.67621985
18.9500,-19.49994033
18.9550,-19.32162023
18.9600,-19.14146612
18.9650,-18.95966884
18.9700,-18.77610428
18.9750,-18.59053929
18.9800,-18.40299329
18.9850,-18.21310386
18.9900,-18.02080608
18.9950,-17.82569548
19.0000,-17.62781424
19.0050,-17.42708088
19.0100,-17.22325712
19.0150,-17.01622971
19.0200,-16.80580228
19.0250,-16.59200087
19.0300,-16.3747051
19.0350,-16.15405174
19.0400,-15.93001676
19.0450,-15.70234974
19.0500,-15.47131335
19.0550,-15.23687331
19.0600,-14.99911343
19.0650,-14.75844612
19.0700,-14.51472531
19.0750,-14.26831122
19.0800,-14.01908207
19.0850,-13.76693513
19.0900,-13.5117573
19.0950,-13.25326564
19.1000,-12.99144812
19.1050,-12.72625013
19.1100,-12.45720912
19.1150,-12.18447476
19.1200,-11.90806586
19.1250,-11.62754769
19.1300,-11.34294765
19.1350,-11.0542258
19.1400,-10.76124147
19.1450,-10.46424969
19.1500,-10.16300458
19.1550,-9.857682362
19.1600,-9.548521609
19.1650,-9.235317312
19.1700,-8.918447551
19.1750,-8.597785193
19.1800,-8.273533779
19.1850,-7.945929783
19.1900,-7.614879829
19.1950,-7.280816826
19.2000,-6.94351027
19.2050,-6.603036515
19.2100,-6.259151443
19.2150,-5.911718736
19.2200,-5.560646876
19.2250,-5.205785682
19.2300,-4.847015981
19.2350,-4.484314608
19.2400,-4.117755141
19.2450,-3.747302152
19.2500,-3.372889081
19.2550,-2.994694255
19.2600,-2.612464039
19.2650,-2.226383448
19.2700,-1.836450953
19.2750,-1.442935697
19.2800,-1.046100027
19.2850,-0.6460419642
19.2900,-0.243194589
19.2950,0.1625544935
19.3000,0.5712363034
19.3050,0.9830096654
19.3100,1.397873276
19.3150,1.81581119
19.3200,2.236619435
19.3250,2.660474208
19.3300,3.087331717
19.3350,3.517049445
19.3400,3.949800544
19.3450,4.385352904
19.3500,4.823740877
19.3550,5.26508885
19.3600,5.708964092
19.3650,6.15548884
19.3700,6.604128617
19.3750,7.05533342
19.3800,7.508771185
19.3850,7.964125232
19.3900,8.421467536
19.3950,8.88067483
19.4000,9.341846439
19.4050,9.804844105
19.4100,10.26938726
19.4150,10.73537976
19.4200,11.20278674
19.4250,11.67137765
19.4300,12.14109511
19.4350,12.61173788
19.4400,13.08342563
19.4450,13.55605866
19.4500,14.02960106
19.4550,14.50419318
19.4600,14.97956211
19.4650,15.45577988
19.4700,15.93287518
19.4750,16.41077207
19.4800,16.88951339
19.4850,17.36869676
19.4900,17.84815439
19.4950,18.3276711
19.5000,18.80735001
19.5050,19.28685787
19.5100,19.7659034
19.5150,20.24447287
19.5200,20.72238033
19.5250,21.19903327
19.5300,21.67471054
19.5350,22.14936897
19.5400,22.62314673
19.5450,23.0960244
19.5500,23.56773266
19.5550,24.03864312
19.5600,24.50837038
19.5650,24.97705789
19.5700,25.44443491
19.5750,25.91046179
19.5800,26.37513863
19.5850,26.83826963
19.5900,27.29991016
19.5950,27.75939972
19.6000,28.21683792
19.6050,28.67216333
19.6100,29.12521966
19.6150,29.57623531
19.6200,30.0248889
19.6250,30.47113524
19.6300,30.91452348
19.6350,31.35530628
19.6400,31.79336979
19.6450,32.22897812
19.6500,32.6619247
19.6550,33.09198415
19.6600,33.51928402
19.6650,33.94392045
19.6700,34.36608606
19.6750,34.7855452
19.6800,35.20237579
19.6850,35.61675326
19.6900,36.0288026
19.6950,36.43816008
19.7000,36.84502833
19.7050,37.2492517
19.7100,37.65069655
19.7150,38.04933564
19.7200,38.44498064
19.7250,38.83749008
19.7300,39.2267116
19.7350,39.61245031
19.7400,39.99438516
19.7450,40.37263925
19.7500,40.74655353
19.7550,41.11573603
19.7600,41.47998524
19.7650,41.83931906
19.7700,42.19383114
19.7750,42.54336494
19.7800,42.88812685
19.7850,43.22849099
19.7900,43.56463049
19.7950,43.89725803
19.8000,44.22617542
19.8050,44.55146889
19.8100,44.87295608
19.8150,45.19050028
19.8200,45.50405269
19.8250,45.81377987
19.8300,46.11960656
19.8350,46.42129547
19.8400,46.71872031
19.8450,47.01216168
19.8500,47.30200827
19.8550,47.58861189
19.8600,47.87242682
19.8650,48.15300219
19.8700,48.43096932
19.8750,48.70619907
19.8800,48.97920157
19.8850,49.24973292
19.8900,49.51806211
19.8950,49.78504633
19.9000,50.05112208
19.9050,50.31625305
19.9100,50.58039702
19.9150,50.84387213
19.9200,51.10712353
19.9250,51.37084669
19.9300,51.63541181
19.9350,51.90071261
19.9400,52.16600451
19.9450,52.43102437
19.9500,52.69586266
19.9550,52.95999057
19.9600,53.22310445
19.9650,53.4848222
19.9700,53.74485734
19.9750,54.00310869
19.9800,54.25934889
19.9850,54.51349672
19.9900,54.76520976
19.9950,55.01457598
20.0000,55.26124761
20.0050,55.50526184
20.0100,55.74641558
20.0150,55.98458555
20.0200,56.21996192
20.0250,56.4520324
20.0300,56.68078282
20.0350,56.90638078
20.0400,57.12902803
20.0450,57.34882604
20.0500,57.56584285
20.0550,57.78020385
20.0600,57.99206048
20.0650,58.20139381
20.0700,58.40817887
20.0750,58.61235773
20.0800,58.81356162
20.0850,59.01149418
20.0900,59.20568837
20.0950,59.39576822
20.1000,59.58170408
20.1050,59.76381417
20.1100,59.94251472
20.1150,60.1178466
20.1200,60.29006292
20.1250,60.45929921
20.1300,60.62573372
20.1350,60.78928114
20.1400,60.94951716
20.1450,61.10656663
20.1500,61.26042711
20.1550,61.41102647
20.1600,61.55834721
20.1650,61.70269905
20.1700,61.84396329
20.1750,61.98239173
20.1800,62.11823417
20.1850,62.25160531
20.1900,62.38279576
20.1950,62.51165358
20.2000,62.63824274
20.2050,62.76288724
20.2100,62.88603574
20.2150,63.00759234
20.2200,63.12772505
20.2250,63.24590946
20.2300,63.36212802
20.2350,63.4765486
20.2400,63.58969593
20.2450,63.70170359
20.2500,63.81267837
20.2550,63.92296742
20.2600,64.03275083
20.2650,64.14196914
20.2700,64.25023389
20.2750,64.35734419
20.2800,64.46322375
20.2850,64.56791877
20.2900,64.67108895
20.2950,64.77248354
20.3000,64.87185358
20.3050,64.96917004
20.3100,65.0643029
20.3150,65.15698274
20.3200,65.24715144
20.3250,65.33513194
20.3300,65.42113388
20.3350,65.50510947
20.3400,65.58710139
20.3450,65.6671374
20.3500,65.74549895
20.3550,65.82229642
20.3600,65.89789341
20.3650,65.97247034
20.3700,66.04600109
20.3750,66.11841276
20.3800,66.18992296
20.3850,66.2603131
20.3900,66.32997198
20.3950,66.39891672
20.4000,66.46722181
20.4050,66.53495821
20.4100,66.60198448
20.4150,66.66825197
20.4200,66.73369687
20.4250,66.79812865
20.4300,66.86125653
20.4350,66.92368748
20.4400,66.98602962
20.4450,67.04828809
20.4500,67.11032031
20.4550,67.17206317
20.4600,67.23356156
20.4650,67.29480807
20.4700,67.35589823
20.4750,67.41698935
20.4800,67.47798315
20.4850,67.5391965
20.4900,67.60065718
20.4950,67.66261148
20.5000,67.72532939
20.5050,67.78889231
20.5100,67.85352383
20.5150,67.91904632
20.5200,67.98534973
20.5250,68.05242244
20.5300,68.12061547
20.5350,68.19001655
20.5400,68.26097818
20.5450,68.33313844
20.5500,68.40662746
20.5550,68.48126412
20.5600,68.55686606
20.5650,68.63339251
20.5700,68.71106189
20.5750,68.78974141
20.5800,68.86934091
20.5850,68.94987944
20.5900,69.031501
20.5950,69.11416185
20.6000,69.19812873
20.6050,69.28326111
20.6100,69.36934575
20.6150,69.45627009
20.6200,69.54376498
20.6250,69.63176105
20.6300,69.71983138
20.6350,69.80813474
20.6400,69.89642342
20.6450,69.98429068
20.6500,70.07147369
20.6550,70.15784964
20.6600,70.24319317
20.6650,70.32705615
20.6700,70.40942727
20.6750,70.49032892
20.6800,70.56954049
20.6850,70.64700904
20.6900,70.72257676
20.6950,70.79637482
20.7000,70.86831085
20.7050,70.93824097
20.7100,71.005791
20.7150,71.07118947
20.7200,71.13428533
20.7250,71.1954118
20.7300,71.2551946
20.7350,71.31343869
20.7400,71.36984957
20.7450,71.42431757
20.7500,71.47722102
20.7550,71.52866282
20.7600,71.57841619
20.7650,71.62655477
20.7700,71.67305344
20.7750,71.71792412
20.7800,71.76151122
20.7850,71.8038223
20.7900,71.84485578
20.7950,71.88458425
20.8000,71.92284982
20.8050,71.9594703
20.8100,71.99461243
20.8150,72.02843897
20.8200,72.06102621
20.8250,72.09242601
20.8300,72.12249345
20.8350,72.15126543
20.8400,72.17822376
20.8450,72.20372173
20.8500,72.22761758
20.8550,72.25003117
20.8600,72.27102563
20.8650,72.29049573
20.8700,72.30825259
20.8750,72.32446652
20.8800,72.33892227
20.8850,72.35148868
20.8900,72.36169562
20.8950,72.36945537
20.9000,72.37437994
20.9050,72.37640436
20.9100,72.37547199
20.9150,72.37179248
20.9200,72.36532217
20.9250,72.35591472
20.9300,72.34374054
20.9350,72.32886546
20.9400,72.31153598
20.9450,72.2918023
20.9500,72.2700542
20.9550,72.24655431
20.9600,72.22138949
20.9650,72.19485672
20.9700,72.16699831
20.9750,72.13812561
20.9800,72.10870483
20.9850,72.07905009
20.9900,72.04950938
20.9950,72.0198027
21.0000,71.99000706
21.0050,71.96039557
21.0100,71.93113757
21.0150,71.9023377
21.0200,71.87433162
21.0250,71.84717562
21.0300,71.82071749
21.0350,71.79498736
21.0400,71.77012229
21.0450,71.74597469
21.0500,71.72206604
21.0550,71.69830979
21.0600,71.67480463
21.0650,71.6518549
21.0700,71.62952045
21.0750,71.60762378
21.0800,71.58573668
21.0850,71.56395542
21.0900,71.54237875
21.0950,71.52096342
21.1000,71.49963604
21.1050,71.47822465
21.1100,71.45650105
21.1150,71.43447177
21.1200,71.4122221
21.1250,71.38989377
21.1300,71.36732489
21.1350,71.34429188
21.1400,71.32084804
21.1450,71.29692251
21.1500,71.27249761
21.1550,71.24755755
21.1600,71.22210437
21.1650,71.19595011
21.1700,71.1695004
21.1750,71.14258797
21.1800,71.1155629
21.1850,71.08801259
21.1900,71.0600475
21.1950,71.03150161
21.2000,71.00230242
21.2050,70.97238087
21.2100,70.94181986
21.2150,70.91054763
21.2200,70.87893703
21.2250,70.84671135
21.2300,70.81394831
21.2350,70.7803078
21.2400,70.74604353
21.2450,70.71128759
21.2500,70.67605846
21.2550,70.64021555
21.2600,70.60407846
21.2650,70.5677259
21.2700,70.53117753
21.2750,70.49456903
21.2800,70.45758013
21.2850,70.42028057
21.2900,70.38227212
21.2950,70.34349407
21.3000,70.30396405
21.3050,70.26334644
21.3100,70.22195969
21.3150,70.17970107
21.3200,70.13652214
21.3250,70.09237058
21.3300,70.0471055
21.3350,70.00070478
21.3400,69.95271482
21.3450,69.90305922
21.3500,69.85144025
21.3550,69.79799027
21.3600,69.74261105
21.3650,69.68507057
21.3700,69.62533007
21.3750,69.56347717
21.3800,69.49969716
21.3850,69.43395031
21.3900,69.36577802
21.3950,69.29530927
21.4000,69.22217027
21.4050,69.14647959
21.4100,69.06809335
21.4150,68.98684928
21.4200,68.90249224
21.4250,68.81459271
21.4300,68.7231266
21.4350,68.62811971
21.4400,68.52965597
21.4450,68.42752879
21.4500,68.32166731
21.4550,68.211987
21.4600,68.09836882
21.4650,67.98107789
21.4700,67.85972645
21.4750,67.73426883
21.4800,67.60452502
21.4850,67.47055869
21.4900,67.33250092
21.4950,67.19001106
21.5000,67.04304948
21.5050,66.89155573
21.5100,66.73512183
21.5150,66.57381951
21.5200,66.40731639
21.5250,66.23600929
21.5300,66.06018489
21.5350,65.87997305
21.5400,65.69460831
21.5450,65.50405433
21.5500,65.30792133
21.5550,65.10643168
21.5600,64.89899701
21.5650,64.685689
21.5700,64.46625804
21.5750,64.24041451
21.5800,64.00825894
21.5850,63.76981827
21.5900,63.52526914
21.5950,63.27495414
21.6000,63.01887262
21.6050,62.75725988
21.6100,62.48964884
21.6150,62.21606407
21.6200,61.93649746
21.6250,61.65058462
21.6300,61.35826897
21.6350,61.05925252
21.6400,60.75376594
21.6450,60.44180486
21.6500,60.12356527
21.6550,59.79873551
21.6600,59.46754319
21.6650,59.12997494
21.6700,58.78597275
21.6750,58.43568729
21.6800,58.07909225
21.6850,57.71548368
21.6900,57.34504271
21.6950,56.96736422
21.7000,56.582966
21.7050,56.19195938
21.7100,55.79432238
21.7150,55.38973593
21.7200,54.97810718
21.7250,54.55967541
21.7300,54.13441487
21.7350,53.70227562
21.7400,53.26306655
21.7450,52.8169254
21.7500,52.36352381
21.7550,51.90283199
21.7600,51.43493729
21.7650,50.95948158
21.7700,50.47661648
21.7750,49.98616623
21.7800,49.4878524
21.7850,48.98204658
21.7900,48.46816685
21.7950,47.94641801
21.8000,47.41666029
21.8050,46.87881924
21.8100,46.33327327
21.8150,45.7800846
21.8200,45.21911699
21.8250,44.65027839
21.8300,44.07294116
21.8350,43.48715569
21.8400,42.89284899
21.8450,42.2902861
21.8500,41.67951261
21.8550,41.06055885
21.8600,40.43383805
21.8650,39.79912856
21.8700,39.15680203
21.8750,38.50770904
21.8800,37.85252831
21.8850,37.19109668
21.8900,36.52345894
21.8950,35.84984044
21.9000,35.17061537
21.9050,34.48576208
21.9100,33.79563452
21.9150,33.10072415
21.9200,32.40124947
21.9250,31.69799354
21.9300,30.9917027
21.9350,30.28248752
21.9400,29.57116751
21.9450,28.85835621
21.9500,28.14494345
21.9550,27.43143007
21.9600,26.71844877
21.9650,26.0064039
21.9700,25.29592614
21.9750,24.58733945
21.9800,23.88115465
21.9850,23.1779608
21.9900,22.47817425
21.9950,21.78174479
22.0000,21.08875214
22.0050,20.39951305
22.0100,19.71430587
22.0150,19.03350491
22.0200,18.35693224
22.0250,17.68447451
22.0300,17.01624136
22.0350,16.35239469
22.0400,15.69270597
22.0450,15.03692091
22.0500,14.38516264
22.0550,13.73722553
22.0600,13.09303295
22.0650,12.45215853
22.0700,11.81423476
22.0750,11.17885786
22.0800,10.546
22.0850,9.914876128
22.0900,9.285269941
22.0950,8.656797349
22.1000,8.028915622
22.1050,7.401491918
22.1100,6.773877743
22.1150,6.146136376
22.1200,5.518491764
22.1250,4.891238709
22.1300,4.265064086
22.1350,3.640196931
22.1400,3.016883411
22.1450,2.395451766
22.1500,1.776315006
22.1550,1.159743982
22.1600,0.5460224604
22.1650,-0.06432316342
22.1700,-0.670773725
22.1750,-1.272563086
22.1800,-1.869058852
22.1850,-2.45920505
22.1900,-3.042846097
22.1950,-3.61978177
22.2000,-4.189948145
22.2050,-4.753032451
22.2100,-5.308611832
22.2150,-5.856357103
22.2200,-6.395917116
22.2250,-6.92708609
22.2300,-7.449930609
22.2350,-7.964103224
22.2400,-8.469867666
22.2450,-8.966440604
22.2500,-9.453803928
22.2550,-9.93166553
22.2600,-10.39971982
22.2650,-10.85762936
22.2700,-11.30531852
22.2750,-11.74232571
22.2800,-12.16844301
22.2850,-12.58365319
22.2900,-12.9882443
22.2950,-13.38221585
22.3000,-13.76562609
22.3050,-14.13898693
22.3100,-14.50193758
22.3150,-14.85475291
22.3200,-15.19714789
22.3250,-15.52935242
22.3300,-15.85177607
22.3350,-16.16469783
22.3400,-16.46819172
22.3450,-16.76243601
22.3500,-17.04763549
22.3550,-17.32382493
22.3600,-17.59136698
22.3650,-17.84970873
22.3700,-18.09889173
22.3750,-18.33892962
22.3800,-18.5699201
22.3850,-18.79183547
22.3900,-19.00495696
22.3950,-19.20926648
22.4000,-19.40443955
22.4050,-19.5905776
22.4100,-19.76769111
22.4150,-19.93653665
22.4200,-20.09784511
22.4250,-20.25219371
22.4300,-20.40005659
22.4350,-20.54198695
22.4400,-20.67817201
22.4450,-20.80925196
22.4500,-20.93567322
22.4550,-21.05785301
22.4600,-21.17596482
22.4650,-21.2905492
22.4700,-21.40181264
22.4750,-21.5103525
22.4800,-21.61631512
22.4850,-21.71999691
22.4900,-21.82098953
22.4950,-21.9192201
22.5000,-22.01458926
22.5050,-22.10700975
22.5100,-22.19677689
22.5150,-22.28420585
22.5200,-22.36926213
22.5250,-22.45241394
22.5300,-22.5337306
22.5350,-22.61322295
22.5400,-22.69115816
22.5450,-22.76734821
22.5500,-22.84171621
22.5550,-22.91429141
22.5600,-22.98496523
22.5650,-23.05400809
22.5700,-23.12169745
22.5750,-23.18832697
22.5800,-23.254251
22.5850,-23.31967218
22.5900,-23.38452585
22.5950,-23.44871203
22.6000,-23.51243242
22.6050,-23.57562882
22.6100,-23.63855663
22.6150,-23.70111757
22.6200,-23.76327223
22.6250,-23.82464756
22.6300,-23.885227
22.6350,-23.94491028
22.6400,-24.00368982
22.6450,-24.0615867
22.6500,-24.11884214
22.6550,-24.1756028
22.6600,-24.2318299
22.6650,-24.28797644
22.6700,-24.34436346
22.6750,-24.40074044
22.6800,-24.45710394
22.6850,-24.51337052
22.6900,-24.56908871
22.6950,-24.62446414
22.7000,-24.67904179
22.7050,-24.73297541
22.7100,-24.7862723
22.7150,-24.83852884
22.7200,-24.88953253
22.7250,-24.93919796
22.7300,-24.98756504
22.7350,-25.03428455
22.7400,-25.07929869
22.7450,-25.12230395
22.7500,-25.16289017
22.7550,-25.20101174
22.7600,-25.23669313
22.7650,-25.26958239
22.7700,-25.29987576
22.7750,-25.32762128
22.7800,-25.35312196
22.7850,-25.37661478
22.7900,-25.39843999
22.7950,-25.41869397
22.8000,-25.43752526
22.8050,-25.45526899
22.8100,-25.47181573
22.8150,-25.48731394
22.8200,-25.50179735
22.8250,-25.51492621
22.8300,-25.52652864
22.8350,-25.53647397
22.8400,-25.54456439
22.8450,-25.55126023
22.8500,-25.5568525
22.8550,-25.56131154
22.8600,-25.56497852
22.8650,-25.56790245
22.8700,-25.5700138
22.8750,-25.57116896
22.8800,-25.57128119
22.8850,-25.56996334
22.8900,-25.56708255
22.8950,-25.56261707
22.9000,-25.55656447
22.9050,-25.54858996
22.9100,-25.53887427
22.9150,-25.52744261
22.9200,-25.51460638
22.9250,-25.50043751
22.9300,-25.48510161
22.9350,-25.46861203
22.9400,-25.45115435
22.9450,-25.43246777
22.9500,-25.41260753
22.9550,-25.39117285
22.9600,-25.36818675
22.9650,-25.34373057
22.9700,-25.31778466
22.9750,-25.29062122
22.9800,-25.26258584
22.9850,-25.23388015
22.9900,-25.20460604
22.9950,-25.17472493
23.0000,-25.14433198
23.0050,-25.1133016
23.0100,-25.08147592
23.0150,-25.04877851
23.0200,-25.01522584
23.0250,-24.98058517
23.0300,-24.94468486
23.0350,-24.90755095
23.0400,-24.86907428
23.0450,-24.82934115
23.0500,-24.78817531
23.0550,-24.7457122
23.0600,-24.70188327
23.0650,-24.65689525
23.0700,-24.61071131
23.0750,-24.56329399
23.0800,-24.51466778
23.0850,-24.46480305
23.0900,-24.41390308
23.0950,-24.36215722
23.1000,-24.30970815
23.1050,-24.25694123
23.1100,-24.20412825
23.1150,-24.15146508
23.1200,-24.09930611
23.1250,-24.04775571
23.1300,-23.99721969
23.1350,-23.94797374
23.1400,-23.90003198
23.1450,-23.85326789
23.1500,-23.80751747
23.1550,-23.7626743
23.1600,-23.71875616
23.1650,-23.67547118
23.1700,-23.63288652
23.1750,-23.59094756
23.1800,-23.54984471
23.1850,-23.50967872
23.1900,-23.47041525
23.1950,-23.43206694
23.2000,-23.39437553
23.2050,-23.35743624
23.2100,-23.32106187
23.2150,-23.28501937
23.2200,-23.24900139
23.2250,-23.21319331
23.2300,-23.17711715
23.2350,-23.14082846
23.2400,-23.10400138
23.2450,-23.06668386
23.2500,-23.02850948
23.2550,-22.98945507
23.2600,-22.94935996
23.2650,-22.90798697
23.2700,-22.86491908
23.2750,-22.82002191
23.2800,-22.77311452
23.2850,-22.72408069
23.2900,-22.67313753
23.2950,-22.62033914
23.3000,-22.56599668
23.3050,-22.5102759
23.3100,-22.4534954
23.3150,-22.3959083
23.3200,-22.33770984
23.3250,-22.27946043
23.3300,-22.22159196
23.3350,-22.16454248
23.3400,-22.10875038
23.3450,-22.05448298
23.3500,-22.00216567
23.3550,-21.95206353
23.3600,-21.90435562
23.3650,-21.85924699
23.3700,-21.81693606
23.3750,-21.77745642
23.3800,-21.74074115
23.3850,-21.70670924
23.3900,-21.67529717
23.3950,-21.64663255
23.4000,-21.62067079
23.4050,-21.59720121
23.4100,-21.5760419
23.4150,-21.55692338
23.4200,-21.5397245
23.4250,-21.52434965
23.4300,-21.51072014
23.4350,-21.49861008
23.4400,-21.48805173
23.4450,-21.47882454
23.4500,-21.47095308
23.4550,-21.46458911
23.4600,-21.45930553
23.4650,-21.45522728
23.4700,-21.45204519
23.4750,-21.44982841
23.4800,-21.448367
23.4850,-21.44777624
23.4900,-21.44818759
23.4950,-21.44966602
23.5000,-21.45202861
23.5050,-21.45555546
23.5100,-21.45997613
23.5150,-21.46523143
23.5200,-21.47130733
23.5250,-21.47793897
23.5300,-21.48512049
23.5350,-21.49271104
23.5400,-21.50072916
23.5450,-21.50920539
23.5500,-21.51808085
23.5550,-21.52747244
23.5600,-21.53752006
23.5650,-21.54837468
23.5700,-21.56040666
23.5750,-21.57367437
23.5800,-21.58795553
23.5850,-21.60345619
23.5900,-21.62008624
23.5950,-21.63794626
23.6000,-21.65688575
23.6050,-21.67706386
23.6100,-21.69867668
23.6150,-21.7218286
23.6200,-21.74688725
23.6250,-21.77394813
23.6300,-21.80320596
23.6350,-21.83468803
23.6400,-21.86844724
23.6450,-21.90441582
23.6500,-21.94252266
23.6550,-21.98250701
23.6600,-22.02437391
23.6650,-22.06794936
23.6700,-22.11308285
23.6750,-22.15971482
23.6800,-22.20777955
23.6850,-22.25741357
23.6900,-22.30854501
23.6950,-22.36090041
23.7000,-22.41445676
23.7050,-22.46901957
23.7100,-22.52449342
23.7150,-22.58076755
23.7200,-22.63756617
23.7250,-22.69460209
23.7300,-22.75175674
23.7350,-22.80880212
23.7400,-22.86565733
23.7450,-22.9223843
23.7500,-22.97883752
23.7550,-23.03488903
23.7600,-23.09086113
23.7650,-23.14659031
23.7700,-23.20188695
23.7750,-23.25670039
23.7800,-23.31086108
23.7850,-23.36404378
23.7900,-23.41606804
23.7950,-23.46684346
23.8000,-23.51636212
23.8050,-23.56434611
23.8100,-23.61069008
23.8150,-23.65535528
23.8200,-23.69825757
23.8250,-23.73950256
23.8300,-23.77907388
23.8350,-23.81696386
23.8400,-23.8531926
23.8450,-23.88776356
23.8500,-23.92068588
23.8550,-23.95204143
23.8600,-23.98165309
23.8650,-24.00919869
23.8700,-24.03449563
23.8750,-24.05725284
23.8800,-24.07750745
23.8850,-24.09492477
23.8900,-24.10922684
23.8950,-24.1203988
23.9000,-24.1284131
23.9050,-24.13333648
23.9100,-24.13507482
23.9150,-24.133818
23.9200,-24.12944912
23.9250,-24.12196035
23.9300,-24.11114618
23.9350,-24.09704825
23.9400,-24.0795354
23.9450,-24.05842926
23.9500,-24.03361684
23.9550,-24.00485455
23.9600,-23.9722409
23.9650,-23.93540363
23.9700,-23.89401326
23.9750,-23.84783431
23.9800,-23.79642073
23.9850,-23.73941576
23.9900,-23.67640915
23.9950,-23.60695368
24.0000,-23.53042976
24.0050,-23.44646445
24.0100,-23.35449756
24.0150,-23.25417052
24.0200,-23.14506369
24.0250,-23.02717265
24.0300,-22.90009339
24.0350,-22.76393238
24.0400,-22.61861177
24.0450,-22.46417568
24.0500,-22.3007035
24.0550,-22.12844093
24.0600,-21.94727422
24.0650,-21.75766644
24.0700,-21.56004057
24.0750,-21.3548422
24.0800,-21.1426222
24.0850,-20.92390544
24.0900,-20.69920849
24.0950,-20.46886967
24.1000,-20.23328268
24.1050,-19.99284467
24.1100,-19.74825819
24.1150,-19.5001143
24.1200,-19.24895082
24.1250,-18.99520002
24.1300,-18.73939557
24.1350,-18.48169379
24.1400,-18.22241204
24.1450,-17.96189554
24.1500,-17.70022085
24.1550,-17.43755606
24.1600,-17.1743829
24.1650,-16.91115924
24.1700,-16.64809195
24.1750,-16.38528369
24.1800,-16.12304152
24.1850,-15.86173668
24.1900,-15.60167057
24.1950,-15.34271922
24.2000,-15.08509468
24.2050,-14.82872233
24.2100,-14.57363869
24.2150,-14.3197458
24.2200,-14.06669272
24.2250,-13.81435128
24.2300,-13.56274846
24.2350,-13.31184274
24.2400,-13.0617891
24.2450,-12.81267237
24.2500,-12.56414772
24.2550,-12.3160779
24.2600,-12.06782029
24.2650,-11.81946403
24.2700,-11.57066957
24.2750,-11.32149898
24.2800,-11.07174178
24.2850,-10.82091605
24.2900,-10.56847881
24.2950,-10.31422886
24.3000,-10.05796688
24.3050,-9.799171412
24.3100,-9.537644325
24.3150,-9.27292558
24.3200,-9.005138716
24.3250,-8.733600275
24.3300,-8.458079693
24.3350,-8.178088606
24.3400,-7.89346303
24.3450,-7.603931552
24.3500,-7.309424134
24.3550,-7.009420944
24.3600,-6.704057829
24.3650,-6.392876973
24.3700,-6.076046793
24.3750,-5.753187631
24.3800,-5.423895219
24.3850,-5.088188608
24.3900,-4.745910646
24.3950,-4.396815235
24.4000,-4.040639696
24.4050,-3.676890642
24.4100,-3.305081379
24.4150,-2.924635983
24.4200,-2.535062051
24.4250,-2.135559657
24.4300,-1.725578786
24.4350,-1.304431592
24.4400,-0.8710154959
24.4450,-0.4239727172
24.4500,0.0381208863
24.4550,0.5167294243
24.4600,1.013929708
24.4650,1.531919829
24.4700,2.072672665
24.4750,2.638309133
24.4800,3.23136903
24.4850,3.854128589
24.4900,4.509408377
24.4950,5.19978919
24.5000,5.927730146
24.5050,6.695659781
24.5100,7.505503209
24.5150,7.817713225
24.5200,8.160079297
24.5250,8.531768157
24.5300,8.931379453
24.5350,9.357020096
24.5400,9.806362161
24.5450,10.27668713
24.5500,10.76492165
24.5550,11.26766917
24.5600,11.78124019
24.5650,12.3016826
24.5700,12.82481305
24.5750,13.34625139
