type,name,time_units,begin_time,frequency,count,units
signal,"Noraxon Ultium-RT BRACHIORAD.","s",0.00000,2000,49160,"uV"

time,value
0.00000,-7.616895912
0.00050,-2.123396574
0.00100,2.149325134
0.00150,5.506463619
0.00200,5.506463619
0.00250,2.149325134
0.00300,-0.2922301275
0.00350,2.75971395
0.00400,10.38957414
0.00450,15.27268467
0.00500,13.44151822
0.00550,8.253213288
0.00600,3.98049158
0.00650,0.9285475033
0.00700,-0.5974245352
0.00750,-2.123396574
0.00800,-2.733785389
0.00850,-3.95456302
0.00900,-6.396118282
0.00950,-8.837673543
0.01000,-9.753256766
0.01050,-7.006507097
0.01100,0.01296428019
0.01150,7.337630065
0.01200,9.473990919
0.01250,5.811658027
0.01300,2.75971395
0.01350,4.590880396
0.01400,7.642824473
0.01450,4.285685988
0.01500,-3.95456302
0.01550,-10.05845117
0.01600,-11.2792288
0.01650,-11.2792288
0.01700,-12.50000644
0.01750,-11.2792288
0.01800,-7.006507097
0.01850,-3.344174205
0.01900,-3.038979797
0.01950,-3.344174205
0.02000,-2.428590981
0.02050,-3.95456302
0.02100,-9.448062359
0.02150,-13.72078407
0.02200,-12.19481203
0.02250,-6.701312689
0.02300,-2.428590981
0.02350,-0.5974245352
0.02400,0.3181586879
0.02450,0.3181586879
0.02500,-3.038979797
0.02550,-10.05845117
0.02600,-17.68831137
0.02650,-23.18181071
0.02700,-25.62336597
0.02750,-25.62336597
0.02800,-23.18181071
0.02850,-18.60389459
0.02900,-13.41558966
0.02950,-10.9740344
0.03000,-13.72078407
0.03050,-18.909089
0.03100,-23.18181071
0.03150,-25.01297715
0.03200,-27.14933801
0.03250,-31.42205971
0.03300,-34.47400379
0.03350,-34.47400379
0.03400,-33.55842057
0.03450,-33.25322616
0.03500,-30.8116709
0.03550,-21.65583867
0.03600,-6.090923874
0.03650,9.779185327
0.03700,23.51293367
0.03750,35.11032117
0.03800,44.2661534
0.03850,48.2336807
0.03900,45.79212544
0.03950,41.21420932
0.04000,36.3310988
0.04050,30.22721064
0.04100,21.07137841
0.04150,9.473990919
0.04200,-0.9026189429
0.04250,-9.448062359
0.04300,-16.46753374
0.04350,-22.26622748
0.04400,-27.45453241
0.04450,-30.8116709
0.04500,-30.50647649
0.04550,-28.06492123
0.04600,-25.92856037
0.04650,-24.70778274
0.04700,-19.51947781
0.04750,-6.090923874
0.04800,14.05190703
0.04850,35.11032117
0.04900,51.28562477
0.04950,58.61029056
0.05000,54.33756885
0.05050,39.68823728
0.05100,21.98696163
0.05150,10.08437973
0.05200,4.896074803
0.05250,2.75971395
0.05300,1.844130726
0.05350,3.370102765
0.05400,7.032435657
0.05450,7.337630065
0.05500,3.064908357
0.05550,-1.513007758
0.05600,-1.818202166
0.05650,2.454519542
0.05700,9.473990919
0.05750,14.96749026
0.05800,13.13632381
0.05850,0.6233530956
0.05900,-16.46753374
0.05950,-27.14933801
0.06000,-26.53894919
0.06050,-21.04544985
0.06100,-18.29870018
0.06150,-17.68831137
0.06200,-15.2467561
0.06250,-10.66883999
0.06300,-7.311701505
0.06350,-4.870146243
0.06400,-0.5974245352
0.06450,5.506463619
0.06500,10.99996296
0.06550,12.525935
0.06600,11.91554618
0.06650,10.99996296
0.06700,10.69476855
0.06750,9.779185327
0.06800,8.558407696
0.06850,7.94801888
0.06900,6.422046842
0.06950,1.538936319
0.07000,-7.311701505
0.07050,-17.68831137
0.07100,-23.79219952
0.07150,-24.09739393
0.07200,-22.8766163
0.07250,-23.48700511
0.07300,-25.62336597
0.07350,-25.31817156
0.07400,-21.96103307
0.07450,-17.38311696
0.07500,-13.41558966
0.07550,-9.448062359
0.07600,-3.95456302
0.07650,3.064908357
0.07700,11.91554618
0.07750,19.54540637
0.07800,22.90254486
0.07850,21.07137841
0.07900,16.4934623
0.07950,12.8311294
0.08000,12.525935
0.08050,14.66229585
0.08100,16.7986567
0.08150,16.18826789
0.08200,13.13632381
0.08250,10.99996296
0.08300,11.61035177
0.08350,13.44151822
0.08400,12.525935
0.08450,9.168796511
0.08500,6.422046842
0.08550,4.896074803
0.08600,3.064908357
0.08650,0.6233530956
0.08700,-0.2922301275
0.08750,-1.207813351
0.08800,-4.870146243
0.08850,-10.66883999
0.08900,-13.11039525
0.08950,-11.2792288
0.09000,-9.142867951
0.09050,-6.396118282
0.09100,0.01296428019
0.09150,6.422046842
0.09200,3.675297173
0.09250,-12.80520084
0.09300,-31.11686531
0.09350,-38.13633668
0.09400,-35.38958701
0.09450,-35.69478142
0.09500,-43.01944721
0.09550,-47.90255773
0.09600,-43.32464161
0.09650,-32.64283734
0.09700,-22.8766163
0.09750,-14.9415617
0.09800,-5.480535058
0.09850,5.811658027
0.09900,15.88307348
0.09950,21.07137841
0.10000,22.90254486
0.10050,25.34410012
0.10100,30.22721064
0.10150,35.11032117
0.10200,35.41551557
0.10250,30.83759946
0.10300,21.98696163
0.10350,8.558407696
0.10400,-9.753256766
0.10450,-28.98050445
0.10500,-39.96750313
0.10550,-38.7467255
0.10600,-31.42205971
0.10650,-26.53894919
0.10700,-24.70778274
0.10750,-21.04544985
0.10800,-15.85714492
0.10850,-17.99350577
0.10900,-33.55842057
0.10950,-53.39605707
0.11000,-59.19475081
0.11050,-43.01944721
0.11100,-17.07792255
0.11150,-0.5974245352
0.11200,-0.2922301275
0.11250,-5.480535058
0.11300,-6.701312689
0.11350,-6.090923874
0.11400,-5.175340651
0.11450,2.75971395
0.11500,25.95448893
0.11550,57.38951293
0.11600,79.9738991
0.11650,87.9089537
0.11700,89.74012014
0.11750,91.876481
0.11800,89.12973133
0.11850,75.39598298
0.11900,55.25315207
0.11950,38.16226524
0.12000,26.87007216
0.12050,18.93501756
0.12100,14.05190703
0.12150,13.74671263
0.12200,14.96749026
0.12250,14.35710144
0.12300,11.61035177
0.12350,11.61035177
0.12400,15.27268467
0.12450,19.24021197
0.12500,21.37657282
0.12550,22.90254486
0.12600,22.29215604
0.12650,16.18826789
0.12700,4.896074803
0.12750,-3.649368612
0.12800,-2.733785389
0.12850,4.285685988
0.12900,9.473990919
0.12950,10.08437973
0.13000,10.99996296
0.13050,15.27268467
0.13100,18.93501756
0.13150,17.10385111
0.13200,12.22074059
0.13250,8.558407696
0.13300,7.337630065
0.13350,6.116852434
0.13400,4.590880396
0.13450,3.98049158
0.13500,2.75971395
0.13550,-0.5974245352
0.13600,-5.785729466
0.13650,-8.532479135
0.13700,-7.616895912
0.13750,-5.785729466
0.13800,-5.785729466
0.13850,-7.616895912
0.13900,-10.66883999
0.13950,-12.19481203
0.14000,-10.9740344
0.14050,-6.396118282
0.14100,-0.9026189429
0.14150,0.6233530956
0.14200,-2.428590981
0.14250,-6.701312689
0.14300,-6.701312689
0.14350,-0.9026189429
0.14400,7.337630065
0.14450,13.44151822
0.14500,14.66229585
0.14550,12.22074059
0.14600,9.168796511
0.14650,6.72724125
0.14700,4.590880396
0.14750,2.75971395
0.14800,-0.2922301275
0.14850,-6.701312689
0.14900,-16.46753374
0.14950,-26.8441436
0.15000,-32.94803175
0.15050,-33.55842057
0.15100,-33.25322616
0.15150,-37.52594787
0.15200,-42.7142528
0.15250,-42.40905839
0.15300,-33.86361497
0.15350,-23.18181071
0.15400,-12.80520084
0.15450,-0.5974245352
0.15500,14.35710144
0.15550,25.95448893
0.15600,26.87007216
0.15650,20.4609896
0.15700,15.88307348
0.15750,17.71423993
0.15800,20.766184
0.15850,20.4609896
0.15900,18.01943433
0.15950,18.01943433
0.16000,19.24021197
0.16050,18.01943433
0.16100,11.61035177
0.16150,3.064908357
0.16200,-4.870146243
0.16250,-12.80520084
0.16300,-21.96103307
0.16350,-33.25322616
0.16400,-42.10386398
0.16450,-45.46100247
0.16500,-43.62983602
0.16550,-39.96750313
0.16600,-35.99997583
0.16650,-31.72725412
0.16700,-26.23375478
0.16750,-20.12986663
0.16800,-13.41558966
0.16850,-5.175340651
0.16900,6.422046842
0.16950,20.766184
0.17000,35.11032117
0.17050,43.96095899
0.17100,44.5713478
0.17150,37.55187643
0.17200,26.87007216
0.17250,17.10385111
0.17300,8.253213288
0.17350,0.3181586879
0.17400,-4.870146243
0.17450,-5.480535058
0.17500,-5.175340651
0.17550,-7.92209032
0.17600,-10.66883999
0.17650,-5.175340651
0.17700,10.38957414
0.17750,28.3960442
0.17800,39.38304287
0.17850,41.82459814
0.17900,40.2986261
0.17950,39.68823728
0.18000,40.6038205
0.18050,39.38304287
0.18100,31.44798827
0.18150,13.74671263
0.18200,-8.532479135
0.18250,-26.23375478
0.18300,-33.25322616
0.18350,-32.03244853
0.18400,-30.20128208
0.18450,-33.55842057
0.18500,-38.7467255
0.18550,-40.27269754
0.18600,-35.38958701
0.18650,-26.53894919
0.18700,-16.16233933
0.18750,-2.428590981
0.18800,13.74671263
0.18850,28.09084979
0.18900,34.49993235
0.18950,34.49993235
0.19000,33.88954354
0.19050,33.88954354
0.19100,30.83759946
0.19150,21.98696163
0.19200,10.69476855
0.19250,0.6233530956
0.19300,-7.006507097
0.19350,-13.11039525
0.19400,-15.55195051
0.19450,-14.33117288
0.19500,-12.80520084
0.19550,-13.11039525
0.19600,-13.72078407
0.19650,-13.72078407
0.19700,-13.72078407
0.19750,-14.33117288
0.19800,-11.88961762
0.19850,-3.649368612
0.19900,6.72724125
0.19950,13.44151822
0.20000,12.525935
0.20050,7.032435657
0.20100,3.675297173
0.20150,6.72724125
0.20200,13.13632381
0.20250,14.66229585
0.20300,7.032435657
0.20350,-4.259757428
0.20400,-12.50000644
0.20450,-14.02597847
0.20500,-14.02597847
0.20550,-15.85714492
0.20600,-17.68831137
0.20650,-16.16233933
0.20700,-12.50000644
0.20750,-10.36364558
0.20800,-11.2792288
0.20850,-12.19481203
0.20900,-9.753256766
0.20950,-3.95456302
0.21000,2.149325134
0.21050,4.590880396
0.21100,2.149325134
0.21150,-2.123396574
0.21200,-4.564951835
0.21250,-2.428590981
0.21300,1.233741911
0.21350,3.675297173
0.21400,2.149325134
0.21450,-2.428590981
0.21500,-8.532479135
0.21550,-14.02597847
0.21600,-17.99350577
0.21650,-20.12986663
0.21700,-19.51947781
0.21750,-16.16233933
0.21800,-14.63636729
0.21850,-19.21428341
0.21900,-30.50647649
0.21950,-40.88308635
0.22000,-41.49347517
0.22050,-28.06492123
0.22100,-6.396118282
0.22150,13.13632381
0.22200,22.90254486
0.22250,22.59735045
0.22300,18.32462874
0.22350,16.7986567
0.22400,19.24021197
0.22450,22.90254486
0.22500,25.03890571
0.22550,24.4285169
0.22600,21.37657282
0.22650,18.01943433
0.22700,14.66229585
0.22750,9.168796511
0.22800,-0.9026189429
0.22850,-13.41558966
0.22900,-19.21428341
0.22950,-15.55195051
0.23000,-9.448062359
0.23050,-9.142867951
0.23100,-12.80520084
0.23150,-12.50000644
0.23200,-8.532479135
0.23250,-7.311701505
0.23300,-9.753256766
0.23350,-9.142867951
0.23400,-4.259757428
0.23450,-4.259757428
0.23500,-16.77272814
0.23550,-36.61036464
0.23600,-51.56489062
0.23650,-54.6168347
0.23700,-47.59736332
0.23750,-35.69478142
0.23800,-25.31817156
0.23850,-21.35064426
0.23900,-21.35064426
0.23950,-16.77272814
0.24000,-2.733785389
0.24050,16.4934623
0.24100,34.19473794
0.24150,47.01290307
0.24200,54.94795767
0.24250,54.64276326
0.24300,41.82459814
0.24350,18.32462874
0.24400,-5.480535058
0.24450,-20.74025544
0.24500,-25.92856037
0.24550,-26.23375478
0.24600,-24.70778274
0.24650,-19.82467222
0.24700,-8.532479135
0.24750,7.032435657
0.24800,23.51293367
0.24850,37.55187643
0.24900,48.5388751
0.24950,54.94795767
0.25000,54.33756885
0.25050,46.40251425
0.25100,35.41551557
0.25150,25.95448893
0.25200,19.24021197
0.25250,14.96749026
0.25300,12.525935
0.25350,11.91554618
0.25400,8.253213288
0.25450,0.01296428019
0.25500,-8.837673543
0.25550,-11.2792288
0.25600,-7.311701505
0.25650,-3.95456302
0.25700,-4.259757428
0.25750,-4.259757428
0.25800,-1.818202166
0.25850,-1.207813351
0.25900,-5.480535058
0.25950,-8.837673543
0.26000,-2.733785389
0.26050,10.38957414
0.26100,22.59735045
0.26150,26.87007216
0.26200,25.95448893
0.26250,24.4285169
0.26300,25.03890571
0.26350,26.87007216
0.26400,27.78565538
0.26450,24.4285169
0.26500,15.88307348
0.26550,7.94801888
0.26600,6.116852434
0.26650,8.558407696
0.26700,5.506463619
0.26750,-6.701312689
0.26800,-23.79219952
0.26850,-37.22075346
0.26900,-44.24022484
0.26950,-46.07139128
0.27000,-43.32464161
0.27050,-36.61036464
0.27100,-28.98050445
0.27150,-24.70778274
0.27200,-25.01297715
0.27250,-27.14933801
0.27300,-26.53894919
0.27350,-19.82467222
0.27400,-9.142867951
0.27450,-0.5974245352
0.27500,0.6233530956
0.27550,1.233741911
0.27600,9.168796511
0.27650,24.7337113
0.27700,37.24668202
0.27750,39.68823728
0.27800,36.3310988
0.27850,36.3310988
0.27900,37.55187643
0.27950,31.44798827
0.28000,16.7986567
0.28050,4.285685988
0.28100,1.538936319
0.28150,5.201269211
0.28200,7.032435657
0.28250,4.285685988
0.28300,0.6233530956
0.28350,-2.428590981
0.28400,-7.92209032
0.28450,-15.2467561
0.28500,-20.43506104
0.28550,-19.51947781
0.28600,-14.9415617
0.28650,-12.50000644
0.28700,-14.33117288
0.28750,-17.99350577
0.28800,-19.51947781
0.28850,-15.85714492
0.28900,-7.92209032
0.28950,0.01296428019
0.29000,5.811658027
0.29050,14.96749026
0.29100,30.53240505
0.29150,47.92848629
0.29200,54.33756885
0.29250,44.87654221
0.29300,27.78565538
0.29350,12.8311294
0.29400,0.01296428019
0.29450,-14.33117288
0.29500,-25.92856037
0.29550,-27.75972682
0.29600,-22.8766163
0.29650,-20.43506104
0.29700,-22.26622748
0.29750,-20.74025544
0.29800,-12.50000644
0.29850,-3.649368612
0.29900,0.3181586879
0.29950,2.454519542
0.30000,6.422046842
0.30050,5.811658027
0.30100,-4.870146243
0.30150,-21.35064426
0.30200,-32.64283734
0.30250,-34.7791982
0.30300,-34.47400379
0.30350,-33.55842057
0.30400,-27.14933801
0.30450,-14.02597847
0.30500,-3.038979797
0.30550,-0.5974245352
0.30600,-1.207813351
0.30650,7.032435657
0.30700,25.34410012
0.30750,44.2661534
0.30800,54.94795767
0.30850,57.38951293
0.30900,52.81159681
0.30950,42.43498695
0.31000,28.7012386
0.31050,17.40904552
0.31100,11.91554618
0.31150,10.99996296
0.31200,11.61035177
0.31250,11.30515737
0.31300,9.779185327
0.31350,7.337630065
0.31400,6.422046842
0.31450,8.863602104
0.31500,10.38957414
0.31550,7.032435657
0.31600,1.538936319
0.31650,-0.9026189429
0.31700,-0.9026189429
0.31750,-3.649368612
0.31800,-9.142867951
0.31850,-12.19481203
0.31900,-10.05845117
0.31950,-8.532479135
0.32000,-9.448062359
0.32050,-8.227284728
0.32100,-2.733785389
0.32150,0.6233530956
0.32200,-4.870146243
0.32250,-17.07792255
0.32300,-28.37011564
0.32350,-35.69478142
0.32400,-41.49347517
0.32450,-45.46100247
0.32500,-45.15580806
0.32550,-41.18828076
0.32600,-35.99997583
0.32650,-30.50647649
0.32700,-23.48700511
0.32750,-14.9415617
0.32800,-7.92209032
0.32850,-3.649368612
0.32900,-1.207813351
0.32950,1.844130726
0.33000,9.473990919
0.33050,23.20773927
0.33100,38.16226524
0.33150,43.96095899
0.33200,35.11032117
0.33250,17.71423993
0.33300,2.75971395
0.33350,-3.95456302
0.33400,-3.95456302
0.33450,0.9285475033
0.33500,7.94801888
0.33550,10.99996296
0.33600,5.201269211
0.33650,-5.480535058
0.33700,-12.19481203
0.33750,-10.66883999
0.33800,-7.92209032
0.33850,-10.36364558
0.33900,-15.85714492
0.33950,-18.60389459
0.34000,-16.77272814
0.34050,-11.2792288
0.34100,-3.038979797
0.34150,6.72724125
0.34200,15.88307348
0.34250,21.37657282
0.34300,21.07137841
0.34350,14.05190703
0.34400,0.9285475033
0.34450,-13.72078407
0.34500,-24.09739393
0.34550,-26.8441436
0.34600,-26.23375478
0.34650,-25.62336597
0.34700,-23.18181071
0.34750,-16.77272814
0.34800,-9.753256766
0.34850,-7.311701505
0.34900,-9.448062359
0.34950,-7.616895912
0.35000,3.064908357
0.35050,21.98696163
0.35100,39.68823728
0.35150,47.31809747
0.35200,41.82459814
0.35250,29.92201623
0.35300,20.4609896
0.35350,14.66229585
0.35400,5.201269211
0.35450,-11.88961762
0.35500,-29.28569886
0.35550,-35.08439261
0.35600,-26.53894919
0.35650,-13.11039525
0.35700,-3.649368612
0.35750,-0.2922301275
0.35800,0.3181586879
0.35850,1.233741911
0.35900,3.98049158
0.35950,9.473990919
0.36000,19.85060078
0.36050,33.88954354
0.36100,47.62329188
0.36150,55.25315207
0.36200,54.64276326
0.36250,45.79212544
0.36300,30.22721064
0.36350,11.61035177
0.36400,-2.123396574
0.36450,-7.311701505
0.36500,-6.701312689
0.36550,-7.92209032
0.36600,-12.50000644
0.36650,-12.19481203
0.36700,-4.870146243
0.36750,-1.207813351
0.36800,-10.05845117
0.36850,-24.70778274
0.36900,-28.98050445
0.36950,-19.51947781
0.37000,-7.92209032
0.37050,-4.259757428
0.37100,-6.701312689
0.37150,-7.311701505
0.37200,-6.396118282
0.37250,-6.396118282
0.37300,-7.006507097
0.37350,-3.95456302
0.37400,4.285685988
0.37450,14.05190703
0.37500,19.24021197
0.37550,17.10385111
0.37600,10.08437973
0.37650,2.149325134
0.37700,-4.259757428
0.37750,-8.837673543
0.37800,-9.448062359
0.37850,-5.480535058
0.37900,0.3181586879
0.37950,3.98049158
0.38000,3.064908357
0.38050,1.538936319
0.38100,1.233741911
0.38150,-2.428590981
0.38200,-14.9415617
0.38250,-33.55842057
0.38300,-50.6493074
0.38350,-61.94150048
0.38400,-68.04538864
0.38450,-70.18174949
0.38500,-65.29863897
0.38550,-51.25969621
0.38600,-32.64283734
0.38650,-17.38311696
0.38700,-10.66883999
0.38750,-9.142867951
0.38800,-3.649368612
0.38850,9.779185327
0.38900,27.78565538
0.38950,40.6038205
0.39000,45.48693103
0.39050,43.65576458
0.39100,37.55187643
0.39150,27.48046097
0.39200,16.18826789
0.39250,8.863602104
0.39300,9.168796511
0.39350,14.66229585
0.39400,18.62982315
0.39450,18.01943433
0.39500,13.44151822
0.39550,8.253213288
0.39600,5.201269211
0.39650,4.285685988
0.39700,4.285685988
0.39750,4.896074803
0.39800,7.032435657
0.39850,11.30515737
0.39900,17.10385111
0.39950,20.766184
0.40000,20.15579519
0.40050,14.35710144
0.40100,6.116852434
0.40150,0.3181586879
0.40200,-0.2922301275
0.40250,2.75971395
0.40300,3.370102765
0.40350,-2.733785389
0.40400,-11.58442321
0.40450,-15.85714492
0.40500,-17.38311696
0.40550,-22.57142189
0.40600,-32.94803175
0.40650,-41.18828076
0.40700,-42.40905839
0.40750,-39.96750313
0.40800,-39.35711431
0.40850,-39.35711431
0.40900,-34.47400379
0.40950,-25.31817156
0.41000,-16.16233933
0.41050,-7.616895912
0.41100,3.675297173
0.41150,20.766184
0.41200,39.07784847
0.41250,52.5064024
0.41300,56.77912411
0.41350,50.98043037
0.41400,36.94148761
0.41450,22.59735045
0.41500,18.62982315
0.41550,26.25968334
0.41600,35.41551557
0.41650,35.11032117
0.41700,26.87007216
0.41750,21.07137841
0.41800,21.68176723
0.41850,21.68176723
0.41900,15.57787907
0.41950,7.642824473
0.42000,3.98049158
0.42050,3.675297173
0.42100,0.01296428019
0.42150,-8.532479135
0.42200,-13.72078407
0.42250,-11.88961762
0.42300,-7.616895912
0.42350,-7.616895912
0.42400,-9.448062359
0.42450,-7.616895912
0.42500,-3.95456302
0.42550,-4.259757428
0.42600,-9.448062359
0.42650,-12.80520084
0.42700,-11.2792288
0.42750,-10.36364558
0.42800,-15.2467561
0.42850,-23.18181071
0.42900,-27.14933801
0.42950,-27.14933801
0.43000,-28.67531004
0.43050,-31.72725412
0.43100,-28.98050445
0.43150,-13.72078407
0.43200,8.863602104
0.43250,29.31162742
0.43300,41.51940373
0.43350,45.48693103
0.43400,42.74018136
0.43450,32.05837709
0.43500,15.27268467
0.43550,-1.207813351
0.43600,-8.837673543
0.43650,-5.480535058
0.43700,2.149325134
0.43750,5.811658027
0.43800,0.9285475033
0.43850,-7.92209032
0.43900,-11.88961762
0.43950,-3.95456302
0.44000,10.69476855
0.44050,21.98696163
0.44100,24.12332249
0.44150,22.29215604
0.44200,22.90254486
0.44250,23.51293367
0.44300,17.40904552
0.44350,6.422046842
0.44400,0.01296428019
0.44450,2.454519542
0.44500,9.779185327
0.44550,13.74671263
0.44600,12.8311294
0.44650,10.99996296
0.44700,10.38957414
0.44750,10.08437973
0.44800,7.642824473
0.44850,2.149325134
0.44900,-4.564951835
0.44950,-8.532479135
0.45000,-8.837673543
0.45050,-9.448062359
0.45100,-14.02597847
0.45150,-19.21428341
0.45200,-19.51947781
0.45250,-15.2467561
0.45300,-13.11039525
0.45350,-14.9415617
0.45400,-15.85714492
0.45450,-13.11039525
0.45500,-9.448062359
0.45550,-6.396118282
0.45600,-1.513007758
0.45650,5.811658027
0.45700,10.69476855
0.45750,9.779185327
0.45800,7.032435657
0.45850,7.642824473
0.45900,8.863602104
0.45950,5.506463619
0.46000,-2.733785389
0.46050,-11.2792288
0.46100,-16.46753374
0.46150,-18.29870018
0.46200,-18.29870018
0.46250,-17.68831137
0.46300,-17.38311696
0.46350,-15.2467561
0.46400,-6.701312689
0.46450,7.032435657
0.46500,18.32462874
0.46550,21.07137841
0.46600,18.01943433
0.46650,15.57787907
0.46700,13.44151822
0.46750,7.642824473
0.46800,-1.513007758
0.46850,-12.80520084
0.46900,-26.53894919
0.46950,-42.7142528
0.47000,-56.44800114
0.47050,-60.72072285
0.47100,-56.75319555
0.47150,-50.95450181
0.47200,-47.59736332
0.47250,-43.62983602
0.47300,-36.30517024
0.47350,-27.14933801
0.47400,-16.46753374
0.47450,-0.5974245352
0.47500,23.81812808
0.47550,52.201208
0.47600,74.17520535
0.47650,82.72064877
0.47700,77.53234384
0.47750,64.1037899
0.47800,48.5388751
0.47850,33.88954354
0.47900,21.98696163
0.47950,15.27268467
0.48000,16.4934623
0.48050,24.7337113
0.48100,32.97396031
0.48150,33.58434913
0.48200,26.87007216
0.48250,19.85060078
0.48300,18.32462874
0.48350,18.93501756
0.48400,13.74671263
0.48450,0.6233530956
0.48500,-13.72078407
0.48550,-23.48700511
0.48600,-27.14933801
0.48650,-28.06492123
0.48700,-28.37011564
0.48750,-25.92856037
0.48800,-19.82467222
0.48850,-11.58442321
0.48900,-3.649368612
0.48950,3.98049158
0.49000,12.22074059
0.49050,18.32462874
0.49100,21.07137841
0.49150,23.81812808
0.49200,28.09084979
0.49250,29.31162742
0.49300,20.766184
0.49350,5.201269211
0.49400,-5.480535058
0.49450,-7.616895912
0.49500,-9.448062359
0.49550,-17.38311696
0.49600,-25.31817156
0.49650,-21.04544985
0.49700,-5.480535058
0.49750,8.253213288
0.49800,11.61035177
0.49850,8.253213288
0.49900,5.811658027
0.49950,5.811658027
0.50000,3.98049158
0.50050,3.370102765
0.50100,12.22074059
0.50150,30.53240505
0.50200,47.62329188
0.50250,51.59081918
0.50300,42.74018136
0.50350,29.61682183
0.50400,17.71423993
0.50450,6.116852434
0.50500,-1.513007758
0.50550,-1.207813351
0.50600,5.811658027
0.50650,11.91554618
0.50700,11.91554618
0.50750,10.69476855
0.50800,12.22074059
0.50850,13.74671263
0.50900,11.61035177
0.50950,10.08437973
0.51000,13.44151822
0.51050,17.71423993
0.51100,15.88307348
0.51150,6.72724125
0.51200,-7.006507097
0.51250,-23.48700511
0.51300,-40.88308635
0.51350,-52.48047384
0.51400,-52.17527944
0.51450,-41.49347517
0.51500,-28.37011564
0.51550,-18.60389459
0.51600,-12.80520084
0.51650,-9.448062359
0.51700,-7.311701505
0.51750,-2.733785389
0.51800,6.422046842
0.51850,17.10385111
0.51900,24.7337113
0.51950,28.7012386
0.52000,30.53240505
0.52050,29.92201623
0.52100,24.12332249
0.52150,12.525935
0.52200,-0.2922301275
0.52250,-10.66883999
0.52300,-15.55195051
0.52350,-14.02597847
0.52400,-7.006507097
0.52450,0.3181586879
0.52500,1.844130726
0.52550,-5.785729466
0.52600,-20.74025544
0.52650,-35.38958701
0.52700,-40.57789194
0.52750,-34.47400379
0.52800,-22.57142189
0.52850,-14.33117288
0.52900,-17.07792255
0.52950,-29.89608767
0.53000,-45.76619688
0.53050,-55.53241792
0.53100,-54.6168347
0.53150,-48.51294654
0.53200,-47.29216891
0.53250,-51.25969621
0.53300,-50.6493074
0.53350,-40.57789194
0.53400,-31.72725412
0.53450,-35.08439261
0.53500,-44.24022484
0.53550,-40.88308635
0.53600,-21.65583867
0.53650,-0.9026189429
0.53700,9.473990919
0.53750,15.57787907
0.53800,27.48046097
0.53850,42.12979254
0.53900,49.14926392
0.53950,47.31809747
0.54000,43.96095899
0.54050,44.87654221
0.54100,47.62329188
0.54150,48.2336807
0.54200,47.92848629
0.54250,47.31809747
0.54300,42.43498695
0.54350,31.14279387
0.54400,16.4934623
0.54450,4.896074803
0.54500,0.9285475033
0.54550,3.675297173
0.54600,7.642824473
0.54650,9.779185327
0.54700,9.168796511
0.54750,6.116852434
0.54800,-0.9026189429
0.54850,-13.41558966
0.54900,-27.45453241
0.54950,-36.61036464
0.55000,-37.52594787
0.55050,-32.94803175
0.55100,-29.28569886
0.55150,-29.28569886
0.55200,-29.89608767
0.55250,-27.14933801
0.55300,-19.51947781
0.55350,-6.701312689
0.55400,8.863602104
0.55450,25.34410012
0.55500,37.24668202
0.55550,42.74018136
0.55600,42.74018136
0.55650,39.38304287
0.55700,34.49993235
0.55750,29.31162742
0.55800,25.95448893
0.55850,24.7337113
0.55900,21.37657282
0.55950,15.27268467
0.56000,10.38957414
0.56050,9.473990919
0.56100,5.201269211
0.56150,-10.9740344
0.56200,-37.83114227
0.56250,-60.11033404
0.56300,-67.12980541
0.56350,-61.33111167
0.56400,-52.48047384
0.56450,-43.32464161
0.56500,-31.72725412
0.56550,-17.68831137
0.56600,-6.090923874
0.56650,0.01296428019
0.56700,2.75971395
0.56750,7.642824473
0.56800,17.10385111
0.56850,29.00643301
0.56900,39.07784847
0.56950,43.04537577
0.57000,39.38304287
0.57050,29.92201623
0.57100,20.4609896
0.57150,14.35710144
0.57200,12.22074059
0.57250,11.91554618
0.57300,12.8311294
0.57350,13.74671263
0.57400,11.91554618
0.57450,5.506463619
0.57500,-1.513007758
0.57550,-3.344174205
0.57600,-1.513007758
0.57650,-4.259757428
0.57700,-13.41558966
0.57750,-21.96103307
0.57800,-23.79219952
0.57850,-24.09739393
0.57900,-28.06492123
0.57950,-29.89608767
0.58000,-22.8766163
0.58050,-15.2467561
0.58100,-19.82467222
0.58150,-30.8116709
0.58200,-28.67531004
0.58250,-9.448062359
0.58300,7.94801888
0.58350,10.38957414
0.58400,7.337630065
0.58450,13.74671263
0.58500,25.03890571
0.58550,27.48046097
0.58600,18.93501756
0.58650,8.863602104
0.58700,2.454519542
0.58750,-5.480535058
0.58800,-17.38311696
0.58850,-26.53894919
0.58900,-27.45453241
0.58950,-21.96103307
0.59000,-12.19481203
0.59050,1.844130726
0.59100,20.766184
0.59150,40.2986261
0.59200,57.08431852
0.59250,72.95442772
0.59300,89.43492574
0.59350,104.0842573
0.59400,110.4933399
0.59450,104.9998405
0.59500,89.74012014
0.59550,73.25962213
0.59600,63.79859549
0.59650,63.18820667
0.59700,66.24015075
0.59750,66.24015075
0.59800,59.83106819
0.59850,50.37004155
0.59900,42.12979254
0.59950,35.41551557
0.60000,25.34410012
0.60050,10.08437973
0.60100,-4.564951835
0.60150,-11.2792288
0.60200,-10.66883999
0.60250,-12.50000644
0.60300,-24.09739393
0.60350,-38.7467255
0.60400,-43.01944721
0.60450,-33.55842057
0.60500,-19.21428341
0.60550,-9.142867951
0.60600,-4.564951835
0.60650,-3.344174205
0.60700,-7.616895912
0.60750,-18.29870018
0.60800,-30.8116709
0.60850,-43.01944721
0.60900,-57.97397318
0.60950,-77.20122087
0.61000,-93.68171888
0.61050,-97.03885737
0.61100,-86.66224751
0.61150,-72.62330475
0.61200,-62.5518893
0.61250,-56.14280674
0.61300,-48.51294654
0.61350,-36.61036464
0.61400,-19.51947781
0.61450,0.01296428019
0.61500,16.18826789
0.61550,24.4285169
0.61600,22.59735045
0.61650,12.22074059
0.61700,-3.038979797
0.61750,-18.29870018
0.61800,-27.14933801
0.61850,-28.98050445
0.61900,-29.59089327
0.61950,-33.86361497
0.62000,-39.96750313
0.62050,-40.88308635
0.62100,-34.47400379
0.62150,-25.01297715
0.62200,-17.99350577
0.62250,-13.41558966
0.62300,-8.532479135
0.62350,-3.038979797
0.62400,0.01296428019
0.62450,-1.207813351
0.62500,-4.870146243
0.62550,-8.532479135
0.62600,-9.753256766
0.62650,-9.753256766
0.62700,-9.142867951
0.62750,-7.616895912
0.62800,-4.870146243
0.62850,-1.818202166
0.62900,-2.123396574
0.62950,-5.785729466
0.63000,-8.532479135
0.63050,-7.616895912
0.63100,-4.870146243
0.63150,-5.480535058
0.63200,-9.448062359
0.63250,-13.11039525
0.63300,-12.80520084
0.63350,-10.9740344
0.63400,-11.2792288
0.63450,-12.80520084
0.63500,-12.80520084
0.63550,-8.532479135
0.63600,-2.123396574
0.63650,3.370102765
0.63700,5.811658027
0.63750,4.590880396
0.63800,2.149325134
0.63850,3.675297173
0.63900,9.473990919
0.63950,13.74671263
0.64000,10.38957414
0.64050,4.590880396
0.64100,3.98049158
0.64150,6.422046842
0.64200,2.75971395
0.64250,-7.006507097
0.64300,-11.58442321
0.64350,-6.701312689
0.64400,-2.123396574
0.64450,-5.785729466
0.64500,-11.2792288
0.64550,-8.837673543
0.64600,-3.038979797
0.64650,-4.870146243
0.64700,-13.11039525
0.64750,-18.60389459
0.64800,-18.909089
0.64850,-18.60389459
0.64900,-19.51947781
0.64950,-20.12986663
0.65000,-23.18181071
0.65050,-31.11686531
0.65100,-38.13633668
0.65150,-35.38958701
0.65200,-21.65583867
0.65250,-3.649368612
0.65300,14.05190703
0.65350,31.44798827
0.65400,44.87654221
0.65450,50.06484714
0.65500,51.89601359
0.65550,57.38951293
0.65600,65.01937312
0.65650,68.68170601
0.65700,67.76612279
0.65750,66.54534516
0.65800,62.57781786
0.65850,51.89601359
0.65900,41.21420932
0.65950,40.2986261
0.66000,46.70770866
0.66050,49.45445833
0.66100,43.96095899
0.66150,38.16226524
0.66200,36.6362932
0.66250,36.6362932
0.66300,33.88954354
0.66350,29.00643301
0.66400,20.766184
0.66450,9.473990919
0.66500,-1.207813351
0.66550,-8.227284728
0.66600,-13.72078407
0.66650,-22.8766163
0.66700,-34.16880938
0.66750,-41.79866957
0.66800,-46.98697451
0.66850,-52.17527944
0.66900,-50.34411299
0.66950,-33.55842057
0.67000,-7.616895912
0.67050,11.61035177
0.67100,20.4609896
0.67150,29.00643301
0.67200,43.35057017
0.67250,56.1687353
0.67300,61.05184582
0.67350,61.66223464
0.67400,61.66223464
0.67450,54.33756885
0.67500,34.49993235
0.67550,10.38957414
0.67600,-5.480535058
0.67650,-11.88961762
0.67700,-15.2467561
0.67750,-17.99350577
0.67800,-14.33117288
0.67850,-3.344174205
0.67900,5.201269211
0.67950,4.590880396
0.68000,-1.818202166
0.68050,-3.649368612
0.68100,5.506463619
0.68150,22.29215604
0.68200,35.41551557
0.68250,35.72070998
0.68300,23.20773927
0.68350,7.032435657
0.68400,-2.733785389
0.68450,-2.733785389
0.68500,6.116852434
0.68550,23.81812808
0.68600,47.62329188
0.68650,69.59728924
0.68700,81.19467673
0.68750,84.85700962
0.68800,90.35050896
0.68850,99.8115356
0.68900,102.2530909
0.68950,90.04531455
0.69000,70.81806687
0.69050,54.64276326
0.69100,37.24668202
0.69150,7.642824473
0.69200,-27.45453241
0.69250,-46.98697451
0.69300,-43.93503043
0.69350,-37.22075346
0.69400,-43.01944721
0.69450,-51.25969621
0.69500,-42.10386398
0.69550,-17.68831137
0.69600,-2.123396574
0.69650,-8.227284728
0.69700,-24.70778274
0.69750,-35.99997583
0.69800,-42.7142528
0.69850,-54.31164029
0.69900,-69.57136068
0.69950,-79.03238731
0.70000,-78.72719291
0.70050,-74.4544712
0.70100,-71.40252712
0.70150,-66.82461101
0.70200,-58.27916759
0.70250,-49.42852977
0.70300,-45.76619688
0.70350,-45.76619688
0.70400,-45.46100247
0.70450,-42.7142528
0.70500,-38.13633668
0.70550,-31.11686531
0.70600,-22.26622748
0.70650,-13.72078407
0.70700,-8.837673543
0.70750,-6.396118282
0.70800,-4.564951835
0.70850,-5.175340651
0.70900,-13.72078407
0.70950,-28.06492123
0.71000,-39.66230872
0.71050,-44.24022484
0.71100,-44.54541924
0.71150,-44.85061365
0.71200,-43.93503043
0.71250,-39.35711431
0.71300,-33.55842057
0.71350,-29.28569886
0.71400,-25.92856037
0.71450,-21.96103307
0.71500,-20.12986663
0.71550,-24.09739393
0.71600,-31.42205971
0.71650,-36.61036464
0.71700,-37.52594787
0.71750,-37.83114227
0.71800,-38.7467255
0.71850,-39.05191991
0.71900,-38.7467255
0.71950,-38.7467255
0.72000,-35.99997583
0.72050,-25.92856037
0.72100,-10.66883999
0.72150,-0.9026189429
0.72200,-0.5974245352
0.72250,-3.344174205
0.72300,0.3181586879
0.72350,8.863602104
0.72400,13.13632381
0.72450,8.253213288
0.72500,0.3181586879
0.72550,-3.649368612
0.72600,-1.513007758
0.72650,3.370102765
0.72700,7.94801888
0.72750,11.30515737
0.72800,12.22074059
0.72850,10.99996296
0.72900,8.863602104
0.72950,7.642824473
0.73000,7.94801888
0.73050,8.558407696
0.73100,10.38957414
0.73150,14.05190703
0.73200,17.71423993
0.73250,17.71423993
0.73300,13.44151822
0.73350,8.253213288
0.73400,6.422046842
0.73450,6.72724125
0.73500,7.642824473
0.73550,8.863602104
0.73600,11.30515737
0.73650,12.525935
0.73700,8.558407696
0.73750,0.3181586879
0.73800,-6.396118282
0.73850,-6.701312689
0.73900,-3.649368612
0.73950,-3.038979797
0.74000,-5.785729466
0.74050,-7.006507097
0.74100,-3.95456302
0.74150,0.01296428019
0.74200,1.844130726
0.74250,3.98049158
0.74300,9.168796511
0.74350,18.32462874
0.74400,27.48046097
0.74450,29.31162742
0.74500,17.71423993
0.74550,-7.311701505
0.74600,-35.99997583
0.74650,-53.70125148
0.74700,-52.17527944
0.74750,-37.83114227
0.74800,-21.96103307
0.74850,-10.66883999
0.74900,-2.733785389
0.74950,3.370102765
0.75000,7.94801888
0.75050,12.22074059
0.75100,21.68176723
0.75150,38.46745965
0.75200,58.61029056
0.75250,74.17520535
0.75300,79.66870469
0.75350,73.25962213
0.75400,55.55834648
0.75450,32.05837709
0.75500,11.61035177
0.75550,0.6233530956
0.75600,-1.513007758
0.75650,1.233741911
0.75700,9.779185327
0.75750,25.34410012
0.75800,45.79212544
0.75850,63.18820667
0.75900,71.73365009
0.75950,71.42845568
0.76000,64.71417871
0.76050,54.33756885
0.76100,41.51940373
0.76150,28.09084979
0.76200,14.35710144
0.76250,0.6233530956
0.76300,-13.11039525
0.76350,-27.14933801
0.76400,-41.79866957
0.76450,-55.22722351
0.76500,-61.33111167
0.76550,-54.00644588
0.76600,-32.94803175
0.76650,-5.785729466
0.76700,19.54540637
0.76750,40.2986261
0.76800,55.55834648
0.76850,64.71417871
0.76900,68.0713172
0.76950,67.15573397
0.77000,61.96742904
0.77050,51.28562477
0.77100,36.02590439
0.77150,18.93501756
0.77200,1.233741911
0.77250,-18.60389459
0.77300,-42.40905839
0.77350,-64.07786134
0.77400,-75.06486001
0.77450,-72.92849916
0.77500,-64.99344456
0.77550,-59.80513963
0.77600,-60.41552844
0.77650,-63.16227811
0.77700,-64.07786134
0.77750,-61.33111167
0.77800,-55.22722351
0.77850,-48.81814095
0.77900,-45.46100247
0.77950,-46.37658569
0.78000,-48.81814095
0.78050,-47.59736332
0.78100,-43.01944721
0.78150,-37.83114227
0.78200,-33.86361497
0.78250,-30.20128208
0.78300,-25.31817156
0.78350,-19.51947781
0.78400,-12.80520084
0.78450,-4.870146243
0.78500,2.149325134
0.78550,6.422046842
0.78600,7.642824473
0.78650,10.99996296
0.78700,17.40904552
0.78750,20.4609896
0.78800,12.525935
0.78850,-4.564951835
0.78900,-20.74025544
0.78950,-30.20128208
0.79000,-36.91555905
0.79050,-46.6817801
0.79100,-57.97397318
0.79150,-64.38305574
0.79200,-62.24669489
0.79250,-54.31164029
0.79300,-46.37658569
0.79350,-41.79866957
0.79400,-38.13633668
0.79450,-29.59089327
0.79500,-14.33117288
0.79550,-0.5974245352
0.79600,3.370102765
0.79650,-0.2922301275
0.79700,-2.428590981
0.79750,1.233741911
0.79800,3.98049158
0.79850,-0.2922301275
0.79900,-7.616895912
0.79950,-10.36364558
0.80000,-10.05845117
0.80050,-16.16233933
0.80100,-31.42205971
0.80150,-48.51294654
0.80200,-57.36358437
0.80250,-56.14280674
0.80300,-49.73372418
0.80350,-42.40905839
0.80400,-36.30517024
0.80450,-29.89608767
0.80500,-22.26622748
0.80550,-14.02597847
0.80600,-4.564951835
0.80650,8.253213288
0.80700,27.48046097
0.80750,47.62329188
0.80800,58.91548497
0.80850,58.30509615
0.80900,52.201208
0.80950,47.92848629
0.81000,46.09731984
0.81050,46.40251425
0.81100,52.5064024
0.81150,65.93495634
0.81200,78.75312147
0.81250,78.75312147
0.81300,65.93495634
0.81350,49.45445833
0.81400,34.49993235
0.81450,18.62982315
0.81500,2.454519542
0.81550,-6.396118282
0.81600,-5.480535058
0.81650,-2.733785389
0.81700,-4.564951835
0.81750,-4.870146243
0.81800,6.116852434
0.81850,27.48046097
0.81900,47.31809747
0.81950,57.99990174
0.82000,62.57781786
0.82050,65.01937312
0.82100,65.62976194
0.82150,62.88301227
0.82200,57.08431852
0.82250,48.2336807
0.82300,36.02590439
0.82350,23.20773927
0.82400,13.13632381
0.82450,7.337630065
0.82500,5.201269211
0.82550,6.116852434
0.82600,9.473990919
0.82650,12.22074059
0.82700,11.61035177
0.82750,8.863602104
0.82800,8.253213288
0.82850,10.38957414
0.82900,14.35710144
0.82950,17.10385111
0.83000,17.10385111
0.83050,14.66229585
0.83100,10.69476855
0.83150,5.201269211
0.83200,-4.259757428
0.83250,-20.12986663
0.83300,-36.61036464
0.83350,-42.40905839
0.83400,-32.33764294
0.83450,-14.33117288
0.83500,-1.513007758
0.83550,3.064908357
0.83600,6.422046842
0.83650,12.22074059
0.83700,16.7986567
0.83750,19.54540637
0.83800,25.64929453
0.83850,40.6038205
0.83900,59.52587378
0.83950,71.73365009
0.84000,72.64923331
0.84050,66.85053957
0.84100,59.22067937
0.84150,50.06484714
0.84200,36.94148761
0.84250,22.59735045
0.84300,11.61035177
0.84350,4.896074803
0.84400,-1.513007758
0.84450,-11.2792288
0.84500,-21.96103307
0.84550,-29.59089327
0.84600,-35.38958701
0.84650,-43.32464161
0.84700,-53.39605707
0.84750,-61.02591726
0.84800,-61.63630608
0.84850,-56.75319555
0.84900,-52.48047384
0.84950,-52.17527944
0.85000,-52.78566825
0.85050,-50.6493074
0.85100,-44.85061365
0.85150,-36.91555905
0.85200,-27.14933801
0.85250,-17.38311696
0.85300,-8.532479135
0.85350,0.3181586879
0.85400,10.08437973
0.85450,19.24021197
0.85500,22.59735045
0.85550,18.62982315
0.85600,10.08437973
0.85650,0.3181586879
0.85700,-10.9740344
0.85750,-20.74025544
0.85800,-22.26622748
0.85850,-14.33117288
0.85900,-6.396118282
0.85950,-6.396118282
0.86000,-8.227284728
0.86050,-3.038979797
0.86100,7.337630065
0.86150,11.61035177
0.86200,6.72724125
0.86250,0.9285475033
0.86300,0.01296428019
0.86350,-1.818202166
0.86400,-8.532479135
0.86450,-16.16233933
0.86500,-18.909089
0.86550,-17.99350577
0.86600,-18.60389459
0.86650,-18.60389459
0.86700,-13.11039525
0.86750,-2.123396574
0.86800,6.422046842
0.86850,4.285685988
0.86900,-7.92209032
0.86950,-21.96103307
0.87000,-28.98050445
0.87050,-29.59089327
0.87100,-32.33764294
0.87150,-41.79866957
0.87200,-53.70125148
0.87250,-61.02591726
0.87300,-62.5518893
0.87350,-60.72072285
0.87400,-51.87008503
0.87450,-30.8116709
0.87500,0.3181586879
0.87550,26.87007216
0.87600,39.07784847
0.87650,38.46745965
0.87700,35.11032117
0.87750,35.41551557
0.87800,38.77265406
0.87850,41.82459814
0.87900,43.04537577
0.87950,41.21420932
0.88000,36.94148761
0.88050,34.49993235
0.88100,39.68823728
0.88150,55.55834648
0.88200,77.53234384
0.88250,95.8440083
0.88300,104.6946461
0.88350,102.5582853
0.88400,93.40245304
0.88450,81.49987114
0.88500,67.76612279
0.88550,52.5064024
0.88600,36.94148761
0.88650,24.12332249
0.88700,15.88307348
0.88750,12.22074059
0.88800,10.08437973
0.88850,7.94801888
0.88900,5.201269211
0.88950,2.149325134
0.89000,1.538936319
0.89050,5.811658027
0.89100,14.35710144
0.89150,23.81812808
0.89200,30.53240505
0.89250,34.49993235
0.89300,36.3310988
0.89350,35.41551557
0.89400,31.14279387
0.89450,24.4285169
0.89500,20.4609896
0.89550,20.766184
0.89600,24.12332249
0.89650,26.87007216
0.89700,26.87007216
0.89750,25.03890571
0.89800,22.90254486
0.89850,22.59735045
0.89900,25.03890571
0.89950,28.7012386
0.90000,29.31162742
0.90050,24.4285169
0.90100,18.01943433
0.90150,14.35710144
0.90200,12.8311294
0.90250,10.69476855
0.90300,6.422046842
0.90350,1.844130726
0.90400,-0.9026189429
0.90450,-1.207813351
0.90500,0.6233530956
0.90550,3.675297173
0.90600,4.896074803
0.90650,3.370102765
0.90700,0.6233530956
0.90750,0.3181586879
0.90800,1.538936319
0.90850,2.149325134
0.90900,0.9285475033
0.90950,0.3181586879
0.91000,0.3181586879
0.91050,2.454519542
0.91100,4.285685988
0.91150,5.201269211
0.91200,2.75971395
0.91250,-3.649368612
0.91300,-12.50000644
0.91350,-17.68831137
0.91400,-17.38311696
0.91450,-15.2467561
0.91500,-14.02597847
0.91550,-14.33117288
0.91600,-15.2467561
0.91650,-19.21428341
0.91700,-28.37011564
0.91750,-39.96750313
0.91800,-49.42852977
0.91850,-53.70125148
0.91900,-53.39605707
0.91950,-50.6493074
0.92000,-48.51294654
0.92050,-48.20775214
0.92100,-48.20775214
0.92150,-42.40905839
0.92200,-28.06492123
0.92250,-6.701312689
0.92300,14.35710144
0.92350,29.92201623
0.92400,37.55187643
0.92450,37.85707084
0.92500,33.88954354
0.92550,29.31162742
0.92600,28.3960442
0.92650,31.14279387
0.92700,33.88954354
0.92750,29.61682183
0.92800,16.18826789
0.92850,-2.123396574
0.92900,-19.51947781
0.92950,-32.94803175
0.93000,-43.32464161
0.93050,-48.81814095
0.93100,-43.93503043
0.93150,-30.20128208
0.93200,-18.29870018
0.93250,-16.77272814
0.93300,-18.909089
0.93350,-13.41558966
0.93400,-1.207813351
0.93450,7.337630065
0.93500,9.779185327
0.93550,14.05190703
0.93600,24.12332249
0.93650,32.6687659
0.93700,32.97396031
0.93750,28.09084979
0.93800,27.17526657
0.93850,34.19473794
0.93900,46.70770866
0.93950,60.74665141
0.94000,71.73365009
0.94050,74.78559417
0.94100,68.98690042
0.94150,59.52587378
0.94200,50.37004155
0.94250,39.99343169
0.94300,27.17526657
0.94350,16.4934623
0.94400,11.61035177
0.94450,9.779185327
0.94500,3.675297173
0.94550,-8.227284728
0.94600,-20.74025544
0.94650,-27.45453241
0.94700,-27.14933801
0.94750,-21.65583867
0.94800,-14.33117288
0.94850,-10.36364558
0.94900,-14.33117288
0.94950,-26.53894919
0.95000,-40.57789194
0.95050,-49.73372418
0.95100,-51.25969621
0.95150,-49.42852977
0.95200,-50.34411299
0.95250,-54.31164029
0.95300,-57.05838996
0.95350,-54.00644588
0.95400,-46.98697451
0.95450,-38.44153109
0.95500,-28.37011564
0.95550,-15.2467561
0.95600,0.3181586879
0.95650,11.30515737
0.95700,14.96749026
0.95750,13.44151822
0.95800,13.13632381
0.95850,16.7986567
0.95900,22.90254486
0.95950,27.78565538
0.96000,29.61682183
0.96050,29.31162742
0.96100,28.7012386
0.96150,28.3960442
0.96200,28.3960442
0.96250,27.17526657
0.96300,23.51293367
0.96350,17.40904552
0.96400,12.22074059
0.96450,11.30515737
0.96500,16.18826789
0.96550,25.64929453
0.96600,35.41551557
0.96650,43.04537577
0.96700,48.2336807
0.96750,51.59081918
0.96800,51.89601359
0.96850,48.2336807
0.96900,43.04537577
0.96950,39.07784847
0.97000,36.02590439
0.97050,32.05837709
0.97100,27.17526657
0.97150,22.90254486
0.97200,18.32462874
0.97250,10.69476855
0.97300,0.01296428019
0.97350,-10.36364558
0.97400,-18.909089
0.97450,-27.75972682
0.97500,-39.05191991
0.97550,-48.81814095
0.97600,-53.09086266
0.97650,-55.22722351
0.97700,-61.33111167
0.97750,-72.31811035
0.97800,-80.55835935
0.97850,-79.33758172
0.97900,-68.96097186
0.97950,-54.00644588
0.98000,-39.05191991
0.98050,-28.06492123
0.98100,-23.79219952
0.98150,-28.98050445
0.98200,-41.49347517
0.98250,-55.53241792
0.98300,-65.90902778
0.98350,-70.79213831
0.98400,-70.79213831
0.98450,-67.43499982
0.98500,-61.02591726
0.98550,-51.25969621
0.98600,-39.96750313
0.98650,-31.42205971
0.98700,-28.37011564
0.98750,-31.11686531
0.98800,-35.38958701
0.98850,-36.91555905
0.98900,-33.25322616
0.98950,-26.53894919
0.99000,-21.04544985
0.99050,-18.60389459
0.99100,-15.2467561
0.99150,-5.480535058
0.99200,10.69476855
0.99250,25.34410012
0.99300,28.3960442
0.99350,19.85060078
0.99400,8.558407696
0.99450,0.9285475033
0.99500,-4.259757428
0.99550,-12.80520084
0.99600,-22.57142189
0.99650,-27.14933801
0.99700,-26.23375478
0.99750,-27.14933801
0.99800,-32.33764294
0.99850,-32.33764294
0.99900,-14.63636729
0.99950,16.7986567
1.00000,45.79212544
1.00050,61.35704023
1.00100,66.24015075
1.00150,66.24015075
1.00200,60.74665141
1.00250,49.14926392
1.00300,39.68823728
1.00350,36.94148761
1.00400,32.3635715
1.00450,18.01943433
1.00500,0.6233530956
1.00550,-4.564951835
1.00600,2.149325134
1.00650,7.337630065
1.00700,0.9285475033
1.00750,-10.05845117
1.00800,-15.85714492
1.00850,-14.02597847
1.00900,-9.448062359
1.00950,-4.564951835
1.01000,-0.2922301275
1.01050,1.844130726
1.01100,4.896074803
1.01150,11.91554618
1.01200,21.07137841
1.01250,26.56487775
1.01300,26.25968334
1.01350,25.64929453
1.01400,26.56487775
1.01450,23.51293367
1.01500,12.8311294
1.01550,0.3181586879
1.01600,-4.564951835
1.01650,-3.649368612
1.01700,-2.123396574
1.01750,-1.513007758
1.01800,0.3181586879
1.01850,2.454519542
1.01900,4.590880396
1.01950,8.863602104
1.02000,20.15579519
1.02050,36.94148761
1.02100,50.67523596
1.02150,57.08431852
1.02200,57.08431852
1.02250,54.64276326
1.02300,51.28562477
1.02350,46.70770866
1.02400,39.38304287
1.02450,27.48046097
1.02500,10.99996296
1.02550,-5.480535058
1.02600,-17.68831137
1.02650,-25.01297715
1.02700,-30.8116709
1.02750,-35.99997583
1.02800,-37.22075346
1.02850,-31.72725412
1.02900,-21.04544985
1.02950,-9.753256766
1.03000,-0.5974245352
1.03050,4.896074803
1.03100,8.558407696
1.03150,9.473990919
1.03200,8.558407696
1.03250,6.116852434
1.03300,3.370102765
1.03350,-0.5974245352
1.03400,-7.92209032
1.03450,-18.60389459
1.03500,-33.86361497
1.03550,-52.78566825
1.03600,-72.01291594
1.03650,-84.52588665
1.03700,-87.88302514
1.03750,-85.74666428
1.03800,-84.22069225
1.03850,-82.3895258
1.03900,-75.37005442
1.03950,-63.77266693
1.04000,-54.6168347
1.04050,-51.87008503
1.04100,-49.42852977
1.04150,-40.57789194
1.04200,-27.45453241
1.04250,-17.99350577
1.04300,-16.16233933
1.04350,-20.74025544
1.04400,-26.53894919
1.04450,-28.06492123
1.04500,-21.04544985
1.04550,-7.006507097
1.04600,5.506463619
1.04650,10.38957414
1.04700,7.94801888
1.04750,4.896074803
1.04800,5.811658027
1.04850,11.91554618
1.04900,22.29215604
1.04950,33.88954354
1.05000,40.90901491
1.05050,39.99343169
1.05100,34.19473794
1.05150,30.53240505
1.05200,34.19473794
1.05250,44.5713478
1.05300,55.25315207
1.05350,59.22067937
1.05400,52.81159681
1.05450,41.51940373
1.05500,36.6362932
1.05550,41.51940373
1.05600,48.5388751
1.05650,49.75965274
1.05700,45.48693103
1.05750,40.90901491
1.05800,37.24668202
1.05850,30.53240505
1.05900,21.37657282
1.05950,13.74671263
1.06000,8.558407696
1.06050,1.844130726
1.06100,-7.311701505
1.06150,-14.63636729
1.06200,-16.16233933
1.06250,-15.2467561
1.06300,-19.51947781
1.06350,-31.11686531
1.06400,-46.37658569
1.06450,-59.80513963
1.06500,-68.96097186
1.06550,-72.92849916
1.06600,-72.31811035
1.06650,-66.82461101
1.06700,-57.36358437
1.06750,-47.59736332
1.06800,-43.01944721
1.06850,-42.7142528
1.06900,-37.22075346
1.06950,-16.46753374
1.07000,14.05190703
1.07050,41.21420932
1.07100,57.69470734
1.07150,68.68170601
1.07200,80.88948232
1.07250,88.82453692
1.07300,86.99337048
1.07350,79.66870469
1.07400,77.22714943
1.07450,81.19467673
1.07500,84.55181521
1.07550,82.11025995
1.07600,76.61676061
1.07650,70.81806687
1.07700,63.79859549
1.07750,56.1687353
1.07800,49.75965274
1.07850,43.04537577
1.07900,35.72070998
1.07950,32.05837709
1.08000,36.6362932
1.08050,42.74018136
1.08100,39.38304287
1.08150,23.20773927
1.08200,3.370102765
1.08250,-11.58442321
1.08300,-25.31817156
1.08350,-40.27269754
1.08400,-51.56489062
1.08450,-50.34411299
1.08500,-36.61036464
1.08550,-22.26622748
1.08600,-15.85714492
1.08650,-14.9415617
1.08700,-9.448062359
1.08750,5.811658027
1.08800,25.95448893
1.08850,41.51940373
1.08900,47.31809747
1.08950,43.96095899
1.09000,32.97396031
1.09050,15.57787907
1.09100,-3.038979797
1.09150,-16.77272814
1.09200,-25.01297715
1.09250,-31.11686531
1.09300,-38.44153109
1.09350,-46.6817801
1.09400,-55.83761233
1.09450,-66.21422219
1.09500,-74.4544712
1.09550,-75.37005442
1.09600,-70.79213831
1.09650,-68.04538864
1.09700,-70.18174949
1.09750,-72.62330475
1.09800,-70.4869439
1.09850,-65.60383338
1.09900,-59.49994522
1.09950,-49.42852977
1.10000,-38.7467255
1.10050,-37.22075346
1.10100,-47.29216891
1.10150,-54.6168347
1.10200,-46.07139128
1.10250,-27.75972682
1.10300,-17.07792255
1.10350,-18.60389459
1.10400,-21.96103307
1.10450,-19.21428341
1.10500,-11.88961762
1.10550,-2.733785389
1.10600,8.863602104
1.10650,21.07137841
1.10700,27.78565538
1.10750,27.48046097
1.10800,27.17526657
1.10850,33.27915472
1.10900,41.82459814
1.10950,45.79212544
1.11000,41.82459814
1.11050,31.75318268
1.11100,15.27268467
1.11150,-5.785729466
1.11200,-26.23375478
1.11250,-40.27269754
1.11300,-47.59736332
1.11350,-53.39605707
1.11400,-58.584362
1.11450,-58.27916759
1.11500,-46.6817801
1.11550,-26.23375478
1.11600,-7.311701505
1.11650,1.233741911
1.11700,0.6233530956
1.11750,-1.818202166
1.11800,-0.9026189429
1.11850,0.01296428019
1.11900,-1.818202166
1.11950,-3.344174205
1.12000,1.538936319
1.12050,12.22074059
1.12100,20.4609896
1.12150,22.59735045
1.12200,22.29215604
1.12250,22.90254486
1.12300,22.59735045
1.12350,18.01943433
1.12400,9.779185327
1.12450,0.3181586879
1.12500,-8.227284728
1.12550,-13.41558966
1.12600,-11.2792288
1.12650,-3.95456302
1.12700,0.3181586879
1.12750,-2.733785389
1.12800,-6.701312689
1.12850,-2.733785389
1.12900,4.896074803
1.12950,3.98049158
1.13000,-8.532479135
1.13050,-25.01297715
1.13100,-36.91555905
1.13150,-42.10386398
1.13200,-41.79866957
1.13250,-33.25322616
1.13300,-16.16233933
1.13350,-0.5974245352
1.13400,3.675297173
1.13450,-1.818202166
1.13500,-8.227284728
1.13550,-8.532479135
1.13600,-4.870146243
1.13650,-1.818202166
1.13700,-2.123396574
1.13750,-6.090923874
1.13800,-15.85714492
1.13850,-30.50647649
1.13900,-42.7142528
1.13950,-44.24022484
1.14000,-32.03244853
1.14050,-13.72078407
1.14100,0.3181586879
1.14150,7.032435657
1.14200,9.168796511
1.14250,12.8311294
1.14300,19.85060078
1.14350,28.09084979
1.14400,33.27915472
1.14450,34.19473794
1.14500,32.6687659
1.14550,31.44798827
1.14600,32.05837709
1.14650,34.19473794
1.14700,38.77265406
1.14750,45.18173662
1.14800,50.67523596
1.14850,52.5064024
1.14900,52.201208
1.14950,52.5064024
1.15000,52.5064024
1.15050,47.01290307
1.15100,34.80512676
1.15150,23.81812808
1.15200,20.766184
1.15250,24.7337113
1.15300,29.31162742
1.15350,30.53240505
1.15400,28.09084979
1.15450,21.37657282
1.15500,10.38957414
1.15550,-0.5974245352
1.15600,-7.616895912
1.15650,-7.616895912
1.15700,-3.038979797
1.15750,1.233741911
1.15800,2.149325134
1.15850,0.6233530956
1.15900,0.9285475033
1.15950,3.370102765
1.16000,2.454519542
1.16050,-3.95456302
1.16100,-10.66883999
1.16150,-9.448062359
1.16200,-5.175340651
1.16250,-8.532479135
1.16300,-21.65583867
1.16350,-34.47400379
1.16400,-40.88308635
1.16450,-46.37658569
1.16500,-55.22722351
1.16550,-60.72072285
1.16600,-53.39605707
1.16650,-34.47400379
1.16700,-9.448062359
1.16750,20.15579519
1.16800,54.33756885
1.16850,85.77259284
1.16900,103.4738685
1.16950,106.831007
1.17000,101.3375076
1.17050,90.65570337
1.17100,77.83753824
1.17150,66.24015075
1.17200,56.77912411
1.17250,43.96095899
1.17300,22.90254486
1.17350,-1.207813351
1.17400,-17.68831137
1.17450,-23.48700511
1.17500,-24.40258834
1.17550,-25.62336597
1.17600,-26.53894919
1.17650,-26.53894919
1.17700,-22.57142189
1.17750,-11.2792288
1.17800,5.506463619
1.17850,18.01943433
1.17900,15.88307348
1.17950,3.064908357
1.18000,-7.92209032
1.18050,-13.41558966
1.18100,-18.909089
1.18150,-24.40258834
1.18200,-21.35064426
1.18250,-7.616895912
1.18300,7.337630065
1.18350,14.05190703
1.18400,14.35710144
1.18450,16.18826789
1.18500,19.24021197
1.18550,17.40904552
1.18600,8.558407696
1.18650,-2.123396574
1.18700,-9.753256766
1.18750,-14.63636729
1.18800,-21.65583867
1.18850,-32.64283734
1.18900,-43.62983602
1.18950,-48.51294654
1.19000,-48.81814095
1.19050,-50.34411299
1.19100,-57.05838996
1.19150,-62.85708371
1.19200,-62.24669489
1.19250,-58.27916759
1.19300,-55.53241792
1.19350,-51.87008503
1.19400,-40.57789194
1.19450,-19.82467222
1.19500,3.675297173
1.19550,26.25968334
1.19600,45.18173662
1.19650,58.30509615
1.19700,64.71417871
1.19750,73.25962213
1.19800,92.79206422
1.19850,118.7335889
1.19900,134.9088925
1.19950,133.077726
1.20000,123.0063106
1.20050,117.5128112
1.20100,116.2920336
1.20150,112.0193119
1.20200,105.9154238
1.20250,103.1686741
1.20300,100.7271188
1.20350,89.74012014
1.20400,69.29209483
1.20450,51.59081918
1.20500,44.5713478
1.20550,39.99343169
1.20600,29.61682183
1.20650,16.18826789
1.20700,8.863602104
1.20750,4.896074803
1.20800,-4.870146243
1.20850,-19.82467222
1.20900,-26.23375478
1.20950,-19.51947781
1.21000,-12.50000644
1.21050,-16.46753374
1.21100,-24.70778274
1.21150,-25.62336597
1.21200,-22.26622748
1.21250,-26.23375478
1.21300,-36.61036464
1.21350,-39.96750313
1.21400,-32.03244853
1.21450,-25.62336597
1.21500,-30.20128208
1.21550,-38.13633668
1.21600,-37.22075346
1.21650,-26.8441436
1.21700,-15.85714492
1.21750,-10.05845117
1.21800,-8.837673543
1.21850,-11.88961762
1.21900,-18.60389459
1.21950,-26.53894919
1.22000,-32.64283734
1.22050,-37.52594787
1.22100,-45.15580806
1.22150,-54.6168347
1.22200,-62.24669489
1.22250,-67.43499982
1.22300,-72.01291594
1.22350,-75.67524883
1.22400,-74.14927679
1.22450,-67.12980541
1.22500,-61.94150048
1.22550,-66.21422219
1.22600,-74.75966561
1.22650,-77.20122087
1.22700,-71.70772153
1.22750,-66.5194166
1.22800,-66.21422219
1.22850,-65.60383338
1.22900,-60.72072285
1.22950,-56.44800114
1.23000,-56.44800114
1.23050,-54.6168347
1.23100,-43.62983602
1.23150,-28.67531004
1.23200,-22.57142189
1.23250,-25.92856037
1.23300,-26.53894919
1.23350,-18.909089
1.23400,-9.142867951
1.23450,-0.5974245352
1.23500,12.8311294
1.23550,33.88954354
1.23600,51.28562477
1.23650,53.72718004
1.23700,46.09731984
1.23750,42.74018136
1.23800,50.98043037
1.23850,63.79859549
1.23900,73.56481654
1.23950,76.31156621
1.24000,71.73365009
1.24050,58.91548497
1.24100,38.77265406
1.24150,15.57787907
1.24200,-5.480535058
1.24250,-19.51947781
1.24300,-25.01297715
1.24350,-24.70778274
1.24400,-21.35064426
1.24450,-15.85714492
1.24500,-9.448062359
1.24550,-6.090923874
1.24600,-9.448062359
1.24650,-15.55195051
1.24700,-17.07792255
1.24750,-11.58442321
1.24800,-2.123396574
1.24850,6.116852434
1.24900,12.8311294
1.24950,17.71423993
1.25000,22.59735045
1.25050,32.05837709
1.25100,47.92848629
1.25150,63.79859549
1.25200,69.90248364
1.25250,64.1037899
1.25300,53.11679122
1.25350,42.74018136
1.25400,33.58434913
1.25450,27.78565538
1.25500,28.09084979
1.25550,31.14279387
1.25600,31.75318268
1.25650,32.6687659
1.25700,43.04537577
1.25750,63.49340108
1.25800,82.11025995
1.25850,87.9089537
1.25900,81.49987114
1.25950,67.15573397
1.26000,45.79212544
1.26050,17.40904552
1.26100,-9.753256766
1.26150,-25.62336597
1.26200,-28.67531004
1.26250,-27.45453241
1.26300,-28.06492123
1.26350,-27.75972682
1.26400,-18.60389459
1.26450,3.064908357
1.26500,30.83759946
1.26550,54.33756885
1.26600,68.37651161
1.26650,76.31156621
1.26700,81.19467673
1.26750,78.14273265
1.26800,63.79859549
1.26850,45.79212544
1.26900,35.41551557
1.26950,33.88954354
1.27000,31.44798827
1.27050,20.766184
1.27100,4.285685988
1.27150,-14.63636729
1.27200,-39.66230872
1.27250,-73.84408238
1.27300,-110.4674113
1.27350,-137.3245192
1.27400,-146.4803514
1.27450,-141.5972409
1.27500,-131.220631
1.27550,-118.7076603
1.27600,-102.5323567
1.27650,-82.3895258
1.27700,-64.38305574
1.27750,-55.53241792
1.27800,-55.83761233
1.27850,-58.27916759
1.27900,-57.05838996
1.27950,-53.70125148
1.28000,-50.6493074
1.28050,-44.85061365
1.28100,-35.38958701
1.28150,-28.37011564
1.28200,-34.16880938
1.28250,-53.39605707
1.28300,-77.20122087
1.28350,-94.90249651
1.28400,-104.0583287
1.28450,-107.4154672
1.28500,-107.7206616
1.28550,-104.0583287
1.28600,-93.07133007
1.28650,-74.75966561
1.28700,-56.14280674
1.28750,-43.93503043
1.28800,-36.30517024
1.28850,-24.40258834
1.28900,-6.396118282
1.28950,7.337630065
1.29000,10.08437973
1.29050,6.422046842
1.29100,5.201269211
1.29150,4.285685988
1.29200,0.6233530956
1.29250,0.3181586879
1.29300,10.38957414
1.29350,28.7012386
1.29400,44.5713478
1.29450,56.77912411
1.29500,70.81806687
1.29550,82.72064877
1.29600,82.41545436
1.29650,70.51287246
1.29700,60.44145701
1.29750,58.91548497
1.29800,59.52587378
1.29850,56.1687353
1.29900,49.75965274
1.29950,38.46745965
1.30000,16.4934623
1.30050,-11.88961762
1.30100,-33.25322616
1.30150,-43.01944721
1.30200,-53.39605707
1.30250,-72.01291594
1.30300,-91.24016362
1.30350,-100.7011903
1.30400,-104.0583287
1.30450,-107.7206616
1.30500,-106.8050784
1.30550,-93.98691329
1.30600,-75.98044324
1.30650,-62.5518893
1.30700,-53.09086266
1.30750,-42.10386398
1.30800,-34.47400379
1.30850,-35.99997583
1.30900,-42.10386398
1.30950,-43.32464161
1.31000,-40.57789194
1.31050,-37.22075346
1.31100,-28.67531004
1.31150,-9.142867951
1.31200,12.8311294
1.31250,23.51293367
1.31300,23.20773927
1.31350,24.4285169
1.31400,27.17526657
1.31450,20.766184
1.31500,4.896074803
1.31550,-5.785729466
1.31600,-4.870146243
1.31650,-2.733785389
1.31700,-8.532479135
1.31750,-17.07792255
1.31800,-21.04544985
1.31850,-22.26622748
1.31900,-24.70778274
1.31950,-26.53894919
1.32000,-24.70778274
1.32050,-20.12986663
1.32100,-15.2467561
1.32150,-7.616895912
1.32200,2.454519542
1.32250,10.99996296
1.32300,10.69476855
1.32350,-3.344174205
1.32400,-32.03244853
1.32450,-67.12980541
1.32500,-93.07133007
1.32550,-100.3959959
1.32600,-97.34405178
1.32650,-102.5323567
1.32700,-122.0647988
1.32750,-144.0387962
1.32800,-153.8050172
1.32850,-148.0063235
1.32900,-129.3894646
1.32950,-100.7011903
1.33000,-65.60383338
1.33050,-29.59089327
1.33100,4.896074803
1.33150,39.99343169
1.33200,74.17520535
1.33250,102.5582853
1.33300,123.311505
1.33350,141.317975
1.33400,157.1880842
1.33450,164.51275
1.33500,157.4932787
1.33550,138.5712254
1.33600,114.1556728
1.33650,88.51934251
1.33700,62.27262345
1.33750,38.16226524
1.33800,18.62982315
1.33850,2.149325134
1.33900,-12.50000644
1.33950,-25.62336597
1.34000,-36.30517024
1.34050,-42.40905839
1.34100,-43.62983602
1.34150,-40.57789194
1.34200,-39.35711431
1.34250,-45.46100247
1.34300,-59.19475081
1.34350,-74.4544712
1.34400,-86.3570531
1.34450,-94.2921077
1.34500,-97.34405178
1.34550,-90.93496921
1.34600,-73.53888798
1.34650,-52.48047384
1.34700,-37.52594787
1.34750,-31.11686531
1.34800,-28.06492123
1.34850,-22.57142189
1.34900,-11.88961762
1.34950,4.285685988
1.35000,24.4285169
1.35050,39.07784847
1.35100,40.90901491
1.35150,33.27915472
1.35200,29.31162742
1.35250,34.49993235
1.35300,42.43498695
1.35350,43.35057017
1.35400,39.38304287
1.35450,39.07784847
1.35500,45.18173662
1.35550,50.67523596
1.35600,50.37004155
1.35650,46.40251425
1.35700,43.35057017
1.35750,42.74018136
1.35800,43.04537577
1.35850,43.96095899
1.35900,43.65576458
1.35950,40.6038205
1.36000,36.94148761
1.36050,38.77265406
1.36100,47.62329188
1.36150,56.77912411
1.36200,60.44145701
1.36250,60.1362626
1.36300,58.61029056
1.36350,53.42198563
1.36400,39.99343169
1.36450,22.59735045
1.36500,8.253213288
1.36550,-0.9026189429
1.36600,-6.701312689
1.36650,-6.090923874
1.36700,4.590880396
1.36750,18.32462874
1.36800,22.59735045
1.36850,18.32462874
1.36900,18.32462874
1.36950,28.3960442
1.37000,37.55187643
1.37050,33.88954354
1.37100,20.766184
1.37150,8.253213288
1.37200,-2.123396574
1.37250,-15.85714492
1.37300,-35.38958701
1.37350,-56.75319555
1.37400,-75.67524883
1.37450,-88.79860836
1.37500,-93.68171888
1.37550,-92.46094125
1.37600,-87.57783073
1.37650,-79.94797054
1.37700,-68.65577745
1.37750,-56.75319555
1.37800,-49.12333536
1.37850,-42.10386398
1.37900,-27.45453241
1.37950,-3.95456302
1.38000,20.15579519
1.38050,41.21420932
1.38100,61.05184582
1.38150,77.83753824
1.38200,86.38298166
1.38250,88.51934251
1.38300,92.79206422
1.38350,101.642702
1.38400,107.1362014
1.38450,104.6946461
1.38500,100.7271188
1.38550,97.06478593
1.38600,88.21414811
1.38650,72.64923331
1.38700,60.74665141
1.38750,58.30509615
1.38800,54.64276326
1.38850,37.55187643
1.38900,9.473990919
1.38950,-17.99350577
1.39000,-39.66230872
1.39050,-54.00644588
1.39100,-58.88955641
1.39150,-54.00644588
1.39200,-45.76619688
1.39250,-38.13633668
1.39300,-28.98050445
1.39350,-15.55195051
1.39400,-2.733785389
1.39450,6.72724125
1.39500,17.10385111
1.39550,31.14279387
1.39600,44.5713478
1.39650,53.72718004
1.39700,64.40898431
1.39750,81.49987114
1.39800,102.5582853
1.39850,121.785533
1.39900,139.1816142
1.39950,153.2205569
1.40000,154.4413346
1.40050,136.4348645
1.40100,106.2206182
1.40150,77.22714943
1.40200,54.94795767
1.40250,36.6362932
1.40300,21.98696163
1.40350,13.13632381
1.40400,8.863602104
1.40450,5.811658027
1.40500,2.149325134
1.40550,0.3181586879
1.40600,0.9285475033
1.40650,6.72724125
1.40700,18.01943433
1.40750,30.53240505
1.40800,33.88954354
1.40850,25.03890571
1.40900,12.22074059
1.40950,3.064908357
1.41000,-3.649368612
1.41050,-12.50000644
1.41100,-19.21428341
1.41150,-17.68831137
1.41200,-12.19481203
1.41250,-8.532479135
1.41300,-3.649368612
1.41350,7.94801888
1.41400,23.20773927
1.41450,33.27915472
1.41500,37.24668202
1.41550,39.07784847
1.41600,34.49993235
1.41650,16.18826789
1.41700,-10.05845117
1.41750,-28.67531004
1.41800,-34.47400379
1.41850,-39.35711431
1.41900,-52.17527944
1.41950,-63.77266693
1.42000,-59.80513963
1.42050,-41.49347517
1.42100,-21.35064426
1.42150,-3.649368612
1.42200,15.57787907
1.42250,38.77265406
1.42300,58.61029056
1.42350,69.90248364
1.42400,75.39598298
1.42450,80.58428791
1.42500,85.46739844
1.42550,86.38298166
1.42600,80.27909351
1.42650,67.76612279
1.42700,50.37004155
1.42750,29.61682183
1.42800,8.863602104
1.42850,-9.142867951
1.42900,-26.53894919
1.42950,-44.54541924
1.43000,-57.66877878
1.43050,-55.53241792
1.43100,-34.16880938
1.43150,-3.95456302
1.43200,20.4609896
1.43250,35.41551557
1.43300,44.2661534
1.43350,49.45445833
1.43400,49.14926392
1.43450,43.65576458
1.43500,35.11032117
1.43550,23.81812808
1.43600,8.253213288
1.43650,-7.006507097
1.43700,-16.16233933
1.43750,-20.43506104
1.43800,-28.06492123
1.43850,-39.66230872
1.43900,-43.32464161
1.43950,-29.28569886
1.44000,-3.038979797
1.44050,24.12332249
1.44100,53.11679122
1.44150,90.96089778
1.44200,133.6881149
1.44250,161.460806
1.44300,162.0711948
1.44350,144.9803079
1.44400,130.9413652
1.44450,126.9738379
1.44500,123.6166994
1.44550,113.5452839
1.44600,101.642702
1.44650,95.23361948
1.44700,94.92842508
1.44750,96.45439711
1.44800,101.3375076
1.44850,108.9673678
1.44900,110.4933399
1.44950,92.79206422
1.45000,55.25315207
1.45050,7.337630065
1.45100,-42.40905839
1.45150,-95.51288533
1.45200,-150.1426843
1.45250,-197.1426231
1.45300,-225.8308974
1.45350,-232.5451744
1.45400,-217.8958428
1.45450,-184.324458
1.45500,-138.5452968
1.45550,-93.37652448
1.45600,-58.584362
1.45650,-30.8116709
1.45700,3.370102765
1.45750,49.75965274
1.45800,94.92842508
1.45850,119.0387833
1.45900,117.2076168
1.45950,106.2206182
1.46000,102.8634797
1.46050,105.3050349
1.46100,100.4219244
1.46150,85.16220403
1.46200,71.42845568
1.46250,65.32456753
1.46300,59.22067937
1.46350,45.79212544
1.46400,28.7012386
1.46450,14.66229585
1.46500,1.844130726
1.46550,-14.63636729
1.46600,-31.11686531
1.46650,-38.44153109
1.46700,-35.38958701
1.46750,-28.98050445
1.46800,-23.48700511
1.46850,-17.99350577
1.46900,-14.9415617
1.46950,-17.07792255
1.47000,-23.79219952
1.47050,-29.28569886
1.47100,-30.50647649
1.47150,-30.50647649
1.47200,-35.38958701
1.47250,-46.98697451
1.47300,-60.72072285
1.47350,-65.90902778
1.47400,-54.6168347
1.47450,-31.72725412
1.47500,-11.2792288
1.47550,-3.344174205
1.47600,-6.396118282
1.47650,-13.72078407
1.47700,-21.96103307
1.47750,-28.67531004
1.47800,-30.50647649
1.47850,-30.8116709
1.47900,-36.30517024
1.47950,-46.6817801
1.48000,-49.73372418
1.48050,-38.13633668
1.48100,-20.43506104
1.48150,-10.9740344
1.48200,-10.66883999
1.48250,-10.36364558
1.48300,-4.564951835
1.48350,6.422046842
1.48400,24.4285169
1.48450,51.59081918
1.48500,80.88948232
1.48550,99.20114678
1.48600,102.2530909
1.48650,97.36998034
1.48700,93.40245304
1.48750,92.79206422
1.48800,90.65570337
1.48850,83.63623199
1.48900,75.39598298
1.48950,72.34403891
1.49000,79.9738991
1.49050,94.92842508
1.49100,107.1362014
1.49150,108.356979
1.49200,95.53881389
1.49250,66.24015075
1.49300,20.766184
1.49350,-32.64283734
1.49400,-78.72719291
1.49450,-109.5518281
1.49500,-131.5258254
1.49550,-153.1946284
1.49600,-170.895904
1.49650,-175.7790146
1.49700,-168.7595432
1.49750,-158.3829333
1.49800,-145.8699626
1.49850,-120.8440212
1.49900,-75.98044324
1.49950,-21.65583867
1.50000,23.51293367
1.50050,48.84406951
1.50100,59.83106819
1.50150,69.59728924
1.50200,83.63623199
1.50250,95.8440083
1.50300,96.75959152
1.50350,86.68817607
1.50400,77.22714943
1.50450,78.14273265
1.50500,87.29856488
1.50550,93.09725863
1.50600,86.38298166
1.50650,67.15573397
1.50700,44.2661534
1.50750,25.64929453
1.50800,12.8311294
1.50850,0.9285475033
1.50900,-11.58442321
1.50950,-20.43506104
1.51000,-21.65583867
1.51050,-20.74025544
1.51100,-23.18181071
1.51150,-24.70778274
1.51200,-15.85714492
1.51250,-1.513007758
1.51300,3.675297173
1.51350,-4.259757428
1.51400,-17.68831137
1.51450,-29.59089327
1.51500,-41.49347517
1.51550,-51.56489062
1.51600,-48.51294654
1.51650,-28.67531004
1.51700,-5.480535058
1.51750,6.72724125
1.51800,8.253213288
1.51850,7.032435657
1.51900,3.98049158
1.51950,-2.733785389
1.52000,-10.9740344
1.52050,-18.29870018
1.52100,-28.98050445
1.52150,-44.54541924
1.52200,-57.66877878
1.52250,-63.77266693
1.52300,-68.65577745
1.52350,-79.03238731
1.52400,-86.66224751
1.52450,-79.03238731
1.52500,-58.88955641
1.52550,-41.18828076
1.52600,-34.16880938
1.52650,-34.7791982
1.52700,-36.30517024
1.52750,-34.16880938
1.52800,-21.65583867
1.52850,1.538936319
1.52900,23.51293367
1.52950,29.92201623
1.53000,22.90254486
1.53050,18.93501756
1.53100,25.64929453
1.53150,33.27915472
1.53200,29.61682183
1.53250,17.10385111
1.53300,4.896074803
1.53350,-4.259757428
1.53400,-14.02597847
1.53450,-22.8766163
1.53500,-22.8766163
1.53550,-9.448062359
1.53600,11.91554618
1.53650,33.88954354
1.53700,49.75965274
1.53750,56.4739297
1.53800,52.5064024
1.53850,37.55187643
1.53900,18.01943433
1.53950,3.370102765
1.54000,-3.649368612
1.54050,-12.19481203
1.54100,-32.64283734
1.54150,-61.94150048
1.54200,-84.52588665
1.54250,-85.74666428
1.54300,-69.57136068
1.54350,-51.87008503
1.54400,-43.62983602
1.54450,-42.10386398
1.54500,-38.7467255
1.54550,-28.67531004
1.54600,-14.02597847
1.54650,1.233741911
1.54700,12.8311294
1.54750,16.18826789
1.54800,11.91554618
1.54850,7.032435657
1.54900,7.032435657
1.54950,10.99996296
1.55000,13.44151822
1.55050,12.22074059
1.55100,6.422046842
1.55150,-2.428590981
1.55200,-10.9740344
1.55250,-11.2792288
1.55300,-1.207813351
1.55350,11.30515737
1.55400,15.57787907
1.55450,8.558407696
1.55500,-2.123396574
1.55550,-9.142867951
1.55600,-10.36364558
1.55650,-10.36364558
1.55700,-16.16233933
1.55750,-31.42205971
1.55800,-49.73372418
1.55850,-58.27916759
1.55900,-51.56489062
1.55950,-36.30517024
1.56000,-20.12986663
1.56050,-3.344174205
1.56100,11.91554618
1.56150,17.10385111
1.56200,7.337630065
1.56250,-5.175340651
1.56300,-6.396118282
1.56350,3.370102765
1.56400,7.642824473
1.56450,-3.038979797
1.56500,-26.8441436
1.56550,-57.36358437
1.56600,-88.79860836
1.56650,-111.6881889
1.56700,-120.2336324
1.56750,-122.6751876
1.56800,-130.6102422
1.56850,-140.6816577
1.56900,-137.934908
1.56950,-120.8440212
1.57000,-104.6687176
1.57050,-97.34405178
1.57100,-87.27263632
1.57150,-64.99344456
1.57200,-41.79866957
1.57250,-31.11686531
1.57300,-21.65583867
1.57350,4.285685988
1.57400,43.35057017
1.57450,69.90248364
1.57500,70.51287246
1.57550,54.64276326
1.57600,36.3310988
1.57650,20.766184
1.57700,10.69476855
1.57750,13.74671263
1.57800,31.14279387
1.57850,50.06484714
1.57900,59.22067937
1.57950,61.96742904
1.58000,68.98690042
1.58050,81.80506554
1.58100,93.70764744
1.58150,96.75959152
1.58200,88.21414811
1.58250,67.46092838
1.58300,38.46745965
1.58350,9.168796511
1.58400,-14.9415617
1.58450,-35.38958701
1.58500,-51.25969621
1.58550,-56.75319555
1.58600,-49.73372418
1.58650,-39.35711431
1.58700,-36.30517024
1.58750,-38.44153109
1.58800,-34.47400379
1.58850,-22.57142189
1.58900,-14.33117288
1.58950,-17.38311696
1.59000,-25.01297715
1.59050,-25.31817156
1.59100,-16.46753374
1.59150,-4.564951835
1.59200,5.201269211
1.59250,14.35710144
1.59300,21.68176723
1.59350,20.766184
1.59400,9.168796511
1.59450,-7.616895912
1.59500,-19.82467222
1.59550,-20.74025544
1.59600,-14.63636729
1.59650,-8.227284728
1.59700,-3.95456302
1.59750,0.01296428019
1.59800,4.590880396
1.59850,11.61035177
1.59900,26.56487775
1.59950,53.11679122
1.60000,81.19467673
1.60050,88.82453692
1.60100,65.93495634
1.60150,29.31162742
1.60200,5.506463619
1.60250,0.3181586879
1.60300,-3.95456302
1.60350,-20.43506104
1.60400,-41.49347517
1.60450,-54.00644588
1.60500,-55.83761233
1.60550,-52.17527944
1.60600,-45.46100247
1.60650,-31.42205971
1.60700,-10.66883999
1.60750,13.74671263
1.60800,42.12979254
1.60850,73.87001094
1.60900,101.642702
1.60950,112.0193119
1.61000,98.59075797
1.61050,72.64923331
1.61100,56.1687353
1.61150,63.18820667
1.61200,86.07778725
1.61250,101.9478965
1.61300,96.75959152
1.61350,76.61676061
1.61400,56.4739297
1.61450,42.43498695
1.61500,30.83759946
1.61550,21.98696163
1.61600,18.62982315
1.61650,14.05190703
1.61700,-6.396118282
1.61750,-42.40905839
1.61800,-71.70772153
1.61850,-76.59083205
1.61900,-66.82461101
1.61950,-64.07786134
1.62000,-71.09733271
1.62050,-72.92849916
1.62100,-63.46747252
1.62150,-55.53241792
1.62200,-61.33111167
1.62250,-76.59083205
1.62300,-91.85055244
1.62350,-101.6167735
1.62400,-102.2271623
1.62450,-88.18821955
1.62500,-60.72072285
1.62550,-32.64283734
1.62600,-17.99350577
1.62650,-21.35064426
1.62700,-37.83114227
1.62750,-61.63630608
1.62800,-84.22069225
1.62850,-97.34405178
1.62900,-100.7011903
1.62950,-104.973912
1.63000,-118.4024659
1.63050,-136.1037416
1.63100,-145.5647682
1.63150,-142.5128241
1.63200,-130.6102422
1.63250,-113.8245498
1.63300,-91.24016362
1.63350,-65.90902778
1.63400,-43.32464161
1.63450,-25.01297715
1.63500,-6.701312689
1.63550,14.96749026
1.63600,36.94148761
1.63650,51.59081918
1.63700,57.38951293
1.63750,56.4739297
1.63800,50.06484714
1.63850,36.02590439
1.63900,12.8311294
1.63950,-13.41558966
1.64000,-33.86361497
1.64050,-41.49347517
1.64100,-34.47400379
1.64150,-14.63636729
1.64200,13.44151822
1.64250,42.43498695
1.64300,61.35704023
1.64350,68.0713172
1.64400,68.37651161
1.64450,67.46092838
1.64500,62.88301227
1.64550,49.75965274
1.64600,29.31162742
1.64650,10.38957414
1.64700,0.01296428019
1.64750,0.3181586879
1.64800,10.08437973
1.64850,24.4285169
1.64900,32.97396031
1.64950,28.7012386
1.65000,15.27268467
1.65050,4.896074803
1.65100,7.032435657
1.65150,21.68176723
1.65200,40.2986261
1.65250,53.42198563
1.65300,56.4739297
1.65350,53.42198563
1.65400,50.06484714
1.65450,46.09731984
1.65500,36.6362932
1.65550,23.51293367
1.65600,15.27268467
1.65650,18.01943433
1.65700,24.4285169
1.65750,25.95448893
1.65800,23.51293367
1.65850,24.7337113
1.65900,32.97396031
1.65950,46.40251425
1.66000,62.88301227
1.66050,79.05831587
1.66100,89.74012014
1.66150,90.04531455
1.66200,81.80506554
1.66250,68.0713172
1.66300,43.96095899
1.66350,6.422046842
1.66400,-35.08439261
1.66450,-62.5518893
1.66500,-67.12980541
1.66550,-58.27916759
1.66600,-51.87008503
1.66650,-53.39605707
1.66700,-60.11033404
1.66750,-68.35058304
1.66800,-78.11680409
1.66850,-89.10380277
1.66900,-98.259635
1.66950,-103.7531343
1.67000,-104.973912
1.67050,-102.2271623
1.67100,-97.95444059
1.67150,-93.68171888
1.67200,-87.27263632
1.67250,-73.53888798
1.67300,-47.90255773
1.67350,-13.11039525
1.67400,22.29215604
1.67450,53.11679122
1.67500,75.39598298
1.67550,86.99337048
1.67600,87.60375929
1.67650,81.19467673
1.67700,75.39598298
1.67750,69.90248364
1.67800,57.99990174
1.67850,35.41551557
1.67900,8.863602104
1.67950,-10.9740344
1.68000,-21.96103307
1.68050,-28.06492123
1.68100,-30.50647649
1.68150,-27.75972682
1.68200,-21.65583867
1.68250,-15.55195051
1.68300,-10.36364558
1.68350,-3.038979797
1.68400,6.422046842
1.68450,15.27268467
1.68500,20.15579519
1.68550,22.59735045
1.68600,25.34410012
1.68650,28.7012386
1.68700,31.14279387
1.68750,30.53240505
1.68800,24.4285169
1.68850,11.91554618
1.68900,-4.259757428
1.68950,-17.99350577
1.69000,-25.62336597
1.69050,-29.59089327
1.69100,-34.16880938
1.69150,-39.35711431
1.69200,-40.88308635
1.69250,-34.47400379
1.69300,-21.65583867
1.69350,-5.785729466
1.69400,11.91554618
1.69450,32.97396031
1.69500,54.94795767
1.69550,72.0388445
1.69600,83.33103758
1.69650,93.40245304
1.69700,105.6102293
1.69750,114.1556728
1.69800,110.7985343
1.69850,97.06478593
1.69900,82.41545436
1.69950,73.87001094
1.70000,69.29209483
1.70050,64.1037899
1.70100,56.4739297
1.70150,46.40251425
1.70200,31.44798827
1.70250,12.8311294
1.70300,-5.785729466
1.70350,-21.35064426
1.70400,-34.7791982
1.70450,-47.90255773
1.70500,-63.77266693
1.70550,-83.61030343
1.70600,-105.2791064
1.70650,-121.1492156
1.70700,-121.45441
1.70750,-104.973912
1.70800,-82.08433139
1.70850,-66.21422219
1.70900,-64.68825015
1.70950,-75.67524883
1.71000,-90.3245804
1.71050,-96.42846855
1.71100,-87.27263632
1.71150,-65.60383338
1.71200,-40.57789194
1.71250,-16.46753374
1.71300,7.94801888
1.71350,34.19473794
1.71400,57.08431852
1.71450,69.90248364
1.71500,73.56481654
1.71550,74.48039976
1.71600,76.61676061
1.71650,74.78559417
1.71700,60.44145701
1.71750,31.44798827
1.71800,-4.259757428
1.71850,-36.91555905
1.71900,-61.63630608
1.71950,-80.25316495
1.72000,-94.90249651
1.72050,-103.7531343
1.72100,-104.6687176
1.72150,-97.64924618
1.72200,-85.44146988
1.72250,-71.70772153
1.72300,-57.97397318
1.72350,-45.76619688
1.72400,-37.83114227
1.72450,-38.7467255
1.72500,-48.51294654
1.72550,-58.88955641
1.72600,-61.94150048
1.72650,-58.88955641
1.72700,-56.14280674
1.72750,-53.70125148
1.72800,-43.32464161
1.72850,-23.48700511
1.72900,-1.207813351
1.72950,19.85060078
1.73000,44.5713478
1.73050,71.73365009
1.73100,87.9089537
1.73150,84.24662081
1.73200,66.85053957
1.73250,49.14926392
1.73300,35.72070998
1.73350,25.34410012
1.73400,19.85060078
1.73450,19.85060078
1.73500,21.98696163
1.73550,24.7337113
1.73600,32.6687659
1.73650,45.48693103
1.73700,53.42198563
1.73750,54.03237444
1.73800,61.66223464
1.73850,86.38298166
1.73900,112.6297007
1.73950,114.7660616
1.74000,92.48686981
1.74050,66.85053957
1.74100,49.75965274
1.74150,34.19473794
1.74200,15.88307348
1.74250,6.72724125
1.74300,13.44151822
1.74350,23.81812808
1.74400,22.90254486
1.74450,13.44151822
1.74500,4.590880396
1.74550,-3.038979797
1.74600,-14.9415617
1.74650,-28.37011564
1.74700,-35.38958701
1.74750,-35.38958701
1.74800,-38.13633668
1.74850,-49.42852977
1.74900,-64.99344456
1.74950,-75.06486001
1.75000,-73.53888798
1.75050,-58.88955641
1.75100,-33.86361497
1.75150,-7.006507097
1.75200,13.74671263
1.75250,26.25968334
1.75300,33.88954354
1.75350,39.99343169
1.75400,43.96095899
1.75450,43.35057017
1.75500,37.24668202
1.75550,23.81812808
1.75600,1.233741911
1.75650,-27.45453241
1.75700,-54.92202911
1.75750,-69.26616627
1.75800,-62.24669489
1.75850,-34.7791982
1.75900,4.285685988
1.75950,43.35057017
1.76000,75.39598298
1.76050,97.98036915
1.76100,110.4933399
1.76150,111.4089231
1.76200,101.9478965
1.76250,86.99337048
1.76300,70.51287246
1.76350,52.201208
1.76400,33.88954354
1.76450,21.07137841
1.76500,16.4934623
1.76550,13.13632381
1.76600,2.149325134
1.76650,-14.33117288
1.76700,-25.01297715
1.76750,-25.01297715
1.76800,-25.01297715
1.76850,-33.25322616
1.76900,-42.7142528
1.76950,-41.18828076
1.77000,-29.59089327
1.77050,-23.48700511
1.77100,-30.20128208
1.77150,-38.44153109
1.77200,-34.16880938
1.77250,-20.43506104
1.77300,-8.227284728
1.77350,0.3181586879
1.77400,12.525935
1.77450,28.3960442
1.77500,35.41551557
1.77550,29.61682183
1.77600,21.68176723
1.77650,21.37657282
1.77700,23.20773927
1.77750,18.01943433
1.77800,10.38957414
1.77850,12.8311294
1.77900,23.20773927
1.77950,24.7337113
1.78000,10.08437973
1.78050,-10.36364558
1.78100,-24.40258834
1.78150,-30.50647649
1.78200,-31.42205971
1.78250,-26.23375478
1.78300,-14.63636729
1.78350,-2.123396574
1.78400,5.811658027
1.78450,9.168796511
1.78500,4.896074803
1.78550,-11.2792288
1.78600,-38.44153109
1.78650,-64.99344456
1.78700,-83.30510902
1.78750,-95.81807974
1.78800,-106.8050784
1.78850,-113.214161
1.78900,-108.3310505
1.78950,-91.24016362
1.79000,-64.68825015
1.79050,-31.11686531
1.79100,0.6233530956
1.79150,17.10385111
1.79200,14.66229585
1.79250,10.08437973
1.79300,18.32462874
1.79350,31.14279387
1.79400,26.56487775
1.79450,0.9285475033
1.79500,-27.75972682
1.79550,-42.10386398
1.79600,-41.18828076
1.79650,-30.20128208
1.79700,-12.50000644
1.79750,2.75971395
1.79800,1.538936319
1.79850,-21.96103307
1.79900,-54.6168347
1.79950,-77.20122087
1.80000,-85.13627547
1.80050,-85.74666428
1.80100,-80.86355376
1.80150,-66.82461101
1.80200,-45.76619688
1.80250,-25.92856037
1.80300,-11.2792288
1.80350,2.454519542
1.80400,16.7986567
1.80450,23.20773927
1.80500,11.61035177
1.80550,-13.11039525
1.80600,-36.61036464
1.80650,-46.98697451
1.80700,-46.98697451
1.80750,-45.76619688
1.80800,-44.54541924
1.80850,-36.61036464
1.80900,-17.38311696
1.80950,5.201269211
1.81000,18.32462874
1.81050,15.88307348
1.81100,6.116852434
1.81150,-0.5974245352
1.81200,-0.9026189429
1.81250,4.285685988
1.81300,15.27268467
1.81350,32.3635715
1.81400,49.75965274
1.81450,61.05184582
1.81500,65.01937312
1.81550,68.37651161
1.81600,78.75312147
1.81650,96.45439711
1.81700,113.8504784
1.81750,124.5322826
1.81800,127.8894211
1.81850,125.7530603
1.81900,116.9024224
1.81950,99.50634119
1.82000,79.05831587
1.82050,65.62976194
1.82100,59.83106819
1.82150,51.28562477
1.82200,32.05837709
1.82250,10.69476855
1.82300,-0.9026189429
1.82350,-3.038979797
1.82400,-2.123396574
1.82450,0.3181586879
1.82500,6.116852434
1.82550,7.94801888
1.82600,-4.564951835
1.82650,-24.09739393
1.82700,-29.28569886
1.82750,-13.11039525
1.82800,4.285685988
1.82850,3.675297173
1.82900,-11.88961762
1.82950,-27.75972682
1.83000,-38.13633668
1.83050,-45.46100247
1.83100,-46.98697451
1.83150,-37.22075346
1.83200,-19.82467222
1.83250,-7.616895912
1.83300,-8.837673543
1.83350,-18.60389459
1.83400,-26.8441436
1.83450,-29.59089327
1.83500,-30.20128208
1.83550,-32.94803175
1.83600,-34.16880938
1.83650,-23.48700511
1.83700,2.454519542
1.83750,35.11032117
1.83800,58.61029056
1.83850,68.68170601
1.83900,72.95442772
1.83950,76.61676061
1.84000,74.78559417
1.84050,62.88301227
1.84100,45.48693103
1.84150,32.3635715
1.84200,27.17526657
1.84250,27.17526657
1.84300,30.22721064
1.84350,34.80512676
1.84400,36.6362932
1.84450,32.05837709
1.84500,24.12332249
1.84550,20.766184
1.84600,27.48046097
1.84650,43.96095899
1.84700,64.71417871
1.84750,78.14273265
1.84800,72.95442772
1.84850,48.5388751
1.84900,20.15579519
1.84950,4.285685988
1.85000,5.201269211
1.85050,15.57787907
1.85100,31.44798827
1.85150,54.33756885
1.85200,78.44792706
1.85250,89.43492574
1.85300,80.58428791
1.85350,62.88301227
1.85400,50.98043037
1.85450,47.62329188
1.85500,44.2661534
1.85550,36.02590439
1.85600,25.34410012
1.85650,13.44151822
1.85700,1.844130726
1.85750,-3.344174205
1.85800,3.064908357
1.85850,17.10385111
1.85900,27.17526657
1.85950,29.61682183
1.86000,32.97396031
1.86050,45.18173662
1.86100,61.05184582
1.86150,66.54534516
1.86200,53.42198563
1.86250,26.87007216
1.86300,1.538936319
1.86350,-9.753256766
1.86400,-5.175340651
1.86450,6.116852434
1.86500,11.61035177
1.86550,4.285685988
1.86600,-12.80520084
1.86650,-32.03244853
1.86700,-46.98697451
1.86750,-58.27916759
1.86800,-68.96097186
1.86850,-82.69472021
1.86900,-100.0908014
1.86950,-121.1492156
1.87000,-141.2920465
1.87050,-153.8050172
1.87100,-160.2140998
1.87150,-174.2530425
1.87200,-203.2465112
1.87250,-231.0192023
1.87300,-227.9672583
1.87350,-185.85043
1.87400,-126.6427149
1.87450,-73.53888798
1.87500,-30.8116709
1.87550,4.896074803
1.87600,32.3635715
1.87650,52.81159681
1.87700,75.09078857
1.87750,97.67517474
1.87800,101.9478965
1.87850,82.41545436
1.87900,61.35704023
1.87950,63.49340108
1.88000,86.68817607
1.88050,115.6816448
1.88100,148.9478352
1.88150,188.9283026
1.88200,222.4996875
1.88250,236.8438247
1.88300,239.8957687
1.88350,240.811352
1.88400,225.2464372
1.88450,171.227027
1.88500,84.85700962
1.88550,-7.616895912
1.88600,-93.98691329
1.88650,-171.2010984
1.88700,-223.3893422
1.88750,-234.3763408
1.88800,-217.285454
1.88850,-202.0257336
1.88900,-192.564707
1.88950,-168.7595432
1.89000,-131.8310198
1.89050,-110.7726057
1.89100,-119.9284379
1.89150,-134.8829639
1.89200,-128.4738814
1.89250,-101.6167735
1.89300,-67.43499982
1.89350,-29.28569886
1.89400,9.168796511
1.89450,35.41551557
1.89500,42.74018136
1.89550,44.87654221
1.89600,57.69470734
1.89650,75.70117739
1.89700,81.49987114
1.89750,71.12326127
1.89800,55.55834648
1.89850,41.21420932
1.89900,26.25968334
1.89950,10.69476855
1.90000,0.3181586879
1.90050,-2.123396574
1.90100,0.3181586879
1.90150,3.98049158
1.90200,8.558407696
1.90250,14.66229585
1.90300,18.32462874
1.90350,14.96749026
1.90400,5.811658027
1.90450,-1.207813351
1.90500,-0.2922301275
1.90550,11.91554618
1.90600,33.88954354
1.90650,59.52587378
1.90700,78.44792706
1.90750,84.55181521
1.90800,82.72064877
1.90850,83.02584317
1.90900,86.07778725
1.90950,84.24662081
1.91000,76.61676061
1.91050,71.12326127
1.91100,68.68170601
1.91150,57.08431852
1.91200,30.83759946
1.91250,3.064908357
1.91300,-14.9415617
1.91350,-32.03244853
1.91400,-58.584362
1.91450,-82.08433139
1.91500,-81.77913698
1.91550,-59.19475081
1.91600,-36.30517024
1.91650,-23.48700511
1.91700,-10.66883999
1.91750,6.72724125
1.91800,18.62982315
1.91850,18.62982315
1.91900,15.57787907
1.91950,22.90254486
1.92000,43.65576458
1.92050,73.87001094
1.92100,106.5258126
1.92150,127.2790323
1.92200,125.7530603
1.92250,110.4933399
1.92300,102.2530909
1.92350,104.3894517
1.92400,94.92842508
1.92450,57.99990174
1.92500,6.422046842
1.92550,-33.55842057
1.92600,-55.53241792
1.92650,-71.70772153
1.92700,-91.24016362
1.92750,-110.4674113
1.92800,-119.6232435
1.92850,-115.6557162
1.92900,-101.3115791
1.92950,-85.74666428
1.93000,-80.55835935
1.93050,-93.07133007
1.93100,-119.3180491
1.93150,-146.175157
1.93200,-163.2660438
1.93250,-170.2855152
1.93300,-174.8634313
1.93350,-182.4932915
1.93400,-189.5127629
1.93450,-184.0192636
1.93500,-161.4348774
1.93550,-129.0842702
1.93600,-97.34405178
1.93650,-68.04538864
1.93700,-35.69478142
1.93750,0.01296428019
1.93800,29.00643301
1.93850,44.2661534
1.93900,47.92848629
1.93950,48.84406951
1.94000,51.59081918
1.94050,58.61029056
1.94100,71.12326127
1.94150,87.9089537
1.94200,101.3375076
1.94250,101.9478965
1.94300,87.9089537
1.94350,66.24015075
1.94400,48.84406951
1.94450,42.43498695
1.94500,47.31809747
1.94550,56.1687353
1.94600,60.44145701
1.94650,56.77912411
1.94700,46.40251425
1.94750,32.97396031
1.94800,16.7986567
1.94850,-3.344174205
1.94900,-24.40258834
1.94950,-39.35711431
1.95000,-45.15580806
1.95050,-47.29216891
1.95100,-50.6493074
1.95150,-50.6493074
1.95200,-42.7142528
1.95250,-31.42205971
1.95300,-24.09739393
1.95350,-17.99350577
1.95400,-8.227284728
1.95450,-1.513007758
1.95500,-13.72078407
1.95550,-42.40905839
1.95600,-64.07786134
1.95650,-61.63630608
1.95700,-44.85061365
1.95750,-27.75972682
1.95800,-5.175340651
1.95850,35.41551557
1.95900,86.38298166
1.95950,121.785533
1.96000,132.1621428
1.96050,131.551754
1.96100,133.6881149
1.96150,133.9933093
1.96200,125.7530603
1.96250,113.2400895
1.96300,104.0842573
1.96350,97.36998034
1.96400,87.9089537
1.96450,77.53234384
1.96500,75.09078857
1.96550,83.9414264
1.96600,97.36998034
1.96650,104.9998405
1.96700,97.67517474
1.96750,75.09078857
1.96800,47.01290307
1.96850,25.64929453
1.96900,14.96749026
1.96950,8.863602104
1.97000,3.675297173
1.97050,2.75971395
1.97100,7.032435657
1.97150,11.61035177
1.97200,13.13632381
1.97250,17.10385111
1.97300,25.34410012
1.97350,26.87007216
1.97400,10.99996296
1.97450,-11.88961762
1.97500,-21.35064426
1.97550,-12.50000644
1.97600,-4.870146243
1.97650,-14.02597847
1.97700,-28.37011564
1.97750,-26.8441436
1.97800,-9.448062359
1.97850,-2.123396574
1.97900,-27.14933801
1.97950,-77.20122087
1.98000,-124.8115485
1.98050,-153.4998228
1.98100,-168.1491544
1.98150,-179.136153
1.98200,-182.7984859
1.98250,-171.5062928
1.98300,-149.2271011
1.98350,-129.3894646
1.98400,-117.1816883
1.98450,-108.025856
1.98500,-100.0908014
1.98550,-96.12327415
1.98600,-93.07133007
1.98650,-80.25316495
1.98700,-56.14280674
1.98750,-33.86361497
1.98800,-23.79219952
1.98850,-17.68831137
1.98900,-1.818202166
1.98950,26.56487775
1.99000,60.74665141
1.99050,91.57128659
1.99100,112.0193119
1.99150,119.6491721
1.99200,122.0907274
1.99250,129.1101987
1.99300,138.266031
1.99350,136.4348645
1.99400,122.3959218
1.99450,110.1881455
1.99500,108.0517846
1.99550,102.8634797
1.99600,83.33103758
1.99650,55.86354089
1.99700,29.61682183
1.99750,1.844130726
1.99800,-29.89608767
1.99850,-54.6168347
1.99900,-64.68825015
1.99950,-73.53888798
2.00000,-93.98691329
2.00050,-109.2466337
2.00100,-90.62977481
2.00150,-43.01944721
2.00200,-3.344174205
2.00250,3.98049158
2.00300,-5.785729466
2.00350,-13.11039525
2.00400,-20.74025544
2.00450,-42.7142528
2.00500,-75.98044324
2.00550,-101.6167735
2.00600,-111.9933833
2.00650,-119.6232435
2.00700,-133.3569919
2.00750,-142.2076297
2.00800,-130.6102422
2.00850,-101.9219679
2.00900,-74.75966561
2.00950,-59.49994522
2.01000,-46.98697451
2.01050,-28.98050445
2.01100,-14.02597847
2.01150,-13.11039525
2.01200,-17.68831137
2.01250,-7.92209032
2.01300,16.4934623
2.01350,37.85707084
2.01400,48.84406951
2.01450,63.18820667
2.01500,89.74012014
2.01550,111.4089231
2.01600,106.831007
2.01650,79.36351028
2.01700,51.59081918
2.01750,35.72070998
2.01800,28.3960442
2.01850,26.25968334
2.01900,33.27915472
2.01950,49.75965274
2.02000,67.76612279
2.02050,83.33103758
2.02100,97.67517474
2.02150,105.6102293
2.02200,96.14920271
2.02250,67.15573397
2.02300,40.2986261
2.02350,40.2986261
2.02400,67.15573397
2.02450,90.65570337
2.02500,79.66870469
2.02550,32.6687659
2.02600,-24.70778274
2.02650,-68.35058304
2.02700,-92.46094125
2.02750,-106.499884
2.02800,-115.9609106
2.02850,-121.45441
2.02900,-125.1167429
2.02950,-129.0842702
2.03000,-130.6102422
2.03050,-121.45441
2.03100,-104.973912
2.03150,-95.20769092
2.03200,-103.1427455
2.03250,-123.8959652
2.03300,-140.6816577
2.03350,-139.7660744
2.03400,-117.1816883
2.03450,-78.4219985
2.03500,-37.22075346
2.03550,-5.785729466
2.03600,16.18826789
2.03650,42.43498695
2.03700,79.05831587
2.03750,114.1556728
2.03800,130.025782
2.03850,127.2790323
2.03900,125.4478658
2.03950,135.5192813
2.04000,146.2010856
2.04050,137.6556422
2.04100,104.6946461
2.04150,59.52587378
2.04200,14.35710144
2.04250,-26.23375478
2.04300,-60.11033404
2.04350,-82.99991461
2.04400,-95.20769092
2.04450,-99.78560704
2.04500,-93.07133007
2.04550,-67.43499982
2.04600,-27.14933801
2.04650,3.98049158
2.04700,7.642824473
2.04750,-10.05845117
2.04800,-28.37011564
2.04850,-36.91555905
2.04900,-39.96750313
2.04950,-36.91555905
2.05000,-19.51947781
2.05050,10.38957414
2.05100,36.6362932
2.05150,45.79212544
2.05200,43.04537577
2.05250,43.04537577
2.05300,50.06484714
2.05350,59.52587378
2.05400,67.46092838
2.05450,71.12326127
2.05500,65.62976194
2.05550,50.67523596
2.05600,35.72070998
2.05650,32.3635715
2.05700,36.6362932
2.05750,30.22721064
2.05800,5.506463619
2.05850,-22.26622748
2.05900,-33.55842057
2.05950,-26.23375478
2.06000,-15.85714492
2.06050,-16.16233933
2.06100,-26.53894919
2.06150,-38.13633668
2.06200,-45.76619688
2.06250,-49.12333536
2.06300,-46.6817801
2.06350,-37.83114227
2.06400,-23.79219952
2.06450,-9.753256766
2.06500,1.233741911
2.06550,12.8311294
2.06600,29.92201623
2.06650,50.98043037
2.06700,65.93495634
2.06750,67.15573397
2.06800,60.44145701
2.06850,60.44145701
2.06900,71.12326127
2.06950,83.02584317
2.07000,88.51934251
2.07050,86.99337048
2.07100,75.39598298
2.07150,47.31809747
2.07200,7.642824473
2.07250,-24.70778274
2.07300,-44.85061365
2.07350,-68.35058304
2.07400,-103.4479399
2.07450,-127.5582981
2.07500,-115.0453274
2.07550,-75.67524883
2.07600,-44.24022484
2.07650,-34.7791982
2.07700,-35.08439261
2.07750,-33.25322616
2.07800,-27.75972682
2.07850,-14.33117288
2.07900,11.91554618
2.07950,39.38304287
2.08000,53.72718004
2.08050,66.54534516
2.08100,101.9478965
2.08150,148.3374464
2.08200,163.5971668
2.08250,132.4673372
2.08300,88.51934251
2.08350,58.91548497
2.08400,25.03890571
2.08450,-35.08439261
2.08500,-102.8375511
2.08550,-139.7660744
2.08600,-143.4284073
2.08650,-139.46088
2.08700,-135.7985471
2.08750,-115.9609106
2.08800,-75.06486001
2.08850,-28.67531004
2.08900,11.61035177
2.08950,50.06484714
2.09000,82.41545436
2.09050,94.92842508
2.09100,86.38298166
2.09150,77.22714943
2.09200,84.55181521
2.09250,101.9478965
2.09300,114.4608672
2.09350,119.3439777
2.09400,123.6166994
2.09450,127.8894211
2.09500,126.0582547
2.09550,114.1556728
2.09600,95.8440083
2.09650,73.87001094
2.09700,49.45445833
2.09750,25.34410012
2.09800,7.94801888
2.09850,3.675297173
2.09900,9.779185327
2.09950,16.18826789
2.10000,12.525935
2.10050,0.3181586879
2.10100,-10.9740344
2.10150,-17.68831137
2.10200,-25.01297715
2.10250,-39.96750313
2.10300,-58.27916759
2.10350,-68.04538864
2.10400,-64.07786134
2.10450,-51.87008503
2.10500,-39.96750313
2.10550,-30.20128208
2.10600,-19.51947781
2.10650,-5.480535058
2.10700,11.61035177
2.10750,32.3635715
2.10800,54.94795767
2.10850,78.44792706
2.10900,101.9478965
2.10950,125.1426714
2.11000,143.1491415
2.11050,146.50628
2.11100,128.1946155
2.11150,90.96089778
2.11200,43.96095899
2.11250,-8.227284728
2.11300,-66.82461101
2.11350,-122.980382
2.11400,-159.2985165
2.11450,-167.5387655
2.11500,-156.5517669
2.11550,-136.7141304
2.11600,-106.1946896
2.11650,-65.29863897
2.11700,-28.98050445
2.11750,-14.63636729
2.11800,-17.07792255
2.11850,-14.9415617
2.11900,-2.428590981
2.11950,1.844130726
2.12000,-14.02597847
2.12050,-41.18828076
2.12100,-60.41552844
2.12150,-64.99344456
2.12200,-57.66877878
2.12250,-38.44153109
2.12300,-8.837673543
2.12350,23.51293367
2.12400,50.67523596
2.12450,72.34403891
2.12500,92.18167541
2.12550,107.4413958
2.12600,114.1556728
2.12650,112.6297007
2.12700,107.4413958
2.12750,99.50634119
2.12800,85.46739844
2.12850,63.49340108
2.12900,37.55187643
2.12950,14.66229585
2.13000,0.01296428019
2.13050,-7.92209032
2.13100,-12.80520084
2.13150,-14.63636729
2.13200,-6.396118282
2.13250,13.13632381
2.13300,32.05837709
2.13350,33.58434913
2.13400,15.88307348
2.13450,-6.396118282
2.13500,-18.909089
2.13550,-18.909089
2.13600,-12.50000644
2.13650,-7.616895912
2.13700,-10.66883999
2.13750,-24.70778274
2.13800,-46.07139128
2.13850,-65.29863897
2.13900,-76.28563765
2.13950,-79.33758172
2.14000,-74.4544712
2.14050,-64.07786134
2.14100,-55.83761233
2.14150,-56.75319555
2.14200,-59.19475081
2.14250,-47.29216891
2.14300,-19.21428341
2.14350,6.116852434
2.14400,14.96749026
2.14450,14.05190703
2.14500,17.71423993
2.14550,26.87007216
2.14600,34.49993235
2.14650,43.65576458
2.14700,63.49340108
2.14750,92.48686981
2.14800,114.7660616
2.14850,120.5647553
2.14900,113.5452839
2.14950,100.4219244
2.15000,83.02584317
2.15050,61.96742904
2.15100,40.2986261
2.15150,18.93501756
2.15200,-0.9026189429
2.15250,-12.50000644
2.15300,-6.701312689
2.15350,11.91554618
2.15400,25.34410012
2.15450,19.85060078
2.15500,-1.207813351
2.15550,-24.70778274
2.15600,-40.88308635
2.15650,-45.15580806
2.15700,-36.91555905
2.15750,-24.09739393
2.15800,-18.60389459
2.15850,-24.40258834
2.15900,-30.50647649
2.15950,-24.70778274
2.16000,-4.870146243
2.16050,22.59735045
2.16100,47.92848629
2.16150,56.77912411
2.16200,39.38304287
2.16250,1.538936319
2.16300,-37.22075346
2.16350,-67.74019423
2.16400,-95.20769092
2.16450,-120.8440212
2.16500,-129.694659
2.16550,-111.6881889
2.16600,-81.16874817
2.16650,-61.33111167
2.16700,-56.44800114
2.16750,-53.09086266
2.16800,-45.15580806
2.16850,-35.99997583
2.16900,-24.09739393
2.16950,-2.733785389
2.17000,25.64929453
2.17050,49.45445833
2.17100,60.1362626
2.17150,60.1362626
2.17200,54.03237444
2.17250,42.74018136
2.17300,27.17526657
2.17350,8.253213288
2.17400,-15.55195051
2.17450,-45.46100247
2.17500,-70.4869439
2.17550,-79.33758172
2.17600,-72.62330475
2.17650,-63.16227811
2.17700,-62.24669489
2.17750,-71.09733271
2.17800,-83.30510902
2.17850,-88.49341395
2.17900,-75.37005442
2.17950,-41.79866957
2.18000,0.3181586879
2.18050,34.49993235
2.18100,54.94795767
2.18150,61.35704023
2.18200,54.33756885
2.18250,42.43498695
2.18300,39.07784847
2.18350,46.70770866
2.18400,49.14926392
2.18450,32.3635715
2.18500,6.422046842
2.18550,-8.227284728
2.18600,-11.88961762
2.18650,-17.38311696
2.18700,-28.98050445
2.18750,-39.05191991
2.18800,-48.20775214
2.18850,-66.21422219
2.18900,-93.07133007
2.18950,-113.8245498
2.19000,-116.2661051
2.19050,-108.3310505
2.19100,-107.1102728
2.19150,-119.0128547
2.19200,-129.9998534
2.19250,-120.2336324
2.19300,-87.27263632
2.19350,-53.09086266
2.19400,-39.35711431
2.19450,-35.69478142
2.19500,-11.2792288
2.19550,42.12979254
2.19600,94.31803626
2.19650,117.2076168
2.19700,119.0387833
2.19750,124.5322826
2.19800,133.3829204
2.19850,126.9738379
2.19900,104.6946461
2.19950,85.46739844
2.20000,76.92195502
2.20050,66.54534516
2.20100,47.31809747
2.20150,30.83759946
2.20200,26.25968334
2.20250,25.03890571
2.20300,14.66229585
2.20350,-3.344174205
2.20400,-25.01297715
2.20450,-50.6493074
2.20500,-80.55835935
2.20550,-102.2271623
2.20600,-100.0908014
2.20650,-73.84408238
2.20700,-43.93503043
2.20750,-30.8116709
2.20800,-34.7791982
2.20850,-34.47400379
2.20900,-10.36364558
2.20950,29.92201623
2.21000,58.61029056
2.21050,55.86354089
2.21100,31.75318268
2.21150,12.8311294
2.21200,12.8311294
2.21250,21.98696163
2.21300,22.29215604
2.21350,7.032435657
2.21400,-14.63636729
2.21450,-23.48700511
2.21500,-7.311701505
2.21550,23.20773927
2.21600,41.21420932
2.21650,33.58434913
2.21700,17.10385111
2.21750,10.99996296
2.21800,7.642824473
2.21850,-14.9415617
2.21900,-59.49994522
2.21950,-102.5323567
2.22000,-127.5582981
2.22050,-137.3245192
2.22100,-137.0193248
2.22150,-120.2336324
2.22200,-85.13627547
2.22250,-46.37658569
2.22300,-18.909089
2.22350,-0.9026189429
2.22400,18.62982315
2.22450,43.65576458
2.22500,69.59728924
2.22550,93.09725863
2.22600,112.9348951
2.22650,128.1946155
2.22700,140.0971974
2.22750,148.6426408
2.22800,147.7270576
2.22850,127.8894211
2.22900,89.43492574
2.22950,46.09731984
2.23000,9.168796511
2.23050,-20.12986663
2.23100,-44.54541924
2.23150,-59.19475081
2.23200,-61.33111167
2.23250,-55.22722351
2.23300,-45.46100247
2.23350,-33.25322616
2.23400,-21.96103307
2.23450,-16.77272814
2.23500,-17.38311696
2.23550,-15.55195051
2.23600,-10.9740344
2.23650,-10.66883999
2.23700,-10.05845117
2.23750,7.642824473
2.23800,45.79212544
2.23850,76.92195502
2.23900,75.70117739
2.23950,51.89601359
2.24000,33.58434913
2.24050,25.64929453
2.24100,11.30515737
2.24150,-16.77272814
2.24200,-46.37658569
2.24250,-67.74019423
2.24300,-82.69472021
2.24350,-86.05185869
2.24400,-63.46747252
2.24450,-14.02597847
2.24500,37.55187643
2.24550,66.24015075
2.24600,70.51287246
2.24650,63.79859549
2.24700,54.03237444
2.24750,38.77265406
2.24800,15.88307348
2.24850,-11.88961762
2.24900,-37.52594787
2.24950,-53.70125148
2.25000,-58.584362
2.25050,-61.94150048
2.25100,-71.70772153
2.25150,-79.33758172
2.25200,-72.31811035
2.25250,-59.49994522
2.25300,-61.63630608
2.25350,-75.37005442
2.25400,-68.35058304
2.25450,-32.33764294
2.25500,-5.480535058
2.25550,-25.62336597
2.25600,-72.01291594
2.25650,-92.76613566
2.25700,-73.53888798
2.25750,-53.09086266
2.25800,-63.46747252
2.25850,-87.88302514
2.25900,-89.10380277
2.25950,-59.49994522
2.26000,-21.65583867
2.26050,3.370102765
2.26100,17.71423993
2.26150,31.44798827
2.26200,44.2661534
2.26250,48.2336807
2.26300,42.12979254
2.26350,39.38304287
2.26400,52.81159681
2.26450,77.53234384
2.26500,93.09725863
2.26550,88.82453692
2.26600,75.70117739
2.26650,70.51287246
2.26700,76.0063718
2.26750,85.16220403
2.26800,97.36998034
2.26850,115.6816448
2.26900,134.9088925
2.26950,143.1491415
2.27000,134.6036981
2.27050,109.5777566
2.27100,71.73365009
2.27150,31.44798827
2.27200,7.032435657
2.27250,4.896074803
2.27300,4.285685988
2.27350,-14.33117288
2.27400,-41.79866957
2.27450,-52.48047384
2.27500,-48.81814095
2.27550,-58.584362
2.27600,-88.49341395
2.27650,-113.214161
2.27700,-113.8245498
2.27750,-103.7531343
2.27800,-98.87002382
2.27850,-92.76613566
2.27900,-76.89602646
2.27950,-60.41552844
2.28000,-50.34411299
2.28050,-29.28569886
2.28100,13.44151822
2.28150,52.5064024
2.28200,50.06484714
2.28250,9.779185327
2.28300,-25.01297715
2.28350,-27.75972682
2.28400,-9.142867951
2.28450,13.74671263
2.28500,43.04537577
2.28550,81.49987114
2.28600,118.4283945
2.28650,139.792003
2.28700,147.1166688
2.28750,150.4738073
2.28800,147.7270576
2.28850,127.5842267
2.28900,86.68817607
2.28950,39.07784847
2.29000,1.233741911
2.29050,-21.96103307
2.29100,-39.35711431
2.29150,-59.49994522
2.29200,-84.22069225
2.29250,-111.9933833
2.29300,-140.6816577
2.29350,-165.4024047
2.29400,-178.2205698
2.29450,-175.4738201
2.29500,-163.2660438
2.29550,-145.8699626
2.29600,-115.9609106
2.29650,-71.70772153
2.29700,-31.42205971
2.29750,-15.85714492
2.29800,-18.909089
2.29850,-13.41558966
2.29900,8.253213288
2.29950,24.12332249
2.30000,18.62982315
2.30050,12.525935
2.30100,32.3635715
2.30150,71.12326127
2.30200,97.67517474
2.30250,97.36998034
2.30300,85.77259284
2.30350,80.27909351
2.30400,79.66870469
2.30450,77.53234384
2.30500,80.88948232
2.30550,98.28556356
2.30600,124.5322826
2.30650,142.8439471
2.30700,145.2855023
2.30750,140.4023918
2.30800,138.8764198
2.30850,137.0452533
2.30900,119.0387833
2.30950,76.31156621
2.31000,20.15579519
2.31050,-25.62336597
2.31100,-45.76619688
2.31150,-42.40905839
2.31200,-27.75972682
2.31250,-11.2792288
2.31300,3.675297173
2.31350,14.96749026
2.31400,19.54540637
2.31450,19.54540637
2.31500,18.93501756
2.31550,17.10385111
2.31600,9.473990919
2.31650,-3.038979797
2.31700,-12.19481203
2.31750,-14.9415617
2.31800,-18.909089
2.31850,-31.11686531
2.31900,-43.62983602
2.31950,-46.07139128
2.32000,-41.18828076
2.32050,-39.96750313
2.32100,-42.40905839
2.32150,-35.69478142
2.32200,-17.99350577
2.32250,-0.9026189429
2.32300,12.525935
2.32350,36.3310988
2.32400,75.70117739
2.32450,107.4413958
2.32500,103.7790629
2.32550,67.46092838
2.32600,27.78565538
2.32650,4.590880396
2.32700,-7.006507097
2.32750,-20.74025544
2.32800,-35.99997583
2.32850,-42.7142528
2.32900,-35.08439261
2.32950,-14.9415617
2.33000,10.69476855
2.33050,32.6687659
2.33100,42.74018136
2.33150,40.2986261
2.33200,33.27915472
2.33250,29.31162742
2.33300,31.14279387
2.33350,37.24668202
2.33400,48.5388751
2.33450,64.71417871
2.33500,81.19467673
2.33550,94.31803626
2.33600,106.2206182
2.33650,118.1232001
2.33700,126.6686435
2.33750,127.8894211
2.33800,129.4153931
2.33850,140.0971974
2.33900,150.1686129
2.33950,140.0971974
2.34000,107.1362014
2.34050,74.17520535
2.34100,56.1687353
2.34150,31.14279387
2.34200,-33.86361497
2.34250,-132.7466031
2.34300,-213.6231211
2.34350,-232.5451744
2.34400,-192.564707
2.34450,-129.9998534
2.34500,-72.62330475
2.34550,-27.75972682
2.34600,3.98049158
2.34650,21.98696163
2.34700,28.09084979
2.34750,24.12332249
2.34800,7.032435657
2.34850,-24.09739393
2.34900,-60.41552844
2.34950,-86.66224751
2.35000,-96.73366296
2.35050,-97.03885737
2.35100,-92.15574685
2.35150,-80.55835935
2.35200,-62.5518893
2.35250,-43.62983602
2.35300,-26.23375478
2.35350,-8.227284728
2.35400,7.032435657
2.35450,6.72724125
2.35500,-16.46753374
2.35550,-52.48047384
2.35600,-79.33758172
2.35650,-86.3570531
2.35700,-80.86355376
2.35750,-73.84408238
2.35800,-65.60383338
2.35850,-46.98697451
2.35900,-10.66883999
2.35950,38.77265406
2.36000,84.24662081
2.36050,100.7271188
2.36100,72.95442772
2.36150,15.88307348
2.36200,-30.50647649
2.36250,-31.11686531
2.36300,14.05190703
2.36350,72.0388445
2.36400,108.9673678
2.36450,118.4283945
2.36500,115.071256
2.36550,111.7141175
2.36600,105.9154238
2.36650,92.18167541
2.36700,72.64923331
2.36750,51.89601359
2.36800,31.44798827
2.36850,11.30515737
2.36900,-1.818202166
2.36950,-0.2922301275
2.37000,13.44151822
2.37050,24.7337113
2.37100,21.68176723
2.37150,6.72724125
2.37200,-11.88961762
2.37250,-30.8116709
2.37300,-50.95450181
2.37350,-69.26616627
2.37400,-84.52588665
2.37450,-101.0063847
2.37500,-121.7596044
2.37550,-137.6297136
2.37600,-134.5777695
2.37650,-111.3829945
2.37700,-83.61030343
2.37750,-62.5518893
2.37800,-45.15580806
2.37850,-22.8766163
2.37900,3.370102765
2.37950,26.87007216
2.38000,45.48693103
2.38050,60.74665141
2.38100,69.90248364
2.38150,69.59728924
2.38200,61.96742904
2.38250,52.5064024
2.38300,41.82459814
2.38350,31.44798827
2.38400,29.00643301
2.38450,38.46745965
2.38500,46.09731984
2.38550,33.88954354
2.38600,4.590880396
2.38650,-20.43506104
2.38700,-35.08439261
2.38750,-55.83761233
2.38800,-90.3245804
2.38850,-115.0453274
2.38900,-101.0063847
2.38950,-55.22722351
2.39000,-9.142867951
2.39050,19.85060078
2.39100,42.74018136
2.39150,65.93495634
2.39200,76.0063718
2.39250,63.79859549
2.39300,41.21420932
2.39350,21.68176723
2.39400,1.844130726
2.39450,-22.8766163
2.39500,-41.79866957
2.39550,-43.01944721
2.39600,-36.91555905
2.39650,-41.79866957
2.39700,-53.39605707
2.39750,-51.87008503
2.39800,-35.08439261
2.39850,-22.8766163
2.39900,-25.31817156
2.39950,-31.42205971
2.40000,-34.16880938
2.40050,-46.07139128
2.40100,-71.40252712
2.40150,-92.46094125
2.40200,-91.24016362
2.40250,-75.06486001
2.40300,-62.5518893
2.40350,-53.39605707
2.40400,-35.69478142
2.40450,-10.05845117
2.40500,8.863602104
2.40550,14.35710144
2.40600,7.032435657
2.40650,-11.2792288
2.40700,-35.99997583
2.40750,-50.6493074
2.40800,-42.10386398
2.40850,-20.43506104
2.40900,-6.090923874
2.40950,-0.2922301275
2.41000,11.30515737
2.41050,33.58434913
2.41100,50.67523596
2.41150,54.03237444
2.41200,52.201208
2.41250,54.64276326
2.41300,61.05184582
2.41350,67.15573397
2.41400,72.0388445
2.41450,68.68170601
2.41500,48.5388751
2.41550,21.98696163
2.41600,14.05190703
2.41650,33.27915472
2.41700,57.69470734
2.41750,65.32456753
2.41800,64.1037899
2.41850,73.25962213
2.41900,87.29856488
2.41950,85.46739844
2.42000,65.01937312
2.42050,44.2661534
2.42100,30.22721064
2.42150,9.473990919
2.42200,-24.09739393
2.42250,-51.25969621
2.42300,-54.00644588
2.42350,-39.35711431
2.42400,-24.70778274
2.42450,-10.9740344
2.42500,7.94801888
2.42550,18.93501756
2.42600,1.538936319
2.42650,-33.55842057
2.42700,-50.03891858
2.42750,-30.50647649
2.42800,-8.227284728
2.42850,-24.09739393
2.42900,-75.06486001
2.42950,-118.7076603
2.43000,-130.9154366
2.43050,-126.6427149
2.43100,-127.2531037
2.43150,-125.1167429
2.43200,-101.0063847
2.43250,-57.97397318
2.43300,-19.51947781
2.43350,0.01296428019
2.43400,7.642824473
2.43450,15.27268467
2.43500,23.81812808
2.43550,33.88954354
2.43600,49.75965274
2.43650,67.76612279
2.43700,74.48039976
2.43750,65.32456753
2.43800,60.74665141
2.43850,79.66870469
2.43900,109.2725622
2.43950,116.597228
2.44000,87.9089537
2.44050,43.35057017
2.44100,7.032435657
2.44150,-17.68831137
2.44200,-39.35711431
2.44250,-57.66877878
2.44300,-70.79213831
2.44350,-82.08433139
2.44400,-95.20769092
2.44450,-104.6687176
2.44500,-104.6687176
2.44550,-98.259635
2.44600,-92.46094125
2.44650,-87.88302514
2.44700,-77.20122087
2.44750,-55.53241792
2.44800,-25.01297715
2.44850,3.675297173
2.44900,17.40904552
2.44950,10.38957414
2.45000,-5.785729466
2.45050,-14.63636729
2.45100,-16.77272814
2.45150,-27.14933801
2.45200,-46.37658569
2.45250,-54.00644588
2.45300,-36.61036464
2.45350,-12.19481203
2.45400,-7.006507097
2.45450,-20.43506104
2.45500,-31.72725412
2.45550,-33.55842057
2.45600,-36.61036464
2.45650,-45.76619688
2.45700,-50.6493074
2.45750,-41.18828076
2.45800,-22.26622748
2.45850,-3.344174205
2.45900,11.91554618
2.45950,21.07137841
2.46000,21.68176723
2.46050,15.88307348
2.46100,9.473990919
2.46150,4.285685988
2.46200,-1.207813351
2.46250,-2.428590981
2.46300,10.38957414
2.46350,37.55187643
2.46400,64.1037899
2.46450,72.0388445
2.46500,57.69470734
2.46550,29.92201623
2.46600,3.064908357
2.46650,-13.72078407
2.46700,-21.96103307
2.46750,-26.23375478
2.46800,-25.62336597
2.46850,-13.41558966
2.46900,10.38957414
2.46950,33.58434913
2.47000,45.79212544
2.47050,52.5064024
2.47100,63.49340108
2.47150,74.78559417
2.47200,75.09078857
2.47250,65.93495634
2.47300,58.91548497
2.47350,52.5064024
2.47400,29.00643301
2.47450,-17.07792255
2.47500,-66.21422219
2.47550,-90.3245804
2.47600,-83.30510902
2.47650,-60.72072285
2.47700,-40.57789194
2.47750,-31.72725412
2.47800,-35.08439261
2.47850,-49.42852977
2.47900,-65.60383338
2.47950,-71.09733271
2.48000,-62.24669489
2.48050,-47.90255773
2.48100,-39.05191991
2.48150,-36.30517024
2.48200,-31.11686531
2.48250,-22.57142189
2.48300,-18.60389459
2.48350,-25.62336597
2.48400,-37.22075346
2.48450,-46.37658569
2.48500,-53.09086266
2.48550,-58.584362
2.48600,-54.00644588
2.48650,-30.50647649
2.48700,3.064908357
2.48750,28.7012386
2.48800,39.99343169
2.48850,50.98043037
2.48900,76.0063718
2.48950,111.1037287
2.49000,137.0452533
2.49050,141.0127806
2.49100,130.025782
2.49150,124.2270882
2.49200,138.266031
2.49250,162.6815836
2.49300,173.6685823
2.49350,159.3244451
2.49400,129.7205876
2.49450,96.75959152
2.49500,58.30509615
2.49550,14.35710144
2.49600,-13.72078407
2.49650,-5.785729466
2.49700,22.29215604
2.49750,33.27915472
2.49800,12.8311294
2.49850,-16.77272814
2.49900,-35.99997583
2.49950,-49.73372418
2.50000,-68.96097186
2.50050,-87.27263632
2.50100,-95.81807974
2.50150,-100.0908014
2.50200,-112.6037722
2.50250,-137.934908
2.50300,-177.3049866
2.50350,-228.2724527
2.50400,-275.8827803
2.50450,-294.4996392
2.50500,-277.7139467
2.50550,-245.3633395
2.50600,-213.9283155
2.50650,-175.7790146
2.50700,-123.5907708
2.50750,-76.59083205
2.50800,-58.27916759
2.50850,-61.02591726
2.50900,-57.36358437
2.50950,-39.05191991
2.51000,-22.57142189
2.51050,-15.85714492
2.51100,-5.480535058
2.51150,22.59735045
2.51200,62.88301227
2.51250,97.06478593
2.51300,112.0193119
2.51350,104.9998405
2.51400,80.27909351
2.51450,49.14926392
2.51500,26.87007216
2.51550,19.54540637
2.51600,21.98696163
2.51650,26.25968334
2.51700,31.44798827
2.51750,40.6038205
2.51800,55.86354089
2.51850,72.0388445
2.51900,83.33103758
2.51950,87.9089537
2.52000,89.12973133
2.52050,90.04531455
2.52100,87.29856488
2.52150,75.70117739
2.52200,57.69470734
2.52250,39.07784847
2.52300,22.90254486
2.52350,4.590880396
2.52400,-16.16233933
2.52450,-35.08439261
2.52500,-47.59736332
2.52550,-57.97397318
2.52600,-72.01291594
2.52650,-84.52588665
2.52700,-84.83108106
2.52750,-72.92849916
2.52800,-62.5518893
2.52850,-61.63630608
2.52900,-59.49994522
2.52950,-43.32464161
2.53000,-17.38311696
2.53050,-0.2922301275
2.53100,0.01296428019
2.53150,-7.92209032
2.53200,-11.58442321
2.53250,-8.227284728
2.53300,2.454519542
2.53350,23.20773927
2.53400,51.28562477
2.53450,75.39598298
2.53500,89.12973133
2.53550,95.53881389
2.53600,101.3375076
2.53650,106.831007
2.53700,108.0517846
2.53750,105.3050349
2.53800,101.3375076
2.53850,98.59075797
2.53900,99.50634119
2.53950,104.3894517
2.54000,109.8829511
2.54050,109.8829511
2.54100,100.11673
2.54150,80.88948232
2.54200,54.03237444
2.54250,26.87007216
2.54300,9.779185327
2.54350,2.149325134
2.54400,-10.05845117
2.54450,-32.03244853
2.54500,-44.85061365
2.54550,-32.33764294
2.54600,-8.532479135
2.54650,-1.207813351
2.54700,-13.11039525
2.54750,-19.51947781
2.54800,-6.396118282
2.54850,12.22074059
2.54900,22.29215604
2.54950,27.17526657
2.55000,34.49993235
2.55050,39.07784847
2.55100,36.3310988
2.55150,35.41551557
2.55200,47.01290307
2.55250,64.71417871
2.55300,70.51287246
2.55350,56.77912411
2.55400,32.6687659
2.55450,12.8311294
2.55500,1.233741911
2.55550,-10.9740344
2.55600,-31.42205971
2.55650,-53.09086266
2.55700,-58.88955641
2.55750,-44.85061365
2.55800,-24.70778274
2.55850,-10.36364558
2.55900,1.233741911
2.55950,16.7986567
2.56000,26.25968334
2.56050,18.62982315
2.56100,4.590880396
2.56150,2.75971395
2.56200,12.22074059
2.56250,15.27268467
2.56300,7.337630065
2.56350,2.454519542
2.56400,8.558407696
2.56450,14.66229585
2.56500,13.44151822
2.56550,10.99996296
2.56600,10.69476855
2.56650,3.675297173
2.56700,-10.05845117
2.56750,-16.16233933
2.56800,-7.616895912
2.56850,1.538936319
2.56900,-0.9026189429
2.56950,-8.837673543
2.57000,-10.66883999
2.57050,-15.85714492
2.57100,-37.52594787
2.57150,-66.21422219
2.57200,-79.03238731
2.57250,-70.18174949
2.57300,-54.00644588
2.57350,-39.96750313
2.57400,-28.37011564
2.57450,-22.57142189
2.57500,-29.59089327
2.57550,-47.90255773
2.57600,-70.18174949
2.57650,-98.56482941
2.57700,-135.7985471
2.57750,-164.1816271
2.57800,-155.3309892
2.57850,-111.3829945
2.57900,-68.65577745
2.57950,-52.78566825
2.58000,-45.46100247
2.58050,-17.07792255
2.58100,25.95448893
2.58150,49.75965274
2.58200,35.72070998
2.58250,2.75971395
2.58300,-21.35064426
2.58350,-29.89608767
2.58400,-31.11686531
2.58450,-27.14933801
2.58500,-9.753256766
2.58550,22.29215604
2.58600,58.61029056
2.58650,88.51934251
2.58700,113.2400895
2.58750,135.2140869
2.58800,146.2010856
2.58850,135.5192813
2.58900,111.4089231
2.58950,95.53881389
2.59000,94.31803626
2.59050,87.60375929
2.59100,60.74665141
2.59150,25.64929453
2.59200,0.9285475033
2.59250,-17.68831137
2.59300,-41.49347517
2.59350,-56.44800114
2.59400,-39.66230872
2.59450,-0.5974245352
2.59500,25.03890571
2.59550,24.4285169
2.59600,17.40904552
2.59650,18.32462874
2.59700,9.779185327
2.59750,-20.74025544
2.59800,-51.25969621
2.59850,-50.34411299
2.59900,-17.99350577
2.59950,15.57787907
2.60000,25.64929453
2.60050,6.72724125
2.60100,-32.33764294
2.60150,-70.4869439
2.60200,-82.99991461
2.60250,-64.68825015
2.60300,-39.05191991
2.60350,-30.8116709
2.60400,-39.05191991
2.60450,-47.59736332
2.60500,-53.70125148
2.60550,-62.24669489
2.60600,-68.35058304
2.60650,-64.07786134
2.60700,-57.36358437
2.60750,-61.63630608
2.60800,-73.84408238
2.60850,-77.20122087
2.60900,-66.82461101
2.60950,-53.70125148
2.61000,-43.32464161
2.61050,-28.37011564
2.61100,-3.95456302
2.61150,23.51293367
2.61200,48.2336807
2.61250,67.46092838
2.61300,76.92195502
2.61350,73.25962213
2.61400,61.66223464
2.61450,54.94795767
2.61500,54.94795767
2.61550,50.06484714
2.61600,32.97396031
2.61650,11.61035177
2.61700,-2.733785389
2.61750,-8.532479135
2.61800,-9.142867951
2.61850,-4.564951835
2.61900,3.675297173
2.61950,8.863602104
2.62000,2.454519542
2.62050,-14.63636729
2.62100,-32.03244853
2.62150,-39.96750313
2.62200,-38.44153109
2.62250,-33.55842057
2.62300,-28.06492123
2.62350,-17.07792255
2.62400,3.675297173
2.62450,25.34410012
2.62500,29.92201623
2.62550,13.44151822
2.62600,-4.870146243
2.62650,-6.701312689
2.62700,2.149325134
2.62750,-1.207813351
2.62800,-25.92856037
2.62850,-53.39605707
2.62900,-64.38305574
2.62950,-58.584362
2.63000,-48.81814095
2.63050,-38.44153109
2.63100,-22.8766163
2.63150,-4.870146243
2.63200,7.642824473
2.63250,12.22074059
2.63300,14.35710144
2.63350,18.32462874
2.63400,20.15579519
2.63450,15.27268467
2.63500,4.285685988
2.63550,-6.701312689
2.63600,-13.11039525
2.63650,-13.72078407
2.63700,-15.2467561
2.63750,-26.23375478
2.63800,-43.62983602
2.63850,-49.12333536
2.63900,-28.98050445
2.63950,4.285685988
2.64000,26.56487775
2.64050,27.17526657
2.64100,21.98696163
2.64150,29.92201623
2.64200,50.67523596
2.64250,68.0713172
2.64300,66.54534516
2.64350,48.2336807
2.64400,32.05837709
2.64450,39.07784847
2.64500,65.32456753
2.64550,83.33103758
2.64600,73.87001094
2.64650,52.81159681
2.64700,50.06484714
2.64750,66.24015075
2.64800,73.56481654
2.64850,54.03237444
2.64900,20.766184
2.64950,-3.344174205
2.65000,-14.33117288
2.65050,-17.07792255
2.65100,-9.753256766
2.65150,13.13632381
2.65200,50.37004155
2.65250,91.876481
2.65300,126.6686435
2.65350,144.6751135
2.65400,142.8439471
2.65450,129.1101987
2.65500,115.071256
2.65550,101.0323132
2.65600,78.44792706
2.65650,47.62329188
2.65700,21.07137841
2.65750,7.642824473
2.65800,1.844130726
2.65850,-6.090923874
2.65900,-20.12986663
2.65950,-40.27269754
2.66000,-63.77266693
2.66050,-77.81160968
2.66100,-67.43499982
2.66150,-31.42205971
2.66200,12.22074059
2.66250,48.2336807
2.66300,74.17520535
2.66350,93.70764744
2.66400,105.6102293
2.66450,105.3050349
2.66500,93.09725863
2.66550,73.87001094
2.66600,50.67523596
2.66650,22.29215604
2.66700,-11.88961762
2.66750,-52.17527944
2.66800,-91.24016362
2.66850,-119.6232435
2.66900,-130.9154366
2.66950,-127.5582981
2.67000,-115.3505218
2.67050,-97.03885737
2.67100,-74.4544712
2.67150,-51.25969621
2.67200,-31.72725412
2.67250,-14.9415617
2.67300,0.3181586879
2.67350,14.66229585
2.67400,32.05837709
2.67450,50.37004155
2.67500,58.61029056
2.67550,47.62329188
2.67600,26.25968334
2.67650,19.24021197
2.67700,33.88954354
2.67750,52.201208
2.67800,57.69470734
2.67850,56.1687353
2.67900,58.91548497
2.67950,59.22067937
2.68000,45.48693103
2.68050,25.95448893
2.68100,14.35710144
2.68150,1.233741911
2.68200,-32.64283734
2.68250,-77.50641528
2.68300,-96.12327415
2.68350,-74.75966561
2.68400,-45.76619688
2.68450,-46.98697451
2.68500,-74.4544712
2.68550,-97.64924618
2.68600,-101.0063847
2.68650,-95.20769092
2.68700,-90.01938599
2.68750,-80.55835935
2.68800,-59.19475081
2.68850,-27.75972682
2.68900,3.064908357
2.68950,24.4285169
2.69000,34.19473794
2.69050,39.99343169
2.69100,52.201208
2.69150,71.42845568
2.69200,83.33103758
2.69250,74.78559417
2.69300,52.5064024
2.69350,34.19473794
2.69400,29.92201623
2.69450,39.07784847
2.69500,57.38951293
2.69550,75.09078857
2.69600,75.70117739
2.69650,51.89601359
2.69700,18.62982315
2.69750,-2.123396574
2.69800,-13.72078407
2.69850,-32.33764294
2.69900,-53.70125148
2.69950,-47.29216891
2.70000,-0.9026189429
2.70050,55.55834648
2.70100,84.85700962
2.70150,83.33103758
2.70200,68.37651161
2.70250,46.40251425
2.70300,7.642824473
2.70350,-43.62983602
2.70400,-85.13627547
2.70450,-97.95444059
2.70500,-85.44146988
2.70550,-63.16227811
2.70600,-43.32464161
2.70650,-28.37011564
2.70700,-12.50000644
2.70750,7.94801888
2.70800,29.31162742
2.70850,43.04537577
2.70900,49.45445833
2.70950,57.08431852
2.71000,65.93495634
2.71050,62.27262345
2.71100,36.02590439
2.71150,-1.207813351
2.71200,-29.59089327
2.71250,-42.40905839
2.71300,-44.54541924
2.71350,-37.22075346
2.71400,-13.41558966
2.71450,28.09084979
2.71500,76.0063718
2.71550,112.9348951
2.71600,126.9738379
2.71650,123.6166994
2.71700,119.3439777
2.71750,125.1426714
2.71800,130.6361708
2.71850,121.785533
2.71900,100.4219244
2.71950,82.72064877
2.72000,69.59728924
2.72050,47.62329188
2.72100,16.7986567
2.72150,-1.513007758
2.72200,-0.9026189429
2.72250,-5.175340651
2.72300,-31.42205971
2.72350,-62.5518893
2.72400,-73.53888798
2.72450,-72.31811035
2.72500,-87.57783073
2.72550,-123.2855764
2.72600,-156.2465725
2.72650,-169.369932
2.72700,-167.5387655
2.72750,-158.6881277
2.72800,-141.9024353
2.72850,-119.9284379
2.72900,-100.7011903
2.72950,-83.30510902
2.73000,-55.22722351
2.73050,-13.72078407
2.73100,23.51293367
2.73150,39.07784847
2.73200,33.88954354
2.73250,24.12332249
2.73300,20.766184
2.73350,21.07137841
2.73400,18.32462874
2.73450,13.44151822
2.73500,14.05190703
2.73550,23.81812808
2.73600,37.55187643
2.73650,47.62329188
2.73700,54.94795767
2.73750,68.0713172
2.73800,92.48686981
2.73850,124.837477
2.73900,155.3569178
2.73950,172.752999
2.74000,167.5646941
2.74050,141.0127806
2.74100,106.5258126
2.74150,81.19467673
2.74200,69.90248364
2.74250,64.40898431
2.74300,55.86354089
2.74350,47.31809747
2.74400,46.70770866
2.74450,53.42198563
2.74500,56.77912411
2.74550,44.5713478
2.74600,18.62982315
2.74650,-6.090923874
2.74700,-22.26622748
2.74750,-35.69478142
2.74800,-53.39605707
2.74850,-67.43499982
2.74900,-61.33111167
2.74950,-35.69478142
2.75000,-5.480535058
2.75050,19.54540637
2.75100,40.6038205
2.75150,51.28562477
2.75200,37.85707084
2.75250,3.675297173
2.75300,-26.53894919
2.75350,-34.47400379
2.75400,-26.23375478
2.75450,-13.72078407
2.75500,8.863602104
2.75550,48.2336807
2.75600,87.60375929
2.75650,101.0323132
2.75700,87.29856488
2.75750,68.98690042
2.75800,61.35704023
2.75850,58.30509615
2.75900,47.62329188
2.75950,25.95448893
2.76000,3.064908357
2.76050,-9.448062359
2.76100,-6.090923874
2.76150,5.811658027
2.76200,14.35710144
2.76250,18.32462874
2.76300,29.61682183
2.76350,50.37004155
2.76400,61.35704023
2.76450,40.2986261
2.76500,-7.006507097
2.76550,-53.09086266
2.76600,-74.4544712
2.76650,-68.96097186
2.76700,-46.07139128
2.76750,-19.51947781
2.76800,-2.733785389
2.76850,-0.5974245352
2.76900,-4.259757428
2.76950,-1.513007758
2.77000,0.3181586879
2.77050,-20.12986663
2.77100,-70.79213831
2.77150,-126.6427149
2.77200,-156.8569613
2.77250,-158.0777389
2.77300,-153.4998228
2.77350,-158.6881277
2.77400,-165.4024047
2.77450,-158.3829333
2.77500,-136.1037416
2.77550,-107.1102728
2.77600,-75.06486001
2.77650,-37.52594787
2.77700,-0.2922301275
2.77750,24.4285169
2.77800,35.41551557
2.77850,45.18173662
2.77900,63.18820667
2.77950,83.33103758
2.78000,99.8115356
2.78050,119.9543665
2.78100,147.1166688
2.78150,164.8179444
2.78200,153.5257514
2.78250,119.6491721
2.78300,88.21414811
2.78350,71.42845568
2.78400,57.99990174
2.78450,37.55187643
2.78500,15.88307348
2.78550,-0.9026189429
2.78600,-18.60389459
2.78650,-36.61036464
2.78700,-37.52594787
2.78750,-5.175340651
2.78800,44.87654221
2.78850,77.53234384
2.78900,69.29209483
2.78950,30.22721064
2.79000,-16.77272814
2.79050,-59.80513963
2.79100,-99.48041263
2.79150,-135.7985471
2.79200,-163.5712382
2.79250,-177.9153754
2.79300,-179.7465419
2.79350,-169.9803208
2.79400,-148.3115179
2.79450,-115.9609106
2.79500,-80.25316495
2.79550,-52.78566825
2.79600,-43.32464161
2.79650,-53.70125148
2.79700,-80.86355376
2.79750,-115.0453274
2.79800,-143.4284073
2.79850,-153.8050172
2.79900,-143.1232129
2.79950,-119.3180491
2.80000,-94.90249651
2.80050,-78.72719291
2.80100,-75.67524883
2.80150,-86.96744191
2.80200,-108.025856
2.80250,-129.3894646
2.80300,-141.9024353
2.80350,-142.2076297
2.80400,-132.4414087
2.80450,-116.2661051
2.80500,-96.42846855
2.80550,-74.4544712
2.80600,-54.00644588
2.80650,-37.52594787
2.80700,-21.96103307
2.80750,-1.207813351
2.80800,24.4285169
2.80850,43.35057017
2.80900,47.31809747
2.80950,42.74018136
2.81000,42.74018136
2.81050,48.5388751
2.81100,51.59081918
2.81150,51.89601359
2.81200,61.66223464
2.81250,86.68817607
2.81300,119.6491721
2.81350,151.3893905
2.81400,177.3309152
2.81450,190.4542747
2.81500,185.2659698
2.81550,169.701055
2.81600,159.0192507
2.81650,149.5582241
2.81700,117.5128112
2.81750,55.86354089
2.81800,-5.785729466
2.81850,-35.08439261
2.81900,-33.25322616
2.81950,-24.40258834
2.82000,-20.43506104
2.82050,-21.04544985
2.82100,-26.53894919
2.82150,-35.38958701
2.82200,-34.47400379
2.82250,-18.60389459
2.82300,-5.480535058
2.82350,-7.92209032
2.82400,-7.006507097
2.82450,18.93501756
2.82500,47.01290307
2.82550,33.27915472
2.82600,-21.96103307
2.82650,-71.09733271
2.82700,-86.05185869
2.82750,-92.76613566
2.82800,-119.3180491
2.82850,-149.2271011
2.82900,-150.4478787
2.82950,-127.8634925
2.83000,-110.4674113
2.83050,-103.4479399
2.83100,-86.05185869
2.83150,-49.42852977
2.83200,-13.11039525
2.83250,4.285685988
2.83300,10.69476855
2.83350,24.7337113
2.83400,55.86354089
2.83450,96.75959152
2.83500,133.077726
2.83550,154.1361402
2.83600,158.4088619
2.83650,152.9153625
2.83700,144.3699191
2.83750,130.025782
2.83800,107.4413958
2.83850,82.41545436
2.83900,64.1037899
2.83950,51.89601359
2.84000,38.16226524
2.84050,21.07137841
2.84100,6.422046842
2.84150,-6.090923874
2.84200,-25.31817156
2.84250,-48.51294654
2.84300,-57.66877878
2.84350,-37.52594787
2.84400,-0.5974245352
2.84450,22.29215604
2.84500,18.32462874
2.84550,2.75971395
2.84600,-2.123396574
2.84650,5.506463619
2.84700,11.91554618
2.84750,7.337630065
2.84800,-6.701312689
2.84850,-29.89608767
2.84900,-61.94150048
2.84950,-93.98691329
2.85000,-110.1622169
2.85050,-106.8050784
2.85100,-98.56482941
2.85150,-97.34405178
2.85200,-92.15574685
2.85250,-67.74019423
2.85300,-27.45453241
2.85350,9.779185327
2.85400,36.3310988
2.85450,59.52587378
2.85500,80.27909351
2.85550,89.43492574
2.85600,83.63623199
2.85650,73.56481654
2.85700,65.93495634
2.85750,51.28562477
2.85800,21.68176723
2.85850,-12.80520084
2.85900,-35.38958701
2.85950,-41.49347517
2.86000,-43.32464161
2.86050,-52.17527944
2.86100,-65.29863897
2.86150,-74.14927679
2.86200,-75.06486001
2.86250,-73.84408238
2.86300,-78.4219985
2.86350,-86.96744191
2.86400,-85.74666428
2.86450,-64.38305574
2.86500,-30.50647649
2.86550,-4.259757428
2.86600,4.896074803
2.86650,6.72724125
2.86700,9.168796511
2.86750,7.642824473
2.86800,-2.123396574
2.86850,-9.448062359
2.86900,0.01296428019
2.86950,21.37657282
2.87000,34.80512676
2.87050,29.61682183
2.87100,16.7986567
2.87150,14.35710144
2.87200,28.09084979
2.87250,47.31809747
2.87300,57.08431852
2.87350,50.06484714
2.87400,31.75318268
2.87450,12.8311294
2.87500,-6.090923874
2.87550,-32.64283734
2.87600,-60.72072285
2.87650,-72.62330475
2.87700,-64.99344456
2.87750,-61.94150048
2.87800,-79.94797054
2.87850,-100.7011903
2.87900,-99.17521822
2.87950,-83.61030343
2.88000,-80.25316495
2.88050,-86.05185869
2.88100,-71.70772153
2.88150,-32.03244853
2.88200,0.01296428019
2.88250,4.285685988
2.88300,3.064908357
2.88350,24.12332249
2.88400,65.32456753
2.88450,106.831007
2.88500,140.0971974
2.88550,163.9023612
2.88600,172.1426102
2.88650,163.9023612
2.88700,148.9478352
2.88750,132.4673372
2.88800,104.3894517
2.88850,59.52587378
2.88900,15.57787907
2.88950,-7.006507097
2.89000,-10.66883999
2.89050,-10.05845117
2.89100,-10.05845117
2.89150,-5.175340651
2.89200,2.75971395
2.89250,7.337630065
2.89300,8.558407696
2.89350,15.57787907
2.89400,37.85707084
2.89450,75.09078857
2.89500,112.3245063
2.89550,127.5842267
2.89600,114.4608672
2.89650,92.79206422
2.89700,86.99337048
2.89750,91.876481
2.89800,78.75312147
2.89850,40.90901491
2.89900,5.811658027
2.89950,-7.616895912
2.90000,-17.68831137
2.90050,-47.29216891
2.90100,-90.62977481
2.90150,-128.168687
2.90200,-157.1621557
2.90250,-183.7140692
2.90300,-197.4478175
2.90350,-187.9867909
2.90400,-172.1166817
2.90450,-175.7790146
2.90500,-193.1750958
2.90550,-192.564707
2.90600,-165.0972103
2.90650,-140.0712689
2.90700,-140.6816577
2.90750,-149.2271011
2.90800,-133.3569919
2.90850,-90.62977481
2.90900,-48.81814095
2.90950,-30.20128208
2.91000,-32.94803175
2.91050,-40.88308635
2.91100,-42.40905839
2.91150,-33.86361497
2.91200,-15.2467561
2.91250,6.422046842
2.91300,21.98696163
2.91350,28.3960442
2.91400,35.11032117
2.91450,49.45445833
2.91500,61.96742904
2.91550,55.86354089
2.91600,36.02590439
2.91650,29.00643301
2.91700,50.06484714
2.91750,80.88948232
2.91800,93.40245304
2.91850,88.51934251
2.91900,87.9089537
2.91950,99.20114678
2.92000,108.0517846
2.92050,105.9154238
2.92100,101.3375076
2.92150,96.45439711
2.92200,77.53234384
2.92250,40.90901491
2.92300,10.99996296
2.92350,11.91554618
2.92400,36.3310988
2.92450,52.81159681
2.92500,43.96095899
2.92550,20.15579519
2.92600,-0.2922301275
2.92650,-10.36364558
2.92700,-10.9740344
2.92750,-7.616895912
2.92800,-6.090923874
2.92850,-7.311701505
2.92900,-7.006507097
2.92950,-0.2922301275
2.93000,13.44151822
2.93050,32.6687659
2.93100,58.91548497
2.93150,90.96089778
2.93200,122.7011162
2.93250,145.5906968
2.93300,158.7140563
2.93350,167.8698885
2.93400,172.1426102
2.93450,163.2919724
2.93500,137.0452533
2.93550,100.11673
2.93600,66.54534516
2.93650,45.18173662
