type,name,time_units,begin_time,frequency,count,units
signal,"Noraxon MyoMotion-Segments-Upper arm RT-Course","s",0.0000,200,4916,"deg"

time,value
0.0000,-10.27497082
0.0050,-10.28635669
0.0100,-10.29774257
0.0150,-10.30912846
0.0200,-10.32139092
0.0250,-10.33445385
0.0300,-10.34822811
0.0350,-10.36261424
0.0400,-10.37750501
0.0450,-10.39278839
0.0500,-10.40835053
0.0550,-10.424078
0.0600,-10.43985933
0.0650,-10.45558667
0.0700,-10.47115735
0.0750,-10.4864745
0.0800,-10.50144749
0.0850,-10.51599246
0.0900,-10.5300318
0.0950,-10.54349253
0.1000,-10.55630472
0.1050,-10.5684002
0.1100,-10.57971182
0.1150,-10.5901739
0.1200,-10.59972381
0.1250,-10.60830448
0.1300,-10.61586691
0.1350,-10.62237285
0.1400,-10.62779774
0.1450,-10.63213351
0.1500,-10.6353912
0.1550,-10.65111479
0.1600,-10.66587221
0.1650,-10.67971901
0.1700,-10.69268045
0.1750,-10.70494303
0.1800,-10.7163997
0.1850,-10.72725357
0.1900,-10.73774163
0.1950,-10.74780643
0.2000,-10.75761919
0.2050,-10.76739367
0.2100,-10.7773171
0.2150,-10.78735718
0.2200,-10.79775302
0.2250,-10.80860612
0.2300,-10.81990793
0.2350,-10.83168066
0.2400,-10.84409832
0.2450,-10.85701143
0.2500,-10.87059104
0.2550,-10.88469827
0.2600,-10.89927965
0.2650,-10.91428147
0.2700,-10.92953688
0.2750,-10.94506759
0.2800,-10.96068571
0.2850,-10.97627971
0.2900,-10.99176296
0.2950,-11.00719812
0.3000,-11.02242001
0.3050,-11.03734194
0.3100,-11.05170557
0.3150,-11.06570506
0.3200,-11.07927986
0.3250,-11.09224701
0.3300,-11.10468047
0.3350,-11.11672947
0.3400,-11.12823818
0.3450,-11.13930214
0.3500,-11.14994401
0.3550,-11.16018675
0.3600,-11.16997709
0.3650,-11.1794239
0.3700,-11.18837723
0.3750,-11.19706894
0.3800,-11.20548992
0.3850,-11.21352266
0.3900,-11.22119739
0.3950,-11.22847275
0.4000,-11.23545148
0.4050,-11.24222252
0.4100,-11.24868214
0.4150,-11.25502396
0.4200,-11.26118454
0.4250,-11.26710959
0.4300,-11.27282044
0.4350,-11.27827738
0.4400,-11.28346169
0.4450,-11.28837658
0.4500,-11.29303428
0.4550,-11.29752385
0.4600,-11.30175965
0.4650,-11.3057069
0.4700,-11.30944573
0.4750,-11.31297874
0.4800,-11.31654027
0.4850,-11.32005499
0.4900,-11.32352626
0.4950,-11.32708887
0.5000,-11.33079754
0.5050,-11.33458108
0.5100,-11.33829382
0.5150,-11.3419019
0.5200,-11.34547007
0.5250,-11.34893989
0.5300,-11.35224005
0.5350,-11.35535131
0.5400,-11.35805163
0.5450,-11.36044031
0.5500,-11.36235581
0.5550,-11.36368256
0.5600,-11.36442822
0.5650,-11.36459743
0.5700,-11.36441206
0.5750,-11.36386701
0.5800,-11.36310828
0.5850,-11.36224536
0.5900,-11.36121415
0.5950,-11.35999007
0.6000,-11.3586003
0.6050,-11.35702666
0.6100,-11.35535111
0.6150,-11.35356346
0.6200,-11.35163966
0.6250,-11.34981799
0.6300,-11.34810148
0.6350,-11.34655557
0.6400,-11.34550175
0.6450,-11.34470427
0.6500,-11.34448334
0.6550,-11.34485007
0.6600,-11.34595578
0.6650,-11.34799181
0.6700,-11.35102798
0.6750,-11.35501658
0.6800,-11.36007059
0.6850,-11.36618038
0.6900,-11.37330736
0.6950,-11.3814202
0.7000,-11.39056369
0.7050,-11.40073384
0.7100,-11.41194641
0.7150,-11.42419484
0.7200,-11.43740499
0.7250,-11.45169443
0.7300,-11.46689009
0.7350,-11.48299375
0.7400,-11.49975777
0.7450,-11.51719336
0.7500,-11.53505983
0.7550,-11.55314599
0.7600,-11.57136838
0.7650,-11.58951605
0.7700,-11.60759719
0.7750,-11.6255507
0.7800,-11.64320788
0.7850,-11.66067381
0.7900,-11.67774305
0.7950,-11.69445467
0.8000,-11.71075029
0.8050,-11.72679511
0.8100,-11.74256359
0.8150,-11.75833552
0.8200,-11.7738693
0.8250,-11.7894143
0.8300,-11.80494555
0.8350,-11.82061585
0.8400,-11.83666927
0.8450,-11.85311751
0.8500,-11.87008473
0.8550,-11.8877993
0.8600,-11.90601947
0.8650,-11.92504947
0.8700,-11.94470208
0.8750,-11.96483657
0.8800,-11.98544109
0.8850,-12.00648043
0.8900,-12.0280544
0.8950,-12.05008907
0.9000,-12.07259236
0.9050,-12.09585864
0.9100,-12.11988672
0.9150,-12.14461652
0.9200,-12.17034888
0.9250,-12.19688199
0.9300,-12.22426526
0.9350,-12.25260255
0.9400,-12.28170824
0.9450,-12.31177162
0.9500,-12.34269948
0.9550,-12.3746821
0.9600,-12.40753085
0.9650,-12.44136045
0.9700,-12.47604851
0.9750,-12.51187595
0.9800,-12.54871735
0.9850,-12.58674691
0.9900,-12.62601383
0.9950,-12.6667058
1.0000,-12.70885579
1.0050,-12.75242911
1.0100,-12.79755961
1.0150,-12.84412457
1.0200,-12.8920256
1.0250,-12.94115558
1.0300,-12.99132545
1.0350,-13.04256571
1.0400,-13.09480312
1.0450,-13.14769919
1.0500,-13.20150913
1.0550,-13.25583659
1.0600,-13.31067077
1.0650,-13.3660262
1.0700,-13.42170344
1.0750,-13.47758519
1.0800,-13.5336819
1.0850,-13.58976489
1.0900,-13.64589692
1.0950,-13.70205107
1.1000,-13.75810611
1.1050,-13.81390632
1.1100,-13.86945868
1.1150,-13.92462618
1.1200,-13.97961516
1.1250,-14.03418686
1.1300,-14.08857766
1.1350,-14.14277543
1.1400,-14.19682815
1.1450,-14.25061949
1.1500,-14.30413325
1.1550,-14.35749401
1.1600,-14.41095366
1.1650,-14.46443218
1.1700,-14.51781167
1.1750,-14.57124446
1.1800,-14.62439515
1.1850,-14.6772817
1.1900,-14.72972347
1.1950,-14.78184636
1.2000,-14.83352247
1.2050,-14.88444902
1.2100,-14.93472929
1.2150,-14.98445831
1.2200,-15.03349048
1.2250,-15.0819541
1.2300,-15.12977895
1.2350,-15.17713467
1.2400,-15.22415773
1.2450,-15.27097102
1.2500,-15.31770737
1.2550,-15.3643221
1.2600,-15.41087293
1.2650,-15.45739586
1.2700,-15.50409367
1.2750,-15.55068766
1.2800,-15.59728308
1.2850,-15.64401625
1.2900,-15.69083201
1.2950,-15.7379393
1.3000,-15.78527814
1.3050,-15.83283826
1.3100,-15.88083294
1.3150,-15.92935521
1.3200,-15.9784476
1.3250,-16.02801378
1.3300,-16.07832344
1.3350,-16.12923526
1.3400,-16.18066785
1.3450,-16.23272407
1.3500,-16.28494122
1.3550,-16.33744307
1.3600,-16.3900831
1.3650,-16.44264001
1.3700,-16.49498848
1.3750,-16.54708731
1.3800,-16.59860193
1.3850,-16.64956868
1.3900,-16.69984831
1.3950,-16.74919299
1.4000,-16.79758663
1.4050,-16.84507056
1.4100,-16.8915707
1.4150,-16.93710331
1.4200,-16.98168941
1.4250,-17.02546659
1.4300,-17.06832013
1.4350,-17.11049868
1.4400,-17.15213316
1.4450,-17.19346637
1.4500,-17.23468206
1.4550,-17.27585123
1.4600,-17.31694219
1.4650,-17.35794141
1.4700,-17.39883841
1.4750,-17.43961941
1.4800,-17.48049223
1.4850,-17.52132201
1.4900,-17.56220404
1.4950,-17.60288166
1.5000,-17.64351385
1.5050,-17.68419692
1.5100,-17.72480275
1.5150,-17.76536122
1.5200,-17.80587605
1.5250,-17.84643451
1.5300,-17.8869611
1.5350,-17.92744486
1.5400,-17.96778087
1.5450,-18.00804892
1.5500,-18.04787441
1.5550,-18.08744529
1.5600,-18.12672187
1.5650,-18.16563854
1.5700,-18.20402417
1.5750,-18.24195458
1.5800,-18.27957208
1.5850,-18.31670697
1.5900,-18.35351967
1.5950,-18.38988603
1.6000,-18.42570799
1.6050,-18.46115955
1.6100,-18.49591793
1.6150,-18.52994961
1.6200,-18.56323753
1.6250,-18.59582537
1.6300,-18.62752837
1.6350,-18.65827843
1.6400,-18.68800776
1.6450,-18.7168459
1.6500,-18.74494311
1.6550,-18.77250488
1.6600,-18.79955276
1.6650,-18.82625246
1.6700,-18.85250315
1.6750,-18.87835131
1.6800,-18.90387998
1.6850,-18.92898703
1.6900,-18.95367515
1.6950,-18.9779653
1.7000,-19.00188693
1.7050,-19.02542023
1.7100,-19.04867525
1.7150,-19.07172075
1.7200,-19.09461044
1.7250,-19.1174007
1.7300,-19.14044278
1.7350,-19.16342064
1.7400,-19.18655992
1.7450,-19.20965255
1.7500,-19.23278475
1.7550,-19.25594928
1.7600,-19.27915357
1.7650,-19.30250981
1.7700,-19.32590604
1.7750,-19.34939234
1.7800,-19.37283024
1.7850,-19.39628692
1.7900,-19.41949356
1.7950,-19.44263787
1.8000,-19.46554533
1.8050,-19.48803722
1.8100,-19.51017061
1.8150,-19.53180787
1.8200,-19.55294164
1.8250,-19.57365363
1.8300,-19.59409568
1.8350,-19.6141512
1.8400,-19.6340735
1.8450,-19.65376469
1.8500,-19.67333073
1.8550,-19.69275166
1.8600,-19.71193161
1.8650,-19.7306952
1.8700,-19.74920137
1.8750,-19.76729595
1.8800,-19.7850057
1.8850,-19.8024381
1.8900,-19.81946511
1.8950,-19.83594642
1.9000,-19.85194735
1.9050,-19.86719374
1.9100,-19.88179855
1.9150,-19.89585077
1.9200,-19.90943733
1.9250,-19.92238432
1.9300,-19.93476815
1.9350,-19.9466263
1.9400,-19.95816544
1.9450,-19.96940437
1.9500,-19.98041239
1.9550,-19.99122144
1.9600,-20.00204794
1.9650,-20.01307067
1.9700,-20.02444989
1.9750,-20.03604474
1.9800,-20.04817608
1.9850,-20.06102325
1.9900,-20.07434318
1.9950,-20.08821901
2.0000,-20.10251186
2.0050,-20.11718715
2.0100,-20.13211048
2.0150,-20.14713664
2.0200,-20.1623053
2.0250,-20.17752929
2.0300,-20.19267773
2.0350,-20.20795589
2.0400,-20.22299537
2.0450,-20.23795758
2.0500,-20.25247055
2.0550,-20.26630578
2.0600,-20.2792874
2.0650,-20.29122047
2.0700,-20.30206201
2.0750,-20.31173082
2.0800,-20.32022075
2.0850,-20.32754556
2.0900,-20.33365043
2.0950,-20.33855872
2.1000,-20.34245572
2.1050,-20.3453843
2.1100,-20.3475221
2.1150,-20.34887527
2.1200,-20.34937719
2.1250,-20.34884775
2.1300,-20.34722122
2.1350,-20.34463569
2.1400,-20.34090013
2.1450,-20.33596808
2.1500,-20.33010287
2.1550,-20.32326375
2.1600,-20.31561628
2.1650,-20.30749732
2.1700,-20.29876319
2.1750,-20.28977651
2.1800,-20.28035135
2.1850,-20.27043475
2.1900,-20.26001266
2.1950,-20.24918431
2.2000,-20.23792667
2.2050,-20.22644608
2.2100,-20.21455288
2.2150,-20.20216478
2.2200,-20.18903573
2.2250,-20.17513585
2.2300,-20.16051635
2.2350,-20.14512159
2.2400,-20.12898153
2.2450,-20.11199823
2.2500,-20.09406877
2.2550,-20.07507265
2.2600,-20.0548285
2.2650,-20.03303945
2.2700,-20.00973539
2.2750,-19.98506774
2.2800,-19.95869442
2.2850,-19.93060551
2.2900,-19.90080908
2.2950,-19.8693349
2.3000,-19.83613347
2.3050,-19.80117045
2.3100,-19.76438384
2.3150,-19.72581163
2.3200,-19.68514938
2.3250,-19.64256976
2.3300,-19.59809667
2.3350,-19.55173329
2.3400,-19.50362447
2.3450,-19.45382624
2.3500,-19.40254522
2.3550,-19.34994449
2.3600,-19.29616953
2.3650,-19.24123112
2.3700,-19.1852518
2.3750,-19.12831744
2.3800,-19.07044006
2.3850,-19.01154701
2.3900,-18.95177107
2.3950,-18.89119333
2.4000,-18.82980444
2.4050,-18.76790141
2.4100,-18.70556327
2.4150,-18.64286874
2.4200,-18.57999081
2.4250,-18.51707705
2.4300,-18.45471144
2.4350,-18.39285035
2.4400,-18.33150086
2.4450,-18.27100506
2.4500,-18.21125987
2.4550,-18.15235444
2.4600,-18.094244
2.4650,-18.0367792
2.4700,-17.97975691
2.4750,-17.92276139
2.4800,-17.8657011
2.4850,-17.80833707
2.4900,-17.75057994
2.4950,-17.69251593
2.5000,-17.63396003
2.5050,-17.57468996
2.5100,-17.51482959
2.5150,-17.45424863
2.5200,-17.39323434
2.5250,-17.33193937
2.5300,-17.27031921
2.5350,-17.20876207
2.5400,-17.14719086
2.5450,-17.08591164
2.5500,-17.02481296
2.5550,-16.96389425
2.5600,-16.90311214
2.5650,-16.84264588
2.5700,-16.7825624
2.5750,-16.72270597
2.5800,-16.66316605
2.5850,-16.60395793
2.5900,-16.5450426
2.5950,-16.48620505
2.6000,-16.4275077
2.6050,-16.36889672
2.6100,-16.3103613
2.6150,-16.25186567
2.6200,-16.19349233
2.6250,-16.13518708
2.6300,-16.07687058
2.6350,-16.01862178
2.6400,-15.9604454
2.6450,-15.90246291
2.6500,-15.84470616
2.6550,-15.78725967
2.6600,-15.73017123
2.6650,-15.67355352
2.6700,-15.61741656
2.6750,-15.56170988
2.6800,-15.50640822
2.6850,-15.4517142
2.6900,-15.397778
2.6950,-15.34457285
2.7000,-15.29227115
2.7050,-15.24064134
2.7100,-15.18961584
2.7150,-15.13937903
2.7200,-15.08987928
2.7250,-15.04141181
2.7300,-14.99343082
2.7350,-14.94597851
2.7400,-14.89890756
2.7450,-14.85193497
2.7500,-14.80505204
2.7550,-14.75789584
2.7600,-14.7104648
2.7650,-14.66259704
2.7700,-14.61440385
2.7750,-14.56619155
2.7800,-14.51804826
2.7850,-14.47009928
2.7900,-14.4223755
2.7950,-14.37480045
2.8000,-14.32745292
2.8050,-14.28047939
2.8100,-14.23388948
2.8150,-14.18784216
2.8200,-14.14244166
2.8250,-14.09779633
2.8300,-14.05418176
2.8350,-14.01124505
2.8400,-13.96930137
2.8450,-13.92817325
2.8500,-13.88820866
2.8550,-13.84962858
2.8600,-13.81250676
2.8650,-13.77659367
2.8700,-13.74185287
2.8750,-13.70808684
2.8800,-13.67536623
2.8850,-13.64340459
2.8900,-13.61217737
2.8950,-13.58169428
2.9000,-13.55193711
2.9050,-13.52288183
2.9100,-13.49451829
2.9150,-13.46688588
2.9200,-13.4399058
2.9250,-13.4135178
2.9300,-13.38765345
2.9350,-13.36232743
2.9400,-13.33743952
2.9450,-13.31282295
2.9500,-13.28864218
2.9550,-13.26492481
2.9600,-13.2415376
2.9650,-13.21830654
2.9700,-13.19510408
2.9750,-13.17184425
2.9800,-13.1483793
2.9850,-13.12450027
2.9900,-13.1000116
2.9950,-13.07484624
3.0000,-13.04870427
3.0050,-13.02161565
3.0100,-12.99379549
3.0150,-12.96531888
3.0200,-12.93626766
3.0250,-12.90635497
3.0300,-12.87580151
3.0350,-12.84433553
3.0400,-12.81205592
3.0450,-12.77904157
3.0500,-12.7453111
3.0550,-12.71095504
3.0600,-12.6759
3.0650,-12.64015708
3.0700,-12.60385867
3.0750,-12.5666423
3.0800,-12.52840784
3.0850,-12.48926713
3.0900,-12.44913809
3.0950,-12.40793813
3.1000,-12.36568575
3.1050,-12.32237942
3.1100,-12.27789854
3.1150,-12.23223118
3.1200,-12.18507056
3.1250,-12.13666795
3.1300,-12.08694257
3.1350,-12.03642628
3.1400,-11.98503279
3.1450,-11.93303567
3.1500,-11.88073063
3.1550,-11.82807439
3.1600,-11.7754199
3.1650,-11.7229587
3.1700,-11.67062638
3.1750,-11.61869288
3.1800,-11.56695754
3.1850,-11.51539751
3.1900,-11.46399508
3.1950,-11.41281471
3.2000,-11.36179445
3.2050,-11.31081286
3.2100,-11.25976534
3.2150,-11.208666
3.2200,-11.15769174
3.2250,-11.10695241
3.2300,-11.05655672
3.2350,-11.00637901
3.2400,-10.95662633
3.2450,-10.90712679
3.2500,-10.85788038
3.2550,-10.80856861
3.2600,-10.75934486
3.2650,-10.71005939
3.2700,-10.66080116
3.2750,-10.61140464
3.2800,-10.56189782
3.2850,-10.51216442
3.2900,-10.46216569
3.2950,-10.41174588
3.3000,-10.36090404
3.3050,-10.30969015
3.3100,-10.25772537
3.3150,-10.20475424
3.3200,-10.15098903
3.3250,-10.09629695
3.3300,-10.04070689
3.3350,-9.984291743
3.3400,-9.927028845
3.3450,-9.868945841
3.3500,-9.809911802
3.3550,-9.750089942
3.3600,-9.689547608
3.3650,-9.628302721
3.3700,-9.56646511
3.3750,-9.50420913
3.3800,-9.441676201
3.3850,-9.378845208
3.3900,-9.315661434
3.3950,-9.252202186
3.4000,-9.188440894
3.4050,-9.124456912
3.4100,-9.060471936
3.4150,-8.996559884
3.4200,-8.932992914
3.4250,-8.869612089
3.4300,-8.806702395
3.4350,-8.744129949
3.4400,-8.68206919
3.4450,-8.620652506
3.4500,-8.559890122
3.4550,-8.499968238
3.4600,-8.441007145
3.4650,-8.382848717
3.4700,-8.325785039
3.4750,-8.269911641
3.4800,-8.215423271
3.4850,-8.162251573
3.4900,-8.110670274
3.4950,-8.06063325
3.5000,-8.012031345
3.5050,-7.964922019
3.5100,-7.919451069
3.5150,-7.875800816
3.5200,-7.833844812
3.5250,-7.793531567
3.5300,-7.754845551
3.5350,-7.717744054
3.5400,-7.682102404
3.5450,-7.64802686
3.5500,-7.615015368
3.5550,-7.583399872
3.5600,-7.55296047
3.5650,-7.52360894
3.5700,-7.495066941
3.5750,-7.467295823
3.5800,-7.440240904
3.5850,-7.413782545
3.5900,-7.387833095
3.5950,-7.362082665
3.6000,-7.33659792
3.6050,-7.311307785
3.6100,-7.286067117
3.6150,-7.260983504
3.6200,-7.235681361
3.6250,-7.210107641
3.6300,-7.18426948
3.6350,-7.158092919
3.6400,-7.131678633
3.6450,-7.104950241
3.6500,-7.077818533
3.6550,-7.050531165
3.6600,-7.023221428
3.6650,-6.995768155
3.6700,-6.968106545
3.6750,-6.940303136
3.6800,-6.91243039
3.6850,-6.884544115
3.6900,-6.856753982
3.6950,-6.828964015
3.7000,-6.801324105
3.7050,-6.773726457
3.7100,-6.746202298
3.7150,-6.71882221
3.7200,-6.691521599
3.7250,-6.664447239
3.7300,-6.637539389
3.7350,-6.610910143
3.7400,-6.584598319
3.7450,-6.558793826
3.7500,-6.533397034
3.7550,-6.508347242
3.7600,-6.483552542
3.7650,-6.459133656
3.7700,-6.43488257
3.7750,-6.410563541
3.7800,-6.386033877
3.7850,-6.361327397
3.7900,-6.336204659
3.7950,-6.310609371
3.8000,-6.284483357
3.8050,-6.257758167
3.8100,-6.230478234
3.8150,-6.202186842
3.8200,-6.173004421
3.8250,-6.143052713
3.8300,-6.112192187
3.8350,-6.080448204
3.8400,-6.04774154
3.8450,-6.014015558
3.8500,-5.979473179
3.8550,-5.943774838
3.8600,-5.906766795
3.8650,-5.868391146
3.8700,-5.828770656
3.8750,-5.788077374
3.8800,-5.746179388
3.8850,-5.703297985
3.8900,-5.659424009
3.8950,-5.614899337
3.9000,-5.569683838
3.9050,-5.523762338
3.9100,-5.477386777
3.9150,-5.430678146
3.9200,-5.383564455
3.9250,-5.336221174
3.9300,-5.288654007
3.9350,-5.240988013
3.9400,-5.19334857
3.9450,-5.145761297
3.9500,-5.098359884
3.9550,-5.051169877
3.9600,-5.004173124
3.9650,-4.957801886
3.9700,-4.911995413
3.9750,-4.867073707
3.9800,-4.822960729
3.9850,-4.779744899
3.9900,-4.737699772
3.9950,-4.696848948
4.0000,-4.657402783
4.0050,-4.619565004
4.0100,-4.58333165
4.0150,-4.548865851
4.0200,-4.516257936
4.0250,-4.485603542
4.0300,-4.457155774
4.0350,-4.430839459
4.0400,-4.406783992
4.0450,-4.384810715
4.0500,-4.365022344
4.0550,-4.347402194
4.0600,-4.331941378
4.0650,-4.318446291
4.0700,-4.306987569
4.0750,-4.297678162
4.0800,-4.289995207
4.0850,-4.284037432
4.0900,-4.27948064
4.0950,-4.276209354
4.1000,-4.274206882
4.1050,-4.273715583
4.1100,-4.274437026
4.1150,-4.27663379
4.1200,-4.28000679
4.1250,-4.284390479
4.1300,-4.289929081
4.1350,-4.296654261
4.1400,-4.304525426
4.1450,-4.313545392
4.1500,-4.323732566
4.1550,-4.33482333
4.1600,-4.34699283
4.1650,-4.360260354
4.1700,-4.374774734
4.1750,-4.390346937
4.1800,-4.406971908
4.1850,-4.424531558
4.1900,-4.443009276
4.1950,-4.462315073
4.2000,-4.482310731
4.2050,-4.502752028
4.2100,-4.523678035
4.2150,-4.54478041
4.2200,-4.566233492
4.2250,-4.588020451
4.2300,-4.610235085
4.2350,-4.632942487
4.2400,-4.656213853
4.2450,-4.680185231
4.2500,-4.705182125
4.2550,-4.731130273
4.2600,-4.757991146
4.2650,-4.785773558
4.2700,-4.814625891
4.2750,-4.844407742
4.2800,-4.875212211
4.2850,-4.907088694
4.2900,-4.940057776
4.2950,-4.97412577
4.3000,-5.009190153
4.3050,-5.045298995
4.3100,-5.082677
4.3150,-5.121384135
4.3200,-5.161593325
4.3250,-5.203492529
4.3300,-5.246933139
4.3350,-5.291986251
4.3400,-5.338614453
4.3450,-5.386855988
4.3500,-5.436562094
4.3550,-5.487865258
4.3600,-5.540652043
4.3650,-5.595242536
4.3700,-5.651547833
4.3750,-5.709461126
4.3800,-5.769435368
4.3850,-5.831284396
4.3900,-5.895067299
4.3950,-5.960620861
4.4000,-6.027968038
4.4050,-6.096554224
4.4100,-6.16639829
4.4150,-6.23729745
4.4200,-6.309312554
4.4250,-6.382145806
4.4300,-6.455613214
4.4350,-6.529669752
4.4400,-6.604284039
4.4450,-6.679478625
4.4500,-6.755232609
4.4550,-6.831718535
4.4600,-6.90899637
4.4650,-6.986996513
4.4700,-7.065661209
4.4750,-7.144750437
4.4800,-7.224362372
4.4850,-7.30435897
4.4900,-7.384725317
4.4950,-7.465417955
4.5000,-7.54646415
4.5050,-7.627841187
4.5100,-7.709393333
4.5150,-7.791141878
4.5200,-7.87305342
4.5250,-7.955097021
4.5300,-8.03704581
4.5350,-8.118972234
4.5400,-8.200712752
4.5450,-8.282132899
4.5500,-8.363080346
4.5550,-8.443323805
4.5600,-8.523160662
4.5650,-8.602403208
4.5700,-8.681029452
4.5750,-8.759107575
4.5800,-8.836577842
4.5850,-8.913442741
4.5900,-8.989626933
4.5950,-9.065333977
4.6000,-9.140604731
4.6050,-9.215396703
4.6100,-9.289606473
4.6150,-9.363172052
4.6200,-9.435912186
4.6250,-9.507794242
4.6300,-9.578838445
4.6350,-9.64906526
4.6400,-9.718572708
4.6450,-9.787237374
4.6500,-9.85517865
4.6550,-9.922444616
4.6600,-9.989272373
4.6650,-10.0556129
4.6700,-10.12136064
4.6750,-10.18635987
4.6800,-10.25047439
4.6850,-10.31348477
4.6900,-10.37563264
4.6950,-10.43698939
4.7000,-10.49759715
4.7050,-10.55753947
4.7100,-10.61688358
4.7150,-10.6761679
4.7200,-10.73554442
4.7250,-10.79535203
4.7300,-10.85575082
4.7350,-10.91681762
4.7400,-10.9786708
4.7450,-11.04146037
4.7500,-11.10510067
4.7550,-11.16975539
4.7600,-11.23513628
4.7650,-11.30129788
4.7700,-11.36812437
4.7750,-11.43595826
4.7800,-11.5048796
4.7850,-11.57487412
4.7900,-11.64605638
4.7950,-11.71818241
4.8000,-11.7912452
4.8050,-11.86529963
4.8100,-11.93987473
4.8150,-12.01478597
4.8200,-12.08981883
4.8250,-12.16463925
4.8300,-12.23907347
4.8350,-12.31281272
4.8400,-12.38587464
4.8450,-12.45821086
4.8500,-12.52966077
4.8550,-12.60031681
4.8600,-12.66998747
4.8650,-12.73873857
4.8700,-12.80658707
4.8750,-12.87352163
4.8800,-12.93965194
4.8850,-13.00477679
4.8900,-13.06890517
4.8950,-13.13192762
4.9000,-13.19376369
4.9050,-13.2544221
4.9100,-13.31385409
4.9150,-13.37196712
4.9200,-13.42900711
4.9250,-13.48477442
4.9300,-13.53929965
4.9350,-13.59263591
4.9400,-13.64473727
4.9450,-13.69586192
4.9500,-13.74602399
4.9550,-13.79522353
4.9600,-13.84322634
4.9650,-13.89010998
4.9700,-13.93593565
4.9750,-13.98097939
4.9800,-14.02522632
4.9850,-14.06901138
4.9900,-14.11237766
4.9950,-14.15556818
5.0000,-14.19869391
5.0050,-14.24228257
5.0100,-14.28653537
5.0150,-14.33098045
5.0200,-14.37572118
5.0250,-14.42083525
5.0300,-14.46605179
5.0350,-14.51150035
5.0400,-14.55714013
5.0450,-14.60295083
5.0500,-14.64898489
5.0550,-14.69533398
5.0600,-14.74227044
5.0650,-14.789962
5.0700,-14.83825224
5.0750,-14.88703397
5.0800,-14.93604402
5.0850,-14.9855265
5.0900,-15.03534139
5.0950,-15.0854496
5.1000,-15.13587909
5.1050,-15.186432
5.1100,-15.23718805
5.1150,-15.28837189
5.1200,-15.33989673
5.1250,-15.39184223
5.1300,-15.44433739
5.1350,-15.49753531
5.1400,-15.55105853
5.1450,-15.60506435
5.1500,-15.65963783
5.1550,-15.71472682
5.1600,-15.77035258
5.1650,-15.82637969
5.1700,-15.88286025
5.1750,-15.93949752
5.1800,-15.99631218
5.1850,-16.05330771
5.1900,-16.11054145
5.1950,-16.16797119
5.2000,-16.22548781
5.2050,-16.28293249
5.2100,-16.3402013
5.2150,-16.39728049
5.2200,-16.4539882
5.2250,-16.51025871
5.2300,-16.56606539
5.2350,-16.62113378
5.2400,-16.67560758
5.2450,-16.72917391
5.2500,-16.78194149
5.2550,-16.83397836
5.2600,-16.88526479
5.2650,-16.93579161
5.2700,-16.98563774
5.2750,-17.03480474
5.2800,-17.08332765
5.2850,-17.13121542
5.2900,-17.17814514
5.2950,-17.22409921
5.3000,-17.26882959
5.3050,-17.31209647
5.3100,-17.35379985
5.3150,-17.39429296
5.3200,-17.43363906
5.3250,-17.47188149
5.3300,-17.50951468
5.3350,-17.54649508
5.3400,-17.5829907
5.3450,-17.61904174
5.3500,-17.65477661
5.3550,-17.69000674
5.3600,-17.72470165
5.3650,-17.75854162
5.3700,-17.79160335
5.3750,-17.82385186
5.3800,-17.85554722
5.3850,-17.88647288
5.3900,-17.91673265
5.3950,-17.9467675
5.4000,-17.97640768
5.4050,-18.00601396
5.4100,-18.0358973
5.4150,-18.06576925
5.4200,-18.09569518
5.4250,-18.12558972
5.4300,-18.15528646
5.4350,-18.18466321
5.4400,-18.21380705
5.4450,-18.24221731
5.4500,-18.26991803
5.4550,-18.29671219
5.4600,-18.32289168
5.4650,-18.3486107
5.4700,-18.3739124
5.4750,-18.39916353
5.4800,-18.42451216
5.4850,-18.44991586
5.4900,-18.47535202
5.4950,-18.50076862
5.5000,-18.52608963
5.5050,-18.55128776
5.5100,-18.5761962
5.5150,-18.60065877
5.5200,-18.62451804
5.5250,-18.64787312
5.5300,-18.67035165
5.5350,-18.69221507
5.5400,-18.71334025
5.5450,-18.7337072
5.5500,-18.75326948
5.5550,-18.77183318
5.5600,-18.78928696
5.5650,-18.80555656
5.5700,-18.82030968
5.5750,-18.8333055
5.5800,-18.84431007
5.5850,-18.85308809
5.5900,-18.85983202
5.5950,-18.86420575
5.6000,-18.86657152
5.6050,-18.86683277
5.6100,-18.86547186
5.6150,-18.86248216
5.6200,-18.85812792
5.6250,-18.85254324
5.6300,-18.84589089
5.6350,-18.8384212
5.6400,-18.83012089
5.6450,-18.82080101
5.6500,-18.81017853
5.6550,-18.79823402
5.6600,-18.78460601
5.6650,-18.76955089
5.6700,-18.75318905
5.6750,-18.73582561
5.6800,-18.71758643
5.6850,-18.69886773
5.6900,-18.67993037
5.6950,-18.66067527
5.7000,-18.64147659
5.7050,-18.62248651
5.7100,-18.60389345
5.7150,-18.58592459
5.7200,-18.56854507
5.7250,-18.55182648
5.7300,-18.53575941
5.7350,-18.52008893
5.7400,-18.50495698
5.7450,-18.49024736
5.7500,-18.4758112
5.7550,-18.46189033
5.7600,-18.44800901
5.7650,-18.43416945
5.7700,-18.42009037
5.7750,-18.40566498
5.7800,-18.39046409
5.7850,-18.37441234
5.7900,-18.35715715
5.7950,-18.33861614
5.8000,-18.31873674
5.8050,-18.29766424
5.8100,-18.27555317
5.8150,-18.25244736
5.8200,-18.22846709
5.8250,-18.20356146
5.8300,-18.17787082
5.8350,-18.15126463
5.8400,-18.12352414
5.8450,-18.09473546
5.8500,-18.06479759
5.8550,-18.03361548
5.8600,-18.00101973
5.8650,-17.96693505
5.8700,-17.93113817
5.8750,-17.89379616
5.8800,-17.85490336
5.8850,-17.81467173
5.8900,-17.7731155
5.8950,-17.73042456
5.9000,-17.68650539
5.9050,-17.64155001
5.9100,-17.5953655
5.9150,-17.54774865
5.9200,-17.49854555
5.9250,-17.44767382
5.9300,-17.39486191
5.9350,-17.33987934
5.9400,-17.28265677
5.9450,-17.22354278
5.9500,-17.16307666
5.9550,-17.10163284
5.9600,-17.03989788
5.9650,-16.97789671
5.9700,-16.91597672
5.9750,-16.85420587
5.9800,-16.79259023
5.9850,-16.73100453
5.9900,-16.66927424
5.9950,-16.60736105
6.0000,-16.5448786
6.0050,-16.48144697
6.0100,-16.41665195
6.0150,-16.35027617
6.0200,-16.28229148
6.0250,-16.21260266
6.0300,-16.14121354
6.0350,-16.06821356
6.0400,-15.99377846
6.0450,-15.91809404
6.0500,-15.84132151
6.0550,-15.76344197
6.0600,-15.6847745
6.0650,-15.60532152
6.0700,-15.52539472
6.0750,-15.44480027
6.0800,-15.36373394
6.0850,-15.28230987
6.0900,-15.20084339
6.0950,-15.11957041
6.1000,-15.03866486
6.1050,-14.95834082
6.1100,-14.87884998
6.1150,-14.80062298
6.1200,-14.72395405
6.1250,-14.6491726
6.1300,-14.57666026
6.1350,-14.50669689
6.1400,-14.43942894
6.1450,-14.37482919
6.1500,-14.31291237
6.1550,-14.25350123
6.1600,-14.19654177
6.1650,-14.14170359
6.1700,-14.08904216
6.1750,-14.03794628
6.1800,-13.98836993
6.1850,-13.93993482
6.1900,-13.89269698
6.1950,-13.8466598
6.2000,-13.80189698
6.2050,-13.758607
6.2100,-13.71666387
6.2150,-13.67637197
6.2200,-13.63759228
6.2250,-13.60021316
6.2300,-13.56426423
6.2350,-13.52958618
6.2400,-13.49601773
6.2450,-13.46309075
6.2500,-13.43031037
6.2550,-13.39725418
6.2600,-13.36350223
6.2650,-13.3289485
6.2700,-13.29319082
6.2750,-13.25599723
6.2800,-13.2172935
6.2850,-13.17707122
6.2900,-13.13530059
6.2950,-13.09211948
6.3000,-13.04770421
6.3050,-13.00207917
6.3100,-12.95552803
6.3150,-12.90809092
6.3200,-12.8600034
6.3250,-12.81126504
6.3300,-12.76205145
6.3350,-12.71261219
6.3400,-12.66284382
6.3450,-12.61307522
6.3500,-12.56340961
6.3550,-12.51400287
6.3600,-12.46486815
6.3650,-12.41583862
6.3700,-12.3669463
6.3750,-12.31813478
6.3800,-12.26936964
6.3850,-12.22058996
6.3900,-12.17145847
6.3950,-12.12200735
6.4000,-12.07222344
6.4050,-12.02191106
6.4100,-11.97098225
6.4150,-11.91933334
6.4200,-11.8668131
6.4250,-11.81358261
6.4300,-11.75957759
6.4350,-11.70476492
6.4400,-11.64909756
6.4450,-11.59261631
6.4500,-11.53534237
6.4550,-11.47739656
6.4600,-11.41895772
6.4650,-11.3600882
6.4700,-11.3010259
6.4750,-11.24189224
6.4800,-11.18281288
6.4850,-11.12401025
6.4900,-11.0652545
6.4950,-11.00652919
6.5000,-10.94771627
6.5050,-10.88868803
6.5100,-10.82933555
6.5150,-10.76942476
6.5200,-10.70879749
6.5250,-10.6475711
6.5300,-10.58537258
6.5350,-10.5222986
6.5400,-10.45830111
6.5450,-10.39346709
6.5500,-10.32786026
6.5550,-10.2616116
6.5600,-10.19476392
6.5650,-10.12740672
6.5700,-10.05976929
6.5750,-9.991842508
6.5800,-9.923728042
6.5850,-9.855524308
6.5900,-9.787190356
6.5950,-9.718816283
6.6000,-9.650463232
6.6050,-9.582402378
6.6100,-9.514641025
6.6150,-9.447382878
6.6200,-9.380574056
6.6250,-9.314441705
6.6300,-9.24909183
6.6350,-9.184502933
6.6400,-9.12096765
6.6450,-9.058602579
6.6500,-8.99728248
6.6550,-8.937050966
6.6600,-8.877689862
6.6650,-8.819446614
6.6700,-8.762234555
6.6750,-8.706162761
6.6800,-8.651005721
6.6850,-8.596627614
6.6900,-8.543228977
6.6950,-8.49061601
6.7000,-8.438790877
6.7050,-8.38788338
6.7100,-8.338021509
6.7150,-8.28945415
6.7200,-8.242367571
6.7250,-8.196801191
6.7300,-8.153085042
6.7350,-8.111351645
6.7400,-8.071914482
6.7450,-8.034895446
6.7500,-8.000560812
6.7550,-7.968907486
6.7600,-7.939794829
6.7650,-7.913341275
6.7700,-7.889416479
6.7750,-7.868098409
6.7800,-7.849152735
6.7850,-7.832246175
6.7900,-7.817237261
6.7950,-7.803838833
6.8000,-7.791671836
6.8050,-7.780331196
6.8100,-7.769413692
6.8150,-7.758613383
6.8200,-7.747845651
6.8250,-7.736515003
6.8300,-7.724719357
6.8350,-7.71211766
6.8400,-7.698566734
6.8450,-7.684221483
6.8500,-7.66897782
6.8550,-7.652944164
6.8600,-7.636107132
6.8650,-7.618692419
6.8700,-7.600759758
6.8750,-7.582608943
6.8800,-7.564375287
6.8850,-7.546262054
6.8900,-7.528500898
6.8950,-7.511093281
6.9000,-7.494107469
6.9050,-7.477426155
6.9100,-7.461354468
6.9150,-7.445546896
6.9200,-7.430297988
6.9250,-7.415506714
6.9300,-7.401323345
6.9350,-7.387842018
6.9400,-7.374833765
6.9450,-7.362266325
6.9500,-7.3503415
6.9550,-7.338884627
6.9600,-7.328155008
6.9650,-7.317990724
6.9700,-7.308299428
6.9750,-7.299169919
6.9800,-7.290781953
6.9850,-7.283315135
6.9900,-7.276850572
6.9950,-7.271534929
7.0000,-7.267550993
7.0050,-7.264830457
7.0100,-7.263523712
7.0150,-7.263312237
7.0200,-7.26428934
7.0250,-7.266201878
7.0300,-7.268834196
7.0350,-7.272053779
7.0400,-7.275677324
7.0450,-7.279637234
7.0500,-7.283536134
7.0550,-7.287311954
7.0600,-7.290878905
7.0650,-7.294109418
7.0700,-7.296836164
7.0750,-7.29905768
7.0800,-7.3006957
7.0850,-7.301792122
7.0900,-7.302292187
7.0950,-7.302263888
7.1000,-7.301610128
7.1050,-7.300395053
7.1100,-7.298799808
7.1150,-7.296954939
7.1200,-7.294859416
7.1250,-7.292788104
7.1300,-7.290781768
7.1350,-7.289062745
7.1400,-7.288167444
7.1450,-7.288012716
7.1500,-7.288917305
7.1550,-7.291039529
7.1600,-7.294595437
7.1650,-7.29966229
7.1700,-7.306357459
7.1750,-7.314863299
7.1800,-7.325340898
7.1850,-7.337802134
7.1900,-7.352523329
7.1950,-7.369840625
7.2000,-7.389764897
7.2050,-7.412518302
7.2100,-7.437804288
7.2150,-7.465699213
7.2200,-7.495965468
7.2250,-7.52853875
7.2300,-7.562979231
7.2350,-7.599134781
7.2400,-7.636767087
7.2450,-7.675884581
7.2500,-7.716109776
7.2550,-7.757691065
7.2600,-7.800530622
7.2650,-7.844615455
7.2700,-7.890057098
7.2750,-7.93705776
7.2800,-7.985693933
7.2850,-8.03601283
7.2900,-8.088367182
7.2950,-8.142728045
7.3000,-8.198981003
7.3050,-8.257270352
7.3100,-8.317492198
7.3150,-8.379548725
7.3200,-8.443288679
7.3250,-8.508814355
7.3300,-8.576009548
7.3350,-8.644660988
7.3400,-8.714584301
7.3450,-8.785637613
7.3500,-8.857759537
7.3550,-8.930919944
7.3600,-9.00511363
7.3650,-9.080357905
7.3700,-9.156484047
7.3750,-9.233129615
7.3800,-9.310462289
7.3850,-9.388565637
7.3900,-9.467395612
7.3950,-9.546931813
7.4000,-9.627318087
7.4050,-9.708698672
7.4100,-9.791011978
7.4150,-9.874430627
7.4200,-9.959065296
7.4250,-10.04501163
7.4300,-10.13227303
7.4350,-10.22085052
7.4400,-10.31048776
7.4450,-10.4011775
7.4500,-10.49280822
7.4550,-10.58530541
7.4600,-10.67862031
7.4650,-10.77254216
7.4700,-10.8672643
7.4750,-10.96270809
7.4800,-11.05880345
7.4850,-11.15563516
7.4900,-11.25333876
7.4950,-11.35174123
7.5000,-11.45095198
7.5050,-11.55101545
7.5100,-11.65222598
7.5150,-11.75478996
7.5200,-11.85861123
7.5250,-11.96365226
7.5300,-12.06986463
7.5350,-12.17724799
7.5400,-12.28570173
7.5450,-12.39486384
7.5500,-12.50465878
7.5550,-12.6143811
7.5600,-12.72388765
7.5650,-12.83300782
7.5700,-12.94159367
7.5750,-13.04949274
7.5800,-13.15675392
7.5850,-13.26319714
7.5900,-13.36852187
7.5950,-13.47287692
7.6000,-13.57632776
7.6050,-13.67906595
7.6100,-13.78111143
7.6150,-13.88274909
7.6200,-13.98403681
7.6250,-14.08486713
7.6300,-14.18530068
7.6350,-14.28552177
7.6400,-14.3857276
7.6450,-14.48578831
7.6500,-14.58572079
7.6550,-14.68526571
7.6600,-14.78435597
7.6650,-14.88265558
7.6700,-14.98017151
7.6750,-15.07702566
7.6800,-15.17311449
7.6850,-15.26824858
7.6900,-15.36247953
7.6950,-15.45597958
7.7000,-15.54913066
7.7050,-15.64209705
7.7100,-15.7351585
7.7150,-15.82825415
7.7200,-15.92176315
7.7250,-16.01555779
7.7300,-16.10977047
7.7350,-16.2046222
7.7400,-16.30025732
7.7450,-16.39659745
7.7500,-16.49371998
7.7550,-16.59152156
7.7600,-16.68977735
7.7650,-16.78874718
7.7700,-16.8878925
7.7750,-16.98692885
7.7800,-17.08579064
7.7850,-17.18408932
7.7900,-17.28141066
7.7950,-17.37764235
7.8000,-17.47256512
7.8050,-17.56615794
7.8100,-17.65786874
7.8150,-17.74743552
7.8200,-17.83484369
7.8250,-17.92021623
7.8300,-18.00342407
7.8350,-18.08441014
7.8400,-18.16338391
7.8450,-18.24027546
7.8500,-18.31536345
7.8550,-18.38880954
7.8600,-18.46049357
7.8650,-18.53043344
7.8700,-18.59852564
7.8750,-18.66456974
7.8800,-18.72854594
7.8850,-18.79042727
7.8900,-18.85030097
7.8950,-18.90816483
7.9000,-18.96411651
7.9050,-19.01810947
7.9100,-19.07035823
7.9150,-19.12095732
7.9200,-19.17015191
7.9250,-19.21808017
7.9300,-19.26477157
7.9350,-19.3103303
7.9400,-19.35465438
7.9450,-19.39784673
7.9500,-19.43979137
7.9550,-19.48067102
7.9600,-19.52041205
7.9650,-19.55908687
7.9700,-19.59685069
7.9750,-19.63352414
7.9800,-19.66926061
7.9850,-19.7040244
7.9900,-19.73775812
7.9950,-19.77031259
8.0000,-19.80171888
8.0050,-19.8318199
8.0100,-19.86091891
8.0150,-19.88900866
8.0200,-19.91591064
8.0250,-19.94187952
8.0300,-19.96688338
8.0350,-19.9908421
8.0400,-20.01375917
8.0450,-20.03566877
8.0500,-20.05672762
8.0550,-20.07693578
8.0600,-20.09639118
8.0650,-20.11485452
8.0700,-20.13236269
8.0750,-20.14883736
8.0800,-20.164091
8.0850,-20.17807839
8.0900,-20.19091202
8.0950,-20.20241861
8.1000,-20.21282912
8.1050,-20.22187756
8.1100,-20.22979847
8.1150,-20.23695431
8.1200,-20.24310284
8.1250,-20.24830057
8.1300,-20.25252222
8.1350,-20.255904
8.1400,-20.25839313
8.1450,-20.25996009
8.1500,-20.26024278
8.1550,-20.25922375
8.1600,-20.25656826
8.1650,-20.2521584
8.1700,-20.24590521
8.1750,-20.23761671
8.1800,-20.22735679
8.1850,-20.21550491
8.1900,-20.20206902
8.1950,-20.187218
8.2000,-20.17099011
8.2050,-20.15336042
8.2100,-20.13419424
8.2150,-20.11353763
8.2200,-20.09124427
8.2250,-20.06718858
8.2300,-20.04148348
8.2350,-20.01369546
8.2400,-19.98356271
8.2450,-19.9506849
8.2500,-19.91495687
8.2550,-19.87599197
8.2600,-19.83371673
8.2650,-19.78768251
8.2700,-19.73756467
8.2750,-19.68332948
8.2800,-19.62459964
8.2850,-19.56153906
8.2900,-19.49457958
8.2950,-19.42382561
8.3000,-19.34932426
8.3050,-19.27141151
8.3100,-19.19042652
8.3150,-19.107066
8.3200,-19.02210232
8.3250,-18.9363756
8.3300,-18.85075333
8.3350,-18.76607891
8.3400,-18.68321016
8.3450,-18.60295162
8.3500,-18.52572645
8.3550,-18.45194242
8.3600,-18.38182877
8.3650,-18.31552195
8.3700,-18.25313998
8.3750,-18.1947317
8.3800,-18.14023973
8.3850,-18.0894456
8.3900,-18.04205374
8.3950,-17.99788202
8.4000,-17.95637752
8.4050,-17.91713723
8.4100,-17.87984262
8.4150,-17.84396123
8.4200,-17.80950705
8.4250,-17.77612524
8.4300,-17.74389808
8.4350,-17.71242164
8.4400,-17.68153609
8.4450,-17.65127006
8.4500,-17.62173441
8.4550,-17.59284336
8.4600,-17.56494542
8.4650,-17.53806168
8.4700,-17.5120877
8.4750,-17.4874295
8.4800,-17.46376516
8.4850,-17.44093873
8.4900,-17.41868733
8.4950,-17.39684056
8.5000,-17.37496558
8.5050,-17.35309979
8.5100,-17.33090811
8.5150,-17.30812929
8.5200,-17.28441038
8.5250,-17.25964779
8.5300,-17.23332215
8.5350,-17.20548203
8.5400,-17.17620481
8.5450,-17.14558171
8.5500,-17.11354878
8.5550,-17.08011088
8.5600,-17.04502464
8.5650,-17.00871387
8.5700,-16.97130605
8.5750,-16.93291641
8.5800,-16.89349291
8.5850,-16.85282617
8.5900,-16.81065551
8.5950,-16.76712796
8.6000,-16.72226452
8.6050,-16.67609817
8.6100,-16.6287439
8.6150,-16.58008412
8.6200,-16.52991811
8.6250,-16.47838438
8.6300,-16.4254369
8.6350,-16.37103001
8.6400,-16.31508396
8.6450,-16.25762293
8.6500,-16.19860217
8.6550,-16.13807913
8.6600,-16.07601606
8.6650,-16.0123848
8.6700,-15.94734183
8.6750,-15.88099941
8.6800,-15.81338274
8.6850,-15.74480615
8.6900,-15.67546342
8.6950,-15.60561423
8.7000,-15.53566619
8.7050,-15.46586849
8.7100,-15.39632973
8.7150,-15.32718889
8.7200,-15.25862042
8.7250,-15.19072694
8.7300,-15.12344629
8.7350,-15.05675247
8.7400,-14.99057132
8.7450,-14.92497716
8.7500,-14.85980713
8.7550,-14.79525371
8.7600,-14.73127034
8.7650,-14.66797143
8.7700,-14.60585912
8.7750,-14.5447418
8.7800,-14.48481721
8.7850,-14.42593017
8.7900,-14.3681864
8.7950,-14.31155636
8.8000,-14.25629155
8.8050,-14.20200441
8.8100,-14.14876451
8.8150,-14.09649747
8.8200,-14.04523809
8.8250,-13.99519056
8.8300,-13.94628726
8.8350,-13.89868979
8.8400,-13.85219758
8.8450,-13.80686671
8.8500,-13.76262185
8.8550,-13.71959912
8.8600,-13.67775455
8.8650,-13.63663568
8.8700,-13.59613277
8.8750,-13.5562411
8.8800,-13.5168305
8.8850,-13.4779601
8.8900,-13.43958863
8.8950,-13.4014571
8.9000,-13.36355798
8.9050,-13.32568519
8.9100,-13.28733569
8.9150,-13.24874517
8.9200,-13.20997809
8.9250,-13.17069869
8.9300,-13.13085133
8.9350,-13.09040398
8.9400,-13.04919817
8.9450,-13.00733244
8.9500,-12.96483497
8.9550,-12.92165849
8.9600,-12.87795805
8.9650,-12.83368234
8.9700,-12.7888702
8.9750,-12.74360057
8.9800,-12.69788107
8.9850,-12.65172394
8.9900,-12.60500714
8.9950,-12.55741094
9.0000,-12.50883258
9.0050,-12.45928525
9.0100,-12.40861412
9.0150,-12.35684122
9.0200,-12.30395226
9.0250,-12.24983999
9.0300,-12.19459707
9.0350,-12.13833343
9.0400,-12.08113946
9.0450,-12.0228106
9.0500,-11.96334096
9.0550,-11.90263683
9.0600,-11.84055441
9.0650,-11.77709789
9.0700,-11.71186353
9.0750,-11.64478201
9.0800,-11.57584273
9.0850,-11.50495441
9.0900,-11.43199462
9.0950,-11.35687623
9.1000,-11.27973062
9.1050,-11.20070426
9.1100,-11.11994843
9.1150,-11.03768092
9.1200,-10.95409387
9.1250,-10.86926058
9.1300,-10.7835846
9.1350,-10.69704989
9.1400,-10.61001788
9.1450,-10.52259709
9.1500,-10.43511123
9.1550,-10.34759965
9.1600,-10.26045879
9.1650,-10.17415889
9.1700,-10.0888758
9.1750,-10.00476119
9.1800,-9.921958764
9.1850,-9.840534201
9.1900,-9.760427448
9.1950,-9.681976431
9.2000,-9.605271222
9.2050,-9.530409284
9.2100,-9.457565213
9.2150,-9.386609249
9.2200,-9.317387128
9.2250,-9.249872164
9.2300,-9.183980951
9.2350,-9.119538665
9.2400,-9.056492627
9.2450,-8.994711973
9.2500,-8.933923358
9.2550,-8.874164823
9.2600,-8.815468977
9.2650,-8.757637031
9.2700,-8.700806916
9.2750,-8.644674063
9.2800,-8.589658684
9.2850,-8.535686206
9.2900,-8.482824469
9.2950,-8.43133774
9.3000,-8.381100804
9.3050,-8.332031528
9.3100,-8.284245711
9.3150,-8.237660382
9.3200,-8.191831755
9.3250,-8.146709709
9.3300,-8.102131608
9.3350,-8.057712423
9.3400,-8.01333129
9.3450,-7.96885055
9.3500,-7.924075524
9.3550,-7.879032943
9.3600,-7.833767154
9.3650,-7.788128755
9.3700,-7.741906389
9.3750,-7.695007541
9.3800,-7.647491071
9.3850,-7.599216788
9.3900,-7.550534421
9.3950,-7.501441717
9.4000,-7.451599254
9.4050,-7.400909518
9.4100,-7.349303901
9.4150,-7.296775395
9.4200,-7.2432364
9.4250,-7.188498014
9.4300,-7.132560499
9.4350,-7.075572303
9.4400,-7.017414112
9.4450,-6.958368296
9.4500,-6.898389155
9.4550,-6.837761815
9.4600,-6.776590879
9.4650,-6.714882715
9.4700,-6.652952483
9.4750,-6.590799928
9.4800,-6.528753429
9.4850,-6.466968705
9.4900,-6.405659879
9.4950,-6.344879973
9.5000,-6.284558274
9.5050,-6.224966349
9.5100,-6.166341866
9.5150,-6.108552483
9.5200,-6.051986099
9.5250,-5.996934873
9.5300,-5.943605957
9.5350,-5.892240997
9.5400,-5.842811197
9.5450,-5.795148008
9.5500,-5.749483736
9.5550,-5.70597255
9.5600,-5.664634087
9.5650,-5.625769664
9.5700,-5.589364613
9.5750,-5.555502192
9.5800,-5.52388521
9.5850,-5.494297096
9.5900,-5.46676163
9.5950,-5.441249827
9.6000,-5.417656047
9.6050,-5.396055407
9.6100,-5.376077063
9.6150,-5.357362252
9.6200,-5.339913963
9.6250,-5.323244937
9.6300,-5.307023552
9.6350,-5.290972706
9.6400,-5.274735432
9.6450,-5.25819445
9.6500,-5.241202432
9.6550,-5.223450498
9.6600,-5.204592397
9.6650,-5.184758957
9.6700,-5.163887755
9.6750,-5.142023845
9.6800,-5.11876508
9.6850,-5.094359461
9.6900,-5.068579047
9.6950,-5.041487054
9.7000,-5.013167568
9.7050,-4.983894429
9.7100,-4.953600244
9.7150,-4.922436791
9.7200,-4.89048304
9.7250,-4.858091317
9.7300,-4.825181865
9.7350,-4.792048812
9.7400,-4.758703718
9.7450,-4.725117637
9.7500,-4.6914718
9.7550,-4.657678443
9.7600,-4.62401109
9.7650,-4.590677335
9.7700,-4.557729757
9.7750,-4.525081264
9.7800,-4.493021775
9.7850,-4.461620283
9.7900,-4.431032596
9.7950,-4.401578794
9.8000,-4.373438009
9.8050,-4.346665223
9.8100,-4.321533763
9.8150,-4.298345679
9.8200,-4.277046047
9.8250,-4.257713241
9.8300,-4.240330906
9.8350,-4.224864987
9.8400,-4.211452407
9.8450,-4.200276751
9.8500,-4.191197326
9.8550,-4.184164637
9.8600,-4.179061646
9.8650,-4.175965083
9.8700,-4.174766649
9.8750,-4.175367135
9.8800,-4.177750697
9.8850,-4.18203174
9.8900,-4.188170148
9.8950,-4.195872008
9.9000,-4.204966787
9.9050,-4.215171167
9.9100,-4.226481266
9.9150,-4.238789342
9.9200,-4.251909685
9.9250,-4.265845599
9.9300,-4.280485091
9.9350,-4.29586152
9.9400,-4.311953125
9.9450,-4.328740964
9.9500,-4.346044392
9.9550,-4.363844501
9.9600,-4.382023418
9.9650,-4.400370369
9.9700,-4.418956276
9.9750,-4.43769868
9.9800,-4.456741182
9.9850,-4.476037847
9.9900,-4.495578074
9.9950,-4.515380655
10.0000,-4.535711071
10.0050,-4.55638332
10.0100,-4.577603086
10.0150,-4.599341611
10.0200,-4.621590551
10.0250,-4.644060454
10.0300,-4.667059751
10.0350,-4.690369596
10.0400,-4.714139203
10.0450,-4.738450703
10.0500,-4.763187871
10.0550,-4.788305714
10.0600,-4.813922989
10.0650,-4.83996813
10.0700,-4.866530212
10.0750,-4.893715659
10.0800,-4.921401806
10.0850,-4.949641857
10.0900,-4.978612908
10.0950,-5.008048345
10.1000,-5.038140823
10.1050,-5.068959833
10.1100,-5.100393717
10.1150,-5.132330415
10.1200,-5.164959523
10.1250,-5.19807295
10.1300,-5.231663035
10.1350,-5.265846257
10.1400,-5.300612428
10.1450,-5.335750737
10.1500,-5.371403908
10.1550,-5.407290372
10.1600,-5.443348823
10.1650,-5.479529576
10.1700,-5.515599313
10.1750,-5.551713259
10.1800,-5.587922524
10.1850,-5.624098795
10.1900,-5.660033218
10.1950,-5.695784137
10.2000,-5.731289099
10.2050,-5.766533676
10.2100,-5.801345384
10.2150,-5.835624183
10.2200,-5.869204991
10.2250,-5.902006582
10.2300,-5.933747554
10.2350,-5.964499214
10.2400,-5.994052117
10.2450,-6.022349989
10.2500,-6.049565557
10.2550,-6.075606696
10.2600,-6.100618788
10.2650,-6.124626401
10.2700,-6.14778228
10.2750,-6.170139372
10.2800,-6.191641041
10.2850,-6.212384535
10.2900,-6.232381297
10.2950,-6.251688171
10.3000,-6.270191577
10.3050,-6.288159403
10.3100,-6.305584299
10.3150,-6.3224378
10.3200,-6.338951594
10.3250,-6.355295703
10.3300,-6.371527981
10.3350,-6.38778468
10.3400,-6.404238087
10.3450,-6.420798291
10.3500,-6.43759339
10.3550,-6.454788792
10.3600,-6.472095683
10.3650,-6.489571113
10.3700,-6.507108467
10.3750,-6.524864502
10.3800,-6.542918835
10.3850,-6.561446132
10.3900,-6.580298918
10.3950,-6.599680131
10.4000,-6.619543906
10.4050,-6.639952106
10.4100,-6.660914249
10.4150,-6.682670611
10.4200,-6.705031919
10.4250,-6.728084101
10.4300,-6.751882447
10.4350,-6.776121825
10.4400,-6.800815443
10.4450,-6.826016903
10.4500,-6.851663025
10.4550,-6.87762251
10.4600,-6.904113006
10.4650,-6.93087165
10.4700,-6.958057753
10.4750,-6.985478215
10.4800,-7.013077389
10.4850,-7.040930194
10.4900,-7.069152424
10.4950,-7.097702779
10.5000,-7.126658924
10.5050,-7.156140883
10.5100,-7.186211046
10.5150,-7.217040451
10.5200,-7.248418736
10.5250,-7.280532096
10.5300,-7.313284086
10.5350,-7.346584726
10.5400,-7.38046345
10.5450,-7.414603729
10.5500,-7.449024029
10.5550,-7.483676358
10.5600,-7.518512977
10.5650,-7.553435507
10.5700,-7.588362554
10.5750,-7.623238085
10.5800,-7.658104076
10.5850,-7.693100877
10.5900,-7.728292817
10.5950,-7.763714716
10.6000,-7.799526702
10.6050,-7.835653646
10.6100,-7.872404725
10.6150,-7.909703255
10.6200,-7.947627131
10.6250,-7.986192764
10.6300,-8.025475644
10.6350,-8.065403877
10.6400,-8.105970896
10.6450,-8.147241522
10.6500,-8.189027837
10.6550,-8.231243218
10.6600,-8.273944366
10.6650,-8.317227476
10.6700,-8.360906913
10.6750,-8.405128735
10.6800,-8.450000295
10.6850,-8.495503373
10.6900,-8.541954915
10.6950,-8.589422805
10.7000,-8.637969932
10.7050,-8.687675636
10.7100,-8.738626769
10.7150,-8.79078895
10.7200,-8.843988817
10.7250,-8.89824419
10.7300,-8.953704579
10.7350,-9.010119131
10.7400,-9.067428359
10.7450,-9.125563565
10.7500,-9.184524077
10.7550,-9.244525888
10.7600,-9.305294564
10.7650,-9.36704881
10.7700,-9.429560718
10.7750,-9.492859482
10.7800,-9.556957019
10.7850,-9.621553375
10.7900,-9.68665313
10.7950,-9.752261337
10.8000,-9.818278637
10.8050,-9.884325037
10.8100,-9.950244378
10.8150,-10.01596157
10.8200,-10.08139381
10.8250,-10.14625489
10.8300,-10.21078381
10.8350,-10.27484201
10.8400,-10.33843512
10.8450,-10.4016562
10.8500,-10.46461343
10.8550,-10.52706463
10.8600,-10.58929055
10.8650,-10.65130195
10.8700,-10.71291516
10.8750,-10.77418748
10.8800,-10.8349021
10.8850,-10.89491114
10.8900,-10.95408148
10.8950,-11.01238216
10.9000,-11.06962892
10.9050,-11.12587702
10.9100,-11.18094681
10.9150,-11.23510151
10.9200,-11.28834538
10.9250,-11.34070163
10.9300,-11.39228191
10.9350,-11.44332273
10.9400,-11.49384719
10.9450,-11.54401396
10.9500,-11.59409725
10.9550,-11.64413094
10.9600,-11.6940142
10.9650,-11.7439091
10.9700,-11.79391425
10.9750,-11.84407476
10.9800,-11.89436006
10.9850,-11.94484292
10.9900,-11.99539865
10.9950,-12.0461142
11.0000,-12.09715418
11.0050,-12.14834182
11.0100,-12.19982956
11.0150,-12.25174825
11.0200,-12.30420028
11.0250,-12.35719342
11.0300,-12.41042203
11.0350,-12.46447466
11.0400,-12.51916815
11.0450,-12.5744905
11.0500,-12.630266
11.0550,-12.68625752
11.0600,-12.74243212
11.0650,-12.79858211
11.0700,-12.85471264
11.0750,-12.9109555
11.0800,-12.96715425
11.0850,-13.02365456
11.0900,-13.08036022
11.0950,-13.13726106
11.1000,-13.19450067
11.1050,-13.25216674
11.1100,-13.31044709
11.1150,-13.36916691
11.1200,-13.42845525
11.1250,-13.48824305
11.1300,-13.54838787
11.1350,-13.60880019
11.1400,-13.66940094
11.1450,-13.72995482
11.1500,-13.79033948
11.1550,-13.85055379
11.1600,-13.91026714
11.1650,-13.96931317
11.1700,-14.02792866
11.1750,-14.08584603
11.1800,-14.14333227
11.1850,-14.20038583
11.1900,-14.25712983
11.1950,-14.31350146
11.2000,-14.36952693
11.2050,-14.42519365
11.2100,-14.48044521
11.2150,-14.53504443
11.2200,-14.58893525
11.2250,-14.6422058
11.2300,-14.69469286
11.2350,-14.74630154
11.2400,-14.79696091
11.2450,-14.84641532
11.2500,-14.89449118
11.2550,-14.94110565
11.2600,-14.98623533
11.2650,-15.02964253
11.2700,-15.0713734
11.2750,-15.11147726
11.2800,-15.14999572
11.2850,-15.1869396
11.2900,-15.2225283
11.2950,-15.25672774
11.3000,-15.28962543
11.3050,-15.32144795
11.3100,-15.35216102
11.3150,-15.38159533
11.3200,-15.40988644
11.3250,-15.43736986
11.3300,-15.46433036
11.3350,-15.49075746
11.3400,-15.51696932
11.3450,-15.54305874
11.3500,-15.56916682
11.3550,-15.59547288
11.3600,-15.62200579
11.3650,-15.64865341
11.3700,-15.67568384
11.3750,-15.70313095
11.3800,-15.73103622
11.3850,-15.75940846
11.3900,-15.78846178
11.3950,-15.81830276
11.4000,-15.84903446
11.4050,-15.88087119
11.4100,-15.91389181
11.4150,-15.94819947
11.4200,-15.98390753
11.4250,-16.02069503
11.4300,-16.05859223
11.4350,-16.09731502
11.4400,-16.13659351
11.4450,-16.17650423
11.4500,-16.21666987
11.4550,-16.25696827
11.4600,-16.29722074
11.4650,-16.33723071
11.4700,-16.37669106
11.4750,-16.41559189
11.4800,-16.4536463
11.4850,-16.49076243
11.4900,-16.52685323
11.4950,-16.56182994
11.5000,-16.59582477
11.5050,-16.62876667
11.5100,-16.66074042
11.5150,-16.69202981
11.5200,-16.72257754
11.5250,-16.75250996
11.5300,-16.78175452
11.5350,-16.81023274
11.5400,-16.83769613
11.5450,-16.86428787
11.5500,-16.88995316
11.5550,-16.91463957
11.5600,-16.93830472
11.5650,-16.96098615
11.5700,-16.98256785
11.5750,-17.00288715
11.5800,-17.02187085
11.5850,-17.0392683
11.5900,-17.05506434
11.5950,-17.06968993
11.6000,-17.08302989
11.6050,-17.09552882
11.6100,-17.10739514
11.6150,-17.11907836
11.6200,-17.13082311
11.6250,-17.14251042
11.6300,-17.15426196
11.6350,-17.16597936
11.6400,-17.17756094
11.6450,-17.18901786
11.6500,-17.20032697
11.6550,-17.21143056
11.6600,-17.22240139
11.6650,-17.2333885
11.6700,-17.24443864
11.6750,-17.25549003
11.6800,-17.26651736
11.6850,-17.27753762
11.6900,-17.2880659
11.6950,-17.29802708
11.7000,-17.30703624
11.7050,-17.3149438
11.7100,-17.32153889
11.7150,-17.32666021
11.7200,-17.33016885
11.7250,-17.3322766
11.7300,-17.33301214
11.7350,-17.33250964
11.7400,-17.33106102
11.7450,-17.32878031
11.7500,-17.32597543
11.7550,-17.32291191
11.7600,-17.31968716
11.7650,-17.3162722
11.7700,-17.3124365
11.7750,-17.30835762
11.7800,-17.3037929
11.7850,-17.29862634
11.7900,-17.29267216
11.7950,-17.28589343
11.8000,-17.27820265
11.8050,-17.26964376
11.8100,-17.26027179
11.8150,-17.25006248
11.8200,-17.2393421
11.8250,-17.2281508
11.8300,-17.21676442
11.8350,-17.20535487
11.8400,-17.19419035
11.8450,-17.18312311
11.8500,-17.17215107
11.8550,-17.16124252
11.8600,-17.15057485
11.8650,-17.14022107
11.8700,-17.13026199
11.8750,-17.12082449
11.8800,-17.11205459
11.8850,-17.1043339
11.8900,-17.09780823
11.8950,-17.09227474
11.9000,-17.08800984
11.9050,-17.08469054
11.9100,-17.0824436
11.9150,-17.0809564
11.9200,-17.08027423
11.9250,-17.08009836
11.9300,-17.08033692
11.9350,-17.08092243
11.9400,-17.08154461
11.9450,-17.08224513
11.9500,-17.08284765
11.9550,-17.08341786
11.9600,-17.08392841
11.9650,-17.0843207
11.9700,-17.08429847
11.9750,-17.08373704
11.9800,-17.08253394
11.9850,-17.08070737
11.9900,-17.07833127
11.9950,-17.07545404
12.0000,-17.07217145
12.0050,-17.0683907
12.0100,-17.06416608
12.0150,-17.05960838
12.0200,-17.05489373
12.0250,-17.05018869
12.0300,-17.04528661
12.0350,-17.04053354
12.0400,-17.03577839
12.0450,-17.03110155
12.0500,-17.02633437
12.0550,-17.02121919
12.0600,-17.01577571
12.0650,-17.01009419
12.0700,-17.00439384
12.0750,-16.99868351
12.0800,-16.99340128
12.0850,-16.98865839
12.0900,-16.984628
12.0950,-16.98136576
12.1000,-16.97889896
12.1050,-16.97723762
12.1100,-16.97627054
12.1150,-16.97595211
12.1200,-16.97616216
12.1250,-16.97701194
12.1300,-16.97822437
12.1350,-16.97993861
12.1400,-16.98211604
12.1450,-16.98501587
12.1500,-16.98854502
12.1550,-16.99288622
12.1600,-16.99767084
12.1650,-17.00270251
12.1700,-17.00794963
12.1750,-17.01334623
12.1800,-17.0186862
12.1850,-17.02393618
12.1900,-17.02867668
12.1950,-17.03287726
12.2000,-17.03650422
12.2050,-17.03947393
12.2100,-17.04183232
12.2150,-17.04375837
12.2200,-17.04512985
12.2250,-17.04622027
12.2300,-17.04694199
12.2350,-17.04738378
12.2400,-17.04771679
12.2450,-17.04777837
12.2500,-17.0478668
12.2550,-17.04763759
12.2600,-17.04714155
12.2650,-17.0465217
12.2700,-17.04587029
12.2750,-17.04517962
12.2800,-17.04439087
12.2850,-17.04331834
12.2900,-17.04219566
12.2950,-17.04085454
12.3000,-17.03941755
12.3050,-17.03785282
12.3100,-17.03621275
12.3150,-17.03461557
12.3200,-17.03288934
12.3250,-17.0309245
12.3300,-17.02899455
12.3350,-17.02684905
12.3400,-17.02468737
12.3450,-17.02248572
12.3500,-17.02034786
12.3550,-17.01854414
12.3600,-17.01724534
12.3650,-17.01644441
12.3700,-17.01619293
12.3750,-17.01635468
12.3800,-17.01659986
12.3850,-17.01661699
12.3900,-17.01646391
12.3950,-17.01612603
12.4000,-17.01554865
12.4050,-17.01487027
12.4100,-17.01411771
12.4150,-17.0132975
12.4200,-17.01246102
12.4250,-17.01114615
12.4300,-17.00951962
12.4350,-17.00729564
12.4400,-17.00457773
12.4450,-17.00109078
12.4500,-16.99689294
12.4550,-16.99158091
12.4600,-16.9853129
12.4650,-16.97757753
12.4700,-16.96823301
12.4750,-16.95705456
12.4800,-16.94405829
12.4850,-16.92908498
12.4900,-16.91231175
12.4950,-16.89345494
12.5000,-16.87238846
12.5050,-16.84913389
12.5100,-16.82337684
12.5150,-16.79500451
12.5200,-16.76392924
12.5250,-16.73007663
12.5300,-16.69336651
12.5350,-16.65381409
12.5400,-16.61138245
12.5450,-16.56628961
12.5500,-16.51841492
12.5550,-16.46819521
12.5600,-16.41559382
12.5650,-16.36069451
12.5700,-16.30362592
12.5750,-16.24456913
12.5800,-16.18370628
12.5850,-16.1213025
12.5900,-16.05742479
12.5950,-15.99224082
12.6000,-15.92585592
12.6050,-15.8584505
12.6100,-15.79010152
12.6150,-15.72085534
12.6200,-15.65107144
12.6250,-15.58112253
12.6300,-15.51124995
12.6350,-15.44184757
12.6400,-15.373212
12.6450,-15.30561405
12.6500,-15.23939554
12.6550,-15.17474738
12.6600,-15.11206148
12.6650,-15.05160624
12.6700,-14.99371095
12.6750,-14.93852378
12.6800,-14.88647845
12.6850,-14.83789681
12.6900,-14.79257504
12.6950,-14.75057152
12.7000,-14.71177228
12.7050,-14.67576441
12.7100,-14.6423524
12.7150,-14.61111799
12.7200,-14.5817031
12.7250,-14.55404221
12.7300,-14.5277116
12.7350,-14.50247023
12.7400,-14.4779398
12.7450,-14.45386096
12.7500,-14.42984139
12.7550,-14.40588232
12.7600,-14.38162884
12.7650,-14.35723966
12.7700,-14.33252274
12.7750,-14.30714709
12.7800,-14.28089274
12.7850,-14.25352343
12.7900,-14.22462179
12.7950,-14.19416212
12.8000,-14.1619741
12.8050,-14.12802037
12.8100,-14.09225468
12.8150,-14.05439697
12.8200,-14.01442499
12.8250,-13.97233872
12.8300,-13.92800398
12.8350,-13.88138184
12.8400,-13.83270373
12.8450,-13.78182323
12.8500,-13.72887472
12.8550,-13.67356067
12.8600,-13.61610528
12.8650,-13.55655949
12.8700,-13.49513892
12.8750,-13.4320965
12.8800,-13.36789108
12.8850,-13.30271697
12.8900,-13.23703605
12.8950,-13.17122658
12.9000,-13.10566452
12.9050,-13.04073391
12.9100,-12.9766673
12.9150,-12.91390083
12.9200,-12.85246114
12.9250,-12.79280572
12.9300,-12.73513076
12.9350,-12.67968267
12.9400,-12.6266702
12.9450,-12.57629625
12.9500,-12.52882306
12.9550,-12.48441045
12.9600,-12.44313921
12.9650,-12.4051979
12.9700,-12.37056052
12.9750,-12.33954878
12.9800,-12.31204342
12.9850,-12.28808793
12.9900,-12.26762914
12.9950,-12.2505692
13.0000,-12.23674854
13.0050,-12.22617728
13.0100,-12.21885262
13.0150,-12.21480067
13.0200,-12.21389399
13.0250,-12.21612464
13.0300,-12.22121796
13.0350,-12.22922718
13.0400,-12.23988358
13.0450,-12.25282467
13.0500,-12.26818224
13.0550,-12.28556782
13.0600,-12.30486135
13.0650,-12.32567857
13.0700,-12.34758442
13.0750,-12.37058587
13.0800,-12.39430214
13.0850,-12.41863166
13.0900,-12.4435766
13.0950,-12.46898489
13.1000,-12.4947936
13.1050,-12.52064626
13.1100,-12.54638492
13.1150,-12.57213452
13.1200,-12.59786171
13.1250,-12.62341809
13.1300,-12.64872957
13.1350,-12.67379128
13.1400,-12.69821862
13.1450,-12.7221016
13.1500,-12.74537892
13.1550,-12.76814457
13.1600,-12.79057973
13.1650,-12.81284647
13.1700,-12.83516963
13.1750,-12.85769125
13.1800,-12.88034979
13.1850,-12.90342935
13.1900,-12.92677487
13.1950,-12.95032861
13.2000,-12.97430238
13.2050,-12.99858207
13.2100,-13.02353965
13.2150,-13.04909048
13.2200,-13.07522449
13.2250,-13.10174517
13.2300,-13.12869409
13.2350,-13.15581476
13.2400,-13.183102
13.2450,-13.21062137
13.2500,-13.23815852
13.2550,-13.266079
13.2600,-13.29410299
13.2650,-13.32240591
13.2700,-13.35120253
13.2750,-13.38034853
13.2800,-13.41002249
13.2850,-13.44055396
13.2900,-13.47215361
13.2950,-13.50483457
13.3000,-13.53896435
13.3050,-13.574671
13.3100,-13.61187266
13.3150,-13.65080422
13.3200,-13.69151189
13.3250,-13.73398279
13.3300,-13.77845478
13.3350,-13.82460526
13.3400,-13.87250414
13.3450,-13.92219423
13.3500,-13.97308692
13.3550,-14.02510763
13.3600,-14.0779917
13.3650,-14.13161892
13.3700,-14.1859261
13.3750,-14.24069349
13.3800,-14.29591624
13.3850,-14.35133463
13.3900,-14.40685378
13.3950,-14.46244224
13.4000,-14.51799209
13.4050,-14.57367314
13.4100,-14.62957363
13.4150,-14.6857664
13.4200,-14.7422372
13.4250,-14.79905028
13.4300,-14.85639057
13.4350,-14.91402125
13.4400,-14.97219534
13.4450,-15.03064284
13.4500,-15.08939759
13.4550,-15.14830781
13.4600,-15.20694972
13.4650,-15.2652411
13.4700,-15.32271801
13.4750,-15.37930228
13.4800,-15.43477093
13.4850,-15.48894578
13.4900,-15.54152904
13.4950,-15.59247262
13.5000,-15.64139783
13.5050,-15.68852271
13.5100,-15.73364153
13.5150,-15.7769898
13.5200,-15.81909622
13.5250,-15.8599629
13.5300,-15.89948042
13.5350,-15.93798765
13.5400,-15.97544604
13.5450,-16.01191787
13.5500,-16.04754376
13.5550,-16.08208495
13.5600,-16.11579075
13.5650,-16.14845442
13.5700,-16.17995923
13.5750,-16.21035873
13.5800,-16.23972384
13.5850,-16.26780097
13.5900,-16.29461858
13.5950,-16.32016259
13.6000,-16.34433883
13.6050,-16.3672781
13.6100,-16.3894108
13.6150,-16.41067991
13.6200,-16.43145168
13.6250,-16.45190573
13.6300,-16.47229256
13.6350,-16.49293244
13.6400,-16.51396332
13.6450,-16.53563836
13.6500,-16.55844782
13.6550,-16.58261092
13.6600,-16.60822708
13.6650,-16.63539602
13.6700,-16.66418099
13.6750,-16.69459192
13.6800,-16.72656983
13.6850,-16.76022911
13.6900,-16.7952896
13.6950,-16.83151663
13.7000,-16.86876591
13.7050,-16.90687307
13.7100,-16.94578903
13.7150,-16.98523053
13.7200,-17.0248497
13.7250,-17.06439809
13.7300,-17.10343626
13.7350,-17.14182035
13.7400,-17.17913326
13.7450,-17.21526526
13.7500,-17.24994369
13.7550,-17.28336333
13.7600,-17.3156364
13.7650,-17.34664431
13.7700,-17.37635427
13.7750,-17.40456214
13.7800,-17.43146677
13.7850,-17.45686102
13.7900,-17.48103684
13.7950,-17.50410852
13.8000,-17.52628905
13.8050,-17.54751104
13.8100,-17.56789765
13.8150,-17.58728856
13.8200,-17.60549059
13.8250,-17.6225421
13.8300,-17.63877772
13.8350,-17.65424279
13.8400,-17.66931078
13.8450,-17.68404359
13.8500,-17.69839323
13.8550,-17.71246513
13.8600,-17.72617886
13.8650,-17.73956535
13.8700,-17.75249864
13.8750,-17.76481033
13.8800,-17.77622303
13.8850,-17.7865993
13.8900,-17.7958239
13.8950,-17.80382259
13.9000,-17.81051437
13.9050,-17.81561795
13.9100,-17.81909445
13.9150,-17.82097847
13.9200,-17.82117955
13.9250,-17.81988303
13.9300,-17.81696536
13.9350,-17.81247024
13.9400,-17.80663951
13.9450,-17.79943398
13.9500,-17.7907717
13.9550,-17.78091549
13.9600,-17.77007595
13.9650,-17.75836094
13.9700,-17.74585036
13.9750,-17.73254426
13.9800,-17.71815814
13.9850,-17.70244667
13.9900,-17.68534874
13.9950,-17.66676191
14.0000,-17.64650546
14.0050,-17.62436624
14.0100,-17.59999469
14.0150,-17.5732804
14.0200,-17.54433651
14.0250,-17.51313618
14.0300,-17.47999424
14.0350,-17.44516207
14.0400,-17.40886225
14.0450,-17.37134228
14.0500,-17.33266548
14.0550,-17.29286176
14.0600,-17.25206873
14.0650,-17.21023241
14.0700,-17.16776099
14.0750,-17.1250179
14.0800,-17.08207426
14.0850,-17.03938441
14.0900,-16.99669827
14.0950,-16.95379472
14.1000,-16.91047236
14.1050,-16.86679381
14.1100,-16.82282705
14.1150,-16.77863355
14.1200,-16.73410714
14.1250,-16.68928432
14.1300,-16.64408312
14.1350,-16.59848605
14.1400,-16.55231345
14.1450,-16.5054859
14.1500,-16.45836852
14.1550,-16.4106852
14.1600,-16.36251019
14.1650,-16.31402913
14.1700,-16.2653831
14.1750,-16.2166298
14.1800,-16.16792829
14.1850,-16.11899729
14.1900,-16.07000993
14.1950,-16.02099739
14.2000,-15.97222753
14.2050,-15.92371183
14.2100,-15.87541198
14.2150,-15.82720857
14.2200,-15.77913019
14.2250,-15.73104747
14.2300,-15.68314692
14.2350,-15.6353889
14.2400,-15.58785078
14.2450,-15.54070146
14.2500,-15.49404879
14.2550,-15.44745891
14.2600,-15.40074388
14.2650,-15.35399372
14.2700,-15.30702874
14.2750,-15.25967393
14.2800,-15.21203292
14.2850,-15.16396248
14.2900,-15.11557924
14.2950,-15.06699134
14.3000,-15.01816184
14.3050,-14.96912401
14.3100,-14.91982054
14.3150,-14.87031339
14.3200,-14.82047533
14.3250,-14.7705204
14.3300,-14.72059695
14.3350,-14.6705704
14.3400,-14.62039296
14.3450,-14.57012419
14.3500,-14.51986261
14.3550,-14.46982766
14.3600,-14.42006151
14.3650,-14.37068335
14.3700,-14.3216951
14.3750,-14.27283658
14.3800,-14.22412656
14.3850,-14.17530004
14.3900,-14.12667842
14.3950,-14.0787373
14.4000,-14.03150055
14.4050,-13.98503562
14.4100,-13.93898978
14.4150,-13.89321235
14.4200,-13.84763305
14.4250,-13.80228198
14.4300,-13.75719838
14.4350,-13.71247812
14.4400,-13.66815218
14.4450,-13.62458793
14.4500,-13.58159077
14.4550,-13.53937043
14.4600,-13.49795083
14.4650,-13.45727311
14.4700,-13.41725826
14.4750,-13.37803411
14.4800,-13.339231
14.4850,-13.30117142
14.4900,-13.26374859
14.4950,-13.22685268
14.5000,-13.190254
14.5050,-13.15389196
14.5100,-13.11743557
14.5150,-13.08073723
14.5200,-13.04336901
14.5250,-13.00515935
14.5300,-12.9658507
14.5350,-12.92524293
14.5400,-12.88290669
14.5450,-12.83893748
14.5500,-12.79315208
14.5550,-12.74588083
14.5600,-12.69717676
14.5650,-12.64712827
14.5700,-12.59581028
14.5750,-12.54348311
14.5800,-12.49030767
14.5850,-12.43658918
14.5900,-12.38239383
14.5950,-12.32775002
14.6000,-12.27263943
14.6050,-12.21727373
14.6100,-12.16171767
14.6150,-12.10609723
14.6200,-12.050653
14.6250,-11.9952761
14.6300,-11.93975765
14.6350,-11.88398826
14.6400,-11.82799567
14.6450,-11.77193324
14.6500,-11.71588801
14.6550,-11.65971519
14.6600,-11.60358543
14.6650,-11.54743716
14.6700,-11.49106846
14.6750,-11.43457125
14.6800,-11.37803805
14.6850,-11.32133704
14.6900,-11.26455303
14.6950,-11.20758809
14.7000,-11.15052558
14.7050,-11.09325293
14.7100,-11.03583528
14.7150,-10.9786884
14.7200,-10.92193224
14.7250,-10.86558302
14.7300,-10.80938742
14.7350,-10.75348698
14.7400,-10.69790558
14.7450,-10.64235844
14.7500,-10.58683261
14.7550,-10.53144864
14.7600,-10.47622088
14.7650,-10.4209386
14.7700,-10.36552589
14.7750,-10.30995639
14.7800,-10.25469672
14.7850,-10.19987514
14.7900,-10.145711
14.7950,-10.09222498
14.8000,-10.03946028
14.8050,-9.987342808
14.8100,-9.935891583
14.8150,-9.885100265
14.8200,-9.834943004
14.8250,-9.785235677
14.8300,-9.73584089
14.8350,-9.686826502
14.8400,-9.638212496
14.8450,-9.590016986
14.8500,-9.54241994
14.8550,-9.495314359
14.8600,-9.448567139
14.8650,-9.40216924
14.8700,-9.356256529
14.8750,-9.31067909
14.8800,-9.265218412
14.8850,-9.219801884
14.8900,-9.174198409
14.8950,-9.128455545
14.9000,-9.082595373
14.9050,-9.036679112
14.9100,-8.990642843
14.9150,-8.944320214
14.9200,-8.897766309
14.9250,-8.850958949
14.9300,-8.804040982
14.9350,-8.757307577
14.9400,-8.710972374
14.9450,-8.66486693
14.9500,-8.619025512
14.9550,-8.573370184
14.9600,-8.527887623
14.9650,-8.482508322
14.9700,-8.437349119
14.9750,-8.392632224
14.9800,-8.348407369
14.9850,-8.304580664
14.9900,-8.261123634
14.9950,-8.217654029
15.0000,-8.174392614
15.0050,-8.131646233
15.0100,-8.089648704
15.0150,-8.048028924
15.0200,-8.00676068
15.0250,-7.965664798
15.0300,-7.924908423
15.0350,-7.884265887
15.0400,-7.843656744
15.0450,-7.80308802
15.0500,-7.762531745
15.0550,-7.721933428
15.0600,-7.681186871
15.0650,-7.640511058
15.0700,-7.599996318
15.0750,-7.559599964
15.0800,-7.519270523
15.0850,-7.479016608
15.0900,-7.438678758
15.0950,-7.398243128
15.1000,-7.357529555
15.1050,-7.316705194
15.1100,-7.275830153
15.1150,-7.234992021
15.1200,-7.194387442
15.1250,-7.154137839
15.1300,-7.114233418
15.1350,-7.074552906
15.1400,-7.035353942
15.1450,-6.996609996
15.1500,-6.958345702
15.1550,-6.920757988
15.1600,-6.884391792
15.1650,-6.849071493
15.1700,-6.814785117
15.1750,-6.781464058
15.1800,-6.749241493
15.1850,-6.718371706
15.1900,-6.688964993
15.1950,-6.660996586
15.2000,-6.634527869
15.2050,-6.609352935
15.2100,-6.585695043
15.2150,-6.563750041
15.2200,-6.543496444
15.2250,-6.525062004
15.2300,-6.508396673
15.2350,-6.493324729
15.2400,-6.479825644
15.2450,-6.467923349
15.2500,-6.457562489
15.2550,-6.448750977
15.2600,-6.441326651
15.2650,-6.435389928
15.2700,-6.430753514
15.2750,-6.427336869
15.2800,-6.424903859
15.2850,-6.423833959
15.2900,-6.424195032
15.2950,-6.426356222
15.3000,-6.430220473
15.3050,-6.435634312
15.3100,-6.442283653
15.3150,-6.449990958
15.3200,-6.458446379
15.3250,-6.467562184
15.3300,-6.47728146
15.3350,-6.487575605
15.3400,-6.498475732
15.3450,-6.509843987
15.3500,-6.521545074
15.3550,-6.533560949
15.3600,-6.546131625
15.3650,-6.559440405
15.3700,-6.573571054
15.3750,-6.588520921
15.3800,-6.60405271
15.3850,-6.620119111
15.3900,-6.636291924
15.3950,-6.652655557
15.4000,-6.669393592
15.4050,-6.686562046
15.4100,-6.704050283
15.4150,-6.721913171
15.4200,-6.740039921
15.4250,-6.758500581
15.4300,-6.777445469
15.4350,-6.797165431
15.4400,-6.817794079
15.4450,-6.839146727
15.4500,-6.861445812
15.4550,-6.884435414
15.4600,-6.907525447
15.4650,-6.930756946
15.4700,-6.954126777
15.4750,-6.977784312
15.4800,-7.002009604
15.4850,-7.026577786
15.4900,-7.051644487
15.4950,-7.077125695
15.5000,-7.103071196
15.5050,-7.129623943
15.5100,-7.156764531
15.5150,-7.184421026
15.5200,-7.212427094
15.5250,-7.240537171
15.5300,-7.268732831
15.5350,-7.296910821
15.5400,-7.325002555
15.5450,-7.352930378
15.5500,-7.380443924
15.5550,-7.407659322
15.5600,-7.434321161
15.5650,-7.460680401
15.5700,-7.486696804
15.5750,-7.51238917
15.5800,-7.537919394
15.5850,-7.563182354
15.5900,-7.588259581
15.5950,-7.61312575
15.6000,-7.637638213
15.6050,-7.661677884
15.6100,-7.685413559
15.6150,-7.708998839
15.6200,-7.732631099
15.6250,-7.756532097
15.6300,-7.780690309
15.6350,-7.805240949
15.6400,-7.829969177
15.6450,-7.855063865
15.6500,-7.880691238
15.6550,-7.906851738
15.6600,-7.933461987
15.6650,-7.960335227
15.6700,-7.987368173
15.6750,-8.014457045
15.6800,-8.041713298
15.6850,-8.069004796
15.6900,-8.096888366
15.6950,-8.12546129
15.7000,-8.154658312
15.7050,-8.184571964
15.7100,-8.215267952
15.7150,-8.246542227
15.7200,-8.278670106
15.7250,-8.311544005
15.7300,-8.345000076
15.7350,-8.37900806
15.7400,-8.413108457
15.7450,-8.447363086
15.7500,-8.4814395
15.7550,-8.515335006
15.7600,-8.5493621
15.7650,-8.583525155
15.7700,-8.617793795
15.7750,-8.652104587
15.7800,-8.686400336
15.7850,-8.72066741
15.7900,-8.755131938
15.7950,-8.789732941
15.8000,-8.824650332
15.8050,-8.859761256
15.8100,-8.894932117
15.8150,-8.930084183
15.8200,-8.965165126
15.8250,-9.00022416
15.8300,-9.035163523
15.8350,-9.070135803
15.8400,-9.105180875
15.8450,-9.140174023
15.8500,-9.17531832
15.8550,-9.210419326
15.8600,-9.245809963
15.8650,-9.281262178
15.8700,-9.317043358
15.8750,-9.352974933
15.8800,-9.389304594
15.8850,-9.425908643
15.8900,-9.462793037
15.8950,-9.500033287
15.9000,-9.537700233
15.9050,-9.575791435
15.9100,-9.614345312
15.9150,-9.65350893
15.9200,-9.693392008
15.9250,-9.733982017
15.9300,-9.77530543
15.9350,-9.817203181
15.9400,-9.859723231
15.9450,-9.902733597
15.9500,-9.946179023
15.9550,-9.990004956
15.9600,-10.03403021
15.9650,-10.07815742
15.9700,-10.12262921
15.9750,-10.1673542
15.9800,-10.21246189
15.9850,-10.25794912
15.9900,-10.30348551
15.9950,-10.34880388
16.0000,-10.39389065
16.0050,-10.43833461
16.0100,-10.48222634
16.0150,-10.52561271
16.0200,-10.56843286
16.0250,-10.61084015
16.0300,-10.65318136
16.0350,-10.69538442
16.0400,-10.73792014
16.0450,-10.7808199
16.0500,-10.82406443
16.0550,-10.86790103
16.0600,-10.91211813
16.0650,-10.95672181
16.0700,-11.00159144
16.0750,-11.04698224
16.0800,-11.09255487
16.0850,-11.13842148
16.0900,-11.18435176
16.0950,-11.23061296
16.1000,-11.27703928
16.1050,-11.3239316
16.1100,-11.37143359
16.1150,-11.41958637
16.1200,-11.46845686
16.1250,-11.51823706
16.1300,-11.5690349
16.1350,-11.62089392
16.1400,-11.6736602
16.1450,-11.7274153
16.1500,-11.78200701
16.1550,-11.8374387
16.1600,-11.89364725
16.1650,-11.95061866
16.1700,-12.00839495
16.1750,-12.06723715
16.1800,-12.12679428
16.1850,-12.18723871
16.1900,-12.24838717
16.1950,-12.31023569
16.2000,-12.37266867
16.2050,-12.43562623
16.2100,-12.49897395
16.2150,-12.56267707
16.2200,-12.62650656
16.2250,-12.69033338
16.2300,-12.75407245
16.2350,-12.81775418
16.2400,-12.88145132
16.2450,-12.94527557
16.2500,-13.00898856
16.2550,-13.07266033
16.2600,-13.13636364
16.2650,-13.19999776
16.2700,-13.2635508
16.2750,-13.32693624
16.2800,-13.39002805
16.2850,-13.45295736
16.2900,-13.51572157
16.2950,-13.57854157
16.3000,-13.64139926
16.3050,-13.70434177
16.3100,-13.76723809
16.3150,-13.83010468
16.3200,-13.89265134
16.3250,-13.95460001
16.3300,-14.01568424
16.3350,-14.07605949
16.3400,-14.13528414
16.3450,-14.19352183
16.3500,-14.25095523
16.3550,-14.30759466
16.3600,-14.36353198
16.3650,-14.41903736
16.3700,-14.47421753
16.3750,-14.52900886
16.3800,-14.58364073
16.3850,-14.6382406
16.3900,-14.69292388
16.3950,-14.74766245
16.4000,-14.80249279
16.4050,-14.85726329
16.4100,-14.91184678
16.4150,-14.966386
16.4200,-15.02099907
16.4250,-15.07553071
16.4300,-15.12995636
16.4350,-15.18415273
16.4400,-15.23803398
16.4450,-15.29160375
16.4500,-15.34488589
16.4550,-15.39780312
16.4600,-15.45031722
16.4650,-15.50252819
16.4700,-15.55431655
16.4750,-15.60560673
16.4800,-15.65663071
16.4850,-15.70733522
16.4900,-15.75782292
16.4950,-15.80795364
16.5000,-15.85808015
16.5050,-15.90811187
16.5100,-15.95814998
16.5150,-16.00806346
16.5200,-16.05798888
16.5250,-16.10794788
16.5300,-16.15797884
16.5350,-16.20804092
16.5400,-16.25782586
16.5450,-16.3072428
16.5500,-16.35626916
16.5550,-16.40473313
16.5600,-16.45253593
16.5650,-16.49968747
16.5700,-16.54611193
16.5750,-16.59210201
16.5800,-16.63758366
16.5850,-16.68236615
16.5900,-16.72649156
16.5950,-16.76965602
16.6000,-16.81171292
16.6050,-16.8526839
16.6100,-16.89241557
16.6150,-16.93088829
16.6200,-16.96820381
16.6250,-17.00447786
16.6300,-17.03964825
16.6350,-17.07346477
16.6400,-17.10593118
16.6450,-17.13678581
16.6500,-17.16578175
16.6550,-17.19260608
16.6600,-17.21732157
16.6650,-17.23949803
16.6700,-17.2593156
16.6750,-17.27665517
16.6800,-17.29143443
16.6850,-17.30350937
16.6900,-17.31280353
16.6950,-17.31922427
16.7000,-17.32242177
16.7050,-17.32210914
16.7100,-17.31789873
16.7150,-17.30937873
16.7200,-17.29608687
16.7250,-17.27797103
16.7300,-17.25509284
16.7350,-17.22758205
16.7400,-17.19579086
16.7450,-17.1601081
16.7500,-17.12120308
16.7550,-17.08000912
16.7600,-17.03736129
16.7650,-16.99396133
16.7700,-16.95029629
16.7750,-16.90712686
16.7800,-16.86502148
16.7850,-16.82444614
16.7900,-16.78597969
16.7950,-16.75016066
16.8000,-16.71729735
16.8050,-16.68790417
16.8100,-16.66251947
16.8150,-16.64151947
16.8200,-16.6250984
16.8250,-16.6132772
16.8300,-16.60591222
16.8350,-16.6026839
16.8400,-16.60336521
16.8450,-16.60741569
16.8500,-16.61440122
16.8550,-16.62419618
16.8600,-16.63637861
16.8650,-16.65068519
16.8700,-16.6667184
16.8750,-16.68398175
16.8800,-16.70206257
16.8850,-16.72069248
16.8900,-16.73979022
16.8950,-16.75921691
16.9000,-16.7787024
16.9050,-16.79793837
16.9100,-16.8165774
16.9150,-16.83440606
16.9200,-16.85125175
16.9250,-16.86698907
16.9300,-16.88172278
16.9350,-16.89554869
16.9400,-16.90865327
16.9450,-16.92137527
16.9500,-16.93402952
16.9550,-16.94686886
16.9600,-16.96009412
16.9650,-16.97393697
16.9700,-16.98800423
16.9750,-17.00194544
16.9800,-17.01533105
16.9850,-17.02778631
16.9900,-17.03897321
16.9950,-17.04840664
17.0000,-17.05619844
17.0050,-17.06204926
17.0100,-17.06626563
17.0150,-17.06877316
17.0200,-17.06968551
17.0250,-17.0689252
17.0300,-17.06638594
17.0350,-17.06233635
17.0400,-17.05688286
17.0450,-17.05004367
17.0500,-17.04155593
17.0550,-17.0310205
17.0600,-17.01816809
17.0650,-17.00309988
17.0700,-16.98633762
17.0750,-16.96801105
17.0800,-16.94829185
17.0850,-16.92726141
17.0900,-16.9052233
17.0950,-16.88204481
17.1000,-16.85775146
17.1050,-16.83234128
17.1100,-16.8055028
17.1150,-16.77699387
17.1200,-16.74675859
17.1250,-16.71475766
17.1300,-16.68097035
17.1350,-16.64535359
17.1400,-16.60813788
17.1450,-16.56958551
17.1500,-16.53020264
17.1550,-16.49000815
17.1600,-16.44916175
17.1650,-16.40803541
17.1700,-16.3666057
17.1750,-16.32518374
17.1800,-16.28409117
17.1850,-16.24351532
17.1900,-16.20340542
17.1950,-16.16382015
17.2000,-16.12465227
17.2050,-16.08590894
17.2100,-16.0475143
17.2150,-16.00951961
17.2200,-15.97169137
17.2250,-15.93386487
17.2300,-15.89606093
17.2350,-15.85806732
17.2400,-15.81973107
17.2450,-15.78096098
17.2500,-15.74167689
17.2550,-15.70186163
17.2600,-15.66137175
17.2650,-15.62021073
17.2700,-15.57877413
17.2750,-15.53731433
17.2800,-15.49637906
17.2850,-15.45621362
17.2900,-15.41688376
17.2950,-15.37863803
17.3000,-15.34132173
17.3050,-15.30525227
17.3100,-15.27046052
17.3150,-15.23714004
17.3200,-15.20518447
17.3250,-15.1745243
17.3300,-15.14514552
17.3350,-15.11646769
17.3400,-15.08833223
17.3450,-15.06034326
17.3500,-15.03228807
17.3550,-15.00422904
17.3600,-14.97600963
17.3650,-14.94763394
17.3700,-14.91863603
17.3750,-14.88901029
17.3800,-14.85842853
17.3850,-14.82712553
17.3900,-14.79492808
17.3950,-14.76197262
17.4000,-14.72806904
17.4050,-14.69319696
17.4100,-14.65699056
17.4150,-14.61928704
17.4200,-14.5797483
17.4250,-14.53807962
17.4300,-14.494233
17.4350,-14.44822327
17.4400,-14.39996925
17.4450,-14.34961596
17.4500,-14.29697339
17.4550,-14.24223019
17.4600,-14.18562959
17.4650,-14.12728436
17.4700,-14.06732567
17.4750,-14.00606571
17.4800,-13.94341384
17.4850,-13.87948007
17.4900,-13.81414663
17.4950,-13.74753323
17.5000,-13.67973507
17.5050,-13.61069845
17.5100,-13.54048305
17.5150,-13.46923475
17.5200,-13.39698693
17.5250,-13.3239177
17.5300,-13.25005228
17.5350,-13.17565568
17.5400,-13.10093849
17.5450,-13.02604926
17.5500,-12.95128179
17.5550,-12.87691342
17.5600,-12.80306067
17.5650,-12.73009415
17.5700,-12.65824305
17.5750,-12.58764091
17.5800,-12.51860262
17.5850,-12.45127258
17.5900,-12.38584467
17.5950,-12.32246904
17.6000,-12.26144224
17.6050,-12.20255475
17.6100,-12.145615
17.6150,-12.09037296
17.6200,-12.03665169
17.6250,-11.98434131
17.6300,-11.93293218
17.6350,-11.88252099
17.6400,-11.83256193
17.6450,-11.78293203
17.6500,-11.73348928
17.6550,-11.68405966
17.6600,-11.63458025
17.6650,-11.58496172
17.6700,-11.53533516
17.6750,-11.48572035
17.6800,-11.43661558
17.6850,-11.38799288
17.6900,-11.34004724
17.6950,-11.29286905
17.7000,-11.24680516
17.7050,-11.20177332
17.7100,-11.15808391
17.7150,-11.11573317
17.7200,-11.07483082
17.7250,-11.0354782
17.7300,-10.99746783
17.7350,-10.9607823
17.7400,-10.92525357
17.7450,-10.89066968
17.7500,-10.85694826
17.7550,-10.82402
17.7600,-10.79178612
17.7650,-10.76013402
17.7700,-10.7293517
17.7750,-10.69921214
17.7800,-10.67006723
17.7850,-10.64206655
17.7900,-10.61531901
17.7950,-10.58985375
17.8000,-10.56568837
17.8050,-10.54303684
17.8100,-10.52184782
17.8150,-10.50198832
17.8200,-10.48350697
17.8250,-10.46642188
17.8300,-10.45050939
17.8350,-10.43581656
17.8400,-10.42256717
17.8450,-10.41082042
17.8500,-10.4006285
17.8550,-10.39222904
17.8600,-10.38605338
17.8650,-10.38201712
17.8700,-10.38026986
17.8750,-10.38095557
17.8800,-10.38380488
17.8850,-10.3886827
17.8900,-10.39561231
17.8950,-10.40420285
17.9000,-10.41412891
17.9050,-10.42505666
17.9100,-10.4367163
17.9150,-10.44860761
17.9200,-10.46034092
17.9250,-10.47118086
17.9300,-10.48077502
17.9350,-10.48852546
17.9400,-10.49402344
17.9450,-10.49683295
17.9500,-10.49682977
17.9550,-10.49368464
17.9600,-10.48760463
17.9650,-10.47853224
17.9700,-10.46677689
17.9750,-10.45248738
17.9800,-10.43590277
17.9850,-10.41734469
17.9900,-10.39718485
17.9950,-10.3759634
18.0000,-10.35371451
18.0050,-10.33097285
18.0100,-10.30802843
18.0150,-10.28512437
18.0200,-10.26228712
18.0250,-10.23963959
18.0300,-10.21743132
18.0350,-10.19575681
18.0400,-10.17462643
18.0450,-10.15414867
18.0500,-10.13435058
18.0550,-10.11513068
18.0600,-10.09634885
18.0650,-10.0778151
18.0700,-10.05934098
18.0750,-10.04099195
18.0800,-10.02256489
18.0850,-10.00396535
18.0900,-9.98521232
18.0950,-9.966487264
18.1000,-9.947799833
18.1050,-9.929218889
18.1100,-9.910874521
18.1150,-9.892666051
18.1200,-9.874783746
18.1250,-9.857032365
18.1300,-9.839572172
18.1350,-9.822356847
18.1400,-9.80526743
18.1450,-9.788212857
18.1500,-9.770925723
18.1550,-9.753282974
18.1600,-9.73503332
18.1650,-9.716488025
18.1700,-9.697430448
18.1750,-9.678009802
18.1800,-9.658429796
18.1850,-9.638965683
18.1900,-9.619800732
18.1950,-9.601252143
18.2000,-9.583688118
18.2050,-9.567516878
18.2100,-9.552860284
18.2150,-9.540118115
18.2200,-9.529537969
18.2250,-9.521503283
18.2300,-9.515947181
18.2350,-9.512841406
18.2400,-9.512396071
18.2450,-9.514668871
18.2500,-9.51974425
18.2550,-9.527703348
18.2600,-9.538413364
18.2650,-9.551984812
18.2700,-9.568558605
18.2750,-9.588066734
18.2800,-9.610405608
18.2850,-9.635734331
18.2900,-9.663885823
18.2950,-9.694825803
18.3000,-9.728569983
18.3050,-9.765061955
18.3100,-9.804219252
18.3150,-9.846129578
18.3200,-9.890816628
18.3250,-9.93800482
18.3300,-9.987514347
18.3350,-10.03916957
18.3400,-10.09280005
18.3450,-10.14806068
18.3500,-10.20464814
18.3550,-10.26252956
18.3600,-10.32167858
18.3650,-10.38219197
18.3700,-10.44405574
18.3750,-10.50702345
18.3800,-10.57127865
18.3850,-10.63663892
18.3900,-10.70317362
18.3950,-10.7704851
18.4000,-10.83871981
18.4050,-10.90771707
18.4100,-10.97773742
18.4150,-11.04882139
18.4200,-11.1207582
18.4250,-11.19361492
18.4300,-11.26732908
18.4350,-11.34186669
18.4400,-11.41706238
18.4450,-11.49269601
18.4500,-11.56883525
18.4550,-11.64530812
18.4600,-11.72205877
18.4650,-11.79875401
18.4700,-11.87541008
18.4750,-11.95198795
18.4800,-12.02839752
18.4850,-12.10463949
18.4900,-12.18062781
18.4950,-12.25647466
18.5000,-12.33203366
18.5050,-12.40744361
18.5100,-12.48287769
18.5150,-12.55847317
18.5200,-12.63425008
18.5250,-12.71031748
18.5300,-12.78672715
18.5350,-12.86353608
18.5400,-12.94086808
18.5450,-13.01858985
18.5500,-13.09654086
18.5550,-13.17467944
18.5600,-13.25295386
18.5650,-13.33128643
18.5700,-13.4095386
18.5750,-13.48794127
18.5800,-13.56662351
18.5850,-13.64569592
18.5900,-13.7253481
18.5950,-13.80563842
18.6000,-13.88657327
18.6050,-13.96828388
18.6100,-14.05094875
18.6150,-14.13455001
18.6200,-14.21921463
18.6250,-14.30499912
18.6300,-14.39162499
18.6350,-14.47892681
18.6400,-14.56683785
18.6450,-14.65516289
18.6500,-14.74386066
18.6550,-14.83253806
18.6600,-14.92100239
18.6650,-15.008826
18.6700,-15.09585855
18.6750,-15.18176624
18.6800,-15.266286
18.6850,-15.34936064
18.6900,-15.43078513
18.6950,-15.51075634
18.7000,-15.58924685
18.7050,-15.66647053
18.7100,-15.74227592
18.7150,-15.8168635
18.7200,-15.89053135
18.7250,-15.96340241
18.7300,-16.03550085
18.7350,-16.1068966
18.7400,-16.17775705
18.7450,-16.24836427
18.7500,-16.31882941
18.7550,-16.38920404
18.7600,-16.45964076
18.7650,-16.53004837
18.7700,-16.60055113
18.7750,-16.6710458
18.7800,-16.74147343
18.7850,-16.8115255
18.7900,-16.88120321
18.7950,-16.95038105
18.8000,-17.01906026
18.8050,-17.08724755
18.8100,-17.15493179
18.8150,-17.2219037
18.8200,-17.28832109
18.8250,-17.35420335
18.8300,-17.42002558
18.8350,-17.4862371
18.8400,-17.55282361
18.8450,-17.62015194
18.8500,-17.68852734
18.8550,-17.75822569
18.8600,-17.82923056
18.8650,-17.90154907
18.8700,-17.97502721
18.8750,-18.04968995
18.8800,-18.12521817
18.8850,-18.20139716
18.8900,-18.27796563
18.8950,-18.3546253
18.9000,-18.43117307
18.9050,-18.50714295
18.9100,-18.58219354
18.9150,-18.65585806
18.9200,-18.72775127
18.9250,-18.79750348
18.9300,-18.86500289
18.9350,-18.93011425
18.9400,-18.99267225
18.9450,-19.05260297
18.9500,-19.10994084
18.9550,-19.16451662
18.9600,-19.21645269
18.9650,-19.26564856
18.9700,-19.311913
18.9750,-19.35555549
18.9800,-19.3965231
18.9850,-19.43497217
18.9900,-19.47090476
18.9950,-19.50429161
19.0000,-19.53528285
19.0050,-19.56375439
19.0100,-19.5897801
19.0150,-19.61343761
19.0200,-19.63473469
19.0250,-19.65373649
19.0300,-19.67076217
19.0350,-19.6859078
19.0400,-19.69944097
19.0450,-19.71140973
19.0500,-19.7220323
19.0550,-19.73143921
19.0600,-19.73955282
19.0650,-19.74679822
19.0700,-19.75308354
19.0750,-19.75875088
19.0800,-19.7639762
19.0850,-19.76909553
19.0900,-19.77396843
19.0950,-19.77877745
19.1000,-19.78340913
19.1050,-19.78786877
19.1100,-19.7918461
19.1150,-19.79555706
19.1200,-19.79871261
19.1250,-19.80097265
19.1300,-19.80216519
19.1350,-19.80206357
19.1400,-19.80064945
19.1450,-19.79803754
19.1500,-19.79420659
19.1550,-19.78912138
19.1600,-19.78307281
19.1650,-19.77621521
19.1700,-19.76873645
19.1750,-19.76049844
19.1800,-19.75178713
19.1850,-19.74257325
19.1900,-19.73305495
19.1950,-19.72336965
19.2000,-19.71373772
19.2050,-19.70430328
19.2100,-19.69495871
19.2150,-19.68560711
19.2200,-19.67604204
19.2250,-19.66619343
19.2300,-19.65605082
19.2350,-19.64541277
19.2400,-19.63429244
19.2450,-19.62270013
19.2500,-19.61045974
19.2550,-19.59775268
19.2600,-19.58440461
19.2650,-19.57079918
19.2700,-19.55718894
19.2750,-19.54360699
19.2800,-19.53029791
19.2850,-19.51740424
19.2900,-19.50516998
19.2950,-19.49366794
19.3000,-19.48279595
19.3050,-19.4728134
19.3100,-19.46361991
19.3150,-19.45507169
19.3200,-19.44723071
19.3250,-19.44016517
19.3300,-19.43347702
19.3350,-19.42717086
19.3400,-19.42113426
19.3450,-19.41521067
19.3500,-19.40913924
19.3550,-19.40287842
19.3600,-19.39625536
19.3650,-19.38907479
19.3700,-19.38115368
19.3750,-19.37240973
19.3800,-19.36270197
19.3850,-19.35200432
19.3900,-19.34055555
19.3950,-19.32858602
19.4000,-19.31633102
19.4050,-19.30370426
19.4100,-19.29091895
19.4150,-19.27781299
19.4200,-19.26440031
19.4250,-19.25089225
19.4300,-19.23711553
19.4350,-19.22269786
19.4400,-19.2079364
19.4450,-19.19253581
19.4500,-19.17652562
19.4550,-19.15982063
19.4600,-19.14220462
19.4650,-19.12358287
19.4700,-19.10393936
19.4750,-19.08324889
19.4800,-19.06142487
19.4850,-19.03860342
19.4900,-19.01472528
19.4950,-18.98983311
19.5000,-18.96384278
19.5050,-18.93651615
19.5100,-18.90822704
19.5150,-18.87916908
19.5200,-18.84950246
19.5250,-18.81952118
19.5300,-18.78940743
19.5350,-18.75916064
19.5400,-18.72882556
19.5450,-18.6982127
19.5500,-18.66709119
19.5550,-18.63531157
19.5600,-18.60294019
19.5650,-18.56979038
19.5700,-18.53574415
19.5750,-18.5008695
19.5800,-18.46492979
19.5850,-18.42783618
19.5900,-18.3893137
19.5950,-18.34939855
19.6000,-18.30797551
19.6050,-18.26497125
19.6100,-18.22067476
19.6150,-18.17540888
19.6200,-18.12941435
19.6250,-18.08275554
19.6300,-18.03568888
19.6350,-17.98832277
19.6400,-17.94042971
19.6450,-17.89191865
19.6500,-17.84280576
19.6550,-17.7929038
19.6600,-17.74203048
19.6650,-17.6901596
19.6700,-17.63735012
19.6750,-17.58324609
19.6800,-17.52793941
19.6850,-17.47141923
19.6900,-17.4136535
19.6950,-17.35430211
19.7000,-17.29354297
19.7050,-17.23151375
19.7100,-17.16825916
19.7150,-17.10377554
19.7200,-17.03839901
19.7250,-16.97242976
19.7300,-16.90606256
19.7350,-16.83978612
19.7400,-16.77348298
19.7450,-16.7073248
19.7500,-16.64136732
19.7550,-16.57580284
19.7600,-16.51085668
19.7650,-16.44673527
19.7700,-16.38358442
19.7750,-16.32138184
19.7800,-16.26009735
19.7850,-16.19962702
19.7900,-16.13979386
19.7950,-16.08047624
19.8000,-16.02146854
19.8050,-15.96291359
19.8100,-15.90435598
19.8150,-15.84591692
19.8200,-15.78734841
19.8250,-15.72881466
19.8300,-15.67004578
19.8350,-15.61106999
19.8400,-15.55175075
19.8450,-15.4922031
19.8500,-15.43265495
19.8550,-15.37333399
19.8600,-15.31417172
19.8650,-15.25507334
19.8700,-15.19614126
19.8750,-15.13709945
19.8800,-15.0780191
19.8850,-15.0188824
19.8900,-14.96005285
19.8950,-14.90148168
19.9000,-14.84339823
19.9050,-14.78562916
19.9100,-14.72827694
19.9150,-14.67108582
19.9200,-14.61384391
19.9250,-14.55638021
19.9300,-14.49858393
19.9350,-14.44025409
19.9400,-14.3814145
19.9450,-14.32245373
19.9500,-14.2632591
19.9550,-14.20373164
19.9600,-14.14421924
19.9650,-14.08457507
19.9700,-14.0247096
19.9750,-13.96477439
19.9800,-13.9046802
19.9850,-13.84451264
19.9900,-13.78436244
19.9950,-13.72417372
20.0000,-13.66382739
20.0050,-13.6032396
20.0100,-13.54243124
20.0150,-13.48156629
20.0200,-13.4203958
20.0250,-13.35903719
20.0300,-13.29734015
20.0350,-13.23549002
20.0400,-13.17346308
20.0450,-13.11121986
20.0500,-13.04865482
20.0550,-12.98569562
20.0600,-12.92225988
20.0650,-12.85810232
20.0700,-12.79317362
20.0750,-12.72745282
20.0800,-12.66096411
20.0850,-12.59377178
20.0900,-12.52570302
20.0950,-12.45658355
20.1000,-12.38653036
20.1050,-12.31554183
20.1100,-12.24377399
20.1150,-12.17121532
20.1200,-12.09804312
20.1250,-12.02409836
20.1300,-11.94954227
20.1350,-11.87425186
20.1400,-11.79855675
20.1450,-11.72232263
20.1500,-11.64560618
20.1550,-11.56814895
20.1600,-11.49001438
20.1650,-11.4113744
20.1700,-11.33230485
20.1750,-11.25309395
20.1800,-11.17369743
20.1850,-11.09405926
20.1900,-11.01435992
20.1950,-10.9348443
20.2000,-10.855448
20.2050,-10.77649302
20.2100,-10.69779346
20.2150,-10.6194099
20.2200,-10.54105597
20.2250,-10.46286314
20.2300,-10.38492716
20.2350,-10.30722337
20.2400,-10.23001362
20.2450,-10.15301547
20.2500,-10.07625607
20.2550,-9.999988749
20.2600,-9.924189354
20.2650,-9.848954738
20.2700,-9.774596334
20.2750,-9.700998013
20.2800,-9.62818853
20.2850,-9.556037782
20.2900,-9.484217319
20.2950,-9.412746852
20.3000,-9.341566728
20.3050,-9.270912508
20.3100,-9.20091581
20.3150,-9.131491379
20.3200,-9.063125563
20.3250,-8.995615854
20.3300,-8.929144442
20.3350,-8.863630483
20.3400,-8.799298373
20.3450,-8.736276453
20.3500,-8.674524894
20.3550,-8.613927187
20.3600,-8.554508675
20.3650,-8.496319361
20.3700,-8.439206295
20.3750,-8.38305171
20.3800,-8.327765032
20.3850,-8.273138486
20.3900,-8.219185368
20.3950,-8.165584551
20.4000,-8.112270225
20.4050,-8.059066622
20.4100,-8.00572101
20.4150,-7.952318792
20.4200,-7.89863816
20.4250,-7.844532223
20.4300,-7.789979568
20.4350,-7.735231519
20.4400,-7.680081215
20.4450,-7.624601043
20.4500,-7.568768086
20.4550,-7.512655124
20.4600,-7.456293428
20.4650,-7.399513968
20.4700,-7.342394586
20.4750,-7.284879333
20.4800,-7.227043664
20.4850,-7.169015636
20.4900,-7.110443606
20.4950,-7.051108613
20.5000,-6.991178881
20.5050,-6.930485557
20.5100,-6.869057792
20.5150,-6.806706476
20.5200,-6.743563721
20.5250,-6.679483054
20.5300,-6.614453107
20.5350,-6.548506141
20.5400,-6.481433941
20.5450,-6.413379045
20.5500,-6.344459976
20.5550,-6.274494323
20.5600,-6.203709562
20.5650,-6.132203548
20.5700,-6.05984249
20.5750,-5.987077118
20.5800,-5.914128346
20.5850,-5.841236966
20.5900,-5.76877926
20.5950,-5.697039035
20.6000,-5.626144346
20.6050,-5.555970198
20.6100,-5.486546066
20.6150,-5.418339568
20.6200,-5.351325024
20.6250,-5.285661466
20.6300,-5.221457375
20.6350,-5.158792597
20.6400,-5.097670307
20.6450,-5.038027649
20.6500,-4.979901745
20.6550,-4.923335053
20.6600,-4.868638658
20.6650,-4.815709668
20.6700,-4.764444246
20.6750,-4.714991576
20.6800,-4.667303445
20.6850,-4.621614154
20.6900,-4.577906996
20.6950,-4.536371116
20.7000,-4.496668125
20.7050,-4.45865313
20.7100,-4.422361225
20.7150,-4.387313897
20.7200,-4.353486363
20.7250,-4.320654108
20.7300,-4.288697925
20.7350,-4.257192553
20.7400,-4.226082679
20.7450,-4.195065275
20.7500,-4.163852335
20.7550,-4.132185864
20.7600,-4.099760503
20.7650,-4.066488536
20.7700,-4.031933084
20.7750,-3.996051846
20.7800,-3.958843687
20.7850,-3.920422263
20.7900,-3.880760009
20.7950,-3.840197121
20.8000,-3.798743657
20.8050,-3.756585846
20.8100,-3.713763391
20.8150,-3.67070953
20.8200,-3.627593862
20.8250,-3.584619905
20.8300,-3.542046819
20.8350,-3.499700274
20.8400,-3.45802525
20.8450,-3.417092745
20.8500,-3.377175278
20.8550,-3.338567331
20.8600,-3.30126872
20.8650,-3.265476519
20.8700,-3.231406728
20.8750,-3.199202856
20.8800,-3.168701794
20.8850,-3.139951589
20.8900,-3.11295504
20.8950,-3.087873386
20.9000,-3.064921
20.9050,-3.044322549
20.9100,-3.026285521
20.9150,-3.010503612
20.9200,-2.997121053
20.9250,-2.986300332
20.9300,-2.978024635
20.9350,-2.972185823
20.9400,-2.968849927
20.9450,-2.967971407
20.9500,-2.969650895
20.9550,-2.973854819
20.9600,-2.980197825
20.9650,-2.988560845
20.9700,-2.99883128
20.9750,-3.010661909
20.9800,-3.023773214
20.9850,-3.037643705
20.9900,-3.051970619
20.9950,-3.0665232
21.0000,-3.081579764
21.0050,-3.096974079
21.0100,-3.112381624
21.0150,-3.127697225
21.0200,-3.142820044
21.0250,-3.157785092
21.0300,-3.172324421
21.0350,-3.186353277
21.0400,-3.199577963
21.0450,-3.211925057
21.0500,-3.223408534
21.0550,-3.234090413
21.0600,-3.244006509
21.0650,-3.253254216
21.0700,-3.262035274
21.0750,-3.270362824
21.0800,-3.27860129
21.0850,-3.286751694
21.0900,-3.294879299
21.0950,-3.302963308
21.1000,-3.311082804
21.1050,-3.319002438
21.1100,-3.327025999
21.1150,-3.335133441
21.1200,-3.343396843
21.1250,-3.351863138
21.1300,-3.360484495
21.1350,-3.369575976
21.1400,-3.379156676
21.1450,-3.389321938
21.1500,-3.400086438
21.1550,-3.41174461
21.1600,-3.42428779
21.1650,-3.437739207
21.1700,-3.452435472
21.1750,-3.468081225
21.1800,-3.484724717
21.1850,-3.502656594
21.1900,-3.521817943
21.1950,-3.542171842
21.2000,-3.563576733
21.2050,-3.585995532
21.2100,-3.609250006
21.2150,-3.633725433
21.2200,-3.659012594
21.2250,-3.684889921
21.2300,-3.711349754
21.2350,-3.738443881
21.2400,-3.766064301
21.2450,-3.794247887
21.2500,-3.822964283
21.2550,-3.852239926
21.2600,-3.882054289
21.2650,-3.912390527
21.2700,-3.943192448
21.2750,-3.974524675
21.2800,-4.006497522
21.2850,-4.039043342
21.2900,-4.072251349
21.2950,-4.106159057
21.3000,-4.140623795
21.3050,-4.175517573
21.3100,-4.211015182
21.3150,-4.247135843
21.3200,-4.283880338
21.3250,-4.321337234
21.3300,-4.359552602
21.3350,-4.398755917
21.3400,-4.439062552
21.3450,-4.480738295
21.3500,-4.52402114
21.3550,-4.568841197
21.3600,-4.615271398
21.3650,-4.663377069
21.3700,-4.713122117
21.3750,-4.764658993
21.3800,-4.817741811
21.3850,-4.8724664
21.3900,-4.929041709
21.3950,-4.987628627
21.4000,-5.048338622
21.4050,-5.111356832
21.4100,-5.17687048
21.4150,-5.244690791
21.4200,-5.314783082
21.4250,-5.387328125
21.4300,-5.462207392
21.4350,-5.539505011
21.4400,-5.618925853
21.4450,-5.700469491
21.4500,-5.784194752
21.4550,-5.86995717
21.4600,-5.957666763
21.4650,-6.047309867
21.4700,-6.138693053
21.4750,-6.231835222
21.4800,-6.326625161
21.4850,-6.422810842
21.4900,-6.520334778
21.4950,-6.619058951
21.5000,-6.718868692
21.5050,-6.819574037
21.5100,-6.921163785
21.5150,-7.0231814
21.5200,-7.12580576
21.5250,-7.228971122
21.5300,-7.332796379
21.5350,-7.437102206
21.5400,-7.541643102
21.5450,-7.646476843
21.5500,-7.75148317
21.5550,-7.856695501
21.5600,-7.962104806
21.5650,-8.067757269
21.5700,-8.173883386
21.5750,-8.280142222
21.5800,-8.386512959
21.5850,-8.493114409
21.5900,-8.599689438
21.5950,-8.706296983
21.6000,-8.812613822
21.6050,-8.91896808
21.6100,-9.02514256
21.6150,-9.131102165
21.6200,-9.23672831
21.6250,-9.341743748
21.6300,-9.446066056
21.6350,-9.549635003
21.6400,-9.652404441
21.6450,-9.754329836
21.6500,-9.855301399
21.6550,-9.955422712
21.6600,-10.05475703
21.6650,-10.15347119
21.6700,-10.2517134
21.6750,-10.34937097
21.6800,-10.44670551
21.6850,-10.54373019
21.6900,-10.64040185
21.6950,-10.73679721
21.7000,-10.83281836
21.7050,-10.92850292
21.7100,-11.02360522
21.7150,-11.11849862
21.7200,-11.21326539
21.7250,-11.3078319
21.7300,-11.40229324
21.7350,-11.4965015
21.7400,-11.59062031
21.7450,-11.68448549
21.7500,-11.77800874
21.7550,-11.87104975
21.7600,-11.9637658
21.7650,-12.05583973
21.7700,-12.14713086
21.7750,-12.23776096
21.7800,-12.32798943
21.7850,-12.41776635
21.7900,-12.50726083
21.7950,-12.59617367
21.8000,-12.68444282
21.8050,-12.77208842
21.8100,-12.85908546
21.8150,-12.94562459
21.8200,-13.03140247
21.8250,-13.11617278
21.8300,-13.19968957
21.8350,-13.28162255
21.8400,-13.36182831
21.8450,-13.44030137
21.8500,-13.51694722
21.8550,-13.591614
21.8600,-13.6640581
21.8650,-13.73425818
21.8700,-13.80196207
21.8750,-13.86720816
21.8800,-13.92996499
21.8850,-13.99014897
21.8900,-14.04810335
21.8950,-14.1037663
21.9000,-14.15755759
21.9050,-14.20957495
21.9100,-14.26025041
21.9150,-14.30992993
21.9200,-14.35923384
21.9250,-14.40845243
21.9300,-14.45785662
21.9350,-14.50779489
21.9400,-14.55825468
21.9450,-14.60950847
21.9500,-14.6616413
21.9550,-14.71486886
21.9600,-14.76932115
21.9650,-14.82485371
21.9700,-14.88163338
21.9750,-14.93961536
21.9800,-14.99842929
21.9850,-15.05784983
21.9900,-15.11780297
21.9950,-15.17799823
22.0000,-15.23867492
22.0050,-15.30003528
22.0100,-15.36236864
22.0150,-15.42594008
22.0200,-15.49086425
22.0250,-15.55762105
22.0300,-15.6263146
22.0350,-15.69753741
22.0400,-15.77128493
22.0450,-15.84787669
22.0500,-15.92712071
22.0550,-16.00902718
22.0600,-16.09298811
22.0650,-16.17866783
22.0700,-16.26522559
22.0750,-16.35157369
22.0800,-16.43657875
22.0850,-16.51899941
22.0900,-16.59780625
22.0950,-16.67254621
22.1000,-16.74283285
22.1050,-16.80835369
22.1100,-16.86869048
22.1150,-16.92384374
22.1200,-16.97409229
22.1250,-17.01982659
22.1300,-17.06171936
22.1350,-17.10045947
22.1400,-17.13656311
22.1450,-17.17022967
22.1500,-17.20182841
22.1550,-17.23166561
22.1600,-17.25981164
22.1650,-17.28644127
22.1700,-17.3114349
22.1750,-17.33452994
22.1800,-17.35519358
22.1850,-17.37299304
22.1900,-17.38755981
22.1950,-17.39834423
22.2000,-17.40494902
22.2050,-17.40690389
22.2100,-17.40382881
22.2150,-17.39558911
22.2200,-17.38209028
22.2250,-17.36353302
22.2300,-17.34030599
22.2350,-17.31263212
22.2400,-17.28132568
22.2450,-17.24674205
22.2500,-17.20967901
22.2550,-17.17089088
22.2600,-17.13087324
22.2650,-17.0903307
22.2700,-17.04943601
22.2750,-17.008558
22.2800,-16.96802101
22.2850,-16.92814725
22.2900,-16.88903845
22.2950,-16.85106048
22.3000,-16.81421421
22.3050,-16.77842021
22.3100,-16.74360073
22.3150,-16.70970894
22.3200,-16.67694724
22.3250,-16.64505475
22.3300,-16.61421437
22.3350,-16.58437007
22.3400,-16.55562899
22.3450,-16.52793579
22.3500,-16.50155368
22.3550,-16.4762597
22.3600,-16.45229444
22.3650,-16.42985842
22.3700,-16.40914576
22.3750,-16.39044715
22.3800,-16.37370159
22.3850,-16.3591625
22.3900,-16.34675368
22.3950,-16.33609656
22.4000,-16.32676928
22.4050,-16.3180818
22.4100,-16.30981046
22.4150,-16.30135474
22.4200,-16.29225759
22.4250,-16.28234074
22.4300,-16.27100653
22.4350,-16.25798676
22.4400,-16.24332615
22.4450,-16.22712001
22.4500,-16.20933277
22.4550,-16.19017436
22.4600,-16.16982861
22.4650,-16.14822642
22.4700,-16.12553031
22.4750,-16.10199699
22.4800,-16.07768991
22.4850,-16.05289933
22.4900,-16.02711546
22.4950,-16.00049788
22.5000,-15.97253329
22.5050,-15.9430128
22.5100,-15.91156529
22.5150,-15.87767923
22.5200,-15.84076405
22.5250,-15.8007105
22.5300,-15.75745623
22.5350,-15.71104395
22.5400,-15.66161629
22.5450,-15.60957635
22.5500,-15.55497946
22.5550,-15.4981942
22.5600,-15.43970483
22.5650,-15.37972332
22.5700,-15.31883555
22.5750,-15.25754922
22.5800,-15.19656629
22.5850,-15.13625951
22.5900,-15.07735512
22.5950,-15.01991616
22.6000,-14.96415958
22.6050,-14.91038337
22.6100,-14.85860948
22.6150,-14.80860252
22.6200,-14.76034823
22.6250,-14.7135898
22.6300,-14.66842203
22.6350,-14.62466724
22.6400,-14.58207341
22.6450,-14.54058928
22.6500,-14.50003723
22.6550,-14.46055161
22.6600,-14.42221396
22.6650,-14.38495382
22.6700,-14.3489257
22.6750,-14.31414887
22.6800,-14.28090945
22.6850,-14.24921729
22.6900,-14.21901735
22.6950,-14.19038769
22.7000,-14.16325849
22.7050,-14.13754599
22.7100,-14.11326377
22.7150,-14.08991738
22.7200,-14.067567
22.7250,-14.04565784
22.7300,-14.02408421
22.7350,-14.00258406
22.7400,-13.98082891
22.7450,-13.95846421
22.7500,-13.93525105
22.7550,-13.91084299
22.7600,-13.88506724
22.7650,-13.85774983
22.7700,-13.82872143
22.7750,-13.7979779
22.7800,-13.76554471
22.7850,-13.73108865
22.7900,-13.69490525
22.7950,-13.65695836
22.8000,-13.61763918
22.8050,-13.57696568
22.8100,-13.53525102
22.8150,-13.49277348
22.8200,-13.44994695
22.8250,-13.40686994
22.8300,-13.36369335
22.8350,-13.32057262
22.8400,-13.27755888
22.8450,-13.23474915
22.8500,-13.19230235
22.8550,-13.15026868
22.8600,-13.10852862
22.8650,-13.06714703
22.8700,-13.02619697
22.8750,-12.98559594
22.8800,-12.94511135
22.8850,-12.90470347
22.8900,-12.86399103
22.8950,-12.82317363
22.9000,-12.78203314
22.9050,-12.74049197
22.9100,-12.6985432
22.9150,-12.65631354
22.9200,-12.61380408
22.9250,-12.57132751
22.9300,-12.52874975
22.9350,-12.48608442
22.9400,-12.44363469
22.9450,-12.40143415
22.9500,-12.35965399
22.9550,-12.31827197
22.9600,-12.27710621
22.9650,-12.2361856
22.9700,-12.19543935
22.9750,-12.15487956
22.9800,-12.11451961
22.9850,-12.0741424
22.9900,-12.03399322
22.9950,-11.99392349
23.0000,-11.95386078
23.0050,-11.91393528
23.0100,-11.87380311
23.0150,-11.83380104
23.0200,-11.79354584
23.0250,-11.75328269
23.0300,-11.71273967
23.0350,-11.67201411
23.0400,-11.63101318
23.0450,-11.58983089
23.0500,-11.54837464
23.0550,-11.50665934
23.0600,-11.46476111
23.0650,-11.422561
23.0700,-11.37991044
23.0750,-11.33676513
23.0800,-11.29294881
23.0850,-11.2486587
23.0900,-11.20404514
23.0950,-11.15892741
23.1000,-11.11340202
23.1050,-11.06763964
23.1100,-11.0216792
23.1150,-10.97579277
23.1200,-10.93010835
23.1250,-10.88493044
23.1300,-10.84031072
23.1350,-10.79645627
23.1400,-10.75338863
23.1450,-10.71117382
23.1500,-10.66972757
23.1550,-10.62902853
23.1600,-10.58902369
23.1650,-10.54975545
23.1700,-10.51102781
23.1750,-10.47287886
23.1800,-10.43519111
23.1850,-10.39792772
23.1900,-10.36107627
23.1950,-10.32434028
23.2000,-10.28774989
23.2050,-10.25115914
23.2100,-10.21441188
23.2150,-10.17745887
23.2200,-10.14031769
23.2250,-10.10296124
23.2300,-10.06549253
23.2350,-10.02802201
23.2400,-9.99045282
23.2450,-9.952845165
23.2500,-9.914973958
23.2550,-9.876867345
23.2600,-9.838571375
23.2650,-9.800067104
23.2700,-9.761145037
23.2750,-9.721693582
23.2800,-9.681614843
23.2850,-9.641058776
23.2900,-9.599750043
23.2950,-9.557981968
23.3000,-9.515970414
23.3050,-9.473534655
23.3100,-9.431021411
23.3150,-9.388386146
23.3200,-9.345949828
23.3250,-9.303686306
23.3300,-9.261904492
23.3350,-9.220623744
23.3400,-9.18002597
23.3450,-9.140411249
23.3500,-9.102079548
23.3550,-9.065133584
23.3600,-9.029656509
23.3650,-8.995783037
23.3700,-8.963558489
23.3750,-8.933009089
23.3800,-8.904337272
23.3850,-8.877292712
23.3900,-8.851572405
23.3950,-8.827183294
23.4000,-8.803906248
23.4050,-8.781774146
23.4100,-8.760623961
23.4150,-8.740170592
23.4200,-8.720514061
23.4250,-8.70147366
23.4300,-8.68296157
23.4350,-8.665025459
23.4400,-8.647631802
23.4450,-8.630703591
23.4500,-8.614353743
23.4550,-8.598384434
23.4600,-8.582960659
23.4650,-8.56806527
23.4700,-8.553757494
23.4750,-8.540106748
23.4800,-8.527326326
23.4850,-8.515404345
23.4900,-8.504494047
23.4950,-8.494713291
23.5000,-8.486026654
23.5050,-8.478764809
23.5100,-8.472871972
23.5150,-8.468386253
23.5200,-8.465182847
23.5250,-8.463355814
23.5300,-8.462626584
23.5350,-8.463002394
23.5400,-8.464405895
23.5450,-8.466964081
23.5500,-8.470662045
23.5550,-8.475685165
23.5600,-8.48222492
23.5650,-8.490303548
23.5700,-8.500121866
23.5750,-8.511858823
23.5800,-8.525498773
23.5850,-8.541095113
23.5900,-8.558882064
23.5950,-8.578576794
23.6000,-8.600210757
23.6050,-8.623800343
23.6100,-8.649330822
23.6150,-8.676951628
23.6200,-8.706772333
23.6250,-8.738772403
23.6300,-8.773124997
23.6350,-8.809773528
23.6400,-8.848638524
23.6450,-8.889492758
23.6500,-8.932190997
23.6550,-8.976515151
23.6600,-9.02214735
23.6650,-9.068933374
23.6700,-9.116755155
23.6750,-9.165337859
23.6800,-9.214537215
23.6850,-9.264307374
23.6900,-9.314412375
23.6950,-9.364927638
23.7000,-9.415505933
23.7050,-9.466079232
23.7100,-9.516620881
23.7150,-9.567262535
23.7200,-9.617725254
23.7250,-9.668043181
23.7300,-9.718172555
23.7350,-9.768085168
23.7400,-9.817744103
23.7450,-9.867327008
23.7500,-9.917137651
23.7550,-9.967384528
23.7600,-10.01819203
23.7650,-10.06976531
23.7700,-10.12225267
23.7750,-10.17558921
23.7800,-10.22978697
23.7850,-10.28482709
23.7900,-10.34044907
23.7950,-10.39667333
23.8000,-10.4534434
23.8050,-10.51033321
23.8100,-10.56748429
23.8150,-10.62474603
23.8200,-10.68214795
23.8250,-10.73950282
23.8300,-10.79723808
23.8350,-10.85548237
23.8400,-10.91453259
23.8450,-10.97458707
23.8500,-11.03593555
23.8550,-11.09879726
23.8600,-11.16328284
23.8650,-11.22963949
23.8700,-11.29784731
23.8750,-11.36765779
23.8800,-11.43879944
23.8850,-11.51127951
23.8900,-11.58469723
23.8950,-11.65925854
23.9000,-11.73481661
23.9050,-11.8118117
23.9100,-11.89008326
23.9150,-11.96977655
23.9200,-12.05068796
23.9250,-12.13303452
23.9300,-12.21681301
23.9350,-12.30228789
23.9400,-12.3895823
23.9450,-12.47889337
23.9500,-12.57021453
23.9550,-12.66397804
23.9600,-12.76049239
23.9650,-12.86010629
23.9700,-12.96313861
23.9750,-13.06969606
23.9800,-13.17963557
23.9850,-13.29293237
23.9900,-13.40925925
23.9950,-13.52794493
24.0000,-13.64865236
24.0050,-13.77056126
24.0100,-13.89291724
24.0150,-14.01490959
24.0200,-14.13583958
24.0250,-14.25507163
24.0300,-14.3718494
24.0350,-14.48572536
24.0400,-14.59645362
24.0450,-14.70357196
24.0500,-14.80660592
24.0550,-14.90542454
24.0600,-15.00005066
24.0650,-15.09032629
24.0700,-15.17619978
24.0750,-15.25807582
24.0800,-15.33600329
24.0850,-15.41036091
24.0900,-15.48162914
24.0950,-15.55000913
24.1000,-15.61572541
24.1050,-15.67904733
24.1100,-15.74034754
24.1150,-15.80020636
24.1200,-15.85915901
24.1250,-15.91768712
24.1300,-15.97591999
24.1350,-16.033993
24.1400,-16.0919516
24.1450,-16.1497633
24.1500,-16.207471
24.1550,-16.26488054
24.1600,-16.32187864
24.1650,-16.37832278
24.1700,-16.43429519
24.1750,-16.48977821
24.1800,-16.54523518
24.1850,-16.60053899
24.1900,-16.6560602
24.1950,-16.71170834
24.2000,-16.7674419
24.2050,-16.82304519
24.2100,-16.87861453
24.2150,-16.9341785
24.2200,-16.98990929
24.2250,-17.04603488
24.2300,-17.10246756
24.2350,-17.1590931
24.2400,-17.21622138
24.2450,-17.27381328
24.2500,-17.33223043
24.2550,-17.39129003
24.2600,-17.45103873
24.2650,-17.51116797
24.2700,-17.57130856
24.2750,-17.63121008
24.2800,-17.6908027
24.2850,-17.74988367
24.2900,-17.80851961
24.2950,-17.86659742
24.3000,-17.92391775
24.3050,-17.980173
24.3100,-18.0352642
24.3150,-18.08892297
24.3200,-18.14119505
24.3250,-18.19200699
24.3300,-18.2414007
24.3350,-18.28916221
24.3400,-18.33505571
24.3450,-18.37910413
24.3500,-18.42151028
24.3550,-18.46235046
24.3600,-18.50177767
24.3650,-18.53980906
24.3700,-18.57666572
24.3750,-18.61218396
24.3800,-18.64634782
24.3850,-18.6791474
24.3900,-18.71052356
24.3950,-18.74047943
24.4000,-18.76926462
24.4050,-18.7969341
24.4100,-18.82372717
24.4150,-18.84954375
24.4200,-18.87427368
24.4250,-18.89798664
24.4300,-18.92103237
24.4350,-18.94336983
24.4400,-18.96495782
24.4450,-18.98586472
24.4500,-19.00604015
24.4550,-19.02554311
24.4600,-19.04447838
24.4650,-19.06277946
24.4700,-19.08073304
24.4750,-19.0986864
24.4800,-19.11662953
24.4850,-19.13501361
24.4900,-19.15372677
24.4950,-19.17303793
24.5000,-19.19288065
24.5050,-19.21320048
24.5100,-19.23371781
24.5150,-19.24153995
24.5200,-19.25012364
24.5250,-19.25929607
24.5300,-19.26888617
24.5350,-19.27873114
24.5400,-19.28867967
24.5450,-19.29859247
24.5500,-19.30834008
24.5550,-19.31779832
24.5600,-19.3268433
24.5650,-19.33534838
24.5700,-19.34318412
24.5750,-19.3502215
