type,name,time_units,begin_time,frequency,count,units
signal,"Noraxon MyoMotion-Segments-Upper arm RT-Pitch","s",0.0000,200,4916,"deg"

time,value
0.0000,7.18387806
0.0050,7.184298138
0.0100,7.184718105
0.0150,7.185137961
0.0200,7.185544373
0.0250,7.185930584
0.0300,7.186291233
0.0350,7.186622115
0.0400,7.18691975
0.0450,7.187180505
0.0500,7.187399756
0.0550,7.187572144
0.0600,7.187692251
0.0650,7.187754465
0.0700,7.187752614
0.0750,7.18768055
0.0800,7.187533668
0.0850,7.187309862
0.0900,7.187008814
0.0950,7.186630373
0.1000,7.186173521
0.1050,7.185636378
0.1100,7.185016454
0.1150,7.184310829
0.1200,7.18351683
0.1250,7.182633209
0.1300,7.181660961
0.1350,7.180603613
0.1400,7.179467228
0.1450,7.178260048
0.1500,7.176992196
0.1550,7.175202485
0.1600,7.17320452
0.1650,7.171192613
0.1700,7.169109116
0.1750,7.167054338
0.1800,7.164922592
0.1850,7.162853691
0.1900,7.160771875
0.1950,7.158855864
0.2000,7.156974143
0.2050,7.155065507
0.2100,7.153397703
0.2150,7.151800654
0.2200,7.150468423
0.2250,7.149244773
0.2300,7.148038704
0.2350,7.14700764
0.2400,7.146166158
0.2450,7.145487852
0.2500,7.144800433
0.2550,7.144169851
0.2600,7.14371717
0.2650,7.143270314
0.2700,7.142872048
0.2750,7.142407689
0.2800,7.141934175
0.2850,7.141414581
0.2900,7.140804557
0.2950,7.140112469
0.3000,7.139221241
0.3050,7.138122756
0.3100,7.136926932
0.3150,7.135573304
0.3200,7.134059351
0.3250,7.132359545
0.3300,7.130421875
0.3350,7.12825257
0.3400,7.126023311
0.3450,7.123666239
0.3500,7.121180853
0.3550,7.118594146
0.3600,7.11598541
0.3650,7.113285922
0.3700,7.11050277
0.3750,7.107658595
0.3800,7.104777664
0.3850,7.10183446
0.3900,7.098855739
0.3950,7.09577455
0.4000,7.092677411
0.4050,7.089650407
0.4100,7.08653354
0.4150,7.08333139
0.4200,7.080108975
0.4250,7.076772102
0.4300,7.073487213
0.4350,7.070143408
0.4400,7.066906309
0.4450,7.063497879
0.4500,7.060102626
0.4550,7.05662938
0.4600,7.053334928
0.4650,7.049940394
0.4700,7.046542858
0.4750,7.043163032
0.4800,7.039921514
0.4850,7.036718697
0.4900,7.033556281
0.4950,7.030478991
0.5000,7.027556757
0.5050,7.024723851
0.5100,7.022050858
0.5150,7.019545749
0.5200,7.017157794
0.5250,7.014901589
0.5300,7.012950771
0.5350,7.011137185
0.5400,7.009436863
0.5450,7.007883067
0.5500,7.006557532
0.5550,7.005358138
0.5600,7.004229188
0.5650,7.003258195
0.5700,7.002396584
0.5750,7.001762536
0.5800,7.001347456
0.5850,7.000939782
0.5900,7.000877972
0.5950,7.000911112
0.6000,7.001173817
0.6050,7.001561715
0.6100,7.002071442
0.6150,7.002774029
0.6200,7.003465697
0.6250,7.004317807
0.6300,7.005387505
0.6350,7.006426857
0.6400,7.007520271
0.6450,7.008603021
0.6500,7.009778467
0.6550,7.010928732
0.6600,7.012118724
0.6650,7.013089329
0.6700,7.013947228
0.6750,7.014778071
0.6800,7.015530779
0.6850,7.015968792
0.6900,7.016339507
0.6950,7.016525832
0.7000,7.016569761
0.7050,7.016497851
0.7100,7.016156023
0.7150,7.01582517
0.7200,7.01536996
0.7250,7.014926388
0.7300,7.014509936
0.7350,7.014031336
0.7400,7.013401948
0.7450,7.012932656
0.7500,7.012373333
0.7550,7.011792231
0.7600,7.011136318
0.7650,7.010650317
0.7700,7.010262589
0.7750,7.009967197
0.7800,7.009551343
0.7850,7.009200787
0.7900,7.009039944
0.7950,7.008878265
0.8000,7.008596102
0.8050,7.008333123
0.8100,7.007805592
0.8150,7.007108122
0.8200,7.00625608
0.8250,7.00509297
0.8300,7.003652203
0.8350,7.002034997
0.8400,7.000252415
0.8450,6.998365041
0.8500,6.99622087
0.8550,6.994009435
0.8600,6.991709136
0.8650,6.989429653
0.8700,6.987085499
0.8750,6.984671745
0.8800,6.982212092
0.8850,6.979905243
0.8900,6.977510262
0.8950,6.975376507
0.9000,6.9732052
0.9050,6.971207333
0.9100,6.969401242
0.9150,6.967697151
0.9200,6.9663094
0.9250,6.965154461
0.9300,6.964074591
0.9350,6.963322008
0.9400,6.962641195
0.9450,6.962245899
0.9500,6.961969992
0.9550,6.962001567
0.9600,6.96226284
0.9650,6.962852547
0.9700,6.963800314
0.9750,6.965068671
0.9800,6.966671504
0.9850,6.968968217
0.9900,6.971643781
0.9950,6.974917498
1.0000,6.978795955
1.0050,6.983168536
1.0100,6.988237703
1.0150,6.993790892
1.0200,6.999900776
1.0250,7.006465983
1.0300,7.013429511
1.0350,7.020831092
1.0400,7.028683307
1.0450,7.03684569
1.0500,7.045336204
1.0550,7.054199641
1.0600,7.063334209
1.0650,7.072495652
1.0700,7.081735992
1.0750,7.091218944
1.0800,7.100865036
1.0850,7.11067839
1.0900,7.120596137
1.0950,7.130614614
1.1000,7.140833917
1.1050,7.151081282
1.1100,7.161528849
1.1150,7.171975799
1.1200,7.182437882
1.1250,7.192926121
1.1300,7.203271729
1.1350,7.213596783
1.1400,7.223834622
1.1450,7.233873206
1.1500,7.243804774
1.1550,7.253336359
1.1600,7.262480766
1.1650,7.271085787
1.1700,7.278981387
1.1750,7.286270743
1.1800,7.292704691
1.1850,7.298449273
1.1900,7.303292439
1.1950,7.307202518
1.2000,7.310240478
1.2050,7.312463523
1.2100,7.31359819
1.2150,7.313899101
1.2200,7.313319734
1.2250,7.311922268
1.2300,7.309980763
1.2350,7.307411835
1.2400,7.304347335
1.2450,7.300801071
1.2500,7.296899541
1.2550,7.292548522
1.2600,7.287982322
1.2650,7.283214993
1.2700,7.278386539
1.2750,7.273468624
1.2800,7.26856677
1.2850,7.26357477
1.2900,7.258532691
1.2950,7.25341326
1.3000,7.248499442
1.3050,7.24374682
1.3100,7.239310762
1.3150,7.235194313
1.3200,7.231468392
1.3250,7.228217637
1.3300,7.22550444
1.3350,7.223407413
1.3400,7.221917306
1.3450,7.221026147
1.3500,7.220701931
1.3550,7.220773921
1.3600,7.221368281
1.3650,7.22253181
1.3700,7.224208902
1.3750,7.226266314
1.3800,7.22881996
1.3850,7.231795259
1.3900,7.234969522
1.3950,7.238510784
1.4000,7.242285193
1.4050,7.246427544
1.4100,7.250884788
1.4150,7.255906818
1.4200,7.261308617
1.4250,7.267203154
1.4300,7.273745675
1.4350,7.280718756
1.4400,7.288352234
1.4450,7.296657138
1.4500,7.305662226
1.4550,7.315625846
1.4600,7.326427357
1.4650,7.338100352
1.4700,7.350910445
1.4750,7.364803862
1.4800,7.379961565
1.4850,7.396252626
1.4900,7.413767861
1.4950,7.432435021
1.5000,7.452488883
1.5050,7.473706426
1.5100,7.496421293
1.5150,7.520487886
1.5200,7.546010538
1.5250,7.572983648
1.5300,7.601209969
1.5350,7.630905235
1.5400,7.662045325
1.5450,7.694718922
1.5500,7.728974799
1.5550,7.764937052
1.5600,7.802463729
1.5650,7.841738803
1.5700,7.88252131
1.5750,7.924973309
1.5800,7.969182206
1.5850,8.0150025
1.5900,8.062645712
1.5950,8.11208932
1.6000,8.162959848
1.6050,8.215331869
1.6100,8.269024302
1.6150,8.323905115
1.6200,8.379653124
1.6250,8.436250577
1.6300,8.493628978
1.6350,8.551452642
1.6400,8.609588937
1.6450,8.668011152
1.6500,8.726692226
1.6550,8.785738933
1.6600,8.844846689
1.6650,8.90410869
1.6700,8.96348688
1.6750,9.022758558
1.6800,9.082062672
1.6850,9.141204214
1.6900,9.20023607
1.6950,9.259171317
1.7000,9.31807433
1.7050,9.376874639
1.7100,9.435559328
1.7150,9.494177732
1.7200,9.552784311
1.7250,9.611409815
1.7300,9.669881625
1.7350,9.728364048
1.7400,9.786769241
1.7450,9.844990019
1.7500,9.903154395
1.7550,9.960967691
1.7600,10.01860985
1.7650,10.07609755
1.7700,10.133348
1.7750,10.19045473
1.7800,10.24736313
1.7850,10.30397924
1.7900,10.36045563
1.7950,10.41665993
1.8000,10.47264407
1.8050,10.52838744
1.8100,10.58377941
1.8150,10.63905152
1.8200,10.69384428
1.8250,10.74837311
1.8300,10.80250614
1.8350,10.85643257
1.8400,10.91011172
1.8450,10.96347101
1.8500,11.01642665
1.8550,11.06881678
1.8600,11.12070108
1.8650,11.17213838
1.8700,11.22316246
1.8750,11.27370014
1.8800,11.32367357
1.8850,11.37332691
1.8900,11.42255134
1.8950,11.47129008
1.9000,11.51968453
1.9050,11.56774429
1.9100,11.61544222
1.9150,11.66290936
1.9200,11.7102298
1.9250,11.7574479
1.9300,11.80437799
1.9350,11.85124633
1.9400,11.89776088
1.9450,11.94403919
1.9500,11.9899573
1.9550,12.03553207
1.9600,12.08083921
1.9650,12.12580337
1.9700,12.17033053
1.9750,12.21448001
1.9800,12.25809785
1.9850,12.30125504
1.9900,12.34395619
1.9950,12.38616674
2.0000,12.42793583
2.0050,12.46929711
2.0100,12.51036004
2.0150,12.55103861
2.0200,12.59144508
2.0250,12.6317924
2.0300,12.67211542
2.0350,12.71240501
2.0400,12.75271085
2.0450,12.79325603
2.0500,12.83394946
2.0550,12.87505745
2.0600,12.91644457
2.0650,12.95800601
2.0700,12.99986548
2.0750,13.04197602
2.0800,13.08444208
2.0850,13.12718998
2.0900,13.17031906
2.0950,13.21390366
2.1000,13.25801205
2.1050,13.30267023
2.1100,13.34792838
2.1150,13.39369967
2.1200,13.44027478
2.1250,13.48758724
2.1300,13.53579088
2.1350,13.58463557
2.1400,13.63440809
2.1450,13.6851075
2.1500,13.73677173
2.1550,13.78962283
2.1600,13.84375332
2.1650,13.89906058
2.1700,13.95570017
2.1750,14.01372517
2.1800,14.07307072
2.1850,14.13358832
2.1900,14.19547153
2.1950,14.2585024
2.2000,14.32266071
2.2050,14.38782469
2.2100,14.4541069
2.2150,14.52154671
2.2200,14.59003147
2.2250,14.65937225
2.2300,14.72962404
2.2350,14.80041261
2.2400,14.87225356
2.2450,14.94489957
2.2500,15.01845601
2.2550,15.09272479
2.2600,15.16751247
2.2650,15.2428781
2.2700,15.31893976
2.2750,15.39571317
2.2800,15.47321525
2.2850,15.55146476
2.2900,15.63034451
2.2950,15.70993141
2.3000,15.79004865
2.3050,15.8707126
2.3100,15.95162984
2.3150,16.0329232
2.3200,16.11434708
2.3250,16.19574222
2.3300,16.2774271
2.3350,16.35933334
2.3400,16.44137772
2.3450,16.52338681
2.3500,16.60556717
2.3550,16.68777381
2.3600,16.77028951
2.3650,16.85290557
2.3700,16.93561877
2.3750,17.01823258
2.3800,17.10085324
2.3850,17.18359588
2.3900,17.26619976
2.3950,17.34892894
2.4000,17.43163274
2.4050,17.51449528
2.4100,17.59763053
2.4150,17.68085903
2.4200,17.76426844
2.4250,17.84791381
2.4300,17.93212659
2.4350,18.01674654
2.4400,18.10154525
2.4450,18.18639965
2.4500,18.27124058
2.4550,18.3559082
2.4600,18.44046583
2.4650,18.52462544
2.4700,18.60827792
2.4750,18.69136426
2.4800,18.77386782
2.4850,18.85603699
2.4900,18.93783903
2.4950,19.01969519
2.5000,19.1016016
2.5050,19.18376385
2.5100,19.26597595
2.5150,19.3481094
2.5200,19.43015924
2.5250,19.51218406
2.5300,19.59408031
2.5350,19.67604803
2.5400,19.7577593
2.5450,19.83911843
2.5500,19.92011526
2.5550,20.00050039
2.5600,20.08032564
2.5650,20.15950028
2.5700,20.23780127
2.5750,20.31528714
2.5800,20.39184288
2.5850,20.46748704
2.5900,20.5421968
2.5950,20.61584682
2.6000,20.68868004
2.6050,20.76065803
2.6100,20.83212568
2.6150,20.90287153
2.6200,20.97322978
2.6250,21.04334007
2.6300,21.11310877
2.6350,21.18262303
2.6400,21.25181292
2.6450,21.32080277
2.6500,21.38929161
2.6550,21.45722654
2.6600,21.52424085
2.6650,21.5904643
2.6700,21.65569172
2.6750,21.71989336
2.6800,21.78303724
2.6850,21.84522124
2.6900,21.9067515
2.6950,21.96750388
2.7000,22.02752537
2.7050,22.08690051
2.7100,22.14539985
2.7150,22.203506
2.7200,22.26129408
2.7250,22.31865684
2.7300,22.37540328
2.7350,22.43170076
2.7400,22.48763842
2.7450,22.5434063
2.7500,22.59908327
2.7550,22.65448897
2.7600,22.70967596
2.7650,22.76491768
2.7700,22.8202974
2.7750,22.87574611
2.7800,22.93131458
2.7850,22.98675433
2.7900,23.04174374
2.7950,23.09602087
2.8000,23.14957944
2.8050,23.2023495
2.8100,23.25427259
2.8150,23.30545244
2.8200,23.35596017
2.8250,23.40583936
2.8300,23.45517709
2.8350,23.5041346
2.8400,23.55258231
2.8450,23.60051877
2.8500,23.64785857
2.8550,23.69487648
2.8600,23.74134408
2.8650,23.78718592
2.8700,23.83227781
2.8750,23.87634089
2.8800,23.91945632
2.8850,23.96134771
2.8900,24.00219363
2.8950,24.04172088
2.9000,24.08001403
2.9050,24.11687913
2.9100,24.15242939
2.9150,24.18662355
2.9200,24.21939067
2.9250,24.25081304
2.9300,24.28097658
2.9350,24.30974403
2.9400,24.33725303
2.9450,24.36351176
2.9500,24.38871703
2.9550,24.41304209
2.9600,24.43643463
2.9650,24.45902146
2.9700,24.48116986
2.9750,24.5029216
2.9800,24.52422361
2.9850,24.54523256
2.9900,24.56566061
2.9950,24.58560673
3.0000,24.60517111
3.0050,24.62436284
3.0100,24.6435904
3.0150,24.66286116
3.0200,24.68222674
3.0250,24.70174017
3.0300,24.72120155
3.0350,24.74074579
3.0400,24.76032866
3.0450,24.78000343
3.0500,24.79972947
3.0550,24.8197754
3.0600,24.83983311
3.0650,24.85995048
3.0700,24.87998544
3.0750,24.89991751
3.0800,24.91977123
3.0850,24.93953203
3.0900,24.95939377
3.0950,24.97939162
3.1000,24.99936466
3.1050,25.01935279
3.1100,25.03941399
3.1150,25.05950128
3.1200,25.07969322
3.1250,25.10002593
3.1300,25.12050277
3.1350,25.14123381
3.1400,25.16222797
3.1450,25.18357406
3.1500,25.20534458
3.1550,25.22737108
3.1600,25.24976264
3.1650,25.27226954
3.1700,25.29508573
3.1750,25.31813391
3.1800,25.3410622
3.1850,25.36382557
3.1900,25.3860795
3.1950,25.40803342
3.2000,25.42949754
3.2050,25.45033424
3.2100,25.47040502
3.2150,25.48981087
3.2200,25.50866033
3.2250,25.52700682
3.2300,25.54457477
3.2350,25.56158102
3.2400,25.57807876
3.2450,25.59398167
3.2500,25.6092422
3.2550,25.62379048
3.2600,25.63778263
3.2650,25.6513753
3.2700,25.66416607
3.2750,25.67610994
3.2800,25.68742586
3.2850,25.69787595
3.2900,25.70775349
3.2950,25.71727569
3.3000,25.72645652
3.3050,25.73531499
3.3100,25.74381693
3.3150,25.75171367
3.3200,25.75925704
3.3250,25.76663185
3.3300,25.77401473
3.3350,25.78163507
3.3400,25.78950439
3.3450,25.79756217
3.3500,25.80597351
3.3550,25.81474988
3.3600,25.82413296
3.3650,25.83416604
3.3700,25.84501878
3.3750,25.85662387
3.3800,25.86891521
3.3850,25.88191406
3.3900,25.89545967
3.3950,25.90945724
3.4000,25.92388376
3.4050,25.93873823
3.4100,25.95388761
3.4150,25.96918945
3.4200,25.98476151
3.4250,26.00039071
3.4300,26.01603167
3.4350,26.03132966
3.4400,26.04647252
3.4450,26.06134907
3.4500,26.07586767
3.4550,26.0901691
3.4600,26.10402365
3.4650,26.11750731
3.4700,26.13033081
3.4750,26.14255932
3.4800,26.15432128
3.4850,26.16566529
3.4900,26.1766988
3.4950,26.18728167
3.5000,26.19721943
3.5050,26.2067569
3.5100,26.21583571
3.5150,26.22463785
3.5200,26.23299431
3.5250,26.24067097
3.5300,26.24796651
3.5350,26.25466045
3.5400,26.26052306
3.5450,26.26564451
3.5500,26.27000988
3.5550,26.27360812
3.5600,26.27666054
3.5650,26.27908417
3.5700,26.2810327
3.5750,26.2826569
3.5800,26.2839352
3.5850,26.28488603
3.5900,26.28565469
3.5950,26.28613714
3.6000,26.28648538
3.6050,26.28681781
3.6100,26.28736336
3.6150,26.28828156
3.6200,26.28938552
3.6250,26.29053825
3.6300,26.29189811
3.6350,26.29333845
3.6400,26.29498539
3.6450,26.2968275
3.6500,26.29867511
3.6550,26.30059913
3.6600,26.30227858
3.6650,26.30348629
3.6700,26.30398427
3.6750,26.30361479
3.6800,26.30234176
3.6850,26.30004228
3.6900,26.2965725
3.6950,26.29179507
3.7000,26.28568244
3.7050,26.27801038
3.7100,26.26897304
3.7150,26.25841036
3.7200,26.24618414
3.7250,26.23239852
3.7300,26.21715174
3.7350,26.20054042
3.7400,26.18245963
3.7450,26.16309087
3.7500,26.14237079
3.7550,26.12029498
3.7600,26.09710137
3.7650,26.07280806
3.7700,26.04783334
3.7750,26.02220883
3.7800,25.99594764
3.7850,25.96903915
3.7900,25.94181496
3.7950,25.91417305
3.8000,25.88629571
3.8050,25.85826182
3.8100,25.83009355
3.8150,25.8016289
3.8200,25.77310497
3.8250,25.7444632
3.8300,25.71569159
3.8350,25.68688419
3.8400,25.65838444
3.8450,25.63011795
3.8500,25.60221836
3.8550,25.5746141
3.8600,25.5472421
3.8650,25.52000191
3.8700,25.49309769
3.8750,25.46661562
3.8800,25.44057815
3.8850,25.41520637
3.8900,25.39053619
3.8950,25.36671681
3.9000,25.34371195
3.9050,25.32167102
3.9100,25.30041779
3.9150,25.27991315
3.9200,25.26022193
3.9250,25.24142757
3.9300,25.2233688
3.9350,25.20581734
3.9400,25.18873739
3.9450,25.17189273
3.9500,25.15536573
3.9550,25.13891414
3.9600,25.12263592
3.9650,25.10644021
3.9700,25.09032213
3.9750,25.07436084
3.9800,25.05831589
3.9850,25.04213314
3.9900,25.02583585
3.9950,25.00926651
4.0000,24.99250653
4.0050,24.9754578
4.0100,24.95817667
4.0150,24.9405968
4.0200,24.92270211
4.0250,24.90448666
4.0300,24.8860374
4.0350,24.8671427
4.0400,24.84795886
4.0450,24.82837824
4.0500,24.80841115
4.0550,24.787931
4.0600,24.7669005
4.0650,24.74545528
4.0700,24.72336249
4.0750,24.70062477
4.0800,24.67717047
4.0850,24.65309754
4.0900,24.62813151
4.0950,24.60264191
4.1000,24.57667257
4.1050,24.55031655
4.1100,24.52371152
4.1150,24.49694643
4.1200,24.46996161
4.1250,24.44301098
4.1300,24.41620441
4.1350,24.38970191
4.1400,24.36345835
4.1450,24.33764036
4.1500,24.312011
4.1550,24.2868258
4.1600,24.26200188
4.1650,24.23770534
4.1700,24.21390272
4.1750,24.1905223
4.1800,24.16757213
4.1850,24.14501547
4.1900,24.12280583
4.1950,24.10102087
4.2000,24.07969426
4.2050,24.05878577
4.2100,24.03842333
4.2150,24.0186096
4.2200,23.99950752
4.2250,23.9811066
4.2300,23.96349433
4.2350,23.9467513
4.2400,23.93081847
4.2450,23.9156405
4.2500,23.90114017
4.2550,23.88735278
4.2600,23.8742627
4.2650,23.86181487
4.2700,23.84980336
4.2750,23.83814032
4.2800,23.82685804
4.2850,23.81591011
4.2900,23.8051401
4.2950,23.7945512
4.3000,23.78407769
4.3050,23.77370133
4.3100,23.76308483
4.3150,23.75266172
4.3200,23.74244364
4.3250,23.73235544
4.3300,23.72234247
4.3350,23.712679
4.3400,23.70322641
4.3450,23.69401014
4.3500,23.68515443
4.3550,23.67656132
4.3600,23.66826422
4.3650,23.6602765
4.3700,23.65248625
4.3750,23.64468715
4.3800,23.63710106
4.3850,23.62953597
4.3900,23.62215229
4.3950,23.61465361
4.4000,23.60696608
4.4050,23.59909067
4.4100,23.5909437
4.4150,23.58238154
4.4200,23.57327166
4.4250,23.56340865
4.4300,23.55280849
4.4350,23.54127249
4.4400,23.52901918
4.4450,23.51583374
4.4500,23.50201652
4.4550,23.48755319
4.4600,23.47258257
4.4650,23.45696414
4.4700,23.44072564
4.4750,23.4238045
4.4800,23.4062084
4.4850,23.38784294
4.4900,23.36873275
4.4950,23.34890804
4.5000,23.32826479
4.5050,23.30673928
4.5100,23.28440088
4.5150,23.26126053
4.5200,23.23736575
4.5250,23.21274853
4.5300,23.18738054
4.5350,23.16140174
4.5400,23.134611
4.5450,23.10734683
4.5500,23.07943702
4.5550,23.05102117
4.5600,23.02194906
4.5650,22.99238145
4.5700,22.96251054
4.5750,22.93222018
4.5800,22.90158143
4.5850,22.87048978
4.5900,22.8391213
4.5950,22.80754746
4.6000,22.77582231
4.6050,22.7439552
4.6100,22.71218727
4.6150,22.68009505
4.6200,22.64767537
4.6250,22.61506146
4.6300,22.58217464
4.6350,22.54898315
4.6400,22.51552851
4.6450,22.4819009
4.6500,22.44791706
4.6550,22.41382456
4.6600,22.37971757
4.6650,22.3455021
4.6700,22.31126188
4.6750,22.27715931
4.6800,22.24291609
4.6850,22.20885597
4.6900,22.17475802
4.6950,22.14068437
4.7000,22.10663454
4.7050,22.07254681
4.7100,22.03827649
4.7150,22.0040302
4.7200,21.96989284
4.7250,21.93609825
4.7300,21.90228499
4.7350,21.86879056
4.7400,21.83533214
4.7450,21.80215953
4.7500,21.76904638
4.7550,21.73577434
4.7600,21.70209172
4.7650,21.6679134
4.7700,21.63312092
4.7750,21.59791205
4.7800,21.5620872
4.7850,21.52585847
4.7900,21.48920961
4.7950,21.4519069
4.8000,21.41406741
4.8050,21.37568048
4.8100,21.33663217
4.8150,21.29690885
4.8200,21.25636898
4.8250,21.21512057
4.8300,21.17321487
4.8350,21.13051447
4.8400,21.08739941
4.8450,21.04379607
4.8500,20.99994017
4.8550,20.95569665
4.8600,20.91108222
4.8650,20.86625407
4.8700,20.82124197
4.8750,20.77620528
4.8800,20.7311141
4.8850,20.68611746
4.8900,20.64135346
4.8950,20.59672359
4.9000,20.55215391
4.9050,20.50766408
4.9100,20.46319828
4.9150,20.4188493
4.9200,20.37467536
4.9250,20.33054176
4.9300,20.286579
4.9350,20.24264653
4.9400,20.19891156
4.9450,20.1551914
4.9500,20.11163042
4.9550,20.06816778
4.9600,20.02466723
4.9650,19.98107902
4.9700,19.9372429
4.9750,19.8931394
4.9800,19.84882532
4.9850,19.80390945
4.9900,19.75856816
4.9950,19.71294842
5.0000,19.66704088
5.0050,19.62090876
5.0100,19.57477437
5.0150,19.52851575
5.0200,19.48210009
5.0250,19.43529501
5.0300,19.38834044
5.0350,19.34101871
5.0400,19.29324373
5.0450,19.2450326
5.0500,19.19634208
5.0550,19.14721908
5.0600,19.09789021
5.0650,19.04850358
5.0700,18.9988777
5.0750,18.9489712
5.0800,18.89874222
5.0850,18.84823848
5.0900,18.79730183
5.0950,18.74597499
5.1000,18.69417363
5.1050,18.64173865
5.1100,18.58852366
5.1150,18.53470973
5.1200,18.4803839
5.1250,18.42540541
5.1300,18.3698009
5.1350,18.31378288
5.1400,18.25717042
5.1450,18.20002523
5.1500,18.1421052
5.1550,18.08341658
5.1600,18.02420033
5.1650,17.96388179
5.1700,17.90233486
5.1750,17.83939273
5.1800,17.77507411
5.1850,17.70900762
5.1900,17.64087888
5.1950,17.57065389
5.2000,17.49819514
5.2050,17.42320152
5.2100,17.34557977
5.2150,17.26541499
5.2200,17.18256878
5.2250,17.09711283
5.2300,17.00888869
5.2350,16.91820996
5.2400,16.82501786
5.2450,16.72962687
5.2500,16.63220882
5.2550,16.53298241
5.2600,16.43228333
5.2650,16.33040398
5.2700,16.22788568
5.2750,16.12501299
5.2800,16.02206895
5.2850,15.91951088
5.2900,15.81753152
5.2950,15.71615427
5.3000,15.61562106
5.3050,15.51605956
5.3100,15.41756688
5.3150,15.32036541
5.3200,15.22455769
5.3250,15.13026293
5.3300,15.03765106
5.3350,14.94667439
5.3400,14.85754276
5.3450,14.77023786
5.3500,14.68474918
5.3550,14.60102876
5.3600,14.51897749
5.3650,14.43862384
5.3700,14.36005903
5.3750,14.2833779
5.3800,14.20864147
5.3850,14.13557457
5.3900,14.06430891
5.3950,13.9946801
5.4000,13.92648533
5.4050,13.85990157
5.4100,13.79493861
5.4150,13.73117894
5.4200,13.66841831
5.4250,13.60667178
5.4300,13.54569566
5.4350,13.48529853
5.4400,13.42549903
5.4450,13.36611965
5.4500,13.30727791
5.4550,13.24871185
5.4600,13.1902693
5.4650,13.13223654
5.4700,13.07448177
5.4750,13.0172004
5.4800,12.96017569
5.4850,12.90327233
5.4900,12.84653752
5.4950,12.7899922
5.5000,12.73350557
5.5050,12.67727899
5.5100,12.62123839
5.5150,12.5653843
5.5200,12.50963409
5.5250,12.45407179
5.5300,12.39861557
5.5350,12.34314853
5.5400,12.28768002
5.5450,12.23207186
5.5500,12.17628054
5.5550,12.12025105
5.5600,12.06407613
5.5650,12.00777617
5.5700,11.95115004
5.5750,11.894382
5.5800,11.83756278
5.5850,11.7806908
5.5900,11.72391258
5.5950,11.66730542
5.6000,11.61111075
5.6050,11.55534343
5.6100,11.50004665
5.6150,11.44519453
5.6200,11.39098317
5.6250,11.33755282
5.6300,11.28473592
5.6350,11.2327279
5.6400,11.18152094
5.6450,11.13110157
5.6500,11.08166729
5.6550,11.03342251
5.6600,10.98638597
5.6650,10.94057255
5.6700,10.8961449
5.6750,10.8529967
5.6800,10.81126077
5.6850,10.77103775
5.6900,10.73233715
5.6950,10.69527215
5.7000,10.66003169
5.7050,10.62660209
5.7100,10.59506998
5.7150,10.56547509
5.7200,10.53797368
5.7250,10.51224013
5.7300,10.48841653
5.7350,10.46638416
5.7400,10.44599272
5.7450,10.42713742
5.7500,10.40965829
5.7550,10.39355312
5.7600,10.3787012
5.7650,10.36487413
5.7700,10.35214611
5.7750,10.34017856
5.7800,10.32866741
5.7850,10.31792856
5.7900,10.3077686
5.7950,10.29794308
5.8000,10.28829416
5.8050,10.27872731
5.8100,10.26915537
5.8150,10.25938727
5.8200,10.24934144
5.8250,10.23881034
5.8300,10.22789144
5.8350,10.21659287
5.8400,10.20460473
5.8450,10.1921201
5.8500,10.17908199
5.8550,10.16548187
5.8600,10.15128489
5.8650,10.13638927
5.8700,10.12096398
5.8750,10.10474348
5.8800,10.08781379
5.8850,10.07026093
5.8900,10.05178604
5.8950,10.03266114
5.9000,10.01268037
5.9050,9.99190355
5.9100,9.970389435
5.9150,9.948291525
5.9200,9.925362099
5.9250,9.901664592
5.9300,9.877241474
5.9350,9.852253354
5.9400,9.826857124
5.9450,9.801017443
5.9500,9.774984472
5.9550,9.748683427
5.9600,9.722406403
5.9650,9.696210859
5.9700,9.670224257
5.9750,9.644656451
5.9800,9.61946419
5.9850,9.594737247
5.9900,9.570679327
5.9950,9.547232868
6.0000,9.524553106
6.0050,9.502610008
6.0100,9.481328713
6.0150,9.461015364
6.0200,9.441526026
6.0250,9.423044099
6.0300,9.40546167
6.0350,9.388775996
6.0400,9.373114139
6.0450,9.358398218
6.0500,9.344392988
6.0550,9.331327522
6.0600,9.31879459
6.0650,9.306808934
6.0700,9.295110063
6.0750,9.283707307
6.0800,9.272779603
6.0850,9.262049372
6.0900,9.251683624
6.0950,9.24178322
6.1000,9.232444705
6.1050,9.223579281
6.1100,9.215091428
6.1150,9.207127593
6.1200,9.199784368
6.1250,9.192950509
6.1300,9.186619286
6.1350,9.180845348
6.1400,9.17576686
6.1450,9.171191985
6.1500,9.16704548
6.1550,9.163306689
6.1600,9.159912626
6.1650,9.156779422
6.1700,9.15362976
6.1750,9.150531636
6.1800,9.147207596
6.1850,9.143584349
6.1900,9.139553131
6.1950,9.13502598
6.2000,9.129834762
6.2050,9.12384693
6.2100,9.116891872
6.2150,9.108807383
6.2200,9.099736335
6.2250,9.089571704
6.2300,9.078254003
6.2350,9.065880947
6.2400,9.052286874
6.2450,9.037725691
6.2500,9.02203704
6.2550,9.005450243
6.2600,8.987941309
6.2650,8.969578906
6.2700,8.950628973
6.2750,8.930806174
6.2800,8.910346645
6.2850,8.889371371
6.2900,8.867660093
6.2950,8.845459581
6.3000,8.822535305
6.3050,8.798936715
6.3100,8.774697418
6.3150,8.74961677
6.3200,8.723660776
6.3250,8.696836905
6.3300,8.669043858
6.3350,8.640413228
6.3400,8.610873372
6.3450,8.58035864
6.3500,8.549175481
6.3550,8.517011663
6.3600,8.484189416
6.3650,8.45067051
6.3700,8.416563694
6.3750,8.381867677
6.3800,8.346691912
6.3850,8.31113477
6.3900,8.275059803
6.3950,8.238511533
6.4000,8.201567636
6.4050,8.164315065
6.4100,8.126917772
6.4150,8.089274722
6.4200,8.051364487
6.4250,8.013358186
6.4300,7.975172741
6.4350,7.93673791
6.4400,7.89812479
6.4450,7.859373352
6.4500,7.820517897
6.4550,7.781544071
6.4600,7.742350303
6.4650,7.703251381
6.4700,7.66427179
6.4750,7.625535166
6.4800,7.587258268
6.4850,7.549495338
6.4900,7.512427854
6.4950,7.475927479
6.5000,7.440067623
6.5050,7.404948602
6.5100,7.37047231
6.5150,7.336784407
6.5200,7.303655238
6.5250,7.271098363
6.5300,7.239161386
6.5350,7.207715887
6.5400,7.176707444
6.5450,7.145990216
6.5500,7.115580343
6.5550,7.085472417
6.5600,7.055428486
6.5650,7.025751438
6.5700,6.99609931
6.5750,6.966771093
6.5800,6.937822032
6.5850,6.909096129
6.5900,6.880669485
6.5950,6.852527867
6.6000,6.824852047
6.6050,6.797533237
6.6100,6.770472999
6.6150,6.743735371
6.6200,6.71743454
6.6250,6.691695443
6.6300,6.666493035
6.6350,6.641693687
6.6400,6.617381305
6.6450,6.593584265
6.6500,6.570263761
6.6550,6.547362956
6.6600,6.524912464
6.6650,6.502924178
6.6700,6.481349994
6.6750,6.46017122
6.6800,6.439493598
6.6850,6.419088665
6.6900,6.399221495
6.6950,6.379725711
6.7000,6.360734885
6.7050,6.342273514
6.7100,6.324351902
6.7150,6.306898495
6.7200,6.289989098
6.7250,6.273660414
6.7300,6.257876334
6.7350,6.242533424
6.7400,6.227573471
6.7450,6.212895226
6.7500,6.198415102
6.7550,6.184066981
6.7600,6.169883624
6.7650,6.155511268
6.7700,6.140893922
6.7750,6.1259344
6.7800,6.110592643
6.7850,6.094561578
6.7900,6.077679658
6.7950,6.060014745
6.8000,6.041399964
6.8050,6.021841451
6.8100,6.001211348
6.8150,5.979335402
6.8200,5.956514454
6.8250,5.932725922
6.8300,5.908093122
6.8350,5.882541173
6.8400,5.856333059
6.8450,5.82973257
6.8500,5.802788225
6.8550,5.775577921
6.8600,5.748587932
6.8650,5.721570686
6.8700,5.694842594
6.8750,5.668396415
6.8800,5.64220928
6.8850,5.616460276
6.8900,5.591333728
6.8950,5.566715424
6.9000,5.542714839
6.9050,5.519418165
6.9100,5.496885142
6.9150,5.475055702
6.9200,5.453930682
6.9250,5.433249415
6.9300,5.413250506
6.9350,5.393927453
6.9400,5.375210914
6.9450,5.357188737
6.9500,5.339755131
6.9550,5.322964882
6.9600,5.306844803
6.9650,5.291279006
6.9700,5.276410301
6.9750,5.262239832
6.9800,5.248527226
6.9850,5.235610598
6.9900,5.223146219
6.9950,5.21128988
7.0000,5.199845315
7.0050,5.188757033
7.0100,5.177920785
7.0150,5.167390277
7.0200,5.157026643
7.0250,5.146768206
7.0300,5.136355931
7.0350,5.125757462
7.0400,5.115103439
7.0450,5.103860937
7.0500,5.092197091
7.0550,5.079761331
7.0600,5.066514031
7.0650,5.052326349
7.0700,5.037274879
7.0750,5.021174471
7.0800,5.00377506
7.0850,4.985333481
7.0900,4.965772398
7.0950,4.944937702
7.1000,4.922857266
7.1050,4.899297929
7.1100,4.874608321
7.1150,4.848769972
7.1200,4.821633713
7.1250,4.793332091
7.1300,4.763938886
7.1350,4.733727792
7.1400,4.7026406
7.1450,4.670795236
7.1500,4.638481991
7.1550,4.605800099
7.1600,4.572941493
7.1650,4.540179545
7.1700,4.507446567
7.1750,4.475164749
7.1800,4.443591949
7.1850,4.412783055
7.1900,4.382970326
7.1950,4.354471628
7.2000,4.327210254
7.2050,4.301369452
7.2100,4.277022867
7.2150,4.254373459
7.2200,4.233259486
7.2250,4.213894067
7.2300,4.196031833
7.2350,4.179766928
7.2400,4.164935235
7.2450,4.151476807
7.2500,4.139201852
7.2550,4.12816882
7.2600,4.11828592
7.2650,4.109573969
7.2700,4.101985562
7.2750,4.095592171
7.2800,4.090461725
7.2850,4.08640757
7.2900,4.083631691
7.2950,4.082211044
7.3000,4.08231766
7.3050,4.083938937
7.3100,4.087247727
7.3150,4.092111955
7.3200,4.098731518
7.3250,4.106977401
7.3300,4.117088737
7.3350,4.128954162
7.3400,4.142236464
7.3450,4.157278471
7.3500,4.173756059
7.3550,4.191748981
7.3600,4.211169858
7.3650,4.231946047
7.3700,4.253853054
7.3750,4.27681087
7.3800,4.300806431
7.3850,4.325622666
7.3900,4.351282779
7.3950,4.377660063
7.4000,4.404792669
7.4050,4.432724872
7.4100,4.461043744
7.4150,4.489891316
7.4200,4.519286971
7.4250,4.549116575
7.4300,4.579293324
7.4350,4.609723426
7.4400,4.640329859
7.4450,4.671010135
7.4500,4.701690829
7.4550,4.732329274
7.4600,4.762546612
7.4650,4.792247632
7.4700,4.821477056
7.4750,4.849955209
7.4800,4.877518548
7.4850,4.904232637
7.4900,4.929720818
7.4950,4.953974069
7.5000,4.976961472
7.5050,4.998850758
7.5100,5.019627517
7.5150,5.039197245
7.5200,5.057706179
7.5250,5.075247336
7.5300,5.091943308
7.5350,5.107847965
7.5400,5.123083633
7.5450,5.137825658
7.5500,5.152282834
7.5550,5.166407945
7.5600,5.180332
7.5650,5.1941545
7.5700,5.207988594
7.5750,5.222064907
7.5800,5.236331952
7.5850,5.250938281
7.5900,5.266267196
7.5950,5.282203504
7.6000,5.298752139
7.6050,5.31595664
7.6100,5.333883937
7.6150,5.352552098
7.6200,5.372014856
7.6250,5.392249815
7.6300,5.413312254
7.6350,5.435387984
7.6400,5.458665389
7.6450,5.482949884
7.6500,5.508407016
7.6550,5.53507746
7.6600,5.5628561
7.6650,5.591849541
7.6700,5.622061803
7.6750,5.653423777
7.6800,5.686092382
7.6850,5.719986543
7.6900,5.755208103
7.6950,5.791605333
7.7000,5.829108208
7.7050,5.86794572
7.7100,5.908268281
7.7150,5.949875436
7.7200,5.992828624
7.7250,6.03703125
7.7300,6.082496868
7.7350,6.129107253
7.7400,6.17678937
7.7450,6.225533195
7.7500,6.275065214
7.7550,6.325288188
7.7600,6.376189352
7.7650,6.427593524
7.7700,6.479518435
7.7750,6.531731903
7.7800,6.584125643
7.7850,6.636544992
7.7900,6.688992647
7.7950,6.74125908
7.8000,6.793228415
7.8050,6.844635137
7.8100,6.895431523
7.8150,6.945612827
7.8200,6.995173353
7.8250,7.043927386
7.8300,7.091858561
7.8350,7.138964226
7.8400,7.185346073
7.8450,7.230870322
7.8500,7.275804265
7.8550,7.319883791
7.8600,7.363235329
7.8650,7.405928406
7.8700,7.447847564
7.8750,7.488965491
7.8800,7.529463231
7.8850,7.569503401
7.8900,7.608781814
7.8950,7.647520331
7.9000,7.68601392
7.9050,7.724509496
7.9100,7.762922511
7.9150,7.801697462
7.9200,7.840701418
7.9250,7.880323152
7.9300,7.920414597
7.9350,7.961041222
7.9400,8.002135255
7.9450,8.043978357
7.9500,8.086435609
7.9550,8.129501103
7.9600,8.173266237
7.9650,8.21776714
7.9700,8.262978715
7.9750,8.308996641
7.9800,8.355578124
7.9850,8.402804529
7.9900,8.450461583
7.9950,8.498751282
8.0000,8.547682377
8.0050,8.596992256
8.0100,8.646834256
8.0150,8.697182917
8.0200,8.748010001
8.0250,8.799314299
8.0300,8.851107298
8.0350,8.903367644
8.0400,8.956266054
8.0450,9.009652012
8.0500,9.063657914
8.0550,9.118277217
8.0600,9.173662538
8.0650,9.229989687
8.0700,9.286999191
8.0750,9.344683573
8.0800,9.403134116
8.0850,9.462192836
8.0900,9.522012879
8.0950,9.58226519
8.1000,9.643225503
8.1050,9.704695149
8.1100,9.766814638
8.1150,9.829532191
8.1200,9.892822643
8.1250,9.956864458
8.1300,10.02177958
8.1350,10.08759771
8.1400,10.15428781
8.1450,10.22186253
8.1500,10.29008173
8.1550,10.35918403
8.1600,10.42889028
8.1650,10.49918873
8.1700,10.56999369
8.1750,10.64151962
8.1800,10.7136599
8.1850,10.78663247
8.1900,10.86057832
8.1950,10.93549837
8.2000,11.01116086
8.2050,11.08782497
8.2100,11.16547543
8.2150,11.24397002
8.2200,11.32327482
8.2250,11.40331048
8.2300,11.48420407
8.2350,11.56578161
8.2400,11.64808756
8.2450,11.73103797
8.2500,11.81465001
8.2550,11.89896082
8.2600,11.98381923
8.2650,12.06881451
8.2700,12.15404327
8.2750,12.23923298
8.2800,12.32430064
8.2850,12.40924367
8.2900,12.49393153
8.2950,12.57813821
8.3000,12.66176718
8.3050,12.7446314
8.3100,12.82651229
8.3150,12.90747454
8.3200,12.98729292
8.3250,13.06603134
8.3300,13.14361968
8.3350,13.21994312
8.3400,13.29499834
8.3450,13.36891447
8.3500,13.4415943
8.3550,13.5128529
8.3600,13.58272648
8.3650,13.65092038
8.3700,13.71755952
8.3750,13.78256858
8.3800,13.845783
8.3850,13.90737334
8.3900,13.96728233
8.3950,14.02575052
8.4000,14.08270816
8.4050,14.13824562
8.4100,14.1923863
8.4150,14.24545417
8.4200,14.29750376
8.4250,14.34846448
8.4300,14.39821695
8.4350,14.44683926
8.4400,14.49431029
8.4450,14.54067035
8.4500,14.58598836
8.4550,14.63035548
8.4600,14.67385215
8.4650,14.71670686
8.4700,14.75908833
8.4750,14.8008715
8.4800,14.84246124
8.4850,14.88360546
8.4900,14.92454231
8.4950,14.96538799
8.5000,15.00627556
8.5050,15.04700606
8.5100,15.08801296
8.5150,15.12948251
8.5200,15.17151987
8.5250,15.21426061
8.5300,15.25782775
8.5350,15.30250305
8.5400,15.34854566
8.5450,15.3961442
8.5500,15.44534718
8.5550,15.49634654
8.5600,15.54906962
8.5650,15.60378034
8.5700,15.66036252
8.5750,15.71907995
8.5800,15.77971939
8.5850,15.84185617
8.5900,15.90551192
8.5950,15.97054557
8.6000,16.03673949
8.6050,16.10406353
8.6100,16.17239568
8.6150,16.24149774
8.6200,16.31117512
8.6250,16.38128526
8.6300,16.45173735
8.6350,16.52269499
8.6400,16.59391942
8.6450,16.66528517
8.6500,16.73661699
8.6550,16.80810775
8.6600,16.87946752
8.6650,16.9507616
8.6700,17.02205603
8.6750,17.09356305
8.6800,17.16539254
8.6850,17.23751776
8.6900,17.30979575
8.6950,17.38257047
8.7000,17.45573438
8.7050,17.52940764
8.7100,17.60355027
8.7150,17.67789546
8.7200,17.75244412
8.7250,17.82720522
8.7300,17.90225359
8.7350,17.97736978
8.7400,18.05228721
8.7450,18.12716785
8.7500,18.2021085
8.7550,18.27696001
8.7600,18.3517572
8.7650,18.42643001
8.7700,18.50097641
8.7750,18.57550081
8.7800,18.64991309
8.7850,18.72412977
8.7900,18.79796568
8.7950,18.87159145
8.8000,18.94505881
8.8050,19.01824666
8.8100,19.09093217
8.8150,19.16315224
8.8200,19.23517812
8.8250,19.30696405
8.8300,19.37868919
8.8350,19.45018398
8.8400,19.52137984
8.8450,19.59220269
8.8500,19.66256452
8.8550,19.73230614
8.8600,19.80151675
8.8650,19.87008257
8.8700,19.93799261
8.8750,20.00491099
8.8800,20.07100998
8.8850,20.1363906
8.8900,20.20104455
8.8950,20.26500216
8.9000,20.32815384
8.9050,20.39052693
8.9100,20.45188052
8.9150,20.51237946
8.9200,20.57230506
8.9250,20.63160276
8.9300,20.69041692
8.9350,20.74833644
8.9400,20.80563107
8.9450,20.86237399
8.9500,20.91868595
8.9550,20.97448052
8.9600,21.02973061
8.9650,21.08459014
8.9700,21.13881169
8.9750,21.19250589
8.9800,21.24558239
8.9850,21.29788593
8.9900,21.34949773
8.9950,21.40016228
9.0000,21.44984216
9.0050,21.49838075
9.0100,21.54570805
9.0150,21.5920025
9.0200,21.63710236
9.0250,21.68119728
9.0300,21.72433456
9.0350,21.76645298
9.0400,21.80775218
9.0450,21.84795471
9.0500,21.88708444
9.0550,21.92515903
9.0600,21.96242969
9.0650,21.99888812
9.0700,22.03470074
9.0750,22.06985696
9.0800,22.10432973
9.0850,22.13843536
9.0900,22.1722047
9.0950,22.2055124
9.1000,22.23844999
9.1050,22.27145647
9.1100,22.30456479
9.1150,22.33798157
9.1200,22.37161869
9.1250,22.40567768
9.1300,22.44011311
9.1350,22.47505189
9.1400,22.51042345
9.1450,22.54639932
9.1500,22.58308447
9.1550,22.62042364
9.1600,22.6585303
9.1650,22.69747171
9.1700,22.73724407
9.1750,22.77766248
9.1800,22.81858601
9.1850,22.85988366
9.1900,22.9012945
9.1950,22.94270094
9.2000,22.98399713
9.2050,23.02493645
9.2100,23.06573895
9.2150,23.10588981
9.2200,23.14519787
9.2250,23.18340116
9.2300,23.22013043
9.2350,23.25552243
9.2400,23.28927112
9.2450,23.32095405
9.2500,23.35057649
9.2550,23.37817785
9.2600,23.40360882
9.2650,23.42679306
9.2700,23.44775963
9.2750,23.466519
9.2800,23.48310292
9.2850,23.49775942
9.2900,23.51065194
9.2950,23.52201192
9.3000,23.53191067
9.3050,23.54063197
9.3100,23.54827177
9.3150,23.55472215
9.3200,23.56035412
9.3250,23.56486038
9.3300,23.56835273
9.3350,23.57092409
9.3400,23.57276431
9.3450,23.57423274
9.3500,23.57523094
9.3550,23.5760645
9.3600,23.57679659
9.3650,23.57740848
9.3700,23.577749
9.3750,23.57784969
9.3800,23.5777097
9.3850,23.57753064
9.3900,23.57759859
9.3950,23.57791762
9.4000,23.57887092
9.4050,23.58024943
9.4100,23.58225676
9.4150,23.58495757
9.4200,23.58845643
9.4250,23.59272744
9.4300,23.59794538
9.4350,23.60421412
9.4400,23.61160791
9.4450,23.62011389
9.4500,23.62993062
9.4550,23.64105915
9.4600,23.65333178
9.4650,23.66676588
9.4700,23.68123211
9.4750,23.69701792
9.4800,23.71373488
9.4850,23.73131555
9.4900,23.74967574
9.4950,23.76855805
9.5000,23.78785437
9.5050,23.80729431
9.5100,23.82662439
9.5150,23.84576632
9.5200,23.86464405
9.5250,23.88322503
9.5300,23.90157535
9.5350,23.91941513
9.5400,23.93655041
9.5450,23.95297068
9.5500,23.96851232
9.5550,23.98299592
9.5600,23.99651726
9.5650,24.00914376
9.5700,24.02094195
9.5750,24.03149826
9.5800,24.04089736
9.5850,24.04901535
9.5900,24.0558732
9.5950,24.06132162
9.6000,24.06541598
9.6050,24.06819417
9.6100,24.0696598
9.6150,24.06979156
9.6200,24.06838789
9.6250,24.06552595
9.6300,24.06102193
9.6350,24.05492212
9.6400,24.04725458
9.6450,24.03776849
9.6500,24.02678982
9.6550,24.01432928
9.6600,24.00043085
9.6650,23.98543601
9.6700,23.9696453
9.6750,23.95340661
9.6800,23.93697391
9.6850,23.92048886
9.6900,23.90404838
9.6950,23.88804175
9.7000,23.87241494
9.7050,23.85742365
9.7100,23.84340782
9.7150,23.8303658
9.7200,23.81858454
9.7250,23.80805979
9.7300,23.79900189
9.7350,23.79149551
9.7400,23.78541561
9.7450,23.78083328
9.7500,23.7775723
9.7550,23.7756288
9.7600,23.77475063
9.7650,23.77494406
9.7700,23.77592201
9.7750,23.77731589
9.7800,23.77908357
9.7850,23.78088062
9.7900,23.78262503
9.7950,23.78413073
9.8000,23.78526067
9.8050,23.78602562
9.8100,23.78613412
9.8150,23.78556122
9.8200,23.78421383
9.8250,23.78197247
9.8300,23.77874357
9.8350,23.77450938
9.8400,23.76933745
9.8450,23.7632379
9.8500,23.75634307
9.8550,23.74860234
9.8600,23.74018131
9.8650,23.73110256
9.8700,23.72140911
9.8750,23.7114654
9.8800,23.70124648
9.8850,23.69096461
9.8900,23.68067816
9.8950,23.67039015
9.9000,23.66014867
9.9050,23.64991615
9.9100,23.63980261
9.9150,23.62992247
9.9200,23.62028593
9.9250,23.61118906
9.9300,23.60245578
9.9350,23.5943511
9.9400,23.58676737
9.9450,23.57984876
9.9500,23.57351339
9.9550,23.56780004
9.9600,23.56257745
9.9650,23.55771658
9.9700,23.55329312
9.9750,23.54907932
9.9800,23.54504869
9.9850,23.54127234
9.9900,23.53747504
9.9950,23.53367418
10.0000,23.52983946
10.0050,23.52584509
10.0100,23.52155302
10.0150,23.51668192
10.0200,23.51114508
10.0250,23.50495971
10.0300,23.49798492
10.0350,23.48994255
10.0400,23.48111046
10.0450,23.47110231
10.0500,23.45980432
10.0550,23.44718433
10.0600,23.433349
10.0650,23.41810661
10.0700,23.40159987
10.0750,23.38368709
10.0800,23.36449854
10.0850,23.34428023
10.0900,23.32289342
10.0950,23.30045764
10.1000,23.27712432
10.1050,23.25297262
10.1100,23.22818769
10.1150,23.20284023
10.1200,23.17693411
10.1250,23.15068516
10.1300,23.12393315
10.1350,23.09696132
10.1400,23.06983653
10.1450,23.04258096
10.1500,23.01524749
10.1550,22.98801723
10.1600,22.96088892
10.1650,22.93375234
10.1700,22.90683125
10.1750,22.88012887
10.1800,22.85386239
10.1850,22.82791363
10.1900,22.80204716
10.1950,22.77646205
10.2000,22.75112774
10.2050,22.72614848
10.2100,22.70139933
10.2150,22.67687677
10.2200,22.65263672
10.2250,22.62853756
10.2300,22.60496616
10.2350,22.58163852
10.2400,22.55880287
10.2450,22.53648632
10.2500,22.51481095
10.2550,22.49370868
10.2600,22.47325978
10.2650,22.45352801
10.2700,22.43448515
10.2750,22.41618482
10.2800,22.39883129
10.2850,22.38215449
10.2900,22.36633257
10.2950,22.35123818
10.3000,22.33698536
10.3050,22.32352663
10.3100,22.31062572
10.3150,22.29842584
10.3200,22.28672623
10.3250,22.2753786
10.3300,22.26442059
10.3350,22.25369865
10.3400,22.24287954
10.3450,22.23207229
10.3500,22.22113319
10.3550,22.20992969
10.3600,22.19841332
10.3650,22.1863987
10.3700,22.17388139
10.3750,22.16095476
10.3800,22.14760966
10.3850,22.13362413
10.3900,22.11924021
10.3950,22.10450907
10.4000,22.08937909
10.4050,22.07409879
10.4100,22.05856937
10.4150,22.04285928
10.4200,22.02708227
10.4250,22.01109888
10.4300,21.99517811
10.4350,21.97925456
10.4400,21.96333315
10.4450,21.94741679
10.4500,21.9314493
10.4550,21.91549044
10.4600,21.89943562
10.4650,21.88329405
10.4700,21.86699362
10.4750,21.85047077
10.4800,21.8335959
10.4850,21.81642015
10.4900,21.79898704
10.4950,21.78113202
10.5000,21.76304336
10.5050,21.74463658
10.5100,21.72609464
10.5150,21.70745801
10.5200,21.6886739
10.5250,21.66979081
10.5300,21.65058716
10.5350,21.63120447
10.5400,21.61140688
10.5450,21.59132581
10.5500,21.57080928
10.5550,21.54998292
10.5600,21.52898896
10.5650,21.50800818
10.5700,21.4870296
10.5750,21.46619937
10.5800,21.44520865
10.5850,21.42426274
10.5900,21.40322332
10.5950,21.38207375
10.6000,21.36068374
10.6050,21.33916943
10.6100,21.31756183
10.6150,21.29598492
10.6200,21.2745281
10.6250,21.2531495
10.6300,21.23172243
10.6350,21.21052304
10.6400,21.18950968
10.6450,21.16865474
10.6500,21.14795952
10.6550,21.12748839
10.6600,21.10717186
10.6650,21.08692299
10.6700,21.066713
10.6750,21.04654809
10.6800,21.02636152
10.6850,21.00626951
10.6900,20.98614205
10.6950,20.96592176
10.7000,20.94555666
10.7050,20.92486704
10.7100,20.90377766
10.7150,20.88219835
10.7200,20.86006774
10.7250,20.83726571
10.7300,20.81358839
10.7350,20.78891392
10.7400,20.76316659
10.7450,20.73638266
10.7500,20.70856904
10.7550,20.67963396
10.7600,20.64960661
10.7650,20.61853913
10.7700,20.58617371
10.7750,20.55241074
10.7800,20.51730267
10.7850,20.4808473
10.7900,20.44302197
10.7950,20.40396911
10.8000,20.36378386
10.8050,20.32229577
10.8100,20.27954012
10.8150,20.23564143
10.8200,20.19056451
10.8250,20.14446018
10.8300,20.09758707
10.8350,20.05024013
10.8400,20.00247529
10.8450,19.95446637
10.8500,19.90621257
10.8550,19.85805279
10.8600,19.80990003
10.8650,19.76177708
10.8700,19.71387007
10.8750,19.66607001
10.8800,19.6186154
10.8850,19.57134848
10.8900,19.52458384
10.8950,19.47842647
10.9000,19.43269779
10.9050,19.38757991
10.9100,19.34302736
10.9150,19.29889935
10.9200,19.25512382
10.9250,19.21180354
10.9300,19.16883166
10.9350,19.12599167
10.9400,19.083458
10.9450,19.04110857
10.9500,18.99897628
10.9550,18.9568591
10.9600,18.91479893
10.9650,18.87282333
10.9700,18.83085933
10.9750,18.78893236
10.9800,18.74691677
10.9850,18.70479769
10.9900,18.66251426
10.9950,18.62002111
11.0000,18.57733558
11.0050,18.53422988
11.0100,18.4908214
11.0150,18.44695684
11.0200,18.40246122
11.0250,18.35739095
11.0300,18.31174067
11.0350,18.26552178
11.0400,18.2188134
11.0450,18.17165399
11.0500,18.12391135
11.0550,18.07550247
11.0600,18.02639023
11.0650,17.97664555
11.0700,17.92651058
11.0750,17.87614705
11.0800,17.82556246
11.0850,17.77478039
11.0900,17.72401135
11.0950,17.67315864
11.1000,17.6221551
11.1050,17.57127618
11.1100,17.52054106
11.1150,17.4699513
11.1200,17.41960456
11.1250,17.36929584
11.1300,17.31914922
11.1350,17.26897369
11.1400,17.21885889
11.1450,17.16861047
11.1500,17.11843854
11.1550,17.06822337
11.1600,17.01801462
11.1650,16.96780288
11.1700,16.91752889
11.1750,16.86720211
11.1800,16.81685794
11.1850,16.76675237
11.1900,16.71672293
11.1950,16.66673311
11.2000,16.61674124
11.2050,16.56653372
11.2100,16.51627715
11.2150,16.46575708
11.2200,16.41500765
11.2250,16.36384841
11.2300,16.31215357
11.2350,16.25987663
11.2400,16.20707278
11.2450,16.15359387
11.2500,16.0993303
11.2550,16.04428974
11.2600,15.98844556
11.2650,15.93163682
11.2700,15.87384025
11.2750,15.81502083
11.2800,15.7552283
11.2850,15.69446994
11.2900,15.63260407
11.2950,15.5697163
11.3000,15.50569441
11.3050,15.44061446
11.3100,15.37462966
11.3150,15.30769334
11.3200,15.23995274
11.3250,15.17143004
11.3300,15.10219564
11.3350,15.03236372
11.3400,14.96170433
11.3450,14.89024536
11.3500,14.8181897
11.3550,14.74570739
11.3600,14.67271827
11.3650,14.59919712
11.3700,14.52519797
11.3750,14.45104832
11.3800,14.37669016
11.3850,14.30228668
11.3900,14.22800843
11.3950,14.15396124
11.4000,14.08031747
11.4050,14.00700956
11.4100,13.93419014
11.4150,13.86192831
11.4200,13.7904418
11.4250,13.71986122
11.4300,13.65012162
11.4350,13.58117032
11.4400,13.51307691
11.4450,13.44592809
11.4500,13.37956776
11.4550,13.31380593
11.4600,13.24876942
11.4650,13.18439951
11.4700,13.12060624
11.4750,13.05747104
11.4800,12.99502348
11.4850,12.93312213
11.4900,12.87165866
11.4950,12.81056103
11.5000,12.75008355
11.5050,12.69021924
11.5100,12.63086335
11.5150,12.57219223
11.5200,12.51429497
11.5250,12.45705857
11.5300,12.40050343
11.5350,12.34476235
11.5400,12.28968649
11.5450,12.23531697
11.5500,12.18175081
11.5550,12.1289523
11.5600,12.07676374
11.5650,12.02539196
11.5700,11.97471219
11.5750,11.92452895
11.5800,11.87504396
11.5850,11.82601424
11.5900,11.77752261
11.5950,11.72949229
11.6000,11.6820008
11.6050,11.63500568
11.6100,11.58832818
11.6150,11.5422152
11.6200,11.4964482
11.6250,11.45107638
11.6300,11.40601752
11.6350,11.3612264
11.6400,11.31687464
11.6450,11.27276686
11.6500,11.2289693
11.6550,11.18529493
11.6600,11.14186634
11.6650,11.09879988
11.6700,11.05606881
11.6750,11.01335181
11.6800,10.97088459
11.6850,10.92850004
11.6900,10.88624228
11.6950,10.84412184
11.7000,10.80214847
11.7050,10.76025586
11.7100,10.71848474
11.7150,10.67680202
11.7200,10.63515215
11.7250,10.59372602
11.7300,10.55247852
11.7350,10.51151685
11.7400,10.47100993
11.7450,10.43089333
11.7500,10.39145697
11.7550,10.35264204
11.7600,10.3144155
11.7650,10.27665783
11.7700,10.23950252
11.7750,10.20283007
11.7800,10.16648702
11.7850,10.13034604
11.7900,10.09453069
11.7950,10.05884789
11.8000,10.02332778
11.8050,9.987754315
11.8100,9.952108163
11.8150,9.916359011
11.8200,9.880124117
11.8250,9.84367631
11.8300,9.806971308
11.8350,9.769930747
11.8400,9.73253073
11.8450,9.694840369
11.8500,9.656888553
11.8550,9.618536819
11.8600,9.579892227
11.8650,9.540834518
11.8700,9.501410984
11.8750,9.46174865
11.8800,9.421833118
11.8850,9.381747619
11.8900,9.341562562
11.8950,9.30115423
11.9000,9.260413516
11.9050,9.219425129
11.9100,9.178152143
11.9150,9.136439517
11.9200,9.094294087
11.9250,9.051657669
11.9300,9.008465869
11.9350,8.964625727
11.9400,8.92011447
11.9450,8.875220939
11.9500,8.829527866
11.9550,8.783333285
11.9600,8.736553465
11.9650,8.689275885
11.9700,8.641543514
11.9750,8.593521216
11.9800,8.545276981
11.9850,8.497018145
11.9900,8.448560043
11.9950,8.400156997
12.0000,8.351752564
12.0050,8.303635377
12.0100,8.255689201
12.0150,8.208064657
12.0200,8.160899984
12.0250,8.114169827
12.0300,8.06802163
12.0350,8.02263751
12.0400,7.977946896
12.0450,7.933910662
12.0500,7.890362323
12.0550,7.847554105
12.0600,7.805493457
12.0650,7.764279974
12.0700,7.723950198
12.0750,7.684644352
12.0800,7.646450767
12.0850,7.609465492
12.0900,7.573654726
12.0950,7.539282532
12.1000,7.506084753
12.1050,7.474287584
12.1100,7.443860851
12.1150,7.414728454
12.1200,7.386924328
12.1250,7.360351857
12.1300,7.334952265
12.1350,7.310611589
12.1400,7.287032879
12.1450,7.264079119
12.1500,7.241461171
12.1550,7.219179586
12.1600,7.197075306
12.1650,7.175138715
12.1700,7.15308577
12.1750,7.13080577
12.1800,7.108047082
12.1850,7.084692199
12.1900,7.060525521
12.1950,7.035381678
12.2000,7.009169262
12.2050,6.981669997
12.2100,6.952799936
12.2150,6.922499501
12.2200,6.8907288
12.2250,6.857529565
12.2300,6.822852998
12.2350,6.786799479
12.2400,6.749408477
12.2450,6.710588494
12.2500,6.670791116
12.2550,6.630098182
12.2600,6.58861778
12.2650,6.546586011
12.2700,6.503991797
12.2750,6.461100299
12.2800,6.417877
12.2850,6.374601191
12.2900,6.331489609
12.2950,6.288481643
12.3000,6.245828183
12.3050,6.203600529
12.3100,6.162018179
12.3150,6.121119164
12.3200,6.081018928
12.3250,6.041853018
12.3300,6.003674652
12.3350,5.966456824
12.3400,5.930287593
12.3450,5.895439317
12.3500,5.862223858
12.3550,5.830550645
12.3600,5.800527202
12.3650,5.772272788
12.3700,5.745800657
12.3750,5.720837334
12.3800,5.697502297
12.3850,5.675731169
12.3900,5.655566757
12.3950,5.636932762
12.4000,5.61980263
12.4050,5.604081644
12.4100,5.589564379
12.4150,5.576213288
12.4200,5.564002341
12.4250,5.552636061
12.4300,5.541843175
12.4350,5.531543173
12.4400,5.521786412
12.4450,5.512329333
12.4500,5.503015653
12.4550,5.493673882
12.4600,5.484180066
12.4650,5.474320089
12.4700,5.464004222
12.4750,5.453239389
12.4800,5.441761526
12.4850,5.429523671
12.4900,5.416474931
12.4950,5.402612115
12.5000,5.3877657
12.5050,5.371850324
12.5100,5.354697208
12.5150,5.336190096
12.5200,5.316187356
12.5250,5.294401053
12.5300,5.271026087
12.5350,5.245934407
12.5400,5.219047889
12.5450,5.190415061
12.5500,5.159936579
12.5550,5.127557132
12.5600,5.093464761
12.5650,5.057649422
12.5700,5.020227796
12.5750,4.981211432
12.5800,4.940671273
12.5850,4.898727414
12.5900,4.855580059
12.5950,4.811406917
12.6000,4.766322289
12.6050,4.720684986
12.6100,4.674547998
12.6150,4.628294704
12.6200,4.582029785
12.6250,4.535961947
12.6300,4.490487699
12.6350,4.44573808
12.6400,4.401942362
12.6450,4.359320727
12.6500,4.317910041
12.6550,4.277964157
12.6600,4.239551718
12.6650,4.202812311
12.6700,4.167961649
12.6750,4.135247133
12.6800,4.104697473
12.6850,4.076451833
12.6900,4.050561651
12.6950,4.026905754
12.7000,4.005534193
12.7050,3.986385967
12.7100,3.969334132
12.7150,3.954200179
12.7200,3.9406704
12.7250,3.928693255
12.7300,3.918149004
12.7350,3.908933326
12.7400,3.900639589
12.7450,3.893225088
12.7500,3.886600104
12.7550,3.880899553
12.7600,3.875943868
12.7650,3.871628509
12.7700,3.868008291
12.7750,3.864983027
12.7800,3.862562816
12.7850,3.860775079
12.7900,3.859361314
12.7950,3.858520124
12.8000,3.858171747
12.8050,3.858273694
12.8100,3.858801867
12.8150,3.859805783
12.8200,3.861241983
12.8250,3.863258195
12.8300,3.865647085
12.8350,3.868415044
12.8400,3.871533265
12.8450,3.874961335
12.8500,3.878596243
12.8550,3.882273817
12.8600,3.885885738
12.8650,3.889192777
12.8700,3.892323214
12.8750,3.895070318
12.8800,3.897368595
12.8850,3.898969046
12.8900,3.899831634
12.8950,3.899955291
12.9000,3.899368458
12.9050,3.897733807
12.9100,3.895272904
12.9150,3.891715527
12.9200,3.887108465
12.9250,3.881282279
12.9300,3.874121363
12.9350,3.865825535
12.9400,3.856129878
12.9450,3.844967603
12.9500,3.832247047
12.9550,3.818078789
12.9600,3.80240115
12.9650,3.785485433
12.9700,3.767165048
12.9750,3.747611127
12.9800,3.726837269
12.9850,3.704742589
12.9900,3.681382919
12.9950,3.656998672
13.0000,3.631407377
13.0050,3.604843778
13.0100,3.577449654
13.0150,3.549165131
13.0200,3.520228111
13.0250,3.490771196
13.0300,3.461004211
13.0350,3.431012473
13.0400,3.40100006
13.0450,3.371104386
13.0500,3.34149653
13.0550,3.312022397
13.0600,3.282893098
13.0650,3.254373513
13.0700,3.226444675
13.0750,3.199031638
13.0800,3.172342541
13.0850,3.146468388
13.0900,3.121455543
13.0950,3.097316219
13.1000,3.074261706
13.1050,3.052315792
13.1100,3.031489842
13.1150,3.01173254
13.1200,2.99311909
13.1250,2.975545983
13.1300,2.958980101
13.1350,2.943221843
13.1400,2.928354001
13.1450,2.91429022
13.1500,2.900938759
13.1550,2.888169977
13.1600,2.876016396
13.1650,2.864501434
13.1700,2.853304327
13.1750,2.842620688
13.1800,2.83238384
13.1850,2.822687265
13.1900,2.813398808
13.1950,2.804590771
13.2000,2.796122659
13.2050,2.788396798
13.2100,2.781178775
13.2150,2.774589599
13.2200,2.768701196
13.2250,2.763587958
13.2300,2.759170232
13.2350,2.75540168
13.2400,2.752531057
13.2450,2.750732589
13.2500,2.749942336
13.2550,2.750281881
13.2600,2.751732267
13.2650,2.75408589
13.2700,2.75753574
13.2750,2.761973779
13.2800,2.767316945
13.2850,2.773784911
13.2900,2.781272355
13.2950,2.789798882
13.3000,2.799419662
13.3050,2.809773057
13.3100,2.820898038
13.3150,2.832918785
13.3200,2.845795578
13.3250,2.859207345
13.3300,2.873228676
13.3350,2.887789174
13.3400,2.90295506
13.3450,2.918603956
13.3500,2.934855576
13.3550,2.951674402
13.3600,2.96903236
13.3650,2.98693057
13.3700,3.005494413
13.3750,3.024800929
13.3800,3.044803413
13.3850,3.065516637
13.3900,3.087144916
13.3950,3.109559266
13.4000,3.132738958
13.4050,3.156736534
13.4100,3.181711228
13.4150,3.20752422
13.4200,3.234406279
13.4250,3.262220942
13.4300,3.291030195
13.4350,3.320930985
13.4400,3.351871719
13.4450,3.383761449
13.4500,3.416672486
13.4550,3.450688539
13.4600,3.485753681
13.4650,3.521849585
13.4700,3.559094878
13.4750,3.59731082
13.4800,3.636555279
13.4850,3.676860122
13.4900,3.718359191
13.4950,3.760884482
13.5000,3.804375034
13.5050,3.848655886
13.5100,3.893841872
13.5150,3.93994575
13.5200,3.986856293
13.5250,4.034590689
13.5300,4.083369457
13.5350,4.132823439
13.5400,4.1831488
13.5450,4.23419748
13.5500,4.286150802
13.5550,4.338733961
13.5600,4.392050482
13.5650,4.446068319
13.5700,4.500866221
13.5750,4.556494733
13.5800,4.612859294
13.5850,4.669821135
13.5900,4.727309146
13.5950,4.785147819
13.6000,4.843259091
13.6050,4.901705926
13.6100,4.960218084
13.6150,5.01860298
13.6200,5.076652554
13.6250,5.134356998
13.6300,5.191488295
13.6350,5.247980254
13.6400,5.303707092
13.6450,5.358647204
13.6500,5.412529798
13.6550,5.465482533
13.6600,5.5173764
13.6650,5.568139481
13.6700,5.617564117
13.6750,5.665911578
13.6800,5.713236434
13.6850,5.759480939
13.6900,5.804743007
13.6950,5.849047377
13.7000,5.892499662
13.7050,5.935222198
13.7100,5.977124297
13.7150,6.018415044
13.7200,6.058932018
13.7250,6.098890327
13.7300,6.138222779
13.7350,6.177062223
13.7400,6.215211015
13.7450,6.252782817
13.7500,6.289920529
13.7550,6.326581835
13.7600,6.362939754
13.7650,6.399079588
13.7700,6.435065392
13.7750,6.47098334
13.7800,6.507090876
13.7850,6.543424681
13.7900,6.580097848
13.7950,6.617395303
13.8000,6.655562813
13.8050,6.694771664
13.8100,6.735228397
13.8150,6.777157017
13.8200,6.820698865
13.8250,6.8660378
13.8300,6.913135871
13.8350,6.962277748
13.8400,7.013284559
13.8450,7.066157362
13.8500,7.120964234
13.8550,7.177723156
13.8600,7.236455559
13.8650,7.297193528
13.8700,7.359639079
13.8750,7.423815196
13.8800,7.489803911
13.8850,7.557497502
13.8900,7.626768883
13.8950,7.697616668
13.9000,7.770007255
13.9050,7.843830715
13.9100,7.919310492
13.9150,7.996358193
13.9200,8.075128268
13.9250,8.155681206
13.9300,8.237964441
13.9350,8.321860909
13.9400,8.407457214
13.9450,8.494742029
13.9500,8.583639775
13.9550,8.674015943
13.9600,8.7660504
13.9650,8.85964505
13.9700,8.954641973
13.9750,9.050808198
13.9800,9.147979711
13.9850,9.246267786
13.9900,9.345418159
13.9950,9.445250666
14.0000,9.545624673
14.0050,9.646284169
14.0100,9.74736648
14.0150,9.848832591
14.0200,9.950370929
14.0250,10.05209394
14.0300,10.15385693
14.0350,10.25544094
14.0400,10.35715732
14.0450,10.4587348
14.0500,10.56003088
14.0550,10.66126191
14.0600,10.76227973
14.0650,10.86319803
14.0700,10.96412165
14.0750,11.06541081
14.0800,11.16729001
14.0850,11.2699087
14.0900,11.37306113
14.0950,11.4766781
14.1000,11.58037419
14.1050,11.68433464
14.1100,11.7886946
14.1150,11.89345192
14.1200,11.99869704
14.1250,12.10435985
14.1300,12.21053997
14.1350,12.31742462
14.1400,12.42515076
14.1450,12.53373292
14.1500,12.64316844
14.1550,12.75341294
14.1600,12.86458456
14.1650,12.97688066
14.1700,13.0905513
14.1750,13.20555766
14.1800,13.32200437
14.1850,13.43992786
14.1900,13.55947838
14.1950,13.68070277
14.2000,13.8039403
14.2050,13.92913659
14.2100,14.05599376
14.2150,14.18448885
14.2200,14.3144244
14.2250,14.445532
14.2300,14.57766081
14.2350,14.71050872
14.2400,14.84375475
14.2450,14.97711427
14.2500,15.11025558
14.2550,15.24282764
14.2600,15.3743072
14.2650,15.50439878
14.2700,15.63317417
14.2750,15.76040945
14.2800,15.88588839
14.2850,16.00937521
14.2900,16.13064347
14.2950,16.24980814
14.3000,16.36681088
14.3050,16.48188541
14.3100,16.59472971
14.3150,16.70534973
14.3200,16.81398636
14.3250,16.92058464
14.3300,17.02527144
14.3350,17.12830003
14.3400,17.22957845
14.3450,17.32921388
14.3500,17.42729787
14.3550,17.52369393
14.3600,17.61866808
14.3650,17.71195879
14.3700,17.80337187
14.3750,17.89259138
14.3800,17.97938012
14.3850,18.06362407
14.3900,18.14558729
14.3950,18.22536859
14.4000,18.30340364
14.4050,18.37951376
14.4100,18.45355374
14.4150,18.52550931
14.4200,18.5952332
14.4250,18.66303317
14.4300,18.72881877
14.4350,18.79272756
14.4400,18.85492854
14.4450,18.91579202
14.4500,18.97533065
14.4550,19.03370583
14.4600,19.09086875
14.4650,19.14653481
14.4700,19.20067459
14.4750,19.25329951
14.4800,19.30423895
14.4850,19.35374276
14.4900,19.40203876
14.4950,19.44901179
14.5000,19.49455418
14.5050,19.53861102
14.5100,19.58149356
14.5150,19.62310643
14.5200,19.663713
14.5250,19.70344203
14.5300,19.74223072
14.5350,19.7801306
14.5400,19.81732169
14.5450,19.85401497
14.5500,19.8905899
14.5550,19.92740008
14.5600,19.96459707
14.5650,20.00229121
14.5700,20.0406143
14.5750,20.07960261
14.5800,20.11926594
14.5850,20.15943334
14.5900,20.20015038
14.5950,20.2412681
14.6000,20.28255785
14.6050,20.32384756
14.6100,20.36507133
14.6150,20.40624365
14.6200,20.44731159
14.6250,20.48811576
14.6300,20.52873001
14.6350,20.56882815
14.6400,20.60839552
14.6450,20.64736308
14.6500,20.68569403
14.6550,20.72330635
14.6600,20.75994141
14.6650,20.79565974
14.6700,20.83055563
14.6750,20.86444402
14.6800,20.89725278
14.6850,20.928818
14.6900,20.9589858
14.6950,20.98771018
14.7000,21.01496545
14.7050,21.04059359
14.7100,21.06463056
14.7150,21.08722972
14.7200,21.10841253
14.7250,21.12816444
14.7300,21.14673258
14.7350,21.16399678
14.7400,21.17992819
14.7450,21.19432315
14.7500,21.20724011
14.7550,21.21899645
14.7600,21.22979895
14.7650,21.23989621
14.7700,21.24927496
14.7750,21.25813601
14.7800,21.2668051
14.7850,21.27527216
14.7900,21.28343152
14.7950,21.29151973
14.8000,21.29934437
14.8050,21.30715929
14.8100,21.31471961
14.8150,21.32231415
14.8200,21.32964244
14.8250,21.33663536
14.8300,21.34327381
14.8350,21.3497052
14.8400,21.35578047
14.8450,21.36148764
14.8500,21.36653847
14.8550,21.37076267
14.8600,21.37398661
14.8650,21.37614405
14.8700,21.37696694
14.8750,21.37639265
14.8800,21.37427128
14.8850,21.37047443
14.8900,21.36517026
14.8950,21.35825062
14.9000,21.34976396
14.9050,21.33962572
14.9100,21.32782424
14.9150,21.31396828
14.9200,21.29800854
14.9250,21.2800173
14.9300,21.25984465
14.9350,21.2377155
14.9400,21.21366891
14.9450,21.1879421
14.9500,21.16073932
14.9550,21.13234113
14.9600,21.10298845
14.9650,21.07290152
14.9700,21.04235587
14.9750,21.0118421
14.9800,20.98157227
14.9850,20.95179213
14.9900,20.92269302
14.9950,20.89422044
15.0000,20.86680268
15.0050,20.84075591
15.0100,20.81625278
15.0150,20.79344977
15.0200,20.7724742
15.0250,20.75320479
15.0300,20.73549641
15.0350,20.71943602
15.0400,20.70497114
15.0450,20.69208786
15.0500,20.68092209
15.0550,20.67117474
15.0600,20.66268931
15.0650,20.65540621
15.0700,20.64917027
15.0750,20.6439275
15.0800,20.63948597
15.0850,20.63574802
15.0900,20.63269776
15.0950,20.62985639
15.1000,20.62705484
15.1050,20.62427715
15.1100,20.62140423
15.1150,20.6184623
15.1200,20.61532822
15.1250,20.61191227
15.1300,20.60808239
15.1350,20.60374072
15.1400,20.5985712
15.1450,20.59246649
15.1500,20.5856121
15.1550,20.57812365
15.1600,20.57005154
15.1650,20.56145944
15.1700,20.55225943
15.1750,20.54232004
15.1800,20.53186812
15.1850,20.52110222
15.1900,20.51002404
15.1950,20.49855426
15.2000,20.48687108
15.2050,20.47506982
15.2100,20.46320145
15.2150,20.45165458
15.2200,20.44053367
15.2250,20.43022058
15.2300,20.42061598
15.2350,20.41196062
15.2400,20.40448967
15.2450,20.3984275
15.2500,20.39383542
15.2550,20.39087485
15.2600,20.38954459
15.2650,20.38973709
15.2700,20.39123117
15.2750,20.3939093
15.2800,20.39751072
15.2850,20.40232578
15.2900,20.40835198
15.2950,20.41570368
15.3000,20.42401888
15.3050,20.43322156
15.3100,20.4430493
15.3150,20.45330003
15.3200,20.46394902
15.3250,20.47504151
15.3300,20.48660707
15.3350,20.49867931
15.3400,20.51111832
15.3450,20.52380004
15.3500,20.53634857
15.3550,20.54884155
15.3600,20.56129861
15.3650,20.5738753
15.3700,20.58656516
15.3750,20.59935822
15.3800,20.61228376
15.3850,20.62509091
15.3900,20.63760063
15.3950,20.65015702
15.4000,20.66291542
15.4050,20.67566059
15.4100,20.68831914
15.4150,20.70043134
15.4200,20.71193705
15.4250,20.72265433
15.4300,20.73260349
15.4350,20.74180238
15.4400,20.75054067
15.4450,20.75869507
15.4500,20.76633444
15.4550,20.77314147
15.4600,20.77923315
15.4650,20.78450307
15.4700,20.78914767
15.4750,20.7934403
15.4800,20.79714495
15.4850,20.80040946
15.4900,20.80316806
15.4950,20.80551527
15.5000,20.8073031
15.5050,20.80871607
15.5100,20.80979412
15.5150,20.81063476
15.5200,20.81128474
15.5250,20.8113617
15.5300,20.8113507
15.5350,20.81092868
15.5400,20.80988815
15.5450,20.80811532
15.5500,20.80548511
15.5550,20.80168404
15.5600,20.79655338
15.5650,20.7901518
15.5700,20.7827886
15.5750,20.77420636
15.5800,20.76458133
15.5850,20.75366751
15.5900,20.74152859
15.5950,20.72802686
15.6000,20.7133881
15.6050,20.69756527
15.6100,20.68078276
15.6150,20.66292971
15.6200,20.64410342
15.6250,20.62411714
15.6300,20.60309126
15.6350,20.58104116
15.6400,20.55797856
15.6450,20.53416201
15.6500,20.50986884
15.6550,20.48525401
15.6600,20.46045469
15.6650,20.43537534
15.6700,20.41017765
15.6750,20.38473341
15.6800,20.35917342
15.6850,20.33365596
15.6900,20.30818969
15.6950,20.28277392
15.7000,20.25748636
15.7050,20.23234382
15.7100,20.20743836
15.7150,20.18293107
15.7200,20.15883714
15.7250,20.13521817
15.7300,20.11215531
15.7350,20.0895117
15.7400,20.06713883
15.7450,20.04496924
15.7500,20.02287722
15.7550,20.00123508
15.7600,19.97994465
15.7650,19.95911157
15.7700,19.93885008
15.7750,19.91886593
15.7800,19.89942577
15.7850,19.88035995
15.7900,19.86177878
15.7950,19.8438101
15.8000,19.82646317
15.8050,19.80946397
15.8100,19.79298521
15.8150,19.77674604
15.8200,19.76058159
15.8250,19.74459105
15.8300,19.72848511
15.8350,19.71235866
15.8400,19.69624625
15.8450,19.67989163
15.8500,19.66303607
15.8550,19.64566593
15.8600,19.62777535
15.8650,19.60910101
15.8700,19.58931344
15.8750,19.56859995
15.8800,19.54697829
15.8850,19.5244212
15.8900,19.50100204
15.8950,19.47666958
15.9000,19.45150711
15.9050,19.42551362
15.9100,19.3986941
15.9150,19.37147066
15.9200,19.34394688
15.9250,19.31620345
15.9300,19.28829359
15.9350,19.25995167
15.9400,19.23125237
15.9450,19.20213208
15.9500,19.17261827
15.9550,19.14265821
15.9600,19.11232245
15.9650,19.08165503
15.9700,19.05071506
15.9750,19.01968006
15.9800,18.98845468
15.9850,18.95712973
15.9900,18.92589678
15.9950,18.89432621
16.0000,18.86227584
16.0050,18.82979809
16.0100,18.79668503
16.0150,18.76300399
16.0200,18.72889592
16.0250,18.69440453
16.0300,18.65958299
16.0350,18.6244261
16.0400,18.58918498
16.0450,18.55382871
16.0500,18.51837364
16.0550,18.48253434
16.0600,18.44631975
16.0650,18.4095689
16.0700,18.37222597
16.0750,18.33432983
16.0800,18.29584242
16.0850,18.25688078
16.0900,18.21725698
16.0950,18.17699954
16.1000,18.13627744
16.1050,18.09501313
16.1100,18.05313844
16.1150,18.01069082
16.1200,17.96775764
16.1250,17.92419342
16.1300,17.88008375
16.1350,17.83548824
16.1400,17.79036383
16.1450,17.74472827
16.1500,17.69856442
16.1550,17.65184015
16.1600,17.60457259
16.1650,17.55689307
16.1700,17.50875538
16.1750,17.45998107
16.1800,17.41056676
16.1850,17.3603362
16.1900,17.30931809
16.1950,17.25770737
16.2000,17.20533464
16.2050,17.15220194
16.2100,17.09830339
16.2150,17.04352251
16.2200,16.98780889
16.2250,16.93142769
16.2300,16.87432049
16.2350,16.81692486
16.2400,16.75938134
16.2450,16.70181552
16.2500,16.64428521
16.2550,16.58667384
16.2600,16.52885299
16.2650,16.47095063
16.2700,16.41303381
16.2750,16.35506852
16.2800,16.29702932
16.2850,16.23913155
16.2900,16.18124463
16.2950,16.12380654
16.3000,16.06694582
16.3050,16.01047287
16.3100,15.9546215
16.3150,15.89907507
16.3200,15.84382276
16.3250,15.78887848
16.3300,15.73409473
16.3350,15.67953345
16.3400,15.62499785
16.3450,15.57069263
16.3500,15.51675018
16.3550,15.46316245
16.3600,15.41013909
16.3650,15.35784053
16.3700,15.30605895
16.3750,15.25484192
16.3800,15.20420101
16.3850,15.1539367
16.3900,15.10413757
16.3950,15.05472921
16.4000,15.00558257
16.4050,14.9568417
16.4100,14.90848181
16.4150,14.86059044
16.4200,14.81328229
16.4250,14.76655074
16.4300,14.72039555
16.4350,14.67465077
16.4400,14.62918873
16.4450,14.58415687
16.4500,14.53963563
16.4550,14.49581771
16.4600,14.45244519
16.4650,14.40945407
16.4700,14.36695766
16.4750,14.32496235
16.4800,14.28336903
16.4850,14.24227555
16.4900,14.20156914
16.4950,14.16137427
16.5000,14.12161052
16.5050,14.0823302
16.5100,14.04342501
16.5150,14.00479119
16.5200,13.96656046
16.5250,13.92862849
16.5300,13.89105068
16.5350,13.85347444
16.5400,13.8159522
16.5450,13.77836278
16.5500,13.74068217
16.5550,13.70302525
16.5600,13.6653266
16.5650,13.62759367
16.5700,13.58980473
16.5750,13.55206479
16.5800,13.5143112
16.5850,13.47617569
16.5900,13.43782089
16.5950,13.3990527
16.6000,13.35954069
16.6050,13.3192892
16.6100,13.27823324
16.6150,13.23639694
16.6200,13.19352235
16.6250,13.14963002
16.6300,13.1048762
16.6350,13.05917703
16.6400,13.01272932
16.6450,12.96554519
16.6500,12.91736277
16.6550,12.86849193
16.6600,12.81882909
16.6650,12.76822113
16.6700,12.71685202
16.6750,12.66464011
16.6800,12.61161419
16.6850,12.55768517
16.6900,12.50301315
16.6950,12.44735782
16.7000,12.39067606
16.7050,12.33281983
16.7100,12.2738422
16.7150,12.21363502
16.7200,12.15226356
16.7250,12.08973648
16.7300,12.025938
16.7350,11.96130319
16.7400,11.89593752
16.7450,11.82982617
16.7500,11.76317969
16.7550,11.69596799
16.7600,11.62847494
16.7650,11.56086475
16.7700,11.49320442
16.7750,11.42583074
16.7800,11.35877998
16.7850,11.29229786
16.7900,11.22647468
16.7950,11.16139201
16.8000,11.09709826
16.8050,11.03378359
16.8100,10.97167319
16.8150,10.91091366
16.8200,10.85139939
16.8250,10.79303491
16.8300,10.73587417
16.8350,10.68003208
16.8400,10.62528508
16.8450,10.57162321
16.8500,10.518947
16.8550,10.46740974
16.8600,10.41709971
16.8650,10.36811077
16.8700,10.32038964
16.8750,10.27385257
16.8800,10.22853823
16.8850,10.18463615
16.8900,10.14204439
16.8950,10.10058599
16.9000,10.06032584
16.9050,10.02118305
16.9100,9.983012068
16.9150,9.945857106
16.9200,9.909684601
16.9250,9.874664874
16.9300,9.840687789
16.9350,9.807916129
16.9400,9.776244105
16.9450,9.745776762
16.9500,9.716729288
16.9550,9.689054355
16.9600,9.662717766
16.9650,9.637971203
16.9700,9.614602912
16.9750,9.592593195
16.9800,9.571816766
16.9850,9.55253516
16.9900,9.534501283
16.9950,9.517976757
17.0000,9.503046001
17.0050,9.489903116
17.0100,9.478383986
17.0150,9.468582023
17.0200,9.460262152
17.0250,9.45345511
17.0300,9.448195823
17.0350,9.444015506
17.0400,9.440831935
17.0450,9.438556513
17.0500,9.436888109
17.0550,9.435713064
17.0600,9.435256628
17.0650,9.435385187
17.0700,9.436211419
17.0750,9.437566358
17.0800,9.439654333
17.0850,9.442317749
17.0900,9.44548495
17.0950,9.448849335
17.1000,9.452383102
17.1050,9.455910262
17.1100,9.459031807
17.1150,9.461630404
17.1200,9.463415522
17.1250,9.464415158
17.1300,9.464244828
17.1350,9.462872339
17.1400,9.460248243
17.1450,9.456346099
17.1500,9.450933943
17.1550,9.443913667
17.1600,9.435048135
17.1650,9.424011283
17.1700,9.410588016
17.1750,9.394752495
17.1800,9.376376763
17.1850,9.355443416
17.1900,9.331761798
17.1950,9.305453873
17.2000,9.276639765
17.2050,9.245182997
17.2100,9.211412553
17.2150,9.175323426
17.2200,9.13716447
17.2250,9.096808245
17.2300,9.054542712
17.2350,9.010468418
17.2400,8.964782692
17.2450,8.917488018
17.2500,8.868729227
17.2550,8.818520264
17.2600,8.767294242
17.2650,8.715074919
17.2700,8.662309051
17.2750,8.609156406
17.2800,8.555917666
17.2850,8.502690906
17.2900,8.449522387
17.2950,8.396587382
17.3000,8.344065314
17.3050,8.291992783
17.3100,8.2406975
17.3150,8.190262067
17.3200,8.140906004
17.3250,8.092606821
17.3300,8.045451261
17.3350,7.9995755
17.3400,7.955068201
17.3450,7.911894906
17.3500,7.87029919
17.3550,7.830379196
17.3600,7.791838376
17.3650,7.754784612
17.3700,7.719235984
17.3750,7.685123818
17.3800,7.652285888
17.3850,7.620699885
17.3900,7.590202248
17.3950,7.560732328
17.4000,7.532156652
17.4050,7.504212217
17.4100,7.476952957
17.4150,7.450099918
17.4200,7.423719319
17.4250,7.397575581
17.4300,7.37168527
17.4350,7.34594944
17.4400,7.320329575
17.4450,7.294810774
17.4500,7.269555997
17.4550,7.244391139
17.4600,7.219457891
17.4650,7.194832473
17.4700,7.170740869
17.4750,7.146977697
17.4800,7.12354049
17.4850,7.100376394
17.4900,7.077366813
17.4950,7.054490413
17.5000,7.031749151
17.5050,7.009238653
17.5100,6.986732198
17.5150,6.964198102
17.5200,6.941715234
17.5250,6.919115528
17.5300,6.896198722
17.5350,6.872922027
17.5400,6.849153283
17.5450,6.825102696
17.5500,6.80075642
17.5550,6.776250518
17.5600,6.751581445
17.5650,6.726862913
17.5700,6.702140123
17.5750,6.677662684
17.5800,6.653393933
17.5850,6.629508384
17.5900,6.606112226
17.5950,6.583294314
17.6000,6.560977487
17.6050,6.539245024
17.6100,6.517812209
17.6150,6.496812679
17.6200,6.476153419
17.6250,6.455790741
17.6300,6.435675395
17.6350,6.41558605
17.6400,6.395546105
17.6450,6.375524959
17.6500,6.355255403
17.6550,6.334512073
17.6600,6.313347953
17.6650,6.291567046
17.6700,6.268874441
17.6750,6.245342151
17.6800,6.22091555
17.6850,6.195648327
17.6900,6.169422252
17.6950,6.142230114
17.7000,6.114173116
17.7050,6.085224384
17.7100,6.055489771
17.7150,6.024884873
17.7200,5.993389833
17.7250,5.961100447
17.7300,5.928192822
17.7350,5.894535524
17.7400,5.860399823
17.7450,5.825632036
17.7500,5.790262626
17.7550,5.754338916
17.7600,5.717913114
17.7650,5.680910826
17.7700,5.643382069
17.7750,5.605498026
17.7800,5.567286256
17.7850,5.528671888
17.7900,5.48989481
17.7950,5.450852504
17.8000,5.411314956
17.8050,5.371406216
17.8100,5.330975835
17.8150,5.289980147
17.8200,5.248238401
17.8250,5.205911852
17.8300,5.162874396
17.8350,5.119224279
17.8400,5.075109566
17.8450,5.030468449
17.8500,4.985526409
17.8550,4.940379172
17.8600,4.895265884
17.8650,4.850477923
17.8700,4.806134099
17.8750,4.762344346
17.8800,4.71949879
17.8850,4.677429279
17.8900,4.636385324
17.8950,4.596304084
17.9000,4.557315523
17.9050,4.519210681
17.9100,4.482244946
17.9150,4.446079959
17.9200,4.410630347
17.9250,4.375913537
17.9300,4.34190344
17.9350,4.30860927
17.9400,4.275907256
17.9450,4.243735102
17.9500,4.212310751
17.9550,4.181562371
17.9600,4.151355935
17.9650,4.122077197
17.9700,4.09361461
17.9750,4.066126133
17.9800,4.03961013
17.9850,4.014209568
17.9900,3.989929772
17.9950,3.966905549
18.0000,3.945217517
18.0050,3.924790759
18.0100,3.905650784
18.0150,3.887799981
18.0200,3.871154228
18.0250,3.85553367
18.0300,3.840750222
18.0350,3.826811737
18.0400,3.813375061
18.0450,3.800425944
18.0500,3.787897355
18.0550,3.775799016
18.0600,3.763925462
18.0650,3.752272037
18.0700,3.740861108
18.0750,3.729656776
18.0800,3.718539941
18.0850,3.70774754
18.0900,3.697100544
18.0950,3.686874766
18.1000,3.677152953
18.1050,3.66790661
18.1100,3.659189688
18.1150,3.651206933
18.1200,3.643906692
18.1250,3.637352216
18.1300,3.631656192
18.1350,3.626807085
18.1400,3.622695175
18.1450,3.619398585
18.1500,3.616701745
18.1550,3.614490734
18.1600,3.612608399
18.1650,3.610859973
18.1700,3.609186578
18.1750,3.607580756
18.1800,3.605879464
18.1850,3.604342749
18.1900,3.602731937
18.1950,3.601307439
18.2000,3.599993708
18.2050,3.599147102
18.2100,3.598428949
18.2150,3.59801552
18.2200,3.597891012
18.2250,3.598059692
18.2300,3.598386873
18.2350,3.598857429
18.2400,3.599354442
18.2450,3.60003685
18.2500,3.600550564
18.2550,3.601127622
18.2600,3.601729521
18.2650,3.602242201
18.2700,3.602824083
18.2750,3.60335313
18.2800,3.603882122
18.2850,3.604235476
18.2900,3.604618257
18.2950,3.604868733
18.3000,3.604891302
18.3050,3.604944452
18.3100,3.604708681
18.3150,3.604304601
18.3200,3.603606796
18.3250,3.60284386
18.3300,3.601851169
18.3350,3.600643546
18.3400,3.599212879
18.3450,3.59770059
18.3500,3.595914348
18.3550,3.593958366
18.3600,3.591935283
18.3650,3.590048877
18.3700,3.588154868
18.3750,3.58633216
18.3800,3.584824211
18.3850,3.583540959
18.3900,3.582700468
18.3950,3.582104135
18.4000,3.581860622
18.4050,3.581878701
18.4100,3.582285597
18.4150,3.582927344
18.4200,3.58392743
18.4250,3.585234256
18.4300,3.58682553
18.4350,3.588514413
18.4400,3.590545077
18.4450,3.592745126
18.4500,3.595315105
18.4550,3.59836105
18.4600,3.601943003
18.4650,3.606147872
18.4700,3.611147344
18.4750,3.617018774
18.4800,3.623610043
18.4850,3.630988666
18.4900,3.639322089
18.4950,3.648619659
18.5000,3.658936668
18.5050,3.67022833
18.5100,3.682731037
18.5150,3.696391504
18.5200,3.711237441
18.5250,3.727186517
18.5300,3.744226466
18.5350,3.762309641
18.5400,3.781516194
18.5450,3.801526098
18.5500,3.822359575
18.5550,3.843951907
18.5600,3.866272238
18.5650,3.888997885
18.5700,3.912356184
18.5750,3.936100142
18.5800,3.960197258
18.5850,3.98463217
18.5900,4.009324572
18.5950,4.034387778
18.6000,4.059673937
18.6050,4.085048755
18.6100,4.110454399
18.6150,4.135768674
18.6200,4.161076934
18.6250,4.186035801
18.6300,4.210654147
18.6350,4.234752729
18.6400,4.258261209
18.6450,4.280821731
18.6500,4.302676199
18.6550,4.323421623
18.6600,4.342950178
18.6650,4.360896179
18.6700,4.377437587
18.6750,4.392311911
18.6800,4.405520735
18.6850,4.416935592
18.6900,4.426563973
18.6950,4.434311686
18.7000,4.440152858
18.7050,4.444355571
18.7100,4.446784515
18.7150,4.447759595
18.7200,4.447149259
18.7250,4.444984244
18.7300,4.441377625
18.7350,4.436734394
18.7400,4.430777108
18.7450,4.423897019
18.7500,4.416170754
18.7550,4.407577849
18.7600,4.398172321
18.7650,4.388005686
18.7700,4.377162729
18.7750,4.365690251
18.7800,4.353804791
18.7850,4.341614579
18.7900,4.329457527
18.7950,4.317173311
18.8000,4.305119071
18.8050,4.293379291
18.8100,4.282199704
18.8150,4.271807586
18.8200,4.262442322
18.8250,4.254299287
18.8300,4.247472781
18.8350,4.242134454
18.8400,4.238317541
18.8450,4.236172457
18.8500,4.235872769
18.8550,4.237295798
18.8600,4.240480653
18.8650,4.245563814
18.8700,4.252302569
18.8750,4.260833724
18.8800,4.270986872
18.8850,4.282715513
18.8900,4.29596393
18.8950,4.310539978
18.9000,4.326419596
18.9050,4.343448683
18.9100,4.36170924
18.9150,4.380951688
18.9200,4.401296258
18.9250,4.422688804
18.9300,4.445163231
18.9350,4.468750372
18.9400,4.493572085
18.9450,4.519743511
18.9500,4.547182883
18.9550,4.576009139
18.9600,4.606335723
18.9650,4.638379036
18.9700,4.671920408
18.9750,4.707095814
18.9800,4.743817941
18.9850,4.782180148
18.9900,4.821945484
18.9950,4.863291731
19.0000,4.906129491
19.0050,4.950304695
19.0100,4.995955539
19.0150,5.042776652
19.0200,5.09075519
19.0250,5.13990496
19.0300,5.190142074
19.0350,5.241242344
19.0400,5.293460753
19.0450,5.346462829
19.0500,5.400135604
19.0550,5.454681614
19.0600,5.51013193
19.0650,5.566464612
19.0700,5.623835822
19.0750,5.682358922
19.0800,5.742087684
19.0850,5.803076066
19.0900,5.865385072
19.0950,5.929152302
19.1000,5.994262027
19.1050,6.060604805
19.1100,6.128165916
19.1150,6.196835264
19.1200,6.266444612
19.1250,6.337021055
19.1300,6.408457389
19.1350,6.480812414
19.1400,6.553963378
19.1450,6.62790564
19.1500,6.702558417
19.1550,6.777883555
19.1600,6.85389393
19.1650,6.930449663
19.1700,7.007694592
19.1750,7.08543653
19.1800,7.163744707
19.1850,7.242651999
19.1900,7.322205573
19.1950,7.402602798
19.2000,7.483744922
19.2050,7.565752399
19.2100,7.64842121
19.2150,7.732055223
19.2200,7.816205364
19.2250,7.900969451
19.2300,7.986234312
19.2350,8.072154057
19.2400,8.158463475
19.2450,8.245311482
19.2500,8.332583114
19.2550,8.420481157
19.2600,8.508874556
19.2650,8.597710398
19.2700,8.687337304
19.2750,8.777692731
19.2800,8.868888073
19.2850,8.960805221
19.2900,9.053660517
19.2950,9.147331843
19.3000,9.241970979
19.3050,9.33739852
19.3100,9.433514569
19.3150,9.53043721
19.3200,9.628144363
19.3250,9.726427316
19.3300,9.825316044
19.3350,9.924681565
19.3400,10.02431862
19.3450,10.12453648
19.3500,10.22520334
19.3550,10.32635868
19.3600,10.42771806
19.3650,10.52950141
19.3700,10.63133705
19.3750,10.73341997
19.3800,10.83556228
19.3850,10.93796037
19.3900,11.0403187
19.3950,11.14282542
19.4000,11.24563515
19.4050,11.34873743
19.4100,11.45200839
19.4150,11.55555654
19.4200,11.65935943
19.4250,11.76323542
19.4300,11.86711014
19.4350,11.97086218
19.4400,12.07448437
19.4450,12.17796128
19.4500,12.2812047
19.4550,12.38404103
19.4600,12.48637191
19.4650,12.58824231
19.4700,12.68947106
19.4750,12.79003719
19.4800,12.89002311
19.4850,12.9891974
19.4900,13.08762119
19.4950,13.1851557
19.5000,13.28176737
19.5050,13.37749825
19.5100,13.47259362
19.5150,13.56677602
19.5200,13.66031519
19.5250,13.75330843
19.5300,13.84608794
19.5350,13.9385096
19.5400,14.03097962
19.5450,14.12320339
19.5500,14.21517517
19.5550,14.30671797
19.5600,14.39800471
19.5650,14.48906529
19.5700,14.57963698
19.5750,14.6697162
19.5800,14.75914786
19.5850,14.8481012
19.5900,14.9362779
19.5950,15.02404397
19.6000,15.11123969
19.6050,15.19799274
19.6100,15.28445655
19.6150,15.37070944
19.6200,15.45695774
19.6250,15.54356231
19.6300,15.63068389
19.6350,15.71840939
19.6400,15.80660776
19.6450,15.89501871
19.6500,15.98358331
19.6550,16.07196672
19.6600,16.16029624
19.6650,16.24844254
19.6700,16.3365638
19.6750,16.42409603
19.6800,16.5109787
19.6850,16.59692442
19.6900,16.68167326
19.6950,16.76514597
19.7000,16.84685568
19.7050,16.92665006
19.7100,17.00449444
19.7150,17.08018043
19.7200,17.15359214
19.7250,17.22486577
19.7300,17.29397325
19.7350,17.36086588
19.7400,17.4255869
19.7450,17.48808154
19.7500,17.54839914
19.7550,17.60690627
19.7600,17.66386442
19.7650,17.71954629
19.7700,17.77404874
19.7750,17.82748281
19.7800,17.87999132
19.7850,17.93192168
19.7900,17.98331803
19.7950,18.0342947
19.8000,18.08499286
19.8050,18.13536906
19.8100,18.18536679
19.8150,18.23515948
19.8200,18.284861
19.8250,18.3345173
19.8300,18.38397001
19.8350,18.43333397
19.8400,18.48253239
19.8450,18.5320221
19.8500,18.5820108
19.8550,18.63276106
19.8600,18.68437579
19.8650,18.73691567
19.8700,18.79050043
19.8750,18.84533671
19.8800,18.90177697
19.8850,18.95978901
19.8900,19.01967722
19.8950,19.08146294
19.9000,19.14539554
19.9050,19.21145397
19.9100,19.27977543
19.9150,19.35036901
19.9200,19.42300345
19.9250,19.49755194
19.9300,19.57353833
19.9350,19.65062386
19.9400,19.72889891
19.9450,19.80804253
19.9500,19.88799494
19.9550,19.96855396
19.9600,20.04950496
19.9650,20.13045605
19.9700,20.21107316
19.9750,20.29140977
19.9800,20.371205
19.9850,20.45041556
19.9900,20.52918139
19.9950,20.60711801
20.0000,20.68387671
20.0050,20.75955919
20.0100,20.83389447
20.0150,20.90685079
20.0200,20.9784868
20.0250,21.04854485
20.0300,21.11707725
20.0350,21.18411381
20.0400,21.24951979
20.0450,21.31328775
20.0500,21.37534127
20.0550,21.43542049
20.0600,21.49364974
20.0650,21.54997194
20.0700,21.60434643
20.0750,21.65682924
20.0800,21.70735901
20.0850,21.75580034
20.0900,21.80200743
20.0950,21.84605129
20.1000,21.88804761
20.1050,21.92806946
20.1100,21.96625451
20.1150,22.00275324
20.1200,22.03775995
20.1250,22.07136853
20.1300,22.10355379
20.1350,22.13447412
20.1400,22.16423994
20.1450,22.19288163
20.1500,22.220396
20.1550,22.24684334
20.1600,22.27220336
20.1650,22.29675363
20.1700,22.32058609
20.1750,22.34395559
20.1800,22.36686212
20.1850,22.3894755
20.1900,22.41200669
20.1950,22.43458446
20.2000,22.45721211
20.2050,22.48015438
20.2100,22.5031542
20.2150,22.52606789
20.2200,22.54879829
20.2250,22.57122076
20.2300,22.59362453
20.2350,22.6160548
20.2400,22.63849579
20.2450,22.66083549
20.2500,22.68298544
20.2550,22.70494524
20.2600,22.72651859
20.2650,22.7476658
20.2700,22.76844934
20.2750,22.78849538
20.2800,22.80785448
20.2850,22.82609659
20.2900,22.84286605
20.2950,22.85802674
20.3000,22.8718337
20.3050,22.8842523
20.3100,22.8953889
20.3150,22.90517598
20.3200,22.91354506
20.3250,22.92066982
20.3300,22.92651659
20.3350,22.93121727
20.3400,22.93486274
20.3450,22.93762903
20.3500,22.93963578
20.3550,22.94115889
20.3600,22.94196357
20.3650,22.94199763
20.3700,22.94145694
20.3750,22.94043132
20.3800,22.93899008
20.3850,22.93718009
20.3900,22.9351068
20.3950,22.93277114
20.4000,22.93000668
20.4050,22.92686974
20.4100,22.92328903
20.4150,22.91927037
20.4200,22.91482962
20.4250,22.90984061
20.4300,22.90450181
20.4350,22.89893751
20.4400,22.89291659
20.4450,22.88653962
20.4500,22.87978242
20.4550,22.87261561
20.4600,22.86526732
20.4650,22.8576833
20.4700,22.84984894
20.4750,22.84184987
20.4800,22.83381237
20.4850,22.8259366
20.4900,22.81809089
20.4950,22.8103648
20.5000,22.80283765
20.5050,22.79556126
20.5100,22.78866713
20.5150,22.78227778
20.5200,22.77641069
20.5250,22.7710343
20.5300,22.76613409
20.5350,22.76184996
20.5400,22.75786102
20.5450,22.75429966
20.5500,22.75117594
20.5550,22.74838473
20.5600,22.74608366
20.5650,22.74408389
20.5700,22.74230627
20.5750,22.74119744
20.5800,22.74079719
20.5850,22.74127937
20.5900,22.74286122
20.5950,22.74550616
20.6000,22.74931777
20.6050,22.75397552
20.6100,22.75954759
20.6150,22.7661546
20.6200,22.77372178
20.6250,22.78208721
20.6300,22.79134112
20.6350,22.80127537
20.6400,22.81174154
20.6450,22.82226518
20.6500,22.83287187
20.6550,22.84315561
20.6600,22.85311308
20.6650,22.86250863
20.6700,22.87117674
20.6750,22.87891129
20.6800,22.8855481
20.6850,22.89102552
20.6900,22.89542243
20.6950,22.89847214
20.7000,22.90018523
20.7050,22.90031708
20.7100,22.89910921
20.7150,22.89634892
20.7200,22.8920875
20.7250,22.88629431
20.7300,22.87899708
20.7350,22.87018524
20.7400,22.86014522
20.7450,22.84866189
20.7500,22.83579597
20.7550,22.82138714
20.7600,22.80525826
20.7650,22.78756938
20.7700,22.76843717
20.7750,22.74772582
20.7800,22.72552576
20.7850,22.70193382
20.7900,22.67731391
20.7950,22.65150227
20.8000,22.6248524
20.8050,22.59761067
20.8100,22.57002921
20.8150,22.54215239
20.8200,22.51443964
20.8250,22.48698073
20.8300,22.45981056
20.8350,22.4328682
20.8400,22.4064359
20.8450,22.38047649
20.8500,22.35482731
20.8550,22.3297398
20.8600,22.30473283
20.8650,22.27985035
20.8700,22.25500127
20.8750,22.22973732
20.8800,22.20395341
20.8850,22.17719985
20.8900,22.14959548
20.8950,22.12102438
20.9000,22.09141658
20.9050,22.06072222
20.9100,22.02894323
20.9150,21.99608347
20.9200,21.96217461
20.9250,21.92747847
20.9300,21.89211828
20.9350,21.85617224
20.9400,21.81983754
20.9450,21.78358815
20.9500,21.74750099
20.9550,21.71203843
20.9600,21.67712192
20.9650,21.64316073
20.9700,21.61007401
20.9750,21.57808348
20.9800,21.54722918
20.9850,21.51754725
20.9900,21.48894077
20.9950,21.46163471
21.0000,21.43576267
21.0050,21.4115163
21.0100,21.38863681
21.0150,21.36729639
21.0200,21.34732831
21.0250,21.32891976
21.0300,21.31177015
21.0350,21.29576845
21.0400,21.28072045
21.0450,21.26638286
21.0500,21.25285952
21.0550,21.24023307
21.0600,21.22830714
21.0650,21.21688677
21.0700,21.20602464
21.0750,21.19567298
21.0800,21.18574759
21.0850,21.17595513
21.0900,21.16607692
21.0950,21.15615376
21.1000,21.14592588
21.1050,21.13513926
21.1100,21.12364612
21.1150,21.11141924
21.1200,21.09816116
21.1250,21.08397777
21.1300,21.06881962
21.1350,21.0525571
21.1400,21.03536732
21.1450,21.01715133
21.1500,20.99812251
21.1550,20.97832516
21.1600,20.95798134
21.1650,20.93748836
21.1700,20.91666349
21.1750,20.89565327
21.1800,20.87444938
21.1850,20.85330944
21.1900,20.83202079
21.1950,20.81069465
21.2000,20.78929979
21.2050,20.76826543
21.2100,20.74746549
21.2150,20.7271241
21.2200,20.70737003
21.2250,20.68823105
21.2300,20.66976646
21.2350,20.65234666
21.2400,20.63603587
21.2450,20.6210758
21.2500,20.6076371
21.2550,20.5956441
21.2600,20.58525252
21.2650,20.57633977
21.2700,20.56905775
21.2750,20.56323496
21.2800,20.55882492
21.2850,20.55565502
21.2900,20.55363286
21.2950,20.55254168
21.3000,20.55233246
21.3050,20.55280833
21.3100,20.55389391
21.3150,20.55540282
21.3200,20.55733406
21.3250,20.55940023
21.3300,20.56172933
21.3350,20.56425183
21.3400,20.56673417
21.3450,20.56944525
21.3500,20.57213691
21.3550,20.57476991
21.3600,20.5773947
21.3650,20.57991226
21.3700,20.58206221
21.3750,20.58382643
21.3800,20.58512065
21.3850,20.58606695
21.3900,20.58648457
21.3950,20.5862366
21.4000,20.58526826
21.4050,20.58356552
21.4100,20.58107354
21.4150,20.57757664
21.4200,20.57303493
21.4250,20.56718727
21.4300,20.56017476
21.4350,20.55193364
21.4400,20.54235585
21.4450,20.53144132
21.4500,20.51932275
21.4550,20.5058252
21.4600,20.49113883
21.4650,20.47511952
21.4700,20.45761979
21.4750,20.43886717
21.4800,20.41884648
21.4850,20.39748341
21.4900,20.37476454
21.4950,20.35092465
21.5000,20.32594119
21.5050,20.29971403
21.5100,20.27231768
21.5150,20.24353125
21.5200,20.21339566
21.5250,20.18205883
21.5300,20.14974009
21.5350,20.11596924
21.5400,20.08090538
21.5450,20.04440731
21.5500,20.00628286
21.5550,19.96684146
21.5600,19.92611773
21.5650,19.88413077
21.5700,19.84095724
21.5750,19.79683563
21.5800,19.75168938
21.5850,19.70552267
21.5900,19.65833422
21.5950,19.61039115
21.6000,19.56160829
21.6050,19.51215433
21.6100,19.46197496
21.6150,19.41105085
21.6200,19.35925355
21.6250,19.30658421
21.6300,19.25300101
21.6350,19.19825999
21.6400,19.14262836
21.6450,19.08585872
21.6500,19.02819829
21.6550,18.96984283
21.6600,18.91109469
21.6650,18.85189689
21.6700,18.79236963
21.6750,18.73232782
21.6800,18.67181718
21.6850,18.61058918
21.6900,18.54868408
21.6950,18.48611568
21.7000,18.4228263
21.7050,18.35878463
21.7100,18.29398375
21.7150,18.2285125
21.7200,18.16243833
21.7250,18.09582569
21.7300,18.02863635
21.7350,17.96099649
21.7400,17.8927139
21.7450,17.82406759
21.7500,17.75491776
21.7550,17.6850923
21.7600,17.61457037
21.7650,17.54329028
21.7700,17.47149552
21.7750,17.39911238
21.7800,17.326287
21.7850,17.2530376
21.7900,17.17944014
21.7950,17.1052038
21.8000,17.03041145
21.8050,16.95519658
21.8100,16.87955132
21.8150,16.8035945
21.8200,16.72736948
21.8250,16.65057368
21.8300,16.57305804
21.8350,16.49505095
21.8400,16.41639367
21.8450,16.3371508
21.8500,16.25742009
21.8550,16.17699895
21.8600,16.09600223
21.8650,16.01440001
21.8700,15.9322122
21.8750,15.84954637
21.8800,15.76642571
21.8850,15.68303238
21.8900,15.59949094
21.8950,15.51562415
21.9000,15.43164798
21.9050,15.34763616
21.9100,15.26387008
21.9150,15.18029784
21.9200,15.09687181
21.9250,15.01370384
21.9300,14.93056448
21.9350,14.84768048
21.9400,14.76484017
21.9450,14.68230145
21.9500,14.60002448
21.9550,14.51786015
21.9600,14.43565831
21.9650,14.35361738
21.9700,14.27166161
21.9750,14.18989254
21.9800,14.10828455
21.9850,14.02677605
21.9900,13.94545588
21.9950,13.86426036
22.0000,13.78323794
22.0050,13.70231655
22.0100,13.62164946
22.0150,13.54136691
22.0200,13.46160876
22.0250,13.38251043
22.0300,13.30417803
22.0350,13.22654302
22.0400,13.14971808
22.0450,13.07360457
22.0500,12.99820341
22.0550,12.92367414
22.0600,12.85011361
22.0650,12.77736457
22.0700,12.70549382
22.0750,12.63454659
22.0800,12.56432954
22.0850,12.49515558
22.0900,12.42698176
22.0950,12.36003231
22.1000,12.29451882
22.1050,12.23041297
22.1100,12.16794109
22.1150,12.1070956
22.1200,12.04785612
22.1250,11.99033636
22.1300,11.93441118
22.1350,11.88026297
22.1400,11.82799036
22.1450,11.77765756
22.1500,11.72919428
22.1550,11.68262004
22.1600,11.63793122
22.1650,11.59513347
22.1700,11.55415237
22.1750,11.51476803
22.1800,11.47698043
22.1850,11.440368
22.1900,11.40478182
22.1950,11.37015052
22.2000,11.33618487
22.2050,11.3026575
22.2100,11.26928799
22.2150,11.23625329
22.2200,11.20342061
22.2250,11.17078605
22.2300,11.13856962
22.2350,11.10675472
22.2400,11.07528631
22.2450,11.04399682
22.2500,11.01270638
22.2550,10.98143928
22.2600,10.94992411
22.2650,10.91797768
22.2700,10.88530477
22.2750,10.85179351
22.2800,10.81717943
22.2850,10.78135772
22.2900,10.74424167
22.2950,10.70576969
22.3000,10.6659973
22.3050,10.62487212
22.3100,10.58241316
22.3150,10.53845806
22.3200,10.49283419
22.3250,10.44549624
22.3300,10.39628162
22.3350,10.34531122
22.3400,10.29266186
22.3450,10.23820287
22.3500,10.18197722
22.3550,10.12403383
22.3600,10.06427609
22.3650,10.00273777
22.3700,9.939484907
22.3750,9.874462492
22.3800,9.807684847
22.3850,9.739030696
22.3900,9.668488004
22.3950,9.596115187
22.4000,9.521792084
22.4050,9.445437675
22.4100,9.36700409
22.4150,9.286723074
22.4200,9.204772091
22.4250,9.121428711
22.4300,9.037212554
22.4350,8.95219943
22.4400,8.866824531
22.4450,8.781374838
22.4500,8.696460735
22.4550,8.612284086
22.4600,8.52934331
22.4650,8.447803613
22.4700,8.36819602
22.4750,8.290602773
22.4800,8.215364762
22.4850,8.143027562
22.4900,8.073690526
22.4950,8.00762509
22.5000,7.944990126
22.5050,7.885888152
22.5100,7.83023098
22.5150,7.778016115
22.5200,7.729238592
22.5250,7.683864287
22.5300,7.641484531
22.5350,7.602012719
22.5400,7.565501784
22.5450,7.531676893
22.5500,7.500523601
22.5550,7.471802795
22.5600,7.445351042
22.5650,7.421027748
22.5700,7.398999607
22.5750,7.37906832
22.5800,7.361129033
22.5850,7.345398066
22.5900,7.331619051
22.5950,7.319620316
22.6000,7.30926605
22.6050,7.300475148
22.6100,7.292944673
22.6150,7.286557195
22.6200,7.281151553
22.6250,7.276487098
22.6300,7.272254712
22.6350,7.268387795
22.6400,7.264410734
22.6450,7.260376162
22.6500,7.255995221
22.6550,7.25118554
22.6600,7.245879428
22.6650,7.239867364
22.6700,7.233056889
22.6750,7.225366341
22.6800,7.216934401
22.6850,7.207553847
22.6900,7.197365509
22.6950,7.186457659
22.7000,7.17484811
22.7050,7.162740597
22.7100,7.15025807
22.7150,7.137467574
22.7200,7.124451689
22.7250,7.111290533
22.7300,7.098030441
22.7350,7.084780967
22.7400,7.071593953
22.7450,7.058640301
22.7500,7.045830324
22.7550,7.033331992
22.7600,7.020870604
22.7650,7.008660045
22.7700,6.996499071
22.7750,6.984691362
22.7800,6.973108371
22.7850,6.961806266
22.7900,6.950856683
22.7950,6.940158545
22.8000,6.929794872
22.8050,6.919659686
22.8100,6.910066771
22.8150,6.900998904
22.8200,6.892324837
22.8250,6.883844366
22.8300,6.87588193
22.8350,6.868209132
22.8400,6.860858324
22.8450,6.85375118
22.8500,6.84671185
22.8550,6.839634714
22.8600,6.832634861
22.8650,6.8255696
22.8700,6.818256489
22.8750,6.810759408
22.8800,6.802979121
22.8850,6.794678186
22.8900,6.785715724
22.8950,6.776130245
22.9000,6.765827526
22.9050,6.75451839
22.9100,6.742158397
22.9150,6.728887341
22.9200,6.714540839
22.9250,6.699290551
22.9300,6.683065604
22.9350,6.665857983
22.9400,6.647851768
22.9450,6.628893551
22.9500,6.609009028
22.9550,6.588232478
22.9600,6.566598764
22.9650,6.54413501
22.9700,6.520700952
22.9750,6.496341779
22.9800,6.471151386
22.9850,6.445096588
22.9900,6.418376167
22.9950,6.390874134
23.0000,6.362708496
23.0050,6.333984074
23.0100,6.304698365
23.0150,6.275030987
23.0200,6.244953739
23.0250,6.214565826
23.0300,6.183989941
23.0350,6.153243136
23.0400,6.122294098
23.0450,6.091133518
23.0500,6.059759649
23.0550,6.028200013
23.0600,5.996613965
23.0650,5.964878834
23.0700,5.9330157
23.0750,5.90073458
23.0800,5.86813121
23.0850,5.835055737
23.0900,5.801565024
23.0950,5.767548711
23.1000,5.733005845
23.1050,5.698187472
23.1100,5.663030858
23.1150,5.627354084
23.1200,5.591642854
23.1250,5.555977798
23.1300,5.520320653
23.1350,5.484868534
23.1400,5.449594889
23.1450,5.414758499
23.1500,5.380413211
23.1550,5.346535729
23.1600,5.31325857
23.1650,5.280453782
23.1700,5.248142018
23.1750,5.216411211
23.1800,5.185147818
23.1850,5.154395424
23.1900,5.124176243
23.1950,5.09440517
23.2000,5.065008976
23.2050,5.03603322
23.2100,5.007372577
23.2150,4.978873534
23.2200,4.950630049
23.2250,4.922482891
23.2300,4.894517988
23.2350,4.866524349
23.2400,4.838480954
23.2450,4.810538667
23.2500,4.782652861
23.2550,4.7547503
23.2600,4.726752193
23.2650,4.698945453
23.2700,4.671450202
23.2750,4.644226217
23.2800,4.617230967
23.2850,4.590703882
23.2900,4.564496502
23.2950,4.538817136
23.3000,4.513773036
23.3050,4.489241904
23.3100,4.465583233
23.3150,4.44261622
23.3200,4.420605647
23.3250,4.399498797
23.3300,4.379286957
23.3350,4.360025914
23.3400,4.341923807
23.3450,4.324784779
23.3500,4.308805249
23.3550,4.293738538
23.3600,4.279587672
23.3650,4.266403017
23.3700,4.254127951
23.3750,4.242935575
23.3800,4.232587943
23.3850,4.223112801
23.3900,4.21440391
23.3950,4.206578121
23.4000,4.199468402
23.4050,4.192880125
23.4100,4.186754254
23.4150,4.181282156
23.4200,4.176098156
23.4250,4.171519625
23.4300,4.167356884
23.4350,4.163775068
23.4400,4.160449975
23.4450,4.1575124
23.4500,4.155005664
23.4550,4.152895904
23.4600,4.151050971
23.4650,4.149621672
23.4700,4.148704663
23.4750,4.147982435
23.4800,4.147753208
23.4850,4.147780872
23.4900,4.148263349
23.4950,4.149160473
23.5000,4.150395398
23.5050,4.152060115
23.5100,4.154251938
23.5150,4.156973277
23.5200,4.160221823
23.5250,4.163859058
23.5300,4.168011984
23.5350,4.172605723
23.5400,4.177640547
23.5450,4.182974123
23.5500,4.188845206
23.5550,4.195204608
23.5600,4.20197711
23.5650,4.209078778
23.5700,4.216722223
23.5750,4.224831406
23.5800,4.233457413
23.5850,4.242603265
23.5900,4.252305411
23.5950,4.262501009
23.6000,4.273107541
23.6050,4.28430917
23.6100,4.296051559
23.6150,4.308287243
23.6200,4.320986771
23.6250,4.334348158
23.6300,4.348273658
23.6350,4.362780052
23.6400,4.37787296
23.6450,4.393635075
23.6500,4.410062452
23.6550,4.427309189
23.6600,4.445145841
23.6650,4.463625344
23.6700,4.482660376
23.6750,4.502112799
23.6800,4.52218484
23.6850,4.542606745
23.6900,4.563422094
23.6950,4.584454567
23.7000,4.605720149
23.7050,4.62719611
23.7100,4.648842875
23.7150,4.670654309
23.7200,4.692666853
23.7250,4.714674955
23.7300,4.736717638
23.7350,4.758688092
23.7400,4.780798622
23.7450,4.80298916
23.7500,4.825110397
23.7550,4.847254238
23.7600,4.869443809
23.7650,4.891774763
23.7700,4.914112536
23.7750,4.936596818
23.7800,4.959170182
23.7850,4.981910143
23.7900,5.00464909
23.7950,5.027536759
23.8000,5.050490853
23.8050,5.073536177
23.8100,5.096692851
23.8150,5.119626238
23.8200,5.142426091
23.8250,5.165315658
23.8300,5.187933723
23.8350,5.210569958
23.8400,5.233256714
23.8450,5.255962423
23.8500,5.278583361
23.8550,5.301246125
23.8600,5.324166418
23.8650,5.347292762
23.8700,5.370380665
23.8750,5.393649496
23.8800,5.417049058
23.8850,5.440510454
23.8900,5.463947723
23.8950,5.487340225
23.9000,5.5107516
23.9050,5.533981605
23.9100,5.556986516
23.9150,5.57981179
23.9200,5.602483137
23.9250,5.625002844
23.9300,5.647268671
23.9350,5.669425184
23.9400,5.691463512
23.9450,5.713435309
23.9500,5.735107518
23.9550,5.756662211
23.9600,5.778180942
23.9650,5.799414916
23.9700,5.820315442
23.9750,5.840961782
23.9800,5.861084838
23.9850,5.880828138
23.9900,5.900025767
23.9950,5.918640646
24.0000,5.936616422
24.0050,5.954016323
24.0100,5.970512075
24.0150,5.986066362
24.0200,6.000721955
24.0250,6.014365315
24.0300,6.027037793
24.0350,6.038731657
24.0400,6.049560421
24.0450,6.059458927
24.0500,6.068616187
24.0550,6.077205579
24.0600,6.085226776
24.0650,6.092814814
24.0700,6.099995965
24.0750,6.10703338
24.0800,6.113861889
24.0850,6.120643355
24.0900,6.127331864
24.0950,6.134003476
24.1000,6.140830731
24.1050,6.147630513
24.1100,6.154569365
24.1150,6.161920776
24.1200,6.169666806
24.1250,6.177678936
24.1300,6.186354624
24.1350,6.195468411
24.1400,6.205168859
24.1450,6.215472705
24.1500,6.226521317
24.1550,6.238404026
24.1600,6.250924738
24.1650,6.264291516
24.1700,6.278651833
24.1750,6.293923046
24.1800,6.310078938
24.1850,6.327348603
24.1900,6.345728942
24.1950,6.36535874
24.2000,6.386321263
24.2050,6.408723564
24.2100,6.432715791
24.2150,6.458463036
24.2200,6.485823254
24.2250,6.514888041
24.2300,6.54592063
24.2350,6.578821553
24.2400,6.613628023
24.2450,6.650412182
24.2500,6.689376028
24.2550,6.730534986
24.2600,6.774024962
24.2650,6.820032666
24.2700,6.868636146
24.2750,6.919772061
24.2800,6.973718658
24.2850,7.030412135
24.2900,7.089773399
24.2950,7.151901616
24.3000,7.216718062
24.3050,7.28405111
24.3100,7.353851681
24.3150,7.425921992
24.3200,7.500099052
24.3250,7.576047164
24.3300,7.653737352
24.3350,7.73268911
24.3400,7.81259848
24.3450,7.893272113
24.3500,7.974519929
24.3550,8.056193004
24.3600,8.138134463
24.3650,8.220333446
24.3700,8.302667538
24.3750,8.384993095
24.3800,8.467244442
24.3850,8.54938385
24.3900,8.631560147
24.3950,8.713790791
24.4000,8.795960285
24.4050,8.878421288
24.4100,8.961039266
24.4150,9.043995542
24.4200,9.127500944
24.4250,9.2118499
24.4300,9.297172352
24.4350,9.383969227
24.4400,9.472297443
24.4450,9.562683141
24.4500,9.655308615
24.4550,9.750353483
24.4600,9.848509959
24.4650,9.950180844
24.4700,10.05598178
24.4750,10.16660657
24.4800,10.28253446
24.4850,10.40432587
24.4900,10.53277139
24.4950,10.66817716
24.5000,10.81087589
24.5050,10.9612868
24.5100,11.11944537
24.5150,11.18118312
24.5200,11.25013183
24.5250,11.32602582
24.5300,11.40846248
24.5350,11.49692395
24.5400,11.5907956
24.5450,11.68938188
24.5500,11.79191971
24.5550,11.89758907
24.5600,12.00552162
24.5650,12.11480818
24.5700,12.22450607
24.5750,12.3336476
