type,name,time_units,begin_time,frequency,count,units
signal_3d,"Noraxon MyoMotion-Trajectories-Ulnar styloid process RT","s",0.0000,200,4916,"mm"

time,x,y,z
0.0000,111.8222206,30.3761993,993.2375108
0.0050,111.812509,30.3564297,993.2361321
0.0100,111.8028014,30.33665817,993.2347531
0.0150,111.7930978,30.31688471,993.2333738
0.0200,111.7824201,30.2953034,993.231912
0.0250,111.7707941,30.27201751,993.2303825
0.0300,111.7582517,30.24716001,993.228803
0.0350,111.744827,30.22088542,993.2271933
0.0400,111.7305533,30.19336119,993.2255747
0.0450,111.7154641,30.16475732,993.2239686
0.0500,111.6995942,30.13524034,993.2223958
0.0550,111.6829805,30.10497584,993.2208771
0.0600,111.6656583,30.07413091,993.2194343
0.0650,111.6476576,30.04286905,993.21809
0.0700,111.628999,30.01134555,993.216868
0.0750,111.6096899,29.97971275,993.2157952
0.0800,111.5897215,29.94813051,993.2149028
0.0850,111.56907,29.91676902,993.2142266
0.0900,111.5477036,29.88579852,993.2138035
0.0950,111.5255934,29.8553754,993.2136665
0.1000,111.5027209,29.82563721,993.2138433
0.1050,111.4790829,29.79670794,993.2143554
0.1100,111.4546964,29.76870426,993.2152192
0.1150,111.4296041,29.74173807,993.2164444
0.1200,111.4038782,29.71591978,993.2180343
0.1250,111.3776185,29.69136299,993.2199862
0.1300,111.3509488,29.66818731,993.2222929
0.1350,111.3240149,29.64651855,993.2249432
0.1400,111.2969781,29.62648484,993.2279226
0.1450,111.2700075,29.60820592,993.2312138
0.1500,111.2432742,29.59178007,993.2347944
0.1550,111.1900267,29.5414847,993.2383874
0.1600,111.1374167,29.49172376,993.2420281
0.1650,111.0855656,29.44344871,993.245746
0.1700,111.0346949,29.39655941,993.2495171
0.1750,110.9838673,29.35067291,993.2534039
0.1800,110.9350237,29.30573468,993.2570412
0.1850,110.887031,29.26196636,993.2606305
0.1900,110.8408866,29.21897065,993.263965
0.1950,110.7957192,29.17695386,993.2671135
0.2000,110.7520659,29.13479857,993.2698285
0.2050,110.7095528,29.0921587,993.2721997
0.2100,110.6690057,29.05026795,993.2741274
0.2150,110.6302768,29.00871772,993.2756964
0.2200,110.5939116,28.96730011,993.2765939
0.2250,110.5594305,28.92534748,993.2769246
0.2300,110.5274792,28.88313458,993.2766882
0.2350,110.4972419,28.84093292,993.2759975
0.2400,110.46879,28.79895114,993.2748926
0.2450,110.441583,28.75631656,993.2732888
0.2500,110.4160826,28.71191947,993.2709998
0.2550,110.3919533,28.66618559,993.2681134
0.2600,110.3691965,28.62050309,993.2648537
0.2650,110.3475448,28.57292742,993.2609521
0.2700,110.3262531,28.5247917,993.2568327
0.2750,110.3063812,28.47461335,993.2520157
0.2800,110.287013,28.42360841,993.2469142
0.2850,110.2676877,28.37149344,993.2415829
0.2900,110.249486,28.3186965,993.2359137
0.2950,110.2313096,28.26535465,993.230183
0.3000,110.2132722,28.21070131,993.2242623
0.3050,110.1939444,28.15482083,993.2184852
0.3100,110.1741471,28.0991797,993.2128828
0.3150,110.154237,28.04293133,993.2072527
0.3200,110.1332486,27.9858078,993.2017397
0.3250,110.1109606,27.92816711,993.1964806
0.3300,110.0873213,27.86919698,993.1913447
0.3350,110.062867,27.80906389,993.1862719
0.3400,110.0374249,27.74926647,993.1814781
0.3450,110.0108136,27.68955942,993.1770218
0.3500,109.9836248,27.63026703,993.1728544
0.3550,109.9556557,27.57217318,993.1691797
0.3600,109.9264409,27.51526653,993.1660285
0.3650,109.8968698,27.45958284,993.1632831
0.3700,109.8649205,27.4043115,993.1611771
0.3750,109.8326211,27.35053536,993.1595274
0.3800,109.7987733,27.29765248,993.1584294
0.3850,109.7645836,27.24587036,993.1576731
0.3900,109.7293558,27.19528173,993.1574138
0.3950,109.6926341,27.14522107,993.1576476
0.4000,109.6556854,27.09660753,993.1582446
0.4050,109.618836,27.04939054,993.1590563
0.4100,109.5819872,27.00273705,993.16003
0.4150,109.5452396,26.95642333,993.161121
0.4200,109.5088695,26.91137043,993.1624162
0.4250,109.4725969,26.86577605,993.1636295
0.4300,109.436239,26.82079571,993.1649281
0.4350,109.4001777,26.77636594,993.1663096
0.4400,109.364069,26.73297627,993.1678085
0.4450,109.3294792,26.68870097,993.168877
0.4500,109.2950106,26.64508207,993.1700283
0.4550,109.2609931,26.60124935,993.1710797
0.4600,109.2268585,26.55923278,993.1723892
0.4650,109.1936114,26.51715116,993.1735413
0.4700,109.1608163,26.47579259,993.1747459
0.4750,109.1291805,26.43549485,993.1758943
0.4800,109.0974481,26.39583027,993.1771016
0.4850,109.0664506,26.35677071,993.1782534
0.4900,109.0370331,26.31834208,993.1791637
0.4950,109.0072941,26.28078766,993.1802949
0.5000,108.978895,26.24440216,993.1812894
0.5050,108.9509217,26.20891389,993.1823385
0.5100,108.9230541,26.17485733,993.1835524
0.5150,108.8951858,26.14141679,993.1847518
0.5200,108.8665149,26.1092865,993.1863356
0.5250,108.8359673,26.07798036,993.1884111
0.5300,108.8026691,26.04781283,993.191088
0.5350,108.767097,26.01947857,993.194576
0.5400,108.7286165,25.99231884,993.198864
0.5450,108.6870192,25.96756367,993.2042718
0.5500,108.6420231,25.94535839,993.2108036
0.5550,108.593934,25.92544358,993.2184203
0.5600,108.5421947,25.9073781,993.2271967
0.5650,108.487317,25.89210593,993.237167
0.5700,108.4305548,25.87950215,993.2481007
0.5750,108.3702104,25.86994423,993.2603627
0.5800,108.3068358,25.86288682,993.2737528
0.5850,108.2411909,25.85762336,993.2881335
0.5900,108.1720123,25.8556636,993.3038314
0.5950,108.0989291,25.85516265,993.3207266
0.6000,108.0220649,25.85750969,993.3390175
0.6050,107.9417924,25.86192499,993.358533
0.6100,107.8573841,25.86882621,993.379562
0.6150,107.7681077,25.87795175,993.4021517
0.6200,107.6736935,25.88868781,993.4264255
0.6250,107.5741718,25.90243968,993.4525974
0.6300,107.4682491,25.91894431,993.4808759
0.6350,107.3559219,25.93692015,993.5112054
0.6400,107.2366618,25.95639255,993.5437145
0.6450,107.1110693,25.97721237,993.5782774
0.6500,106.9782632,25.99975896,993.615163
0.6550,106.838945,26.02246468,993.6539738
0.6600,106.6936177,26.04652417,993.6948597
0.6650,106.5417061,26.06966012,993.7377164
0.6700,106.3856311,26.09349296,993.7823148
0.6750,106.2227192,26.11748593,993.8290763
0.6800,106.0554339,26.14216436,993.87767
0.6850,105.8818819,26.16562632,993.9283128
0.6900,105.7020226,26.18934446,993.9811447
0.6950,105.5173763,26.21298795,994.0358609
0.7000,105.3258376,26.23678669,994.0929895
0.7050,105.1276882,26.26126517,994.1525417
0.7100,104.9223596,26.28466342,994.2144092
0.7150,104.7096085,26.30926931,994.2789157
0.7200,104.4888376,26.33372276,994.3459801
0.7250,104.2596233,26.35886356,994.4157834
0.7300,104.021996,26.38495659,994.4883134
0.7350,103.7733475,26.41033507,994.5638507
0.7400,103.5147859,26.43623026,994.6424566
0.7450,103.2432641,26.46383949,994.7248554
0.7500,102.9600649,26.49189486,994.8106025
0.7550,102.6652696,26.52145773,994.8998881
0.7600,102.3576646,26.55225101,994.9929548
0.7650,102.0367094,26.58552032,995.0900007
0.7700,101.7021682,26.62096235,995.191121
0.7750,101.3540582,26.65857879,995.2963602
0.7800,100.9947026,26.69825358,995.4053551
0.7850,100.6231095,26.74070247,995.5184057
0.7900,100.2386081,26.78655659,995.6357643
0.7950,99.84339956,26.83483677,995.7568965
0.8000,99.43722107,26.88490194,995.8819281
0.8050,99.0217695,26.937657,996.010632
0.8100,98.59816492,26.99130296,996.142639
0.8150,98.16587288,27.04732422,996.2785042
0.8200,97.72573678,27.10510322,996.4178863
0.8250,97.27946083,27.16368529,996.5603505
0.8300,96.82766626,27.22343792,996.705907
0.8350,96.36984666,27.28347711,996.8544282
0.8400,95.90698836,27.34473849,997.0059359
0.8450,95.43975393,27.40591349,997.1599364
0.8500,94.96719757,27.46653886,997.3167946
0.8550,94.48974385,27.52678304,997.4763017
0.8600,94.00735983,27.58721483,997.6386088
0.8650,93.51997855,27.64789717,997.8037734
0.8700,93.02783905,27.70800735,997.9715788
0.8750,92.53020273,27.76820468,998.1424335
0.8800,92.02653338,27.82840762,998.3164552
0.8850,91.51611875,27.8890627,998.4937471
0.8900,90.99992213,27.94942939,998.6742483
0.8950,90.47754367,28.01166335,998.8582723
0.9000,89.94936469,28.07296866,999.0453349
0.9050,89.41616731,28.13543705,999.2356351
0.9100,88.8776674,28.19875694,999.4292203
0.9150,88.33502101,28.26231567,999.6257579
0.9200,87.78909773,28.32709458,999.8250473
0.9250,87.23922049,28.39214663,1000.027123
0.9300,86.68618382,28.45733206,1000.231926
0.9350,86.13093492,28.5235033,1000.439201
0.9400,85.57308106,28.58918839,1000.648912
0.9450,85.01151783,28.65587275,1000.861545
0.9500,84.44634903,28.72268535,1001.077013
0.9550,83.87795968,28.79027919,1001.295233
0.9600,83.30528191,28.85860042,1001.51656
0.9650,82.72859282,28.92833095,1001.741049
0.9700,82.14633728,28.99933064,1001.969039
0.9750,81.55957083,29.07174592,1002.200309
0.9800,80.96717712,29.14503637,1002.435026
0.9850,80.37057267,29.22196073,1002.67308
0.9900,79.76852005,29.2996405,1002.914518
0.9950,79.16169343,29.37901689,1003.159037
1.0000,78.55035926,29.45981204,1003.406474
1.0050,77.93516058,29.54211011,1003.656881
1.0100,77.31443475,29.6263226,1003.910587
1.0150,76.69012135,29.7112596,1004.166925
1.0200,76.06056238,29.79794013,1004.426623
1.0250,75.42503632,29.88652101,1004.690059
1.0300,74.78369719,29.9769876,1004.957377
1.0350,74.13874272,30.07026388,1005.228181
1.0400,73.48765537,30.16512038,1005.502955
1.0450,72.83127254,30.26179528,1005.781605
1.0500,72.16941754,30.36006685,1006.064316
1.0550,71.5011182,30.46094636,1006.351534
1.0600,70.82718487,30.56312011,1006.642889
1.0650,70.14807868,30.66619533,1006.938492
1.0700,69.46455876,30.76971112,1007.237926
1.0750,68.77599202,30.87578872,1007.541836
1.0800,68.08248344,30.98381712,1007.850244
1.0850,67.38356288,31.09309359,1008.163059
1.0900,66.67951172,31.20416899,1008.480536
1.0950,65.97079564,31.31695625,1008.802622
1.1000,65.25667834,31.43245849,1009.129673
1.1050,64.53696985,31.54948996,1009.461668
1.1100,63.81074532,31.668592,1009.799034
1.1150,63.07961747,31.78909444,1010.141288
1.1200,62.34349983,31.91080612,1010.488555
1.1250,61.60221362,32.03427412,1010.841225
1.1300,60.8568254,32.15797283,1011.198821
1.1350,60.10698741,32.28284994,1011.561646
1.1400,59.35303116,32.40818325,1011.929756
1.1450,58.59630218,32.53436354,1012.30323
1.1500,57.83792022,32.66196784,1012.681745
1.1550,57.07691853,32.78938103,1013.06586
1.1600,56.31458741,32.91632486,1013.455382
1.1650,55.55163744,33.0425073,1013.850227
1.1700,54.78710083,33.16641029,1014.250828
1.1750,54.02301929,33.28942201,1014.656906
1.1800,53.25907473,33.4103898,1015.068671
1.1850,52.49610387,33.53043051,1015.486252
1.1900,51.73319971,33.64836919,1015.91008
1.1950,50.9713601,33.76433425,1016.340042
1.2000,50.2089374,33.87915914,1016.777101
1.2050,49.44473641,33.99280543,1017.221574
1.2100,48.68003599,34.10359651,1017.67318
1.2150,47.91175138,34.21253576,1018.13285
1.2200,47.14095272,34.31990829,1018.600665
1.2250,46.36635343,34.42599034,1019.077079
1.2300,45.58761328,34.53260112,1019.562421
1.2350,44.80280361,34.63898968,1020.057382
1.2400,44.01259435,34.74568605,1020.561749
1.2450,43.21538858,34.8517556,1021.075776
1.2500,42.41162285,34.95807157,1021.599586
1.2550,41.60042736,35.06431502,1022.133658
1.2600,40.7818786,35.17129754,1022.677875
1.2650,39.95595042,35.27898411,1023.232084
1.2700,39.12311511,35.38764628,1023.796425
1.2750,38.28335554,35.49697609,1024.370728
1.2800,37.43586264,35.60797817,1024.955446
1.2850,36.58064259,35.7185911,1025.550448
1.2900,35.71954547,35.83023753,1026.155175
1.2950,34.85174302,35.94256393,1026.770427
1.3000,33.9765986,36.05639971,1027.396284
1.3050,33.09401069,36.17133626,1028.032785
1.3100,32.2067985,36.28930522,1028.679459
1.3150,31.31246557,36.40988241,1029.337247
1.3200,30.41201156,36.53312551,1030.005888
1.3250,29.50564196,36.6600359,1030.685595
1.3300,28.59271199,36.79032773,1031.376495
1.3350,27.67248225,36.92456602,1032.07912
1.3400,26.744841,37.06303016,1032.793736
1.3450,25.80997244,37.20628489,1033.520872
1.3500,24.8664017,37.35407044,1034.260989
1.3550,23.91474365,37.50539382,1035.014082
1.3600,22.9541449,37.66102192,1035.780872
1.3650,21.98353823,37.8214316,1036.562061
1.3700,21.00325171,37.98697248,1037.35796
1.3750,20.01353154,38.15641955,1038.168546
1.3800,19.01227234,38.32981099,1038.99472
1.3850,18.00097908,38.50765938,1039.836489
1.3900,16.97911845,38.68788284,1040.694075
1.3950,15.94692953,38.87178888,1041.56768
1.4000,14.90448799,39.05798536,1042.457507
1.4050,13.85108547,39.24733311,1043.364421
1.4100,12.78787603,39.43958085,1044.288058
1.4150,11.71411024,39.63576572,1045.228798
1.4200,10.6301931,39.833836,1046.186441
1.4250,9.536334055,40.0347729,1047.161078
1.4300,8.432469008,40.24007687,1048.153203
1.4350,7.319923015,40.4482481,1049.162368
1.4400,6.198822601,40.65971565,1050.187962
1.4450,5.068008797,40.87439068,1051.230566
1.4500,3.928417237,41.09211323,1052.289939
1.4550,2.781538201,41.31476703,1053.365569
1.4600,1.626066615,41.54093349,1054.457965
1.4650,0.4620608928,41.77079103,1055.567107
1.4700,-0.7100421003,42.00665048,1056.69301
1.4750,-1.891200129,42.24764457,1057.836251
1.4800,-3.079369402,42.49446991,1058.995575
1.4850,-4.275704111,42.74611878,1060.171597
1.4900,-5.478501349,43.00399512,1061.363973
1.4950,-6.687902945,43.26688907,1062.572534
1.5000,-7.902953699,43.53631487,1063.796694
1.5050,-9.122061974,43.81078754,1065.036022
1.5100,-10.34610913,44.09136225,1066.290348
1.5150,-11.57284194,44.37855485,1067.559574
1.5200,-12.80296049,44.67234812,1068.843896
1.5250,-14.03493306,44.9713031,1070.141633
1.5300,-15.26792232,45.27477209,1071.452801
1.5350,-16.50086911,45.5833341,1072.776702
1.5400,-17.73419577,45.89670133,1074.113935
1.5450,-18.96489766,46.21660555,1075.46373
1.5500,-20.19364698,46.54264311,1076.825741
1.5550,-21.4195902,46.87491667,1078.1996
1.5600,-22.6420602,47.21273117,1079.585112
1.5650,-23.86093094,47.55678668,1080.982181
1.5700,-25.07578347,47.90630589,1082.390432
1.5750,-26.28665644,48.26077374,1083.809841
1.5800,-27.49248196,48.62095167,1085.239591
1.5850,-28.69194805,48.98618267,1086.678927
1.5900,-29.88480199,49.35724786,1088.128195
1.5950,-31.07215584,49.73319257,1089.587334
1.6000,-32.25129978,50.11338158,1091.055696
1.6050,-33.42348695,50.49724926,1092.533461
1.6100,-34.58912488,50.88410404,1094.02063
1.6150,-35.74726906,51.2730214,1095.516918
1.6200,-36.89818505,51.66261983,1097.02282
1.6250,-38.04204397,52.05086793,1098.537117
1.6300,-39.17809509,52.43931673,1100.060546
1.6350,-40.3072787,52.8250584,1101.592655
1.6400,-41.42893139,53.20654252,1103.132715
1.6450,-42.54203453,53.5843927,1104.680097
1.6500,-43.6462305,53.95812001,1106.234927
1.6550,-44.74195758,54.32690954,1107.796762
1.6600,-45.8284624,54.69021016,1109.365062
1.6650,-46.90523999,55.04790999,1110.93919
1.6700,-47.97260239,55.39965443,1112.519206
1.6750,-49.02930305,55.74391525,1114.104228
1.6800,-50.07652364,56.08119158,1115.693937
1.6850,-51.11343562,56.41047292,1117.288107
1.6900,-52.14063728,56.73144228,1118.885876
1.6950,-53.15783306,57.04382443,1120.486907
1.7000,-54.16527946,57.34842639,1122.090896
1.7050,-55.16170094,57.64448565,1123.696263
1.7100,-56.14775135,57.93185182,1125.303281
1.7150,-57.12323147,58.21001034,1126.911176
1.7200,-58.08771396,58.48037832,1128.519557
1.7250,-59.04099518,58.74250085,1130.127988
1.7300,-59.9824967,58.99495897,1131.735551
1.7350,-60.91295379,59.23898685,1133.342741
1.7400,-61.83280586,59.47474736,1134.95003
1.7450,-62.74059249,59.70132843,1136.554776
1.7500,-63.63728605,59.9199801,1138.158191
1.7550,-64.52305168,60.12877759,1139.759283
1.7600,-65.39716185,60.32964046,1141.357236
1.7650,-66.26000118,60.52188516,1142.952391
1.7700,-67.11138062,60.7050068,1144.544348
1.7750,-67.9503014,60.88017499,1146.131954
1.7800,-68.77774395,61.04681213,1147.71569
1.7850,-69.59262619,61.20489254,1149.295445
1.7900,-70.39561002,61.35479762,1150.870758
1.7950,-71.18623758,61.49576074,1152.44135
1.8000,-71.96474732,61.62842678,1154.007595
1.8050,-72.73084077,61.75318248,1155.568922
1.8100,-73.48395353,61.86969092,1157.125381
1.8150,-74.22473323,61.9783054,1158.676098
1.8200,-74.95273971,62.07749335,1160.221093
1.8250,-75.66757187,62.16930777,1161.761242
1.8300,-76.3701501,62.25142874,1163.295517
1.8350,-77.05992952,62.32669224,1164.824702
1.8400,-77.73753489,62.39406736,1166.348368
1.8450,-78.40408736,62.45247942,1167.86668
1.8500,-79.05934128,62.50217116,1169.380337
1.8550,-79.70351912,62.54271756,1170.889313
1.8600,-80.33627672,62.57453709,1172.392632
1.8650,-80.95810894,62.59881491,1173.891042
1.8700,-81.56950028,62.61464646,1175.384403
1.8750,-82.17061727,62.62316991,1176.872793
1.8800,-82.76155722,62.62362849,1178.35643
1.8850,-83.34368925,62.61776463,1179.8366
1.8900,-83.91622535,62.60548789,1181.312961
1.8950,-84.47971886,62.58685629,1182.785469
1.9000,-85.03526903,62.56219704,1184.255478
1.9050,-85.58168199,62.53211242,1185.722684
1.9100,-86.1196304,62.49642123,1187.188109
1.9150,-86.64977113,62.45612521,1188.65135
1.9200,-87.17261633,62.41081127,1190.112344
1.9250,-87.68795453,62.36257047,1191.572918
1.9300,-88.1959359,62.30946122,1193.032618
1.9350,-88.69683902,62.25302049,1194.492463
1.9400,-89.18966612,62.19284076,1195.95269
1.9450,-89.67688551,62.12779607,1197.413707
1.9500,-90.15828886,62.05795411,1198.876117
1.9550,-90.6334035,61.9843691,1200.339778
1.9600,-91.10285217,61.9072034,1201.805485
1.9650,-91.56507358,61.82653197,1203.272801
1.9700,-92.02046927,61.74197998,1204.742243
1.9750,-92.46931451,61.65414209,1206.213881
1.9800,-92.90951889,61.56303887,1207.687652
1.9850,-93.34285599,61.4679677,1209.164234
1.9900,-93.76814385,61.36999863,1210.643906
1.9950,-94.18582398,61.26859215,1212.126497
2.0000,-94.59532002,61.16375821,1213.611802
2.0050,-94.9964809,61.05627636,1215.100746
2.0100,-95.38901076,60.94743871,1216.592867
2.0150,-95.77240947,60.83585201,1218.088255
2.0200,-96.14565072,60.72289591,1219.586827
2.0250,-96.50894892,60.60951272,1221.088829
2.0300,-96.86259388,60.49578985,1222.5946
2.0350,-97.20595584,60.38167776,1224.103678
2.0400,-97.5383884,60.2673973,1225.616377
2.0450,-97.8607546,60.15295259,1227.134708
2.0500,-98.17292237,60.03748564,1228.657705
2.0550,-98.4754423,59.92222625,1230.186454
2.0600,-98.76915863,59.80583968,1231.720974
2.0650,-99.05326249,59.6881752,1233.261007
2.0700,-99.32829427,59.56990058,1234.806272
2.0750,-99.59562683,59.44956044,1236.358082
2.0800,-99.85518948,59.32858512,1237.916299
2.0850,-100.1071333,59.2056065,1239.480628
2.0900,-100.3536503,59.08028885,1241.051561
2.0950,-100.5945095,58.95364081,1242.62933
2.1000,-100.8306003,58.8251279,1244.213619
2.1050,-101.0621755,58.69449269,1245.803909
2.1100,-101.2901695,58.56166392,1247.401465
2.1150,-101.5139842,58.42671967,1249.005628
2.1200,-101.7353142,58.29060011,1250.61639
2.1250,-101.954824,58.15279351,1252.23447
2.1300,-102.1720223,58.01463999,1253.85974
2.1350,-102.3874754,57.87423139,1255.492007
2.1400,-102.6023694,57.73314074,1257.131833
2.1450,-102.8162762,57.591364,1258.778018
2.1500,-103.029033,57.44915095,1260.43046
2.1550,-103.2414294,57.30743183,1262.089025
2.1600,-103.4530079,57.16740535,1263.754599
2.1650,-103.6634814,57.02761817,1265.426866
2.1700,-103.8734192,56.8891315,1267.105512
2.1750,-104.0807562,56.7531149,1268.790621
2.1800,-104.2862124,56.61878868,1270.482071
2.1850,-104.4886799,56.48585704,1272.178872
2.1900,-104.6894153,56.35505397,1273.881578
2.1950,-104.8863822,56.22637775,1275.590304
2.2000,-105.0799338,56.1002242,1277.304039
2.2050,-105.2707122,55.97550974,1279.022734
2.2100,-105.4589277,55.85285611,1280.745986
2.2150,-105.6440621,55.73284941,1282.475124
2.2200,-105.826108,55.61558497,1284.209548
2.2250,-106.0052286,55.49939879,1285.948363
2.2300,-106.1810374,55.38453456,1287.691009
2.2350,-106.352602,55.27031501,1289.436673
2.2400,-106.5210323,55.15971209,1291.185221
2.2450,-106.6848257,55.05120672,1292.937339
2.2500,-106.8453965,54.94590434,1294.692083
2.2550,-107.0020833,54.84334251,1296.448776
2.2600,-107.1551237,54.7423279,1298.20678
2.2650,-107.3053335,54.64375403,1299.965865
2.2700,-107.451557,54.54940818,1301.725421
2.2750,-107.5943357,54.45835884,1303.485956
2.2800,-107.7328071,54.37205667,1305.246792
2.2850,-107.8657217,54.29113223,1307.007085
2.2900,-107.9924409,54.21560299,1308.766044
2.2950,-108.1126851,54.14583428,1310.523759
2.3000,-108.2266238,54.08037982,1312.280202
