type,name,time_units,begin_time,frequency,count,units
signal,"Noraxon MyoMotion-Segments-Forearm RT-Roll","s",0.0000,200,4916,"deg"

time,value
0.0000,1.452098702
0.0050,1.450885262
0.0100,1.44967194
0.0150,1.448458735
0.0200,1.447213904
0.0250,1.445960123
0.0300,1.444722282
0.0350,1.443525912
0.0400,1.442396093
0.0450,1.44135675
0.0500,1.440430164
0.0550,1.439636494
0.0600,1.438993101
0.0650,1.438513965
0.0700,1.438209797
0.0750,1.438088891
0.0800,1.438158072
0.0850,1.43842321
0.0900,1.438889278
0.0950,1.439560037
0.1000,1.440437317
0.1050,1.441519798
0.1100,1.442801657
0.1150,1.4442719
0.1200,1.445914884
0.1250,1.44771135
0.1300,1.449638961
0.1350,1.451672491
0.1400,1.453784406
0.1450,1.455945859
0.1500,1.45812763
0.1550,1.461741085
0.1600,1.46548313
0.1650,1.46924567
0.1700,1.472841219
0.1750,1.476686531
0.1800,1.480516315
0.1850,1.484306508
0.1900,1.488047359
0.1950,1.491791054
0.2000,1.495435113
0.2050,1.499081278
0.2100,1.502615258
0.2150,1.506077642
0.2200,1.50940713
0.2250,1.512738387
0.2300,1.515831881
0.2350,1.518964728
0.2400,1.521982148
0.2450,1.525037376
0.2500,1.52814006
0.2550,1.531114397
0.2600,1.534093767
0.2650,1.536944663
0.2700,1.5397434
0.2750,1.542565829
0.2800,1.545390397
0.2850,1.548329653
0.2900,1.55135764
0.2950,1.554512793
0.3000,1.557813929
0.3050,1.561380011
0.3100,1.565051456
0.3150,1.568844815
0.3200,1.57283178
0.3250,1.577116083
0.3300,1.581568494
0.3350,1.586183864
0.3400,1.590994865
0.3450,1.595974278
0.3500,1.601121534
0.3550,1.606255161
0.3600,1.611594519
0.3650,1.616956706
0.3700,1.622652083
0.3750,1.62841986
0.3800,1.634304367
0.3850,1.64016397
0.3900,1.64608336
0.3950,1.652007518
0.4000,1.657744025
0.4050,1.663349765
0.4100,1.668714177
0.4150,1.674006671
0.4200,1.679136954
0.4250,1.684201678
0.4300,1.689195208
0.4350,1.694115216
0.4400,1.698939221
0.4450,1.703716992
0.4500,1.708448429
0.4550,1.713209829
0.4600,1.717941491
0.4650,1.722687832
0.4700,1.727580639
0.4750,1.732235589
0.4800,1.736986752
0.4850,1.741773975
0.4900,1.746508302
0.4950,1.751305132
0.5000,1.756073763
0.5050,1.760926339
0.5100,1.76588297
0.5150,1.770993392
0.5200,1.776225953
0.5250,1.781755238
0.5300,1.787865327
0.5350,1.794458753
0.5400,1.801915757
0.5450,1.810159475
0.5500,1.819314649
0.5550,1.829626552
0.5600,1.84115604
0.5650,1.853889646
0.5700,1.86770728
0.5750,1.882654952
0.5800,1.89903295
0.5850,1.916572785
0.5900,1.935310117
0.5950,1.955389071
0.6000,1.976987083
0.6050,2.00004047
0.6100,2.024623842
0.6150,2.050848661
0.6200,2.078852676
0.6250,2.108527634
0.6300,2.140163961
0.6350,2.173632288
0.6400,2.209039691
0.6450,2.246338796
0.6500,2.285572572
0.6550,2.326724648
0.6600,2.369694347
0.6650,2.414618318
0.6700,2.461230373
0.6750,2.5097185
0.6800,2.559917225
0.6850,2.612014867
0.6900,2.665763709
0.6950,2.721035179
0.7000,2.777856316
0.7050,2.835798848
0.7100,2.895031377
0.7150,2.955140318
0.7200,3.016068373
0.7250,3.077737093
0.7300,3.139862128
0.7350,3.202629565
0.7400,3.265698246
0.7450,3.329294099
0.7500,3.39312112
0.7550,3.457270043
0.7600,3.521650303
0.7650,3.586338359
0.7700,3.651447483
0.7750,3.717092444
0.7800,3.783050427
0.7850,3.84942715
0.7900,3.916429961
0.7950,3.983950885
0.8000,4.052231896
0.8050,4.121164149
0.8100,4.190837522
0.8150,4.261422245
0.8200,4.332961844
0.8250,4.405284633
0.8300,4.47844649
0.8350,4.552555864
0.8400,4.627243251
0.8450,4.702663002
0.8500,4.778883417
0.8550,4.855789354
0.8600,4.933242871
0.8650,5.011415748
0.8700,5.090337127
0.8750,5.170141058
0.8800,5.250815319
0.8850,5.332416113
0.8900,5.414956465
0.8950,5.498406283
0.9000,5.582678905
0.9050,5.667606919
0.9100,5.753318463
0.9150,5.839621445
0.9200,5.926404315
0.9250,6.013743015
0.9300,6.101537417
0.9350,6.189780484
0.9400,6.278510559
0.9450,6.367684299
0.9500,6.457234144
0.9550,6.547182896
0.9600,6.637465007
0.9650,6.728165672
0.9700,6.819293893
0.9750,6.910583131
0.9800,7.002130947
0.9850,7.093693767
0.9900,7.185579557
0.9950,7.277380456
1.0000,7.369068513
1.0050,7.460696959
1.0100,7.552342869
1.0150,7.643957946
1.0200,7.735712077
1.0250,7.82770943
1.0300,7.920187417
1.0350,8.01304166
1.0400,8.106632962
1.0450,8.200775026
1.0500,8.295696926
1.0550,8.391415078
1.0600,8.488025176
1.0650,8.585453965
1.0700,8.683788011
1.0750,8.783043072
1.0800,8.883460657
1.0850,8.985117199
1.0900,9.088122159
1.0950,9.192571983
1.1000,9.29852928
1.1050,9.406081411
1.1100,9.515371408
1.1150,9.626231758
1.1200,9.738735391
1.1250,9.852974132
1.1300,9.968956952
1.1350,10.08660007
1.1400,10.20620391
1.1450,10.32770395
1.1500,10.45082762
1.1550,10.57598151
1.1600,10.70328766
1.1650,10.83268339
1.1700,10.96445619
1.1750,11.09842725
1.1800,11.2347912
1.1850,11.37357695
1.1900,11.51506265
1.1950,11.65915216
1.2000,11.80615795
1.2050,11.95612367
1.2100,12.10922476
1.2150,12.26544792
1.2200,12.42493965
1.2250,12.58771672
1.2300,12.75373623
1.2350,12.92314123
1.2400,13.09567814
1.2450,13.27141359
1.2500,13.45028981
1.2550,13.63227165
1.2600,13.81723441
1.2650,14.0048718
1.2700,14.1953719
1.2750,14.38858905
1.2800,14.5843946
1.2850,14.78298434
1.2900,14.98383031
1.2950,15.18739646
1.3000,15.39365255
1.3050,15.60255754
1.3100,15.81380562
1.3150,16.02751221
1.3200,16.24358694
1.3250,16.46187964
1.3300,16.6822866
1.3350,16.9049872
1.3400,17.12995195
1.3450,17.35742575
1.3500,17.58725961
1.3550,17.81954771
1.3600,18.05444497
1.3650,18.29210274
1.3700,18.53236578
1.3750,18.77537239
1.3800,19.02118744
1.3850,19.26981697
1.3900,19.52142608
1.3950,19.77591631
1.4000,20.03337398
1.4050,20.29405296
1.4100,20.55788459
1.4150,20.82483948
1.4200,21.09514686
1.4250,21.36863704
1.4300,21.64516933
1.4350,21.92486904
1.4400,22.20733619
1.4450,22.49276028
1.4500,22.78130309
1.4550,23.07270953
1.4600,23.36711061
1.4650,23.66448047
1.4700,23.96452887
1.4750,24.2675441
1.4800,24.57308246
1.4850,24.88151146
1.4900,25.19252955
1.4950,25.50623815
1.5000,25.82220987
1.5050,26.14059172
1.5100,26.46132418
1.5150,26.78441703
1.5200,27.10984678
1.5250,27.43728719
1.5300,27.76669781
1.5350,28.09792157
1.5400,28.43131818
1.5450,28.76659541
1.5500,29.1036591
1.5550,29.44250912
1.5600,29.78321824
1.5650,30.12569436
1.5700,30.46989229
1.5750,30.81595656
1.5800,31.16355126
1.5850,31.5123575
1.5900,31.86263926
1.5950,32.21419755
1.6000,32.5670383
1.6050,32.921224
1.6100,33.27695466
1.6150,33.63437662
1.6200,33.99376346
1.6250,34.35512215
1.6300,34.71861024
1.6350,35.08407811
1.6400,35.45158078
1.6450,35.82091663
1.6500,36.19235957
1.6550,36.56599038
1.6600,36.94149032
1.6650,37.3190118
1.6700,37.69866889
1.6750,38.08033792
1.6800,38.46400719
1.6850,38.84971179
1.6900,39.23734228
1.6950,39.62670197
1.7000,40.01780022
1.7050,40.41035295
1.7100,40.80445514
1.7150,41.20015352
1.7200,41.5971406
1.7250,41.99543932
1.7300,42.39480165
1.7350,42.79534491
1.7400,43.19746849
1.7450,43.60027656
1.7500,44.00415786
1.7550,44.40888423
1.7600,44.81423863
1.7650,45.22048612
1.7700,45.6277716
1.7750,46.03566266
1.7800,46.44443672
1.7850,46.85388188
1.7900,47.26401592
1.7950,47.67474549
1.8000,48.08623669
1.8050,48.49836774
1.8100,48.91096058
1.8150,49.32402808
1.8200,49.73753344
1.8250,50.15174309
1.8300,50.56629603
1.8350,50.98142497
1.8400,51.39698566
1.8450,51.81319171
1.8500,52.23022689
1.8550,52.64814319
1.8600,53.06653066
1.8650,53.48562259
1.8700,53.90528289
1.8750,54.32547413
1.8800,54.74648557
1.8850,55.16862653
1.8900,55.59201887
1.8950,56.0166389
1.9000,56.44292358
1.9050,56.87088189
1.9100,57.3007389
1.9150,57.73214681
1.9200,58.16496726
1.9250,58.59980739
1.9300,59.03661187
1.9350,59.47575146
1.9400,59.91751539
1.9450,60.3618764
1.9500,60.80935811
1.9550,61.25974583
1.9600,61.71351011
1.9650,62.17041808
1.9700,62.63065118
1.9750,63.09438234
1.9800,63.56176508
1.9850,64.0330714
1.9900,64.50843183
1.9950,64.98799252
2.0000,65.47165412
2.0050,65.95967796
2.0100,66.45174609
2.0150,66.94792431
2.0200,67.44819006
2.0250,67.95254183
2.0300,68.46121066
2.0350,68.97400737
2.0400,69.49102122
2.0450,70.01298405
2.0500,70.53943984
2.0550,71.07070044
2.0600,71.60683428
2.0650,72.14769732
2.0700,72.6933044
2.0750,73.24407759
2.0800,73.80002561
2.0850,74.36114785
2.0900,74.92738636
2.0950,75.49875207
2.1000,76.07503525
2.1050,76.65604311
2.1100,77.24219807
2.1150,77.83329298
2.1200,78.42915638
2.1250,79.02996974
2.1300,79.63564744
2.1350,80.24608759
2.1400,80.86116857
2.1450,81.48034675
2.1500,82.1035287
2.1550,82.73043772
2.1600,83.3613758
2.1650,83.99623195
2.1700,84.63467576
2.1750,85.27683651
2.1800,85.92254079
2.1850,86.57147924
2.1900,87.22364544
2.1950,87.87932893
2.2000,88.53806129
2.2050,89.19980367
2.2100,89.86428938
2.2150,90.53203335
2.2200,91.20274159
2.2250,91.87604227
2.2300,92.5516379
2.2350,93.2293299
2.2400,93.90864806
2.2450,94.58999394
2.2500,95.27271107
2.2550,95.95656
2.2600,96.64125374
2.2650,97.326445
2.2700,98.01178612
2.2750,98.69741856
2.2800,99.38297692
2.2850,100.0681917
2.2900,100.752793
2.2950,101.4366759
2.3000,102.11983
2.3050,102.8014481
2.3100,103.481746
2.3150,104.1604487
2.3200,104.837293
2.3250,105.512289
2.3300,106.1851638
2.3350,106.8554307
2.3400,107.5227518
2.3450,108.1870734
2.3500,108.8479487
2.3550,109.5053655
2.3600,110.1591326
2.3650,110.8088189
2.3700,111.4549637
2.3750,112.0967699
2.3800,112.7344646
2.3850,113.3674789
2.3900,113.9959669
2.3950,114.6196064
2.4000,115.2381532
2.4050,115.8519101
2.4100,116.4604771
2.4150,117.0640316
2.4200,117.662505
2.4250,118.2558188
2.4300,118.8443272
2.4350,119.4279582
2.4400,120.00647
2.4450,120.5798244
2.4500,121.1477178
2.4550,121.7098678
2.4600,122.2661559
2.4650,122.8161067
2.4700,123.3598129
2.4750,123.8969901
2.4800,124.4275579
2.4850,124.9510999
2.4900,125.4675585
2.4950,125.9769224
2.5000,126.4795745
2.5050,126.9758446
2.5100,127.4659472
2.5150,127.9499597
2.5200,128.4279493
2.5250,128.8999936
2.5300,129.3659593
2.5350,129.8261337
2.5400,130.2808531
2.5450,130.7298013
2.5500,131.1732917
2.5550,131.6110375
2.5600,132.0430501
2.5650,132.4696611
2.5700,132.8907089
2.5750,133.3058775
2.5800,133.7151925
2.5850,134.1184346
2.5900,134.5156391
2.5950,134.906913
2.6000,135.2924636
2.6050,135.6727212
2.6100,136.0474307
2.6150,136.4172526
2.6200,136.7824771
2.6250,137.1432608
2.6300,137.499901
2.6350,137.852682
2.6400,138.2021253
2.6450,138.5482302
2.6500,138.89107
2.6550,139.2308439
2.6600,139.5676692
2.6650,139.9016156
2.6700,140.2325746
2.6750,140.5604336
2.6800,140.8852
2.6850,141.2068782
2.6900,141.5250313
2.6950,141.8399215
2.7000,142.1516992
2.7050,142.4604128
2.7100,142.7662465
2.7150,143.0694011
2.7200,143.3704221
2.7250,143.668944
2.7300,143.9649059
2.7350,144.2578679
2.7400,144.5479979
2.7450,144.8353645
2.7500,145.1200635
2.7550,145.4027115
2.7600,145.6834983
2.7650,145.96283
2.7700,146.2404589
2.7750,146.5167907
2.7800,146.7918291
2.7850,147.0660802
2.7900,147.3395737
2.7950,147.612016
2.8000,147.8832018
2.8050,148.1526802
2.8100,148.4204398
2.8150,148.6861888
2.8200,148.9501755
2.8250,149.2123418
2.8300,149.4731779
2.8350,149.73301
2.8400,149.9922781
2.8450,150.2511461
2.8500,150.5095373
2.8550,150.7675641
2.8600,151.0252756
2.8650,151.2823626
2.8700,151.5387047
2.8750,151.7942745
2.8800,152.0490567
2.8850,152.3031049
2.8900,152.5563807
2.8950,152.808883
2.9000,153.0608056
2.9050,153.3119441
2.9100,153.5622035
2.9150,153.8113028
2.9200,154.0593246
2.9250,154.3060576
2.9300,154.5515377
2.9350,154.7956865
2.9400,155.0384479
2.9450,155.2795691
2.9500,155.5194498
2.9550,155.7579759
2.9600,155.9948285
2.9650,156.2305824
2.9700,156.4649234
2.9750,156.6981306
2.9800,156.9299519
2.9850,157.1602755
2.9900,157.3896053
2.9950,157.6176155
3.0000,157.8439832
3.0050,158.0685575
3.0100,158.2911407
3.0150,158.5121747
3.0200,158.7312343
3.0250,158.9483983
3.0300,159.1637567
3.0350,159.377606
3.0400,159.589688
3.0450,159.8001678
3.0500,160.0092906
3.0550,160.2169177
3.0600,160.4228989
3.0650,160.6273255
3.0700,160.8301127
3.0750,161.0312081
3.0800,161.2306935
3.0850,161.4284514
3.0900,161.6242331
3.0950,161.8183717
3.1000,162.0108101
3.1050,162.2018742
3.1100,162.3916163
3.1150,162.580022
3.1200,162.7671188
3.1250,162.953073
3.1300,163.1376413
3.1350,163.3206846
3.1400,163.5022236
3.1450,163.6823616
3.1500,163.8614749
3.1550,164.039589
3.1600,164.2165548
3.1650,164.3925764
3.1700,164.5676046
3.1750,164.7414386
3.1800,164.9139061
3.1850,165.0849648
3.1900,165.2544245
3.1950,165.4222807
3.2000,165.5879826
3.2050,165.7516331
3.2100,165.9135268
3.2150,166.0735408
3.2200,166.2315755
3.2250,166.3877052
3.2300,166.5419216
3.2350,166.6943855
3.2400,166.845213
3.2450,166.9946316
3.2500,167.1425301
3.2550,167.2889309
3.2600,167.4341503
3.2650,167.5777741
3.2700,167.7199887
3.2750,167.8609522
3.2800,168.0006254
3.2850,168.1392853
3.2900,168.2766281
3.2950,168.4128463
3.3000,168.5479253
3.3050,168.6819621
3.3100,168.814959
3.3150,168.9464496
3.3200,169.0766155
3.3250,169.2055382
3.3300,169.3330053
3.3350,169.45932
3.3400,169.5844789
3.3450,169.7088274
3.3500,169.832228
3.3550,169.9549306
3.3600,170.0768784
3.3650,170.1980915
3.3700,170.3189764
3.3750,170.4393554
3.3800,170.5591925
3.3850,170.6785289
3.3900,170.7974944
3.3950,170.9158422
3.4000,171.0335309
3.4050,171.1500694
3.4100,171.265434
3.4150,171.3796169
3.4200,171.4926586
3.4250,171.6043998
3.4300,171.7146943
3.4350,171.8232207
3.4400,171.929635
3.4450,172.0340099
3.4500,172.1358978
3.4550,172.2352223
3.4600,172.3319157
3.4650,172.4259153
3.4700,172.5172918
3.4750,172.6060908
3.4800,172.692472
3.4850,172.7765052
3.4900,172.8581493
3.4950,172.9375699
3.5000,173.0149937
3.5050,173.0904882
3.5100,173.1638956
3.5150,173.235246
3.5200,173.3047679
3.5250,173.3726108
3.5300,173.4388604
3.5350,173.5034712
3.5400,173.566436
3.5450,173.6280461
3.5500,173.6881075
3.5550,173.7466254
3.5600,173.8036881
3.5650,173.8596321
3.5700,173.914512
3.5750,173.9682927
3.5800,174.0212587
3.5850,174.0734501
3.5900,174.1251075
3.5950,174.1763763
3.6000,174.2274407
3.6050,174.2784058
3.6100,174.3293523
3.6150,174.3807349
3.6200,174.4326321
3.6250,174.4852284
3.6300,174.5385485
3.6350,174.5924469
3.6400,174.6472042
3.6450,174.7025587
3.6500,174.7586497
3.6550,174.8152687
3.6600,174.8724263
3.6650,174.9300513
3.6700,174.9876947
3.6750,175.0454065
3.6800,175.102977
3.6850,175.1603114
3.6900,175.2171432
3.6950,175.2734366
3.7000,175.3289182
3.7050,175.3836767
3.7100,175.4374336
3.7150,175.4901521
3.7200,175.5416003
3.7250,175.5917233
3.7300,175.6402589
3.7350,175.6873853
3.7400,175.733091
3.7450,175.7769896
3.7500,175.8193225
3.7550,175.8601546
3.7600,175.8994792
3.7650,175.9373903
3.7700,175.9737702
3.7750,176.0086784
3.7800,176.0421008
3.7850,176.0738282
3.7900,176.1041219
3.7950,176.1329746
3.8000,176.1602755
3.8050,176.1859172
3.8100,176.2101146
3.8150,176.2328117
3.8200,176.2541976
3.8250,176.2739531
3.8300,176.2920955
3.8350,176.308575
3.8400,176.3233616
3.8450,176.3364348
3.8500,176.3479621
3.8550,176.3580593
3.8600,176.366661
3.8650,176.3736601
3.8700,176.3791042
3.8750,176.3832165
3.8800,176.3862442
3.8850,176.3881493
3.8900,176.3888522
3.8950,176.3884041
3.9000,176.3868242
3.9050,176.3843304
3.9100,176.3808895
3.9150,176.3763528
3.9200,176.3708643
3.9250,176.364267
3.9300,176.3566313
3.9350,176.3477902
3.9400,176.3375567
3.9450,176.3259164
3.9500,176.312911
3.9550,176.2981972
3.9600,176.2818293
3.9650,176.2637583
3.9700,176.2438355
3.9750,176.2219245
3.9800,176.1978908
3.9850,176.1715161
3.9900,176.1428331
3.9950,176.1117092
4.0000,176.0782566
4.0050,176.042221
4.0100,176.0038014
4.0150,175.9626393
4.0200,175.918769
4.0250,175.8719565
4.0300,175.822482
4.0350,175.7701015
4.0400,175.7146889
4.0450,175.65622
4.0500,175.594615
4.0550,175.5297846
4.0600,175.4618666
4.0650,175.3907372
4.0700,175.3163843
4.0750,175.2388565
4.0800,175.1581784
4.0850,175.0743294
4.0900,174.9872633
4.0950,174.8969257
4.1000,174.8033991
4.1050,174.7068441
4.1100,174.6072375
4.1150,174.5048381
4.1200,174.3992556
4.1250,174.2909937
4.1300,174.1801666
4.1350,174.0669853
4.1400,173.9515168
4.1450,173.8337947
4.1500,173.714013
4.1550,173.5921721
4.1600,173.4685433
4.1650,173.3430294
4.1700,173.2157714
4.1750,173.0867565
4.1800,172.9558274
4.1850,172.8230215
4.1900,172.6885366
4.1950,172.552414
4.2000,172.4148853
4.2050,172.2758625
4.2100,172.1356018
4.2150,171.9942917
4.2200,171.8517952
4.2250,171.7082338
4.2300,171.5637289
4.2350,171.418349
4.2400,171.2720674
4.2450,171.124797
4.2500,170.9764329
4.2550,170.8271565
4.2600,170.6771392
4.2650,170.5261897
4.2700,170.3744358
4.2750,170.2217412
4.2800,170.0681272
4.2850,169.9136471
4.2900,169.7583331
4.2950,169.6022116
4.3000,169.4449321
4.3050,169.2865835
4.3100,169.126843
4.3150,168.9657986
4.3200,168.8034238
4.3250,168.6398951
4.3300,168.4748061
4.3350,168.3082403
4.3400,168.1402521
4.3450,167.9710827
4.3500,167.8005994
4.3550,167.6287423
4.3600,167.4554526
4.3650,167.2806839
4.3700,167.10461
4.3750,166.9271101
4.3800,166.7480744
4.3850,166.567757
4.3900,166.3862062
4.3950,166.2034485
4.4000,166.0194895
4.4050,165.8344189
4.4100,165.6481907
4.4150,165.4607078
4.4200,165.2721232
4.4250,165.0824051
4.4300,164.8916018
4.4350,164.6997149
4.4400,164.5068882
4.4450,164.3131319
4.4500,164.1185044
4.4550,163.9231706
4.4600,163.7270674
4.4650,163.5303537
4.4700,163.3329388
4.4750,163.1348843
4.4800,162.9362334
4.4850,162.737029
4.4900,162.5372016
4.4950,162.3369307
4.5000,162.1361082
4.5050,161.9347767
4.5100,161.7329946
4.5150,161.5303228
4.5200,161.327075
4.5250,161.1230634
4.5300,160.9181001
4.5350,160.7125041
4.5400,160.5061682
4.5450,160.2991778
4.5500,160.091651
4.5550,159.8834602
4.5600,159.6744247
4.5650,159.4645115
4.5700,159.2538015
4.5750,159.0424684
4.5800,158.8306369
4.5850,158.6182705
4.5900,158.4051887
4.5950,158.1912037
4.6000,157.9766615
4.6050,157.7616035
4.6100,157.5460327
4.6150,157.330015
4.6200,157.1134632
4.6250,156.8961546
4.6300,156.6783315
4.6350,156.4598297
4.6400,156.2405198
4.6450,156.0202286
4.6500,155.7987451
4.6550,155.5763912
4.6600,155.352989
4.6650,155.1283301
4.6700,154.9023197
4.6750,154.6748567
4.6800,154.4460838
4.6850,154.2156989
4.6900,153.9835999
4.6950,153.7497299
4.7000,153.5138788
4.7050,153.2760949
4.7100,153.0360433
4.7150,152.7937917
4.7200,152.5492965
4.7250,152.3023689
4.7300,152.0527365
4.7350,151.8002966
4.7400,151.5449015
4.7450,151.2865724
4.7500,151.0251614
4.7550,150.7604646
4.7600,150.492653
4.7650,150.2214763
4.7700,149.9471618
4.7750,149.6695369
4.7800,149.3884801
4.7850,149.104463
4.7900,148.8176647
4.7950,148.5278834
4.8000,148.2352379
4.8050,147.939618
4.8100,147.6409046
4.8150,147.339576
4.8200,147.0357539
4.8250,146.7294447
4.8300,146.4209875
4.8350,146.1099314
4.8400,145.7965763
4.8450,145.480891
4.8500,145.1627082
4.8550,144.8422214
4.8600,144.5196943
4.8650,144.1950047
4.8700,143.8681292
4.8750,143.5390529
4.8800,143.2076415
4.8850,142.8739555
4.8900,142.5378702
4.8950,142.1993869
4.9000,141.8581132
4.9050,141.5143015
4.9100,141.1675741
4.9150,140.8177449
4.9200,140.4643715
4.9250,140.1078756
4.9300,139.7480369
4.9350,139.3848808
4.9400,139.0186894
4.9450,138.6490497
4.9500,138.2763271
4.9550,137.8999083
4.9600,137.5196097
4.9650,137.135302
4.9700,136.7472561
4.9750,136.3551008
4.9800,135.9585647
4.9850,135.5577732
4.9900,135.1524383
4.9950,134.7426808
5.0000,134.3283087
5.0050,133.9091585
5.0100,133.4855194
5.0150,133.0572235
5.0200,132.6243197
5.0250,132.1866239
5.0300,131.7441758
5.0350,131.2970138
5.0400,130.8451577
5.0450,130.3884678
5.0500,129.9267428
5.0550,129.4600319
5.0600,128.9880952
5.0650,128.5111217
5.0700,128.0292555
5.0750,127.5426679
5.0800,127.0514341
5.0850,126.5552988
5.0900,126.0542406
5.0950,125.5485487
5.1000,125.0383283
5.1050,124.5235213
5.1100,124.0036343
5.1150,123.4788602
5.1200,122.9486406
5.1250,122.4137996
5.1300,121.8736761
5.1350,121.3286401
5.1400,120.778768
5.1450,120.2243469
5.1500,119.6651753
5.1550,119.1015224
5.1600,118.5332668
5.1650,117.9608275
5.1700,117.3842556
5.1750,116.8035327
5.1800,116.2187598
5.1850,115.6297515
5.1900,115.0369832
5.1950,114.4410142
5.2000,113.8425148
5.2050,113.241284
5.2100,112.6378357
5.2150,112.0323243
5.2200,111.42533
5.2250,110.8162298
5.2300,110.2055536
5.2350,109.5932676
5.2400,108.9791935
5.2450,108.3636432
5.2500,107.7467173
5.2550,107.1288442
