type,name,time_units,begin_time,frequency,count,units
signal,"Noraxon MyoMotion-Segments-Forearm RT-Pitch","s",0.0000,200,4916,"deg"

time,value
0.0000,10.54115235
0.0050,10.54060269
0.0100,10.54005278
0.0150,10.53950263
0.0200,10.5389305
0.0250,10.53834369
0.0300,10.5377501
0.0350,10.53715819
0.0400,10.53657663
0.0450,10.53601404
0.0500,10.53547931
0.0550,10.53498236
0.0600,10.53453418
0.0650,10.53414614
0.0700,10.53382984
0.0750,10.53359774
0.0800,10.53346361
0.0850,10.53344191
0.0900,10.53354598
0.0950,10.5337863
0.1000,10.53416994
0.1050,10.53470097
0.1100,10.53538106
0.1150,10.5362095
0.1200,10.53718354
0.1250,10.538299
0.1300,10.53955104
0.1350,10.54093487
0.1400,10.54244604
0.1450,10.54408001
0.1500,10.54583117
0.1550,10.54725634
0.1600,10.5487537
0.1650,10.55023329
0.1700,10.55169836
0.1750,10.55313616
0.1800,10.55446878
0.1850,10.55567946
0.1900,10.55681016
0.1950,10.55772061
0.2000,10.55832219
0.2050,10.55872595
0.2100,10.55884102
0.2150,10.55881355
0.2200,10.55836823
0.2250,10.55763649
0.2300,10.5567271
0.2350,10.55559164
0.2400,10.55424849
0.2450,10.55258567
0.2500,10.55060526
0.2550,10.54825307
0.2600,10.54570437
0.2650,10.54273887
0.2700,10.53960397
0.2750,10.53607702
0.2800,10.53234636
0.2850,10.52843245
0.2900,10.5243733
0.2950,10.52027392
0.3000,10.51606292
0.3050,10.51187108
0.3100,10.50775035
0.3150,10.50356641
0.3200,10.49934476
0.3250,10.49520364
0.3300,10.49103013
0.3350,10.48685853
0.3400,10.48271932
0.3450,10.47870962
0.3500,10.47486049
0.3550,10.47129067
0.3600,10.4679821
0.3650,10.46494519
0.3700,10.46215052
0.3750,10.45967404
0.3800,10.45741564
0.3850,10.45538101
0.3900,10.45359036
0.3950,10.45202342
0.4000,10.4506734
0.4050,10.44940976
0.4100,10.44821917
0.4150,10.44710964
0.4200,10.44614983
0.4250,10.44510692
0.4300,10.4440253
0.4350,10.44302498
0.4400,10.44196958
0.4450,10.44073712
0.4500,10.43954513
0.4550,10.43832203
0.4600,10.437153
0.4650,10.43598138
0.4700,10.4348917
0.4750,10.43382902
0.4800,10.43274739
0.4850,10.43168339
0.4900,10.43056673
0.4950,10.42956718
0.5000,10.42853786
0.5050,10.42757031
0.5100,10.42665776
0.5150,10.42563761
0.5200,10.42480595
0.5250,10.42412596
0.5300,10.42351467
0.5350,10.42333033
0.5400,10.42352748
0.5450,10.42434332
0.5500,10.42570358
0.5550,10.42772303
0.5600,10.430419
0.5650,10.43385822
0.5700,10.4380462
0.5750,10.44304087
0.5800,10.44883388
0.5850,10.45543766
0.5900,10.46280011
0.5950,10.47087262
0.6000,10.47979946
0.6050,10.48950512
0.6100,10.50015728
0.6150,10.51165141
0.6200,10.5242164
0.6250,10.53795908
0.6300,10.5529123
0.6350,10.56912883
0.6400,10.58669069
0.6450,10.60556304
0.6500,10.62584866
0.6550,10.64732809
0.6600,10.67012303
0.6650,10.69423443
0.6700,10.71969588
0.6750,10.74646426
0.6800,10.774607
0.6850,10.80410008
0.6900,10.83490995
0.6950,10.86694612
0.7000,10.90035886
0.7050,10.93508561
0.7100,10.9710191
0.7150,11.00823155
0.7200,11.04656685
0.7250,11.08600054
0.7300,11.12645402
0.7350,11.16782846
0.7400,11.21028533
0.7450,11.25391298
0.7500,11.29852499
0.7550,11.34427337
0.7600,11.39121047
0.7650,11.43932285
0.7700,11.4886898
0.7750,11.53934527
0.7800,11.59136541
0.7850,11.64481958
0.7900,11.69979561
0.7950,11.75618455
0.8000,11.81413526
0.8050,11.87364044
0.8100,11.9346298
0.8150,11.99746707
0.8200,12.06194319
0.8250,12.12795586
0.8300,12.1956006
0.8350,12.26464831
0.8400,12.33525191
0.8450,12.40703163
0.8500,12.48022838
0.8550,12.55464205
0.8600,12.63036493
0.8650,12.70737828
0.8700,12.78547251
0.8750,12.86482687
0.8800,12.94542832
0.8850,13.02714087
0.8900,13.11012293
0.8950,13.19439876
0.9000,13.2797485
0.9050,13.36633892
0.9100,13.4541254
0.9150,13.54304936
0.9200,13.63291994
0.9250,13.72368827
0.9300,13.8154248
0.9350,13.90793239
0.9400,14.00117419
0.9450,14.09529734
0.9500,14.19029144
0.9550,14.28604642
0.9600,14.38273553
0.9650,14.48034127
0.9700,14.57890683
0.9750,14.67841772
0.9800,14.77884407
0.9850,14.88012236
0.9900,14.98220881
0.9950,15.0849507
1.0000,15.1882506
1.0050,15.29223462
1.0100,15.3968514
1.0150,15.50188153
1.0200,15.60757845
1.0250,15.71408996
1.0300,15.82147577
1.0350,15.92966439
1.0400,16.03863721
1.0450,16.14845585
1.0500,16.25917201
1.0550,16.37090141
1.0600,16.48348184
1.0650,16.5970976
1.0700,16.71147194
1.0750,16.82686859
1.0800,16.94323025
1.0850,17.06038563
1.0900,17.17845756
1.0950,17.29740216
1.1000,17.41724858
1.1050,17.53795173
1.1100,17.6596037
1.1150,17.78210443
1.1200,17.90548699
1.1250,18.02993446
1.1300,18.15525929
1.1350,18.28158242
1.1400,18.40887449
1.1450,18.53735645
1.1500,18.66696725
1.1550,18.79787205
1.1600,18.9300188
1.1650,19.06341481
1.1700,19.19817479
1.1750,19.33429067
1.1800,19.47178315
1.1850,19.61072347
1.1900,19.75116281
1.1950,19.89310441
1.2000,20.03673484
1.2050,20.18200758
1.2100,20.32880331
1.2150,20.47721039
1.2200,20.62723967
1.2250,20.77889581
1.2300,20.93217083
1.2350,21.08714904
1.2400,21.24375891
1.2450,21.40188052
1.2500,21.5615319
1.2550,21.72285804
1.2600,21.88571019
1.2650,22.05004784
1.2700,22.21582637
1.2750,22.38293479
1.2800,22.55149524
1.2850,22.72135129
1.2900,22.89248703
1.2950,23.06500267
1.3000,23.23877165
1.3050,23.41376795
1.3100,23.59002441
1.3150,23.76771816
1.3200,23.94678171
1.3250,24.12733397
1.3300,24.30938426
1.3350,24.49296952
1.3400,24.67816414
1.3450,24.86505271
1.3500,25.05376908
1.3550,25.244286
1.3600,25.43672275
1.3650,25.63117074
1.3700,25.82783161
1.3750,26.02659795
1.3800,26.22763434
1.3850,26.43097405
1.3900,26.63658023
1.3950,26.8445018
1.4000,27.05477137
1.4050,27.26749197
1.4100,27.48253454
1.4150,27.69991163
1.4200,27.91939628
1.4250,28.14103277
1.4300,28.36501616
1.4350,28.59112573
1.4400,28.81922537
1.4450,29.04930509
1.4500,29.28115118
1.4550,29.51467045
1.4600,29.74990117
1.4650,29.98678258
1.4700,30.22541164
1.4750,30.46576216
1.4800,30.70762758
1.4850,30.95093692
1.4900,31.19578401
1.4950,31.44200462
1.5000,31.68960865
1.5050,31.93844941
1.5100,32.18834271
1.5150,32.43938835
1.5200,32.6916105
1.5250,32.94462329
1.5300,33.19855077
1.5350,33.45324956
1.5400,33.70870165
1.5450,33.96495966
1.5500,34.221891
1.5550,34.47940256
1.5600,34.73743773
1.5650,34.99601626
1.5700,35.25507405
1.5750,35.51451839
1.5800,35.77431458
1.5850,36.03452698
1.5900,36.29512329
1.5950,36.55619041
1.6000,36.81771873
1.6050,37.07967745
1.6100,37.34192708
1.6150,37.60436684
1.6200,37.86705282
1.6250,38.1295276
1.6300,38.39202497
1.6350,38.65452599
1.6400,38.91681291
1.6450,39.17887845
1.6500,39.44064056
1.6550,39.70186557
1.6600,39.96271676
1.6650,40.22287972
1.6700,40.48231581
1.6750,40.74096023
1.6800,40.99861048
1.6850,41.25530066
1.6900,41.51076094
1.6950,41.76509974
1.7000,42.0181802
1.7050,42.26976137
1.7100,42.5198876
1.7150,42.7682722
1.7200,43.01506105
1.7250,43.26013416
1.7300,43.50348944
1.7350,43.74517624
1.7400,43.98506236
1.7450,44.22303579
1.7500,44.45919385
1.7550,44.69345044
1.7600,44.92569598
1.7650,45.15588133
1.7700,45.38379175
1.7750,45.60942281
1.7800,45.83271304
1.7850,46.05397394
1.7900,46.27294581
1.7950,46.48972944
1.8000,46.70432719
1.8050,46.91666485
1.8100,47.12706354
1.8150,47.33506538
1.8200,47.5408963
1.8250,47.74467114
1.8300,47.94634593
1.8350,48.1460126
1.8400,48.34365276
1.8450,48.5391022
1.8500,48.73255873
1.8550,48.92401194
1.8600,49.11348383
1.8650,49.30101539
1.8700,49.48670484
1.8750,49.67062525
1.8800,49.85262942
1.8850,50.03279665
1.8900,50.21094816
1.8950,50.38706529
1.9000,50.56119438
1.9050,50.7332771
1.9100,50.90352992
1.9150,51.07205466
1.9200,51.23895321
1.9250,51.40439435
1.9300,51.56832992
1.9350,51.73072783
1.9400,51.89157121
1.9450,52.05088077
1.9500,52.20838669
1.9550,52.36431072
1.9600,52.51840635
1.9650,52.67094112
1.9700,52.82198375
1.9750,52.97127907
1.9800,53.11888642
1.9850,53.2646372
1.9900,53.40859947
1.9950,53.55044205
2.0000,53.69021624
2.0050,53.82807198
2.0100,53.96413512
2.0150,54.09849883
2.0200,54.23118745
2.0250,54.3622195
2.0300,54.49138431
2.0350,54.61877154
2.0400,54.74448183
2.0450,54.86847631
2.0500,54.99091755
2.0550,55.11178491
2.0600,55.23094118
2.0650,55.34861828
2.0700,55.46438426
2.0750,55.57830713
2.0800,55.69011524
2.0850,55.79958156
2.0900,55.90677126
2.0950,56.01175434
2.1000,56.11448846
2.1050,56.21480137
2.1100,56.31263246
2.1150,56.40789385
2.1200,56.50025738
2.1250,56.58976894
2.1300,56.6762338
2.1350,56.75972015
2.1400,56.84043244
2.1450,56.918459
2.1500,56.99380599
2.1550,57.06652753
2.1600,57.13658932
2.1650,57.20409669
2.1700,57.26917198
2.1750,57.33182397
2.1800,57.39231028
2.1850,57.45070052
2.1900,57.50716149
2.1950,57.56146721
2.2000,57.61352413
2.2050,57.6633108
2.2100,57.71058797
2.2150,57.75497596
2.2200,57.79624683
2.2250,57.83456685
2.2300,57.86988694
2.2350,57.90217851
2.2400,57.93131419
2.2450,57.95702384
2.2500,57.97951976
2.2550,57.99887382
2.2600,58.01514683
2.2650,58.02811441
2.2700,58.03768026
2.2750,58.0442064
2.2800,58.04762557
2.2850,58.04829943
2.2900,58.04634627
2.2950,58.04153551
2.3000,58.03389029
2.3050,58.02335792
2.3100,58.00985818
2.3150,57.9933482
2.3200,57.97362321
2.3250,57.95067335
2.3300,57.9244993
2.3350,57.89538925
2.3400,57.86327174
2.3450,57.82829016
2.3500,57.79030885
2.3550,57.74932963
2.3600,57.70556143
2.3650,57.65877294
2.3700,57.60919554
2.3750,57.55670861
2.3800,57.50154799
2.3850,57.4436644
2.3900,57.38306092
2.3950,57.31954525
2.4000,57.25329902
2.4050,57.18439483
2.4100,57.11306194
2.4150,57.03947086
2.4200,56.96356597
2.4250,56.88560821
2.4300,56.80578649
2.4350,56.72454129
2.4400,56.64203609
2.4450,56.55796036
2.4500,56.47189943
2.4550,56.38373825
2.4600,56.2936459
2.4650,56.2015612
2.4700,56.10733058
2.4750,56.01092182
2.4800,55.91203978
2.4850,55.81070266
2.4900,55.7068514
2.4950,55.60092778
2.5000,55.49310216
2.5050,55.383611
2.5100,55.27281668
2.5150,55.16123471
2.5200,55.04884788
2.5250,54.93554027
2.5300,54.82125657
2.5350,54.70626209
2.5400,54.59076509
2.5450,54.47507728
2.5500,54.35917915
2.5550,54.24280594
2.5600,54.12616719
2.5650,54.00911608
2.5700,53.89157904
2.5750,53.77362505
2.5800,53.65522263
2.5850,53.5360926
2.5900,53.41647508
2.5950,53.29631123
2.6000,53.17576338
2.6050,53.05475044
2.6100,52.93327384
2.6150,52.81162187
2.6200,52.68997187
2.6250,52.56838634
2.6300,52.44700557
2.6350,52.32570234
2.6400,52.20464979
2.6450,52.08353884
2.6500,51.96232969
2.6550,51.8411582
2.6600,51.71996035
2.6650,51.59861112
2.6700,51.47714887
2.6750,51.35527621
2.6800,51.23308995
2.6850,51.11050407
2.6900,50.98748765
2.6950,50.86406597
2.7000,50.74014787
2.7050,50.61594472
2.7100,50.4914475
2.7150,50.36662585
2.7200,50.24193067
2.7250,50.11750812
2.7300,49.99324303
2.7350,49.86868515
2.7400,49.74367972
2.7450,49.61856633
2.7500,49.49359508
2.7550,49.36891773
2.7600,49.24446102
2.7650,49.12032798
2.7700,48.99643896
2.7750,48.87296741
2.7800,48.74988202
2.7850,48.62711318
2.7900,48.50481833
2.7950,48.38266359
2.8000,48.26055956
2.8050,48.13806507
2.8100,48.01499028
2.8150,47.8910984
2.8200,47.76623577
2.8250,47.64064152
2.8300,47.51434173
2.8350,47.38748809
2.8400,47.2601938
2.8450,47.13248061
2.8500,47.00441457
2.8550,46.87568774
2.8600,46.74613278
2.8650,46.6158915
2.8700,46.48496253
2.8750,46.35284723
2.8800,46.2197078
2.8850,46.08548174
2.8900,45.94986578
2.8950,45.81299919
2.9000,45.67470019
2.9050,45.53517529
2.9100,45.39446396
2.9150,45.25231568
2.9200,45.10875399
2.9250,44.96398839
2.9300,44.81785409
2.9350,44.67038487
2.9400,44.52160163
2.9450,44.37175272
2.9500,44.22108797
2.9550,44.069743
2.9600,43.91785942
2.9650,43.76547341
2.9700,43.61272973
2.9750,43.45983974
2.9800,43.30675
2.9850,43.1535713
2.9900,43.00023773
2.9950,42.84699725
3.0000,42.69393983
3.0050,42.54104138
3.0100,42.38836279
3.0150,42.23609409
3.0200,42.08408256
3.0250,41.93228112
3.0300,41.78092739
3.0350,41.62999353
3.0400,41.47967933
3.0450,41.32977844
3.0500,41.18048491
3.0550,41.03175276
3.0600,40.88361525
3.0650,40.73602606
3.0700,40.58908771
3.0750,40.44281008
3.0800,40.29708363
3.0850,40.1519215
3.0900,40.00714909
3.0950,39.86270673
3.1000,39.71871072
3.1050,39.5752201
3.1100,39.432204
3.1150,39.28957435
3.1200,39.14739361
3.1250,39.00566194
3.1300,38.86413171
3.1350,38.72292391
3.1400,38.58172557
3.1450,38.44074171
3.1500,38.29992482
3.1550,38.15954355
3.1600,38.01923071
3.1650,37.87899139
3.1700,37.73875079
3.1750,37.59853423
3.1800,37.45814003
3.1850,37.31754894
3.1900,37.1767583
3.1950,37.03562992
3.2000,36.8941297
3.2050,36.75206355
3.2100,36.60931926
3.2150,36.46597601
3.2200,36.32201315
3.2250,36.17735466
3.2300,36.03212424
3.2350,35.88633137
3.2400,35.74011073
3.2450,35.59347714
3.2500,35.4461972
3.2550,35.29830936
3.2600,35.14962484
3.2650,35.00050465
3.2700,34.85078635
3.2750,34.70067448
3.2800,34.55034086
3.2850,34.39992788
3.2900,34.24965712
3.2950,34.0995446
3.3000,33.9494673
3.3050,33.79970337
3.3100,33.65039828
3.3150,33.50161514
3.3200,33.35342687
3.3250,33.20581475
3.3300,33.05889085
3.3350,32.91289135
3.3400,32.76781293
3.3450,32.62382875
3.3500,32.48110326
3.3550,32.33962975
3.3600,32.19946878
3.3650,32.06084316
3.3700,31.92373115
3.3750,31.78816697
3.3800,31.65446245
3.3850,31.52249566
3.3900,31.39251396
3.3950,31.26452321
3.4000,31.13832054
3.4050,31.01404947
3.4100,30.89162749
3.4150,30.77099895
3.4200,30.65226465
3.4250,30.53536818
3.4300,30.42044983
3.4350,30.3072477
3.4400,30.19605172
3.4450,30.08648457
3.4500,29.97863406
3.4550,29.87219106
3.4600,29.76740907
3.4650,29.66422989
3.4700,29.56250115
3.4750,29.46210775
3.4800,29.36301335
3.4850,29.26510647
3.4900,29.16834212
3.4950,29.072624
3.5000,28.97802256
3.5050,28.88447691
3.5100,28.7918946
3.5150,28.70020099
3.5200,28.60937516
3.5250,28.51923067
3.5300,28.42972009
3.5350,28.34078418
3.5400,28.25236094
3.5450,28.16430964
3.5500,28.07660705
3.5550,27.98911569
3.5600,27.90173363
3.5650,27.81437278
3.5700,27.72714994
3.5750,27.63997732
3.5800,27.55271489
3.5850,27.46532271
3.5900,27.37785779
3.5950,27.29008843
3.6000,27.20220802
3.6050,27.11388219
3.6100,27.02502338
3.6150,26.93573687
3.6200,26.84598459
3.6250,26.75593245
3.6300,26.6653263
3.6350,26.57413305
3.6400,26.48216211
3.6450,26.3894576
3.6500,26.29584274
3.6550,26.20157007
3.6600,26.10643479
3.6650,26.01030075
3.6700,25.91308077
3.6750,25.81469101
3.6800,25.71514557
3.6850,25.61435933
3.6900,25.51223519
3.6950,25.40871485
3.7000,25.30403402
3.7050,25.19812178
3.7100,25.09118605
3.7150,24.98342204
3.7200,24.87482435
3.7250,24.76542467
3.7300,24.65553199
3.7350,24.54519866
3.7400,24.43440172
3.7450,24.32358713
3.7500,24.21262833
3.7550,24.10190109
3.7600,23.99154402
3.7650,23.88155865
3.7700,23.77223828
3.7750,23.66370901
3.7800,23.5562671
3.7850,23.45020456
3.7900,23.34551255
3.7950,23.24247266
3.8000,23.14127712
3.8050,23.04187923
3.8100,22.9445678
3.8150,22.84950645
3.8200,22.75663501
3.8250,22.6662303
3.8300,22.57837677
3.8350,22.49322458
3.8400,22.41075511
3.8450,22.33121627
3.8500,22.25462082
3.8550,22.18106263
3.8600,22.11091195
3.8650,22.04395752
3.8700,21.980346
3.8750,21.92014676
3.8800,21.86353089
3.8850,21.81049256
3.8900,21.76093551
3.8950,21.71518494
3.9000,21.67299847
3.9050,21.63458093
3.9100,21.60000418
3.9150,21.56910503
3.9200,21.54207702
3.9250,21.51853811
3.9300,21.49853802
3.9350,21.48219379
3.9400,21.46943264
3.9450,21.46007736
3.9500,21.45410166
3.9550,21.45110022
3.9600,21.45124938
3.9650,21.45442078
3.9700,21.46062565
3.9750,21.46979467
3.9800,21.48168454
3.9850,21.496379
3.9900,21.51388192
3.9950,21.53418583
4.0000,21.55719544
4.0050,21.58281628
4.0100,21.61117635
4.0150,21.64210469
4.0200,21.67564266
4.0250,21.71205164
4.0300,21.75084135
4.0350,21.79221904
4.0400,21.83617937
4.0450,21.88253359
4.0500,21.93129787
4.0550,21.98251744
4.0600,22.03625431
4.0650,22.09237004
4.0700,22.15077867
4.0750,22.21149304
4.0800,22.27443668
4.0850,22.33950055
4.0900,22.40690252
4.0950,22.47640878
4.1000,22.54799026
4.1050,22.62201216
4.1100,22.69822085
4.1150,22.77684135
4.1200,22.85773668
4.1250,22.94093164
4.1300,23.02635485
4.1350,23.11402077
4.1400,23.20403001
4.1450,23.29627293
4.1500,23.39098819
4.1550,23.48802494
4.1600,23.58724526
4.1650,23.68880882
4.1700,23.79259155
4.1750,23.89852022
4.1800,24.00646602
4.1850,24.11611533
4.1900,24.22761688
4.1950,24.34076059
4.2000,24.45576666
4.2050,24.57254453
4.2100,24.69095247
4.2150,24.81110624
4.2200,24.93285722
4.2250,25.05632242
4.2300,25.18146404
4.2350,25.30810912
4.2400,25.4364064
4.2450,25.56636564
4.2500,25.69780977
4.2550,25.83085583
4.2600,25.96544905
4.2650,26.10150921
4.2700,26.23925994
4.2750,26.37846157
4.2800,26.51919114
4.2850,26.66134991
4.2900,26.8048714
4.2950,26.94977968
4.3000,27.09600152
4.3050,27.2436233
4.3100,27.39250406
4.3150,27.54260333
4.3200,27.6940876
4.3250,27.84672124
4.3300,28.00092551
4.3350,28.15647441
4.3400,28.31340467
4.3450,28.4717652
4.3500,28.6317116
4.3550,28.79310169
4.3600,28.95582747
4.3650,29.11995815
4.3700,29.28549555
4.3750,29.45243349
4.3800,29.62080735
4.3850,29.79056574
4.3900,29.9614155
4.3950,30.13350881
4.4000,30.30666802
4.4050,30.48067578
4.4100,30.65564416
4.4150,30.83120676
4.4200,31.00763989
4.4250,31.18463175
4.4300,31.36238378
4.4350,31.54070238
4.4400,31.71954566
4.4450,31.89886596
4.4500,32.07845136
4.4550,32.25836563
4.4600,32.43871285
4.4650,32.61925598
4.4700,32.79995969
4.4750,32.9808652
4.4800,33.16188941
4.4850,33.34319595
4.4900,33.52454937
4.4950,33.705799
4.5000,33.88687893
4.5050,34.06776402
4.5100,34.24843047
4.5150,34.42865084
4.5200,34.60826307
4.5250,34.78727352
4.5300,34.96567738
4.5350,35.14340484
4.5400,35.32044411
4.5450,35.49679454
4.5500,35.67227927
4.5550,35.84685921
4.5600,36.02055298
4.5650,36.19342367
4.5700,36.36508453
4.5750,36.53588302
4.5800,36.70571109
4.5850,36.87487485
4.5900,37.04319914
4.5950,37.210747
4.6000,37.37759936
4.6050,37.54391666
4.6100,37.70945141
4.6150,37.8745705
4.6200,38.03924702
4.6250,38.20343896
4.6300,38.36695003
4.6350,38.52986673
4.6400,38.69216583
4.6450,38.85377353
4.6500,39.01478221
4.6550,39.17528945
4.6600,39.33529318
4.6650,39.49475344
4.6700,39.65377878
4.6750,39.81235151
4.6800,39.97056517
4.6850,40.12832699
4.6900,40.28596889
4.6950,40.44349914
4.7000,40.60099962
4.7050,40.75836191
4.7100,40.91562042
4.7150,41.07304289
4.7200,41.23046804
4.7250,41.38802203
4.7300,41.5456306
4.7350,41.70359971
4.7400,41.86187299
4.7450,42.020416
4.7500,42.17937171
4.7550,42.33861457
4.7600,42.49809539
4.7650,42.65783342
4.7700,42.81780998
4.7750,42.97779088
4.7800,43.13759407
4.7850,43.29730507
4.7900,43.45705007
4.7950,43.61693252
4.8000,43.7767435
4.8050,43.93634619
4.8100,44.09562701
4.8150,44.25480169
4.8200,44.41384149
4.8250,44.57290652
4.8300,44.73181656
4.8350,44.89057524
4.8400,45.04903698
4.8450,45.20722434
4.8500,45.36537908
4.8550,45.52366547
4.8600,45.68206983
4.8650,45.84063799
4.8700,45.99960627
4.8750,46.15893149
4.8800,46.31886025
4.8850,46.4791632
4.8900,46.63991126
4.8950,46.80116162
4.9000,46.96295349
4.9050,47.12516236
4.9100,47.28799098
4.9150,47.45123434
4.9200,47.61452236
4.9250,47.77807092
4.9300,47.9419415
4.9350,48.10620696
4.9400,48.27101292
4.9450,48.43641533
4.9500,48.60224855
4.9550,48.76823204
4.9600,48.93411887
4.9650,49.09990476
4.9700,49.26549592
4.9750,49.43090581
4.9800,49.59569491
4.9850,49.75994894
4.9900,49.92350834
4.9950,50.08637056
5.0000,50.24837662
5.0050,50.40964109
5.0100,50.56999248
5.0150,50.72925802
5.0200,50.88754924
5.0250,51.04486812
5.0300,51.20104809
5.0350,51.35564995
5.0400,51.5086155
5.0450,51.66001015
5.0500,51.80974728
5.0550,51.95777776
5.0600,52.10368313
5.0650,52.24770517
5.0700,52.38990859
5.0750,52.5305192
5.0800,52.66968847
5.0850,52.80739993
5.0900,52.9434408
5.0950,53.07784567
5.1000,53.21074208
5.1050,53.34198395
5.1100,53.47131976
5.1150,53.59839236
5.1200,53.72304973
5.1250,53.84505548
5.1300,53.96450542
5.1350,54.08136343
5.1400,54.1956377
5.1450,54.30743355
5.1500,54.41641706
5.1550,54.52254864
5.1600,54.62565483
5.1650,54.7257218
5.1700,54.82247039
5.1750,54.91604611
5.1800,55.00591514
5.1850,55.09173289
5.1900,55.17329086
5.1950,55.25068527
5.2000,55.32398234
5.2050,55.39348082
5.2100,55.4591916
5.2150,55.52112912
5.2200,55.57932405
5.2250,55.63351467
5.2300,55.68363349
5.2350,55.72916942
5.2400,55.770053
5.2450,55.80609707
5.2500,55.83751514
5.2550,55.86480907
5.2600,55.88849178
5.2650,55.90903946
5.2700,55.9267525
5.2750,55.94189632
5.2800,55.9549448
5.2850,55.9660539
5.2900,55.97524928
5.2950,55.98216912
5.3000,55.98679047
5.3050,55.9890801
5.3100,55.98928556
5.3150,55.9877301
5.3200,55.98448473
5.3250,55.9795846
5.3300,55.97318599
5.3350,55.96535861
5.3400,55.95629522
5.3450,55.94592924
5.3500,55.93384853
5.3550,55.91981903
5.3600,55.90399035
5.3650,55.88651279
5.3700,55.86700426
5.3750,55.84511058
5.3800,55.82094485
5.3850,55.79425449
5.3900,55.76474354
5.3950,55.73222997
5.4000,55.69676614
5.4050,55.6588411
5.4100,55.61889546
5.4150,55.57694563
5.4200,55.53308848
5.4250,55.48691383
5.4300,55.43826859
5.4350,55.38646236
5.4400,55.33103892
5.4450,55.27198684
5.4500,55.20954629
5.4550,55.14370988
5.4600,55.07424494
5.4650,55.00124683
5.4700,54.92480155
5.4750,54.84465444
5.4800,54.7613662
5.4850,54.6751567
5.4900,54.58676185
5.4950,54.49605057
5.5000,54.40295938
5.5050,54.30716521
5.5100,54.20860726
5.5150,54.10725011
5.5200,54.00333672
5.5250,53.89683187
5.5300,53.78791023
5.5350,53.67697594
5.5400,53.56415472
5.5450,53.4496355
5.5500,53.33324803
5.5550,53.21485166
5.5600,53.09414977
5.5650,52.97082439
5.5700,52.84470264
5.5750,52.71580181
5.5800,52.58427135
5.5850,52.45026433
5.5900,52.31381856
5.5950,52.17529936
5.6000,52.03528363
5.6050,51.89392559
5.6100,51.75137412
5.6150,51.60754534
5.6200,51.46239631
5.6250,51.31607331
5.6300,51.16858529
5.6350,51.01995011
5.6400,50.86985364
5.6450,50.71826845
5.6500,50.56546895
5.6550,50.41152494
5.6600,50.25627639
5.6650,50.09961091
5.6700,49.94186565
5.6750,49.78320154
5.6800,49.6235319
5.6850,49.46310431
5.6900,49.3019325
5.6950,49.13993333
5.7000,48.97689494
5.7050,48.81236033
5.7100,48.64629068
5.7150,48.47859676
5.7200,48.30930861
5.7250,48.13860876
5.7300,47.96673252
5.7350,47.79409754
5.7400,47.62096793
5.7450,47.44727327
5.7500,47.27288766
5.7550,47.09753848
5.7600,46.92104133
5.7650,46.7432137
5.7700,46.56403784
5.7750,46.38355305
5.7800,46.20151721
5.7850,46.01798944
5.7900,45.83242087
5.7950,45.64498146
5.8000,45.45562302
5.8050,45.26458091
5.8100,45.07210922
5.8150,44.8783852
5.8200,44.68335179
5.8250,44.48752378
5.8300,44.29069845
5.8350,44.09299418
5.8400,43.89442909
5.8450,43.69499463
5.8500,43.49465029
5.8550,43.29343899
5.8600,43.09147074
5.8650,42.88890713
5.8700,42.68566526
5.8750,42.48162693
5.8800,42.27683374
5.8850,42.07115696
5.8900,41.86480535
5.8950,41.65789777
5.9000,41.4503541
5.9050,41.24212966
5.9100,41.03321813
5.9150,40.82342142
5.9200,40.6128084
5.9250,40.40115158
5.9300,40.18857482
5.9350,39.97487605
5.9400,39.76040032
5.9450,39.54530267
5.9500,39.32952405
5.9550,39.11317635
5.9600,38.89642547
5.9650,38.67925099
5.9700,38.46165557
5.9750,38.24356015
5.9800,38.02499784
5.9850,37.80585202
5.9900,37.58627055
5.9950,37.36642136
6.0000,37.14601548
6.0050,36.92531625
6.0100,36.70427722
6.0150,36.48304657
6.0200,36.26122494
6.0250,36.03905099
6.0300,35.81633727
6.0350,35.59309943
6.0400,35.36922476
6.0450,35.144767
6.0500,34.91981455
6.0550,34.69443061
6.0600,34.46896472
6.0650,34.24322201
6.0700,34.01728585
6.0750,33.79113279
6.0800,33.56470919
6.0850,33.33806905
6.0900,33.1112063
6.0950,32.8839434
6.1000,32.65623167
6.1050,32.42789554
6.1100,32.19900309
6.1150,31.9695161
6.1200,31.73944726
6.1250,31.50855169
6.1300,31.27696715
6.1350,31.04449729
6.1400,30.81124958
6.1450,30.57734346
6.1500,30.34288516
6.1550,30.10800162
6.1600,29.87277237
6.1650,29.63734078
6.1700,29.40168897
6.1750,29.16593878
6.1800,28.93015657
6.1850,28.69443199
6.1900,28.45860016
6.1950,28.22287634
6.2000,27.9871262
6.2050,27.75169701
6.2100,27.516437
6.2150,27.28150717
6.2200,27.04712908
6.2250,26.81339852
6.2300,26.58020442
6.2350,26.34787328
6.2400,26.11621019
6.2450,25.88522518
6.2500,25.65505601
6.2550,25.425599
6.2600,25.19685942
6.2650,24.96892198
6.2700,24.74162167
6.2750,24.51510177
6.2800,24.28938545
6.2850,24.06459573
6.2900,23.84092481
6.2950,23.6181836
6.3000,23.39704782
6.3050,23.17756262
6.3100,22.95974625
6.3150,22.74371094
6.3200,22.52982189
6.3250,22.31803552
6.3300,22.10850268
6.3350,21.90140895
6.3400,21.69663247
6.3450,21.494354
6.3500,21.29447553
6.3550,21.09722887
6.3600,20.90225704
6.3650,20.70983597
6.3700,20.51985149
6.3750,20.33235482
6.3800,20.14737216
6.3850,19.96481974
6.3900,19.7848118
6.3950,19.60734849
6.4000,19.43251821
6.4050,19.26023612
6.4100,19.0904722
6.4150,18.92324165
6.4200,18.75854534
6.4250,18.59636436
6.4300,18.43680247
6.4350,18.27987098
6.4400,18.12567715
6.4450,17.97408375
6.4500,17.8250361
6.4550,17.67862523
6.4600,17.5348837
6.4650,17.39354602
6.4700,17.25480535
6.4750,17.11856362
6.4800,16.98478326
6.4850,16.85336797
6.4900,16.72437457
6.4950,16.59752546
6.5000,16.47285222
6.5050,16.35012973
6.5100,16.22946927
6.5150,16.11063186
6.5200,15.99344723
6.5250,15.87805609
6.5300,15.76439027
6.5350,15.65246685
6.5400,15.54227463
6.5450,15.43384221
6.5500,15.32693204
6.5550,15.22185319
6.5600,15.11840979
6.5650,15.01658501
6.5700,14.91641593
6.5750,14.81784841
6.5800,14.7207084
6.5850,14.62487661
6.5900,14.5304379
6.5950,14.43730388
6.6000,14.34524811
6.6050,14.25422341
6.6100,14.164179
6.6150,14.07504166
6.6200,13.98675375
6.6250,13.89915224
6.6300,13.81212683
6.6350,13.72567521
6.6400,13.63981483
6.6450,13.55424093
6.6500,13.46907493
6.6550,13.38409328
6.6600,13.29947225
6.6650,13.21504108
6.6700,13.13073682
6.6750,13.04666166
6.6800,12.96276499
6.6850,12.87919235
6.6900,12.79560992
6.6950,12.71202189
6.7000,12.62845687
6.7050,12.54499437
6.7100,12.46170192
6.7150,12.37827596
6.7200,12.29497396
6.7250,12.2118349
6.7300,12.12871175
6.7350,12.04582823
6.7400,11.96312781
6.7450,11.880756
6.7500,11.79883713
6.7550,11.71727261
6.7600,11.6363062
6.7650,11.55618285
6.7700,11.476948
6.7750,11.39881847
6.7800,11.32181931
6.7850,11.24611504
6.7900,11.17182654
6.7950,11.0990351
6.8000,11.02770411
6.8050,10.95799017
6.8100,10.88984744
6.8150,10.82323501
6.8200,10.7583037
6.8250,10.69500315
6.8300,10.63318697
6.8350,10.57284742
6.8400,10.51395513
6.8450,10.45633055
6.8500,10.40011325
6.8550,10.34511454
6.8600,10.29119462
6.8650,10.23844283
6.8700,10.18671702
6.8750,10.13590271
6.8800,10.08608339
6.8850,10.03724865
6.8900,9.989348306
6.8950,9.942444699
6.9000,9.896741193
6.9050,9.852097419
6.9100,9.808858137
6.9150,9.766795125
6.9200,9.726051709
6.9250,9.686631272
6.9300,9.64872315
6.9350,9.612194161
6.9400,9.577162759
6.9450,9.543649477
6.9500,9.511834579
6.9550,9.481617135
6.9600,9.453118559
6.9650,9.426228616
6.9700,9.401179429
6.9750,9.377695678
6.9800,9.356083359
6.9850,9.336033062
6.9900,9.317847255
6.9950,9.301554793
7.0000,9.287257278
7.0050,9.274750538
7.0100,9.263938803
7.0150,9.255262748
7.0200,9.248511072
7.0250,9.243935813
7.0300,9.241668216
7.0350,9.241659861
7.0400,9.243961748
7.0450,9.248743473
7.0500,9.256116654
7.0550,9.266209235
7.0600,9.279064852
7.0650,9.294668871
7.0700,9.313157126
7.0750,9.334567586
7.0800,9.358997465
7.0850,9.386598493
7.0900,9.417500399
7.0950,9.451720859
7.1000,9.489424563
7.1050,9.530587548
7.1100,9.575360734
7.1150,9.62391271
7.1200,9.676297987
7.1250,9.732342588
7.1300,9.792370782
7.1350,9.856293212
7.1400,9.92416629
7.1450,9.996033361
7.1500,10.07185053
7.1550,10.15162053
7.1600,10.23533415
7.1650,10.32292198
7.1700,10.41433734
7.1750,10.50964856
7.1800,10.60881248
7.1850,10.7119392
7.1900,10.81874478
7.1950,10.92927691
7.2000,11.04332997
7.2050,11.16103122
7.2100,11.2822382
7.2150,11.4072162
7.2200,11.53582453
7.2250,11.66822294
7.2300,11.80432874
7.2350,11.9442737
7.2400,12.08806054
7.2450,12.23578548
7.2500,12.38736233
7.2550,12.54288061
7.2600,12.70239437
7.2650,12.86597443
7.2700,13.03349182
7.2750,13.20495113
7.2800,13.38037627
7.2850,13.55971707
7.2900,13.74281631
7.2950,13.92948387
7.3000,14.11941726
7.3050,14.31286807
7.3100,14.50955757
7.3150,14.70938568
7.3200,14.91210312
7.3250,15.11740272
7.3300,15.32531631
7.3350,15.5356989
7.3400,15.74843989
7.3450,15.96341103
7.3500,16.18057728
7.3550,16.39997522
7.3600,16.62158705
7.3650,16.84532282
7.3700,17.07101479
7.3750,17.2985547
7.3800,17.527933
7.3850,17.7590309
7.3900,17.99175345
7.3950,18.22608328
7.4000,18.4621819
7.4050,18.69999181
7.4100,18.93938138
7.4150,19.18031194
7.4200,19.42291127
7.4250,19.66733161
7.4300,19.91332957
7.4350,20.16091188
7.4400,20.41024181
7.4450,20.66126384
7.4500,20.91401847
7.4550,21.16859008
7.4600,21.4250767
7.4650,21.68345513
7.4700,21.9438274
7.4750,22.20626093
7.4800,22.47074551
7.4850,22.73714865
7.4900,23.00550626
7.4950,23.27576812
7.5000,23.5477629
7.5050,23.82147589
7.5100,24.09666439
7.5150,24.37309204
7.5200,24.65071608
7.5250,24.92938324
7.5300,25.20900836
7.5350,25.48931374
7.5400,25.7701149
7.5450,26.05116714
7.5500,26.33216211
7.5550,26.61310104
7.5600,26.89349715
7.5650,27.17329932
7.5700,27.45243482
7.5750,27.73096228
7.5800,28.00856046
7.5850,28.28545775
7.5900,28.56152333
7.5950,28.83670143
7.6000,29.11112767
7.6050,29.38455665
7.6100,29.65705519
7.6150,29.92843974
7.6200,30.19866686
7.6250,30.46788772
7.6300,30.73594359
7.6350,31.0030118
7.6400,31.26906404
7.6450,31.53421372
7.6500,31.79841161
7.6550,32.06141054
7.6600,32.32307838
7.6650,32.58349798
7.6700,32.84276386
7.6750,33.10087605
7.6800,33.35776454
7.6850,33.61313344
7.6900,33.8670549
7.6950,34.11946203
7.7000,34.37011679
7.7050,34.61891712
7.7100,34.86593355
7.7150,35.11131356
7.7200,35.35489107
7.7250,35.59676181
7.7300,35.83705352
7.7350,36.07557616
7.7400,36.31238805
7.7450,36.54757267
7.7500,36.78124466
7.7550,37.0133174
7.7600,37.24405418
7.7650,37.47335102
7.7700,37.70148154
7.7750,37.92846374
7.7800,38.15455905
7.7850,38.37996039
7.7900,38.60487218
7.7950,38.82947514
7.8000,39.05383281
7.8050,39.27774532
7.8100,39.50140269
7.8150,39.72479511
7.8200,39.94783983
7.8250,40.1706748
7.8300,40.39316381
7.8350,40.61549362
7.8400,40.83773511
7.8450,41.05995657
7.8500,41.28225431
7.8550,41.50462189
7.8600,41.72749225
7.8650,41.95070103
7.8700,42.17404781
7.8750,42.39740119
7.8800,42.62047827
7.8850,42.84309846
7.8900,43.06549154
7.8950,43.28766073
7.9000,43.50939826
7.9050,43.73101006
7.9100,43.95259594
7.9150,44.17422221
7.9200,44.39600272
7.9250,44.6178075
7.9300,44.83961445
7.9350,45.06141386
7.9400,45.28298879
7.9450,45.50407639
7.9500,45.72437403
7.9550,45.94386882
7.9600,46.16257882
7.9650,46.3803475
7.9700,46.5970161
7.9750,46.8126732
7.9800,47.02739003
7.9850,47.24149474
7.9900,47.45477345
7.9950,47.66710635
8.0000,47.87855914
8.0050,48.08906865
8.0100,48.2984912
8.0150,48.50664708
8.0200,48.71347037
8.0250,48.91880313
8.0300,49.12271764
8.0350,49.32536593
8.0400,49.52684847
8.0450,49.7271907
8.0500,49.92622846
8.0550,50.12397163
8.0600,50.32028111
8.0650,50.51546852
8.0700,50.70934348
8.0750,50.90188439
8.0800,51.09323857
8.0850,51.28318637
8.0900,51.47178373
8.0950,51.65887664
8.1000,51.84443845
8.1050,52.02873028
8.1100,52.21153875
8.1150,52.3928972
8.1200,52.57273562
8.1250,52.75067004
8.1300,52.92659282
8.1350,53.10019314
8.1400,53.27145456
8.1450,53.4402879
8.1500,53.60664354
8.1550,53.77028971
8.1600,53.93102346
8.1650,54.08896335
8.1700,54.24419261
8.1750,54.39663477
8.1800,54.54631175
8.1850,54.69333938
8.1900,54.83735698
8.1950,54.97826024
8.2000,55.11603774
8.2050,55.25086123
8.2100,55.38268299
8.2150,55.510987
8.2200,55.63582966
8.2250,55.75697372
8.2300,55.87414158
8.2350,55.98657484
8.2400,56.09400571
8.2450,56.19643374
8.2500,56.29390729
8.2550,56.38644213
8.2600,56.47376005
8.2650,56.55606827
8.2700,56.63346771
8.2750,56.70595679
8.2800,56.77367814
8.2850,56.83673087
8.2900,56.89567643
8.2950,56.95124383
8.3000,57.00347658
8.3050,57.05269665
8.3100,57.09922984
8.3150,57.1433832
8.3200,57.18560374
8.3250,57.22595784
8.3300,57.26472885
8.3350,57.30195231
8.3400,57.3376434
8.3450,57.3720092
8.3500,57.40501221
8.3550,57.43642057
8.3600,57.4661602
8.3650,57.4938566
8.3700,57.51954692
8.3750,57.54270549
8.3800,57.56302634
8.3850,57.58019466
8.3900,57.59427658
8.3950,57.60541227
8.4000,57.61366892
8.4050,57.61909569
8.4100,57.62183721
8.4150,57.62218139
8.4200,57.62018759
8.4250,57.61628633
8.4300,57.61045845
8.4350,57.60268274
8.4400,57.59284198
8.4450,57.58058208
8.4500,57.56571955
8.4550,57.548318
8.4600,57.52822622
8.4650,57.50525903
8.4700,57.47914583
8.4750,57.44997045
8.4800,57.41792806
8.4850,57.38286044
8.4900,57.34479275
8.4950,57.30393536
8.5000,57.26007429
8.5050,57.21260112
8.5100,57.16141673
8.5150,57.10621182
8.5200,57.04711675
8.5250,56.98395665
8.5300,56.91693349
8.5350,56.84650876
8.5400,56.77311729
8.5450,56.69704449
8.5500,56.61839928
8.5550,56.53746392
8.5600,56.45474314
8.5650,56.37025531
8.5700,56.28407588
8.5750,56.19605926
8.5800,56.1061821
8.5850,56.01428635
8.5900,55.9199158
8.5950,55.82306478
8.6000,55.72389524
8.6050,55.62258347
8.6100,55.51917284
8.6150,55.41378807
8.6200,55.30646018
8.6250,55.19734387
8.6300,55.08638934
8.6350,54.97371762
8.6400,54.85930411
8.6450,54.74304286
8.6500,54.62486668
8.6550,54.50478187
8.6600,54.3826789
8.6650,54.25869104
8.6700,54.1327801
8.6750,54.00530971
8.6800,53.87664371
8.6850,53.74737275
8.6900,53.61761198
8.6950,53.48749156
8.7000,53.35719588
8.7050,53.22681696
8.7100,53.09649046
8.7150,52.96581496
8.7200,52.83455945
8.7250,52.7026463
8.7300,52.5701416
8.7350,52.43700317
8.7400,52.30305387
8.7450,52.16856778
8.7500,52.03366269
8.7550,51.89836945
8.7600,51.76250222
8.7650,51.62617075
8.7700,51.48913621
8.7750,51.35156214
8.7800,51.21319207
8.7850,51.07415586
8.7900,50.934289
8.7950,50.79340306
8.8000,50.65176828
8.8050,50.50953421
8.8100,50.36659568
8.8150,50.22358438
8.8200,50.08047489
8.8250,49.93750303
8.8300,49.7948142
8.8350,49.65240098
8.8400,49.51042684
8.8450,49.36850471
8.8500,49.22663612
8.8550,49.08459842
8.8600,48.94226044
8.8650,48.79940321
8.8700,48.65602834
8.8750,48.51228473
8.8800,48.36807223
8.8850,48.22355632
8.8900,48.07867548
8.8950,47.9334069
8.9000,47.78769439
8.9050,47.64146322
8.9100,47.49476305
8.9150,47.3472614
8.9200,47.19893082
8.9250,47.04957378
8.9300,46.89927229
8.9350,46.74783191
8.9400,46.59539745
8.9450,46.44205619
8.9500,46.2879715
8.9550,46.13354826
8.9600,45.97886902
8.9650,45.8241089
8.9700,45.66916865
8.9750,45.51400465
8.9800,45.35856844
8.9850,45.20266433
8.9900,45.04616087
8.9950,44.88892721
9.0000,44.73076695
9.0050,44.57173437
9.0100,44.4116839
9.0150,44.25102533
9.0200,44.08977551
9.0250,43.92789558
9.0300,43.76538104
9.0350,43.6024444
9.0400,43.43917308
9.0450,43.27554738
9.0500,43.11153575
9.0550,42.947292
9.0600,42.78291137
9.0650,42.61837613
9.0700,42.45395987
9.0750,42.28967458
9.0800,42.12567875
9.0850,41.96210717
9.0900,41.79898347
9.0950,41.63678234
9.1000,41.47539971
9.1050,41.31513236
9.1100,41.15598538
9.1150,40.99790743
9.1200,40.84102977
9.1250,40.68533009
9.1300,40.53082185
9.1350,40.37770416
9.1400,40.22585887
9.1450,40.07565296
9.1500,39.92708479
9.1550,39.77993951
9.1600,39.63439828
9.1650,39.49070346
9.1700,39.34878644
9.1750,39.20849286
9.1800,39.07004077
9.1850,38.93321301
9.1900,38.798063
9.1950,38.66451551
9.2000,38.53256698
9.2050,38.40196165
9.2100,38.27252045
9.2150,38.14422413
9.2200,38.01701082
9.2250,37.89066409
9.2300,37.76505192
9.2350,37.64016194
9.2400,37.51570711
9.2450,37.39161803
9.2500,37.26770814
9.2550,37.14352461
9.2600,37.01918526
9.2650,36.89434216
9.2700,36.76916038
9.2750,36.643675
9.2800,36.51780914
9.2850,36.39178552
9.2900,36.26553535
9.2950,36.13912604
9.3000,36.01278055
9.3050,35.88627912
9.3100,35.75988794
9.3150,35.63342494
9.3200,35.50687929
9.3250,35.38019396
9.3300,35.2535654
9.3350,35.1269233
9.3400,35.00026176
9.3450,34.873781
9.3500,34.74756357
9.3550,34.62147266
9.3600,34.49573193
9.3650,34.3704316
9.3700,34.24568894
9.3750,34.12135961
9.3800,33.99750038
9.3850,33.87398131
9.3900,33.75102647
9.3950,33.62846695
9.4000,33.50652316
9.4050,33.38510247
9.4100,33.26448272
9.4150,33.14459695
9.4200,33.02566541
9.4250,32.9077818
9.4300,32.79099036
9.4350,32.67530235
9.4400,32.56096029
9.4450,32.44777419
9.4500,32.33581494
9.4550,32.22527245
9.4600,32.11586721
9.4650,32.00776397
9.4700,31.90102997
9.4750,31.7958073
9.4800,31.6920339
9.4850,31.58964834
9.4900,31.48879568
9.4950,31.38942678
9.5000,31.2914225
9.5050,31.19493423
9.5100,31.09992069
9.5150,31.00643531
9.5200,30.9144926
9.5250,30.82397806
9.5300,30.73480942
9.5350,30.64706256
9.5400,30.56080762
9.5450,30.47589562
9.5500,30.39241069
9.5550,30.31042539
9.5600,30.22982052
9.5650,30.15052721
9.5700,30.07244398
9.5750,29.99539924
9.5800,29.91931183
9.5850,29.84406671
9.5900,29.76969792
9.5950,29.69612886
9.6000,29.6232873
9.6050,29.55120746
9.6100,29.47990619
9.6150,29.40922383
9.6200,29.33945118
9.6250,29.27054149
9.6300,29.20226011
9.6350,29.13474748
9.6400,29.06794411
9.6450,29.00184105
9.6500,28.93639421
9.6550,28.87172943
9.6600,28.80773159
9.6650,28.74460267
9.6700,28.68216575
9.6750,28.62077788
9.6800,28.56060087
9.6850,28.50163564
9.6900,28.44384231
9.6950,28.38726773
9.7000,28.33186465
9.7050,28.27753518
9.7100,28.22437108
9.7150,28.17251746
9.7200,28.12193887
9.7250,28.07252196
9.7300,28.0244679
9.7350,27.97774358
9.7400,27.93214844
9.7450,27.88772151
9.7500,27.84460445
9.7550,27.80274139
9.7600,27.762245
9.7650,27.72281772
9.7700,27.68459237
9.7750,27.64741906
9.7800,27.6113013
9.7850,27.57627473
9.7900,27.54214586
9.7950,27.50891671
9.8000,27.47662413
9.8050,27.44535515
9.8100,27.41502246
9.8150,27.38561763
9.8200,27.35698417
9.8250,27.32953081
9.8300,27.30316086
9.8350,27.27779532
9.8400,27.25357819
9.8450,27.23070279
9.8500,27.20904029
9.8550,27.18876802
9.8600,27.1698716
9.8650,27.15269482
9.8700,27.13731354
9.8750,27.12376844
9.8800,27.11235165
9.8850,27.10303744
9.8900,27.09580914
9.8950,27.09074351
9.9000,27.08789901
9.9050,27.08726716
9.9100,27.08882856
9.9150,27.09283803
9.9200,27.09903159
9.9250,27.10754509
9.9300,27.11849378
9.9350,27.13165262
9.9400,27.14728436
9.9450,27.16518998
9.9500,27.18535491
9.9550,27.20778822
9.9600,27.23260874
9.9650,27.25954198
9.9700,27.28868278
9.9750,27.31980436
9.9800,27.35268985
9.9850,27.38742441
9.9900,27.42387266
9.9950,27.46181727
10.0000,27.50124819
10.0050,27.5421638
10.0100,27.58432833
10.0150,27.62748635
10.0200,27.67156655
10.0250,27.71656476
10.0300,27.76210949
10.0350,27.80808691
10.0400,27.85446564
10.0450,27.9012515
10.0500,27.94821968
10.0550,27.99522161
10.0600,28.04225211
10.0650,28.08942881
10.0700,28.13642849
10.0750,28.18340044
10.0800,28.23016416
10.0850,28.27678434
10.0900,28.32338259
10.0950,28.36997899
10.1000,28.41648485
10.1050,28.46284104
10.1100,28.50918892
10.1150,28.5556336
10.1200,28.60232244
10.1250,28.64897034
10.1300,28.69588095
10.1350,28.74326189
10.1400,28.79100688
10.1450,28.83909263
10.1500,28.88764891
10.1550,28.93670564
10.1600,28.98633459
10.1650,29.03638205
10.1700,29.08700612
10.1750,29.13834152
10.1800,29.19018168
10.1850,29.24269666
10.1900,29.29602794
10.1950,29.35017214
10.2000,29.40504677
10.2050,29.46087844
10.2100,29.51741814
10.2150,29.57469779
10.2200,29.63279945
10.2250,29.69151182
10.2300,29.75083957
10.2350,29.8109388
10.2400,29.87169542
10.2450,29.93314779
10.2500,29.99547647
10.2550,30.05861118
10.2600,30.12250062
10.2650,30.1872787
10.2700,30.25291489
10.2750,30.31938585
10.2800,30.38689809
10.2850,30.45517615
10.2900,30.52435768
10.2950,30.59448111
10.3000,30.66553845
10.3050,30.73760702
10.3100,30.81077718
10.3150,30.88521424
10.3200,30.96095347
10.3250,31.03802533
10.3300,31.11643319
10.3350,31.19629854
10.3400,31.27748866
10.3450,31.35999693
10.3500,31.44373657
10.3550,31.52883137
10.3600,31.61528353
10.3650,31.70294751
10.3700,31.79170982
10.3750,31.88171781
10.3800,31.973059
10.3850,32.0656135
10.3900,32.1594625
10.3950,32.2546453
10.4000,32.35124171
10.4050,32.44925512
10.4100,32.54879063
10.4150,32.64994052
10.4200,32.75274761
10.4250,32.85742766
10.4300,32.9637833
10.4350,33.07179203
10.4400,33.18142729
10.4450,33.29271074
10.4500,33.40575695
10.4550,33.52048534
10.4600,33.63695304
10.4650,33.75519692
10.4700,33.87526916
10.4750,33.99716315
10.4800,34.12095166
10.4850,34.24649452
10.4900,34.3736985
10.4950,34.50250828
10.5000,34.63284325
10.5050,34.76444872
10.5100,34.8975938
10.5150,35.03194965
10.5200,35.16769531
10.5250,35.30488943
10.5300,35.44343762
10.5350,35.58326108
10.5400,35.72438316
10.5450,35.86706222
10.5500,36.01105314
10.5550,36.15643397
10.5600,36.3033369
10.5650,36.45166995
10.5700,36.60159022
10.5750,36.75305788
10.5800,36.90580323
10.5850,37.06014342
10.5900,37.21589107
10.5950,37.37315727
10.6000,37.53195568
10.6050,37.69225367
10.6100,37.85391374
10.6150,38.01699888
10.6200,38.18163877
10.6250,38.34774837
10.6300,38.5153788
10.6350,38.68468432
10.6400,38.85564044
10.6450,39.02813187
10.6500,39.20210341
10.6550,39.37761494
10.6600,39.55452272
10.6650,39.73280444
10.6700,39.91261993
10.6750,40.09370976
10.6800,40.27599346
10.6850,40.45966065
10.6900,40.64451198
10.6950,40.83035479
10.7000,41.01716255
10.7050,41.20471079
10.7100,41.39260986
10.7150,41.58071461
10.7200,41.76854197
10.7250,41.95589092
10.7300,42.14260623
10.7350,42.32849599
10.7400,42.51367805
10.7450,42.69817084
10.7500,42.88186514
10.7550,43.06469261
10.7600,43.24677939
10.7650,43.42785216
10.7700,43.60770731
10.7750,43.78639103
10.7800,43.96370477
10.7850,44.13983081
10.7900,44.31452801
10.7950,44.48778034
10.8000,44.65975156
10.8050,44.83058061
10.8100,45.00010418
10.8150,45.1684168
10.8200,45.33536162
10.8250,45.5008707
10.8300,45.66528495
10.8350,45.82875913
10.8400,45.99142903
10.8450,46.15343311
10.8500,46.31493956
10.8550,46.47597124
10.8600,46.63652087
10.8650,46.79655848
10.8700,46.95596987
10.8750,47.11507868
10.8800,47.27408543
10.8850,47.43300096
10.8900,47.5920624
10.8950,47.75144629
10.9000,47.91108236
10.9050,48.07098336
10.9100,48.2313421
10.9150,48.39206208
10.9200,48.55275703
10.9250,48.71369642
10.9300,48.87470496
10.9350,49.03564167
10.9400,49.19663111
10.9450,49.35750495
10.9500,49.51818631
10.9550,49.67826138
10.9600,49.83784068
10.9650,49.99676934
10.9700,50.15495779
10.9750,50.31248868
10.9800,50.4691555
10.9850,50.62491233
10.9900,50.77958753
10.9950,50.933457
11.0000,51.08643289
11.0050,51.2388105
11.0100,51.39075379
11.0150,51.54207595
11.0200,51.69283599
11.0250,51.84248113
11.0300,51.99095468
11.0350,52.1379698
11.0400,52.28315019
11.0450,52.42639281
11.0500,52.56773099
11.0550,52.7071695
11.0600,52.84468329
11.0650,52.98057261
11.0700,53.11497606
11.0750,53.24768021
11.0800,53.37874473
11.0850,53.50779562
11.0900,53.6349865
11.0950,53.7601069
11.1000,53.88318642
11.1050,54.00429236
11.1100,54.12370686
11.1150,54.24161778
11.1200,54.35818681
11.1250,54.47346505
11.1300,54.58738112
11.1350,54.69974013
11.1400,54.81037408
11.1450,54.91908597
11.1500,55.02560901
11.1550,55.1296282
11.1600,55.23122359
11.1650,55.33046486
11.1700,55.42752618
11.1750,55.52223559
11.1800,55.61488565
11.1850,55.70547813
11.1900,55.79410404
11.1950,55.88044186
11.2000,55.9643954
11.2050,56.04564381
11.2100,56.12365314
11.2150,56.19818335
11.2200,56.26921607
11.2250,56.3363222
11.2300,56.39965492
11.2350,56.45893834
11.2400,56.51418197
11.2450,56.56533393
11.2500,56.61209686
11.2550,56.65478446
11.2600,56.6932979
11.2650,56.72760666
11.2700,56.75760632
11.2750,56.78313574
11.2800,56.80420423
11.2850,56.82087444
11.2900,56.83334893
11.2950,56.84148736
11.3000,56.84523892
11.3050,56.84448596
11.3100,56.83907419
11.3150,56.8290781
11.3200,56.8147647
11.3250,56.7967028
11.3300,56.7752603
11.3350,56.75072666
11.3400,56.72328475
11.3450,56.69255165
11.3500,56.65832546
11.3550,56.62062443
11.3600,56.57939409
11.3650,56.53467851
11.3700,56.48640795
11.3750,56.43500564
11.3800,56.38056078
11.3850,56.32328558
11.3900,56.26346025
11.3950,56.20148125
11.4000,56.13739882
11.4050,56.07137252
11.4100,56.00331031
11.4150,55.93336601
11.4200,55.86138756
11.4250,55.78751898
11.4300,55.71177534
11.4350,55.63453093
11.4400,55.55584775
11.4450,55.47590229
11.4500,55.39493327
11.4550,55.31329919
11.4600,55.2309377
11.4650,55.147773
11.4700,55.06358611
11.4750,54.97794109
11.4800,54.89058562
11.4850,54.80141297
11.4900,54.71033497
11.4950,54.61779165
11.5000,54.52398496
11.5050,54.42938654
11.5100,54.33447671
11.5150,54.23938652
11.5200,54.14385397
11.5250,54.04777506
11.5300,53.95090392
11.5350,53.85297402
11.5400,53.75379164
11.5450,53.65325169
11.5500,53.55162739
11.5550,53.44902955
11.5600,53.34579503
11.5650,53.24205342
11.5700,53.13764707
11.5750,53.0324504
11.5800,52.92630063
11.5850,52.81890159
11.5900,52.70992257
11.5950,52.59931839
11.6000,52.48726665
11.6050,52.37366442
11.6100,52.25867707
11.6150,52.14221789
11.6200,52.02426155
11.6250,51.9046043
11.6300,51.78284613
11.6350,51.6586541
11.6400,51.53195647
11.6450,51.40303302
11.6500,51.27229531
11.6550,51.1398109
11.6600,51.00563789
11.6650,50.86975223
11.6700,50.73216729
11.6750,50.59279472
11.6800,50.45178564
11.6850,50.30898443
11.6900,50.16440953
11.6950,50.01801849
11.7000,49.86979263
11.7050,49.71972496
11.7100,49.56780751
11.7150,49.41403831
11.7200,49.25849168
11.7250,49.10119393
11.7300,48.94216924
11.7350,48.78127098
11.7400,48.61891097
11.7450,48.45507138
11.7500,48.28990777
11.7550,48.12340318
11.7600,47.95533286
11.7650,47.78578866
11.7700,47.61487821
11.7750,47.44305329
11.7800,47.27033607
11.7850,47.09686934
11.7900,46.92228489
11.7950,46.74633313
11.8000,46.56901315
11.8050,46.38975937
11.8100,46.20836908
11.8150,46.02499366
11.8200,45.84015167
11.8250,45.65395777
11.8300,45.466128
11.8350,45.27630017
11.8400,45.08439528
11.8450,44.89076841
11.8500,44.69544425
11.8550,44.49794408
11.8600,44.29806542
11.8650,44.09556888
11.8700,43.8903284
11.8750,43.68253913
11.8800,43.47227766
11.8850,43.25977266
11.8900,43.04544345
11.8950,42.82934297
11.9000,42.61154964
11.9050,42.39206424
11.9100,42.17083018
11.9150,41.94796394
11.9200,41.72373138
11.9250,41.4982446
11.9300,41.27176791
11.9350,41.04440237
11.9400,40.81622795
11.9450,40.58756314
11.9500,40.35829664
11.9550,40.12872231
11.9600,39.89903722
11.9650,39.66970063
11.9700,39.44101795
11.9750,39.21318912
11.9800,38.98635199
11.9850,38.761157
11.9900,38.53769834
11.9950,38.31615844
12.0000,38.09657462
12.0050,37.87915669
12.0100,37.66394593
12.0150,37.45076949
12.0200,37.23960776
12.0250,37.03053488
12.0300,36.82343921
12.0350,36.61855944
12.0400,36.41561907
12.0450,36.21485073
12.0500,36.01625859
12.0550,35.81979089
12.0600,35.62578965
12.0650,35.43397579
12.0700,35.24426724
12.0750,35.05647674
12.0800,34.87074385
12.0850,34.68686185
12.0900,34.50485232
12.0950,34.32464119
12.1000,34.14616224
12.1050,33.96968878
12.1100,33.79497538
12.1150,33.62184234
12.1200,33.44982409
12.1250,33.27862732
12.1300,33.10823615
12.1350,32.93872113
12.1400,32.76988603
12.1450,32.60116967
12.1500,32.43225637
12.1550,32.26311465
12.1600,32.09357209
12.1650,31.92357666
12.1700,31.75321879
12.1750,31.58227498
12.1800,31.41083034
12.1850,31.23899321
12.1900,31.06661222
12.1950,30.89367145
12.2000,30.7201788
12.2050,30.54624349
12.2100,30.37186915
12.2150,30.19717065
12.2200,30.02200537
12.2250,29.84635596
12.2300,29.67018515
12.2350,29.49372447
12.2400,29.31709534
12.2450,29.14015071
12.2500,28.96295792
12.2550,28.78542665
12.2600,28.6072931
12.2650,28.42828618
12.2700,28.2483807
12.2750,28.06748477
12.2800,27.88542915
12.2850,27.70209123
12.2900,27.51730369
12.2950,27.33108427
12.3000,27.14352834
12.3050,26.9545815
12.3100,26.76443649
12.3150,26.57333035
12.3200,26.38136817
12.3250,26.18860822
12.3300,25.99530227
12.3350,25.80137405
12.3400,25.60671732
12.3450,25.41120382
12.3500,25.21474697
12.3550,25.01725563
12.3600,24.81873186
12.3650,24.61947651
12.3700,24.41965126
12.3750,24.21933219
12.3800,24.0183632
12.3850,23.81695596
12.3900,23.61534798
12.3950,23.41350581
12.4000,23.21174938
12.4050,23.00980618
12.4100,22.80789002
12.4150,22.6062148
12.4200,22.4047295
12.4250,22.2034913
12.4300,22.00258056
12.4350,21.80228036
12.4400,21.60260945
12.4450,21.40392546
12.4500,21.20623068
12.4550,21.0096893
12.4600,20.81433155
12.4650,20.62034938
12.4700,20.42800151
12.4750,20.23741929
12.4800,20.04882161
12.4850,19.86204867
12.4900,19.67749716
12.4950,19.4953155
12.5000,19.31572046
12.5050,19.13872044
12.5100,18.9644691
12.5150,18.79325621
12.5200,18.62510242
12.5250,18.46038842
12.5300,18.29916911
12.5350,18.14151872
12.5400,17.98770428
12.5450,17.83762009
12.5500,17.69137792
12.5550,17.54881912
12.5600,17.41013001
12.5650,17.27541617
12.5700,17.14434214
12.5750,17.01689416
12.5800,16.893113
12.5850,16.77246503
12.5900,16.6549889
12.5950,16.54042013
12.6000,16.42837487
12.6050,16.31857304
12.6100,16.21057509
12.6150,16.10397891
12.6200,15.99860234
12.6250,15.89415776
12.6300,15.79036607
12.6350,15.68707564
12.6400,15.58416194
12.6450,15.48137418
12.6500,15.37857463
12.6550,15.27555065
12.6600,15.17211191
12.6650,15.06789024
12.6700,14.96282728
12.6750,14.85657183
12.6800,14.74937499
12.6850,14.64111226
12.6900,14.53164133
12.6950,14.42114813
12.7000,14.30949863
12.7050,14.19702144
12.7100,14.08392972
12.7150,13.97022047
12.7200,13.8563682
12.7250,13.74270664
12.7300,13.62968829
12.7350,13.51739452
12.7400,13.40628989
12.7450,13.29658065
12.7500,13.18863086
12.7550,13.08274364
12.7600,12.97913579
12.7650,12.87823844
12.7700,12.78028051
12.7750,12.68556997
12.7800,12.59432425
12.7850,12.50697536
12.7900,12.42370983
12.7950,12.34478606
12.8000,12.27030293
12.8050,12.20053952
12.8100,12.13556583
12.8150,12.07542441
12.8200,12.02029868
12.8250,11.97024437
12.8300,11.92526632
12.8350,11.88541078
12.8400,11.85046022
12.8450,11.82048234
12.8500,11.7954863
12.8550,11.77549352
12.8600,11.7605476
12.8650,11.75052503
12.8700,11.74550476
12.8750,11.74529267
12.8800,11.74977596
12.8850,11.75910131
12.8900,11.77305108
12.8950,11.79165461
12.9000,11.81468284
12.9050,11.84216747
12.9100,11.87398568
12.9150,11.91011636
12.9200,11.95051596
12.9250,11.99498956
12.9300,12.04349521
12.9350,12.0957687
12.9400,12.15182671
12.9450,12.21147736
12.9500,12.2747398
12.9550,12.34146836
12.9600,12.41155217
12.9650,12.48505287
12.9700,12.56180839
12.9750,12.64208757
12.9800,12.72545074
12.9850,12.81199744
12.9900,12.90165009
12.9950,12.99446463
13.0000,13.09045755
13.0050,13.18972028
13.0100,13.29219872
13.0150,13.39798751
13.0200,13.50707058
13.0250,13.61950762
13.0300,13.73504932
13.0350,13.85372231
13.0400,13.97549269
13.0450,14.10061552
13.0500,14.22898031
13.0550,14.36054527
13.0600,14.4955265
13.0650,14.63365837
13.0700,14.77506815
13.0750,14.91984258
13.0800,15.06797629
13.0850,15.21957944
13.0900,15.3743859
13.0950,15.53244917
13.1000,15.69373215
13.1050,15.85830042
13.1100,16.02629475
13.1150,16.19756872
13.1200,16.37225915
13.1250,16.55026419
13.1300,16.73165777
13.1350,16.91648085
13.1400,17.10464614
13.1450,17.29630484
13.1500,17.4913597
13.1550,17.68982814
13.1600,17.89144565
13.1650,18.09640439
13.1700,18.30450743
13.1750,18.51581671
13.1800,18.73026885
13.1850,18.94772218
13.1900,19.16817272
13.1950,19.39126729
13.2000,19.61721753
13.2050,19.84559077
13.2100,20.07658125
13.2150,20.30988153
13.2200,20.54534136
13.2250,20.78273148
13.2300,21.0219942
13.2350,21.26291194
13.2400,21.50554052
13.2450,21.74965857
13.2500,21.99510604
13.2550,22.24176573
13.2600,22.48940979
13.2650,22.73789834
13.2700,22.98702183
13.2750,23.23666475
13.2800,23.48679485
13.2850,23.73720841
13.2900,23.98792968
13.2950,24.23897136
13.3000,24.49001018
13.3050,24.74090864
13.3100,24.99169627
13.3150,25.2423585
13.3200,25.4926814
13.3250,25.74263087
13.3300,25.99225764
13.3350,26.24156298
13.3400,26.49041039
13.3450,26.7386465
13.3500,26.98626533
13.3550,27.23319634
13.3600,27.47943235
13.3650,27.72503962
13.3700,27.96980085
13.3750,28.21380284
13.3800,28.45685097
13.3850,28.69894982
13.3900,28.93999287
13.3950,29.18013782
13.4000,29.41949367
13.4050,29.65780532
13.4100,29.89509335
13.4150,30.13152491
13.4200,30.36693029
13.4250,30.60156308
13.4300,30.83546288
13.4350,31.06842812
13.4400,31.30058755
13.4450,31.53190575
13.4500,31.76242812
13.4550,31.99200115
13.4600,32.22091391
13.4650,32.44887788
13.4700,32.67605496
13.4750,32.90244063
13.4800,33.12802909
13.4850,33.35286055
13.4900,33.57697026
13.4950,33.80030669
13.5000,34.02287655
13.5050,34.24476385
13.5100,34.46576856
13.5150,34.6858515
13.5200,34.90504522
13.5250,35.1234745
13.5300,35.34096354
13.5350,35.55759929
13.5400,35.77321656
13.5450,35.98797804
13.5500,36.20165283
13.5550,36.41434085
13.5600,36.62605168
13.5650,36.8367378
13.5700,37.046462
13.5750,37.25509932
13.5800,37.46275773
13.5850,37.66914874
13.5900,37.87443623
13.5950,38.07843852
13.6000,38.28147571
13.6050,38.48361355
13.6100,38.68485809
13.6150,38.88518075
13.6200,39.08435237
13.6250,39.28237906
13.6300,39.47901721
13.6350,39.67425434
13.6400,39.86814706
13.6450,40.06072027
13.6500,40.25204703
13.6550,40.44207093
13.6600,40.63095734
13.6650,40.81864463
13.6700,41.00529684
13.6750,41.19090542
13.6800,41.37566812
13.6850,41.55968825
13.6900,41.74311184
13.6950,41.92584419
13.7000,42.10781295
13.7050,42.28912548
13.7100,42.46992352
13.7150,42.6500365
13.7200,42.82948549
13.7250,43.00777534
13.7300,43.18480755
13.7350,43.36060314
13.7400,43.53493023
13.7450,43.70755762
13.7500,43.87857735
13.7550,44.04834791
13.7600,44.21682551
13.7650,44.38397681
13.7700,44.54968515
13.7750,44.71369218
13.7800,44.87628004
13.7850,45.0373671
13.7900,45.19703742
13.7950,45.35544792
13.8000,45.51278026
13.8050,45.66894318
13.8100,45.82432089
13.8150,45.97887197
13.8200,46.13272363
13.8250,46.28575487
13.8300,46.43824469
13.8350,46.59028354
13.8400,46.74170028
13.8450,46.89217916
13.8500,47.04163213
13.8550,47.18986838
13.8600,47.3367123
13.8650,47.48217154
13.8700,47.62598743
13.8750,47.76788496
13.8800,47.90821289
13.8850,48.04700993
13.8900,48.18425281
13.8950,48.31984949
13.9000,48.45388117
13.9050,48.58633943
13.9100,48.71716762
13.9150,48.84626285
13.9200,48.97373345
13.9250,49.09950969
13.9300,49.22373235
13.9350,49.34653179
13.9400,49.46794669
13.9450,49.58794708
13.9500,49.70633245
13.9550,49.82331226
13.9600,49.93859297
13.9650,50.05228039
13.9700,50.16390558
13.9750,50.27339409
13.9800,50.38053008
13.9850,50.48498311
13.9900,50.58685117
13.9950,50.68583044
14.0000,50.78188174
14.0050,50.8749675
14.0100,50.96496618
14.0150,51.05211066
14.0200,51.13647335
14.0250,51.21828654
14.0300,51.29758639
14.0350,51.3744595
14.0400,51.44907371
14.0450,51.52155971
14.0500,51.59160946
14.0550,51.65871087
14.0600,51.72228923
14.0650,51.78217808
14.0700,51.83823859
14.0750,51.89041353
14.0800,51.93871989
14.0850,51.98333542
14.0900,52.02490335
14.0950,52.06343513
14.1000,52.09894026
14.1050,52.13135986
14.1100,52.16038593
14.1150,52.18633494
14.1200,52.20915606
14.1250,52.22890796
14.1300,52.24549848
14.1350,52.25910532
14.1400,52.26980289
14.1450,52.27796749
14.1500,52.28383319
14.1550,52.28742362
14.1600,52.28886949
14.1650,52.28795373
14.1700,52.28475256
14.1750,52.27992621
14.1800,52.27317025
14.1850,52.26476602
14.1900,52.25464413
14.1950,52.24305022
14.2000,52.23006262
14.2050,52.21593659
14.2100,52.20076381
14.2150,52.18452808
14.2200,52.16752115
14.2250,52.14984262
14.2300,52.13163893
14.2350,52.11280991
14.2400,52.09340265
14.2450,52.07333585
14.2500,52.05267646
14.2550,52.03088337
14.2600,52.00784424
14.2650,51.98278379
14.2700,51.95571846
14.2750,51.92639431
14.2800,51.89488658
14.2850,51.86096461
14.2900,51.8246024
14.2950,51.7856868
14.3000,51.7439622
14.3050,51.69937262
14.3100,51.65200029
14.3150,51.60128348
14.3200,51.54714826
14.3250,51.48957454
14.3300,51.42881604
14.3350,51.36472516
14.3400,51.2971756
14.3450,51.22592561
14.3500,51.15083043
14.3550,51.07170786
14.3600,50.98892206
14.3650,50.90255853
14.3700,50.81314653
14.3750,50.7210421
14.3800,50.62622809
14.3850,50.52871199
14.3900,50.42779169
14.3950,50.32342912
14.4000,50.21541042
14.4050,50.1037599
14.4100,49.98863972
14.4150,49.86999446
14.4200,49.74800742
14.4250,49.62266338
14.4300,49.49412964
14.4350,49.36245258
14.4400,49.22768557
14.4450,49.08976927
14.4500,48.94881353
14.4550,48.80485963
14.4600,48.6581072
14.4650,48.50867773
14.4700,48.35659536
14.4750,48.20160245
14.4800,48.04385656
14.4850,47.88313449
14.4900,47.71973697
14.4950,47.55398247
14.5000,47.38579405
14.5050,47.2154841
14.5100,47.04314784
14.5150,46.86915893
14.5200,46.69362245
14.5250,46.51668278
14.5300,46.33854557
14.5350,46.15951603
14.5400,45.97944174
14.5450,45.79854641
14.5500,45.6169754
14.5550,45.43494068
14.5600,45.25284463
14.5650,45.07123905
14.5700,44.89028567
14.5750,44.71009291
14.5800,44.53066524
14.5850,44.35222489
14.5900,44.17477082
14.5950,43.99836634
14.6000,43.8230006
14.6050,43.64880236
14.6100,43.47565849
14.6150,43.3038582
14.6200,43.13358755
14.6250,42.96483745
14.6300,42.79788028
14.6350,42.63287774
14.6400,42.46985802
14.6450,42.30900046
14.6500,42.15036024
14.6550,41.99416377
14.6600,41.84053967
14.6650,41.6894575
14.6700,41.54053965
14.6750,41.39361145
14.6800,41.24880002
14.6850,41.10578826
14.6900,40.96455387
14.6950,40.82519361
14.7000,40.68779946
14.7050,40.55247035
14.7100,40.41909229
14.7150,40.28776249
14.7200,40.15816033
14.7250,40.03035747
14.7300,39.90420529
14.7350,39.7795563
14.7400,39.65639035
14.7450,39.53471207
14.7500,39.4145361
14.7550,39.29590913
14.7600,39.17866685
14.7650,39.06293445
14.7700,38.9488069
14.7750,38.8362857
14.7800,38.72525925
14.7850,38.61572177
14.7900,38.50752987
14.7950,38.40054337
14.8000,38.2946494
14.8050,38.18952131
14.8100,38.08527787
14.8150,37.98167798
14.8200,37.8786914
14.8250,37.77644571
14.8300,37.67490859
14.8350,37.57396371
14.8400,37.47376007
14.8450,37.37399285
14.8500,37.27476103
14.8550,37.17593084
14.8600,37.07731042
14.8650,36.9788078
14.8700,36.88035982
14.8750,36.78200645
14.8800,36.68374052
14.8850,36.58543575
14.8900,36.48679044
14.8950,36.3877596
14.9000,36.28851148
14.9050,36.18892459
14.9100,36.08880219
14.9150,35.98849152
14.9200,35.88770371
14.9250,35.78661997
14.9300,35.68495989
14.9350,35.58269393
14.9400,35.47977275
14.9450,35.37625088
14.9500,35.27233815
14.9550,35.16807314
14.9600,35.06351478
14.9650,34.95902282
14.9700,34.85466806
14.9750,34.75080522
14.9800,34.64726181
14.9850,34.54424749
14.9900,34.44184969
14.9950,34.34012317
15.0000,34.23898669
15.0050,34.13842028
15.0100,34.03871205
15.0150,33.93971063
15.0200,33.8415426
15.0250,33.74421973
15.0300,33.64768524
15.0350,33.55198303
15.0400,33.45726835
15.0450,33.36335278
15.0500,33.27001722
15.0550,33.17734281
15.0600,33.08517748
15.0650,32.99361379
15.0700,32.90239117
15.0750,32.81152308
15.0800,32.72105837
15.0850,32.63107614
15.0900,32.54159611
15.0950,32.45246485
15.1000,32.36392546
15.1050,32.27598262
15.1100,32.18840403
15.1150,32.10144812
15.1200,32.01497932
15.1250,31.92911893
15.1300,31.84380242
15.1350,31.75886786
15.1400,31.67428575
15.1450,31.59009432
15.1500,31.5059867
15.1550,31.42213721
15.1600,31.33868941
15.1650,31.25563295
15.1700,31.1731688
15.1750,31.09124008
15.1800,31.00965487
15.1850,30.92863579
15.1900,30.84843643
15.1950,30.7689638
15.2000,30.69023759
15.2050,30.61259093
15.2100,30.53634
15.2150,30.46131752
15.2200,30.38779557
15.2250,30.31567065
15.2300,30.24524586
15.2350,30.17647226
15.2400,30.1097784
15.2450,30.04509076
15.2500,29.98260305
15.2550,29.92238982
15.2600,29.86453895
15.2650,29.8090083
15.2700,29.75583644
15.2750,29.70467986
15.2800,29.65566159
15.2850,29.60892601
15.2900,29.56461962
15.2950,29.52277098
15.3000,29.48353421
15.3050,29.44697146
15.3100,29.4129575
15.3150,29.38157135
15.3200,29.3528393
15.3250,29.32673742
15.3300,29.30324535
15.3350,29.28246158
15.3400,29.26439137
15.3450,29.24907696
15.3500,29.23661154
15.3550,29.22677867
15.3600,29.21981945
15.3650,29.21533706
15.3700,29.21350335
15.3750,29.21426741
15.3800,29.21750159
15.3850,29.22331359
15.3900,29.23147326
15.3950,29.24203842
15.4000,29.25487487
15.4050,29.27004446
15.4100,29.28758313
15.4150,29.30721937
15.4200,29.32896894
15.4250,29.35248026
15.4300,29.37762677
15.4350,29.40435495
15.4400,29.43267046
15.4450,29.46246353
15.4500,29.49409305
15.4550,29.5271911
15.4600,29.56181044
15.4650,29.59784943
15.4700,29.63513456
15.4750,29.67374794
15.4800,29.71375093
15.4850,29.75516715
15.4900,29.79796802
15.4950,29.84234197
15.5000,29.88845851
15.5050,29.93588548
15.5100,29.98465806
15.5150,30.03467561
15.5200,30.08614292
15.5250,30.13912517
15.5300,30.19354347
15.5350,30.24959932
15.5400,30.30716406
15.5450,30.36624791
15.5500,30.42698417
15.5550,30.48909779
15.5600,30.5525211
15.5650,30.61707106
15.5700,30.68300298
15.5750,30.75029741
15.5800,30.81901182
15.5850,30.88904558
15.5900,30.96011791
15.5950,31.03232722
15.6000,31.1056357
15.6050,31.17996182
15.6100,31.25544679
15.6150,31.33187407
15.6200,31.40939927
15.6250,31.48811178
15.6300,31.56812083
15.6350,31.64933029
15.6400,31.73162701
15.6450,31.81509181
15.6500,31.89966967
15.6550,31.98557327
15.6600,32.07261967
15.6650,32.16112997
15.6700,32.25109937
15.6750,32.34228086
15.6800,32.4348219
15.6850,32.52867263
15.6900,32.62377756
15.6950,32.72005843
15.7000,32.8173728
15.7050,32.91565177
15.7100,33.01475933
15.7150,33.1147902
15.7200,33.21578054
15.7250,33.31751054
15.7300,33.42007207
15.7350,33.52335234
15.7400,33.6271408
15.7450,33.73161107
15.7500,33.83638002
15.7550,33.94166188
15.7600,34.04724939
15.7650,34.15333441
15.7700,34.26001651
15.7750,34.36732768
15.7800,34.47534581
15.7850,34.5838421
15.7900,34.69303209
15.7950,34.80277932
15.8000,34.9127624
15.8050,35.02313846
15.8100,35.1338795
15.8150,35.24494374
15.8200,35.35618375
15.8250,35.46757845
15.8300,35.5791095
15.8350,35.69081247
15.8400,35.80264566
15.8450,35.91452683
15.8500,36.02639288
15.8550,36.13832014
15.8600,36.25027624
15.8650,36.36221267
15.8700,36.47402531
15.8750,36.58591742
15.8800,36.6975952
15.8850,36.80915656
15.8900,36.92076618
15.8950,37.03239214
15.9000,37.1440197
15.9050,37.25609178
15.9100,37.36866622
15.9150,37.48211691
15.9200,37.59638477
15.9250,37.7115635
15.9300,37.82770818
15.9350,37.94487271
15.9400,38.06315371
15.9450,38.1824442
15.9500,38.30275509
15.9550,38.42382985
15.9600,38.54569702
15.9650,38.66851061
15.9700,38.79256538
15.9750,38.91799349
15.9800,39.04484084
15.9850,39.17302339
15.9900,39.30262165
15.9950,39.43358387
16.0000,39.56583329
16.0050,39.69918681
16.0100,39.83352225
16.0150,39.96879519
16.0200,40.10509096
16.0250,40.24258002
16.0300,40.38122932
16.0350,40.52111983
16.0400,40.66232856
16.0450,40.8047291
16.0500,40.9484385
16.0550,41.09337191
16.0600,41.23948129
16.0650,41.38635761
16.0700,41.53394886
16.0750,41.68204896
16.0800,41.83044092
16.0850,41.97916482
16.0900,42.12780632
16.0950,42.27637264
16.1000,42.42480705
16.1050,42.57321044
16.1100,42.72133696
16.1150,42.86922609
16.1200,43.01667667
16.1250,43.16345167
16.1300,43.30947786
16.1350,43.45441879
16.1400,43.59828281
16.1450,43.74115314
16.1500,43.8825772
16.1550,44.02274001
16.1600,44.16172987
16.1650,44.29970298
16.1700,44.43664318
16.1750,44.57247663
16.1800,44.70738254
16.1850,44.84139803
16.1900,44.97463885
16.1950,45.10693305
16.2000,45.23843365
16.2050,45.36886978
16.2100,45.49813858
16.2150,45.62638445
16.2200,45.75361236
16.2250,45.87982438
16.2300,46.00479011
16.2350,46.1285948
16.2400,46.25147437
16.2450,46.37350911
16.2500,46.49487168
16.2550,46.61573053
16.2600,46.73602882
16.2650,46.85557583
16.2700,46.97394344
16.2750,47.09108437
16.2800,47.20708749
16.2850,47.32191162
16.2900,47.43581383
16.2950,47.54926772
16.3000,47.66245663
16.3050,47.77587758
16.3100,47.88965993
16.3150,48.00348011
16.3200,48.11697088
16.3250,48.23014341
16.3300,48.34268914
16.3350,48.4547576
16.3400,48.56636036
16.3450,48.67754956
16.3500,48.78847114
16.3550,48.89898317
16.3600,49.00944304
16.3650,49.11987656
16.3700,49.23020244
16.3750,49.34025617
16.3800,49.45015532
16.3850,49.5595879
16.3900,49.66853724
16.3950,49.77692738
16.4000,49.88451358
16.4050,49.99125558
16.4100,50.09699523
16.4150,50.2017163
16.4200,50.30560434
16.4250,50.40863464
16.4300,50.51081829
16.4350,50.61246932
16.4400,50.71330203
16.4450,50.81322064
16.4500,50.91236991
16.4550,51.01044597
16.4600,51.10724748
16.4650,51.20254282
16.4700,51.29640987
16.4750,51.38871798
16.4800,51.47934253
16.4850,51.56813825
16.4900,51.65478181
16.4950,51.7391973
16.5000,51.82122012
16.5050,51.90083364
16.5100,51.97815136
16.5150,52.05313233
16.5200,52.1256746
16.5250,52.19560729
16.5300,52.26319727
16.5350,52.32786423
16.5400,52.38906299
16.5450,52.44662657
16.5500,52.50042085
16.5550,52.55055952
16.5600,52.59743815
16.5650,52.64121544
16.5700,52.68200234
16.5750,52.72010024
16.5800,52.75542631
16.5850,52.78786168
16.5900,52.8171166
16.5950,52.84249028
16.6000,52.86384517
16.6050,52.88095108
16.6100,52.89368601
16.6150,52.90216713
16.6200,52.90648208
16.6250,52.90643025
16.6300,52.90232363
16.6350,52.89378102
16.6400,52.88088825
16.6450,52.86370958
16.6500,52.84233146
16.6550,52.81702356
16.6600,52.78751583
16.6650,52.75396843
16.6700,52.71638411
16.6750,52.67462358
16.6800,52.62862252
16.6850,52.57855577
16.6900,52.52443737
16.6950,52.46608346
16.7000,52.40340796
16.7050,52.33636285
16.7100,52.26511939
16.7150,52.18972446
16.7200,52.10993531
16.7250,52.02581913
16.7300,51.93751171
16.7350,51.84467327
16.7400,51.74759384
16.7450,51.64619562
16.7500,51.54059732
16.7550,51.43094242
16.7600,51.31726913
16.7650,51.19995017
16.7700,51.0793841
16.7750,50.9558911
16.7800,50.82979802
16.7850,50.70117263
16.7900,50.57066614
16.7950,50.43877689
16.8000,50.30580185
16.8050,50.17180685
16.8100,50.03683866
16.8150,49.9005652
16.8200,49.76289862
16.8250,49.62369044
16.8300,49.48260692
16.8350,49.33988975
16.8400,49.19576739
16.8450,49.05014497
16.8500,48.90317113
16.8550,48.75477248
16.8600,48.60483866
16.8650,48.45325517
16.8700,48.3002487
16.8750,48.14567293
16.8800,47.98950532
16.8850,47.83209082
16.8900,47.67360727
16.8950,47.5144148
16.9000,47.3546412
16.9050,47.19416061
16.9100,47.03292988
16.9150,46.87109361
16.9200,46.70869829
16.9250,46.54564483
16.9300,46.38204126
16.9350,46.21809413
16.9400,46.05404773
16.9450,45.88973582
16.9500,45.72506742
16.9550,45.55980788
16.9600,45.39401723
16.9650,45.22747145
16.9700,45.0601074
16.9750,44.89202349
16.9800,44.72313789
16.9850,44.5534658
16.9900,44.3829483
16.9950,44.21184526
17.0000,44.0401387
17.0050,43.86770837
17.0100,43.69434414
17.0150,43.51985423
17.0200,43.34404628
17.0250,43.1670185
17.0300,42.98839274
17.0350,42.8083914
17.0400,42.62683904
17.0450,42.44384873
17.0500,42.25949595
17.0550,42.07366358
17.0600,41.88617953
17.0650,41.69693153
17.0700,41.50549917
17.0750,41.31174615
17.0800,41.11593278
17.0850,40.91814946
17.0900,40.71825057
17.0950,40.51602718
17.1000,40.31178409
17.1050,40.10553497
17.1100,39.89740327
17.1150,39.68741492
17.1200,39.47570428
17.1250,39.26246779
17.1300,39.04778311
17.1350,38.83183176
17.1400,38.61453501
17.1450,38.39605175
17.1500,38.17659462
17.1550,37.95627805
17.1600,37.73520829
17.1650,37.51347153
17.1700,37.2909878
17.1750,37.06804331
17.1800,36.84479185
17.1850,36.62106195
17.1900,36.39701573
17.1950,36.17277379
17.2000,35.94813507
17.2050,35.72342254
17.2100,35.49856454
17.2150,35.27381495
17.2200,35.04895933
17.2250,34.82450512
17.2300,34.60009161
17.2350,34.37598655
17.2400,34.1519078
17.2450,33.92787543
17.2500,33.70384237
17.2550,33.47991167
17.2600,33.25596315
17.2650,33.03191552
17.2700,32.80777815
17.2750,32.58349672
17.2800,32.35909462
17.2850,32.13463516
17.2900,31.91002233
17.2950,31.68510856
17.3000,31.45996058
17.3050,31.23453247
17.3100,31.0090844
17.3150,30.78373122
17.3200,30.55864018
17.3250,30.33372704
17.3300,30.10920993
17.3350,29.88498975
17.3400,29.661352
17.3450,29.43809917
17.3500,29.21522675
17.3550,28.99289063
17.3600,28.77134177
17.3650,28.55066055
17.3700,28.33111938
17.3750,28.1127753
17.3800,27.89560961
17.3850,27.6796006
17.3900,27.46498638
17.3950,27.25167025
17.4000,27.03936723
17.4050,26.82845407
17.4100,26.6186502
17.4150,26.40996691
17.4200,26.20244146
17.4250,25.99592119
17.4300,25.7905452
17.4350,25.58605369
17.4400,25.3824752
17.4450,25.17984726
17.4500,24.97804948
17.4550,24.77707061
17.4600,24.57692238
17.4650,24.37755449
17.4700,24.1790422
17.4750,23.98127146
17.4800,23.78417915
17.4850,23.58774417
17.4900,23.39172825
17.4950,23.19614467
17.5000,23.00093576
17.5050,22.80604524
17.5100,22.61150174
17.5150,22.41710255
17.5200,22.22276901
17.5250,22.02826946
17.5300,21.83359777
17.5350,21.63859608
17.5400,21.44320209
17.5450,21.24761153
17.5500,21.05171908
17.5550,20.85562968
17.5600,20.65946283
17.5650,20.46339136
17.5700,20.26767298
17.5750,20.07243369
17.5800,19.87768164
17.5850,19.68343312
17.5900,19.48978986
17.5950,19.29692711
17.6000,19.10510636
17.6050,18.91422101
17.6100,18.72432533
17.6150,18.5356541
17.6200,18.34805195
17.6250,18.16171791
17.6300,17.97668695
17.6350,17.79307796
17.6400,17.61075439
17.6450,17.43021244
17.6500,17.2513528
17.6550,17.07417336
17.6600,16.89871793
17.6650,16.72498199
17.6700,16.55304095
17.6750,16.38302778
17.6800,16.21507673
17.6850,16.04936774
17.6900,15.88575094
17.6950,15.72441837
17.7000,15.56539945
17.7050,15.40843453
17.7100,15.25373154
17.7150,15.1012226
17.7200,14.95082293
17.7250,14.80262145
17.7300,14.65647861
17.7350,14.51244061
17.7400,14.37035578
17.7450,14.23020386
17.7500,14.09177921
17.7550,13.95507402
17.7600,13.81989184
17.7650,13.6862561
17.7700,13.55423984
17.7750,13.42363884
17.7800,13.29455608
17.7850,13.16700302
17.7900,13.04115133
17.7950,12.91679365
17.8000,12.79410916
17.8050,12.67292199
17.8100,12.55317376
17.8150,12.43494173
17.8200,12.31822846
17.8250,12.20311725
17.8300,12.08964796
17.8350,11.97779374
17.8400,11.86770529
17.8450,11.75915375
17.8500,11.65220833
17.8550,11.5466472
17.8600,11.44254694
17.8650,11.33976169
17.8700,11.23798942
17.8750,11.13724177
17.8800,11.03759531
17.8850,10.93902674
17.8900,10.84161146
17.8950,10.74527877
17.9000,10.6498298
17.9050,10.55561062
17.9100,10.46245789
17.9150,10.37015897
17.9200,10.2788949
17.9250,10.18869122
17.9300,10.09942475
17.9350,10.01126378
17.9400,9.92407411
17.9450,9.837809114
17.9500,9.752408814
17.9550,9.667805329
17.9600,9.583825645
17.9650,9.500545419
17.9700,9.417721299
17.9750,9.335435063
17.9800,9.2534485
17.9850,9.171771035
17.9900,9.09048351
17.9950,9.009735349
18.0000,8.929627659
18.0050,8.850315627
18.0100,8.772158963
18.0150,8.695156375
18.0200,8.619591717
18.0250,8.545658994
18.0300,8.473591703
18.0350,8.403633267
18.0400,8.336190671
18.0450,8.271385594
18.0500,8.209387596
18.0550,8.150472734
18.0600,8.094801028
18.0650,8.042573886
18.0700,7.993577571
18.0750,7.948195012
18.0800,7.906079039
18.0850,7.86716457
18.0900,7.831236358
18.0950,7.798220392
18.1000,7.767929048
18.1050,7.740226837
18.1100,7.715102248
18.1150,7.692276881
18.1200,7.671872963
18.1250,7.653477506
18.1300,7.637160656
18.1350,7.622908604
18.1400,7.610798878
18.1450,7.600815924
18.1500,7.593071346
18.1550,7.587688908
18.1600,7.584637
18.1650,7.584021026
18.1700,7.585984234
18.1750,7.590500788
18.1800,7.597603325
18.1850,7.607282414
18.1900,7.619465216
18.1950,7.634184978
18.2000,7.651608438
18.2050,7.671670866
18.2100,7.694300418
18.2150,7.719643642
18.2200,7.747573785
18.2250,7.777951198
18.2300,7.810895008
18.2350,7.846080092
18.2400,7.883529288
18.2450,7.923241586
18.2500,7.965294442
18.2550,8.009642962
18.2600,8.056303553
18.2650,8.105252079
18.2700,8.156702933
18.2750,8.210482411
18.2800,8.266836663
18.2850,8.325763011
18.2900,8.387275139
18.2950,8.451468617
18.3000,8.51855264
18.3050,8.588609484
18.3100,8.661441727
18.3150,8.737592369
18.3200,8.816929925
18.3250,8.899455934
18.3300,8.985243132
18.3350,9.074161043
18.3400,9.166404236
18.3450,9.26183318
18.3500,9.360589894
18.3550,9.462588994
18.3600,9.567784658
18.3650,9.675930432
18.3700,9.787219588
18.3750,9.901429402
18.3800,10.01860056
18.3850,10.13872761
18.3900,10.26188254
18.3950,10.38784565
18.4000,10.51659569
18.4050,10.64810144
18.4100,10.78224468
18.4150,10.91917106
18.4200,11.05868348
18.4250,11.20087752
18.4300,11.34560907
18.4350,11.49286288
18.4400,11.64251953
18.4450,11.79452083
18.4500,11.94868891
18.4550,12.10520619
18.4600,12.26383778
18.4650,12.42452051
18.4700,12.58731161
18.4750,12.75211347
18.4800,12.9189439
18.4850,13.08773461
18.4900,13.25856533
18.4950,13.43134813
18.5000,13.60601711
18.5050,13.7823074
18.5100,13.96023108
18.5150,14.13957967
18.5200,14.32037631
18.5250,14.50258986
18.5300,14.68607793
18.5350,14.87089894
18.5400,15.05715557
18.5450,15.2445836
18.5500,15.43328036
18.5550,15.62311083
18.5600,15.81422648
18.5650,16.00650798
18.5700,16.19999397
18.5750,16.39477535
18.5800,16.59082707
18.5850,16.78820298
18.5900,16.98703898
18.5950,17.18717921
18.6000,17.38860873
18.6050,17.59137826
18.6100,17.795567
18.6150,18.00107436
18.6200,18.20802497
18.6250,18.41639658
18.6300,18.62642614
18.6350,18.8381451
18.6400,19.05139397
18.6450,19.26642321
18.6500,19.48306687
18.6550,19.70140372
18.6600,19.92137897
18.6650,20.14312613
18.6700,20.36642573
18.6750,20.59123697
18.6800,20.81764647
18.6850,21.0456173
18.6900,21.27495983
18.6950,21.50586079
18.7000,21.73835232
18.7050,21.97224958
18.7100,22.20764565
18.7150,22.44448676
18.7200,22.68276465
18.7250,22.92232884
18.7300,23.16316631
18.7350,23.40523084
18.7400,23.64837693
18.7450,23.89261728
18.7500,24.13804445
18.7550,24.38440093
18.7600,24.63169974
18.7650,24.87980577
18.7700,25.12837889
18.7750,25.37748009
18.7800,25.62673553
18.7850,25.87637842
18.7900,26.12608767
18.7950,26.37592874
18.8000,26.62572297
18.8050,26.87554708
18.8100,27.1253533
18.8150,27.37521654
18.8200,27.62498944
18.8250,27.87456147
18.8300,28.12409161
18.8350,28.37349839
18.8400,28.62289304
18.8450,28.87219609
18.8500,29.1214232
18.8550,29.37067872
18.8600,29.61981623
18.8650,29.86883099
18.8700,30.11764587
18.8750,30.36638752
18.8800,30.61485798
18.8850,30.86312543
18.8900,31.11105249
18.8950,31.35866732
18.9000,31.60590852
18.9050,31.85277772
18.9100,32.09938772
18.9150,32.34576222
18.9200,32.59196682
18.9250,32.83808566
18.9300,33.08414727
18.9350,33.3303387
18.9400,33.57682639
18.9450,33.82360811
18.9500,34.07088788
18.9550,34.31853123
18.9600,34.56675903
18.9650,34.81556866
18.9700,35.06500819
18.9750,35.31495659
18.9800,35.56528848
18.9850,35.8159932
18.9900,36.06705462
18.9950,36.31826579
19.0000,36.56952977
19.0050,36.82092252
19.0100,37.07242057
19.0150,37.32373854
19.0200,37.57491463
19.0250,37.82586839
19.0300,38.0764578
19.0350,38.32669847
19.0400,38.57656657
19.0450,38.82591982
19.0500,39.07471161
19.0550,39.32287005
19.0600,39.57051322
19.0650,39.81783247
19.0700,40.06485726
19.0750,40.31141071
19.0800,40.55767914
19.0850,40.80332449
19.0900,41.04850274
19.0950,41.29290959
19.1000,41.53634556
19.1050,41.77880043
19.1100,42.0202152
19.1150,42.2606282
19.1200,42.49985519
19.1250,42.73779168
19.1300,42.97423483
19.1350,43.20909209
19.1400,43.44234942
19.1450,43.67413339
19.1500,43.90426756
19.1550,44.13274143
19.1600,44.359669
19.1650,44.58494003
19.1700,44.80864052
19.1750,45.03051597
19.1800,45.25061572
19.1850,45.46913239
19.1900,45.68625353
19.1950,45.90220629
19.2000,46.11694917
19.2050,46.33036347
19.2100,46.54228845
19.2150,46.75246697
19.2200,46.96071155
19.2250,47.16717592
19.2300,47.37156314
19.2350,47.57392625
19.2400,47.77402087
19.2450,47.97179813
19.2500,48.16713462
19.2550,48.36002212
19.2600,48.55028375
19.2650,48.73791013
19.2700,48.92277484
19.2750,49.10515476
19.2800,49.28508321
19.2850,49.46279922
19.2900,49.63834938
19.2950,49.8118584
19.3000,49.98301171
19.3050,50.15177927
19.3100,50.31801521
19.3150,50.48158435
19.3200,50.64240261
19.3250,50.80048653
19.3300,50.95599991
19.3350,51.10866802
19.3400,51.25854043
19.3450,51.40570691
19.3500,51.5498008
19.3550,51.69086955
19.3600,51.8287957
19.3650,51.96333892
19.3700,52.09466451
19.3750,52.22299066
19.3800,52.34826266
19.3850,52.47034507
19.3900,52.58920518
19.3950,52.70519857
19.4000,52.81819021
19.4050,52.92794115
19.4100,53.03428138
19.4150,53.13702599
19.4200,53.23612985
19.4250,53.33203608
19.4300,53.42475549
19.4350,53.51421223
19.4400,53.60005162
19.4450,53.68217041
19.4500,53.76070096
19.4550,53.83572526
19.4600,53.90709718
19.4650,53.97460182
19.4700,54.03800474
19.4750,54.09729035
19.4800,54.15250905
19.4850,54.20319895
19.4900,54.24935825
19.4950,54.29060508
19.5000,54.3270379
19.5050,54.35876745
19.5100,54.38594915
19.5150,54.40896295
19.5200,54.42806907
19.5250,54.44327451
19.5300,54.45449868
19.5350,54.46197604
19.5400,54.46622292
19.5450,54.46715007
19.5500,54.46487231
19.5550,54.45915385
19.5600,54.44993964
19.5650,54.43737295
19.5700,54.42157197
19.5750,54.40234516
19.5800,54.37951908
19.5850,54.35296988
19.5900,54.32268865
19.5950,54.28850464
19.6000,54.25043337
19.6050,54.20862746
19.6100,54.16314957
19.6150,54.11457099
19.6200,54.06286965
19.6250,54.0080064
19.6300,53.94985001
19.6350,53.88853084
19.6400,53.82440249
19.6450,53.75758249
19.6500,53.68816583
19.6550,53.61613522
19.6600,53.5413936
19.6650,53.46430804
19.6700,53.38472329
19.6750,53.30232744
19.6800,53.21736223
19.6850,53.12966133
19.6900,53.03938224
19.6950,52.94606345
19.7000,52.84990025
19.7050,52.75070343
19.7100,52.64864291
19.7150,52.54346619
19.7200,52.43539493
19.7250,52.32417363
19.7300,52.20974985
19.7350,52.09234122
19.7400,51.97210223
19.7450,51.84904819
19.7500,51.72300145
19.7550,51.59397911
19.7600,51.46190031
19.7650,51.32733083
19.7700,51.19050484
19.7750,51.05174002
19.7800,50.9108664
19.7850,50.76834995
19.7900,50.62443969
19.7950,50.47945766
19.8000,50.33377201
19.8050,50.18723667
19.8100,50.0399594
19.8150,49.89177238
19.8200,49.74260976
19.8250,49.59255272
19.8300,49.44179937
19.8350,49.29027367
19.8400,49.13795499
19.8450,48.98524793
19.8500,48.83254828
19.8550,48.68019225
19.8600,48.52849855
19.8650,48.37743687
19.8700,48.22729229
19.8750,48.07819693
19.8800,47.9304674
19.8850,47.78423821
19.8900,47.63950388
19.8950,47.49647121
19.9000,47.35571463
19.9050,47.2172014
19.9100,47.08090931
19.9150,46.94660573
19.9200,46.81445524
19.9250,46.68489451
19.9300,46.55796874
19.9350,46.43351046
19.9400,46.31124304
19.9450,46.19072687
19.9500,46.07177272
19.9550,45.95421479
19.9600,45.83784436
19.9650,45.72223609
19.9700,45.60740185
19.9750,45.49321851
19.9800,45.37916041
19.9850,45.26532498
19.9900,45.15153907
19.9950,45.03762591
20.0000,44.92341211
20.0050,44.80871953
20.0100,44.69310091
20.0150,44.5768765
20.0200,44.45959667
20.0250,44.34114382
20.0300,44.22127307
20.0350,44.09982496
20.0400,43.97677571
20.0450,43.85206568
20.0500,43.72582856
20.0550,43.59777262
20.0600,43.46793258
20.0650,43.33609207
20.0700,43.20231753
20.0750,43.06640304
20.0800,42.92835815
20.0850,42.78798623
20.0900,42.64501891
20.0950,42.49949022
20.1000,42.35121661
20.1050,42.20040198
20.1100,42.04715743
20.1150,41.89166201
20.1200,41.73400237
20.1250,41.57437014
20.1300,41.41271224
20.1350,41.24915271
20.1400,41.08361635
20.1450,40.91618499
20.1500,40.74687211
20.1550,40.57589241
20.1600,40.40347647
20.1650,40.22964577
20.1700,40.05442939
20.1750,39.87804104
20.1800,39.70065777
20.1850,39.52236912
20.1900,39.34351697
20.1950,39.16405926
20.2000,38.98404019
20.2050,38.80362391
20.2100,38.62305771
20.2150,38.44247865
20.2200,38.26195516
20.2250,38.08136531
20.2300,37.90072777
20.2350,37.7200951
20.2400,37.53960955
20.2450,37.35958592
20.2500,37.1801851
20.2550,37.00148084
20.2600,36.82374597
20.2650,36.64687269
20.2700,36.4705879
20.2750,36.29506544
20.2800,36.12050558
20.2850,35.94675646
20.2900,35.77380426
20.2950,35.60177785
20.3000,35.43061159
20.3050,35.2601925
20.3100,35.09080789
20.3150,34.92213343
20.3200,34.75430856
20.3250,34.58739078
20.3300,34.4215865
20.3350,34.25678433
20.3400,34.09289088
20.3450,33.92998411
20.3500,33.7680177
20.3550,33.60724575
20.3600,33.44767352
20.3650,33.28947629
20.3700,33.13245453
20.3750,32.97651397
20.3800,32.82165986
20.3850,32.66785082
20.3900,32.51508548
20.3950,32.36338503
20.4000,32.21283783
20.4050,32.0634425
20.4100,31.91509135
20.4150,31.76772984
20.4200,31.62138598
20.4250,31.47584108
20.4300,31.331264
20.4350,31.18771065
20.4400,31.04519746
20.4450,30.903662
20.4500,30.7631205
20.4550,30.62335774
20.4600,30.48435344
20.4650,30.34615897
20.4700,30.20891642
20.4750,30.07273506
20.4800,29.93762986
20.4850,29.80361502
20.4900,29.67051291
20.4950,29.53866638
20.5000,29.40812361
20.5050,29.2788137
20.5100,29.15082683
20.5150,29.02421299
20.5200,28.89886798
20.5250,28.7747997
20.5300,28.6520483
20.5350,28.5308492
20.5400,28.41115172
20.5450,28.29295809
20.5500,28.17618342
20.5550,28.06081062
20.5600,27.94682456
20.5650,27.83435449
20.5700,27.72350294
20.5750,27.61433423
20.5800,27.50679561
20.5850,27.40108695
20.5900,27.29716173
20.5950,27.19511102
20.6000,27.09498276
20.6050,26.99681476
20.6100,26.90073663
20.6150,26.80667378
20.6200,26.71459075
20.6250,26.62439441
20.6300,26.53603108
20.6350,26.44943184
20.6400,26.36459217
20.6450,26.28126814
20.6500,26.19933986
20.6550,26.11856099
20.6600,26.03883258
20.6650,25.95981085
20.6700,25.88143124
20.6750,25.80359091
20.6800,25.72619101
20.6850,25.64913553
20.6900,25.57245741
20.6950,25.49597576
20.7000,25.41956244
20.7050,25.34306834
20.7100,25.26659734
20.7150,25.1900971
20.7200,25.11357828
20.7250,25.03718505
20.7300,24.96099323
20.7350,24.8850199
20.7400,24.80934703
20.7450,24.73383463
20.7500,24.65862278
20.7550,24.5838734
20.7600,24.50963974
20.7650,24.43578778
20.7700,24.36235216
20.7750,24.28945334
20.7800,24.21712625
20.7850,24.14578907
20.7900,24.07547612
20.7950,24.00623725
20.8000,23.93814919
20.8050,23.87151754
20.8100,23.80653757
20.8150,23.74330361
20.8200,23.68208528
20.8250,23.62298414
20.8300,23.56626758
20.8350,23.51206496
20.8400,23.46034551
20.8450,23.41121774
20.8500,23.36492017
20.8550,23.32153728
20.8600,23.28094408
20.8650,23.24318572
20.8700,23.20811916
20.8750,23.17578698
20.8800,23.14613432
20.8850,23.11915561
20.8900,23.09482861
20.8950,23.07294493
20.9000,23.05333148
20.9050,23.03611831
20.9100,23.02113268
20.9150,23.00843643
20.9200,22.99817423
20.9250,22.99026077
20.9300,22.98478272
20.9350,22.98185005
20.9400,22.9815006
20.9450,22.98371253
20.9500,22.98859948
20.9550,22.99614544
20.9600,23.00619295
20.9650,23.01891876
20.9700,23.03412566
20.9750,23.05194167
20.9800,23.07228519
20.9850,23.09518396
20.9900,23.12043268
20.9950,23.14797649
21.0000,23.17772564
21.0050,23.20955626
21.0100,23.24328426
21.0150,23.27912069
21.0200,23.31682219
21.0250,23.3564359
21.0300,23.39774899
21.0350,23.4407767
21.0400,23.48544077
21.0450,23.53184103
21.0500,23.57994011
21.0550,23.62953108
21.0600,23.6806154
21.0650,23.73345025
21.0700,23.78794492
21.0750,23.84395201
21.0800,23.90138782
21.0850,23.96008897
21.0900,24.01996072
21.0950,24.08100584
21.1000,24.14305571
21.1050,24.20597102
21.1100,24.26956258
21.1150,24.33391229
21.1200,24.39892845
21.1250,24.46449775
21.1300,24.53068203
21.1350,24.59731985
21.1400,24.66465793
21.1450,24.7326345
21.1500,24.80126929
21.1550,24.87075854
21.1600,24.94115592
21.1650,25.01258296
21.1700,25.08532896
21.1750,25.15931525
21.1800,25.23479519
21.1850,25.31168864
21.1900,25.39014297
21.1950,25.47018345
21.2000,25.55210247
21.2050,25.63596291
21.2100,25.72172424
21.2150,25.80968764
21.2200,25.89985152
21.2250,25.99246873
21.2300,26.0874968
21.2350,26.18503344
21.2400,26.28507518
21.2450,26.38804859
21.2500,26.49387788
21.2550,26.60278782
21.2600,26.71490439
21.2650,26.8302748
21.2700,26.94919559
21.2750,27.07167417
21.2800,27.19789862
21.2850,27.32774122
21.2900,27.46131167
21.2950,27.59866815
21.3000,27.73960743
21.3050,27.88439685
21.3100,28.03296448
21.3150,28.18525715
21.3200,28.34158857
21.3250,28.50158303
21.3300,28.66541185
21.3350,28.83304243
21.3400,29.00443681
21.3450,29.17945325
21.3500,29.35781557
21.3550,29.53967218
21.3600,29.72496761
21.3650,29.91351036
21.3700,30.10519028
21.3750,30.30008235
21.3800,30.49832331
21.3850,30.69959666
21.3900,30.90406466
21.3950,31.11156247
21.4000,31.32212176
21.4050,31.53548771
21.4100,31.75175023
21.4150,31.97069986
21.4200,32.1921415
21.4250,32.41608221
21.4300,32.6422824
21.4350,32.8708057
21.4400,33.10144994
21.4450,33.33432392
21.4500,33.56941872
21.4550,33.80652826
21.4600,34.04584616
21.4650,34.28717545
21.4700,34.53051889
21.4750,34.77584144
21.4800,35.02298269
21.4850,35.27203073
21.4900,35.52293288
21.4950,35.77560277
21.5000,36.0298647
21.5050,36.28573359
21.5100,36.54317957
21.5150,36.80206855
21.5200,37.0621899
21.5250,37.32359069
21.5300,37.58631933
21.5350,37.8503816
21.5400,38.11567909
21.5450,38.38187747
21.5500,38.64870952
21.5550,38.91629254
21.5600,39.18438395
21.5650,39.45271589
21.5700,39.72121569
21.5750,39.98972845
21.5800,40.25821246
21.5850,40.526564
21.5900,40.7947425
21.5950,41.06274546
21.6000,41.33100358
21.6050,41.59929723
21.6100,41.86754907
21.6150,42.13552431
21.6200,42.40304724
21.6250,42.67002723
21.6300,42.93636387
21.6350,43.2016086
21.6400,43.46574804
21.6450,43.7288563
21.6500,43.99091672
21.6550,44.25177749
21.6600,44.51135903
21.6650,44.76966106
21.6700,45.02686585
21.6750,45.28287261
21.6800,45.53759603
21.6850,45.79090193
21.6900,46.04262925
21.6950,46.2925637
21.7000,46.54059825
21.7050,46.78706311
21.7100,47.03177165
21.7150,47.27463306
21.7200,47.51558794
21.7250,47.75463928
21.7300,47.99171039
21.7350,48.22681299
21.7400,48.45988882
21.7450,48.69060586
21.7500,48.91879871
21.7550,49.14449541
21.7600,49.36756129
21.7650,49.5879892
21.7700,49.80550267
21.7750,50.02005934
21.7800,50.23166315
21.7850,50.43994449
21.7900,50.64460193
21.7950,50.84556149
21.8000,51.04282633
21.8050,51.23612817
21.8100,51.42540796
21.8150,51.61064755
21.8200,51.79179797
21.8250,51.96867771
21.8300,52.14108011
21.8350,52.30857806
21.8400,52.47100515
21.8450,52.62822717
21.8500,52.78054743
21.8550,52.92733986
21.8600,53.06872123
21.8650,53.20441122
21.8700,53.33438756
21.8750,53.45890429
21.8800,53.57814241
21.8850,53.69225197
21.8900,53.80105212
21.8950,53.90427249
21.9000,54.00123539
21.9050,54.09156765
21.9100,54.17513282
21.9150,54.25159516
21.9200,54.32070356
21.9250,54.38249643
21.9300,54.43658079
21.9350,54.4831348
21.9400,54.52166328
21.9450,54.55255662
21.9500,54.57600089
21.9550,54.59228078
21.9600,54.60151734
21.9650,54.60398599
21.9700,54.59955295
21.9750,54.58831336
21.9800,54.57049317
21.9850,54.54651994
21.9900,54.51675688
21.9950,54.48149105
22.0000,54.44097061
22.0050,54.39508892
22.0100,54.34447547
22.0150,54.2896352
22.0200,54.23120179
22.0250,54.16936229
22.0300,54.10443904
22.0350,54.03657743
22.0400,53.96588522
22.0450,53.89261969
22.0500,53.81694897
22.0550,53.739055
22.0600,53.65898642
22.0650,53.57698423
22.0700,53.49302129
22.0750,53.40715855
22.0800,53.31943292
22.0850,53.22987718
22.0900,53.13869001
22.0950,53.04606006
22.1000,52.9522258
22.1050,52.85727091
22.1100,52.76119388
22.1150,52.66348543
22.1200,52.56353331
22.1250,52.4608061
22.1300,52.35528664
22.1350,52.24679981
22.1400,52.13523641
22.1450,52.02052452
22.1500,51.90251305
22.1550,51.78106723
22.1600,51.65606044
22.1650,51.52732653
22.1700,51.39470927
22.1750,51.25740218
22.1800,51.11495381
22.1850,50.96735901
22.1900,50.81482719
22.1950,50.65756674
22.2000,50.49564307
22.2050,50.32931224
22.2100,50.15846531
22.2150,49.98305636
22.2200,49.80308444
22.2250,49.61835116
22.2300,49.42878372
22.2350,49.23456548
22.2400,49.03555669
22.2450,48.83154554
22.2500,48.62258045
22.2550,48.40860063
22.2600,48.18946279
22.2650,47.96499365
22.2700,47.73535619
22.2750,47.50067096
22.2800,47.2608315
22.2850,47.01626891
22.2900,46.76727279
22.2950,46.51427664
22.3000,46.25754064
22.3050,45.99743267
22.3100,45.73395579
22.3150,45.46722029
22.3200,45.19739336
22.3250,44.92488305
22.3300,44.64978275
22.3350,44.37230056
22.3400,44.09270122
22.3450,43.81108525
22.3500,43.52786096
22.3550,43.24323692
22.3600,42.95708805
22.3650,42.66950493
22.3700,42.38071329
22.3750,42.0909899
22.3800,41.80033577
22.3850,41.50895415
22.3900,41.2170415
22.3950,40.92455996
22.4000,40.63152537
22.4050,40.33819691
22.4100,40.04451532
22.4150,39.75076208
22.4200,39.45757737
22.4250,39.16517514
22.4300,38.87336504
22.4350,38.58224458
22.4400,38.2920926
22.4450,38.00298461
22.4500,37.71491166
22.4550,37.42815501
22.4600,37.14274126
22.4650,36.85875117
22.4700,36.57632342
22.4750,36.29568007
22.4800,36.01697027
22.4850,35.73974649
22.4900,35.46405303
22.4950,35.18951225
22.5000,34.91615919
22.5050,34.64388029
22.5100,34.37280613
22.5150,34.10291063
22.5200,33.83436303
22.5250,33.56712936
22.5300,33.30129603
22.5350,33.03692221
22.5400,32.77426573
22.5450,32.5131522
22.5500,32.25335922
22.5550,31.9948511
22.5600,31.73768852
22.5650,31.4821762
22.5700,31.22827803
22.5750,30.97610871
22.5800,30.72567898
22.5850,30.47705162
22.5900,30.23014711
22.5950,29.98493319
22.6000,29.74140692
22.6050,29.49956599
22.6100,29.25928667
22.6150,29.0208606
22.6200,28.78425383
22.6250,28.54936642
22.6300,28.31634522
22.6350,28.08517764
22.6400,27.85599173
22.6450,27.62869417
22.6500,27.40308861
22.6550,27.17908657
22.6600,26.956877
22.6650,26.73645912
22.6700,26.51777237
22.6750,26.30055148
22.6800,26.08479661
22.6850,25.87037047
22.6900,25.65718081
22.6950,25.44512939
22.7000,25.23409412
22.7050,25.02390912
22.7100,24.81472708
22.7150,24.60631978
22.7200,24.3982914
22.7250,24.19075515
22.7300,23.98360845
22.7350,23.77670855
22.7400,23.5700871
22.7450,23.36350113
22.7500,23.15695973
22.7550,22.95043126
22.7600,22.74390622
22.7650,22.53735614
22.7700,22.33097653
22.7750,22.12474281
22.7800,21.91852247
22.7850,21.71281818
22.7900,21.50760191
22.7950,21.3028977
22.8000,21.09891527
22.8050,20.8957827
22.8100,20.69346953
22.8150,20.49222017
22.8200,20.29190129
22.8250,20.09288324
22.8300,19.89515485
22.8350,19.69863385
22.8400,19.5035927
22.8450,19.31007162
22.8500,19.11821277
22.8550,18.92824702
22.8600,18.74031222
22.8650,18.55432465
22.8700,18.37043869
22.8750,18.18852237
22.8800,18.00883569
22.8850,17.83128031
22.8900,17.65598183
22.8950,17.48291829
22.9000,17.31218676
22.9050,17.14393113
22.9100,16.97801401
22.9150,16.81439611
22.9200,16.65299908
22.9250,16.49387739
22.9300,16.33690148
22.9350,16.18205945
22.9400,16.02909734
22.9450,15.87808459
22.9500,15.72904868
22.9550,15.58189611
22.9600,15.43655032
22.9650,15.2931664
22.9700,15.15168411
22.9750,15.01199803
22.9800,14.87422548
22.9850,14.738224
22.9900,14.60392441
22.9950,14.47144179
23.0000,14.34070569
23.0050,14.2114375
23.0100,14.08366852
23.0150,13.95746369
23.0200,13.83275443
23.0250,13.7094377
23.0300,13.58756125
23.0350,13.4671743
23.0400,13.34802338
23.0450,13.23013651
23.0500,13.11349911
23.0550,12.99797481
23.0600,12.88349405
23.0650,12.77006868
23.0700,12.65751209
23.0750,12.54577091
23.0800,12.43493236
23.0850,12.32487995
23.0900,12.21557911
23.0950,12.10717362
23.1000,11.99968899
23.1050,11.89303096
23.1100,11.78737898
23.1150,11.68254488
23.1200,11.57889484
23.1250,11.47606939
23.1300,11.37418768
23.1350,11.27348183
23.1400,11.1736903
23.1450,11.07502549
23.1500,10.97761595
23.1550,10.88150951
23.1600,10.78656196
23.1650,10.69300424
23.1700,10.60075041
23.1750,10.50971338
23.1800,10.42003009
23.1850,10.33158115
23.1900,10.24441147
23.1950,10.15856813
23.2000,10.07406558
23.2050,9.990841606
23.2100,9.909157227
23.2150,9.82897437
23.2200,9.750443114
23.2250,9.673532865
23.2300,9.598343358
23.2350,9.524913609
23.2400,9.453405196
23.2450,9.3839746
23.2500,9.316465729
23.2550,9.250961065
23.2600,9.187461906
23.2650,9.12588304
23.2700,9.066212632
23.2750,9.008715444
23.2800,8.953401559
23.2850,8.900305932
23.2900,8.849434403
23.2950,8.800524868
23.3000,8.753544374
23.3050,8.708735394
23.3100,8.665902744
23.3150,8.624944876
23.3200,8.585967938
23.3250,8.548755035
23.3300,8.513326343
23.3350,8.479738742
23.3400,8.447914949
23.3450,8.417945182
23.3500,8.389752987
23.3550,8.363353703
23.3600,8.338588638
23.3650,8.315676825
23.3700,8.294654536
23.3750,8.275253798
23.3800,8.257657378
23.3850,8.241789354
23.3900,8.22765024
23.3950,8.215254129
23.4000,8.204356839
23.4050,8.195120057
23.4100,8.187483415
23.4150,8.18145082
23.4200,8.176672208
23.4250,8.173383059
23.4300,8.171490067
23.4350,8.170846724
23.4400,8.171456992
23.4450,8.173178178
23.4500,8.175876682
23.4550,8.17953526
23.4600,8.184093229
23.4650,8.189412247
23.4700,8.195579781
23.4750,8.202690581
23.4800,8.21051167
23.4850,8.218991086
23.4900,8.228135866
23.4950,8.237806406
23.5000,8.247942172
23.5050,8.258498048
23.5100,8.269559673
23.5150,8.281082277
23.5200,8.292962561
23.5250,8.305339522
23.5300,8.318222823
23.5350,8.331530268
23.5400,8.34527496
23.5450,8.359266323
23.5500,8.373752217
23.5550,8.388724472
23.5600,8.404268863
23.5650,8.420311427
23.5700,8.436958673
23.5750,8.454129917
23.5800,8.471694738
23.5850,8.489814539
23.5900,8.508500209
23.5950,8.527972412
23.6000,8.548268545
23.6050,8.569325165
23.6100,8.591182049
23.6150,8.614068307
23.6200,8.637943304
23.6250,8.663048258
23.6300,8.689325292
23.6350,8.716728624
23.6400,8.74551548
23.6450,8.775542688
23.6500,8.807049426
23.6550,8.840160931
23.6600,8.87508041
23.6650,8.911875405
23.6700,8.950313888
23.6750,8.9910814
23.6800,9.033916039
23.6850,9.079092658
23.6900,9.126739994
23.6950,9.17708516
23.7000,9.230245579
23.7050,9.286163947
23.7100,9.34508176
23.7150,9.407199114
23.7200,9.472593854
23.7250,9.541294848
23.7300,9.613469734
23.7350,9.689144235
23.7400,9.768321217
23.7450,9.851152446
23.7500,9.937590661
23.7550,10.02754785
23.7600,10.12109563
23.7650,10.21810857
23.7700,10.3185222
23.7750,10.42231349
23.7800,10.5292943
23.7850,10.63946371
23.7900,10.7525968
23.7950,10.86896732
23.8000,10.98829666
23.8050,11.11057397
23.8100,11.23572081
23.8150,11.36356403
23.8200,11.49413654
23.8250,11.6275822
23.8300,11.76388332
23.8350,11.90314804
23.8400,12.04532981
23.8450,12.19066011
23.8500,12.33910104
23.8550,12.49078222
23.8600,12.64578903
23.8650,12.80421226
23.8700,12.9660418
23.8750,13.1313736
23.8800,13.30037389
23.8850,13.47305787
23.8900,13.64937406
23.8950,13.82937869
23.9000,14.01316085
23.9050,14.20077656
23.9100,14.39244154
23.9150,14.5882352
23.9200,14.78828867
23.9250,14.99260421
23.9300,15.20151979
23.9350,15.41517749
23.9400,15.63384388
23.9450,15.85765753
23.9500,16.08684812
23.9550,16.32161641
23.9600,16.56210258
23.9650,16.80829465
23.9700,17.06079302
23.9750,17.31926327
23.9800,17.58388673
23.9850,17.85439939
23.9900,18.13081336
23.9950,18.41284667
24.0000,18.70036637
24.0050,18.9931644
24.0100,19.29094089
24.0150,19.59313103
24.0200,19.89960024
24.0250,20.20980407
24.0300,20.52330215
24.0350,20.83961374
24.0400,21.15840383
24.0450,21.47918296
24.0500,21.80160466
24.0550,22.12512414
24.0600,22.44941451
24.0650,22.77405413
24.0700,23.09871906
24.0750,23.42300608
24.0800,23.74673891
24.0850,24.06991965
24.0900,24.39237376
24.0950,24.71374476
24.1000,25.03398241
24.1050,25.35283964
24.1100,25.67034604
24.1150,25.98676073
24.1200,26.30204443
24.1250,26.61604842
24.1300,26.9288192
24.1350,27.24046135
24.1400,27.55123545
24.1450,27.86097559
24.1500,28.16985243
24.1550,28.47799811
24.1600,28.78573782
24.1650,29.09320443
24.1700,29.40069403
24.1750,29.70838998
24.1800,30.01653291
24.1850,30.3252729
24.1900,30.63485168
24.1950,30.94529433
24.2000,31.25693025
24.2050,31.56995048
24.2100,31.8844402
24.2150,32.20011395
24.2200,32.51723137
24.2250,32.8358129
24.2300,33.15587822
24.2350,33.47758797
24.2400,33.80085242
24.2450,34.1259037
24.2500,34.45261603
24.2550,34.78077861
24.2600,35.11036066
24.2650,35.44128059
24.2700,35.77320501
24.2750,36.10646484
24.2800,36.44106718
24.2850,36.77684836
24.2900,37.11345147
24.2950,37.45077417
24.3000,37.78855201
24.3050,38.1267463
24.3100,38.46503426
24.3150,38.80355453
24.3200,39.14200935
24.3250,39.48013195
24.3300,39.81776939
24.3350,40.15475911
24.3400,40.49075142
24.3450,40.82558895
24.3500,41.15909897
24.3550,41.49088912
24.3600,41.82080985
24.3650,42.1485547
24.3700,42.47401745
24.3750,42.79701104
24.3800,43.11732964
24.3850,43.43468745
24.3900,43.74912537
24.3950,44.06066279
24.4000,44.36936202
24.4050,44.67527874
24.4100,44.97827465
24.4150,45.27816718
24.4200,45.57533326
24.4250,45.87006271
24.4300,46.16279702
24.4350,46.45404194
24.4400,46.74416683
24.4450,47.03376164
24.4500,47.32328376
24.4550,47.61318538
24.4600,47.90365148
24.4650,48.19507393
24.4700,48.48809937
24.4750,48.7833602
24.4800,49.08118101
24.4850,49.38195871
24.4900,49.6860266
24.4950,49.99324845
24.5000,50.30313627
24.5050,50.61476636
24.5100,50.92702462
24.5150,51.04194204
24.5200,51.16583836
24.5250,51.29770171
24.5300,51.43630017
24.5350,51.58024241
24.5400,51.72803403
24.5450,51.87813091
24.5500,52.02898813
24.5550,52.1791015
24.5600,52.32703953
24.5650,52.47146554
24.5700,52.6111523
24.5750,52.74499329
