type,name,time_units,begin_time,frequency,count,units
signal_4d,"Noraxon MyoMotion-Segments-Forearm RT-Orientation","s",0.0000,200,4916,""

time,x,y,z,w
0.0000,0.1529458985,-0.6205938321,-0.7418248923,0.202895729
0.0050,0.1530172226,-0.6205800493,-0.7418031989,0.2029634108
0.0100,0.1530885452,-0.6205662602,-0.7417814977,0.2030310905
0.0150,0.1531598661,-0.6205524646,-0.7417597889,0.2030987681
0.0200,0.153236026,-0.6205376176,-0.7417364947,0.2031717449
0.0250,0.1533163978,-0.6205218217,-0.7417117738,0.2032495893
0.0300,0.1534002819,-0.6205051935,-0.7416858039,0.2033318143
0.0350,0.1534869517,-0.6204878529,-0.7416587719,0.2034179101
0.0400,0.1535756859,-0.6204699172,-0.741630866,0.2035073688
0.0450,0.1536657871,-0.6204514985,-0.7416022706,0.2035996957
0.0500,0.1537565894,-0.6204326999,-0.741573167,0.2036944135
0.0550,0.1538474648,-0.6204136081,-0.741543737,0.2037910662
0.0600,0.1539378306,-0.6203942916,-0.7415141627,0.2038892196
0.0650,0.1540271539,-0.6203748043,-0.741484624,0.2039884565
0.0700,0.1541149452,-0.620355188,-0.7414552998,0.2040883701
0.0750,0.1542007399,-0.6203354728,-0.7414263733,0.2041885553
0.0800,0.1542840795,-0.6203156781,-0.7413980377,0.2042885996
0.0850,0.1543645039,-0.6202958196,-0.741370494,0.2043880787
0.0900,0.1544415571,-0.6202759196,-0.7413439394,0.2044865582
0.0950,0.1545148004,-0.6202560162,-0.7413185564,0.2045835984
0.1000,0.1545838219,-0.6202361645,-0.7412945092,0.2046787555
0.1050,0.1546482478,-0.6202164309,-0.7412719463,0.20477158
0.1100,0.1547077564,-0.6201968856,-0.7412510038,0.204861618
0.1150,0.1547620871,-0.6201776,-0.7412318048,0.2049484141
0.1200,0.1548110402,-0.6201586444,-0.741214459,0.2050315179
0.1250,0.1548544761,-0.6201400839,-0.7411990628,0.2051104992
0.1300,0.1548923208,-0.6201219715,-0.7411856986,0.2051849644
0.1350,0.1549245712,-0.6201043424,-0.741174436,0.2052545669
0.1400,0.1549512938,-0.6200872115,-0.7411653316,0.2053190151
0.1450,0.1549726269,-0.6200705765,-0.7411584225,0.2053780852
0.1500,0.1549887908,-0.6200544218,-0.7411537145,0.2054316434
0.1550,0.1550682132,-0.6200247041,-0.7411213212,0.2055782159
0.1600,0.1551422854,-0.6199958142,-0.7410905595,0.205720306
0.1650,0.1552114909,-0.6199682555,-0.7410612253,0.2058567842
0.1700,0.1552773071,-0.6199416373,-0.7410335208,0.2059870027
0.1750,0.1553371534,-0.6199166956,-0.7410067468,0.2061132226
0.1800,0.1553925604,-0.6198935879,-0.7409809748,0.2062335737
0.1850,0.1554447464,-0.619872126,-0.7409558081,0.2063491427
0.1900,0.1554945345,-0.619851814,-0.7409312128,0.2064609318
0.1950,0.1555424161,-0.6198335,-0.7409061617,0.2065697187
0.2000,0.1555895223,-0.6198175139,-0.7408802211,0.2066752235
0.2050,0.1556352023,-0.619803251,-0.7408537784,0.2067783664
0.2100,0.1556812898,-0.6197908801,-0.740826197,0.2068795467
0.2150,0.1557269183,-0.6197796072,-0.7407983256,0.2069787576
0.2200,0.1557742716,-0.6197707893,-0.740768329,0.2070768645
0.2250,0.1558215983,-0.6197639567,-0.74073694,0.2071739682
0.2300,0.1558709336,-0.6197578447,-0.7407048699,0.2072697797
0.2350,0.155919945,-0.6197533751,-0.7406716631,0.2073649256
0.2400,0.1559696378,-0.6197501675,-0.7406376324,0.2074586693
0.2450,0.1560197703,-0.6197490578,-0.7406017644,0.2075523143
0.2500,0.1560703424,-0.6197500317,-0.7405640343,0.2076459911
0.2550,0.1561228349,-0.6197530909,-0.740524322,0.2077390077
0.2600,0.1561757063,-0.6197574105,-0.7404835056,0.2078318521
0.2650,0.1562313743,-0.6197639056,-0.740440197,0.207924923
0.2700,0.156287916,-0.619771348,-0.7403959567,0.2080177656
0.2750,0.156345035,-0.6197813533,-0.7403495359,0.2081102326
0.2800,0.1564020162,-0.6197927981,-0.7403021607,0.2082018434
0.2850,0.1564581717,-0.6198057146,-0.740253752,0.2082933012
0.2900,0.1565122879,-0.6198201463,-0.7402049954,0.2083829525
0.2950,0.1565639738,-0.6198354655,-0.7401563888,0.2084711919
0.3000,0.1566127124,-0.6198522977,-0.7401076945,0.2085573971
0.3050,0.1566577521,-0.6198699282,-0.7400593626,0.2086426625
0.3100,0.1567003405,-0.6198876829,-0.7400118049,0.2087265976
0.3150,0.1567391084,-0.6199068379,-0.7399647757,0.2088073155
0.3200,0.1567743714,-0.6199271377,-0.739918031,0.2088862078
0.3250,0.1568050928,-0.6199480266,-0.7398721119,0.2089637893
0.3300,0.1568331108,-0.6199698217,-0.7398263265,0.2090401927
0.3350,0.1568583471,-0.6199923057,-0.7397808854,0.2091153781
0.3400,0.1568785911,-0.6200158274,-0.7397365623,0.2091872364
0.3450,0.1568949139,-0.6200394439,-0.7396935635,0.2092570337
0.3500,0.1569066276,-0.6200631147,-0.7396522734,0.2093240514
0.3550,0.1569150182,-0.620085693,-0.7396134933,0.2093878958
0.3600,0.1569192373,-0.6201075185,-0.7395766219,0.2094503251
0.3650,0.1569199035,-0.620128363,-0.7395421695,0.2095097536
0.3700,0.1569152758,-0.6201488704,-0.7395094483,0.2095680095
0.3750,0.1569064035,-0.6201682497,-0.7394794238,0.2096232439
0.3800,0.1568932977,-0.6201871906,-0.7394514486,0.2096756947
0.3850,0.1568784709,-0.6202050179,-0.7394252196,0.2097265498
0.3900,0.1568603518,-0.6202219892,-0.739401056,0.2097751001
0.3950,0.1568406919,-0.6202378015,-0.7393784695,0.2098226534
0.4000,0.1568207378,-0.6202521866,-0.7393577107,0.2098681893
0.4050,0.1567998601,-0.6202662066,-0.7393381563,0.209911237
0.4100,0.1567790923,-0.6202796925,-0.7393197979,0.2099515557
0.4150,0.1567566137,-0.6202930491,-0.7393026699,0.2099891894
0.4200,0.1567328597,-0.6203056911,-0.7392872869,0.2100237313
0.4250,0.1567085224,-0.6203190543,-0.7392719397,0.2100564425
0.4300,0.1566833776,-0.6203328879,-0.739256939,0.2100871381
0.4350,0.1566574331,-0.6203463597,-0.7392428685,0.2101162155
0.4400,0.1566303823,-0.6203604906,-0.7392292582,0.2101425443
0.4450,0.1566023095,-0.6203761027,-0.7392153098,0.2101664428
0.4500,0.1565739392,-0.6203915082,-0.7392018259,0.2101895305
0.4550,0.1565442779,-0.6204074531,-0.7391885184,0.2102113588
0.4600,0.1565128629,-0.6204234646,-0.7391761735,0.2102309033
0.4650,0.1564807236,-0.6204396748,-0.7391640068,0.2102497662
0.4700,0.1564454741,-0.6204561004,-0.7391527501,0.2102670997
0.4750,0.1564111559,-0.6204721021,-0.7391421798,0.2102825693
0.4800,0.156375828,-0.620488487,-0.7391315064,0.2102980126
0.4850,0.1563392525,-0.6205050619,-0.7391212076,0.2103124977
0.4900,0.1563020434,-0.620522158,-0.7391110633,0.2103253639
0.4950,0.1562634117,-0.6205387999,-0.7391017349,0.2103377508
0.5000,0.1562237707,-0.6205558988,-0.739092708,0.2103484699
0.5050,0.1561821303,-0.6205730709,-0.7390843475,0.210358107
0.5100,0.1561377094,-0.6205905589,-0.7390768115,0.2103659681
0.5150,0.156091366,-0.6206092709,-0.7390688436,0.2103731512
0.5200,0.1560431034,-0.620627158,-0.739061985,0.2103802817
0.5250,0.1559919537,-0.620644718,-0.7390557453,0.210388331
0.5300,0.15593544,-0.6206631458,-0.7390495214,0.2103977257
0.5350,0.1558739402,-0.6206798682,-0.7390452688,0.2104089035
0.5400,0.1558044674,-0.6206959481,-0.7390423846,0.2104230539
0.5450,0.1557265596,-0.6207098587,-0.7390424507,0.2104394593
0.5500,0.1556393321,-0.6207223322,-0.7390449509,0.2104584165
0.5550,0.1555409925,-0.6207330208,-0.7390501451,0.2104813521
0.5600,0.1554309394,-0.6207419499,-0.7390580969,0.2105083944
0.5650,0.1553090802,-0.6207486756,-0.7390692086,0.2105394887
0.5700,0.1551767136,-0.6207528282,-0.7390835075,0.2105746491
0.5750,0.1550344687,-0.6207538438,-0.7391008899,0.2106154162
0.5800,0.1548808189,-0.6207521545,-0.739120729,0.2106638141
0.5850,0.1547167824,-0.6207474123,-0.7391437257,0.2107176311
0.5900,0.1545424985,-0.620739935,-0.7391694495,0.2107773093
0.5950,0.1543564223,-0.6207304342,-0.7391976599,0.2108426963
0.6000,0.1541557895,-0.6207185888,-0.7392293369,0.2109132842
0.6050,0.1539413269,-0.6207047271,-0.7392641034,0.2109888506
0.6100,0.1537118285,-0.6206879743,-0.7393029016,0.2110694956
0.6150,0.1534664977,-0.620669234,-0.7393450873,0.2111553407
0.6200,0.153205099,-0.6206469639,-0.7393913342,0.2112486655
0.6250,0.1529280883,-0.6206202933,-0.7394423994,0.2113489751
0.6300,0.1526341842,-0.6205892901,-0.7394978038,0.2114585939
0.6350,0.1523250111,-0.6205531674,-0.7395577226,0.2115779581
0.6400,0.1520015556,-0.6205110941,-0.7396218149,0.2117098961
0.6450,0.1516645091,-0.6204631203,-0.7396898463,0.2118544885
0.6500,0.15131421,-0.6204084309,-0.7397620308,0.212013034
0.6550,0.1509518999,-0.6203482187,-0.73983694,0.2121860356
0.6600,0.1505767066,-0.6202818334,-0.739915822,0.2123715586
0.6650,0.1501894209,-0.6202090534,-0.7399978951,0.2125723011
0.6700,0.1497915109,-0.6201292692,-0.740083794,0.2127866786
0.6750,0.1493824486,-0.6200428855,-0.7401727826,0.2130163282
0.6800,0.1489638564,-0.6199490238,-0.7402652292,0.2132612665
0.6850,0.1485328733,-0.6198485156,-0.7403612874,0.2135204145
0.6900,0.148092558,-0.619740836,-0.7404606508,0.2137940952
0.6950,0.147642487,-0.6196266907,-0.7405634958,0.214079819
0.7000,0.1471829675,-0.6195049454,-0.7406703226,0.2143788
0.7050,0.1467167225,-0.6193753658,-0.7407814758,0.2146885296
0.7100,0.1462430779,-0.6192388361,-0.7408960282,0.2150100029
0.7150,0.1457656334,-0.6190939907,-0.7410146129,0.2153424115
0.7200,0.1452843847,-0.6189418997,-0.7411366829,0.2156844679
0.7250,0.1447983785,-0.6187829442,-0.7412627349,0.216033922
0.7300,0.144309711,-0.618617166,-0.7413927219,0.2163893275
0.7350,0.1438167194,-0.6184456272,-0.7415260399,0.2167507545
0.7400,0.1433202021,-0.6182670123,-0.7416644636,0.2171152795
0.7450,0.1428189368,-0.6180809813,-0.7418079811,0.2174846455
0.7500,0.1423142918,-0.6178884953,-0.7419563365,0.2178560178
0.7550,0.1418059559,-0.617688562,-0.7421100149,0.2182306968
0.7600,0.1412949468,-0.6174805736,-0.7422692439,0.2186088944
0.7650,0.1407816252,-0.6172645305,-0.7424335312,0.2189919753
0.7700,0.1402650881,-0.6170400785,-0.7426031309,0.2193805748
0.7750,0.1397446216,-0.6168071317,-0.7427780069,0.2197754208
0.7800,0.1392221235,-0.6165647191,-0.7429586865,0.2201761513
0.7850,0.138698085,-0.6163122386,-0.7431449026,0.2205849486
0.7900,0.1381725078,-0.6160490703,-0.743336253,0.2210047875
0.7950,0.1376459713,-0.6157758294,-0.7435324045,0.2214345905
0.8000,0.1371179801,-0.6154915841,-0.7437332811,0.2218773896
0.8050,0.1365905854,-0.6151959177,-0.7439384987,0.2223342191
0.8100,0.1360630062,-0.6148894836,-0.7441476235,0.2228050621
0.8150,0.1355334777,-0.614570136,-0.7443623188,0.2232912063
0.8200,0.1350030359,-0.6142390836,-0.744581009,0.2237937653
0.8250,0.1344724614,-0.6138968539,-0.7448035555,0.2243111091
0.8300,0.1339428787,-0.6135425269,-0.7450297362,0.2248456472
0.8350,0.1334145174,-0.6131776365,-0.7452579124,0.2253983068
0.8400,0.1328903603,-0.6128004648,-0.7454891099,0.225968426
0.8450,0.1323699974,-0.6124137408,-0.7457210307,0.2265562586
0.8500,0.1318530862,-0.6120158602,-0.7459546087,0.227163096
0.8550,0.1313411909,-0.6116078769,-0.746188721,0.2277886939
0.8600,0.1308351454,-0.61118897,-0.7464239774,0.2284326022
0.8650,0.1303336131,-0.6107595563,-0.7466600417,0.2290953859
0.8700,0.1298345795,-0.6103215239,-0.7468965118,0.2297742809
0.8750,0.1293359673,-0.6098740584,-0.7471344142,0.2304691032
0.8800,0.1288380007,-0.6094171933,-0.7473735963,0.2311799335
0.8850,0.12834021,-0.6089519666,-0.7476133195,0.2319064841
0.8900,0.1278423536,-0.6084773129,-0.7478543026,0.2326491657
0.8950,0.1273446327,-0.6079930086,-0.7480966434,0.2334079221
0.9000,0.1268490171,-0.6075001671,-0.7483388571,0.2341833229
0.9050,0.1263558812,-0.6069975377,-0.7485821922,0.2349742157
0.9100,0.1258643105,-0.6064856149,-0.7488262068,0.2357810135
0.9150,0.1253771981,-0.6059642008,-0.7490702295,0.2366046001
0.9200,0.1248931868,-0.6054349091,-0.7493143053,0.2374412235
0.9250,0.1244125171,-0.6048980285,-0.7495577427,0.2382920291
0.9300,0.1239342662,-0.6043532509,-0.7498015865,0.2391548174
0.9350,0.1234584863,-0.6038019427,-0.7500448893,0.2400289154
0.9400,0.12298399,-0.6032446005,-0.7502877456,0.2409132395
0.9450,0.122510715,-0.6026801982,-0.7505309891,0.2418076464
0.9500,0.1220390279,-0.6021087268,-0.7507746638,0.2427116828
0.9550,0.1215683567,-0.601531069,-0.7510183585,0.2436245736
0.9600,0.1211000309,-0.6009457315,-0.7512625556,0.2445477108
0.9650,0.1206320065,-0.6003532416,-0.7515075956,0.2454796082
0.9700,0.1201649905,-0.5997531436,-0.7517533009,0.2464214203
0.9750,0.1196999202,-0.5991453429,-0.7520003203,0.2473707853
0.9800,0.1192370609,-0.5985299895,-0.7522479444,0.2483292275
0.9850,0.1187761899,-0.5979075685,-0.7524969923,0.2492930663
0.9900,0.1183156614,-0.597278708,-0.752746579,0.2502641343
0.9950,0.1178590234,-0.5966437767,-0.7529962786,0.2512410373
1.0000,0.1174063661,-0.5960034434,-0.7532457061,0.2522232085
1.0050,0.116956578,-0.595357035,-0.7534956282,0.2532103832
1.0100,0.1165089718,-0.5947050455,-0.753745737,0.2542025419
1.0150,0.1160626897,-0.5940491914,-0.7539956141,0.255197226
1.0200,0.1156159431,-0.5933880234,-0.7542463767,0.2561952587
1.0250,0.1151663081,-0.5927209562,-0.7544992408,0.2571954224
1.0300,0.1147115653,-0.5920479813,-0.7547543527,0.2581982023
1.0350,0.1142511309,-0.5913696995,-0.7550121128,0.2592012098
1.0400,0.1137836949,-0.5906864756,-0.7552713755,0.2602074319
1.0450,0.1133099937,-0.5899977085,-0.755532922,0.2612155298
1.0500,0.1128284071,-0.5893033192,-0.755796642,0.2622265899
1.0550,0.1123380487,-0.5886026284,-0.7560633494,0.2632400433
1.0600,0.1118390835,-0.5878967299,-0.7563318155,0.2642567676
1.0650,0.1113311383,-0.587184355,-0.756603337,0.2652758967
1.0700,0.1108138492,-0.5864675138,-0.756876472,0.2662971126
1.0750,0.1102862658,-0.5857444765,-0.7571527168,0.2673202411
1.0800,0.1097456536,-0.5850161308,-0.7574319446,0.2683446804
1.0850,0.1091920011,-0.5842836619,-0.7577130714,0.2693707683
1.0900,0.1086225424,-0.5835466688,-0.7579973952,0.270396704
1.0950,0.1080365828,-0.5828055462,-0.7582846133,0.2714226176
1.1000,0.1074322977,-0.5820603729,-0.758575426,0.2724469614
1.1050,0.1068092177,-0.5813115012,-0.7588694752,0.273470015
1.1100,0.1061680541,-0.5805580831,-0.759166161,0.2744948022
1.1150,0.1055094533,-0.5798006577,-0.7594655746,0.2755194976
1.1200,0.1048334389,-0.579038925,-0.7597675177,0.2765451003
1.1250,0.104140461,-0.5782714295,-0.7600721224,0.2775739305
1.1300,0.1034301536,-0.5774995197,-0.7603787419,0.2786048761
1.1350,0.1027039681,-0.5767220043,-0.7606876068,0.2796390346
1.1400,0.1019598756,-0.5759393909,-0.7609981208,0.2806775052
1.1450,0.1011993228,-0.5751497652,-0.7613108262,0.2817219739
1.1500,0.1004253897,-0.5743529578,-0.7616252956,0.2827725765
1.1550,0.09963428633,-0.5735483769,-0.7619420704,0.2838301424
1.1600,0.09882582988,-0.5727363518,-0.7622604146,0.2848957476
1.1650,0.09799969864,-0.571916806,-0.7625808257,0.2859680234
1.1700,0.09715557167,-0.5710888842,-0.7629024994,0.2870506186
1.1750,0.09629412788,-0.570252443,-0.7632259442,0.2881418927
1.1800,0.09541347769,-0.5694075636,-0.7635512143,0.2892418331
1.1850,0.09451460736,-0.568553471,-0.763877949,0.2903522319
1.1900,0.09359495588,-0.5676901221,-0.7642062453,0.2914733677
1.1950,0.09265512797,-0.5668172859,-0.7645362877,0.2926046078
1.2000,0.09169187686,-0.5659340281,-0.7648689151,0.2937461801
1.2050,0.09070549227,-0.5650405107,-0.7652035639,0.2948986957
1.2100,0.0896940902,-0.5641377686,-0.7655398319,0.2960613347
1.2150,0.08865761583,-0.5632250286,-0.7658781869,0.2972339099
1.2200,0.08759468307,-0.5623022813,-0.7662186591,0.2984162904
1.2250,0.08650426323,-0.5613694942,-0.7665617489,0.2996070569
1.2300,0.08538640145,-0.5604265511,-0.7669076571,0.3008054003
1.2350,0.08423950211,-0.5594729069,-0.7672568679,0.3020110451
1.2400,0.08306638381,-0.5585084766,-0.7676089528,0.3032239321
1.2450,0.081866725,-0.5575340062,-0.7679632958,0.3044438332
1.2500,0.08064118789,-0.5565490882,-0.7683199615,0.3056706528
1.2550,0.0793904196,-0.5555523913,-0.768679408,0.3069049846
1.2600,0.07811595375,-0.5545446018,-0.7690409087,0.3081464961
1.2650,0.07682055879,-0.5535254549,-0.7694044573,0.309394495
1.2700,0.07550375787,-0.5524951795,-0.7697691712,0.310650418
1.2750,0.07416706945,-0.5514542151,-0.770134589,0.311913785
1.2800,0.07281105468,-0.5504014333,-0.770501621,0.3131837553
1.2850,0.07143610383,-0.5493377679,-0.7708684016,0.3144627279
1.2900,0.07004536089,-0.5482627743,-0.7712360063,0.3157476846
1.2950,0.06863517902,-0.5471760343,-0.7716044207,0.317039773
1.3000,0.06720683973,-0.546078149,-0.7719726252,0.3183396957
1.3050,0.06576092794,-0.5449690765,-0.7723404549,0.319647349
1.3100,0.06429968151,-0.54384815,-0.772708483,0.3209615879
1.3150,0.06282273812,-0.5427139603,-0.7730770197,0.3222836988
1.3200,0.06133198686,-0.5415666346,-0.7734452338,0.3236146443
1.3250,0.05982896162,-0.5404049838,-0.7738135587,0.324954651
1.3300,0.05831517934,-0.5392286395,-0.7741817403,0.326304225
1.3350,0.05678908938,-0.5380373667,-0.7745498714,0.3276633761
1.3400,0.05525090996,-0.5368304527,-0.774918316,0.3290319218
1.3450,0.05369787375,-0.535607407,-0.7752877396,0.3304090869
1.3500,0.0521324141,-0.5343668332,-0.7756580742,0.3317963998
1.3550,0.05055367996,-0.5331088597,-0.7760292468,0.3331934532
1.3600,0.04896111555,-0.5318324905,-0.7764012202,0.3346014893
1.3650,0.04735355761,-0.5305369783,-0.7767742535,0.3360207052
1.3700,0.04573276999,-0.5292204865,-0.7771489793,0.3374517067
1.3750,0.04409807657,-0.5278836898,-0.7775246616,0.33889463
1.3800,0.0424508664,-0.5265250657,-0.7779007171,0.340352396
1.3850,0.04079023952,-0.5251442552,-0.7782778734,0.3418233745
1.3900,0.03911610658,-0.523741346,-0.7786551283,0.3433090791
1.3950,0.03742968125,-0.5223156896,-0.7790325271,0.3448096012
1.4000,0.03573178264,-0.5208667958,-0.7794091939,0.3463269109
1.4050,0.03402053398,-0.5193938306,-0.7797852935,0.347861392
1.4100,0.03229638511,-0.5178975201,-0.7801605188,0.3494118876
1.4150,0.03056016685,-0.5163775132,-0.7805346133,0.3509787138
1.4200,0.02881072738,-0.5148353699,-0.7809061698,0.352562105
1.4250,0.02704901775,-0.5132704938,-0.7812758404,0.354160715
1.4300,0.02527649528,-0.5116811389,-0.7816443297,0.3557747218
1.4350,0.02349159318,-0.5100688309,-0.7820112124,0.3574022894
1.4400,0.02169826367,-0.5084342054,-0.782375812,0.3590430794
1.4450,0.0198942427,-0.5067772468,-0.7827386172,0.3606955759
1.4500,0.01807803785,-0.5050994119,-0.7830990019,0.3623585542
1.4550,0.01625137203,-0.503401127,-0.783457151,0.3640303432
1.4600,0.01441413711,-0.5016819008,-0.783812623,0.3657120112
1.4650,0.01256641656,-0.4999419791,-0.7841654643,0.3674025413
1.4700,0.01071010286,-0.4981803739,-0.7845166999,0.3691004691
1.4750,0.008843508985,-0.4963971142,-0.7848658179,0.3708063447
1.4800,0.006970418184,-0.4945934918,-0.7852122771,0.372518954
1.4850,0.005087838184,-0.4927698979,-0.785555873,0.3742377748
1.4900,0.00319800095,-0.4909253904,-0.7858974648,0.3759617117
1.4950,0.001301079594,-0.489061023,-0.7862358528,0.3776914174
1.5000,-0.0005995139702,-0.4871765309,-0.7865714791,0.3794258513
1.5050,-0.002504532615,-0.4852728719,-0.7869036108,0.3811648914
1.5100,-0.004413020972,-0.4833512958,-0.7872314098,0.3829082885
1.5150,-0.006325472377,-0.4814108795,-0.7875558157,0.384654898
1.5200,-0.008240761622,-0.4794512919,-0.7878764245,0.3864056006
1.5250,-0.01015552635,-0.4774754077,-0.7881914637,0.3881601691
1.5300,-0.01206910209,-0.4754821843,-0.7885013522,0.3899187694
1.5350,-0.01397928051,-0.4734726846,-0.7888049911,0.3916821195
1.5400,-0.01588837648,-0.4714468936,-0.7891019572,0.3934507429
1.5450,-0.01779438446,-0.4694043751,-0.7893929975,0.3952234659
1.5500,-0.01969597317,-0.4673461232,-0.7896773233,0.3970004972
1.5550,-0.02159234293,-0.4652728279,-0.789954079,0.3987825465
1.5600,-0.02348404858,-0.4631848435,-0.7902231959,0.4005690962
1.5650,-0.02536951559,-0.4610820401,-0.7904842231,0.4023610728
1.5700,-0.02724926293,-0.4589648389,-0.7907378624,0.4041563897
1.5750,-0.02912253848,-0.456833956,-0.7909822559,0.4059577382
1.5800,-0.03098722436,-0.4546897644,-0.7912179348,0.4077636446
1.5850,-0.0328403972,-0.45253196,-0.7914449581,0.4095744275
1.5900,-0.03468326154,-0.4503607234,-0.7916625353,0.411391201
1.5950,-0.03651341504,-0.4481755749,-0.7918703863,0.4132150965
1.6000,-0.03833179816,-0.4459765411,-0.7920694205,0.4150441316
1.6050,-0.04013837981,-0.4437638845,-0.7922591755,0.4168787883
1.6100,-0.04193536481,-0.4415385104,-0.7924398523,0.4187173862
1.6150,-0.04372341912,-0.4393011372,-0.7926107833,0.420560245
1.6200,-0.04550483921,-0.4370510685,-0.7927725981,0.422406535
