type,name,time_units,begin_time,frequency,count,units
signal_3d,"Noraxon MyoMotion-Segments-Upper arm RT-Sensor Acceleration","s",0.0000,200,4916,"mG"

time,x,y,z
0.0000,954.1015625,-94.23828125,-262.6953125
0.0050,950.6835938,-94.23828125,-273.9257813
0.0100,952.1484375,-97.16796875,-271.484375
0.0150,955.5664063,-95.703125,-266.1132813
0.0200,956.5429688,-88.8671875,-266.1132813
0.0250,960.9375,-93.26171875,-266.1132813
0.0300,956.5429688,-94.23828125,-260.2539063
0.0350,957.03125,-97.16796875,-261.2304688
0.0400,954.1015625,-93.26171875,-269.0429688
0.0450,959.9609375,-87.40234375,-264.6484375
0.0500,957.03125,-93.26171875,-264.6484375
0.0550,956.0546875,-96.6796875,-262.6953125
0.0600,958.4960938,-94.23828125,-269.53125
0.0650,959.4726563,-86.9140625,-271.484375
0.0700,952.6367188,-91.796875,-251.4648438
0.0750,958.4960938,-87.40234375,-271.9726563
0.0800,957.5195313,-80.56640625,-265.625
0.0850,950.1953125,-95.703125,-265.625
0.0900,959.4726563,-84.9609375,-261.71875
0.0950,960.9375,-87.40234375,-273.9257813
0.1000,950.1953125,-92.7734375,-265.625
0.1050,956.5429688,-93.26171875,-265.625
0.1100,953.6132813,-89.84375,-270.0195313
0.1150,951.6601563,-100.0976563,-264.1601563
0.1200,956.0546875,-93.75,-276.8554688
0.1250,956.0546875,-89.35546875,-254.3945313
0.1300,958.984375,-87.40234375,-262.2070313
0.1350,957.5195313,-89.35546875,-261.2304688
0.1400,956.0546875,-96.19140625,-266.6015625
0.1450,958.4960938,-88.37890625,-267.0898438
0.1500,961.4257813,-90.8203125,-258.3007813
0.1550,958.0078125,-97.16796875,-270.5078125
0.1600,962.4023438,-90.8203125,-271.9726563
0.1650,968.2617188,-90.8203125,-267.0898438
0.1700,966.796875,-88.37890625,-266.6015625
0.1750,965.3320313,-86.42578125,-267.578125
0.1800,951.6601563,-95.21484375,-251.953125
0.1850,959.4726563,-90.8203125,-279.7851563
0.1900,952.6367188,-92.28515625,-271.484375
0.1950,950.6835938,-91.30859375,-257.8125
0.2000,942.8710938,-96.19140625,-267.0898438
0.2050,946.7773438,-92.7734375,-266.1132813
0.2100,943.359375,-92.7734375,-263.671875
0.2150,955.078125,-91.30859375,-274.4140625
0.2200,958.984375,-91.30859375,-274.9023438
0.2250,966.3085938,-87.40234375,-282.7148438
0.2300,961.4257813,-97.65625,-283.203125
0.2350,972.1679688,-91.796875,-267.0898438
0.2400,974.1210938,-93.26171875,-281.7382813
0.2450,964.3554688,-108.8867188,-273.4375
0.2500,971.6796875,-99.609375,-274.9023438
0.2550,958.0078125,-111.328125,-291.015625
0.2600,967.2851563,-95.703125,-269.0429688
0.2650,964.3554688,-95.703125,-267.578125
0.2700,961.4257813,-91.30859375,-274.4140625
0.2750,959.9609375,-92.28515625,-259.765625
0.2800,959.4726563,-89.35546875,-265.625
0.2850,965.3320313,-85.9375,-270.0195313
0.2900,962.890625,-81.54296875,-270.5078125
0.2950,958.984375,-90.33203125,-257.8125
0.3000,965.8203125,-81.0546875,-261.71875
0.3050,958.4960938,-81.54296875,-257.8125
0.3100,960.9375,-79.58984375,-264.1601563
0.3150,958.984375,-82.51953125,-260.7421875
0.3200,951.171875,-87.890625,-262.2070313
0.3250,958.0078125,-91.30859375,-260.2539063
0.3300,947.7539063,-97.65625,-250.4882813
0.3350,960.4492188,-88.8671875,-275.390625
0.3400,959.9609375,-86.42578125,-267.578125
0.3450,958.4960938,-93.26171875,-264.1601563
0.3500,954.5898438,-92.28515625,-275.390625
0.3550,962.4023438,-87.890625,-270.0195313
0.3600,961.9140625,-81.0546875,-257.3242188
0.3650,960.4492188,-87.890625,-269.0429688
0.3700,960.9375,-83.0078125,-259.765625
0.3750,957.03125,-93.26171875,-263.671875
0.3800,954.5898438,-89.35546875,-265.1367188
0.3850,955.078125,-89.35546875,-253.4179688
0.3900,950.6835938,-91.796875,-270.0195313
0.3950,962.890625,-85.44921875,-277.8320313
0.4000,953.125,-94.7265625,-275.8789063
0.4050,961.9140625,-86.42578125,-263.671875
0.4100,961.9140625,-89.35546875,-275.390625
0.4150,966.796875,-91.796875,-263.671875
0.4200,967.2851563,-90.8203125,-264.1601563
0.4250,966.3085938,-94.7265625,-264.6484375
0.4300,968.75,-85.44921875,-263.1835938
0.4350,968.75,-86.9140625,-266.1132813
0.4400,960.9375,-87.890625,-268.5546875
0.4450,965.8203125,-85.44921875,-265.625
0.4500,963.8671875,-83.984375,-273.4375
0.4550,968.2617188,-88.8671875,-265.625
0.4600,961.9140625,-87.40234375,-270.0195313
0.4650,963.3789063,-91.30859375,-261.2304688
0.4700,964.3554688,-91.30859375,-270.5078125
0.4750,960.4492188,-98.6328125,-263.671875
0.4800,959.4726563,-101.5625,-273.4375
0.4850,964.3554688,-97.65625,-268.5546875
0.4900,959.9609375,-88.8671875,-260.7421875
0.4950,962.890625,-87.890625,-267.0898438
0.5000,957.5195313,-83.0078125,-262.6953125
0.5050,959.4726563,-83.984375,-270.9960938
0.5100,958.4960938,-86.9140625,-254.3945313
0.5150,967.7734375,-79.1015625,-268.0664063
0.5200,963.8671875,-87.890625,-269.0429688
0.5250,964.3554688,-87.890625,-269.53125
0.5300,965.8203125,-96.19140625,-267.0898438
0.5350,969.2382813,-90.8203125,-279.7851563
0.5400,960.9375,-91.796875,-276.8554688
0.5450,966.3085938,-91.796875,-269.53125
0.5500,956.0546875,-90.33203125,-272.9492188
0.5550,961.9140625,-92.28515625,-266.6015625
0.5600,959.4726563,-84.9609375,-271.484375
0.5650,960.4492188,-86.9140625,-268.5546875
0.5700,956.0546875,-83.984375,-267.0898438
0.5750,965.3320313,-85.44921875,-267.578125
0.5800,971.6796875,-75.1953125,-268.0664063
0.5850,971.1914063,-79.58984375,-251.4648438
0.5900,977.5390625,-77.63671875,-258.3007813
0.5950,986.328125,-73.73046875,-246.09375
0.6000,984.375,-77.1484375,-246.09375
0.6050,990.7226563,-82.03125,-245.6054688
0.6100,988.28125,-81.0546875,-246.09375
0.6150,987.7929688,-83.984375,-265.625
0.6200,977.5390625,-88.37890625,-264.1601563
0.6250,974.609375,-90.33203125,-266.6015625
0.6300,969.2382813,-92.28515625,-268.5546875
0.6350,969.2382813,-88.8671875,-267.578125
0.6400,962.4023438,-91.30859375,-268.5546875
0.6450,961.4257813,-91.30859375,-261.2304688
0.6500,962.890625,-88.37890625,-264.6484375
0.6550,963.3789063,-84.47265625,-264.6484375
0.6600,963.8671875,-81.54296875,-268.0664063
0.6650,971.6796875,-80.56640625,-253.90625
0.6700,976.0742188,-72.265625,-239.7460938
0.6750,987.7929688,-77.1484375,-250.4882813
0.6800,1000.488281,-69.3359375,-241.6992188
0.6850,1000.488281,-82.03125,-230.9570313
0.6900,997.5585938,-87.890625,-239.7460938
0.6950,1000,-100.0976563,-250.4882813
0.7000,985.8398438,-116.2109375,-251.4648438
0.7050,975.5859375,-125.4882813,-258.7890625
0.7100,961.9140625,-128.90625,-271.484375
0.7150,953.6132813,-125,-286.1328125
0.7200,945.8007813,-119.140625,-289.5507813
0.7250,933.1054688,-107.421875,-285.6445313
0.7300,934.0820313,-89.35546875,-273.4375
0.7350,926.2695313,-83.49609375,-288.0859375
0.7400,918.9453125,-74.70703125,-291.9921875
0.7450,921.875,-66.40625,-282.2265625
0.7500,915.0390625,-63.96484375,-277.8320313
0.7550,917.4804688,-57.6171875,-284.1796875
0.7600,908.6914063,-62.01171875,-273.4375
0.7650,911.6210938,-69.3359375,-269.53125
0.7700,920.4101563,-68.84765625,-269.0429688
0.7750,930.6640625,-75.68359375,-265.1367188
0.7800,934.5703125,-82.51953125,-250.4882813
0.7850,943.8476563,-91.30859375,-255.3710938
0.7900,949.21875,-94.7265625,-268.0664063
0.7950,963.8671875,-91.30859375,-256.8359375
0.8000,963.3789063,-87.890625,-264.6484375
0.8050,964.84375,-93.26171875,-272.4609375
0.8100,966.3085938,-93.26171875,-267.578125
0.8150,974.609375,-89.35546875,-259.765625
0.8200,977.5390625,-88.37890625,-249.0234375
0.8250,966.796875,-94.23828125,-251.4648438
0.8300,968.75,-91.30859375,-238.7695313
0.8350,970.2148438,-94.23828125,-241.2109375
0.8400,955.078125,-98.6328125,-251.953125
0.8450,959.4726563,-88.8671875,-253.4179688
0.8500,966.796875,-83.49609375,-253.4179688
0.8550,966.3085938,-86.42578125,-274.9023438
0.8600,960.9375,-94.7265625,-259.2773438
0.8650,962.890625,-85.9375,-271.484375
0.8700,962.890625,-90.33203125,-289.5507813
0.8750,964.84375,-94.23828125,-266.1132813
0.8800,969.2382813,-91.796875,-284.1796875
0.8850,972.65625,-92.7734375,-278.8085938
0.8900,971.1914063,-89.84375,-267.578125
0.8950,968.75,-96.6796875,-278.8085938
0.9000,973.6328125,-91.796875,-286.6210938
0.9050,969.7265625,-93.26171875,-271.484375
0.9100,970.2148438,-91.30859375,-282.7148438
0.9150,959.9609375,-100.0976563,-277.34375
0.9200,970.2148438,-92.28515625,-276.3671875
0.9250,968.2617188,-100.5859375,-277.34375
0.9300,968.2617188,-91.796875,-266.1132813
0.9350,969.2382813,-101.5625,-269.53125
0.9400,965.8203125,-97.65625,-261.71875
0.9450,979.0039063,-79.1015625,-276.3671875
0.9500,974.1210938,-86.9140625,-270.0195313
0.9550,968.2617188,-88.37890625,-276.3671875
0.9600,962.890625,-91.30859375,-286.6210938
0.9650,959.4726563,-95.703125,-279.296875
0.9700,951.6601563,-93.75,-278.3203125
0.9750,947.7539063,-105.46875,-287.109375
0.9800,943.8476563,-104.9804688,-288.0859375
0.9850,950.1953125,-97.16796875,-286.1328125
0.9900,952.1484375,-99.609375,-286.1328125
0.9950,949.21875,-109.375,-292.4804688
1.0000,959.9609375,-104.9804688,-269.53125
1.0050,953.6132813,-108.8867188,-294.921875
1.0100,951.6601563,-107.9101563,-274.4140625
1.0150,953.6132813,-105.46875,-277.8320313
1.0200,949.7070313,-102.5390625,-284.1796875
1.0250,946.7773438,-104.9804688,-284.6679688
1.0300,952.6367188,-95.703125,-282.2265625
1.0350,952.1484375,-104.9804688,-285.15625
1.0400,951.6601563,-101.5625,-273.9257813
1.0450,950.6835938,-102.5390625,-285.15625
1.0500,958.984375,-97.16796875,-282.7148438
1.0550,965.8203125,-99.609375,-286.1328125
1.0600,966.796875,-98.14453125,-275.8789063
1.0650,966.3085938,-86.9140625,-271.9726563
1.0700,966.796875,-80.56640625,-252.9296875
1.0750,964.84375,-86.9140625,-267.0898438
1.0800,961.4257813,-85.9375,-269.0429688
1.0850,958.4960938,-77.1484375,-271.9726563
1.0900,961.4257813,-78.61328125,-268.0664063
1.0950,960.9375,-85.9375,-274.4140625
1.1000,959.9609375,-82.51953125,-283.6914063
1.1050,959.9609375,-83.984375,-271.9726563
1.1100,963.8671875,-85.44921875,-279.296875
1.1150,963.3789063,-98.14453125,-278.8085938
1.1200,963.8671875,-87.40234375,-277.8320313
1.1250,956.5429688,-102.0507813,-281.7382813
1.1300,959.9609375,-98.6328125,-292.4804688
1.1350,952.1484375,-104.0039063,-291.015625
1.1400,952.6367188,-97.65625,-285.15625
1.1450,958.0078125,-100.0976563,-297.3632813
1.1500,954.5898438,-102.5390625,-281.25
1.1550,964.3554688,-94.7265625,-279.296875
1.1600,956.5429688,-92.28515625,-270.0195313
1.1650,966.3085938,-84.47265625,-257.8125
1.1700,961.4257813,-85.44921875,-252.4414063
1.1750,966.3085938,-76.66015625,-244.6289063
1.1800,972.1679688,-76.66015625,-257.8125
1.1850,972.65625,-82.51953125,-252.4414063
1.1900,975.0976563,-83.0078125,-249.5117188
1.1950,986.328125,-82.03125,-244.6289063
1.2000,984.375,-90.8203125,-236.328125
1.2050,994.6289063,-86.9140625,-240.7226563
1.2100,993.6523438,-95.703125,-236.328125
1.2150,994.140625,-95.21484375,-234.375
1.2200,994.6289063,-94.23828125,-242.6757813
1.2250,979.4921875,-101.0742188,-229.0039063
1.2300,982.9101563,-83.984375,-242.1875
1.2350,977.5390625,-83.0078125,-244.6289063
1.2400,975.0976563,-71.77734375,-240.7226563
1.2450,967.2851563,-57.12890625,-251.4648438
1.2500,961.9140625,-52.734375,-265.1367188
1.2550,952.1484375,-57.12890625,-251.4648438
1.2600,946.7773438,-62.01171875,-265.625
1.2650,944.3359375,-74.21875,-270.9960938
1.2700,940.9179688,-86.9140625,-274.4140625
1.2750,943.359375,-98.14453125,-277.8320313
1.2800,957.03125,-100.5859375,-268.5546875
1.2850,960.9375,-103.0273438,-270.9960938
1.2900,969.7265625,-105.9570313,-261.2304688
1.2950,973.1445313,-112.3046875,-273.9257813
1.3000,963.3789063,-114.7460938,-266.1132813
1.3050,963.3789063,-118.1640625,-274.9023438
1.3100,959.9609375,-116.2109375,-265.625
1.3150,960.4492188,-114.2578125,-275.390625
1.3200,955.5664063,-105.46875,-265.1367188
1.3250,965.3320313,-97.65625,-266.6015625
1.3300,958.0078125,-99.609375,-265.1367188
1.3350,957.03125,-91.796875,-276.8554688
1.3400,951.171875,-101.0742188,-260.7421875
1.3450,952.1484375,-89.84375,-264.1601563
1.3500,946.7773438,-88.8671875,-277.8320313
1.3550,954.1015625,-105.46875,-282.7148438
1.3600,951.6601563,-107.421875,-277.34375
1.3650,952.6367188,-103.0273438,-285.15625
1.3700,957.5195313,-100.0976563,-284.6679688
1.3750,962.4023438,-95.21484375,-261.2304688
1.3800,959.9609375,-93.26171875,-257.3242188
1.3850,954.1015625,-90.33203125,-261.71875
1.3900,959.9609375,-89.84375,-251.953125
1.3950,967.7734375,-80.56640625,-258.3007813
1.4000,965.3320313,-80.56640625,-245.1171875
1.4050,967.7734375,-72.75390625,-232.421875
1.4100,969.2382813,-67.87109375,-250.9765625
1.4150,965.3320313,-75.68359375,-229.4921875
1.4200,959.4726563,-72.265625,-246.5820313
1.4250,965.8203125,-77.1484375,-224.609375
1.4300,956.0546875,-88.8671875,-249.0234375
1.4350,961.4257813,-97.65625,-249.0234375
1.4400,949.7070313,-107.421875,-264.1601563
1.4450,949.7070313,-112.7929688,-266.6015625
1.4500,952.6367188,-117.1875,-278.3203125
1.4550,953.6132813,-125,-292.4804688
1.4600,956.0546875,-123.046875,-281.7382813
1.4650,955.5664063,-120.1171875,-292.4804688
1.4700,947.265625,-116.2109375,-275.8789063
1.4750,950.1953125,-114.7460938,-292.96875
1.4800,940.9179688,-105.46875,-280.7617188
1.4850,941.40625,-98.6328125,-277.34375
1.4900,943.8476563,-87.40234375,-272.4609375
1.4950,946.2890625,-83.49609375,-269.0429688
1.5000,947.265625,-84.47265625,-277.8320313
1.5050,946.2890625,-94.7265625,-267.0898438
1.5100,947.7539063,-107.9101563,-272.9492188
1.5150,946.7773438,-110.8398438,-282.2265625
1.5200,935.0585938,-124.0234375,-280.7617188
1.5250,945.3125,-118.6523438,-280.7617188
1.5300,936.5234375,-130.3710938,-277.8320313
1.5350,937.9882813,-130.859375,-282.2265625
1.5400,930.1757813,-139.6484375,-279.296875
1.5450,939.9414063,-125.9765625,-291.9921875
1.5500,943.8476563,-128.90625,-284.6679688
1.5550,947.265625,-124.5117188,-292.96875
1.5600,960.9375,-111.328125,-293.9453125
1.5650,958.0078125,-115.7226563,-296.875
1.5700,956.0546875,-121.5820313,-284.1796875
1.5750,962.4023438,-124.0234375,-288.0859375
1.5800,963.8671875,-130.3710938,-287.5976563
1.5850,964.84375,-128.4179688,-296.3867188
1.5900,961.9140625,-137.2070313,-272.4609375
1.5950,964.3554688,-132.8125,-278.3203125
1.6000,961.9140625,-127.9296875,-267.0898438
1.6050,961.9140625,-120.1171875,-265.1367188
1.6100,959.9609375,-119.6289063,-269.53125
1.6150,966.3085938,-122.5585938,-251.4648438
1.6200,959.9609375,-122.0703125,-249.5117188
1.6250,959.9609375,-117.1875,-272.9492188
1.6300,953.6132813,-117.6757813,-269.0429688
1.6350,958.984375,-122.5585938,-283.6914063
1.6400,961.4257813,-119.140625,-273.9257813
1.6450,953.6132813,-133.3007813,-268.5546875
1.6500,958.0078125,-127.9296875,-270.0195313
1.6550,959.9609375,-127.4414063,-268.5546875
1.6600,964.3554688,-113.28125,-283.6914063
1.6650,950.1953125,-130.3710938,-266.6015625
1.6700,948.7304688,-126.953125,-275.390625
1.6750,948.2421875,-125.4882813,-276.3671875
1.6800,948.7304688,-124.5117188,-284.1796875
1.6850,952.6367188,-131.8359375,-274.4140625
1.6900,959.9609375,-136.2304688,-272.4609375
1.6950,955.078125,-142.0898438,-269.53125
1.7000,956.5429688,-131.8359375,-273.9257813
1.7050,952.1484375,-142.0898438,-257.8125
1.7100,958.984375,-139.1601563,-269.53125
1.7150,965.8203125,-145.0195313,-278.8085938
1.7200,972.1679688,-144.53125,-266.1132813
1.7250,972.1679688,-155.2734375,-280.7617188
1.7300,974.609375,-154.296875,-280.7617188
1.7350,971.1914063,-156.7382813,-289.5507813
1.7400,961.4257813,-150.8789063,-275.390625
1.7450,955.078125,-156.7382813,-284.1796875
1.7500,955.078125,-154.7851563,-273.4375
1.7550,942.8710938,-154.296875,-282.7148438
1.7600,934.0820313,-151.8554688,-274.4140625
1.7650,930.1757813,-144.0429688,-274.9023438
1.7700,928.2226563,-150.8789063,-286.1328125
1.7750,938.9648438,-150.390625,-279.7851563
1.7800,948.7304688,-146.9726563,-275.8789063
1.7850,951.171875,-153.8085938,-266.1132813
1.7900,951.171875,-149.9023438,-285.15625
1.7950,948.2421875,-150.8789063,-277.8320313
1.8000,941.8945313,-155.2734375,-279.7851563
1.8050,940.4296875,-151.8554688,-288.0859375
1.8100,944.8242188,-155.7617188,-264.6484375
1.8150,942.3828125,-166.9921875,-267.578125
1.8200,946.7773438,-157.7148438,-263.671875
1.8250,938.9648438,-164.0625,-276.8554688
1.8300,939.9414063,-167.4804688,-260.2539063
1.8350,941.8945313,-175.78125,-263.1835938
1.8400,947.7539063,-172.8515625,-262.2070313
1.8450,953.125,-172.8515625,-281.25
1.8500,954.1015625,-167.4804688,-275.390625
1.8550,949.21875,-166.015625,-266.1132813
1.8600,948.7304688,-171.3867188,-281.25
1.8650,953.125,-171.875,-280.7617188
1.8700,942.8710938,-169.4335938,-265.625
1.8750,944.8242188,-160.15625,-272.9492188
1.8800,939.9414063,-150.8789063,-260.2539063
1.8850,956.5429688,-140.1367188,-249.0234375
1.8900,955.5664063,-143.0664063,-267.578125
1.8950,949.21875,-160.6445313,-252.9296875
1.9000,962.4023438,-145.9960938,-252.4414063
1.9050,943.8476563,-166.9921875,-265.625
1.9100,951.171875,-160.15625,-253.4179688
1.9150,950.1953125,-169.921875,-245.6054688
1.9200,943.8476563,-172.3632813,-264.6484375
1.9250,943.8476563,-170.8984375,-252.9296875
1.9300,939.453125,-172.3632813,-266.6015625
1.9350,934.5703125,-180.1757813,-267.578125
1.9400,936.0351563,-166.5039063,-270.0195313
1.9450,934.5703125,-170.4101563,-267.578125
1.9500,941.40625,-162.5976563,-267.0898438
1.9550,948.7304688,-164.0625,-270.0195313
1.9600,944.3359375,-165.5273438,-264.1601563
1.9650,935.546875,-174.8046875,-273.9257813
1.9700,934.0820313,-179.1992188,-281.25
1.9750,930.6640625,-183.1054688,-268.0664063
1.9800,940.9179688,-167.96875,-276.3671875
1.9850,946.7773438,-153.8085938,-284.6679688
1.9900,939.453125,-150.390625,-271.484375
1.9950,940.9179688,-145.5078125,-254.8828125
2.0000,937.5,-145.5078125,-257.8125
2.0050,944.8242188,-151.3671875,-260.2539063
2.0100,950.1953125,-160.15625,-254.8828125
2.0150,956.5429688,-167.96875,-267.0898438
2.0200,958.984375,-173.828125,-270.0195313
2.0250,957.03125,-183.59375,-284.6679688
2.0300,962.4023438,-186.5234375,-279.296875
2.0350,960.9375,-200.6835938,-277.8320313
2.0400,959.4726563,-194.8242188,-246.5820313
2.0450,948.7304688,-198.2421875,-273.9257813
2.0500,945.3125,-202.6367188,-255.3710938
2.0550,941.40625,-210.9375,-279.7851563
2.0600,939.9414063,-214.3554688,-257.3242188
2.0650,942.8710938,-214.3554688,-263.1835938
2.0700,936.5234375,-207.03125,-254.3945313
2.0750,934.0820313,-192.3828125,-242.1875
2.0800,932.1289063,-179.1992188,-270.0195313
2.0850,934.0820313,-187.5,-255.859375
2.0900,944.3359375,-185.546875,-275.390625
2.0950,952.1484375,-195.3125,-291.015625
2.1000,951.6601563,-200.6835938,-294.4335938
2.1050,949.21875,-207.03125,-290.0390625
2.1100,944.8242188,-216.3085938,-293.4570313
2.1150,943.8476563,-209.9609375,-279.7851563
2.1200,940.4296875,-212.4023438,-266.1132813
2.1250,934.0820313,-210.4492188,-261.71875
2.1300,937.0117188,-208.0078125,-258.3007813
2.1350,941.8945313,-208.4960938,-269.53125
2.1400,946.2890625,-194.3359375,-293.9453125
2.1450,936.0351563,-212.890625,-297.3632813
2.1500,932.6171875,-218.75,-297.8515625
2.1550,929.1992188,-226.0742188,-294.921875
2.1600,930.6640625,-229.4921875,-303.2226563
2.1650,924.8046875,-233.8867188,-292.96875
2.1700,925.2929688,-220.703125,-294.921875
2.1750,924.3164063,-220.2148438,-296.3867188
2.1800,916.015625,-209.9609375,-285.6445313
2.1850,912.5976563,-210.4492188,-281.7382813
2.1900,910.15625,-206.5429688,-295.4101563
2.1950,919.921875,-211.9140625,-281.7382813
2.2000,922.3632813,-218.75,-287.109375
2.2050,935.0585938,-224.609375,-285.15625
2.2100,931.1523438,-226.0742188,-293.4570313
2.2150,942.8710938,-219.7265625,-295.4101563
2.2200,946.7773438,-220.2148438,-288.5742188
2.2250,947.7539063,-228.515625,-298.3398438
2.2300,948.2421875,-231.9335938,-283.203125
2.2350,942.8710938,-232.9101563,-301.2695313
2.2400,943.8476563,-239.2578125,-299.3164063
2.2450,940.4296875,-247.5585938,-286.6210938
2.2500,948.2421875,-231.9335938,-308.1054688
2.2550,940.4296875,-234.8632813,-293.4570313
2.2600,933.1054688,-234.375,-298.828125
2.2650,939.453125,-215.8203125,-302.2460938
2.2700,932.1289063,-215.3320313,-310.0585938
2.2750,923.828125,-228.0273438,-299.8046875
2.2800,925.78125,-224.609375,-302.2460938
2.2850,928.2226563,-231.9335938,-294.921875
2.2900,925.78125,-231.9335938,-301.7578125
2.2950,920.4101563,-230.9570313,-301.7578125
2.3000,925.78125,-231.4453125,-311.0351563
2.3050,919.4335938,-249.0234375,-320.3125
2.3100,933.59375,-241.6992188,-303.2226563
2.3150,929.1992188,-254.8828125,-320.3125
2.3200,944.8242188,-249.5117188,-321.2890625
2.3250,928.7109375,-259.765625,-315.4296875
2.3300,917.96875,-262.6953125,-318.359375
2.3350,918.4570313,-252.4414063,-304.1992188
2.3400,907.2265625,-254.8828125,-295.4101563
2.3450,905.2734375,-260.7421875,-294.921875
2.3500,904.296875,-258.3007813,-291.9921875
2.3550,904.7851563,-248.046875,-305.6640625
2.3600,895.9960938,-250.9765625,-311.0351563
2.3650,911.1328125,-237.3046875,-311.5234375
2.3700,910.15625,-257.3242188,-323.7304688
2.3750,913.5742188,-267.0898438,-326.6601563
2.3800,916.015625,-260.2539063,-315.9179688
2.3850,916.9921875,-261.71875,-321.2890625
2.3900,921.3867188,-254.8828125,-327.1484375
2.3950,918.9453125,-266.1132813,-314.9414063
2.4000,924.8046875,-266.1132813,-335.9375
2.4050,926.7578125,-270.0195313,-338.3789063
2.4100,931.640625,-259.765625,-345.703125
2.4150,932.6171875,-266.6015625,-346.6796875
2.4200,915.5273438,-288.0859375,-367.1875
2.4250,895.9960938,-298.828125,-335.4492188
2.4300,880.859375,-295.8984375,-340.8203125
2.4350,882.3242188,-287.109375,-321.7773438
2.4400,883.3007813,-279.296875,-291.9921875
2.4450,879.3945313,-282.7148438,-306.640625
2.4500,894.0429688,-274.9023438,-302.2460938
2.4550,905.2734375,-280.7617188,-308.59375
2.4600,907.2265625,-282.2265625,-302.2460938
2.4650,922.8515625,-284.6679688,-317.3828125
2.4700,931.640625,-277.34375,-343.2617188
2.4750,933.1054688,-287.5976563,-354.4921875
2.4800,922.3632813,-298.3398438,-354.0039063
2.4850,917.4804688,-297.8515625,-344.2382813
2.4900,903.8085938,-290.5273438,-346.1914063
2.4950,916.9921875,-270.9960938,-359.375
2.5000,903.3203125,-281.7382813,-338.3789063
2.5050,890.1367188,-290.5273438,-344.2382813
2.5100,871.5820313,-285.6445313,-329.1015625
2.5150,875.4882813,-266.6015625,-346.1914063
2.5200,879.3945313,-254.8828125,-332.03125
2.5250,878.4179688,-257.8125,-341.3085938
2.5300,871.5820313,-274.9023438,-335.4492188
2.5350,888.1835938,-293.9453125,-345.703125
2.5400,894.53125,-298.828125,-357.9101563
2.5450,913.5742188,-299.8046875,-367.1875
2.5500,918.9453125,-303.7109375,-361.328125
2.5550,915.0390625,-316.40625,-357.9101563
2.5600,904.7851563,-315.9179688,-344.7265625
2.5650,915.0390625,-308.1054688,-348.6328125
2.5700,921.3867188,-306.640625,-372.5585938
2.5750,920.8984375,-317.3828125,-377.9296875
2.5800,889.1601563,-352.5390625,-371.09375
2.5850,885.2539063,-338.8671875,-353.0273438
2.5900,865.7226563,-326.171875,-343.2617188
2.5950,877.9296875,-303.2226563,-337.890625
2.6000,873.5351563,-299.8046875,-330.5664063
2.6050,864.2578125,-293.4570313,-329.5898438
2.6100,843.75,-291.5039063,-322.7539063
2.6150,844.2382813,-292.96875,-322.7539063
2.6200,866.2109375,-278.3203125,-316.8945313
2.6250,880.859375,-288.5742188,-353.515625
2.6300,892.0898438,-300.78125,-371.09375
2.6350,908.6914063,-318.359375,-395.5078125
2.6400,913.5742188,-337.4023438,-397.9492188
2.6450,917.4804688,-338.3789063,-383.3007813
2.6500,901.3671875,-356.4453125,-382.3242188
2.6550,880.859375,-356.9335938,-375.9765625
2.6600,857.9101563,-355.46875,-365.234375
2.6650,851.0742188,-346.6796875,-357.421875
2.6700,844.2382813,-333.4960938,-340.3320313
2.6750,842.7734375,-334.9609375,-361.328125
2.6800,855.9570313,-310.546875,-355.46875
2.6850,865.7226563,-299.3164063,-357.9101563
2.6900,871.5820313,-307.6171875,-376.953125
2.6950,878.90625,-305.1757813,-370.6054688
2.7000,872.0703125,-301.2695313,-357.421875
2.7050,870.6054688,-310.0585938,-363.28125
2.7100,871.09375,-314.453125,-391.6015625
2.7150,864.7460938,-335.4492188,-378.4179688
2.7200,858.3984375,-344.2382813,-382.3242188
2.7250,862.3046875,-352.0507813,-380.3710938
2.7300,862.7929688,-360.3515625,-387.2070313
2.7350,872.5585938,-367.6757813,-380.3710938
2.7400,868.1640625,-361.8164063,-380.3710938
2.7450,858.3984375,-363.28125,-375.4882813
2.7500,855.9570313,-363.7695313,-368.6523438
2.7550,849.609375,-363.7695313,-374.5117188
2.7600,847.65625,-357.9101563,-365.7226563
2.7650,849.1210938,-353.515625,-386.2304688
2.7700,850.5859375,-359.8632813,-381.3476563
2.7750,843.75,-359.375,-388.671875
2.7800,850.0976563,-349.609375,-392.0898438
2.7850,856.4453125,-334.9609375,-391.1132813
2.7900,853.0273438,-344.7265625,-382.3242188
2.7950,866.6992188,-350.0976563,-403.8085938
2.8000,847.65625,-356.9335938,-397.4609375
2.8050,834.4726563,-346.6796875,-388.1835938
2.8100,817.3828125,-345.2148438,-379.3945313
2.8150,812.0117188,-344.2382813,-372.0703125
2.8200,808.59375,-350.0976563,-375
2.8250,808.59375,-352.5390625,-396.484375
2.8300,819.3359375,-360.3515625,-388.1835938
2.8350,839.84375,-358.3984375,-412.5976563
2.8400,860.8398438,-358.8867188,-424.8046875
2.8450,868.1640625,-374.0234375,-419.4335938
2.8500,858.3984375,-375.4882813,-421.875
2.8550,844.7265625,-379.3945313,-441.8945313
2.8600,859.375,-357.9101563,-405.7617188
2.8650,853.0273438,-363.7695313,-415.5273438
2.8700,854.4921875,-355.9570313,-436.5234375
2.8750,844.2382813,-359.8632813,-421.3867188
2.8800,841.796875,-353.0273438,-394.53125
2.8850,836.9140625,-351.5625,-391.1132813
2.8900,825.6835938,-349.1210938,-392.578125
2.8950,816.8945313,-359.8632813,-386.2304688
2.9000,825.1953125,-350.5859375,-368.1640625
2.9050,825.1953125,-353.515625,-387.2070313
2.9100,822.7539063,-354.9804688,-394.0429688
2.9150,840.3320313,-365.234375,-416.015625
2.9200,837.4023438,-376.953125,-415.0390625
2.9250,832.5195313,-392.0898438,-408.6914063
2.9300,833.4960938,-387.6953125,-395.5078125
2.9350,833.0078125,-390.625,-409.6679688
2.9400,837.4023438,-374.5117188,-397.4609375
2.9450,840.8203125,-368.1640625,-392.0898438
2.9500,831.0546875,-373.046875,-406.25
2.9550,824.7070313,-377.4414063,-422.8515625
2.9600,815.4296875,-379.8828125,-424.8046875
2.9650,819.8242188,-384.765625,-416.015625
2.9700,840.8203125,-375.4882813,-429.1992188
2.9750,830.078125,-370.6054688,-407.2265625
2.9800,826.6601563,-362.3046875,-411.1328125
2.9850,811.5234375,-361.8164063,-399.9023438
2.9900,807.6171875,-358.3984375,-400.390625
2.9950,792.96875,-365.234375,-414.0625
3.0000,798.3398438,-361.328125,-408.6914063
3.0050,806.640625,-360.3515625,-399.4140625
3.0100,817.3828125,-367.1875,-417.4804688
3.0150,835.4492188,-376.4648438,-422.8515625
3.0200,844.7265625,-374.0234375,-425.2929688
3.0250,838.8671875,-375.9765625,-455.078125
3.0300,821.2890625,-389.6484375,-454.5898438
3.0350,817.3828125,-390.1367188,-452.1484375
3.0400,817.8710938,-395.9960938,-436.5234375
3.0450,824.21875,-387.2070313,-434.5703125
3.0500,831.5429688,-377.4414063,-431.1523438
3.0550,835.9375,-382.3242188,-428.2226563
3.0600,825.6835938,-381.8359375,-400.390625
3.0650,816.8945313,-380.3710938,-427.2460938
3.0700,816.8945313,-372.5585938,-422.3632813
3.0750,825.6835938,-365.234375,-433.59375
3.0800,809.0820313,-369.6289063,-434.5703125
3.0850,809.5703125,-380.859375,-454.5898438
3.0900,817.3828125,-377.4414063,-437.9882813
3.0950,836.9140625,-377.4414063,-464.3554688
3.1000,833.984375,-388.1835938,-460.4492188
3.1050,829.1015625,-384.2773438,-430.1757813
3.1100,807.6171875,-381.3476563,-416.9921875
3.1150,784.1796875,-391.6015625,-427.734375
3.1200,782.7148438,-379.8828125,-437.5
3.1250,780.7617188,-390.1367188,-425.78125
3.1300,786.6210938,-394.53125,-418.9453125
3.1350,814.9414063,-379.8828125,-416.9921875
3.1400,819.3359375,-392.0898438,-441.8945313
3.1450,821.7773438,-415.5273438,-439.453125
3.1500,833.4960938,-421.875,-452.6367188
3.1550,843.75,-410.15625,-465.8203125
3.1600,822.265625,-410.6445313,-487.3046875
3.1650,819.3359375,-401.3671875,-470.2148438
3.1700,810.0585938,-403.3203125,-460.9375
3.1750,815.9179688,-386.2304688,-465.8203125
3.1800,812.0117188,-378.4179688,-434.0820313
3.1850,805.1757813,-383.7890625,-453.6132813
3.1900,801.2695313,-385.2539063,-454.1015625
3.1950,796.3867188,-400.390625,-439.453125
3.2000,784.6679688,-395.5078125,-455.5664063
3.2050,791.9921875,-386.2304688,-442.3828125
3.2100,798.828125,-384.765625,-453.6132813
3.2150,806.640625,-378.90625,-451.171875
3.2200,795.8984375,-380.3710938,-452.6367188
3.2250,785.15625,-389.1601563,-458.0078125
3.2300,794.4335938,-380.3710938,-464.84375
3.2350,814.9414063,-385.7421875,-474.609375
3.2400,803.2226563,-392.578125,-483.3984375
3.2450,789.5507813,-391.6015625,-465.3320313
3.2500,786.6210938,-383.3007813,-462.4023438
3.2550,785.6445313,-380.3710938,-455.078125
3.2600,780.2734375,-376.4648438,-459.9609375
3.2650,779.7851563,-381.3476563,-448.2421875
3.2700,784.6679688,-386.2304688,-453.125
3.2750,793.4570313,-393.5546875,-468.75
3.2800,805.1757813,-390.1367188,-458.984375
3.2850,793.9453125,-397.9492188,-463.8671875
3.2900,792.4804688,-385.7421875,-452.6367188
3.2950,792.96875,-385.2539063,-458.0078125
3.3000,794.921875,-370.6054688,-455.078125
3.3050,790.0390625,-379.8828125,-453.125
3.3100,784.6679688,-384.2773438,-461.9140625
3.3150,791.015625,-382.3242188,-458.984375
3.3200,788.5742188,-383.3007813,-479.0039063
3.3250,773.4375,-392.0898438,-462.4023438
3.3300,785.15625,-378.4179688,-458.4960938
3.3350,782.7148438,-390.625,-470.2148438
3.3400,786.1328125,-386.2304688,-466.796875
3.3450,790.5273438,-388.671875,-455.078125
3.3500,775.390625,-387.2070313,-449.7070313
3.3550,776.3671875,-392.578125,-457.03125
3.3600,791.015625,-387.2070313,-459.4726563
3.3650,806.640625,-400.390625,-483.8867188
3.3700,790.5273438,-413.5742188,-497.0703125
3.3750,790.0390625,-404.7851563,-476.5625
3.3800,786.6210938,-405.2734375,-461.4257813
3.3850,782.7148438,-406.25,-462.890625
3.3900,775.8789063,-426.2695313,-461.9140625
3.3950,786.1328125,-417.4804688,-446.7773438
3.4000,778.3203125,-415.5273438,-458.984375
3.4050,789.5507813,-392.578125,-469.2382813
3.4100,795.8984375,-393.0664063,-460.4492188
3.4150,797.3632813,-383.7890625,-470.703125
3.4200,804.1992188,-370.1171875,-475.0976563
3.4250,815.4296875,-367.6757813,-461.9140625
3.4300,802.2460938,-373.046875,-468.75
3.4350,791.015625,-380.859375,-491.6992188
3.4400,789.0625,-388.1835938,-484.8632813
3.4450,786.6210938,-396.484375,-481.9335938
3.4500,782.2265625,-394.0429688,-476.0742188
3.4550,780.7617188,-394.0429688,-481.4453125
3.4600,773.9257813,-390.1367188,-474.1210938
3.4650,780.7617188,-393.0664063,-478.0273438
3.4700,774.4140625,-387.2070313,-505.859375
3.4750,778.3203125,-378.90625,-486.8164063
3.4800,763.671875,-389.1601563,-484.375
3.4850,764.6484375,-387.6953125,-490.7226563
3.4900,757.8125,-391.6015625,-488.7695313
3.4950,762.6953125,-390.625,-495.1171875
3.5000,753.90625,-397.9492188,-505.859375
3.5050,751.953125,-396.484375,-507.3242188
3.5100,757.3242188,-395.9960938,-489.7460938
3.5150,756.3476563,-398.9257813,-507.8125
3.5200,757.8125,-401.3671875,-493.6523438
3.5250,758.3007813,-412.109375,-503.4179688
3.5300,755.3710938,-407.7148438,-500.4882813
3.5350,746.09375,-414.0625,-520.5078125
3.5400,747.0703125,-408.6914063,-508.3007813
3.5450,750.9765625,-403.8085938,-518.5546875
3.5500,757.3242188,-409.1796875,-526.3671875
3.5550,758.3007813,-411.6210938,-514.6484375
3.5600,746.5820313,-407.7148438,-523.4375
3.5650,740.7226563,-402.34375,-515.1367188
3.5700,736.328125,-395.5078125,-516.1132813
3.5750,758.3007813,-400.390625,-514.6484375
3.5800,749.0234375,-404.7851563,-529.296875
3.5850,753.4179688,-395.9960938,-508.7890625
3.5900,746.09375,-413.5742188,-502.9296875
3.5950,750.4882813,-408.6914063,-513.671875
3.6000,749.0234375,-399.9023438,-502.9296875
3.6050,740.234375,-409.6679688,-511.71875
3.6100,742.6757813,-409.1796875,-499.5117188
3.6150,745.1171875,-422.8515625,-510.2539063
3.6200,740.234375,-426.2695313,-525.390625
3.6250,735.8398438,-417.96875,-511.2304688
3.6300,747.0703125,-408.6914063,-524.4140625
3.6350,744.140625,-425.78125,-513.671875
3.6400,744.140625,-432.1289063,-515.625
3.6450,742.6757813,-440.4296875,-506.8359375
3.6500,733.8867188,-425.2929688,-515.1367188
3.6550,735.3515625,-430.6640625,-529.7851563
3.6600,729.9804688,-430.1757813,-532.2265625
3.6650,731.9335938,-425.2929688,-515.625
3.6700,742.6757813,-400.390625,-522.9492188
3.6750,745.6054688,-401.3671875,-537.109375
3.6800,730.9570313,-395.5078125,-534.1796875
3.6850,732.9101563,-389.6484375,-541.9921875
3.6900,725.0976563,-388.671875,-541.5039063
3.6950,727.0507813,-385.2539063,-543.4570313
3.7000,733.3984375,-381.3476563,-563.4765625
3.7050,742.6757813,-374.5117188,-555.6640625
3.7100,748.046875,-367.6757813,-561.0351563
3.7150,741.6992188,-371.5820313,-555.1757813
3.7200,750.9765625,-379.3945313,-556.1523438
3.7250,737.3046875,-395.0195313,-560.0585938
3.7300,724.609375,-395.9960938,-527.34375
3.7350,736.8164063,-392.0898438,-525.390625
3.7400,739.2578125,-399.9023438,-547.3632813
3.7450,743.1640625,-408.203125,-561.0351563
3.7500,747.5585938,-395.0195313,-547.3632813
3.7550,747.0703125,-394.0429688,-557.6171875
3.7600,736.328125,-398.4375,-551.2695313
3.7650,720.2148438,-405.7617188,-540.0390625
3.7700,732.9101563,-395.9960938,-526.8554688
3.7750,741.6992188,-406.7382813,-554.6875
3.7800,741.2109375,-405.2734375,-547.3632813
3.7850,744.140625,-407.7148438,-541.9921875
3.7900,753.90625,-400.390625,-541.5039063
3.7950,756.3476563,-408.203125,-556.1523438
3.8000,740.7226563,-407.2265625,-557.1289063
3.8050,746.09375,-404.7851563,-559.0820313
3.8100,750.4882813,-403.8085938,-545.4101563
3.8150,752.9296875,-399.4140625,-546.3867188
3.8200,746.09375,-405.7617188,-549.3164063
3.8250,750.4882813,-397.4609375,-553.7109375
3.8300,755.859375,-395.9960938,-557.1289063
3.8350,760.2539063,-397.4609375,-550.78125
3.8400,766.6015625,-399.4140625,-546.3867188
3.8450,771.484375,-395.9960938,-555.1757813
3.8500,765.1367188,-401.3671875,-538.5742188
3.8550,755.859375,-410.6445313,-559.0820313
3.8600,752.4414063,-415.5273438,-542.4804688
3.8650,754.3945313,-432.6171875,-544.921875
3.8700,754.8828125,-424.8046875,-551.2695313
3.8750,763.1835938,-418.4570313,-541.015625
3.8800,754.8828125,-421.3867188,-555.6640625
3.8850,759.2773438,-400.8789063,-553.7109375
3.8900,758.7890625,-389.1601563,-563.9648438
3.8950,763.671875,-377.9296875,-563.4765625
3.9000,758.7890625,-378.4179688,-564.9414063
3.9050,756.8359375,-379.3945313,-564.453125
3.9100,753.4179688,-395.0195313,-564.453125
3.9150,754.8828125,-407.7148438,-569.8242188
3.9200,749.5117188,-434.5703125,-547.8515625
3.9250,754.8828125,-429.1992188,-555.1757813
3.9300,748.046875,-431.1523438,-539.5507813
3.9350,739.7460938,-426.7578125,-537.5976563
3.9400,738.28125,-421.3867188,-534.6679688
3.9450,745.1171875,-410.15625,-551.2695313
3.9500,751.953125,-395.9960938,-553.7109375
3.9550,759.2773438,-385.7421875,-555.1757813
3.9600,753.90625,-384.2773438,-582.03125
3.9650,760.2539063,-369.140625,-576.171875
3.9700,749.0234375,-367.6757813,-579.1015625
3.9750,745.1171875,-355.46875,-593.75
3.9800,748.046875,-348.6328125,-587.890625
3.9850,741.2109375,-349.609375,-578.6132813
3.9900,734.8632813,-356.4453125,-586.4257813
3.9950,732.421875,-362.3046875,-584.9609375
4.0000,722.1679688,-368.6523438,-577.1484375
4.0050,733.3984375,-372.5585938,-554.6875
4.0100,736.8164063,-389.6484375,-559.0820313
4.0150,730.9570313,-404.7851563,-568.359375
4.0200,729.4921875,-405.7617188,-565.4296875
4.0250,729.0039063,-407.7148438,-564.9414063
4.0300,723.6328125,-408.203125,-552.2460938
4.0350,747.5585938,-395.9960938,-565.4296875
4.0400,745.6054688,-382.8125,-581.0546875
4.0450,761.71875,-378.90625,-588.8671875
4.0500,759.2773438,-374.5117188,-570.8007813
4.0550,751.953125,-362.7929688,-579.5898438
4.0600,741.2109375,-351.0742188,-585.9375
4.0650,741.6992188,-350.5859375,-575.1953125
4.0700,736.328125,-353.515625,-580.078125
4.0750,730.46875,-352.0507813,-579.5898438
4.0800,733.3984375,-348.1445313,-579.5898438
4.0850,721.6796875,-356.9335938,-568.359375
4.0900,722.1679688,-360.8398438,-569.3359375
4.0950,718.2617188,-373.046875,-580.5664063
4.1000,722.65625,-379.8828125,-573.2421875
4.1050,725.0976563,-389.1601563,-574.7070313
4.1100,723.1445313,-391.6015625,-567.8710938
4.1150,732.9101563,-387.6953125,-583.984375
4.1200,733.8867188,-389.1601563,-570.3125
4.1250,729.4921875,-394.53125,-573.2421875
4.1300,738.7695313,-378.90625,-600.5859375
4.1350,741.6992188,-368.6523438,-598.1445313
4.1400,743.1640625,-372.0703125,-587.890625
4.1450,752.9296875,-373.5351563,-583.984375
4.1500,751.4648438,-374.5117188,-585.4492188
4.1550,747.5585938,-374.0234375,-568.359375
4.1600,742.6757813,-377.9296875,-579.1015625
4.1650,736.8164063,-383.7890625,-589.3554688
4.1700,729.9804688,-394.53125,-576.6601563
4.1750,726.5625,-392.578125,-566.40625
4.1800,721.1914063,-392.578125,-579.5898438
4.1850,721.1914063,-382.3242188,-577.6367188
4.1900,714.84375,-388.671875,-577.1484375
4.1950,717.2851563,-385.7421875,-578.6132813
4.2000,723.6328125,-375.9765625,-576.6601563
4.2050,740.234375,-364.2578125,-575.1953125
4.2100,740.234375,-368.6523438,-582.5195313
4.2150,741.2109375,-363.28125,-587.4023438
4.2200,730.9570313,-364.2578125,-582.03125
4.2250,738.7695313,-364.2578125,-570.8007813
4.2300,728.515625,-375.4882813,-565.4296875
4.2350,734.375,-375.9765625,-568.8476563
4.2400,740.234375,-379.3945313,-568.359375
4.2450,741.6992188,-386.71875,-569.8242188
4.2500,729.0039063,-391.6015625,-567.3828125
4.2550,731.4453125,-385.7421875,-565.4296875
4.2600,728.0273438,-377.4414063,-541.5039063
4.2650,728.0273438,-375.9765625,-555.6640625
4.2700,733.8867188,-378.90625,-566.8945313
4.2750,744.140625,-376.4648438,-561.5234375
4.2800,749.0234375,-374.0234375,-576.171875
4.2850,741.2109375,-368.1640625,-560.0585938
4.2900,754.3945313,-354.9804688,-552.2460938
4.2950,752.9296875,-358.8867188,-559.0820313
4.3000,741.6992188,-359.375,-555.1757813
4.3050,737.7929688,-359.375,-567.8710938
4.3100,734.375,-366.6992188,-566.40625
4.3150,737.7929688,-364.7460938,-551.7578125
4.3200,740.234375,-354.9804688,-562.5
4.3250,733.3984375,-347.1679688,-543.4570313
4.3300,740.7226563,-341.796875,-544.921875
4.3350,738.7695313,-351.0742188,-545.8984375
4.3400,741.6992188,-355.9570313,-555.1757813
4.3450,747.5585938,-356.9335938,-544.4335938
4.3500,750.4882813,-371.09375,-554.6875
4.3550,752.9296875,-372.5585938,-538.0859375
4.3600,757.3242188,-371.09375,-529.7851563
4.3650,754.3945313,-373.046875,-537.109375
4.3700,747.0703125,-385.7421875,-551.2695313
4.3750,751.4648438,-387.2070313,-544.4335938
4.3800,752.9296875,-378.4179688,-553.2226563
4.3850,762.2070313,-363.28125,-535.15625
4.3900,752.9296875,-364.7460938,-545.8984375
4.3950,763.671875,-355.46875,-537.109375
4.4000,763.1835938,-342.2851563,-539.0625
4.4050,749.5117188,-345.703125,-537.109375
4.4100,738.28125,-346.1914063,-532.7148438
4.4150,733.3984375,-351.5625,-531.7382813
4.4200,740.234375,-353.0273438,-513.671875
4.4250,748.046875,-359.375,-524.4140625
4.4300,757.3242188,-360.8398438,-528.8085938
4.4350,759.2773438,-366.6992188,-528.8085938
4.4400,750,-362.3046875,-524.4140625
4.4450,755.859375,-362.7929688,-510.2539063
4.4500,771.484375,-356.9335938,-506.8359375
4.4550,771.9726563,-358.3984375,-518.0664063
4.4600,774.4140625,-353.515625,-542.4804688
4.4650,776.3671875,-345.2148438,-520.0195313
4.4700,765.625,-355.46875,-529.296875
4.4750,768.0664063,-347.65625,-524.9023438
4.4800,762.2070313,-346.6796875,-512.2070313
4.4850,760.7421875,-350.0976563,-515.625
4.4900,758.7890625,-350.5859375,-516.6015625
4.4950,757.8125,-368.1640625,-516.6015625
4.5000,761.71875,-369.6289063,-520.9960938
4.5050,764.6484375,-364.2578125,-523.9257813
4.5100,769.0429688,-366.6992188,-523.9257813
4.5150,770.0195313,-370.1171875,-538.0859375
4.5200,777.34375,-357.421875,-540.0390625
4.5250,773.9257813,-350.5859375,-537.109375
4.5300,768.5546875,-340.8203125,-521.9726563
4.5350,763.1835938,-341.796875,-511.71875
4.5400,758.3007813,-339.84375,-515.625
4.5450,756.3476563,-342.2851563,-516.6015625
4.5500,760.2539063,-337.4023438,-500.9765625
4.5550,768.5546875,-346.6796875,-511.71875
4.5600,774.4140625,-357.421875,-522.4609375
4.5650,782.7148438,-357.421875,-518.0664063
4.5700,786.1328125,-356.9335938,-521.9726563
4.5750,781.7382813,-365.7226563,-511.71875
4.5800,785.6445313,-362.3046875,-501.4648438
4.5850,789.5507813,-368.6523438,-502.4414063
4.5900,803.2226563,-358.3984375,-509.2773438
4.5950,796.875,-366.2109375,-518.0664063
4.6000,792.96875,-365.234375,-507.3242188
4.6050,796.3867188,-356.4453125,-506.3476563
4.6100,796.3867188,-354.0039063,-505.859375
4.6150,798.3398438,-349.1210938,-502.4414063
4.6200,788.0859375,-346.6796875,-499.0234375
4.6250,800.78125,-339.3554688,-499.5117188
4.6300,794.921875,-343.2617188,-500
4.6350,799.8046875,-343.2617188,-504.3945313
4.6400,806.640625,-338.3789063,-492.1875
4.6450,806.1523438,-333.0078125,-491.2109375
4.6500,798.828125,-337.890625,-483.8867188
4.6550,799.3164063,-338.3789063,-499.0234375
4.6600,804.6875,-334.9609375,-484.375
4.6650,807.6171875,-339.3554688,-506.8359375
4.6700,806.1523438,-340.8203125,-499.5117188
4.6750,809.0820313,-342.2851563,-514.1601563
4.6800,797.3632813,-350.0976563,-497.5585938
4.6850,802.734375,-341.3085938,-488.7695313
4.6900,794.921875,-340.3320313,-479.0039063
4.6950,804.6875,-334.4726563,-487.7929688
4.7000,811.5234375,-328.125,-492.1875
4.7050,816.8945313,-327.1484375,-488.7695313
4.7100,817.8710938,-333.984375,-495.1171875
4.7150,811.0351563,-340.8203125,-484.375
4.7200,806.1523438,-339.3554688,-480.9570313
4.7250,809.5703125,-340.8203125,-468.75
4.7300,811.5234375,-340.8203125,-470.2148438
4.7350,818.359375,-339.84375,-485.3515625
4.7400,817.8710938,-345.703125,-490.7226563
4.7450,829.5898438,-342.7734375,-494.140625
4.7500,827.6367188,-341.3085938,-494.140625
4.7550,830.5664063,-342.2851563,-488.7695313
4.7600,830.5664063,-335.4492188,-485.3515625
4.7650,837.4023438,-322.7539063,-481.4453125
4.7700,826.171875,-325.1953125,-464.3554688
4.7750,833.984375,-316.8945313,-473.1445313
4.7800,843.2617188,-297.3632813,-470.703125
4.7850,841.3085938,-297.8515625,-487.3046875
4.7900,840.8203125,-303.2226563,-502.9296875
4.7950,850.5859375,-298.828125,-493.6523438
4.8000,829.5898438,-312.0117188,-498.046875
4.8050,819.8242188,-312.9882813,-470.2148438
4.8100,812.9882813,-315.4296875,-469.7265625
4.8150,803.7109375,-318.8476563,-461.9140625
4.8200,802.734375,-323.7304688,-429.6875
4.8250,804.1992188,-322.7539063,-453.125
4.8300,806.1523438,-330.078125,-431.1523438
4.8350,803.7109375,-335.9375,-449.7070313
4.8400,822.265625,-326.6601563,-431.1523438
4.8450,825.6835938,-325.1953125,-423.828125
4.8500,829.1015625,-319.8242188,-428.2226563
4.8550,836.9140625,-307.6171875,-436.0351563
4.8600,835.9375,-315.9179688,-453.125
4.8650,837.890625,-319.3359375,-451.6601563
4.8700,847.1679688,-318.359375,-451.6601563
4.8750,853.0273438,-318.8476563,-440.9179688
4.8800,847.1679688,-317.8710938,-447.7539063
4.8850,849.609375,-315.4296875,-450.6835938
4.8900,839.84375,-308.1054688,-431.1523438
4.8950,846.6796875,-309.0820313,-420.4101563
4.9000,838.3789063,-309.5703125,-411.6210938
4.9050,839.84375,-302.734375,-419.4335938
4.9100,850.5859375,-301.2695313,-430.6640625
4.9150,852.0507813,-301.2695313,-459.4726563
4.9200,861.8164063,-306.640625,-451.6601563
4.9250,864.2578125,-305.6640625,-465.3320313
4.9300,854.4921875,-311.0351563,-443.8476563
4.9350,859.8632813,-317.3828125,-447.7539063
4.9400,859.375,-323.2421875,-434.5703125
4.9450,854.4921875,-324.21875,-446.7773438
4.9500,856.4453125,-309.0820313,-424.3164063
4.9550,849.609375,-308.59375,-408.6914063
4.9600,852.0507813,-300.78125,-411.1328125
4.9650,847.1679688,-296.3867188,-408.6914063
4.9700,845.703125,-302.2460938,-417.96875
4.9750,852.5390625,-317.8710938,-427.734375
4.9800,857.9101563,-315.4296875,-427.734375
4.9850,861.8164063,-309.0820313,-431.640625
4.9900,851.0742188,-308.59375,-423.828125
4.9950,857.421875,-296.3867188,-423.3398438
5.0000,847.1679688,-297.8515625,-423.3398438
5.0050,842.2851563,-292.96875,-429.1992188
5.0100,844.2382813,-288.5742188,-432.6171875
5.0150,847.65625,-290.5273438,-437.0117188
5.0200,860.3515625,-284.6679688,-425.2929688
5.0250,849.609375,-293.9453125,-442.8710938
5.0300,846.6796875,-291.015625,-432.6171875
5.0350,851.0742188,-277.34375,-425.78125
5.0400,840.3320313,-270.0195313,-419.4335938
5.0450,851.5625,-257.8125,-419.921875
5.0500,846.1914063,-270.9960938,-410.15625
5.0550,852.5390625,-280.2734375,-413.0859375
5.0600,858.3984375,-288.5742188,-410.15625
5.0650,862.3046875,-288.0859375,-404.296875
5.0700,861.8164063,-292.4804688,-409.1796875
5.0750,864.7460938,-290.5273438,-412.109375
5.0800,869.140625,-279.7851563,-411.6210938
5.0850,863.28125,-288.0859375,-433.59375
5.0900,861.328125,-279.296875,-423.828125
5.0950,875,-274.9023438,-416.5039063
5.1000,869.6289063,-282.2265625,-416.015625
5.1050,879.8828125,-270.5078125,-410.15625
5.1100,873.046875,-279.296875,-412.5976563
5.1150,869.140625,-279.7851563,-400.390625
5.1200,859.8632813,-280.7617188,-390.625
5.1250,866.6992188,-269.53125,-387.2070313
5.1300,865.7226563,-275.8789063,-403.3203125
5.1350,880.3710938,-271.9726563,-397.9492188
5.1400,882.8125,-278.3203125,-410.15625
5.1450,886.71875,-273.4375,-421.3867188
5.1500,874.5117188,-286.6210938,-416.015625
5.1550,881.8359375,-280.2734375,-414.0625
5.1600,876.4648438,-277.8320313,-384.765625
5.1650,871.09375,-277.34375,-393.5546875
5.1700,870.1171875,-265.625,-389.6484375
5.1750,874.5117188,-261.71875,-395.0195313
5.1800,870.6054688,-263.1835938,-374.0234375
5.1850,870.6054688,-261.71875,-373.5351563
5.1900,877.4414063,-255.859375,-379.8828125
5.1950,887.6953125,-248.5351563,-376.4648438
5.2000,894.0429688,-242.1875,-400.390625
5.2050,907.7148438,-236.328125,-380.3710938
5.2100,910.6445313,-228.0273438,-383.7890625
5.2150,911.6210938,-224.1210938,-374.5117188
5.2200,915.5273438,-210.4492188,-385.2539063
5.2250,908.6914063,-217.7734375,-388.1835938
5.2300,903.3203125,-217.2851563,-388.671875
5.2350,896.484375,-226.0742188,-367.1875
5.2400,884.2773438,-233.8867188,-356.9335938
5.2450,869.140625,-242.6757813,-344.2382813
5.2500,875.4882813,-238.28125,-341.3085938
5.2550,879.8828125,-244.140625,-336.9140625
5.2600,878.90625,-249.5117188,-331.5429688
5.2650,889.6484375,-245.1171875,-340.3320313
5.2700,891.6015625,-244.6289063,-359.375
5.2750,894.0429688,-259.765625,-351.5625
5.2800,900.8789063,-262.6953125,-364.7460938
5.2850,912.5976563,-256.3476563,-370.6054688
5.2900,918.4570313,-258.3007813,-353.515625
5.2950,919.921875,-263.671875,-374.0234375
5.3000,916.015625,-254.8828125,-359.375
5.3050,901.3671875,-252.4414063,-378.90625
5.3100,894.53125,-236.328125,-376.4648438
5.3150,886.2304688,-243.1640625,-379.8828125
5.3200,895.5078125,-240.234375,-385.7421875
5.3250,897.4609375,-240.7226563,-392.578125
5.3300,894.0429688,-233.3984375,-374.0234375
5.3350,898.9257813,-220.2148438,-369.6289063
5.3400,885.7421875,-218.2617188,-371.09375
5.3450,894.0429688,-218.2617188,-345.703125
5.3500,903.8085938,-225.0976563,-344.2382813
5.3550,916.015625,-245.1171875,-349.609375
5.3600,928.7109375,-244.140625,-344.2382813
5.3650,927.734375,-248.5351563,-350.0976563
5.3700,920.4101563,-250.4882813,-354.0039063
5.3750,922.3632813,-253.4179688,-342.2851563
5.3800,921.875,-240.234375,-356.4453125
5.3850,928.2226563,-242.1875,-357.9101563
5.3900,925.78125,-237.7929688,-373.046875
5.3950,930.6640625,-224.609375,-387.2070313
5.4000,912.5976563,-227.5390625,-370.6054688
5.4050,911.1328125,-200.1953125,-367.6757813
5.4100,897.4609375,-196.2890625,-354.9804688
5.4150,895.5078125,-187.9882813,-341.3085938
5.4200,893.5546875,-183.59375,-346.6796875
5.4250,887.2070313,-197.7539063,-333.0078125
5.4300,908.6914063,-188.4765625,-331.0546875
5.4350,919.4335938,-201.171875,-342.2851563
5.4400,939.453125,-196.7773438,-328.125
5.4450,948.7304688,-191.40625,-333.4960938
5.4500,947.7539063,-188.9648438,-350.0976563
5.4550,938.4765625,-186.5234375,-356.9335938
5.4600,916.5039063,-197.7539063,-367.1875
5.4650,930.6640625,-189.9414063,-377.9296875
5.4700,912.5976563,-213.8671875,-361.8164063
5.4750,906.7382813,-210.4492188,-372.5585938
5.4800,903.8085938,-192.8710938,-351.0742188
5.4850,888.1835938,-196.2890625,-341.796875
5.4900,885.7421875,-181.1523438,-336.4257813
5.4950,892.0898438,-182.1289063,-305.6640625
5.5000,892.578125,-169.921875,-290.5273438
5.5050,903.8085938,-167.4804688,-300.78125
5.5100,924.8046875,-162.5976563,-315.9179688
5.5150,939.453125,-167.96875,-332.5195313
5.5200,948.7304688,-173.828125,-354.4921875
5.5250,944.8242188,-187.5,-373.046875
5.5300,951.6601563,-174.8046875,-383.7890625
5.5350,934.0820313,-191.40625,-395.9960938
5.5400,922.3632813,-193.359375,-358.8867188
5.5450,916.9921875,-189.453125,-362.3046875
5.5500,911.6210938,-172.8515625,-336.4257813
5.5550,913.0859375,-172.3632813,-320.3125
5.5600,908.6914063,-169.4335938,-286.6210938
5.5650,904.7851563,-172.8515625,-273.9257813
5.5700,897.9492188,-176.2695313,-261.2304688
5.5750,919.4335938,-183.1054688,-257.8125
5.5800,944.3359375,-175.2929688,-252.9296875
5.5850,965.3320313,-166.9921875,-258.3007813
5.5900,992.1875,-160.6445313,-290.0390625
5.5950,994.6289063,-173.828125,-312.9882813
5.6000,998.046875,-187.0117188,-317.8710938
5.6050,987.3046875,-188.9648438,-342.2851563
5.6100,969.7265625,-177.734375,-355.9570313
5.6150,947.7539063,-173.3398438,-364.7460938
5.6200,928.2226563,-175.2929688,-345.2148438
5.6250,919.921875,-168.4570313,-326.6601563
5.6300,904.7851563,-150.8789063,-312.9882813
5.6350,895.9960938,-145.0195313,-292.4804688
5.6400,886.71875,-144.0429688,-272.9492188
5.6450,896.9726563,-139.6484375,-258.3007813
5.6500,903.8085938,-155.2734375,-254.3945313
5.6550,933.59375,-152.8320313,-255.859375
5.6600,940.9179688,-153.3203125,-275.8789063
5.6650,959.4726563,-147.4609375,-293.9453125
5.6700,969.7265625,-155.2734375,-324.7070313
5.6750,969.2382813,-165.5273438,-357.9101563
5.6800,961.4257813,-181.1523438,-348.1445313
5.6850,955.5664063,-184.5703125,-348.1445313
5.6900,942.3828125,-185.0585938,-347.1679688
5.6950,944.3359375,-184.5703125,-341.796875
5.7000,925.78125,-207.03125,-326.6601563
5.7050,941.40625,-181.1523438,-307.6171875
5.7100,926.2695313,-170.8984375,-277.8320313
5.7150,917.96875,-148.9257813,-283.203125
5.7200,907.7148438,-146.9726563,-293.4570313
5.7250,921.3867188,-150.390625,-268.0664063
5.7300,933.1054688,-158.6914063,-284.1796875
5.7350,948.7304688,-161.6210938,-299.8046875
5.7400,959.9609375,-159.6679688,-297.3632813
5.7450,948.7304688,-171.3867188,-339.3554688
5.7500,954.5898438,-163.0859375,-337.4023438
5.7550,956.5429688,-167.4804688,-349.609375
5.7600,953.125,-169.921875,-355.46875
5.7650,946.2890625,-184.0820313,-356.9335938
5.7700,933.59375,-183.1054688,-356.9335938
5.7750,920.8984375,-178.2226563,-335.4492188
5.7800,913.5742188,-155.7617188,-320.3125
5.7850,919.4335938,-117.6757813,-295.8984375
5.7900,916.9921875,-98.6328125,-282.7148438
5.7950,920.4101563,-90.33203125,-269.53125
5.8000,929.1992188,-84.9609375,-254.3945313
5.8050,945.3125,-93.26171875,-255.859375
5.8100,953.125,-113.7695313,-270.9960938
5.8150,962.890625,-135.2539063,-287.5976563
5.8200,967.7734375,-157.7148438,-303.7109375
5.8250,968.2617188,-170.8984375,-319.8242188
5.8300,963.8671875,-181.640625,-332.5195313
5.8350,961.4257813,-180.1757813,-340.8203125
5.8400,954.5898438,-188.9648438,-352.0507813
5.8450,945.3125,-196.7773438,-338.8671875
5.8500,937.5,-184.0820313,-338.8671875
5.8550,936.0351563,-166.5039063,-314.453125
5.8600,930.6640625,-147.9492188,-289.0625
5.8650,917.4804688,-128.4179688,-265.625
5.8700,916.5039063,-104.9804688,-257.8125
5.8750,932.6171875,-87.40234375,-234.375
5.8800,937.9882813,-83.49609375,-211.4257813
5.8850,942.8710938,-88.37890625,-221.1914063
5.8900,957.03125,-96.6796875,-242.1875
5.8950,966.796875,-116.2109375,-271.484375
5.9000,973.6328125,-136.71875,-293.9453125
5.9050,976.5625,-152.8320313,-301.2695313
5.9100,977.5390625,-156.7382813,-326.6601563
5.9150,977.5390625,-160.15625,-335.4492188
5.9200,969.2382813,-161.6210938,-341.3085938
5.9250,965.8203125,-150.8789063,-341.3085938
5.9300,952.1484375,-156.7382813,-332.03125
5.9350,944.3359375,-136.71875,-322.265625
5.9400,917.96875,-125,-299.8046875
5.9450,914.5507813,-114.2578125,-289.5507813
5.9500,920.4101563,-104.4921875,-262.2070313
5.9550,934.0820313,-85.9375,-255.3710938
5.9600,929.1992188,-87.40234375,-239.7460938
5.9650,946.2890625,-85.44921875,-240.7226563
5.9700,955.5664063,-88.37890625,-253.90625
5.9750,963.8671875,-109.8632813,-278.3203125
5.9800,967.7734375,-137.2070313,-283.6914063
5.9850,974.1210938,-156.25,-308.59375
5.9900,970.2148438,-180.6640625,-323.7304688
5.9950,977.0507813,-178.2226563,-336.9140625
6.0000,961.9140625,-186.0351563,-346.6796875
6.0050,956.0546875,-178.7109375,-329.5898438
6.0100,958.0078125,-169.4335938,-326.6601563
6.0150,940.4296875,-160.6445313,-315.9179688
6.0200,932.1289063,-139.6484375,-311.0351563
6.0250,920.4101563,-134.2773438,-302.734375
6.0300,914.0625,-123.5351563,-292.4804688
6.0350,921.875,-104.0039063,-264.1601563
6.0400,918.4570313,-90.8203125,-270.9960938
6.0450,917.96875,-81.0546875,-265.1367188
6.0500,928.2226563,-77.63671875,-260.2539063
6.0550,934.5703125,-86.42578125,-279.296875
6.0600,936.5234375,-97.16796875,-304.6875
6.0650,943.8476563,-108.8867188,-307.1289063
6.0700,942.3828125,-122.5585938,-306.1523438
6.0750,948.2421875,-121.09375,-318.359375
6.0800,941.40625,-130.3710938,-299.8046875
6.0850,927.2460938,-135.7421875,-311.0351563
6.0900,944.3359375,-128.90625,-304.1992188
6.0950,944.8242188,-146.484375,-315.9179688
6.1000,942.3828125,-144.0429688,-299.3164063
6.1050,940.4296875,-141.6015625,-286.6210938
6.1100,941.40625,-139.1601563,-293.9453125
6.1150,958.984375,-131.8359375,-282.7148438
6.1200,962.890625,-130.859375,-294.921875
6.1250,972.65625,-131.3476563,-295.4101563
6.1300,974.1210938,-127.9296875,-293.4570313
6.1350,971.6796875,-127.4414063,-309.5703125
6.1400,972.65625,-123.5351563,-319.8242188
6.1450,973.1445313,-123.5351563,-321.7773438
6.1500,963.8671875,-136.2304688,-325.1953125
6.1550,958.4960938,-143.5546875,-331.0546875
6.1600,951.171875,-140.1367188,-340.8203125
6.1650,946.2890625,-148.9257813,-338.3789063
6.1700,940.4296875,-155.7617188,-330.078125
6.1750,947.265625,-145.0195313,-312.0117188
6.1800,926.2695313,-152.34375,-306.640625
6.1850,940.9179688,-132.3242188,-299.8046875
6.1900,941.8945313,-138.1835938,-292.4804688
6.1950,948.7304688,-122.5585938,-273.9257813
6.2000,941.40625,-117.1875,-273.9257813
6.2050,944.8242188,-99.609375,-258.3007813
6.2100,947.265625,-96.6796875,-254.8828125
6.2150,948.2421875,-86.9140625,-256.8359375
6.2200,950.6835938,-86.42578125,-240.234375
6.2250,953.125,-91.796875,-254.8828125
6.2300,950.6835938,-92.28515625,-258.7890625
6.2350,948.2421875,-97.65625,-274.4140625
6.2400,955.5664063,-98.14453125,-274.4140625
6.2450,947.265625,-109.375,-292.4804688
6.2500,941.8945313,-105.9570313,-313.4765625
6.2550,935.0585938,-107.9101563,-304.1992188
6.2600,924.3164063,-99.609375,-322.265625
6.2650,914.0625,-106.4453125,-319.3359375
6.2700,917.4804688,-96.6796875,-330.5664063
6.2750,915.5273438,-86.9140625,-322.265625
6.2800,920.4101563,-89.84375,-335.9375
6.2850,924.8046875,-85.9375,-331.5429688
6.2900,918.4570313,-91.30859375,-348.1445313
6.2950,926.7578125,-91.796875,-338.8671875
6.3000,931.1523438,-96.6796875,-316.40625
6.3050,938.4765625,-98.6328125,-324.7070313
6.3100,943.359375,-100.5859375,-291.9921875
6.3150,959.4726563,-103.0273438,-279.7851563
6.3200,963.3789063,-108.3984375,-276.3671875
6.3250,955.5664063,-124.5117188,-270.0195313
6.3300,965.8203125,-133.7890625,-254.3945313
6.3350,959.9609375,-138.671875,-248.5351563
6.3400,965.3320313,-132.3242188,-252.9296875
6.3450,965.8203125,-135.2539063,-256.8359375
6.3500,962.4023438,-139.6484375,-266.6015625
6.3550,955.078125,-133.3007813,-269.0429688
6.3600,957.5195313,-119.6289063,-298.3398438
6.3650,947.7539063,-108.8867188,-295.4101563
6.3700,944.8242188,-110.8398438,-320.3125
6.3750,948.2421875,-99.12109375,-345.2148438
6.3800,946.7773438,-93.75,-317.3828125
6.3850,937.0117188,-95.21484375,-319.8242188
6.3900,943.8476563,-79.1015625,-315.9179688
6.3950,944.3359375,-89.84375,-299.3164063
6.4000,953.6132813,-76.66015625,-304.6875
6.4050,961.9140625,-85.9375,-312.0117188
6.4100,960.4492188,-90.33203125,-285.6445313
6.4150,958.0078125,-111.328125,-286.6210938
6.4200,964.3554688,-113.28125,-297.8515625
6.4250,962.4023438,-107.9101563,-308.59375
6.4300,948.7304688,-112.7929688,-312.0117188
6.4350,954.1015625,-110.8398438,-289.5507813
6.4400,951.171875,-103.0273438,-314.9414063
6.4450,941.40625,-110.3515625,-311.5234375
6.4500,940.4296875,-104.9804688,-314.453125
6.4550,941.40625,-102.5390625,-321.7773438
6.4600,942.8710938,-100.5859375,-298.3398438
6.4650,943.359375,-100.0976563,-314.9414063
6.4700,955.5664063,-89.84375,-302.2460938
6.4750,962.4023438,-102.5390625,-311.0351563
6.4800,962.4023438,-98.6328125,-310.0585938
6.4850,957.03125,-110.8398438,-305.6640625
6.4900,962.4023438,-116.6992188,-307.1289063
6.4950,956.5429688,-117.6757813,-324.21875
6.5000,959.4726563,-106.4453125,-332.5195313
6.5050,962.4023438,-113.7695313,-326.171875
6.5100,958.4960938,-106.9335938,-334.9609375
6.5150,955.078125,-106.4453125,-327.1484375
6.5200,953.125,-104.0039063,-329.5898438
6.5250,953.125,-99.609375,-333.984375
6.5300,955.5664063,-89.84375,-332.03125
6.5350,948.2421875,-96.19140625,-318.8476563
6.5400,947.7539063,-97.16796875,-318.359375
6.5450,952.6367188,-86.9140625,-325.6835938
6.5500,946.7773438,-82.03125,-297.3632813
6.5550,958.4960938,-73.73046875,-297.8515625
6.5600,956.0546875,-67.3828125,-298.3398438
6.5650,961.4257813,-69.3359375,-291.9921875
6.5700,958.984375,-72.75390625,-304.1992188
6.5750,961.9140625,-78.125,-283.6914063
6.5800,955.078125,-78.61328125,-286.6210938
6.5850,965.8203125,-80.078125,-300.2929688
6.5900,958.984375,-80.56640625,-292.4804688
6.5950,958.0078125,-92.28515625,-312.0117188
6.6000,960.4492188,-94.23828125,-302.2460938
6.6050,955.5664063,-99.609375,-308.1054688
6.6100,943.8476563,-107.421875,-318.8476563
6.6150,952.1484375,-99.609375,-309.5703125
6.6200,938.9648438,-102.0507813,-307.1289063
6.6250,953.6132813,-97.16796875,-302.734375
6.6300,948.7304688,-82.03125,-307.6171875
6.6350,947.7539063,-81.54296875,-309.5703125
6.6400,943.8476563,-78.125,-308.59375
6.6450,945.3125,-75.1953125,-325.6835938
6.6500,936.0351563,-71.77734375,-310.546875
6.6550,945.8007813,-65.4296875,-323.2421875
6.6600,935.0585938,-76.171875,-328.6132813
6.6650,934.0820313,-78.61328125,-328.125
6.6700,940.9179688,-74.21875,-315.4296875
6.6750,949.7070313,-70.80078125,-312.0117188
6.6800,948.2421875,-79.1015625,-324.7070313
6.6850,953.6132813,-83.984375,-325.1953125
6.6900,947.265625,-91.796875,-317.8710938
6.6950,940.9179688,-95.21484375,-326.6601563
6.7000,935.0585938,-99.12109375,-327.1484375
6.7050,944.8242188,-99.12109375,-317.8710938
6.7100,933.1054688,-101.0742188,-314.9414063
6.7150,941.8945313,-89.84375,-322.265625
6.7200,939.9414063,-76.66015625,-323.2421875
6.7250,934.0820313,-74.70703125,-325.1953125
6.7300,935.0585938,-62.5,-313.9648438
6.7350,946.7773438,-61.03515625,-303.7109375
6.7400,938.4765625,-78.125,-317.8710938
6.7450,954.5898438,-68.359375,-312.0117188
6.7500,941.40625,-84.47265625,-309.0820313
6.7550,944.8242188,-88.8671875,-311.5234375
6.7600,946.2890625,-86.9140625,-317.8710938
6.7650,933.59375,-100.0976563,-304.1992188
6.7700,945.3125,-91.796875,-301.2695313
6.7750,953.125,-94.23828125,-288.5742188
6.7800,955.078125,-89.84375,-287.109375
6.7850,957.03125,-92.28515625,-285.15625
6.7900,955.078125,-87.40234375,-278.3203125
6.7950,958.4960938,-77.63671875,-274.9023438
6.8000,954.5898438,-69.3359375,-270.9960938
6.8050,964.84375,-56.640625,-272.4609375
6.8100,967.2851563,-39.55078125,-257.8125
6.8150,973.6328125,-27.34375,-262.6953125
6.8200,970.703125,-22.4609375,-254.8828125
6.8250,972.65625,-10.7421875,-244.6289063
6.8300,976.0742188,-22.94921875,-265.1367188
6.8350,979.4921875,-31.73828125,-254.8828125
6.8400,977.0507813,-46.38671875,-273.9257813
6.8450,976.5625,-59.5703125,-287.5976563
6.8500,956.0546875,-78.125,-294.4335938
6.8550,958.0078125,-79.1015625,-317.8710938
6.8600,943.8476563,-85.9375,-314.453125
6.8650,941.8945313,-87.890625,-308.59375
6.8700,946.2890625,-84.47265625,-324.7070313
6.8750,947.7539063,-86.42578125,-308.1054688
6.8800,937.9882813,-87.40234375,-314.9414063
6.8850,942.8710938,-77.1484375,-328.125
6.8900,937.0117188,-77.63671875,-309.0820313
6.8950,932.1289063,-79.58984375,-310.0585938
6.9000,939.9414063,-72.265625,-319.3359375
6.9050,933.1054688,-83.0078125,-309.0820313
6.9100,940.4296875,-77.63671875,-305.1757813
6.9150,948.7304688,-71.2890625,-291.9921875
6.9200,950.1953125,-74.70703125,-294.921875
6.9250,956.0546875,-74.21875,-280.2734375
6.9300,961.9140625,-71.2890625,-283.203125
6.9350,965.8203125,-66.89453125,-299.3164063
6.9400,961.4257813,-63.4765625,-289.0625
6.9450,949.7070313,-65.91796875,-281.25
6.9500,954.5898438,-54.6875,-283.6914063
6.9550,945.3125,-62.98828125,-283.203125
6.9600,947.7539063,-63.4765625,-294.4335938
6.9650,950.6835938,-61.03515625,-293.4570313
6.9700,960.9375,-61.5234375,-301.2695313
6.9750,951.6601563,-72.265625,-294.921875
6.9800,953.125,-80.078125,-296.875
6.9850,948.2421875,-90.33203125,-293.4570313
6.9900,948.2421875,-87.40234375,-301.2695313
6.9950,942.3828125,-91.796875,-296.875
7.0000,947.7539063,-79.1015625,-306.640625
7.0050,938.9648438,-83.984375,-302.2460938
7.0100,944.8242188,-75.68359375,-307.6171875
7.0150,953.6132813,-69.82421875,-304.6875
7.0200,951.171875,-69.3359375,-303.7109375
7.0250,959.9609375,-62.5,-292.96875
7.0300,966.3085938,-54.19921875,-282.7148438
7.0350,970.703125,-57.12890625,-275.390625
7.0400,969.7265625,-41.50390625,-271.9726563
7.0450,974.1210938,-34.66796875,-271.9726563
7.0500,968.2617188,-37.59765625,-271.9726563
7.0550,960.4492188,-47.36328125,-272.4609375
7.0600,964.3554688,-47.8515625,-271.484375
7.0650,964.84375,-58.10546875,-299.3164063
7.0700,962.4023438,-73.73046875,-303.7109375
7.0750,968.2617188,-80.078125,-290.0390625
7.0800,974.609375,-77.1484375,-304.1992188
7.0850,984.8632813,-61.5234375,-286.6210938
7.0900,977.5390625,-65.4296875,-285.6445313
7.0950,979.9804688,-47.8515625,-298.3398438
7.1000,972.65625,-37.109375,-277.8320313
7.1050,983.8867188,-20.01953125,-271.9726563
7.1100,983.3984375,-11.71875,-286.1328125
7.1150,987.7929688,3.90625,-276.8554688
7.1200,973.6328125,3.41796875,-266.6015625
7.1250,978.515625,-1.953125,-258.3007813
7.1300,976.0742188,-8.30078125,-254.8828125
7.1350,981.9335938,-11.23046875,-270.5078125
7.1400,972.65625,-21.484375,-275.8789063
7.1450,969.7265625,-41.50390625,-284.6679688
7.1500,976.0742188,-43.45703125,-266.1132813
7.1550,980.9570313,-50.29296875,-285.6445313
7.1600,969.2382813,-61.5234375,-279.296875
7.1650,975.0976563,-58.10546875,-292.4804688
7.1700,971.6796875,-55.6640625,-303.2226563
7.1750,965.8203125,-51.7578125,-303.2226563
7.1800,965.3320313,-56.15234375,-315.4296875
7.1850,959.4726563,-59.5703125,-315.4296875
7.1900,962.4023438,-48.33984375,-309.5703125
7.1950,950.1953125,-62.01171875,-316.8945313
7.2000,947.7539063,-51.7578125,-313.9648438
7.2050,944.8242188,-59.08203125,-333.984375
7.2100,929.1992188,-56.640625,-324.7070313
7.2150,942.3828125,-60.546875,-326.6601563
7.2200,942.3828125,-54.19921875,-332.03125
7.2250,943.8476563,-57.6171875,-334.9609375
7.2300,937.5,-66.89453125,-319.8242188
7.2350,959.4726563,-56.15234375,-321.2890625
7.2400,950.6835938,-50.29296875,-317.3828125
7.2450,958.4960938,-39.55078125,-307.1289063
7.2500,961.9140625,-41.015625,-299.8046875
7.2550,968.75,-35.64453125,-288.0859375
7.2600,963.8671875,-33.203125,-282.2265625
7.2650,975.0976563,-24.4140625,-293.9453125
7.2700,976.0742188,-26.3671875,-277.34375
7.2750,981.4453125,-23.4375,-273.9257813
7.2800,972.65625,-32.2265625,-269.53125
7.2850,975.0976563,-30.76171875,-286.1328125
7.2900,970.703125,-35.64453125,-276.3671875
7.2950,970.2148438,-49.31640625,-275.390625
7.3000,963.3789063,-51.26953125,-274.4140625
7.3050,956.0546875,-53.7109375,-284.1796875
7.3100,954.1015625,-55.6640625,-300.2929688
7.3150,946.7773438,-70.80078125,-305.6640625
7.3200,943.8476563,-71.2890625,-324.7070313
7.3250,941.8945313,-68.84765625,-341.3085938
7.3300,929.1992188,-68.359375,-347.65625
7.3350,944.8242188,-50.29296875,-338.8671875
7.3400,934.5703125,-47.8515625,-347.1679688
7.3450,937.9882813,-44.43359375,-342.7734375
7.3500,938.4765625,-36.1328125,-333.0078125
7.3550,938.9648438,-43.45703125,-340.3320313
7.3600,947.7539063,-29.296875,-328.6132813
7.3650,953.125,-45.41015625,-331.0546875
7.3700,950.6835938,-47.36328125,-317.3828125
7.3750,953.125,-53.22265625,-312.5
7.3800,945.8007813,-64.453125,-324.21875
7.3850,949.21875,-64.453125,-307.1289063
7.3900,951.6601563,-62.01171875,-311.5234375
7.3950,949.21875,-66.89453125,-309.0820313
7.4000,947.7539063,-67.87109375,-313.9648438
7.4050,943.8476563,-68.359375,-323.2421875
7.4100,934.5703125,-62.98828125,-327.1484375
7.4150,946.2890625,-62.01171875,-322.265625
7.4200,942.8710938,-57.6171875,-333.0078125
7.4250,940.9179688,-62.5,-335.4492188
7.4300,946.2890625,-52.734375,-327.6367188
7.4350,936.5234375,-63.96484375,-331.0546875
7.4400,941.40625,-62.01171875,-348.6328125
7.4450,948.2421875,-55.17578125,-332.03125
7.4500,946.7773438,-61.03515625,-329.5898438
7.4550,951.171875,-60.05859375,-327.1484375
7.4600,938.4765625,-66.89453125,-315.9179688
7.4650,944.8242188,-60.05859375,-323.2421875
7.4700,956.0546875,-45.8984375,-296.875
7.4750,953.125,-46.875,-291.5039063
7.4800,949.7070313,-43.9453125,-282.7148438
7.4850,961.9140625,-42.96875,-281.7382813
7.4900,961.9140625,-37.59765625,-274.4140625
7.4950,961.9140625,-36.62109375,-275.8789063
7.5000,954.1015625,-41.015625,-286.6210938
7.5050,971.6796875,-36.62109375,-290.0390625
7.5100,976.5625,-57.12890625,-270.9960938
7.5150,969.7265625,-67.87109375,-257.3242188
7.5200,970.703125,-81.54296875,-273.4375
7.5250,971.1914063,-87.890625,-275.8789063
7.5300,977.5390625,-80.56640625,-285.6445313
7.5350,981.4453125,-63.4765625,-312.0117188
7.5400,990.7226563,-43.45703125,-318.8476563
7.5450,982.421875,-62.5,-337.4023438
7.5500,980.46875,-64.94140625,-340.3320313
7.5550,965.8203125,-76.171875,-333.984375
7.5600,957.5195313,-65.4296875,-330.5664063
7.5650,940.9179688,-65.91796875,-315.9179688
7.5700,954.5898438,-44.43359375,-334.9609375
7.5750,959.4726563,-47.36328125,-337.4023438
7.5800,958.984375,-50.29296875,-337.4023438
7.5850,964.3554688,-53.22265625,-327.6367188
7.5900,955.5664063,-54.19921875,-323.2421875
7.5950,955.5664063,-59.08203125,-315.9179688
7.6000,949.7070313,-60.05859375,-315.9179688
7.6050,943.8476563,-78.125,-288.0859375
7.6100,949.21875,-75.1953125,-295.4101563
7.6150,954.5898438,-71.2890625,-304.1992188
7.6200,942.8710938,-85.44921875,-297.3632813
7.6250,939.9414063,-85.9375,-312.9882813
7.6300,936.5234375,-84.47265625,-294.4335938
7.6350,939.453125,-83.0078125,-307.1289063
7.6400,932.1289063,-82.51953125,-303.2226563
7.6450,927.2460938,-83.0078125,-316.40625
7.6500,930.1757813,-71.77734375,-328.125
7.6550,935.0585938,-63.96484375,-321.2890625
7.6600,935.546875,-57.12890625,-313.9648438
7.6650,930.1757813,-66.40625,-301.7578125
7.6700,932.1289063,-48.33984375,-299.3164063
7.6750,935.0585938,-45.8984375,-298.828125
7.6800,936.5234375,-47.36328125,-295.4101563
7.6850,946.7773438,-48.828125,-294.921875
7.6900,943.8476563,-50.29296875,-290.5273438
7.6950,954.5898438,-55.6640625,-302.734375
7.7000,961.9140625,-53.7109375,-290.0390625
7.7050,965.3320313,-78.125,-281.7382813
7.7100,963.8671875,-92.28515625,-311.5234375
7.7150,969.2382813,-96.6796875,-329.5898438
7.7200,963.3789063,-107.9101563,-327.6367188
7.7250,970.703125,-114.7460938,-334.9609375
7.7300,980.9570313,-110.3515625,-334.9609375
7.7350,975.5859375,-127.9296875,-323.2421875
7.7400,988.7695313,-108.8867188,-336.9140625
7.7450,981.9335938,-107.9101563,-347.65625
7.7500,968.75,-100.0976563,-338.3789063
7.7550,961.9140625,-100.0976563,-325.1953125
7.7600,953.125,-93.75,-312.0117188
7.7650,950.1953125,-88.8671875,-300.2929688
7.7700,948.7304688,-86.42578125,-290.5273438
7.7750,954.5898438,-66.89453125,-287.5976563
7.7800,953.6132813,-62.01171875,-292.96875
7.7850,954.5898438,-62.98828125,-296.875
7.7900,944.8242188,-78.125,-274.4140625
7.7950,945.8007813,-75.1953125,-262.2070313
7.8000,950.1953125,-63.4765625,-263.671875
7.8050,949.21875,-59.5703125,-242.1875
7.8100,946.2890625,-64.453125,-264.1601563
7.8150,944.8242188,-74.70703125,-266.6015625
7.8200,949.7070313,-80.56640625,-274.4140625
7.8250,957.03125,-81.0546875,-275.390625
7.8300,956.0546875,-83.0078125,-287.109375
7.8350,956.5429688,-75.68359375,-279.296875
7.8400,950.1953125,-68.84765625,-275.390625
7.8450,936.5234375,-87.890625,-294.921875
7.8500,942.8710938,-87.40234375,-277.34375
7.8550,960.4492188,-72.265625,-269.0429688
7.8600,962.890625,-60.05859375,-276.8554688
7.8650,954.5898438,-58.59375,-274.4140625
7.8700,952.1484375,-57.6171875,-278.3203125
7.8750,951.6601563,-66.40625,-286.1328125
7.8800,946.7773438,-78.61328125,-277.8320313
7.8850,943.359375,-79.1015625,-261.2304688
7.8900,945.3125,-82.51953125,-271.9726563
7.8950,948.7304688,-89.35546875,-263.671875
7.9000,955.5664063,-104.0039063,-267.578125
7.9050,965.8203125,-109.8632813,-277.34375
7.9100,966.3085938,-102.5390625,-282.2265625
7.9150,947.7539063,-109.8632813,-287.109375
7.9200,949.7070313,-103.0273438,-281.7382813
7.9250,949.7070313,-110.3515625,-275.8789063
7.9300,961.4257813,-102.5390625,-290.0390625
7.9350,959.9609375,-104.0039063,-298.828125
7.9400,948.2421875,-105.46875,-286.6210938
7.9450,949.21875,-97.16796875,-283.203125
7.9500,947.265625,-94.7265625,-277.34375
7.9550,947.7539063,-92.28515625,-299.8046875
7.9600,951.6601563,-88.8671875,-283.203125
7.9650,946.2890625,-88.8671875,-284.6679688
7.9700,947.265625,-82.51953125,-280.7617188
7.9750,936.0351563,-86.9140625,-274.4140625
7.9800,937.0117188,-82.51953125,-283.203125
7.9850,936.5234375,-87.890625,-276.8554688
7.9900,934.0820313,-101.5625,-270.9960938
7.9950,935.0585938,-102.0507813,-259.2773438
8.0000,938.9648438,-96.6796875,-251.953125
8.0050,937.9882813,-101.5625,-259.2773438
8.0100,948.2421875,-113.7695313,-254.8828125
8.0150,961.9140625,-113.7695313,-257.8125
8.0200,965.8203125,-113.28125,-254.8828125
8.0250,961.4257813,-112.7929688,-252.4414063
8.0300,964.84375,-124.5117188,-277.34375
8.0350,965.8203125,-135.7421875,-280.2734375
8.0400,963.3789063,-140.625,-276.3671875
8.0450,966.796875,-140.625,-303.2226563
8.0500,961.9140625,-128.90625,-296.3867188
8.0550,949.7070313,-134.765625,-312.9882813
8.0600,939.453125,-135.2539063,-293.9453125
8.0650,939.9414063,-141.6015625,-276.3671875
8.0700,938.9648438,-124.5117188,-275.390625
8.0750,945.8007813,-113.28125,-276.8554688
8.0800,932.6171875,-119.140625,-270.0195313
8.0850,938.9648438,-117.6757813,-274.4140625
8.0900,942.8710938,-119.140625,-265.1367188
8.0950,945.8007813,-126.953125,-264.6484375
8.1000,941.8945313,-132.3242188,-270.0195313
8.1050,944.8242188,-128.4179688,-280.7617188
8.1100,942.8710938,-142.0898438,-284.1796875
8.1150,957.5195313,-149.9023438,-278.3203125
8.1200,949.7070313,-151.8554688,-270.0195313
8.1250,946.2890625,-148.9257813,-280.2734375
8.1300,940.9179688,-152.34375,-269.53125
8.1350,944.3359375,-165.0390625,-268.5546875
8.1400,946.2890625,-167.96875,-263.1835938
8.1450,941.8945313,-164.5507813,-282.7148438
8.1500,944.8242188,-159.1796875,-301.7578125
8.1550,943.359375,-152.8320313,-298.3398438
8.1600,944.3359375,-147.9492188,-298.828125
8.1650,944.8242188,-136.2304688,-286.6210938
8.1700,956.0546875,-119.6289063,-282.2265625
8.1750,946.7773438,-130.859375,-282.2265625
8.1800,949.7070313,-135.2539063,-287.5976563
8.1850,946.7773438,-146.484375,-289.5507813
8.1900,946.7773438,-156.25,-295.4101563
8.1950,946.2890625,-162.5976563,-302.734375
8.2000,938.9648438,-171.875,-292.96875
8.2050,945.3125,-169.921875,-284.1796875
8.2100,945.8007813,-166.9921875,-276.3671875
8.2150,941.40625,-174.3164063,-285.15625
8.2200,945.3125,-170.8984375,-280.2734375
8.2250,944.3359375,-177.2460938,-291.9921875
8.2300,948.2421875,-178.2226563,-305.1757813
8.2350,947.7539063,-182.1289063,-287.109375
8.2400,946.2890625,-176.7578125,-278.8085938
8.2450,946.2890625,-164.0625,-298.828125
8.2500,936.5234375,-159.1796875,-305.1757813
8.2550,934.0820313,-166.015625,-303.2226563
8.2600,931.1523438,-172.3632813,-288.5742188
8.2650,937.0117188,-174.3164063,-280.2734375
8.2700,945.3125,-170.4101563,-266.1132813
8.2750,947.7539063,-180.1757813,-274.9023438
8.2800,950.1953125,-159.1796875,-279.296875
8.2850,941.40625,-154.296875,-282.7148438
8.2900,943.359375,-136.2304688,-300.2929688
8.2950,948.2421875,-136.71875,-297.3632813
8.3000,964.84375,-125.9765625,-312.0117188
8.3050,957.03125,-130.859375,-333.4960938
8.3100,952.1484375,-131.8359375,-353.515625
8.3150,940.9179688,-152.34375,-341.3085938
8.3200,932.6171875,-159.1796875,-349.1210938
8.3250,929.1992188,-182.1289063,-375.4882813
8.3300,918.9453125,-207.03125,-380.859375
8.3350,912.5976563,-234.375,-352.5390625
8.3400,896.9726563,-237.3046875,-339.3554688
8.3450,885.7421875,-235.8398438,-326.171875
8.3500,882.3242188,-221.1914063,-314.453125
8.3550,885.7421875,-226.0742188,-299.8046875
8.3600,894.53125,-235.8398438,-292.96875
8.3650,917.4804688,-237.7929688,-280.7617188
8.3700,922.8515625,-228.0273438,-282.2265625
8.3750,929.1992188,-207.03125,-285.6445313
8.3800,936.0351563,-191.40625,-278.3203125
8.3850,941.8945313,-194.8242188,-277.34375
8.3900,938.9648438,-199.21875,-289.0625
8.3950,956.5429688,-193.8476563,-297.3632813
8.4000,959.9609375,-195.3125,-299.8046875
8.4050,965.8203125,-201.6601563,-282.2265625
8.4100,961.4257813,-193.8476563,-277.8320313
8.4150,958.4960938,-183.59375,-290.0390625
8.4200,947.7539063,-197.7539063,-277.34375
8.4250,952.1484375,-205.5664063,-303.2226563
8.4300,940.9179688,-208.4960938,-315.9179688
8.4350,940.9179688,-206.0546875,-314.9414063
8.4400,948.2421875,-201.6601563,-297.8515625
8.4450,933.59375,-205.5664063,-302.734375
8.4500,931.1523438,-198.2421875,-316.8945313
8.4550,927.2460938,-197.265625,-305.1757813
8.4600,939.453125,-189.453125,-309.5703125
8.4650,920.8984375,-221.6796875,-298.828125
8.4700,915.5273438,-235.3515625,-294.4335938
8.4750,906.25,-231.4453125,-285.15625
8.4800,901.8554688,-222.65625,-298.828125
8.4850,908.203125,-229.4921875,-315.9179688
8.4900,919.4335938,-227.0507813,-324.21875
8.4950,920.4101563,-224.1210938,-323.7304688
8.5000,911.1328125,-212.890625,-320.3125
8.5050,910.6445313,-218.2617188,-315.4296875
8.5100,904.7851563,-228.0273438,-328.6132813
8.5150,904.7851563,-241.2109375,-311.5234375
8.5200,908.203125,-231.9335938,-300.2929688
8.5250,909.1796875,-233.8867188,-309.5703125
8.5300,916.9921875,-225.5859375,-323.7304688
8.5350,908.203125,-221.6796875,-339.3554688
8.5400,905.2734375,-221.6796875,-333.984375
8.5450,906.25,-225.5859375,-349.1210938
8.5500,917.96875,-221.1914063,-353.515625
8.5550,915.0390625,-224.1210938,-352.5390625
8.5600,903.3203125,-245.6054688,-362.3046875
8.5650,903.8085938,-258.3007813,-354.0039063
8.5700,885.7421875,-262.2070313,-358.8867188
8.5750,883.7890625,-256.3476563,-347.65625
8.5800,884.2773438,-255.859375,-318.359375
8.5850,892.578125,-249.0234375,-327.1484375
8.5900,889.1601563,-249.0234375,-327.1484375
8.5950,899.9023438,-257.8125,-336.9140625
8.6000,903.3203125,-256.3476563,-326.6601563
8.6050,911.1328125,-255.3710938,-343.75
8.6100,907.2265625,-258.3007813,-350.5859375
8.6150,918.4570313,-252.4414063,-355.46875
8.6200,908.6914063,-250,-360.8398438
8.6250,911.1328125,-238.7695313,-366.6992188
8.6300,910.15625,-235.8398438,-369.6289063
8.6350,899.9023438,-237.3046875,-369.6289063
8.6400,895.5078125,-251.4648438,-370.6054688
8.6450,893.0664063,-255.859375,-353.515625
8.6500,880.859375,-256.3476563,-372.5585938
8.6550,891.1132813,-258.3007813,-354.9804688
8.6600,886.71875,-250.4882813,-350.5859375
8.6650,891.1132813,-253.4179688,-348.1445313
8.6700,883.7890625,-242.6757813,-349.609375
8.6750,888.1835938,-250,-360.3515625
8.6800,893.0664063,-255.859375,-362.7929688
8.6850,904.7851563,-258.3007813,-383.3007813
8.6900,914.0625,-264.6484375,-362.3046875
8.6950,905.7617188,-277.34375,-381.3476563
8.7000,900.390625,-290.0390625,-361.8164063
8.7050,891.1132813,-298.3398438,-356.4453125
8.7100,883.7890625,-285.6445313,-363.28125
8.7150,887.2070313,-279.7851563,-379.8828125
8.7200,884.765625,-277.34375,-374.5117188
8.7250,882.8125,-280.7617188,-375.9765625
8.7300,885.7421875,-290.0390625,-357.421875
8.7350,895.9960938,-279.296875,-358.8867188
8.7400,895.0195313,-274.4140625,-376.4648438
8.7450,899.4140625,-269.0429688,-378.90625
8.7500,908.203125,-254.3945313,-372.0703125
8.7550,905.2734375,-271.484375,-385.7421875
8.7600,910.6445313,-270.0195313,-365.7226563
8.7650,883.7890625,-293.4570313,-388.1835938
8.7700,895.5078125,-263.671875,-367.1875
8.7750,888.1835938,-271.484375,-360.8398438
8.7800,871.5820313,-287.5976563,-360.8398438
8.7850,875.9765625,-291.9921875,-382.3242188
8.7900,876.953125,-290.0390625,-382.3242188
8.7950,886.2304688,-281.7382813,-370.1171875
8.8000,880.3710938,-279.296875,-397.4609375
8.8050,876.4648438,-275.390625,-360.8398438
8.8100,876.4648438,-279.296875,-372.5585938
8.8150,880.3710938,-299.3164063,-390.625
8.8200,896.9726563,-300.78125,-383.7890625
8.8250,884.765625,-314.9414063,-393.0664063
8.8300,895.5078125,-299.3164063,-387.6953125
8.8350,899.9023438,-289.5507813,-389.1601563
8.8400,893.5546875,-293.9453125,-393.5546875
8.8450,888.671875,-294.4335938,-405.2734375
8.8500,871.09375,-298.3398438,-385.2539063
8.8550,864.2578125,-291.015625,-390.1367188
8.8600,865.234375,-289.0625,-371.09375
8.8650,870.1171875,-284.6679688,-409.6679688
8.8700,880.3710938,-278.8085938,-409.1796875
8.8750,880.3710938,-285.6445313,-396.9726563
8.8800,874.0234375,-302.734375,-377.4414063
8.8850,873.046875,-304.1992188,-384.765625
8.8900,866.2109375,-309.0820313,-392.578125
8.8950,858.3984375,-311.5234375,-380.859375
8.9000,846.1914063,-321.2890625,-375
8.9050,849.1210938,-318.8476563,-368.1640625
8.9100,869.6289063,-326.171875,-379.8828125
8.9150,873.5351563,-326.171875,-417.4804688
8.9200,858.3984375,-330.5664063,-413.0859375
8.9250,852.5390625,-321.7773438,-408.6914063
8.9300,841.796875,-309.0820313,-409.1796875
8.9350,843.75,-306.640625,-405.7617188
8.9400,853.0273438,-291.5039063,-395.5078125
8.9450,855.9570313,-304.1992188,-403.8085938
8.9500,849.609375,-318.359375,-406.25
8.9550,847.1679688,-317.3828125,-408.203125
8.9600,848.1445313,-313.4765625,-398.9257813
8.9650,859.375,-305.1757813,-410.6445313
8.9700,854.4921875,-318.8476563,-424.3164063
8.9750,848.6328125,-325.1953125,-408.6914063
8.9800,844.2382813,-333.4960938,-400.390625
8.9850,855.46875,-348.1445313,-395.0195313
8.9900,872.0703125,-345.2148438,-404.7851563
8.9950,875.9765625,-353.515625,-421.3867188
9.0000,859.8632813,-362.3046875,-418.4570313
9.0050,862.7929688,-358.8867188,-415.0390625
9.0100,872.5585938,-339.3554688,-412.109375
9.0150,866.2109375,-336.4257813,-431.1523438
9.0200,848.1445313,-337.890625,-417.4804688
9.0250,845.2148438,-327.1484375,-407.7148438
9.0300,848.6328125,-324.21875,-421.3867188
9.0350,843.2617188,-324.7070313,-422.8515625
9.0400,840.3320313,-325.6835938,-421.875
9.0450,825.6835938,-327.6367188,-399.9023438
9.0500,825.6835938,-317.3828125,-389.6484375
9.0550,827.6367188,-320.3125,-409.1796875
9.0600,820.3125,-322.265625,-416.5039063
9.0650,827.6367188,-334.9609375,-404.7851563
9.0700,827.1484375,-341.796875,-433.1054688
9.0750,833.4960938,-350.5859375,-413.5742188
9.0800,840.8203125,-340.8203125,-439.9414063
9.0850,841.796875,-352.5390625,-437.5
9.0900,837.890625,-346.1914063,-440.4296875
9.0950,830.5664063,-337.890625,-447.265625
9.1000,822.7539063,-321.2890625,-428.7109375
9.1050,798.3398438,-333.4960938,-431.1523438
9.1100,801.7578125,-330.078125,-433.1054688
9.1150,808.59375,-335.9375,-437.9882813
9.1200,812.0117188,-348.1445313,-460.9375
9.1250,825.6835938,-344.2382813,-441.8945313
9.1300,819.3359375,-359.8632813,-428.7109375
9.1350,832.5195313,-354.4921875,-427.734375
9.1400,825.1953125,-353.515625,-447.265625
9.1450,828.125,-356.9335938,-429.6875
9.1500,820.8007813,-373.5351563,-438.4765625
9.1550,821.7773438,-385.2539063,-437.0117188
9.1600,827.1484375,-385.2539063,-432.6171875
9.1650,848.1445313,-377.4414063,-458.984375
9.1700,857.421875,-382.8125,-456.0546875
9.1750,865.7226563,-388.1835938,-485.3515625
9.1800,859.375,-383.7890625,-457.5195313
9.1850,847.1679688,-368.6523438,-463.3789063
9.1900,834.9609375,-349.609375,-457.5195313
9.1950,815.4296875,-340.8203125,-447.265625
9.2000,802.734375,-344.2382813,-454.5898438
9.2050,808.1054688,-330.078125,-451.6601563
9.2100,809.0820313,-333.0078125,-455.5664063
9.2150,817.3828125,-342.2851563,-451.6601563
9.2200,825.1953125,-344.2382813,-458.0078125
9.2250,823.7304688,-338.3789063,-454.1015625
9.2300,808.1054688,-345.2148438,-440.9179688
9.2350,813.9648438,-346.1914063,-421.3867188
9.2400,810.0585938,-341.796875,-441.8945313
9.2450,809.0820313,-343.2617188,-441.8945313
9.2500,807.6171875,-343.2617188,-454.1015625
9.2550,804.1992188,-346.6796875,-463.3789063
9.2600,817.8710938,-330.078125,-444.3359375
9.2650,815.4296875,-330.5664063,-470.2148438
9.2700,812.5,-324.7070313,-476.5625
9.2750,806.640625,-321.2890625,-477.5390625
9.2800,792.4804688,-333.4960938,-455.078125
9.2850,798.828125,-330.078125,-446.7773438
9.2900,795.4101563,-335.9375,-454.1015625
9.2950,798.3398438,-352.0507813,-459.4726563
9.3000,799.8046875,-358.3984375,-446.2890625
9.3050,806.640625,-356.4453125,-467.2851563
9.3100,803.7109375,-360.8398438,-470.703125
9.3150,810.0585938,-365.234375,-478.0273438
9.3200,803.2226563,-359.375,-470.703125
9.3250,800.78125,-363.28125,-456.0546875
9.3300,792.96875,-369.140625,-441.40625
9.3350,802.734375,-357.421875,-459.9609375
9.3400,793.4570313,-364.2578125,-457.03125
9.3450,794.921875,-365.234375,-469.7265625
9.3500,794.921875,-364.7460938,-468.2617188
9.3550,807.6171875,-353.0273438,-476.5625
9.3600,811.5234375,-357.9101563,-472.65625
9.3650,811.5234375,-362.3046875,-466.796875
9.3700,797.3632813,-365.234375,-465.8203125
9.3750,806.1523438,-366.2109375,-450.6835938
9.3800,802.734375,-365.234375,-458.0078125
9.3850,810.0585938,-378.4179688,-465.8203125
9.3900,811.0351563,-382.3242188,-464.84375
9.3950,812.5,-372.0703125,-461.4257813
9.4000,805.6640625,-374.0234375,-485.8398438
9.4050,805.1757813,-373.5351563,-469.7265625
9.4100,802.2460938,-368.1640625,-465.8203125
9.4150,805.6640625,-356.4453125,-497.0703125
9.4200,808.1054688,-358.3984375,-487.3046875
9.4250,799.8046875,-371.5820313,-490.7226563
9.4300,795.8984375,-375,-479.4921875
9.4350,797.8515625,-372.5585938,-462.890625
9.4400,792.96875,-372.0703125,-479.9804688
9.4450,787.5976563,-373.046875,-491.2109375
9.4500,780.2734375,-368.1640625,-486.328125
9.4550,777.8320313,-368.1640625,-473.6328125
9.4600,783.6914063,-371.5820313,-478.0273438
9.4650,788.0859375,-371.5820313,-483.8867188
9.4700,785.15625,-379.3945313,-497.5585938
9.4750,800.2929688,-380.859375,-480.9570313
9.4800,801.2695313,-391.6015625,-471.6796875
9.4850,801.2695313,-385.2539063,-493.1640625
9.4900,804.6875,-376.4648438,-482.421875
9.4950,790.5273438,-389.6484375,-476.5625
9.5000,794.921875,-382.8125,-500.4882813
9.5050,805.6640625,-373.046875,-477.0507813
9.5100,815.9179688,-367.1875,-462.4023438
9.5150,802.2460938,-357.9101563,-477.5390625
9.5200,806.1523438,-349.609375,-485.3515625
9.5250,812.0117188,-348.1445313,-495.6054688
9.5300,812.9882813,-350.0976563,-508.3007813
9.5350,799.3164063,-359.375,-503.90625
9.5400,795.8984375,-356.9335938,-499.5117188
9.5450,801.7578125,-352.5390625,-464.84375
9.5500,798.828125,-363.28125,-479.9804688
9.5550,796.875,-371.09375,-493.6523438
9.5600,794.4335938,-375.9765625,-483.3984375
9.5650,789.5507813,-368.1640625,-498.5351563
9.5700,780.2734375,-373.046875,-485.8398438
9.5750,789.5507813,-366.2109375,-491.2109375
9.5800,788.0859375,-365.234375,-491.6992188
9.5850,790.5273438,-364.7460938,-491.6992188
9.5900,789.5507813,-367.6757813,-499.5117188
9.5950,789.5507813,-365.234375,-507.8125
9.6000,788.0859375,-360.3515625,-507.8125
9.6050,791.015625,-373.5351563,-506.8359375
9.6100,780.7617188,-372.0703125,-488.7695313
9.6150,770.0195313,-362.7929688,-493.6523438
9.6200,775.390625,-346.6796875,-488.7695313
9.6250,765.1367188,-370.6054688,-494.140625
9.6300,758.7890625,-371.09375,-485.3515625
9.6350,769.0429688,-360.3515625,-488.28125
9.6400,780.2734375,-341.3085938,-505.3710938
9.6450,766.6015625,-357.9101563,-480.9570313
9.6500,764.6484375,-347.1679688,-486.328125
9.6550,756.3476563,-360.3515625,-476.5625
9.6600,769.53125,-355.9570313,-486.8164063
9.6650,777.8320313,-361.8164063,-486.8164063
9.6700,785.15625,-363.7695313,-519.0429688
9.6750,786.1328125,-358.3984375,-512.2070313
9.6800,776.3671875,-352.5390625,-486.328125
9.6850,770.9960938,-351.0742188,-478.0273438
9.6900,763.671875,-358.3984375,-504.8828125
9.6950,772.4609375,-363.7695313,-526.8554688
9.7000,770.9960938,-369.140625,-495.6054688
9.7050,773.4375,-379.8828125,-503.4179688
9.7100,792.4804688,-381.3476563,-513.671875
9.7150,790.0390625,-384.765625,-518.0664063
9.7200,782.7148438,-385.7421875,-497.5585938
9.7250,782.7148438,-397.4609375,-510.2539063
9.7300,770.5078125,-405.7617188,-511.71875
9.7350,768.0664063,-396.9726563,-524.4140625
9.7400,752.4414063,-408.203125,-504.8828125
9.7450,778.8085938,-401.3671875,-521.9726563
9.7500,776.3671875,-395.9960938,-503.4179688
9.7550,762.2070313,-384.2773438,-502.4414063
9.7600,745.1171875,-377.4414063,-482.421875
9.7650,759.765625,-373.5351563,-514.1601563
9.7700,773.9257813,-372.5585938,-514.6484375
9.7750,763.671875,-374.5117188,-507.8125
9.7800,767.0898438,-346.1914063,-514.6484375
9.7850,757.3242188,-350.5859375,-528.3203125
9.7900,763.671875,-349.1210938,-524.9023438
9.7950,780.7617188,-337.890625,-514.6484375
9.8000,765.625,-335.9375,-521.484375
9.8050,772.4609375,-341.3085938,-529.7851563
9.8100,773.4375,-354.4921875,-532.7148438
9.8150,783.6914063,-356.9335938,-504.8828125
9.8200,786.1328125,-353.0273438,-512.6953125
9.8250,775.8789063,-353.515625,-513.1835938
9.8300,777.34375,-358.3984375,-507.3242188
9.8350,769.53125,-368.6523438,-516.6015625
9.8400,766.6015625,-369.6289063,-511.71875
9.8450,775.8789063,-367.6757813,-524.4140625
9.8500,781.7382813,-367.1875,-504.8828125
9.8550,785.15625,-377.4414063,-525.390625
9.8600,796.875,-370.1171875,-505.859375
9.8650,795.8984375,-362.7929688,-510.7421875
9.8700,800.2929688,-354.9804688,-509.2773438
9.8750,799.8046875,-358.3984375,-518.5546875
9.8800,791.015625,-365.7226563,-525.390625
9.8850,798.3398438,-358.8867188,-523.9257813
9.8900,792.96875,-368.1640625,-521.9726563
9.8950,798.3398438,-370.6054688,-529.7851563
9.9000,793.9453125,-380.859375,-538.0859375
9.9050,800.78125,-389.1601563,-523.4375
9.9100,805.1757813,-381.3476563,-532.2265625
9.9150,786.1328125,-392.0898438,-516.6015625
9.9200,778.8085938,-390.1367188,-508.3007813
9.9250,783.203125,-390.1367188,-503.4179688
9.9300,785.6445313,-394.53125,-517.0898438
9.9350,788.5742188,-392.0898438,-528.3203125
9.9400,803.7109375,-387.2070313,-525.8789063
9.9450,790.5273438,-392.578125,-504.3945313
9.9500,795.4101563,-378.90625,-533.6914063
9.9550,793.4570313,-382.3242188,-525.390625
9.9600,791.015625,-384.765625,-527.34375
9.9650,796.875,-360.8398438,-518.5546875
9.9700,790.0390625,-366.2109375,-526.3671875
9.9750,795.8984375,-352.5390625,-514.1601563
9.9800,781.7382813,-355.9570313,-533.6914063
9.9850,783.6914063,-357.421875,-540.5273438
9.9900,779.7851563,-370.1171875,-520.5078125
9.9950,785.15625,-375.4882813,-541.5039063
10.0000,792.4804688,-370.6054688,-523.4375
10.0050,773.9257813,-379.8828125,-526.3671875
10.0100,775.390625,-374.0234375,-527.34375
10.0150,773.9257813,-370.6054688,-525.8789063
10.0200,778.8085938,-361.328125,-531.25
10.0250,774.9023438,-362.3046875,-542.96875
10.0300,775.390625,-351.5625,-522.9492188
10.0350,773.4375,-352.0507813,-539.5507813
10.0400,773.4375,-333.984375,-530.2734375
10.0450,770.9960938,-341.796875,-524.9023438
10.0500,769.53125,-342.7734375,-540.5273438
10.0550,769.53125,-342.7734375,-537.5976563
10.0600,770.0195313,-341.796875,-545.8984375
10.0650,769.53125,-347.1679688,-536.1328125
10.0700,767.0898438,-354.4921875,-537.109375
10.0750,768.0664063,-358.8867188,-538.0859375
10.0800,772.9492188,-354.4921875,-542.96875
10.0850,768.0664063,-359.375,-540.0390625
10.0900,765.1367188,-354.4921875,-528.8085938
10.0950,766.6015625,-355.9570313,-541.5039063
10.1000,767.0898438,-356.9335938,-546.875
10.1050,768.5546875,-353.515625,-536.1328125
10.1100,772.4609375,-347.1679688,-520.9960938
10.1150,766.1132813,-355.46875,-517.578125
10.1200,768.0664063,-354.0039063,-534.1796875
10.1250,765.625,-363.28125,-529.296875
10.1300,763.1835938,-363.28125,-535.6445313
10.1350,767.578125,-365.234375,-535.15625
10.1400,762.2070313,-375,-532.2265625
10.1450,765.1367188,-368.1640625,-527.34375
10.1500,769.53125,-364.2578125,-528.8085938
10.1550,777.8320313,-359.8632813,-515.1367188
10.1600,769.53125,-364.7460938,-505.859375
10.1650,773.4375,-367.1875,-533.203125
10.1700,778.8085938,-363.7695313,-516.6015625
10.1750,776.3671875,-370.6054688,-520.5078125
10.1800,784.6679688,-360.3515625,-528.8085938
10.1850,786.1328125,-354.4921875,-498.046875
10.1900,785.15625,-354.9804688,-513.1835938
10.1950,783.6914063,-353.0273438,-522.4609375
10.2000,783.6914063,-354.4921875,-510.2539063
10.2050,785.15625,-355.9570313,-529.296875
10.2100,776.8554688,-345.2148438,-540.5273438
10.2150,773.9257813,-341.3085938,-522.9492188
10.2200,776.3671875,-328.6132813,-526.8554688
10.2250,767.0898438,-331.5429688,-523.4375
10.2300,765.625,-340.8203125,-514.6484375
10.2350,764.6484375,-349.1210938,-526.3671875
10.2400,765.625,-351.0742188,-527.8320313
10.2450,773.4375,-351.0742188,-541.9921875
10.2500,769.0429688,-352.0507813,-535.15625
10.2550,781.7382813,-348.6328125,-528.3203125
10.2600,781.7382813,-345.703125,-523.9257813
10.2650,778.8085938,-348.6328125,-530.2734375
10.2700,774.9023438,-348.1445313,-513.1835938
10.2750,776.3671875,-343.2617188,-521.9726563
10.2800,763.671875,-351.0742188,-524.4140625
10.2850,764.6484375,-352.0507813,-510.7421875
10.2900,770.5078125,-350.0976563,-520.5078125
10.2950,770.9960938,-351.5625,-518.0664063
10.3000,767.578125,-363.28125,-531.7382813
10.3050,770.0195313,-363.7695313,-526.8554688
10.3100,775.8789063,-370.1171875,-524.9023438
10.3150,795.4101563,-367.1875,-529.296875
10.3200,787.5976563,-374.5117188,-533.6914063
10.3250,790.5273438,-365.234375,-518.5546875
10.3300,802.734375,-349.609375,-499.0234375
10.3350,804.6875,-333.984375,-518.0664063
10.3400,800.2929688,-336.4257813,-517.578125
10.3450,803.7109375,-332.5195313,-523.4375
10.3500,803.2226563,-319.8242188,-522.4609375
10.3550,800.78125,-319.8242188,-520.0195313
10.3600,796.875,-308.1054688,-515.1367188
10.3650,794.4335938,-313.4765625,-516.6015625
10.3700,790.0390625,-319.8242188,-504.3945313
10.3750,791.015625,-334.9609375,-508.3007813
10.3800,791.015625,-348.1445313,-514.6484375
10.3850,797.3632813,-349.1210938,-521.484375
10.3900,796.875,-354.0039063,-518.5546875
10.3950,804.6875,-353.515625,-511.71875
10.4000,801.7578125,-353.515625,-496.5820313
10.4050,796.875,-351.0742188,-498.5351563
10.4100,800.2929688,-343.75,-510.7421875
10.4150,803.2226563,-331.0546875,-506.3476563
10.4200,801.2695313,-329.5898438,-506.3476563
10.4250,803.7109375,-314.9414063,-507.3242188
10.4300,805.1757813,-306.640625,-509.2773438
10.4350,799.3164063,-314.9414063,-499.5117188
10.4400,791.9921875,-335.4492188,-500.9765625
10.4450,798.828125,-339.84375,-493.6523438
10.4500,800.78125,-340.8203125,-489.7460938
10.4550,801.2695313,-346.1914063,-479.0039063
10.4600,805.1757813,-349.1210938,-478.0273438
10.4650,821.2890625,-356.4453125,-495.6054688
10.4700,815.4296875,-356.4453125,-491.6992188
10.4750,818.8476563,-354.9804688,-497.5585938
10.4800,810.546875,-345.2148438,-486.8164063
10.4850,812.5,-333.0078125,-491.2109375
10.4900,812.9882813,-328.6132813,-479.4921875
10.4950,812.0117188,-318.359375,-497.0703125
10.5000,799.3164063,-321.2890625,-491.2109375
10.5050,795.4101563,-323.7304688,-485.8398438
10.5100,805.1757813,-316.8945313,-494.6289063
10.5150,801.7578125,-326.6601563,-488.28125
10.5200,804.6875,-321.7773438,-475.5859375
10.5250,803.2226563,-333.4960938,-476.5625
10.5300,805.1757813,-340.3320313,-467.7734375
10.5350,801.2695313,-343.2617188,-483.3984375
10.5400,812.9882813,-346.1914063,-487.3046875
10.5450,807.6171875,-354.0039063,-475.5859375
10.5500,804.6875,-351.5625,-474.609375
10.5550,808.1054688,-350.5859375,-479.9804688
10.5600,800.2929688,-346.1914063,-483.3984375
10.5650,800.78125,-338.8671875,-474.609375
10.5700,808.1054688,-332.03125,-482.9101563
10.5750,809.5703125,-325.1953125,-481.4453125
10.5800,801.7578125,-325.1953125,-479.9804688
10.5850,796.875,-322.7539063,-467.7734375
10.5900,800.78125,-321.7773438,-471.1914063
10.5950,797.8515625,-328.6132813,-468.2617188
10.6000,805.1757813,-322.265625,-475.0976563
10.6050,797.8515625,-328.125,-468.2617188
10.6100,809.5703125,-324.21875,-474.1210938
10.6150,813.9648438,-341.3085938,-478.0273438
10.6200,812.5,-348.6328125,-475.5859375
10.6250,814.453125,-357.9101563,-479.9804688
10.6300,818.359375,-359.8632813,-476.0742188
10.6350,818.359375,-349.609375,-462.4023438
10.6400,813.9648438,-346.1914063,-473.1445313
10.6450,820.8007813,-341.3085938,-478.515625
10.6500,814.453125,-335.9375,-481.9335938
10.6550,821.7773438,-332.5195313,-479.0039063
10.6600,822.265625,-319.8242188,-467.2851563
10.6650,807.6171875,-325.1953125,-466.796875
10.6700,817.3828125,-308.59375,-460.9375
10.6750,815.9179688,-311.0351563,-473.6328125
10.6800,822.265625,-308.1054688,-461.4257813
10.6850,825.1953125,-313.4765625,-471.6796875
10.6900,831.5429688,-317.3828125,-473.1445313
10.6950,835.4492188,-316.40625,-477.5390625
10.7000,835.9375,-328.6132813,-474.1210938
10.7050,830.078125,-338.8671875,-469.7265625
10.7100,834.9609375,-331.0546875,-479.0039063
10.7150,832.5195313,-328.6132813,-480.9570313
10.7200,827.1484375,-326.171875,-482.421875
10.7250,832.03125,-329.1015625,-471.1914063
10.7300,836.9140625,-315.4296875,-471.1914063
10.7350,841.3085938,-310.546875,-472.65625
10.7400,837.890625,-294.4335938,-467.7734375
10.7450,841.3085938,-283.6914063,-480.46875
10.7500,830.078125,-287.109375,-480.46875
10.7550,823.2421875,-283.203125,-483.8867188
10.7600,820.8007813,-274.9023438,-473.6328125
10.7650,811.5234375,-276.8554688,-473.6328125
10.7700,807.1289063,-283.6914063,-481.4453125
10.7750,805.1757813,-292.4804688,-484.375
10.7800,798.3398438,-298.3398438,-472.1679688
10.7850,796.3867188,-307.6171875,-450.1953125
10.7900,813.4765625,-304.1992188,-454.1015625
10.7950,824.21875,-302.734375,-463.3789063
10.8000,829.1015625,-308.1054688,-469.7265625
10.8050,834.9609375,-310.0585938,-470.2148438
10.8100,840.3320313,-304.1992188,-451.171875
10.8150,845.2148438,-302.2460938,-447.265625
10.8200,846.1914063,-306.1523438,-455.5664063
10.8250,846.6796875,-315.4296875,-467.7734375
10.8300,837.890625,-311.0351563,-450.6835938
10.8350,855.46875,-310.0585938,-446.2890625
10.8400,846.6796875,-312.5,-443.8476563
10.8450,848.1445313,-314.9414063,-450.1953125
10.8500,844.2382813,-300.78125,-444.3359375
10.8550,847.65625,-301.7578125,-451.171875
10.8600,845.703125,-300.2929688,-431.640625
10.8650,849.1210938,-297.3632813,-438.4765625
10.8700,837.4023438,-301.7578125,-434.5703125
10.8750,844.7265625,-293.9453125,-421.875
10.8800,840.8203125,-308.1054688,-411.1328125
10.8850,853.515625,-310.0585938,-431.640625
10.8900,852.0507813,-320.3125,-429.6875
10.8950,862.7929688,-320.8007813,-431.1523438
10.9000,865.234375,-315.4296875,-420.4101563
10.9050,858.8867188,-319.8242188,-419.4335938
10.9100,868.6523438,-317.8710938,-425.2929688
10.9150,869.140625,-320.8007813,-426.7578125
10.9200,862.3046875,-316.40625,-410.6445313
10.9250,863.28125,-310.546875,-431.640625
10.9300,862.3046875,-298.3398438,-423.3398438
10.9350,867.6757813,-275.8789063,-432.1289063
10.9400,858.8867188,-274.4140625,-429.6875
10.9450,859.8632813,-270.9960938,-432.1289063
10.9500,853.0273438,-273.4375,-418.9453125
10.9550,849.609375,-281.25,-411.6210938
10.9600,856.9335938,-276.3671875,-394.53125
10.9650,856.9335938,-279.296875,-380.859375
10.9700,856.4453125,-293.4570313,-399.4140625
10.9750,858.8867188,-299.3164063,-405.7617188
10.9800,884.765625,-298.828125,-407.2265625
10.9850,880.3710938,-321.7773438,-411.1328125
10.9900,889.6484375,-309.5703125,-422.8515625
10.9950,885.2539063,-309.5703125,-436.0351563
11.0000,875,-299.8046875,-427.2460938
11.0050,875.9765625,-293.4570313,-431.1523438
11.0100,874.0234375,-280.7617188,-418.9453125
11.0150,867.1875,-264.6484375,-435.546875
11.0200,851.0742188,-242.6757813,-418.4570313
11.0250,833.4960938,-245.1171875,-402.34375
11.0300,837.4023438,-244.140625,-403.8085938
11.0350,844.7265625,-243.1640625,-409.6679688
11.0400,845.2148438,-256.3476563,-402.8320313
11.0450,864.7460938,-254.3945313,-402.8320313
11.0500,865.234375,-275.8789063,-395.0195313
11.0550,872.5585938,-275.390625,-400.390625
11.0600,873.5351563,-290.5273438,-389.6484375
11.0650,889.6484375,-296.3867188,-388.1835938
11.0700,891.6015625,-294.921875,-401.8554688
11.0750,894.53125,-301.7578125,-421.3867188
11.0800,898.9257813,-294.921875,-407.7148438
11.0850,884.2773438,-291.015625,-409.6679688
11.0900,869.6289063,-284.1796875,-383.7890625
11.0950,869.6289063,-269.53125,-383.3007813
11.1000,860.3515625,-257.8125,-380.3710938
11.1050,850.5859375,-257.3242188,-376.4648438
11.1100,855.9570313,-259.765625,-387.2070313
11.1150,874.0234375,-255.3710938,-380.3710938
11.1200,877.4414063,-256.8359375,-378.90625
11.1250,883.3007813,-266.6015625,-392.0898438
11.1300,888.1835938,-270.0195313,-380.3710938
11.1350,898.4375,-268.0664063,-392.0898438
11.1400,890.625,-279.296875,-385.7421875
11.1450,894.0429688,-268.5546875,-390.625
11.1500,888.1835938,-264.6484375,-386.2304688
11.1550,882.8125,-270.5078125,-398.4375
11.1600,884.2773438,-265.1367188,-388.1835938
11.1650,881.3476563,-268.5546875,-385.2539063
11.1700,882.3242188,-265.1367188,-383.7890625
11.1750,882.8125,-261.2304688,-375
11.1800,877.4414063,-238.7695313,-369.6289063
11.1850,875.9765625,-228.515625,-374.0234375
11.1900,874.0234375,-229.4921875,-373.5351563
11.1950,882.8125,-241.2109375,-354.9804688
11.2000,891.6015625,-261.71875,-355.46875
11.2050,898.4375,-267.0898438,-353.515625
11.2100,894.0429688,-275.8789063,-356.4453125
11.2150,911.1328125,-258.3007813,-371.09375
11.2200,903.3203125,-262.6953125,-356.9335938
11.2250,914.5507813,-265.625,-385.2539063
11.2300,917.96875,-269.0429688,-391.6015625
11.2350,914.0625,-274.9023438,-395.0195313
11.2400,906.25,-257.3242188,-384.2773438
11.2450,895.9960938,-243.1640625,-377.4414063
11.2500,891.1132813,-227.5390625,-378.4179688
11.2550,865.234375,-222.65625,-343.75
11.2600,868.1640625,-198.2421875,-347.65625
11.2650,859.375,-191.40625,-332.03125
11.2700,863.7695313,-205.5664063,-335.4492188
11.2750,879.8828125,-213.8671875,-327.1484375
11.2800,884.2773438,-230.9570313,-342.2851563
11.2850,897.4609375,-235.3515625,-355.46875
11.2900,906.7382813,-234.8632813,-364.2578125
11.2950,916.015625,-231.4453125,-376.4648438
11.3000,901.8554688,-224.1210938,-380.859375
11.3050,900.8789063,-224.609375,-394.0429688
11.3100,895.0195313,-231.9335938,-384.2773438
11.3150,882.8125,-242.6757813,-375
11.3200,889.1601563,-239.7460938,-354.9804688
11.3250,883.3007813,-229.4921875,-353.515625
11.3300,886.71875,-213.3789063,-340.3320313
11.3350,878.4179688,-216.3085938,-343.75
11.3400,872.0703125,-216.796875,-330.5664063
11.3450,890.625,-214.3554688,-331.0546875
11.3500,901.8554688,-221.1914063,-334.4726563
11.3550,921.875,-221.1914063,-333.984375
11.3600,934.0820313,-217.7734375,-354.9804688
11.3650,933.59375,-217.7734375,-366.6992188
11.3700,927.734375,-221.6796875,-361.328125
11.3750,923.828125,-218.75,-390.1367188
11.3800,917.96875,-219.2382813,-378.90625
11.3850,920.4101563,-227.0507813,-385.2539063
11.3900,910.15625,-233.8867188,-369.140625
11.3950,902.8320313,-228.0273438,-374.0234375
11.4000,886.71875,-223.1445313,-356.9335938
11.4050,890.1367188,-217.2851563,-359.8632813
11.4100,899.9023438,-213.3789063,-347.65625
11.4150,900.8789063,-225.5859375,-338.3789063
11.4200,910.6445313,-227.5390625,-356.9335938
11.4250,906.25,-235.8398438,-355.46875
11.4300,921.875,-221.6796875,-353.515625
11.4350,927.2460938,-228.515625,-341.3085938
11.4400,932.1289063,-223.6328125,-354.9804688
11.4450,940.4296875,-227.5390625,-353.0273438
11.4500,936.0351563,-218.75,-366.2109375
11.4550,944.8242188,-210.9375,-362.7929688
11.4600,938.4765625,-208.984375,-373.046875
11.4650,932.6171875,-214.3554688,-368.6523438
11.4700,914.5507813,-215.8203125,-364.2578125
11.4750,901.8554688,-212.4023438,-386.71875
11.4800,897.4609375,-207.5195313,-351.0742188
11.4850,906.7382813,-189.9414063,-338.3789063
11.4900,898.4375,-181.1523438,-318.8476563
11.4950,906.7382813,-166.5039063,-325.6835938
11.5000,916.5039063,-153.3203125,-325.1953125
11.5050,917.4804688,-156.25,-313.4765625
11.5100,930.1757813,-166.015625,-331.0546875
11.5150,943.8476563,-174.3164063,-335.4492188
11.5200,941.8945313,-192.8710938,-350.5859375
11.5250,958.4960938,-187.0117188,-347.1679688
11.5300,948.2421875,-199.7070313,-352.0507813
11.5350,944.8242188,-212.4023438,-369.6289063
11.5400,944.8242188,-213.3789063,-363.7695313
11.5450,935.546875,-225.5859375,-354.4921875
11.5500,926.7578125,-216.3085938,-335.4492188
11.5550,922.3632813,-208.0078125,-329.1015625
11.5600,914.0625,-194.8242188,-325.1953125
11.5650,905.7617188,-187.5,-306.640625
11.5700,920.4101563,-162.5976563,-290.5273438
11.5750,923.3398438,-152.8320313,-295.8984375
11.5800,929.1992188,-137.2070313,-298.828125
11.5850,933.59375,-147.4609375,-298.828125
11.5900,946.7773438,-145.0195313,-302.734375
11.5950,950.6835938,-162.109375,-310.546875
11.6000,943.359375,-174.3164063,-322.265625
11.6050,939.453125,-186.5234375,-338.3789063
11.6100,937.5,-198.7304688,-339.3554688
11.6150,946.7773438,-203.6132813,-353.0273438
11.6200,942.8710938,-199.21875,-352.5390625
11.6250,942.3828125,-193.359375,-349.1210938
11.6300,922.3632813,-205.078125,-324.21875
11.6350,918.9453125,-198.2421875,-315.9179688
11.6400,924.3164063,-169.4335938,-292.96875
11.6450,921.875,-163.5742188,-300.2929688
11.6500,929.6875,-148.9257813,-295.4101563
11.6550,938.9648438,-152.8320313,-325.1953125
11.6600,937.5,-156.7382813,-319.8242188
11.6650,937.9882813,-149.4140625,-318.359375
11.6700,935.546875,-138.1835938,-329.5898438
11.6750,931.1523438,-144.53125,-327.1484375
11.6800,932.1289063,-142.0898438,-333.984375
11.6850,944.8242188,-144.53125,-350.0976563
11.6900,949.21875,-157.2265625,-340.3320313
11.6950,938.9648438,-162.109375,-333.0078125
11.7000,931.1523438,-160.15625,-342.7734375
11.7050,924.8046875,-169.4335938,-318.8476563
11.7100,936.5234375,-166.015625,-298.828125
11.7150,933.59375,-168.4570313,-282.7148438
11.7200,939.453125,-152.8320313,-256.8359375
11.7250,936.5234375,-145.5078125,-262.2070313
11.7300,954.5898438,-134.2773438,-268.0664063
11.7350,957.03125,-153.8085938,-302.2460938
11.7400,966.796875,-167.4804688,-311.0351563
11.7450,965.8203125,-171.875,-343.2617188
11.7500,955.5664063,-164.0625,-326.171875
11.7550,953.125,-166.015625,-329.1015625
11.7600,946.2890625,-166.015625,-327.6367188
11.7650,954.1015625,-164.0625,-334.4726563
11.7700,958.984375,-173.3398438,-332.03125
11.7750,962.890625,-172.8515625,-325.6835938
11.7800,947.7539063,-171.3867188,-302.734375
11.7850,937.5,-155.7617188,-296.3867188
11.7900,923.828125,-134.765625,-270.5078125
11.7950,918.9453125,-133.3007813,-287.5976563
11.8000,922.3632813,-132.8125,-269.53125
11.8050,935.546875,-130.3710938,-268.0664063
11.8100,939.9414063,-125.9765625,-272.4609375
11.8150,937.9882813,-122.0703125,-302.734375
11.8200,938.9648438,-117.1875,-306.640625
11.8250,936.0351563,-112.3046875,-328.125
11.8300,955.5664063,-107.9101563,-324.7070313
11.8350,961.4257813,-112.3046875,-326.6601563
11.8400,957.03125,-115.234375,-328.125
11.8450,953.125,-128.90625,-339.84375
11.8500,945.3125,-133.3007813,-327.1484375
11.8550,948.7304688,-130.859375,-296.3867188
11.8600,935.0585938,-146.9726563,-293.9453125
11.8650,946.2890625,-141.6015625,-267.0898438
11.8700,949.7070313,-138.1835938,-256.3476563
11.8750,939.453125,-142.0898438,-248.046875
11.8800,940.4296875,-152.34375,-263.671875
11.8850,955.078125,-154.296875,-281.25
11.8900,958.0078125,-148.9257813,-291.5039063
11.8950,948.7304688,-164.0625,-300.78125
11.9000,943.359375,-138.1835938,-309.0820313
11.9050,940.4296875,-125,-308.1054688
11.9100,931.1523438,-105.46875,-327.6367188
11.9150,930.1757813,-104.4921875,-312.0117188
11.9200,930.6640625,-98.14453125,-305.6640625
11.9250,926.7578125,-106.4453125,-309.5703125
11.9300,920.4101563,-106.4453125,-296.3867188
11.9350,933.1054688,-102.5390625,-294.921875
11.9400,925.78125,-106.4453125,-297.8515625
11.9450,931.640625,-116.6992188,-285.6445313
11.9500,935.546875,-120.1171875,-278.3203125
11.9550,937.9882813,-131.8359375,-274.4140625
11.9600,941.40625,-118.6523438,-284.1796875
11.9650,938.9648438,-114.2578125,-287.5976563
11.9700,955.5664063,-99.609375,-287.5976563
11.9750,957.5195313,-100.5859375,-305.1757813
11.9800,957.5195313,-104.0039063,-307.1289063
11.9850,960.4492188,-110.3515625,-298.828125
11.9900,971.6796875,-102.5390625,-310.546875
11.9950,960.9375,-102.5390625,-306.1523438
12.0000,939.453125,-109.8632813,-294.921875
12.0050,931.640625,-136.71875,-298.828125
12.0100,926.7578125,-149.4140625,-294.4335938
12.0150,938.4765625,-143.5546875,-280.2734375
12.0200,945.3125,-128.90625,-276.3671875
12.0250,954.1015625,-117.6757813,-263.671875
12.0300,953.125,-120.1171875,-272.9492188
12.0350,950.6835938,-113.7695313,-273.4375
12.0400,953.6132813,-108.8867188,-270.5078125
12.0450,955.078125,-102.5390625,-288.0859375
12.0500,943.359375,-112.3046875,-298.3398438
12.0550,951.171875,-105.9570313,-300.78125
12.0600,949.7070313,-104.0039063,-320.8007813
12.0650,946.2890625,-101.0742188,-310.546875
12.0700,947.7539063,-93.75,-332.03125
12.0750,941.40625,-94.7265625,-328.6132813
12.0800,936.0351563,-96.19140625,-329.5898438
12.0850,933.59375,-99.609375,-332.5195313
12.0900,944.3359375,-95.703125,-327.6367188
12.0950,929.1992188,-110.8398438,-297.3632813
12.1000,931.1523438,-106.4453125,-293.4570313
12.1050,936.5234375,-121.5820313,-296.875
12.1100,944.8242188,-126.953125,-281.7382813
12.1150,958.0078125,-130.859375,-283.6914063
12.1200,958.0078125,-148.4375,-297.8515625
12.1250,954.1015625,-154.296875,-325.1953125
12.1300,956.0546875,-155.2734375,-314.9414063
12.1350,952.6367188,-146.484375,-317.3828125
12.1400,959.4726563,-113.7695313,-334.9609375
12.1450,949.21875,-97.65625,-338.8671875
12.1500,938.4765625,-84.47265625,-337.890625
12.1550,928.2226563,-93.75,-343.2617188
12.1600,917.96875,-99.12109375,-349.609375
12.1650,911.1328125,-97.16796875,-345.703125
12.1700,910.6445313,-97.65625,-322.265625
12.1750,942.8710938,-72.75390625,-301.7578125
12.1800,946.7773438,-69.82421875,-290.0390625
12.1850,969.2382813,-44.921875,-266.1132813
12.1900,967.7734375,-50.78125,-261.71875
12.1950,967.7734375,-54.6875,-264.1601563
12.2000,960.9375,-68.359375,-253.90625
12.2050,963.8671875,-83.984375,-271.9726563
12.2100,959.9609375,-104.4921875,-271.9726563
12.2150,957.03125,-111.8164063,-291.9921875
12.2200,952.6367188,-105.9570313,-296.3867188
12.2250,956.5429688,-91.796875,-301.7578125
12.2300,961.9140625,-67.87109375,-283.203125
12.2350,958.4960938,-54.6875,-284.6679688
12.2400,964.3554688,-34.1796875,-289.5507813
12.2450,956.5429688,-34.1796875,-273.9257813
12.2500,956.5429688,-37.59765625,-269.53125
12.2550,959.9609375,-50.78125,-272.9492188
12.2600,967.2851563,-60.05859375,-269.0429688
12.2650,968.2617188,-71.2890625,-270.5078125
12.2700,970.2148438,-80.56640625,-275.390625
12.2750,970.703125,-91.796875,-284.6679688
12.2800,964.84375,-94.7265625,-273.4375
12.2850,968.75,-103.515625,-290.5273438
12.2900,961.9140625,-103.515625,-295.4101563
12.2950,951.171875,-110.8398438,-291.9921875
12.3000,954.1015625,-99.609375,-305.1757813
12.3050,948.2421875,-102.0507813,-320.8007813
12.3100,936.0351563,-93.26171875,-321.7773438
12.3150,930.1757813,-88.37890625,-334.4726563
12.3200,926.2695313,-75.68359375,-324.21875
12.3250,937.0117188,-64.94140625,-325.1953125
12.3300,937.5,-58.10546875,-301.7578125
12.3350,943.359375,-50.78125,-294.921875
12.3400,954.5898438,-44.921875,-285.6445313
12.3450,951.171875,-50.29296875,-293.4570313
12.3500,946.7773438,-57.6171875,-291.5039063
12.3550,955.078125,-62.5,-301.7578125
12.3600,947.265625,-62.98828125,-301.7578125
12.3650,933.1054688,-89.35546875,-323.2421875
12.3700,939.453125,-86.9140625,-328.6132813
12.3750,939.453125,-93.75,-330.078125
12.3800,937.9882813,-93.75,-337.4023438
12.3850,944.3359375,-89.84375,-336.4257813
12.3900,952.1484375,-81.0546875,-326.6601563
12.3950,950.1953125,-85.44921875,-344.2382813
12.4000,954.5898438,-81.0546875,-336.9140625
12.4050,959.4726563,-79.1015625,-357.9101563
12.4100,951.171875,-77.63671875,-332.5195313
12.4150,949.21875,-77.1484375,-317.8710938
12.4200,960.4492188,-68.84765625,-320.3125
12.4250,972.65625,-62.98828125,-297.8515625
12.4300,978.0273438,-59.08203125,-296.3867188
12.4350,977.0507813,-57.12890625,-290.5273438
12.4400,972.1679688,-56.640625,-284.1796875
12.4450,971.1914063,-60.546875,-291.5039063
12.4500,961.4257813,-70.80078125,-291.015625
12.4550,957.5195313,-67.87109375,-291.015625
12.4600,960.4492188,-54.19921875,-278.3203125
12.4650,960.4492188,-57.6171875,-286.6210938
12.4700,958.984375,-52.734375,-295.4101563
12.4750,954.1015625,-66.40625,-312.9882813
12.4800,953.6132813,-66.40625,-312.9882813
12.4850,956.5429688,-65.4296875,-336.4257813
12.4900,939.9414063,-70.80078125,-328.125
12.4950,952.6367188,-63.4765625,-314.453125
12.5000,954.1015625,-56.640625,-296.875
12.5050,963.8671875,-43.45703125,-280.2734375
12.5100,977.5390625,-33.203125,-263.1835938
12.5150,990.234375,-19.04296875,-247.5585938
12.5200,985.3515625,-16.6015625,-257.3242188
12.5250,984.8632813,-17.578125,-274.4140625
12.5300,979.9804688,-26.3671875,-255.3710938
12.5350,972.65625,-38.57421875,-270.5078125
12.5400,963.3789063,-39.0625,-263.1835938
12.5450,956.0546875,-41.015625,-267.0898438
12.5500,960.9375,-41.015625,-250
12.5550,970.703125,-38.57421875,-261.2304688
12.5600,967.7734375,-38.0859375,-250.9765625
12.5650,980.46875,-34.1796875,-238.28125
12.5700,979.9804688,-38.0859375,-245.1171875
12.5750,989.2578125,-30.2734375,-236.8164063
12.5800,981.9335938,-36.1328125,-246.5820313
12.5850,989.2578125,-31.25,-236.328125
12.5900,983.8867188,-37.59765625,-247.5585938
12.5950,979.9804688,-32.2265625,-243.6523438
12.6000,975.5859375,-30.2734375,-256.3476563
12.6050,970.703125,-31.73828125,-263.671875
12.6100,972.65625,-24.90234375,-271.484375
12.6150,966.3085938,-36.1328125,-286.1328125
12.6200,969.2382813,-26.85546875,-300.2929688
12.6250,964.84375,-35.15625,-310.546875
12.6300,963.8671875,-32.2265625,-309.0820313
12.6350,962.4023438,-30.2734375,-306.1523438
12.6400,965.3320313,-23.4375,-313.4765625
12.6450,960.9375,-27.34375,-289.0625
12.6500,954.5898438,-40.0390625,-318.359375
12.6550,946.7773438,-51.26953125,-333.4960938
12.6600,938.9648438,-60.05859375,-327.6367188
12.6650,930.6640625,-78.125,-330.078125
12.6700,930.6640625,-82.03125,-343.2617188
12.6750,926.2695313,-89.35546875,-348.6328125
12.6800,932.6171875,-76.66015625,-359.8632813
12.6850,925.2929688,-81.0546875,-352.5390625
12.6900,922.8515625,-81.54296875,-355.9570313
12.6950,919.921875,-91.796875,-375.4882813
12.7000,921.875,-89.35546875,-363.7695313
12.7050,923.3398438,-94.23828125,-346.6796875
12.7100,925.78125,-79.1015625,-343.2617188
12.7150,937.9882813,-65.4296875,-335.9375
12.7200,943.8476563,-52.24609375,-310.0585938
12.7250,936.0351563,-47.8515625,-313.4765625
12.7300,940.9179688,-38.57421875,-299.8046875
12.7350,942.3828125,-38.0859375,-289.0625
12.7400,941.8945313,-29.78515625,-287.109375
12.7450,940.4296875,-29.78515625,-285.6445313
12.7500,944.8242188,-13.671875,-274.4140625
12.7550,946.2890625,-15.625,-263.1835938
12.7600,951.6601563,-13.671875,-252.4414063
12.7650,949.21875,-18.5546875,-270.9960938
12.7700,947.265625,-22.94921875,-272.9492188
12.7750,949.21875,-27.83203125,-270.9960938
12.7800,955.078125,-22.94921875,-264.1601563
12.7850,958.0078125,-28.80859375,-264.6484375
12.7900,971.6796875,-26.85546875,-251.953125
12.7950,958.984375,-49.31640625,-271.484375
12.8000,968.75,-41.015625,-282.2265625
12.8050,963.3789063,-48.33984375,-269.53125
12.8100,953.6132813,-38.57421875,-281.7382813
12.8150,956.0546875,-39.0625,-288.0859375
12.8200,953.6132813,-26.3671875,-277.8320313
12.8250,962.890625,-16.11328125,-280.7617188
12.8300,955.5664063,-18.06640625,-271.484375
12.8350,958.984375,-14.16015625,-274.4140625
12.8400,971.1914063,-9.27734375,-268.5546875
12.8450,978.0273438,-2.44140625,-275.8789063
12.8500,973.6328125,-9.765625,-251.4648438
12.8550,984.8632813,-13.671875,-244.6289063
12.8600,994.6289063,-18.06640625,-234.8632813
12.8650,993.1640625,-21.97265625,-248.5351563
12.8700,988.28125,-31.73828125,-231.9335938
12.8750,993.1640625,-34.66796875,-241.6992188
12.8800,985.3515625,-27.83203125,-239.2578125
12.8850,991.2109375,-30.2734375,-251.953125
12.8900,989.2578125,-35.15625,-259.765625
12.8950,983.3984375,-42.96875,-270.5078125
12.9000,982.421875,-56.640625,-279.296875
12.9050,975.5859375,-50.29296875,-279.7851563
12.9100,971.1914063,-44.43359375,-287.109375
12.9150,986.8164063,-25.390625,-262.2070313
12.9200,976.0742188,-22.94921875,-245.6054688
12.9250,980.46875,-15.13671875,-244.140625
12.9300,975.5859375,-2.9296875,-232.421875
12.9350,969.7265625,-5.37109375,-234.8632813
12.9400,970.2148438,3.41796875,-242.6757813
12.9450,969.2382813,4.8828125,-243.6523438
12.9500,965.3320313,0.9765625,-247.0703125
12.9550,972.1679688,0,-254.8828125
12.9600,979.4921875,-0.9765625,-256.8359375
12.9650,977.5390625,-14.16015625,-266.6015625
12.9700,977.5390625,-28.3203125,-292.4804688
12.9750,978.515625,-43.45703125,-293.9453125
12.9800,977.5390625,-56.15234375,-308.59375
12.9850,982.421875,-50.78125,-299.8046875
12.9900,980.46875,-59.5703125,-286.1328125
12.9950,991.6992188,-51.7578125,-278.8085938
13.0000,976.5625,-59.5703125,-272.9492188
13.0050,992.1875,-49.31640625,-242.6757813
13.0100,985.8398438,-38.0859375,-248.046875
13.0150,989.2578125,-33.69140625,-246.09375
13.0200,977.5390625,-27.83203125,-263.671875
13.0250,967.7734375,-28.80859375,-263.1835938
13.0300,957.03125,-19.04296875,-268.5546875
13.0350,949.21875,-19.53125,-268.5546875
13.0400,947.265625,-12.6953125,-270.0195313
13.0450,944.3359375,-20.01953125,-285.15625
13.0500,958.0078125,-20.99609375,-274.9023438
13.0550,952.6367188,-30.2734375,-282.7148438
13.0600,947.265625,-42.48046875,-299.3164063
13.0650,954.1015625,-41.50390625,-305.1757813
13.0700,953.125,-50.29296875,-320.3125
13.0750,952.1484375,-52.24609375,-303.2226563
13.0800,959.9609375,-36.1328125,-291.015625
13.0850,968.2617188,-35.15625,-279.296875
13.0900,955.5664063,-43.9453125,-276.8554688
13.0950,957.5195313,-37.59765625,-282.7148438
13.1000,947.7539063,-37.59765625,-281.7382813
13.1050,942.3828125,-27.34375,-294.4335938
13.1100,937.9882813,-20.99609375,-278.3203125
13.1150,947.7539063,-9.27734375,-276.8554688
13.1200,943.359375,2.44140625,-273.4375
13.1250,946.7773438,15.13671875,-288.0859375
13.1300,938.9648438,9.765625,-270.0195313
13.1350,943.359375,8.7890625,-276.3671875
13.1400,950.6835938,2.44140625,-267.578125
13.1450,948.2421875,-9.765625,-272.4609375
13.1500,950.6835938,-16.11328125,-296.3867188
13.1550,958.0078125,-25.390625,-287.5976563
13.1600,961.9140625,-35.15625,-288.0859375
13.1650,973.1445313,-37.59765625,-280.2734375
13.1700,975.0976563,-47.36328125,-284.1796875
13.1750,979.0039063,-60.05859375,-278.3203125
13.1800,986.328125,-50.29296875,-268.5546875
13.1850,977.5390625,-47.36328125,-271.9726563
13.1900,980.46875,-47.36328125,-275.8789063
13.1950,966.796875,-45.41015625,-299.3164063
13.2000,964.84375,-42.48046875,-280.2734375
13.2050,953.125,-29.78515625,-282.2265625
13.2100,956.0546875,-16.6015625,-282.7148438
13.2150,954.1015625,-23.4375,-276.8554688
13.2200,954.5898438,-19.53125,-289.5507813
13.2250,942.8710938,-25.87890625,-292.96875
13.2300,936.5234375,-31.25,-294.4335938
13.2350,943.8476563,-36.62109375,-294.4335938
13.2400,950.1953125,-30.76171875,-297.3632813
13.2450,950.1953125,-35.64453125,-295.4101563
13.2500,960.9375,-32.71484375,-294.4335938
13.2550,966.3085938,-43.45703125,-304.6875
13.2600,963.3789063,-41.9921875,-301.7578125
13.2650,961.9140625,-48.828125,-300.2929688
13.2700,959.4726563,-58.10546875,-294.921875
13.2750,960.9375,-60.05859375,-304.1992188
13.2800,970.703125,-47.8515625,-293.4570313
13.2850,957.5195313,-59.5703125,-291.5039063
13.2900,952.6367188,-62.01171875,-289.0625
13.2950,946.2890625,-60.546875,-292.4804688
13.3000,952.6367188,-45.8984375,-286.1328125
13.3050,953.125,-45.41015625,-294.921875
13.3100,957.03125,-37.59765625,-297.3632813
13.3150,947.265625,-44.43359375,-298.3398438
13.3200,955.5664063,-34.66796875,-284.6679688
13.3250,955.078125,-31.25,-276.8554688
13.3300,946.7773438,-33.69140625,-270.9960938
13.3350,960.9375,-31.25,-261.71875
13.3400,962.890625,-26.3671875,-268.5546875
13.3450,977.0507813,-29.296875,-279.7851563
13.3500,975.0976563,-32.2265625,-300.78125
13.3550,975.0976563,-40.0390625,-306.640625
13.3600,974.609375,-38.0859375,-300.78125
13.3650,975.5859375,-41.50390625,-276.8554688
13.3700,971.6796875,-37.59765625,-266.1132813
13.3750,980.9570313,-26.85546875,-263.671875
13.3800,978.515625,-33.69140625,-268.0664063
13.3850,973.1445313,-34.66796875,-258.3007813
13.3900,967.2851563,-32.71484375,-267.0898438
13.3950,963.8671875,-30.76171875,-262.6953125
13.4000,957.5195313,-20.99609375,-266.1132813
13.4050,964.3554688,-18.5546875,-268.5546875
13.4100,939.453125,-31.25,-273.9257813
13.4150,940.9179688,-30.76171875,-278.8085938
13.4200,947.7539063,-33.203125,-280.2734375
13.4250,942.3828125,-43.9453125,-290.5273438
13.4300,941.40625,-38.0859375,-281.25
13.4350,944.3359375,-31.73828125,-286.1328125
13.4400,949.21875,-30.2734375,-295.8984375
13.4450,944.8242188,-37.109375,-294.4335938
13.4500,955.5664063,-33.69140625,-288.0859375
13.4550,956.5429688,-38.0859375,-308.1054688
13.4600,952.6367188,-28.80859375,-299.3164063
13.4650,946.7773438,-39.55078125,-304.1992188
13.4700,945.3125,-44.921875,-280.7617188
13.4750,947.7539063,-42.48046875,-281.25
13.4800,948.7304688,-33.203125,-263.671875
13.4850,951.171875,-28.80859375,-264.1601563
13.4900,948.2421875,-24.4140625,-274.4140625
13.4950,958.4960938,-23.92578125,-269.53125
13.5000,952.1484375,-35.15625,-266.6015625
13.5050,957.5195313,-37.109375,-283.6914063
13.5100,960.4492188,-36.1328125,-274.4140625
13.5150,958.984375,-41.9921875,-268.5546875
13.5200,959.9609375,-48.33984375,-274.9023438
13.5250,967.2851563,-52.24609375,-268.5546875
13.5300,974.1210938,-38.0859375,-269.53125
13.5350,976.0742188,-37.109375,-300.2929688
13.5400,982.421875,-38.57421875,-297.8515625
13.5450,978.0273438,-54.6875,-281.7382813
13.5500,974.609375,-55.17578125,-290.0390625
13.5550,969.2382813,-64.453125,-263.671875
13.5600,974.609375,-54.6875,-271.9726563
13.5650,974.1210938,-54.6875,-269.0429688
13.5700,975.0976563,-43.9453125,-263.1835938
13.5750,976.5625,-47.36328125,-257.3242188
13.5800,969.7265625,-52.24609375,-267.0898438
13.5850,978.0273438,-34.66796875,-257.8125
13.5900,980.46875,-41.015625,-271.9726563
13.5950,976.5625,-39.0625,-270.9960938
13.6000,968.2617188,-55.17578125,-258.7890625
13.6050,972.65625,-62.01171875,-262.2070313
13.6100,969.7265625,-59.5703125,-258.3007813
13.6150,982.9101563,-64.94140625,-255.859375
13.6200,986.8164063,-60.546875,-246.09375
13.6250,997.5585938,-47.8515625,-259.2773438
13.6300,1000.488281,-37.59765625,-256.3476563
13.6350,1001.464844,-42.48046875,-246.5820313
13.6400,988.7695313,-62.01171875,-253.4179688
13.6450,997.0703125,-70.80078125,-257.3242188
13.6500,998.5351563,-82.03125,-264.1601563
13.6550,996.5820313,-96.19140625,-255.859375
13.6600,976.5625,-107.9101563,-275.390625
13.6650,962.890625,-100.5859375,-265.625
13.6700,959.4726563,-81.54296875,-240.7226563
13.6750,975.5859375,-74.21875,-248.046875
13.6800,981.9335938,-65.91796875,-229.0039063
13.6850,983.8867188,-62.98828125,-229.4921875
13.6900,979.4921875,-57.12890625,-232.9101563
13.6950,980.9570313,-45.41015625,-246.09375
13.7000,977.5390625,-46.875,-255.859375
13.7050,974.609375,-60.05859375,-249.0234375
13.7100,981.9335938,-59.08203125,-240.7226563
