type,name,time_units,begin_time,frequency,count,units
signal,"Noraxon Ultium-RT LAT. TRICEPS","s",0.00000,2000,49160,"uV"

time,value
0.00000,5.409307778
0.00050,4.493724555
0.00100,2.662558109
0.00150,2.052169293
0.00200,2.357363701
0.00250,2.357363701
0.00300,2.357363701
0.00350,2.357363701
0.00400,2.052169293
0.00450,1.13658607
0.00500,0.221002847
0.00550,0.5261972547
0.00600,0.8313916624
0.00650,0.8313916624
0.00700,-0.08419156075
0.00750,-0.3893859684
0.00800,-0.08419156075
0.00850,0.221002847
0.00900,0.5261972547
0.00950,-0.3893859684
0.01000,-1.915358007
0.01050,-2.525746822
0.01100,-0.6945803761
0.01150,0.8313916624
0.01200,1.13658607
0.01250,-0.08419156075
0.01300,-0.08419156075
0.01350,0.8313916624
0.01400,2.052169293
0.01450,1.746974885
0.01500,1.441780478
0.01550,1.441780478
0.01600,1.441780478
0.01650,0.5261972547
0.01700,-0.08419156075
0.01750,-0.6945803761
0.01800,-0.9997747838
0.01850,-1.915358007
0.01900,-2.220552415
0.01950,-1.610163599
0.02000,-1.304969192
0.02050,-1.915358007
0.02100,-2.220552415
0.02150,-1.304969192
0.02200,-0.08419156075
0.02250,0.8313916624
0.02300,1.441780478
0.02350,1.746974885
0.02400,1.746974885
0.02450,0.5261972547
0.02500,-0.3893859684
0.02550,-0.08419156075
0.02600,0.8313916624
0.02650,0.8313916624
0.02700,-0.08419156075
0.02750,-0.08419156075
0.02800,1.441780478
0.02850,2.357363701
0.02900,1.13658607
0.02950,-0.9997747838
0.03000,-2.220552415
0.03050,-2.83094123
0.03100,-3.136135638
0.03150,-3.136135638
0.03200,-2.525746822
0.03250,-1.610163599
0.03300,-1.610163599
0.03350,-2.220552415
0.03400,-2.83094123
0.03450,-2.83094123
0.03500,-3.136135638
0.03550,-2.83094123
0.03600,-1.915358007
0.03650,-0.9997747838
0.03700,-0.08419156075
0.03750,-0.08419156075
0.03800,0.221002847
0.03850,0.221002847
0.03900,0.5261972547
0.03950,0.221002847
0.04000,-0.08419156075
0.04050,-0.6945803761
0.04100,-1.304969192
0.04150,-0.9997747838
0.04200,-0.08419156075
0.04250,-0.08419156075
0.04300,-0.9997747838
0.04350,-1.304969192
0.04400,-0.08419156075
0.04450,0.221002847
0.04500,-0.08419156075
0.04550,-1.304969192
0.04600,-1.304969192
0.04650,-0.3893859684
0.04700,-0.08419156075
0.04750,-0.6945803761
0.04800,-0.9997747838
0.04850,-0.6945803761
0.04900,-0.6945803761
0.04950,-0.3893859684
0.05000,-0.08419156075
0.05050,-0.08419156075
0.05100,-0.3893859684
0.05150,-0.08419156075
0.05200,0.5261972547
0.05250,2.052169293
0.05300,1.746974885
0.05350,0.8313916624
0.05400,0.8313916624
0.05450,1.441780478
0.05500,1.441780478
0.05550,1.13658607
0.05600,0.8313916624
0.05650,0.8313916624
0.05700,0.5261972547
0.05750,0.5261972547
0.05800,1.13658607
0.05850,1.441780478
0.05900,0.5261972547
0.05950,-0.08419156075
0.06000,0.221002847
0.06050,1.746974885
0.06100,1.746974885
0.06150,0.221002847
0.06200,-0.08419156075
0.06250,1.13658607
0.06300,2.357363701
0.06350,2.662558109
0.06400,3.272946924
0.06450,4.493724555
0.06500,4.188530147
0.06550,2.967752516
0.06600,3.272946924
0.06650,5.10411337
0.06700,5.714502186
0.06750,4.188530147
0.06800,2.967752516
0.06850,4.493724555
0.06900,5.714502186
0.06950,4.188530147
0.07000,2.357363701
0.07050,2.967752516
0.07100,4.188530147
0.07150,3.883335739
0.07200,2.052169293
0.07250,1.441780478
0.07300,1.746974885
0.07350,0.8313916624
0.07400,-0.3893859684
0.07450,-0.3893859684
0.07500,0.5261972547
0.07550,1.13658607
0.07600,0.5261972547
0.07650,0.221002847
0.07700,-0.08419156075
0.07750,-0.6945803761
0.07800,-0.6945803761
0.07850,-0.08419156075
0.07900,1.13658607
0.07950,1.13658607
0.08000,0.8313916624
0.08050,0.5261972547
0.08100,0.5261972547
0.08150,-0.08419156075
0.08200,-0.9997747838
0.08250,-0.3893859684
0.08300,-0.08419156075
0.08350,0.221002847
0.08400,-0.08419156075
0.08450,0.221002847
0.08500,0.5261972547
0.08550,1.13658607
0.08600,1.746974885
0.08650,2.052169293
0.08700,0.8313916624
0.08750,-0.9997747838
0.08800,-2.525746822
0.08850,-2.220552415
0.08900,-0.9997747838
0.08950,-0.6945803761
0.09000,-0.6945803761
0.09050,-1.304969192
0.09100,-2.525746822
0.09150,-3.441330045
0.09200,-3.746524453
0.09250,-3.136135638
0.09300,-2.525746822
0.09350,-2.525746822
0.09400,-2.83094123
0.09450,-2.83094123
0.09500,-2.83094123
0.09550,-2.220552415
0.09600,-1.304969192
0.09650,-0.08419156075
0.09700,-0.08419156075
0.09750,-0.3893859684
0.09800,-0.3893859684
0.09850,-0.08419156075
0.09900,-0.6945803761
0.09950,-1.915358007
0.10000,-1.610163599
0.10050,-0.08419156075
0.10100,0.221002847
0.10150,-0.08419156075
0.10200,-0.9997747838
0.10250,-0.3893859684
0.10300,-0.08419156075
0.10350,0.221002847
0.10400,0.8313916624
0.10450,1.441780478
0.10500,1.441780478
0.10550,-0.08419156075
0.10600,-0.6945803761
0.10650,-0.3893859684
0.10700,-0.08419156075
0.10750,-0.3893859684
0.10800,-0.9997747838
0.10850,-0.6945803761
0.10900,-0.08419156075
0.10950,-0.3893859684
0.11000,-1.610163599
0.11050,-1.915358007
0.11100,-1.304969192
0.11150,-0.9997747838
0.11200,-0.9997747838
0.11250,-1.304969192
0.11300,-0.6945803761
0.11350,-0.08419156075
0.11400,-0.08419156075
0.11450,-0.08419156075
0.11500,-0.3893859684
0.11550,-0.9997747838
0.11600,-0.9997747838
0.11650,-0.08419156075
0.11700,1.13658607
0.11750,2.052169293
0.11800,1.746974885
0.11850,-0.08419156075
0.11900,-1.304969192
0.11950,-1.304969192
0.12000,-0.9997747838
0.12050,-1.610163599
0.12100,-3.441330045
0.12150,-4.662107676
0.12200,-4.356913269
0.12250,-3.136135638
0.12300,-3.746524453
0.12350,-5.577690899
0.12400,-6.493274122
0.12450,-4.051718861
0.12500,-0.3893859684
0.12550,0.8313916624
0.12600,0.221002847
0.12650,-0.6945803761
0.12700,-0.3893859684
0.12750,0.221002847
0.12800,-0.08419156075
0.12850,-0.9997747838
0.12900,-1.610163599
0.12950,-0.9997747838
0.13000,-0.08419156075
0.13050,0.221002847
0.13100,0.221002847
0.13150,0.221002847
0.13200,-0.08419156075
0.13250,-0.08419156075
0.13300,-0.6945803761
0.13350,-0.6945803761
0.13400,0.221002847
0.13450,0.5261972547
0.13500,-0.08419156075
0.13550,-0.3893859684
0.13600,-0.3893859684
0.13650,-0.3893859684
0.13700,-0.9997747838
0.13750,-1.610163599
0.13800,-0.3893859684
0.13850,0.8313916624
0.13900,1.13658607
0.13950,0.221002847
0.14000,0.8313916624
0.14050,2.662558109
0.14100,3.578141332
0.14150,2.967752516
0.14200,2.052169293
0.14250,2.662558109
0.14300,3.883335739
0.14350,2.662558109
0.14400,-0.08419156075
0.14450,-2.220552415
0.14500,-2.525746822
0.14550,-2.525746822
0.14600,-2.83094123
0.14650,-3.441330045
0.14700,-4.051718861
0.14750,-4.662107676
0.14800,-5.882885307
0.14850,-5.882885307
0.14900,-4.662107676
0.14950,-3.136135638
0.15000,-2.525746822
0.15050,-2.525746822
0.15100,-2.525746822
0.15150,-1.610163599
0.15200,-1.610163599
0.15250,-2.83094123
0.15300,-4.051718861
0.15350,-4.051718861
0.15400,-3.136135638
0.15450,-1.304969192
0.15500,-0.08419156075
0.15550,-0.6945803761
0.15600,-3.136135638
0.15650,-4.662107676
0.15700,-3.746524453
0.15750,-1.610163599
0.15800,-0.6945803761
0.15850,-1.610163599
0.15900,-1.915358007
0.15950,-1.304969192
0.16000,-1.304969192
0.16050,-2.220552415
0.16100,-3.136135638
0.16150,-2.525746822
0.16200,-1.610163599
0.16250,-1.610163599
0.16300,-1.304969192
0.16350,-0.9997747838
0.16400,-1.610163599
0.16450,-2.83094123
0.16500,-2.525746822
0.16550,-0.08419156075
0.16600,1.13658607
0.16650,0.8313916624
0.16700,-0.08419156075
0.16750,0.221002847
0.16800,0.8313916624
0.16850,0.221002847
0.16900,-0.08419156075
0.16950,0.221002847
0.17000,0.5261972547
0.17050,-0.08419156075
0.17100,-0.6945803761
0.17150,-0.08419156075
0.17200,0.221002847
0.17250,-0.08419156075
0.17300,-0.9997747838
0.17350,-0.6945803761
0.17400,0.5261972547
0.17450,1.13658607
0.17500,1.13658607
0.17550,0.8313916624
0.17600,0.8313916624
0.17650,0.8313916624
0.17700,0.8313916624
0.17750,1.13658607
0.17800,0.5261972547
0.17850,-0.08419156075
0.17900,-0.6945803761
0.17950,-0.08419156075
0.18000,0.221002847
0.18050,-0.08419156075
0.18100,-0.9997747838
0.18150,-0.6945803761
0.18200,0.221002847
0.18250,0.8313916624
0.18300,1.441780478
0.18350,2.357363701
0.18400,2.662558109
0.18450,1.441780478
0.18500,-0.08419156075
0.18550,-0.08419156075
0.18600,0.221002847
0.18650,-0.08419156075
0.18700,-0.6945803761
0.18750,-0.9997747838
0.18800,-0.6945803761
0.18850,-0.9997747838
0.18900,-2.220552415
0.18950,-2.220552415
0.19000,-1.304969192
0.19050,-0.08419156075
0.19100,0.5261972547
0.19150,-0.08419156075
0.19200,-0.9997747838
0.19250,-1.610163599
0.19300,-1.610163599
0.19350,-0.6945803761
0.19400,-0.6945803761
0.19450,-1.915358007
0.19500,-2.220552415
0.19550,-0.3893859684
0.19600,1.441780478
0.19650,2.662558109
0.19700,2.662558109
0.19750,2.052169293
0.19800,1.746974885
0.19850,0.8313916624
0.19900,-0.08419156075
0.19950,-0.3893859684
0.20000,0.221002847
0.20050,1.441780478
0.20100,1.746974885
0.20150,0.5261972547
0.20200,-1.304969192
0.20250,-2.220552415
0.20300,-1.610163599
0.20350,-0.08419156075
0.20400,1.13658607
0.20450,1.746974885
0.20500,1.441780478
0.20550,0.8313916624
0.20600,0.221002847
0.20650,0.221002847
0.20700,0.8313916624
0.20750,1.13658607
0.20800,0.221002847
0.20850,-0.9997747838
0.20900,-1.304969192
0.20950,-0.08419156075
0.21000,0.221002847
0.21050,-0.08419156075
0.21100,-0.6945803761
0.21150,-0.08419156075
0.21200,0.8313916624
0.21250,1.441780478
0.21300,1.13658607
0.21350,1.441780478
0.21400,2.052169293
0.21450,2.052169293
0.21500,0.8313916624
0.21550,-0.3893859684
0.21600,-1.610163599
0.21650,-1.610163599
0.21700,-0.08419156075
0.21750,0.221002847
0.21800,-0.08419156075
0.21850,-1.610163599
0.21900,-1.915358007
0.21950,-1.610163599
0.22000,-1.304969192
0.22050,-1.610163599
0.22100,-1.304969192
0.22150,-0.6945803761
0.22200,-0.9997747838
0.22250,-1.915358007
0.22300,-1.915358007
0.22350,-0.3893859684
0.22400,0.8313916624
0.22450,1.746974885
0.22500,2.357363701
0.22550,3.272946924
0.22600,3.578141332
0.22650,3.578141332
0.22700,2.967752516
0.22750,2.662558109
0.22800,1.441780478
0.22850,-0.08419156075
0.22900,-1.610163599
0.22950,-1.915358007
0.23000,-1.304969192
0.23050,-1.610163599
0.23100,-1.610163599
0.23150,-0.9997747838
0.23200,-0.6945803761
0.23250,-0.9997747838
0.23300,-0.9997747838
0.23350,-0.9997747838
0.23400,-0.9997747838
0.23450,-1.304969192
0.23500,-0.6945803761
0.23550,0.221002847
0.23600,0.5261972547
0.23650,-0.3893859684
0.23700,-1.915358007
0.23750,-1.610163599
0.23800,-0.6945803761
0.23850,-1.610163599
0.23900,-2.83094123
0.23950,-1.915358007
0.24000,0.221002847
0.24050,1.746974885
0.24100,1.441780478
0.24150,0.8313916624
0.24200,0.8313916624
0.24250,0.8313916624
0.24300,0.221002847
0.24350,-0.08419156075
0.24400,-0.3893859684
0.24450,-0.6945803761
0.24500,-1.304969192
0.24550,-2.220552415
0.24600,-2.220552415
0.24650,-1.610163599
0.24700,-1.304969192
0.24750,-0.9997747838
0.24800,-0.08419156075
0.24850,0.5261972547
0.24900,1.441780478
0.24950,0.8313916624
0.25000,-0.3893859684
0.25050,-1.304969192
0.25100,-0.3893859684
0.25150,0.5261972547
0.25200,0.221002847
0.25250,-1.610163599
0.25300,-3.746524453
0.25350,-4.051718861
0.25400,-2.220552415
0.25450,-0.3893859684
0.25500,-0.08419156075
0.25550,-0.3893859684
0.25600,-0.6945803761
0.25650,-0.08419156075
0.25700,0.8313916624
0.25750,-0.08419156075
0.25800,-2.220552415
0.25850,-4.356913269
0.25900,-4.051718861
0.25950,-2.525746822
0.26000,-1.304969192
0.26050,-0.6945803761
0.26100,-0.08419156075
0.26150,1.13658607
0.26200,2.052169293
0.26250,2.662558109
0.26300,3.578141332
0.26350,4.493724555
0.26400,4.188530147
0.26450,2.967752516
0.26500,2.052169293
0.26550,2.967752516
0.26600,3.578141332
0.26650,2.662558109
0.26700,1.13658607
0.26750,-0.08419156075
0.26800,-0.9997747838
0.26850,-2.220552415
0.26900,-2.83094123
0.26950,-2.83094123
0.27000,-2.220552415
0.27050,-1.915358007
0.27100,-1.915358007
0.27150,-0.9997747838
0.27200,-0.08419156075
0.27250,-0.08419156075
0.27300,-0.3893859684
0.27350,-1.304969192
0.27400,-1.610163599
0.27450,-1.304969192
0.27500,-1.304969192
0.27550,-0.6945803761
0.27600,-0.08419156075
0.27650,0.5261972547
0.27700,0.5261972547
0.27750,0.221002847
0.27800,0.5261972547
0.27850,0.221002847
0.27900,-0.3893859684
0.27950,-0.9997747838
0.28000,-0.3893859684
0.28050,0.221002847
0.28100,0.5261972547
0.28150,-0.08419156075
0.28200,-0.3893859684
0.28250,-0.6945803761
0.28300,-0.3893859684
0.28350,-0.08419156075
0.28400,0.8313916624
0.28450,1.746974885
0.28500,1.441780478
0.28550,0.221002847
0.28600,-0.3893859684
0.28650,-0.3893859684
0.28700,0.5261972547
0.28750,1.746974885
0.28800,2.357363701
0.28850,2.052169293
0.28900,1.13658607
0.28950,0.221002847
0.29000,-0.08419156075
0.29050,0.8313916624
0.29100,1.13658607
0.29150,1.13658607
0.29200,0.5261972547
0.29250,0.5261972547
0.29300,0.5261972547
0.29350,-0.08419156075
0.29400,-0.08419156075
0.29450,-0.08419156075
0.29500,0.221002847
0.29550,-0.08419156075
0.29600,-0.08419156075
0.29650,0.5261972547
0.29700,1.441780478
0.29750,2.052169293
0.29800,1.746974885
0.29850,2.052169293
0.29900,2.662558109
0.29950,2.967752516
0.30000,2.357363701
0.30050,1.746974885
0.30100,1.441780478
0.30150,1.441780478
0.30200,2.052169293
0.30250,3.272946924
0.30300,3.883335739
0.30350,3.578141332
0.30400,2.662558109
0.30450,2.052169293
0.30500,2.662558109
0.30550,2.967752516
0.30600,2.662558109
0.30650,1.746974885
0.30700,0.8313916624
0.30750,0.221002847
0.30800,0.221002847
0.30850,0.8313916624
0.30900,1.441780478
0.30950,1.13658607
0.31000,0.5261972547
0.31050,0.5261972547
0.31100,1.13658607
0.31150,1.441780478
0.31200,0.5261972547
0.31250,-0.08419156075
0.31300,-0.08419156075
0.31350,0.8313916624
0.31400,1.441780478
0.31450,1.441780478
0.31500,1.441780478
0.31550,1.441780478
0.31600,1.441780478
0.31650,1.13658607
0.31700,1.13658607
0.31750,1.441780478
0.31800,2.052169293
0.31850,2.357363701
0.31900,2.357363701
0.31950,1.441780478
0.32000,-0.08419156075
0.32050,-2.220552415
0.32100,-2.83094123
0.32150,-2.83094123
0.32200,-3.136135638
0.32250,-4.051718861
0.32300,-3.746524453
0.32350,-2.220552415
0.32400,-0.6945803761
0.32450,-0.9997747838
0.32500,-1.304969192
0.32550,-1.304969192
0.32600,-1.304969192
0.32650,-2.83094123
0.32700,-4.051718861
0.32750,-3.136135638
0.32800,-1.610163599
0.32850,-1.304969192
0.32900,-2.83094123
0.32950,-3.746524453
0.33000,-2.525746822
0.33050,-1.304969192
0.33100,-0.9997747838
0.33150,-0.9997747838
0.33200,-0.6945803761
0.33250,-0.3893859684
0.33300,-0.9997747838
0.33350,-1.610163599
0.33400,-1.304969192
0.33450,-0.9997747838
0.33500,-0.6945803761
0.33550,-0.3893859684
0.33600,0.8313916624
0.33650,3.578141332
0.33700,5.409307778
0.33750,5.409307778
0.33800,4.493724555
0.33850,3.883335739
0.33900,3.578141332
0.33950,3.272946924
0.34000,2.357363701
0.34050,1.441780478
0.34100,0.8313916624
0.34150,0.8313916624
0.34200,0.8313916624
0.34250,0.5261972547
0.34300,1.441780478
0.34350,3.272946924
0.34400,4.493724555
0.34450,3.272946924
0.34500,0.5261972547
0.34550,-0.9997747838
0.34600,-0.6945803761
0.34650,-0.08419156075
0.34700,0.221002847
0.34750,0.5261972547
0.34800,1.441780478
0.34850,2.052169293
0.34900,2.357363701
0.34950,2.052169293
0.35000,2.052169293
0.35050,1.746974885
0.35100,0.5261972547
0.35150,-0.08419156075
0.35200,-0.3893859684
0.35250,-0.08419156075
0.35300,-0.3893859684
0.35350,-2.220552415
0.35400,-3.441330045
0.35450,-3.441330045
0.35500,-2.525746822
0.35550,-0.6945803761
0.35600,0.5261972547
0.35650,1.13658607
0.35700,0.5261972547
0.35750,-0.3893859684
0.35800,-0.9997747838
0.35850,-0.9997747838
0.35900,-0.9997747838
0.35950,-0.6945803761
0.36000,-0.08419156075
0.36050,0.5261972547
0.36100,0.5261972547
0.36150,0.221002847
0.36200,0.5261972547
0.36250,0.8313916624
0.36300,0.5261972547
0.36350,-0.3893859684
0.36400,-0.3893859684
0.36450,-0.08419156075
0.36500,0.221002847
0.36550,-0.6945803761
0.36600,-1.304969192
0.36650,-0.3893859684
0.36700,0.8313916624
0.36750,1.13658607
0.36800,0.221002847
0.36850,0.221002847
0.36900,1.13658607
0.36950,1.441780478
0.37000,1.13658607
0.37050,0.5261972547
0.37100,0.8313916624
0.37150,1.13658607
0.37200,0.5261972547
0.37250,-0.08419156075
0.37300,-0.3893859684
0.37350,0.5261972547
0.37400,1.746974885
0.37450,1.746974885
0.37500,0.5261972547
0.37550,-0.6945803761
0.37600,-0.9997747838
0.37650,-0.6945803761
0.37700,-0.9997747838
0.37750,-1.610163599
0.37800,-1.915358007
0.37850,-1.610163599
0.37900,-0.9997747838
0.37950,-1.610163599
0.38000,-2.83094123
0.38050,-3.441330045
0.38100,-3.136135638
0.38150,-2.525746822
0.38200,-2.525746822
0.38250,-3.441330045
0.38300,-3.746524453
0.38350,-3.136135638
0.38400,-1.610163599
0.38450,-0.9997747838
0.38500,-0.9997747838
0.38550,-0.6945803761
0.38600,-0.08419156075
0.38650,0.221002847
0.38700,0.221002847
0.38750,0.221002847
0.38800,0.221002847
0.38850,-0.3893859684
0.38900,-1.915358007
0.38950,-2.525746822
0.39000,-1.610163599
0.39050,-0.9997747838
0.39100,-1.304969192
0.39150,-1.915358007
0.39200,-1.915358007
0.39250,-1.610163599
0.39300,-1.915358007
0.39350,-2.525746822
0.39400,-1.915358007
0.39450,-0.3893859684
0.39500,0.221002847
0.39550,-0.3893859684
0.39600,-0.6945803761
0.39650,0.5261972547
0.39700,1.746974885
0.39750,0.8313916624
0.39800,-1.915358007
0.39850,-3.441330045
0.39900,-2.83094123
0.39950,-1.610163599
0.40000,-1.610163599
0.40050,-1.304969192
0.40100,-0.08419156075
0.40150,0.221002847
0.40200,-0.08419156075
0.40250,-0.08419156075
0.40300,-0.08419156075
0.40350,-0.3893859684
0.40400,-1.610163599
0.40450,-1.915358007
0.40500,-0.6945803761
0.40550,-0.08419156075
0.40600,-0.9997747838
0.40650,-3.441330045
0.40700,-3.746524453
0.40750,-2.220552415
0.40800,-0.6945803761
0.40850,-0.08419156075
0.40900,0.5261972547
0.40950,1.13658607
0.41000,0.8313916624
0.41050,0.221002847
0.41100,-0.08419156075
0.41150,0.221002847
0.41200,-0.08419156075
0.41250,-0.3893859684
0.41300,-0.6945803761
0.41350,-0.3893859684
0.41400,0.5261972547
0.41450,2.357363701
0.41500,3.272946924
0.41550,2.967752516
0.41600,1.746974885
0.41650,1.13658607
0.41700,2.357363701
0.41750,4.188530147
0.41800,4.493724555
0.41850,3.578141332
0.41900,2.662558109
0.41950,2.662558109
0.42000,3.578141332
0.42050,5.10411337
0.42100,5.409307778
0.42150,5.10411337
0.42200,4.493724555
0.42250,4.493724555
0.42300,4.493724555
0.42350,2.967752516
0.42400,0.221002847
0.42450,-0.6945803761
0.42500,-0.08419156075
0.42550,1.13658607
0.42600,0.8313916624
0.42650,0.5261972547
0.42700,1.13658607
0.42750,1.746974885
0.42800,1.441780478
0.42850,1.13658607
0.42900,1.746974885
0.42950,1.746974885
0.43000,-0.08419156075
0.43050,-2.525746822
0.43100,-4.051718861
0.43150,-4.967302084
0.43200,-5.882885307
0.43250,-6.79846853
0.43300,-6.188079715
0.43350,-4.051718861
0.43400,-2.220552415
0.43450,-1.610163599
0.43500,-1.610163599
0.43550,-0.6945803761
0.43600,0.221002847
0.43650,1.13658607
0.43700,0.5261972547
0.43750,-0.9997747838
0.43800,-2.83094123
0.43850,-3.441330045
0.43900,-2.83094123
0.43950,-2.83094123
0.44000,-3.746524453
0.44050,-4.662107676
0.44100,-4.356913269
0.44150,-3.441330045
0.44200,-2.525746822
0.44250,-2.83094123
0.44300,-4.356913269
0.44350,-5.882885307
0.44400,-6.493274122
0.44450,-5.577690899
0.44500,-4.356913269
0.44550,-3.746524453
0.44600,-3.441330045
0.44650,-2.220552415
0.44700,-1.304969192
0.44750,-2.220552415
0.44800,-4.356913269
0.44850,-4.662107676
0.44900,-3.136135638
0.44950,-1.915358007
0.45000,-1.915358007
0.45050,-1.915358007
0.45100,-1.304969192
0.45150,-0.9997747838
0.45200,-1.610163599
0.45250,-1.610163599
0.45300,-0.9997747838
0.45350,-0.08419156075
0.45400,0.221002847
0.45450,0.5261972547
0.45500,1.441780478
0.45550,1.441780478
0.45600,0.5261972547
0.45650,-0.08419156075
0.45700,-0.08419156075
0.45750,0.5261972547
0.45800,1.441780478
0.45850,2.052169293
0.45900,2.052169293
0.45950,1.441780478
0.46000,-0.08419156075
0.46050,-0.3893859684
0.46100,-0.08419156075
0.46150,1.746974885
0.46200,2.662558109
0.46250,2.357363701
0.46300,1.441780478
0.46350,1.13658607
0.46400,1.441780478
0.46450,2.052169293
0.46500,2.052169293
0.46550,1.441780478
0.46600,0.8313916624
0.46650,0.8313916624
0.46700,1.746974885
0.46750,2.967752516
0.46800,4.188530147
0.46850,5.714502186
0.46900,6.935279816
0.46950,6.935279816
0.47000,6.630085409
0.47050,6.019696593
0.47100,4.493724555
0.47150,2.052169293
0.47200,0.221002847
0.47250,-0.6945803761
0.47300,-0.9997747838
0.47350,-1.304969192
0.47400,-0.9997747838
0.47450,-0.08419156075
0.47500,0.8313916624
0.47550,1.13658607
0.47600,0.5261972547
0.47650,-0.08419156075
0.47700,-0.08419156075
0.47750,0.5261972547
0.47800,0.8313916624
0.47850,1.13658607
0.47900,1.441780478
0.47950,1.441780478
0.48000,1.441780478
0.48050,1.746974885
0.48100,2.357363701
0.48150,2.967752516
0.48200,2.967752516
0.48250,2.662558109
0.48300,2.662558109
0.48350,3.272946924
0.48400,3.578141332
0.48450,3.272946924
0.48500,2.662558109
0.48550,2.357363701
0.48600,2.357363701
0.48650,2.357363701
0.48700,2.052169293
0.48750,1.441780478
0.48800,1.441780478
0.48850,1.746974885
0.48900,1.746974885
0.48950,2.357363701
0.49000,3.272946924
0.49050,3.883335739
0.49100,2.662558109
0.49150,0.8313916624
0.49200,0.8313916624
0.49250,2.052169293
0.49300,3.272946924
0.49350,2.662558109
0.49400,2.357363701
0.49450,2.967752516
0.49500,3.883335739
0.49550,3.578141332
0.49600,2.662558109
0.49650,3.272946924
0.49700,5.409307778
0.49750,6.935279816
0.49800,6.630085409
0.49850,5.409307778
0.49900,4.493724555
0.49950,5.409307778
0.50000,7.545668632
0.50050,9.987223893
0.50100,11.20800152
0.50150,11.20800152
0.50200,11.20800152
0.50250,11.81839034
0.50300,12.12358475
0.50350,12.12358475
0.50400,12.12358475
0.50450,11.81839034
0.50500,10.2924183
0.50550,8.461251855
0.50600,7.240474224
0.50650,7.850863039
0.50700,8.461251855
0.50750,7.850863039
0.50800,6.935279816
0.50850,6.324891001
0.50900,6.019696593
0.50950,5.10411337
0.51000,4.493724555
0.51050,4.798918962
0.51100,4.493724555
0.51150,3.272946924
0.51200,2.662558109
0.51250,3.272946924
0.51300,3.272946924
0.51350,2.052169293
0.51400,0.8313916624
0.51450,0.8313916624
0.51500,1.441780478
0.51550,0.8313916624
0.51600,-0.08419156075
0.51650,0.221002847
0.51700,0.5261972547
0.51750,-0.6945803761
0.51800,-3.136135638
0.51850,-4.967302084
0.51900,-6.188079715
0.51950,-8.324440569
0.52000,-11.98677346
0.52050,-15.03871754
0.52100,-17.4802728
0.52150,-20.53221688
0.52200,-24.19454977
0.52250,-26.02571622
0.52300,-24.49974418
0.52350,-20.53221688
0.52400,-16.56468958
0.52450,-13.81793991
0.52500,-11.98677346
0.52550,-10.15560701
0.52600,-8.934829384
0.52650,-8.019246161
0.52700,-8.324440569
0.52750,-8.934829384
0.52800,-8.629634976
0.52850,-7.714051753
0.52900,-7.714051753
0.52950,-8.629634976
0.53000,-8.629634976
0.53050,-6.79846853
0.53100,-5.577690899
0.53150,-6.79846853
0.53200,-9.850412607
0.53250,-12.90235668
0.53300,-15.34391195
0.53350,-16.56468958
0.53400,-15.95430076
0.53450,-14.12313432
0.53500,-13.5127455
0.53550,-15.03871754
0.53600,-16.25949517
0.53650,-15.03871754
0.53700,-12.29196787
0.53750,-11.37638465
0.53800,-11.98677346
0.53850,-12.29196787
0.53900,-11.37638465
0.53950,-10.46080142
0.54000,-8.629634976
0.54050,-6.188079715
0.54100,-4.662107676
0.54150,-4.662107676
0.54200,-4.967302084
0.54250,-3.136135638
0.54300,-1.304969192
0.54350,-1.304969192
0.54400,-1.610163599
0.54450,-0.08419156075
0.54500,2.662558109
0.54550,2.662558109
0.54600,0.5261972547
0.54650,-0.08419156075
0.54700,0.8313916624
0.54750,1.441780478
0.54800,0.221002847
0.54850,-0.08419156075
0.54900,0.8313916624
0.54950,1.441780478
0.55000,0.8313916624
0.55050,0.5261972547
0.55100,2.052169293
0.55150,2.662558109
0.55200,1.441780478
0.55250,-0.08419156075
0.55300,0.221002847
0.55350,2.357363701
0.55400,3.883335739
0.55450,3.578141332
0.55500,3.578141332
0.55550,4.188530147
0.55600,5.10411337
0.55650,6.019696593
0.55700,6.630085409
0.55750,7.240474224
0.55800,6.935279816
0.55850,6.324891001
0.55900,6.019696593
0.55950,5.714502186
0.56000,4.798918962
0.56050,3.883335739
0.56100,4.493724555
0.56150,6.324891001
0.56200,7.850863039
0.56250,6.935279816
0.56300,5.409307778
0.56350,4.493724555
0.56400,4.188530147
0.56450,3.883335739
0.56500,4.188530147
0.56550,5.409307778
0.56600,6.324891001
0.56650,6.019696593
0.56700,6.019696593
0.56750,7.240474224
0.56800,8.156057447
0.56850,6.630085409
0.56900,4.493724555
0.56950,5.10411337
0.57000,7.545668632
0.57050,8.766446263
0.57100,7.850863039
0.57150,6.630085409
0.57200,6.630085409
0.57250,6.935279816
0.57300,7.240474224
0.57350,6.935279816
0.57400,6.630085409
0.57450,5.10411337
0.57500,4.188530147
0.57550,4.798918962
0.57600,5.714502186
0.57650,5.10411337
0.57700,3.578141332
0.57750,3.272946924
0.57800,4.493724555
0.57850,5.409307778
0.57900,4.798918962
0.57950,3.883335739
0.58000,3.272946924
0.58050,2.357363701
0.58100,1.441780478
0.58150,1.441780478
0.58200,2.662558109
0.58250,3.578141332
0.58300,3.883335739
0.58350,4.493724555
0.58400,6.630085409
0.58450,9.07164067
0.58500,10.90280712
0.58550,12.73397356
0.58600,14.2599456
0.58650,16.09111205
0.58700,17.31188968
0.58750,17.61708409
0.58800,17.31188968
0.58850,17.31188968
0.58900,17.61708409
0.58950,18.2274729
0.59000,17.92227849
0.59050,15.17552882
0.59100,12.42877916
0.59150,10.90280712
0.59200,11.20800152
0.59250,11.20800152
0.59300,10.2924183
0.59350,9.376835078
0.59400,9.682029486
0.59450,11.20800152
0.59500,12.73397356
0.59550,13.95475119
0.59600,15.48072323
0.59650,16.70150086
0.59700,17.61708409
0.59750,17.31188968
0.59800,15.78591764
0.59850,13.64955679
0.59900,10.2924183
0.59950,6.630085409
0.60000,3.578141332
0.60050,1.13658607
0.60100,-1.304969192
0.60150,-5.272496492
0.60200,-10.46080142
0.60250,-14.12313432
0.60300,-15.64910635
0.60350,-17.17507839
0.60400,-20.22702247
0.60450,-23.27896655
0.60500,-24.49974418
0.60550,-25.11013299
0.60600,-26.33091062
0.60650,-27.85688266
0.60700,-27.85688266
0.60750,-26.63610503
0.60800,-26.02571622
0.60850,-25.11013299
0.60900,-22.97377214
0.60950,-19.31143925
0.61000,-18.09066162
0.61050,-19.92182806
0.61100,-22.05818892
0.61150,-22.66857773
0.61200,-22.36338332
0.61250,-22.05818892
0.61300,-21.4478001
0.61350,-19.92182806
0.61400,-19.61663365
0.61450,-21.14260569
0.61500,-22.36338332
0.61550,-22.05818892
0.61600,-22.97377214
0.61650,-25.72052181
0.61700,-28.16207707
0.61750,-27.24649385
0.61800,-24.80493858
0.61850,-24.19454977
0.61900,-25.11013299
0.61950,-26.33091062
0.62000,-26.33091062
0.62050,-26.63610503
0.62100,-26.33091062
0.62150,-24.80493858
0.62200,-22.97377214
0.62250,-22.66857773
0.62300,-22.66857773
0.62350,-20.83741128
0.62400,-18.09066162
0.62450,-15.64910635
0.62500,-14.12313432
0.62550,-12.59716228
0.62600,-10.76599583
0.62650,-9.545218199
0.62700,-8.934829384
0.62750,-8.324440569
0.62800,-7.408857346
0.62850,-6.79846853
0.62900,-6.188079715
0.62950,-5.882885307
0.63000,-5.577690899
0.63050,-5.882885307
0.63100,-4.967302084
0.63150,-2.83094123
0.63200,-0.9997747838
0.63250,-0.3893859684
0.63300,-0.08419156075
0.63350,1.13658607
0.63400,2.967752516
0.63450,2.357363701
0.63500,-0.08419156075
0.63550,-0.9997747838
0.63600,0.221002847
0.63650,2.357363701
0.63700,3.272946924
0.63750,2.967752516
0.63800,3.578141332
0.63850,4.798918962
0.63900,5.10411337
0.63950,4.493724555
0.64000,4.493724555
0.64050,5.409307778
0.64100,6.324891001
0.64150,6.324891001
0.64200,6.324891001
0.64250,7.545668632
0.64300,9.376835078
0.64350,10.2924183
0.64400,9.987223893
0.64450,9.682029486
0.64500,10.59761271
0.64550,11.81839034
0.64600,12.12358475
0.64650,11.51319593
0.64700,10.59761271
0.64750,9.682029486
0.64800,8.461251855
0.64850,6.630085409
0.64900,6.019696593
0.64950,6.019696593
0.65000,6.630085409
0.65050,7.240474224
0.65100,8.156057447
0.65150,9.07164067
0.65200,9.07164067
0.65250,8.156057447
0.65300,7.545668632
0.65350,8.461251855
0.65400,10.2924183
0.65450,11.81839034
0.65500,12.12358475
0.65550,11.81839034
0.65600,11.51319593
0.65650,11.51319593
0.65700,11.51319593
0.65750,10.90280712
0.65800,9.682029486
0.65850,8.766446263
0.65900,8.766446263
0.65950,9.376835078
0.66000,9.987223893
0.66050,10.90280712
0.66100,13.03916797
0.66150,15.48072323
0.66200,16.39630646
0.66250,16.39630646
0.66300,16.09111205
0.66350,15.17552882
0.66400,13.03916797
0.66450,10.59761271
0.66500,9.987223893
0.66550,11.81839034
0.66600,13.34436238
0.66650,12.73397356
0.66700,11.51319593
0.66750,11.51319593
0.66800,12.12358475
0.66850,11.81839034
0.66900,10.59761271
0.66950,9.682029486
0.67000,10.2924183
0.67050,11.51319593
0.67100,12.42877916
0.67150,12.42877916
0.67200,12.12358475
0.67250,11.81839034
0.67300,11.51319593
0.67350,11.20800152
0.67400,11.20800152
0.67450,11.81839034
0.67500,11.81839034
0.67550,11.20800152
0.67600,11.20800152
0.67650,11.81839034
0.67700,12.42877916
0.67750,12.12358475
0.67800,11.20800152
0.67850,11.20800152
0.67900,11.51319593
0.67950,10.90280712
0.68000,9.682029486
0.68050,9.07164067
0.68100,9.682029486
0.68150,10.2924183
0.68200,8.766446263
0.68250,6.019696593
0.68300,3.883335739
0.68350,2.662558109
0.68400,0.8313916624
0.68450,-1.610163599
0.68500,-2.525746822
0.68550,-0.9997747838
0.68600,1.13658607
0.68650,1.746974885
0.68700,1.746974885
0.68750,3.578141332
0.68800,6.324891001
0.68850,6.935279816
0.68900,4.188530147
0.68950,1.441780478
0.69000,0.8313916624
0.69050,1.441780478
0.69100,0.8313916624
0.69150,-0.6945803761
0.69200,-2.525746822
0.69250,-4.356913269
0.69300,-6.79846853
0.69350,-8.934829384
0.69400,-10.15560701
0.69450,-11.07119024
0.69500,-11.68157905
0.69550,-12.59716228
0.69600,-13.81793991
0.69650,-15.34391195
0.69700,-17.17507839
0.69750,-18.09066162
0.69800,-18.39585602
0.69850,-18.70105043
0.69900,-19.31143925
0.69950,-19.92182806
0.70000,-19.00624484
0.70050,-17.17507839
0.70100,-16.56468958
0.70150,-17.4802728
0.70200,-18.70105043
0.70250,-19.00624484
0.70300,-18.39585602
0.70350,-18.09066162
0.70400,-18.09066162
0.70450,-15.95430076
0.70500,-12.29196787
0.70550,-9.545218199
0.70600,-9.545218199
0.70650,-10.76599583
0.70700,-10.76599583
0.70750,-9.850412607
0.70800,-10.46080142
0.70850,-11.98677346
0.70900,-12.29196787
0.70950,-11.68157905
0.71000,-12.59716228
0.71050,-14.12313432
0.71100,-13.81793991
0.71150,-10.76599583
0.71200,-8.629634976
0.71250,-9.545218199
0.71300,-10.15560701
0.71350,-9.240023792
0.71400,-8.934829384
0.71450,-11.37638465
0.71500,-13.81793991
0.71550,-13.5127455
0.71600,-11.07119024
0.71650,-10.46080142
0.71700,-11.07119024
0.71750,-10.15560701
0.71800,-6.79846853
0.71850,-4.051718861
0.71900,-4.051718861
0.71950,-4.662107676
0.72000,-4.051718861
0.72050,-2.220552415
0.72100,-0.9997747838
0.72150,-0.3893859684
0.72200,0.221002847
0.72250,1.441780478
0.72300,2.357363701
0.72350,2.052169293
0.72400,1.746974885
0.72450,2.357363701
0.72500,3.272946924
0.72550,3.883335739
0.72600,3.272946924
0.72650,3.272946924
0.72700,4.188530147
0.72750,5.10411337
0.72800,5.714502186
0.72850,5.409307778
0.72900,5.714502186
0.72950,6.019696593
0.73000,5.714502186
0.73050,5.409307778
0.73100,6.019696593
0.73150,7.545668632
0.73200,8.461251855
0.73250,7.240474224
0.73300,5.409307778
0.73350,5.714502186
0.73400,7.545668632
0.73450,9.376835078
0.73500,10.59761271
0.73550,12.42877916
0.73600,14.56514001
0.73650,14.87033442
0.73700,13.34436238
0.73750,12.42877916
0.73800,12.73397356
0.73850,13.64955679
0.73900,13.64955679
0.73950,14.56514001
0.74000,17.31188968
0.74050,20.05863935
0.74100,19.75344494
0.74150,17.00669527
0.74200,15.48072323
0.74250,15.78591764
0.74300,16.09111205
0.74350,14.2599456
0.74400,12.73397356
0.74450,12.73397356
0.74500,13.64955679
0.74550,13.95475119
0.74600,13.34436238
0.74650,12.12358475
0.74700,11.51319593
0.74750,11.51319593
0.74800,11.81839034
0.74850,12.73397356
0.74900,13.34436238
0.74950,13.95475119
0.75000,14.2599456
0.75050,13.64955679
0.75100,12.73397356
0.75150,12.12358475
0.75200,12.73397356
0.75250,13.95475119
0.75300,15.48072323
0.75350,16.39630646
0.75400,16.70150086
0.75450,14.56514001
0.75500,10.2924183
0.75550,3.578141332
0.75600,-3.441330045
0.75650,-10.15560701
0.75700,-14.73352313
0.75750,-16.25949517
0.75800,-15.64910635
0.75850,-15.64910635
0.75900,-16.86988398
0.75950,-18.09066162
0.76000,-18.09066162
0.76050,-16.56468958
0.76100,-15.03871754
0.76150,-13.20755109
0.76200,-10.76599583
0.76250,-8.019246161
0.76300,-6.188079715
0.76350,-4.967302084
0.76400,-4.662107676
0.76450,-4.967302084
0.76500,-4.662107676
0.76550,-3.136135638
0.76600,-1.304969192
0.76650,-1.610163599
0.76700,-3.746524453
0.76750,-4.662107676
0.76800,-1.915358007
0.76850,2.052169293
0.76900,4.188530147
0.76950,3.578141332
0.77000,1.746974885
0.77050,-0.08419156075
0.77100,-1.610163599
0.77150,-2.83094123
0.77200,-2.525746822
0.77250,-2.220552415
0.77300,-3.136135638
0.77350,-4.967302084
0.77400,-4.356913269
0.77450,-1.915358007
0.77500,-0.3893859684
0.77550,-0.08419156075
0.77600,0.221002847
0.77650,0.5261972547
0.77700,-0.6945803761
0.77750,-3.746524453
0.77800,-5.882885307
0.77850,-6.188079715
0.77900,-7.714051753
0.77950,-11.07119024
0.78000,-13.81793991
0.78050,-14.12313432
0.78100,-13.5127455
0.78150,-13.5127455
0.78200,-14.12313432
0.78250,-13.5127455
0.78300,-12.59716228
0.78350,-12.59716228
0.78400,-12.90235668
0.78450,-12.29196787
0.78500,-10.76599583
0.78550,-8.934829384
0.78600,-6.79846853
0.78650,-4.051718861
0.78700,-2.220552415
0.78750,-2.83094123
0.78800,-4.662107676
0.78850,-5.577690899
0.78900,-5.577690899
0.78950,-5.882885307
0.79000,-7.103662938
0.79050,-8.324440569
0.79100,-8.629634976
0.79150,-9.545218199
0.79200,-11.98677346
0.79250,-14.42832872
0.79300,-15.64910635
0.79350,-16.25949517
0.79400,-17.17507839
0.79450,-19.00624484
0.79500,-19.61663365
0.79550,-18.09066162
0.79600,-15.95430076
0.79650,-14.73352313
0.79700,-13.81793991
0.79750,-11.68157905
0.79800,-9.545218199
0.79850,-8.629634976
0.79900,-9.240023792
0.79950,-8.934829384
0.80000,-6.188079715
0.80050,-3.441330045
0.80100,-3.136135638
0.80150,-4.356913269
0.80200,-4.356913269
0.80250,-2.525746822
0.80300,-0.9997747838
0.80350,-1.610163599
0.80400,-2.83094123
0.80450,-2.220552415
0.80500,-0.08419156075
0.80550,1.746974885
0.80600,2.357363701
0.80650,2.052169293
0.80700,3.272946924
0.80750,4.798918962
0.80800,5.714502186
0.80850,6.019696593
0.80900,7.850863039
0.80950,10.90280712
0.81000,13.03916797
0.81050,13.95475119
0.81100,13.64955679
0.81150,13.95475119
0.81200,14.2599456
0.81250,13.95475119
0.81300,14.2599456
0.81350,15.17552882
0.81400,15.17552882
0.81450,14.56514001
0.81500,13.95475119
0.81550,13.95475119
0.81600,13.03916797
0.81650,10.59761271
0.81700,8.766446263
0.81750,8.461251855
0.81800,9.376835078
0.81850,9.376835078
0.81900,9.07164067
0.81950,8.156057447
0.82000,6.935279816
0.82050,5.409307778
0.82100,4.493724555
0.82150,4.798918962
0.82200,5.714502186
0.82250,6.019696593
0.82300,6.324891001
0.82350,6.324891001
0.82400,5.714502186
0.82450,3.883335739
0.82500,2.052169293
0.82550,0.5261972547
0.82600,-0.6945803761
0.82650,-2.525746822
0.82700,-3.441330045
0.82750,-3.746524453
0.82800,-4.051718861
0.82850,-6.79846853
0.82900,-9.850412607
0.82950,-10.76599583
0.83000,-9.545218199
0.83050,-8.019246161
0.83100,-7.714051753
0.83150,-7.714051753
0.83200,-6.188079715
0.83250,-4.356913269
0.83300,-2.83094123
0.83350,-1.304969192
0.83400,0.8313916624
0.83450,4.188530147
0.83500,6.019696593
0.83550,6.019696593
0.83600,5.10411337
0.83650,5.409307778
0.83700,6.630085409
0.83750,7.240474224
0.83800,7.545668632
0.83850,7.545668632
0.83900,7.545668632
0.83950,6.019696593
0.84000,4.493724555
0.84050,3.883335739
0.84100,4.493724555
0.84150,4.188530147
0.84200,2.967752516
0.84250,1.13658607
0.84300,-0.08419156075
0.84350,-0.08419156075
0.84400,0.221002847
0.84450,0.5261972547
0.84500,0.8313916624
0.84550,1.441780478
0.84600,2.052169293
0.84650,2.662558109
0.84700,3.272946924
0.84750,3.578141332
0.84800,3.883335739
0.84850,2.662558109
0.84900,-0.08419156075
0.84950,-3.746524453
0.85000,-6.493274122
0.85050,-8.324440569
0.85100,-10.15560701
0.85150,-11.98677346
0.85200,-12.59716228
0.85250,-11.07119024
0.85300,-8.324440569
0.85350,-6.188079715
0.85400,-4.356913269
0.85450,-2.220552415
0.85500,0.221002847
0.85550,2.662558109
0.85600,4.188530147
0.85650,4.798918962
0.85700,5.10411337
0.85750,5.409307778
0.85800,4.798918962
0.85850,4.493724555
0.85900,4.493724555
0.85950,4.798918962
0.86000,4.493724555
0.86050,2.662558109
0.86100,-0.08419156075
0.86150,-3.136135638
0.86200,-4.967302084
0.86250,-6.188079715
0.86300,-7.714051753
0.86350,-11.07119024
0.86400,-14.73352313
0.86450,-17.17507839
0.86500,-17.17507839
0.86550,-15.03871754
0.86600,-12.59716228
0.86650,-11.37638465
0.86700,-11.68157905
0.86750,-13.20755109
0.86800,-14.73352313
0.86850,-15.95430076
0.86900,-15.64910635
0.86950,-14.12313432
0.87000,-12.59716228
0.87050,-11.07119024
0.87100,-9.240023792
0.87150,-7.103662938
0.87200,-5.272496492
0.87250,-3.746524453
0.87300,-2.525746822
0.87350,-0.9997747838
0.87400,0.221002847
0.87450,2.052169293
0.87500,4.493724555
0.87550,6.324891001
0.87600,6.324891001
0.87650,5.10411337
0.87700,4.493724555
0.87750,5.409307778
0.87800,6.324891001
0.87850,6.019696593
0.87900,6.019696593
0.87950,7.545668632
0.88000,9.07164067
0.88050,8.766446263
0.88100,8.766446263
0.88150,10.59761271
0.88200,12.73397356
0.88250,12.73397356
0.88300,11.20800152
0.88350,11.20800152
0.88400,12.73397356
0.88450,13.03916797
0.88500,11.20800152
0.88550,10.2924183
0.88600,12.42877916
0.88650,15.48072323
0.88700,15.78591764
0.88750,14.2599456
0.88800,13.64955679
0.88850,14.2599456
0.88900,13.95475119
0.88950,11.81839034
0.89000,10.2924183
0.89050,9.987223893
0.89100,9.376835078
0.89150,8.156057447
0.89200,7.850863039
0.89250,9.07164067
0.89300,9.987223893
0.89350,8.766446263
0.89400,6.630085409
0.89450,5.409307778
0.89500,5.10411337
0.89550,4.798918962
0.89600,4.188530147
0.89650,4.798918962
0.89700,6.324891001
0.89750,7.850863039
0.89800,8.766446263
0.89850,9.07164067
0.89900,8.766446263
0.89950,8.461251855
0.90000,8.156057447
0.90050,9.07164067
0.90100,10.2924183
0.90150,9.376835078
0.90200,7.545668632
0.90250,6.630085409
0.90300,7.850863039
0.90350,8.461251855
0.90400,6.630085409
0.90450,3.272946924
0.90500,1.13658607
0.90550,1.13658607
0.90600,1.746974885
0.90650,1.746974885
0.90700,1.746974885
0.90750,1.13658607
0.90800,-0.08419156075
0.90850,-1.304969192
0.90900,-2.83094123
0.90950,-3.136135638
0.91000,-2.525746822
0.91050,-1.610163599
0.91100,-0.08419156075
0.91150,0.8313916624
0.91200,0.8313916624
0.91250,0.8313916624
0.91300,1.13658607
0.91350,2.052169293
0.91400,2.662558109
0.91450,1.13658607
0.91500,-1.915358007
0.91550,-5.577690899
0.91600,-8.324440569
0.91650,-10.15560701
0.91700,-11.98677346
0.91750,-13.81793991
0.91800,-16.25949517
0.91850,-18.09066162
0.91900,-19.31143925
0.91950,-19.61663365
0.92000,-19.31143925
0.92050,-18.70105043
0.92100,-18.39585602
0.92150,-18.39585602
0.92200,-17.4802728
0.92250,-15.03871754
0.92300,-12.29196787
0.92350,-10.46080142
0.92400,-8.934829384
0.92450,-7.408857346
0.92500,-5.882885307
0.92550,-4.967302084
0.92600,-4.051718861
0.92650,-3.441330045
0.92700,-3.136135638
0.92750,-4.356913269
0.92800,-6.188079715
0.92850,-7.408857346
0.92900,-7.408857346
0.92950,-6.493274122
0.93000,-4.967302084
0.93050,-2.220552415
0.93100,0.221002847
0.93150,1.746974885
0.93200,1.441780478
0.93250,0.5261972547
0.93300,0.221002847
0.93350,0.8313916624
0.93400,2.052169293
0.93450,3.272946924
0.93500,4.188530147
0.93550,4.493724555
0.93600,4.188530147
0.93650,3.883335739
0.93700,3.883335739
0.93750,3.883335739
0.93800,4.798918962
0.93850,6.630085409
0.93900,9.682029486
0.93950,12.73397356
0.94000,14.56514001
0.94050,14.56514001
0.94100,14.2599456
0.94150,14.2599456
0.94200,15.17552882
0.94250,16.39630646
0.94300,16.70150086
0.94350,15.48072323
0.94400,13.03916797
0.94450,9.376835078
0.94500,5.409307778
0.94550,1.746974885
0.94600,-1.304969192
0.94650,-4.662107676
0.94700,-8.324440569
0.94750,-10.76599583
0.94800,-11.98677346
0.94850,-11.98677346
0.94900,-11.37638465
0.94950,-9.850412607
0.95000,-8.324440569
0.95050,-7.408857346
0.95100,-7.103662938
0.95150,-6.493274122
0.95200,-4.662107676
0.95250,-3.441330045
0.95300,-3.746524453
0.95350,-6.188079715
0.95400,-7.714051753
0.95450,-7.103662938
0.95500,-4.662107676
0.95550,-3.441330045
0.95600,-4.051718861
0.95650,-4.662107676
0.95700,-2.220552415
0.95750,2.052169293
0.95800,5.10411337
0.95850,4.798918962
0.95900,3.272946924
0.95950,3.578141332
0.96000,5.10411337
0.96050,4.493724555
0.96100,1.746974885
0.96150,0.221002847
0.96200,1.441780478
0.96250,3.578141332
0.96300,4.798918962
0.96350,6.019696593
0.96400,8.156057447
0.96450,9.682029486
0.96500,8.766446263
0.96550,6.935279816
0.96600,6.630085409
0.96650,7.240474224
0.96700,7.545668632
0.96750,7.850863039
0.96800,9.376835078
0.96850,10.2924183
0.96900,8.461251855
0.96950,5.10411337
0.97000,2.967752516
0.97050,3.272946924
0.97100,2.357363701
0.97150,-0.9997747838
0.97200,-6.188079715
0.97250,-10.76599583
0.97300,-15.03871754
0.97350,-19.31143925
0.97400,-22.05818892
0.97450,-22.05818892
0.97500,-20.53221688
0.97550,-18.39585602
0.97600,-16.25949517
0.97650,-14.73352313
0.97700,-13.81793991
0.97750,-14.12313432
0.97800,-14.73352313
0.97850,-15.34391195
0.97900,-15.95430076
0.97950,-16.25949517
0.98000,-14.73352313
0.98050,-11.98677346
0.98100,-9.850412607
0.98150,-7.714051753
0.98200,-5.577690899
0.98250,-3.441330045
0.98300,-2.220552415
0.98350,-1.915358007
0.98400,-0.9997747838
0.98450,0.221002847
0.98500,1.441780478
0.98550,0.8313916624
0.98600,0.5261972547
0.98650,0.8313916624
0.98700,2.052169293
0.98750,4.188530147
0.98800,6.935279816
0.98850,9.682029486
0.98900,11.51319593
0.98950,12.42877916
0.99000,13.34436238
0.99050,13.34436238
0.99100,11.81839034
0.99150,9.987223893
0.99200,9.376835078
0.99250,9.682029486
0.99300,9.07164067
0.99350,6.630085409
0.99400,4.493724555
0.99450,2.967752516
0.99500,1.746974885
0.99550,0.5261972547
0.99600,0.221002847
0.99650,0.8313916624
0.99700,0.8313916624
0.99750,-0.08419156075
0.99800,-0.08419156075
0.99850,0.5261972547
0.99900,1.441780478
0.99950,0.221002847
1.00000,-0.9997747838
1.00050,-0.9997747838
1.00100,0.221002847
1.00150,0.8313916624
1.00200,0.5261972547
1.00250,0.5261972547
1.00300,1.13658607
1.00350,1.13658607
1.00400,-0.3893859684
1.00450,-2.525746822
1.00500,-3.441330045
1.00550,-3.136135638
1.00600,-3.746524453
1.00650,-3.746524453
1.00700,-2.525746822
1.00750,-0.3893859684
1.00800,0.5261972547
1.00850,-0.3893859684
1.00900,-3.136135638
1.00950,-6.79846853
1.01000,-10.15560701
1.01050,-11.68157905
1.01100,-11.07119024
1.01150,-11.07119024
1.01200,-13.20755109
1.01250,-15.03871754
1.01300,-13.81793991
1.01350,-10.15560701
1.01400,-7.714051753
1.01450,-7.408857346
1.01500,-6.493274122
1.01550,-4.662107676
1.01600,-3.136135638
1.01650,-3.441330045
1.01700,-3.746524453
1.01750,-1.304969192
1.01800,1.746974885
1.01850,4.188530147
1.01900,4.798918962
1.01950,5.409307778
1.02000,6.630085409
1.02050,6.630085409
1.02100,5.409307778
1.02150,4.493724555
1.02200,5.10411337
1.02250,6.019696593
1.02300,5.409307778
1.02350,3.272946924
1.02400,1.13658607
1.02450,0.5261972547
1.02500,1.441780478
1.02550,2.967752516
1.02600,3.578141332
1.02650,3.578141332
1.02700,4.188530147
1.02750,5.409307778
1.02800,6.935279816
1.02850,8.766446263
1.02900,9.987223893
1.02950,10.59761271
1.03000,10.90280712
1.03050,11.20800152
1.03100,10.59761271
1.03150,8.156057447
1.03200,4.188530147
1.03250,1.441780478
1.03300,1.746974885
1.03350,2.357363701
1.03400,0.5261972547
1.03450,-3.441330045
1.03500,-5.882885307
1.03550,-5.882885307
1.03600,-6.188079715
1.03650,-8.934829384
1.03700,-11.68157905
1.03750,-11.98677346
1.03800,-10.76599583
1.03850,-10.46080142
1.03900,-11.37638465
1.03950,-11.98677346
1.04000,-12.29196787
1.04050,-12.90235668
1.04100,-12.90235668
1.04150,-11.68157905
1.04200,-10.76599583
1.04250,-11.07119024
1.04300,-12.29196787
1.04350,-12.29196787
1.04400,-10.76599583
1.04450,-9.240023792
1.04500,-7.103662938
1.04550,-3.136135638
1.04600,1.746974885
1.04650,4.798918962
1.04700,5.409307778
1.04750,5.714502186
1.04800,7.850863039
1.04850,10.59761271
1.04900,11.81839034
1.04950,11.51319593
1.05000,11.51319593
1.05050,12.42877916
1.05100,13.64955679
1.05150,14.87033442
1.05200,16.09111205
1.05250,17.00669527
1.05300,16.39630646
1.05350,15.48072323
1.05400,15.48072323
1.05450,15.78591764
1.05500,16.39630646
1.05550,16.70150086
1.05600,17.00669527
1.05650,17.31188968
1.05700,15.78591764
1.05750,13.03916797
1.05800,10.2924183
1.05850,8.156057447
1.05900,5.409307778
1.05950,1.13658607
1.06000,-3.136135638
1.06050,-7.714051753
1.06100,-11.68157905
1.06150,-14.73352313
1.06200,-15.95430076
1.06250,-15.95430076
1.06300,-15.64910635
1.06350,-16.25949517
1.06400,-17.17507839
1.06450,-18.39585602
1.06500,-19.61663365
1.06550,-20.22702247
1.06600,-19.31143925
1.06650,-16.25949517
1.06700,-12.29196787
1.06750,-8.324440569
1.06800,-4.967302084
1.06850,-2.525746822
1.06900,-1.610163599
1.06950,-0.9997747838
1.07000,-0.08419156075
1.07050,1.441780478
1.07100,3.272946924
1.07150,3.883335739
1.07200,2.967752516
1.07250,0.8313916624
1.07300,-0.3893859684
1.07350,-0.08419156075
1.07400,1.746974885
1.07450,4.188530147
1.07500,5.409307778
1.07550,4.798918962
1.07600,4.493724555
1.07650,5.714502186
1.07700,8.461251855
1.07750,10.90280712
1.07800,11.20800152
1.07850,9.376835078
1.07900,7.850863039
1.07950,6.630085409
1.08000,5.409307778
1.08050,4.493724555
1.08100,5.10411337
1.08150,7.240474224
1.08200,9.07164067
1.08250,9.682029486
1.08300,9.07164067
1.08350,8.461251855
1.08400,7.850863039
1.08450,7.240474224
1.08500,5.714502186
1.08550,3.272946924
1.08600,0.221002847
1.08650,-0.6945803761
1.08700,1.13658607
1.08750,3.883335739
1.08800,4.493724555
1.08850,2.052169293
1.08900,-0.3893859684
1.08950,-1.610163599
1.09000,-1.610163599
1.09050,-1.610163599
1.09100,-1.304969192
1.09150,-0.9997747838
1.09200,-2.220552415
1.09250,-5.272496492
1.09300,-8.934829384
1.09350,-11.68157905
1.09400,-13.81793991
1.09450,-17.4802728
1.09500,-22.66857773
1.09550,-27.85688266
1.09600,-30.90882674
1.09650,-30.60363233
1.09700,-27.24649385
1.09750,-22.97377214
1.09800,-20.53221688
1.09850,-20.53221688
1.09900,-20.53221688
1.09950,-18.70105043
1.10000,-15.03871754
1.10050,-11.07119024
1.10100,-8.324440569
1.10150,-5.272496492
1.10200,-1.610163599
1.10250,1.441780478
1.10300,2.967752516
1.10350,2.662558109
1.10400,2.967752516
1.10450,5.409307778
1.10500,7.850863039
1.10550,8.461251855
1.10600,7.545668632
1.10650,8.156057447
1.10700,11.81839034
1.10750,16.39630646
1.10800,18.2274729
1.10850,17.31188968
1.10900,15.78591764
1.10950,14.87033442
1.11000,13.95475119
1.11050,13.64955679
1.11100,13.34436238
1.11150,12.42877916
1.11200,10.59761271
1.11250,8.156057447
1.11300,6.324891001
1.11350,4.493724555
1.11400,2.052169293
1.11450,-0.3893859684
1.11500,-2.83094123
1.11550,-4.967302084
1.11600,-6.188079715
1.11650,-6.188079715
1.11700,-4.967302084
1.11750,-3.441330045
1.11800,-2.83094123
1.11850,-3.441330045
1.11900,-4.967302084
1.11950,-7.103662938
1.12000,-8.934829384
1.12050,-9.850412607
1.12100,-9.240023792
1.12150,-7.714051753
1.12200,-7.103662938
1.12250,-6.188079715
1.12300,-4.051718861
1.12350,-1.304969192
1.12400,0.5261972547
1.12450,2.357363701
1.12500,4.188530147
1.12550,6.324891001
1.12600,6.935279816
1.12650,5.409307778
1.12700,2.967752516
1.12750,0.5261972547
1.12800,-0.6945803761
1.12850,-0.9997747838
1.12900,-0.08419156075
1.12950,1.441780478
1.13000,3.272946924
1.13050,4.798918962
1.13100,6.019696593
1.13150,7.240474224
1.13200,8.461251855
1.13250,9.376835078
1.13300,8.461251855
1.13350,5.409307778
1.13400,2.662558109
1.13450,3.883335739
1.13500,7.545668632
1.13550,9.376835078
1.13600,7.240474224
1.13650,3.883335739
1.13700,2.357363701
1.13750,1.441780478
1.13800,-1.610163599
1.13850,-7.408857346
1.13900,-11.68157905
1.13950,-13.20755109
1.14000,-13.81793991
1.14050,-15.03871754
1.14100,-15.34391195
1.14150,-13.81793991
1.14200,-11.68157905
1.14250,-10.15560701
1.14300,-8.934829384
1.14350,-8.019246161
1.14400,-7.408857346
1.14450,-7.103662938
1.14500,-5.882885307
1.14550,-4.356913269
1.14600,-3.441330045
1.14650,-3.746524453
1.14700,-4.051718861
1.14750,-3.136135638
1.14800,-1.304969192
1.14850,0.221002847
1.14900,0.8313916624
1.14950,0.5261972547
1.15000,0.5261972547
1.15050,1.746974885
1.15100,4.798918962
1.15150,7.545668632
1.15200,9.682029486
1.15250,10.59761271
1.15300,10.59761271
1.15350,10.90280712
1.15400,10.90280712
1.15450,10.90280712
1.15500,10.59761271
1.15550,10.2924183
1.15600,11.51319593
1.15650,13.64955679
1.15700,15.17552882
1.15750,14.2599456
1.15800,12.12358475
1.15850,11.51319593
1.15900,12.73397356
1.15950,13.64955679
1.16000,13.03916797
1.16050,12.42877916
1.16100,13.03916797
1.16150,13.64955679
1.16200,13.64955679
1.16250,12.42877916
1.16300,11.81839034
1.16350,12.73397356
1.16400,13.95475119
1.16450,13.64955679
1.16500,10.90280712
1.16550,6.935279816
1.16600,3.272946924
1.16650,1.746974885
1.16700,0.221002847
1.16750,-1.610163599
1.16800,-4.051718861
1.16850,-4.662107676
1.16900,-3.746524453
1.16950,-2.83094123
1.17000,-2.83094123
1.17050,-2.83094123
1.17100,-2.525746822
1.17150,-2.220552415
1.17200,-2.525746822
1.17250,-2.83094123
1.17300,-2.525746822
1.17350,-3.746524453
1.17400,-7.408857346
1.17450,-11.98677346
1.17500,-13.5127455
1.17550,-13.20755109
1.17600,-13.20755109
1.17650,-13.81793991
1.17700,-13.20755109
1.17750,-10.46080142
1.17800,-8.019246161
1.17850,-6.79846853
1.17900,-5.272496492
1.17950,-3.136135638
1.18000,-1.304969192
1.18050,-0.9997747838
1.18100,-0.9997747838
1.18150,-0.08419156075
1.18200,1.441780478
1.18250,2.662558109
1.18300,4.493724555
1.18350,8.156057447
1.18400,12.73397356
1.18450,16.09111205
1.18500,16.70150086
1.18550,15.48072323
1.18600,14.87033442
1.18650,16.09111205
1.18700,18.53266731
1.18750,20.05863935
1.18800,19.14305612
1.18850,16.70150086
1.18900,13.95475119
1.18950,11.20800152
1.19000,7.850863039
1.19050,2.662558109
1.19100,-3.136135638
1.19150,-8.934829384
1.19200,-12.90235668
1.19250,-14.73352313
1.19300,-15.64910635
1.19350,-17.4802728
1.19400,-19.00624484
1.19450,-18.70105043
1.19500,-15.34391195
1.19550,-11.37638465
1.19600,-9.545218199
1.19650,-10.15560701
1.19700,-11.07119024
1.19750,-10.15560701
1.19800,-7.408857346
1.19850,-3.746524453
1.19900,-0.08419156075
1.19950,2.967752516
1.20000,5.714502186
1.20050,6.019696593
1.20100,4.798918962
1.20150,3.578141332
1.20200,4.798918962
1.20250,7.240474224
1.20300,8.156057447
1.20350,6.935279816
1.20400,4.493724555
1.20450,3.578141332
1.20500,2.357363701
1.20550,-0.08419156075
1.20600,-3.746524453
1.20650,-6.188079715
1.20700,-7.103662938
1.20750,-7.714051753
1.20800,-9.850412607
1.20850,-13.81793991
1.20900,-18.70105043
1.20950,-22.05818892
1.21000,-21.4478001
1.21050,-17.78546721
1.21100,-13.20755109
1.21150,-10.76599583
1.21200,-9.850412607
1.21250,-7.714051753
1.21300,-4.356913269
1.21350,-1.610163599
1.21400,-2.220552415
1.21450,-5.577690899
1.21500,-9.545218199
1.21550,-10.76599583
1.21600,-8.629634976
1.21650,-4.967302084
1.21700,-2.220552415
1.21750,-0.3893859684
1.21800,0.221002847
1.21850,0.5261972547
1.21900,0.221002847
1.21950,-0.6945803761
1.22000,-0.9997747838
1.22050,-0.9997747838
1.22100,-0.3893859684
1.22150,-0.08419156075
1.22200,1.13658607
1.22250,2.052169293
1.22300,3.272946924
1.22350,4.188530147
1.22400,6.019696593
1.22450,7.545668632
1.22500,8.766446263
1.22550,10.59761271
1.22600,12.73397356
1.22650,14.2599456
1.22700,14.2599456
1.22750,13.95475119
1.22800,13.95475119
1.22850,13.64955679
1.22900,12.73397356
1.22950,12.12358475
1.23000,13.03916797
1.23050,13.03916797
1.23100,10.59761271
1.23150,6.019696593
1.23200,2.967752516
1.23250,2.662558109
1.23300,3.578141332
1.23350,3.883335739
1.23400,5.10411337
1.23450,7.545668632
1.23500,9.987223893
1.23550,10.90280712
1.23600,10.90280712
1.23650,10.2924183
1.23700,9.682029486
1.23750,8.461251855
1.23800,7.545668632
1.23850,7.240474224
1.23900,7.240474224
1.23950,6.935279816
1.24000,4.798918962
1.24050,0.5261972547
1.24100,-4.967302084
1.24150,-11.07119024
1.24200,-15.95430076
1.24250,-18.70105043
1.24300,-19.00624484
1.24350,-17.78546721
1.24400,-16.25949517
1.24450,-15.03871754
1.24500,-13.5127455
1.24550,-10.46080142
1.24600,-6.188079715
1.24650,-3.136135638
1.24700,-3.136135638
1.24750,-5.577690899
1.24800,-7.408857346
1.24850,-7.714051753
1.24900,-8.934829384
1.24950,-11.37638465
1.25000,-14.12313432
1.25050,-15.64910635
1.25100,-16.86988398
1.25150,-18.70105043
1.25200,-20.22702247
1.25250,-19.31143925
1.25300,-15.95430076
1.25350,-12.90235668
1.25400,-11.98677346
1.25450,-11.37638465
1.25500,-9.545218199
1.25550,-7.408857346
1.25600,-6.79846853
1.25650,-6.79846853
1.25700,-5.882885307
1.25750,-3.441330045
1.25800,-1.304969192
1.25850,0.221002847
1.25900,1.746974885
1.25950,2.357363701
1.26000,1.441780478
1.26050,-0.08419156075
1.26100,-1.304969192
1.26150,-1.915358007
1.26200,-2.220552415
1.26250,-1.304969192
1.26300,1.441780478
1.26350,6.019696593
1.26400,9.376835078
1.26450,10.2924183
1.26500,10.90280712
1.26550,11.81839034
1.26600,11.20800152
1.26650,9.07164067
1.26700,8.461251855
1.26750,10.2924183
1.26800,11.20800152
1.26850,9.682029486
1.26900,8.461251855
1.26950,9.987223893
1.27000,11.20800152
1.27050,9.07164067
1.27100,5.714502186
1.27150,6.019696593
1.27200,9.987223893
1.27250,13.03916797
1.27300,13.03916797
1.27350,11.20800152
1.27400,9.376835078
1.27450,6.630085409
1.27500,2.052169293
1.27550,-3.746524453
1.27600,-10.15560701
1.27650,-15.34391195
1.27700,-17.78546721
1.27750,-16.86988398
1.27800,-14.73352313
1.27850,-14.12313432
1.27900,-15.34391195
1.27950,-16.56468958
1.28000,-15.03871754
1.28050,-11.68157905
1.28100,-8.324440569
1.28150,-6.79846853
1.28200,-6.79846853
1.28250,-6.79846853
1.28300,-5.882885307
1.28350,-4.051718861
1.28400,-2.220552415
1.28450,-1.304969192
1.28500,-1.304969192
1.28550,-3.136135638
1.28600,-7.103662938
1.28650,-11.37638465
1.28700,-14.42832872
1.28750,-14.73352313
1.28800,-13.20755109
1.28850,-9.850412607
1.28900,-6.493274122
1.28950,-4.051718861
1.29000,-3.136135638
1.29050,-1.610163599
1.29100,1.441780478
1.29150,4.798918962
1.29200,5.714502186
1.29250,5.714502186
1.29300,6.324891001
1.29350,8.461251855
1.29400,11.20800152
1.29450,15.48072323
1.29500,20.05863935
1.29550,22.1950002
1.29600,20.05863935
1.29650,17.00669527
1.29700,16.39630646
1.29750,16.39630646
1.29800,13.64955679
1.29850,9.682029486
1.29900,8.766446263
1.29950,10.90280712
1.30000,11.81839034
1.30050,9.07164067
1.30100,5.409307778
1.30150,2.357363701
1.30200,-1.304969192
1.30250,-7.103662938
1.30300,-12.59716228
1.30350,-15.34391195
1.30400,-15.64910635
1.30450,-13.81793991
1.30500,-11.37638465
1.30550,-9.545218199
1.30600,-8.934829384
1.30650,-7.714051753
1.30700,-6.493274122
1.30750,-6.493274122
1.30800,-9.545218199
1.30850,-12.90235668
1.30900,-13.20755109
1.30950,-11.37638465
1.31000,-10.76599583
1.31050,-12.59716228
1.31100,-14.12313432
1.31150,-15.03871754
1.31200,-16.86988398
1.31250,-19.00624484
1.31300,-17.78546721
1.31350,-13.20755109
1.31400,-9.240023792
1.31450,-7.714051753
1.31500,-5.882885307
1.31550,-1.304969192
1.31600,2.967752516
1.31650,5.409307778
1.31700,7.545668632
1.31750,10.59761271
1.31800,12.73397356
1.31850,11.51319593
1.31900,9.07164067
1.31950,8.156057447
1.32000,8.461251855
1.32050,6.630085409
1.32100,2.967752516
1.32150,-0.08419156075
1.32200,-0.9997747838
1.32250,-1.304969192
1.32300,-1.304969192
1.32350,-0.3893859684
1.32400,0.8313916624
1.32450,2.052169293
1.32500,3.578141332
1.32550,5.714502186
1.32600,6.935279816
1.32650,4.798918962
1.32700,1.746974885
1.32750,1.13658607
1.32800,3.578141332
1.32850,5.714502186
1.32900,4.188530147
1.32950,0.221002847
1.33000,-2.83094123
1.33050,-4.051718861
1.33100,-3.746524453
1.33150,-3.136135638
1.33200,-3.136135638
1.33250,-4.051718861
1.33300,-4.662107676
1.33350,-4.051718861
1.33400,-1.304969192
1.33450,1.441780478
1.33500,4.493724555
1.33550,7.240474224
1.33600,10.2924183
1.33650,12.12358475
1.33700,12.73397356
1.33750,13.34436238
1.33800,15.17552882
1.33850,17.61708409
1.33900,19.14305612
1.33950,17.92227849
1.34000,15.48072323
1.34050,14.2599456
1.34100,15.78591764
1.34150,17.92227849
1.34200,18.2274729
1.34250,16.09111205
1.34300,13.34436238
1.34350,11.81839034
1.34400,9.682029486
1.34450,6.324891001
1.34500,2.662558109
1.34550,-0.6945803761
1.34600,-4.356913269
1.34650,-8.019246161
1.34700,-10.46080142
1.34750,-9.545218199
1.34800,-6.79846853
1.34850,-6.188079715
1.34900,-8.324440569
1.34950,-10.46080142
1.35000,-10.15560701
1.35050,-9.240023792
1.35100,-9.545218199
1.35150,-11.68157905
1.35200,-13.81793991
1.35250,-15.03871754
1.35300,-15.03871754
1.35350,-13.81793991
1.35400,-11.37638465
1.35450,-8.629634976
1.35500,-4.967302084
1.35550,-1.610163599
1.35600,0.8313916624
1.35650,2.357363701
1.35700,3.578141332
1.35750,4.798918962
1.35800,5.10411337
1.35850,3.883335739
1.35900,2.357363701
1.35950,1.441780478
1.36000,1.13658607
1.36050,0.221002847
1.36100,-0.3893859684
1.36150,-0.08419156075
1.36200,2.357363701
1.36250,4.493724555
1.36300,4.188530147
1.36350,3.578141332
1.36400,4.188530147
1.36450,6.630085409
1.36500,9.682029486
1.36550,11.51319593
1.36600,11.51319593
1.36650,8.766446263
1.36700,4.493724555
1.36750,0.8313916624
1.36800,-0.08419156075
1.36850,-0.08419156075
1.36900,-0.6945803761
1.36950,-2.220552415
1.37000,-3.136135638
1.37050,-2.83094123
1.37100,-1.915358007
1.37150,-0.6945803761
1.37200,1.441780478
1.37250,5.409307778
1.37300,8.461251855
1.37350,9.376835078
1.37400,9.682029486
1.37450,10.59761271
1.37500,11.20800152
1.37550,10.90280712
1.37600,10.2924183
1.37650,11.51319593
1.37700,13.64955679
1.37750,15.78591764
1.37800,15.78591764
1.37850,13.95475119
1.37900,11.20800152
1.37950,8.766446263
1.38000,8.156057447
1.38050,9.07164067
1.38100,10.59761271
1.38150,10.90280712
1.38200,8.766446263
1.38250,6.630085409
1.38300,4.798918962
1.38350,3.272946924
1.38400,0.8313916624
1.38450,-3.136135638
1.38500,-8.324440569
1.38550,-13.81793991
1.38600,-18.09066162
1.38650,-18.39585602
1.38700,-14.73352313
1.38750,-10.15560701
1.38800,-7.714051753
1.38850,-8.629634976
1.38900,-10.46080142
1.38950,-12.29196787
1.39000,-15.03871754
1.39050,-17.4802728
1.39100,-17.17507839
1.39150,-13.20755109
1.39200,-8.629634976
1.39250,-6.188079715
1.39300,-4.967302084
1.39350,-3.136135638
1.39400,-1.915358007
1.39450,-2.83094123
1.39500,-3.746524453
1.39550,-1.915358007
1.39600,1.441780478
1.39650,3.272946924
1.39700,3.578141332
1.39750,3.883335739
1.39800,5.409307778
1.39850,6.019696593
1.39900,5.714502186
1.39950,6.935279816
1.40000,8.766446263
1.40050,9.682029486
1.40100,8.461251855
1.40150,7.240474224
1.40200,6.935279816
1.40250,7.240474224
1.40300,8.156057447
1.40350,10.59761271
1.40400,13.64955679
1.40450,14.56514001
1.40500,12.42877916
1.40550,8.766446263
1.40600,5.409307778
1.40650,3.578141332
1.40700,2.662558109
1.40750,1.746974885
1.40800,-0.6945803761
1.40850,-5.577690899
1.40900,-10.46080142
1.40950,-12.59716228
1.41000,-13.81793991
1.41050,-16.25949517
1.41100,-19.61663365
1.41150,-20.22702247
1.41200,-18.39585602
1.41250,-15.64910635
1.41300,-12.29196787
1.41350,-6.79846853
1.41400,-1.915358007
1.41450,-0.9997747838
1.41500,-4.051718861
1.41550,-6.493274122
1.41600,-5.577690899
1.41650,-4.051718861
1.41700,-4.662107676
1.41750,-6.79846853
1.41800,-8.629634976
1.41850,-11.07119024
1.41900,-12.59716228
1.41950,-10.46080142
1.42000,-4.967302084
1.42050,-0.6945803761
1.42100,-0.08419156075
1.42150,-0.3893859684
1.42200,1.441780478
1.42250,4.798918962
1.42300,5.409307778
1.42350,2.967752516
1.42400,1.441780478
1.42450,2.662558109
1.42500,5.409307778
1.42550,7.240474224
1.42600,6.935279816
1.42650,5.409307778
1.42700,3.883335739
1.42750,2.967752516
1.42800,2.052169293
1.42850,0.221002847
1.42900,-2.83094123
1.42950,-6.79846853
1.43000,-10.15560701
1.43050,-10.76599583
1.43100,-7.714051753
1.43150,-3.746524453
1.43200,-1.610163599
1.43250,-2.525746822
1.43300,-4.051718861
1.43350,-4.662107676
1.43400,-4.662107676
1.43450,-5.577690899
1.43500,-5.577690899
1.43550,-4.051718861
1.43600,-1.304969192
1.43650,-0.3893859684
1.43700,-0.08419156075
1.43750,2.052169293
1.43800,6.019696593
1.43850,9.376835078
1.43900,9.376835078
1.43950,6.935279816
1.44000,3.578141332
1.44050,0.5261972547
1.44100,-0.08419156075
1.44150,1.13658607
1.44200,3.272946924
1.44250,3.578141332
1.44300,2.357363701
1.44350,1.746974885
1.44400,2.357363701
1.44450,3.883335739
1.44500,4.798918962
1.44550,4.798918962
1.44600,3.578141332
1.44650,1.746974885
1.44700,0.5261972547
1.44750,2.052169293
1.44800,5.409307778
1.44850,8.156057447
1.44900,9.987223893
1.44950,12.42877916
1.45000,16.39630646
1.45050,18.83786172
1.45100,18.2274729
1.45150,15.48072323
1.45200,12.42877916
1.45250,9.987223893
1.45300,8.766446263
1.45350,9.376835078
1.45400,9.682029486
1.45450,8.156057447
1.45500,3.578141332
1.45550,-1.304969192
1.45600,-5.272496492
1.45650,-8.324440569
1.45700,-11.07119024
1.45750,-12.29196787
1.45800,-10.76599583
1.45850,-8.019246161
1.45900,-6.188079715
1.45950,-6.188079715
1.46000,-6.79846853
1.46050,-6.493274122
1.46100,-4.356913269
1.46150,-0.9997747838
1.46200,1.13658607
1.46250,1.746974885
1.46300,-0.08419156075
1.46350,-1.610163599
1.46400,-3.441330045
1.46450,-4.967302084
1.46500,-7.103662938
1.46550,-9.545218199
1.46600,-11.07119024
1.46650,-10.15560701
1.46700,-7.408857346
1.46750,-4.967302084
1.46800,-4.356913269
1.46850,-4.967302084
1.46900,-4.051718861
1.46950,-0.6945803761
1.47000,2.662558109
1.47050,5.10411337
1.47100,6.324891001
1.47150,7.850863039
1.47200,8.766446263
1.47250,7.850863039
1.47300,6.019696593
1.47350,4.798918962
1.47400,4.493724555
1.47450,3.578141332
1.47500,1.746974885
1.47550,-0.08419156075
1.47600,-0.9997747838
1.47650,0.221002847
1.47700,1.746974885
1.47750,0.8313916624
1.47800,-1.915358007
1.47850,-4.662107676
1.47900,-4.662107676
1.47950,-2.525746822
1.48000,-0.9997747838
1.48050,-0.6945803761
1.48100,-0.3893859684
1.48150,0.221002847
1.48200,0.8313916624
1.48250,0.221002847
1.48300,-0.3893859684
1.48350,-0.9997747838
1.48400,-3.136135638
1.48450,-6.79846853
1.48500,-10.46080142
1.48550,-11.98677346
1.48600,-11.68157905
1.48650,-10.76599583
1.48700,-8.324440569
1.48750,-4.662107676
1.48800,-1.304969192
1.48850,0.221002847
1.48900,1.746974885
1.48950,4.798918962
1.49000,7.850863039
1.49050,8.766446263
1.49100,8.461251855
1.49150,8.766446263
1.49200,9.07164067
1.49250,8.156057447
1.49300,7.240474224
1.49350,6.324891001
1.49400,4.493724555
1.49450,0.5261972547
1.49500,-3.136135638
1.49550,-4.051718861
1.49600,-3.441330045
1.49650,-4.051718861
1.49700,-6.188079715
1.49750,-8.324440569
1.49800,-11.68157905
1.49850,-16.25949517
1.49900,-19.92182806
1.49950,-19.92182806
1.50000,-18.09066162
1.50050,-18.09066162
1.50100,-20.22702247
1.50150,-20.53221688
1.50200,-17.4802728
1.50250,-13.5127455
1.50300,-11.98677346
1.50350,-11.68157905
1.50400,-10.46080142
1.50450,-8.019246161
1.50500,-5.272496492
1.50550,-1.915358007
1.50600,1.13658607
1.50650,3.272946924
1.50700,3.883335739
1.50750,3.578141332
1.50800,2.052169293
1.50850,-0.08419156075
1.50900,-2.525746822
1.50950,-3.441330045
1.51000,-2.220552415
1.51050,0.8313916624
1.51100,4.493724555
1.51150,6.324891001
1.51200,3.883335739
1.51250,-0.6945803761
1.51300,-4.662107676
1.51350,-4.967302084
1.51400,-4.356913269
1.51450,-4.967302084
1.51500,-6.188079715
1.51550,-6.188079715
1.51600,-4.356913269
1.51650,-0.9997747838
1.51700,3.272946924
1.51750,8.766446263
1.51800,11.81839034
1.51850,11.51319593
1.51900,10.59761271
1.51950,10.90280712
1.52000,11.20800152
1.52050,9.987223893
1.52100,9.07164067
1.52150,11.20800152
1.52200,15.17552882
1.52250,16.70150086
1.52300,15.48072323
1.52350,15.48072323
1.52400,17.61708409
1.52450,19.14305612
1.52500,18.83786172
1.52550,17.92227849
1.52600,17.92227849
1.52650,18.2274729
1.52700,18.53266731
1.52750,19.14305612
1.52800,19.75344494
1.52850,18.53266731
1.52900,15.17552882
1.52950,11.51319593
1.53000,10.2924183
1.53050,9.682029486
1.53100,7.240474224
1.53150,2.967752516
1.53200,-1.915358007
1.53250,-8.019246161
1.53300,-14.42832872
1.53350,-19.00624484
1.53400,-20.22702247
1.53450,-19.31143925
1.53500,-18.70105043
1.53550,-19.00624484
1.53600,-19.00624484
1.53650,-16.86988398
1.53700,-14.12313432
1.53750,-11.68157905
1.53800,-9.545218199
1.53850,-6.79846853
1.53900,-3.746524453
1.53950,-1.304969192
1.54000,-0.6945803761
1.54050,-0.6945803761
1.54100,1.13658607
1.54150,4.798918962
1.54200,6.630085409
1.54250,3.578141332
1.54300,-0.9997747838
1.54350,-3.136135638
1.54400,-1.304969192
1.54450,0.221002847
1.54500,-0.3893859684
1.54550,-1.304969192
1.54600,1.441780478
1.54650,6.324891001
1.54700,9.376835078
1.54750,9.07164067
1.54800,7.850863039
1.54850,8.156057447
1.54900,9.987223893
1.54950,11.81839034
1.55000,12.73397356
1.55050,12.42877916
1.55100,10.2924183
1.55150,6.324891001
1.55200,1.746974885
1.55250,-0.6945803761
1.55300,-0.9997747838
1.55350,0.5261972547
1.55400,2.052169293
1.55450,1.746974885
1.55500,-0.3893859684
1.55550,-2.220552415
1.55600,-2.83094123
1.55650,-2.83094123
1.55700,-4.051718861
1.55750,-6.493274122
1.55800,-8.324440569
1.55850,-9.240023792
1.55900,-9.545218199
1.55950,-10.15560701
1.56000,-11.07119024
1.56050,-11.37638465
1.56100,-10.46080142
1.56150,-8.019246161
1.56200,-5.577690899
1.56250,-3.746524453
1.56300,-3.441330045
1.56350,-4.051718861
1.56400,-4.051718861
1.56450,-4.051718861
1.56500,-3.136135638
1.56550,-2.220552415
1.56600,-0.3893859684
1.56650,1.13658607
1.56700,2.357363701
1.56750,2.662558109
1.56800,2.052169293
1.56850,1.441780478
1.56900,1.746974885
1.56950,2.967752516
1.57000,4.493724555
1.57050,4.493724555
1.57100,2.967752516
1.57150,3.272946924
1.57200,6.935279816
1.57250,12.12358475
1.57300,14.87033442
1.57350,14.56514001
1.57400,13.64955679
1.57450,13.03916797
1.57500,11.81839034
1.57550,9.987223893
1.57600,8.461251855
1.57650,6.324891001
1.57700,2.357363701
1.57750,-1.304969192
1.57800,-3.441330045
1.57850,-4.051718861
1.57900,-5.577690899
1.57950,-8.629634976
1.58000,-9.545218199
1.58050,-5.882885307
1.58100,-0.9997747838
1.58150,-0.08419156075
1.58200,-3.136135638
1.58250,-6.493274122
1.58300,-6.493274122
1.58350,-3.441330045
1.58400,-0.6945803761
1.58450,-0.6945803761
1.58500,-3.746524453
1.58550,-7.714051753
1.58600,-11.07119024
1.58650,-13.20755109
1.58700,-15.34391195
1.58750,-17.17507839
1.58800,-17.78546721
1.58850,-17.17507839
1.58900,-15.34391195
1.58950,-13.20755109
1.59000,-10.15560701
1.59050,-7.408857346
1.59100,-5.577690899
1.59150,-2.83094123
1.59200,2.052169293
1.59250,8.766446263
1.59300,12.73397356
1.59350,11.51319593
1.59400,8.766446263
1.59450,8.156057447
1.59500,10.59761271
1.59550,13.03916797
1.59600,14.56514001
1.59650,15.17552882
1.59700,15.78591764
1.59750,15.78591764
1.59800,15.17552882
1.59850,15.17552882
1.59900,15.48072323
1.59950,16.09111205
1.60000,15.78591764
1.60050,13.34436238
1.60100,8.766446263
1.60150,4.493724555
1.60200,2.967752516
1.60250,3.578141332
1.60300,4.493724555
1.60350,2.967752516
1.60400,-0.3893859684
1.60450,-4.051718861
1.60500,-6.493274122
1.60550,-8.934829384
1.60600,-12.59716228
1.60650,-17.78546721
1.60700,-21.75299451
1.60750,-22.36338332
1.60800,-19.92182806
1.60850,-17.17507839
1.60900,-15.95430076
1.60950,-14.73352313
1.61000,-11.98677346
1.61050,-9.240023792
1.61100,-8.324440569
1.61150,-8.629634976
1.61200,-7.103662938
1.61250,-3.441330045
1.61300,-0.6945803761
1.61350,-0.3893859684
1.61400,-0.3893859684
1.61450,1.441780478
1.61500,4.798918962
1.61550,6.630085409
1.61600,5.714502186
1.61650,3.883335739
1.61700,2.357363701
1.61750,2.052169293
1.61800,2.357363701
1.61850,2.357363701
1.61900,1.746974885
1.61950,0.8313916624
1.62000,0.5261972547
1.62050,1.441780478
1.62100,2.357363701
1.62150,2.662558109
1.62200,2.662558109
1.62250,4.798918962
1.62300,8.156057447
1.62350,11.20800152
1.62400,12.73397356
1.62450,14.56514001
1.62500,18.2274729
1.62550,21.27941698
1.62600,20.36383376
1.62650,14.87033442
1.62700,8.461251855
1.62750,4.493724555
1.62800,2.052169293
1.62850,0.221002847
1.62900,-0.9997747838
1.62950,-0.08419156075
1.63000,1.13658607
1.63050,0.5261972547
1.63100,-3.441330045
1.63150,-8.019246161
1.63200,-9.850412607
1.63250,-9.240023792
1.63300,-8.019246161
1.63350,-7.408857346
1.63400,-6.188079715
1.63450,-4.051718861
1.63500,-2.220552415
1.63550,-4.051718861
1.63600,-11.07119024
1.63650,-21.14260569
1.63700,-30.90882674
1.63750,-35.48674285
1.63800,-33.96077082
1.63850,-28.77246588
1.63900,-24.19454977
1.63950,-22.97377214
1.64000,-23.58416095
1.64050,-22.97377214
1.64100,-19.61663365
1.64150,-15.03871754
1.64200,-10.46080142
1.64250,-6.493274122
1.64300,-2.83094123
1.64350,0.8313916624
1.64400,5.714502186
1.64450,9.376835078
1.64500,10.2924183
1.64550,8.156057447
1.64600,5.409307778
1.64650,3.578141332
1.64700,2.052169293
1.64750,-0.08419156075
1.64800,-2.220552415
1.64850,-3.746524453
1.64900,-4.662107676
1.64950,-5.577690899
1.65000,-6.493274122
1.65050,-5.577690899
1.65100,-2.83094123
1.65150,0.221002847
1.65200,1.746974885
1.65250,1.441780478
1.65300,-0.08419156075
1.65350,-1.915358007
1.65400,-2.83094123
1.65450,-2.220552415
1.65500,-0.6945803761
1.65550,0.5261972547
1.65600,1.746974885
1.65650,1.746974885
1.65700,2.052169293
1.65750,2.052169293
1.65800,1.746974885
1.65850,0.8313916624
1.65900,0.221002847
1.65950,2.052169293
1.66000,6.630085409
1.66050,10.2924183
1.66100,10.90280712
1.66150,9.987223893
1.66200,9.682029486
1.66250,9.987223893
1.66300,8.461251855
1.66350,4.798918962
1.66400,2.052169293
1.66450,2.357363701
1.66500,4.188530147
1.66550,4.493724555
1.66600,3.578141332
1.66650,2.052169293
1.66700,0.8313916624
1.66750,-0.08419156075
1.66800,-0.6945803761
1.66850,-1.610163599
1.66900,-2.525746822
1.66950,-1.915358007
1.67000,1.13658607
1.67050,6.630085409
1.67100,9.987223893
1.67150,8.461251855
1.67200,3.883335739
1.67250,0.5261972547
1.67300,-0.3893859684
1.67350,-1.610163599
1.67400,-2.83094123
1.67450,-2.525746822
1.67500,0.221002847
1.67550,4.493724555
1.67600,7.240474224
1.67650,9.07164067
1.67700,11.51319593
1.67750,14.56514001
1.67800,16.39630646
1.67850,15.78591764
1.67900,14.2599456
1.67950,13.95475119
1.68000,15.78591764
1.68050,17.31188968
1.68100,17.00669527
1.68150,13.64955679
1.68200,7.240474224
1.68250,-0.08419156075
1.68300,-5.272496492
1.68350,-6.188079715
1.68400,-2.83094123
1.68450,0.221002847
1.68500,2.357363701
1.68550,3.272946924
1.68600,3.272946924
1.68650,2.052169293
1.68700,-0.3893859684
1.68750,-3.441330045
1.68800,-6.188079715
1.68850,-9.240023792
1.68900,-12.29196787
1.68950,-12.59716228
1.69000,-9.850412607
1.69050,-6.493274122
1.69100,-6.79846853
1.69150,-10.76599583
1.69200,-14.73352313
1.69250,-15.34391195
1.69300,-13.5127455
1.69350,-11.07119024
1.69400,-10.46080142
1.69450,-11.07119024
1.69500,-11.07119024
1.69550,-10.76599583
1.69600,-11.68157905
1.69650,-13.81793991
1.69700,-15.03871754
1.69750,-12.29196787
1.69800,-7.103662938
1.69850,-2.83094123
1.69900,-0.6945803761
1.69950,1.13658607
1.70000,4.493724555
1.70050,6.324891001
1.70100,4.493724555
1.70150,1.746974885
1.70200,1.746974885
1.70250,4.493724555
1.70300,7.850863039
1.70350,9.682029486
1.70400,11.20800152
1.70450,12.73397356
1.70500,12.12358475
1.70550,8.461251855
1.70600,2.967752516
1.70650,-1.304969192
1.70700,-3.136135638
1.70750,-2.83094123
1.70800,-2.220552415
1.70850,-1.610163599
1.70900,-0.3893859684
1.70950,0.8313916624
1.71000,1.746974885
1.71050,1.441780478
1.71100,-0.08419156075
1.71150,-3.746524453
1.71200,-10.76599583
1.71250,-18.70105043
1.71300,-22.66857773
1.71350,-20.53221688
1.71400,-15.34391195
1.71450,-10.46080142
1.71500,-5.272496492
1.71550,0.5261972547
1.71600,5.714502186
1.71650,8.156057447
1.71700,9.682029486
1.71750,13.64955679
1.71800,17.92227849
1.71850,19.75344494
1.71900,18.53266731
1.71950,18.83786172
1.72000,21.88980579
1.72050,24.02616665
1.72100,22.80538902
1.72150,19.44825053
1.72200,16.09111205
1.72250,12.73397356
1.72300,8.461251855
1.72350,4.798918962
1.72400,3.272946924
1.72450,3.272946924
1.72500,2.052169293
1.72550,-0.6945803761
1.72600,-4.662107676
1.72650,-7.408857346
1.72700,-8.019246161
1.72750,-7.408857346
1.72800,-8.019246161
1.72850,-11.98677346
1.72900,-18.09066162
1.72950,-22.36338332
1.73000,-22.97377214
1.73050,-22.05818892
1.73100,-22.36338332
1.73150,-24.19454977
1.73200,-25.72052181
1.73250,-26.02571622
1.73300,-26.02571622
1.73350,-26.02571622
1.73400,-23.88935536
1.73450,-18.09066162
1.73500,-10.15560701
1.73550,-4.356913269
1.73600,-1.304969192
1.73650,0.8313916624
1.73700,5.10411337
1.73750,8.156057447
1.73800,6.935279816
1.73850,3.578141332
1.73900,1.746974885
1.73950,2.967752516
1.74000,4.798918962
1.74050,5.714502186
1.74100,7.545668632
1.74150,11.81839034
1.74200,15.78591764
1.74250,17.00669527
1.74300,15.78591764
1.74350,15.48072323
1.74400,16.39630646
1.74450,16.39630646
1.74500,15.48072323
1.74550,15.48072323
1.74600,18.2274729
1.74650,19.44825053
1.74700,16.39630646
1.74750,9.376835078
1.74800,3.883335739
1.74850,2.052169293
1.74900,1.441780478
1.74950,-0.6945803761
1.75000,-4.356913269
1.75050,-6.493274122
1.75100,-6.493274122
1.75150,-6.188079715
1.75200,-7.103662938
1.75250,-8.629634976
1.75300,-10.46080142
1.75350,-11.68157905
1.75400,-11.98677346
1.75450,-10.76599583
1.75500,-8.934829384
1.75550,-7.714051753
1.75600,-6.188079715
1.75650,-3.746524453
1.75700,-1.304969192
1.75750,-1.915358007
1.75800,-5.272496492
1.75850,-8.934829384
1.75900,-10.46080142
1.75950,-12.29196787
1.76000,-15.95430076
1.76050,-19.61663365
1.76100,-21.4478001
1.76150,-21.14260569
1.76200,-19.92182806
1.76250,-17.4802728
1.76300,-12.29196787
1.76350,-4.051718861
1.76400,2.967752516
1.76450,6.935279816
1.76500,7.545668632
1.76550,8.156057447
1.76600,10.2924183
1.76650,14.2599456
1.76700,18.53266731
1.76750,21.58461139
1.76800,22.1950002
1.76850,20.66902816
1.76900,18.2274729
1.76950,16.39630646
1.77000,16.70150086
1.77050,18.2274729
1.77100,17.92227849
1.77150,15.17552882
1.77200,11.51319593
1.77250,10.59761271
1.77300,12.73397356
1.77350,14.2599456
1.77400,12.73397356
1.77450,9.682029486
1.77500,6.935279816
1.77550,4.493724555
1.77600,0.221002847
1.77650,-3.441330045
1.77700,-4.967302084
1.77750,-3.441330045
1.77800,-2.83094123
1.77850,-6.188079715
1.77900,-11.07119024
1.77950,-14.42832872
1.78000,-15.03871754
1.78050,-14.73352313
1.78100,-15.64910635
1.78150,-17.17507839
1.78200,-17.4802728
1.78250,-16.56468958
1.78300,-14.73352313
1.78350,-12.59716228
1.78400,-9.850412607
1.78450,-6.493274122
1.78500,-4.051718861
1.78550,-2.525746822
1.78600,-1.915358007
1.78650,-0.6945803761
1.78700,1.441780478
1.78750,4.188530147
1.78800,6.019696593
1.78850,9.07164067
1.78900,14.87033442
1.78950,22.50019461
1.79000,29.21447158
1.79050,32.87680447
1.79100,32.87680447
1.79150,29.82486039
1.79200,24.02616665
1.79250,17.31188968
1.79300,12.42877916
1.79350,9.682029486
1.79400,7.850863039
1.79450,6.630085409
1.79500,7.850863039
1.79550,13.34436238
1.79600,20.05863935
1.79650,23.72097224
1.79700,22.80538902
1.79750,18.83786172
1.79800,15.17552882
1.79850,11.51319593
1.79900,6.935279816
1.79950,1.441780478
1.80000,-3.136135638
1.80050,-6.79846853
1.80100,-8.324440569
1.80150,-7.714051753
1.80200,-6.79846853
1.80250,-7.103662938
1.80300,-9.240023792
1.80350,-9.545218199
1.80400,-6.493274122
1.80450,-2.525746822
1.80500,-1.304969192
1.80550,-3.441330045
1.80600,-6.188079715
1.80650,-8.324440569
1.80700,-10.76599583
1.80750,-13.5127455
1.80800,-15.34391195
1.80850,-15.03871754
1.80900,-15.03871754
1.80950,-17.4802728
1.81000,-21.75299451
1.81050,-24.49974418
1.81100,-24.49974418
1.81150,-22.36338332
1.81200,-19.31143925
1.81250,-15.03871754
1.81300,-11.37638465
1.81350,-8.629634976
1.81400,-5.272496492
1.81450,-0.3893859684
1.81500,4.493724555
1.81550,6.019696593
1.81600,4.188530147
1.81650,2.052169293
1.81700,1.441780478
1.81750,1.746974885
1.81800,2.357363701
1.81850,3.578141332
1.81900,6.324891001
1.81950,8.766446263
1.82000,9.376835078
1.82050,9.682029486
1.82100,11.20800152
1.82150,14.2599456
1.82200,18.2274729
1.82250,22.80538902
1.82300,26.46772191
1.82350,26.77291632
1.82400,23.72097224
1.82450,20.36383376
1.82500,17.61708409
1.82550,13.95475119
1.82600,7.545668632
1.82650,2.357363701
1.82700,0.5261972547
1.82750,-0.08419156075
1.82800,-2.525746822
1.82850,-6.493274122
1.82900,-7.714051753
1.82950,-5.577690899
1.83000,-3.441330045
1.83050,-5.272496492
1.83100,-9.545218199
1.83150,-12.90235668
1.83200,-14.42832872
1.83250,-14.73352313
1.83300,-13.81793991
1.83350,-13.81793991
1.83400,-15.64910635
1.83450,-19.00624484
1.83500,-21.14260569
1.83550,-19.61663365
1.83600,-16.25949517
1.83650,-13.20755109
1.83700,-11.37638465
1.83750,-10.76599583
1.83800,-10.46080142
1.83850,-8.934829384
1.83900,-5.272496492
1.83950,-0.08419156075
1.84000,2.662558109
1.84050,2.357363701
1.84100,0.8313916624
1.84150,-0.3893859684
1.84200,-2.525746822
1.84250,-6.79846853
1.84300,-10.46080142
1.84350,-11.07119024
1.84400,-9.240023792
1.84450,-8.324440569
1.84500,-8.629634976
1.84550,-7.408857346
1.84600,-2.83094123
1.84650,2.357363701
1.84700,4.798918962
1.84750,3.578141332
1.84800,1.441780478
1.84850,0.8313916624
1.84900,0.8313916624
1.84950,-0.6945803761
1.85000,-4.662107676
1.85050,-7.714051753
1.85100,-8.019246161
1.85150,-6.188079715
1.85200,-4.356913269
1.85250,-4.051718861
1.85300,-4.051718861
1.85350,-2.83094123
1.85400,0.221002847
1.85450,4.798918962
1.85500,8.766446263
1.85550,10.90280712
1.85600,11.81839034
1.85650,11.81839034
1.85700,9.987223893
1.85750,6.324891001
1.85800,3.578141332
1.85850,4.493724555
1.85900,7.240474224
1.85950,8.461251855
1.86000,6.935279816
1.86050,4.493724555
1.86100,3.883335739
1.86150,4.798918962
1.86200,6.019696593
1.86250,6.324891001
1.86300,5.409307778
1.86350,2.967752516
1.86400,1.441780478
1.86450,2.357363701
1.86500,5.409307778
1.86550,7.850863039
1.86600,8.156057447
1.86650,8.461251855
1.86700,9.07164067
1.86750,8.766446263
1.86800,7.850863039
1.86850,9.682029486
1.86900,16.09111205
1.86950,23.72097224
1.87000,26.46772191
1.87050,22.1950002
1.87100,13.34436238
1.87150,4.798918962
1.87200,-0.3893859684
1.87250,-3.136135638
1.87300,-5.882885307
1.87350,-10.46080142
1.87400,-14.73352313
1.87450,-16.25949517
1.87500,-13.5127455
1.87550,-9.545218199
1.87600,-6.188079715
1.87650,-3.441330045
1.87700,-0.08419156075
1.87750,4.188530147
1.87800,8.156057447
1.87850,11.81839034
1.87900,15.17552882
1.87950,17.00669527
1.88000,15.78591764
1.88050,11.81839034
1.88100,8.156057447
1.88150,6.630085409
1.88200,8.766446263
1.88250,14.2599456
1.88300,20.36383376
1.88350,23.72097224
1.88400,22.80538902
1.88450,18.83786172
1.88500,12.73397356
1.88550,4.798918962
1.88600,-4.662107676
1.88650,-13.81793991
1.88700,-18.09066162
1.88750,-16.56468958
1.88800,-11.68157905
1.88850,-8.324440569
1.88900,-9.240023792
1.88950,-15.03871754
1.89000,-22.05818892
1.89050,-27.24649385
1.89100,-29.3828547
1.89150,-29.3828547
1.89200,-27.85688266
1.89250,-23.88935536
1.89300,-19.61663365
1.89350,-17.4802728
1.89400,-16.56468958
1.89450,-13.81793991
1.89500,-9.240023792
1.89550,-5.882885307
1.89600,-5.882885307
1.89650,-4.967302084
1.89700,-0.3893859684
1.89750,4.798918962
1.89800,6.019696593
1.89850,2.967752516
1.89900,0.221002847
1.89950,-0.3893859684
1.90000,-1.915358007
1.90050,-3.441330045
1.90100,-0.9997747838
1.90150,5.409307778
1.90200,10.59761271
1.90250,9.07164067
1.90300,3.272946924
1.90350,0.221002847
1.90400,2.052169293
1.90450,5.409307778
1.90500,7.240474224
1.90550,9.376835078
1.90600,13.34436238
1.90650,17.00669527
1.90700,18.83786172
1.90750,19.44825053
1.90800,20.97422257
1.90850,20.97422257
1.90900,16.70150086
1.90950,8.766446263
1.91000,-0.08419156075
1.91050,-8.324440569
1.91100,-14.73352313
1.91150,-16.56468958
1.91200,-14.12313432
1.91250,-11.68157905
1.91300,-14.12313432
1.91350,-19.61663365
1.91400,-22.05818892
1.91450,-20.53221688
1.91500,-18.70105043
1.91550,-18.39585602
1.91600,-15.64910635
1.91650,-8.629634976
1.91700,-2.220552415
1.91750,-0.08419156075
1.91800,1.13658607
1.91850,3.578141332
1.91900,4.798918962
1.91950,2.052169293
1.92000,-2.220552415
1.92050,-4.967302084
1.92100,-6.188079715
1.92150,-8.324440569
1.92200,-9.545218199
1.92250,-7.103662938
1.92300,-2.83094123
1.92350,-0.9997747838
1.92400,-2.525746822
1.92450,-3.136135638
1.92500,-1.610163599
1.92550,-0.08419156075
1.92600,-0.08419156075
1.92650,-1.610163599
1.92700,-4.051718861
1.92750,-6.188079715
1.92800,-6.493274122
1.92850,-3.746524453
1.92900,1.13658607
1.92950,5.10411337
1.93000,7.240474224
1.93050,9.987223893
1.93100,14.87033442
1.93150,19.44825053
1.93200,19.75344494
1.93250,14.56514001
1.93300,7.850863039
1.93350,3.883335739
1.93400,3.272946924
1.93450,3.272946924
1.93500,1.13658607
1.93550,-2.220552415
1.93600,-5.882885307
1.93650,-7.714051753
1.93700,-8.934829384
1.93750,-9.850412607
1.93800,-11.07119024
1.93850,-11.07119024
1.93900,-9.545218199
1.93950,-6.79846853
1.94000,-3.136135638
1.94050,1.441780478
1.94100,7.850863039
1.94150,14.56514001
1.94200,18.83786172
1.94250,19.44825053
1.94300,17.92227849
1.94350,15.78591764
1.94400,13.03916797
1.94450,8.461251855
1.94500,3.272946924
1.94550,-0.08419156075
1.94600,-0.9997747838
1.94650,-1.610163599
1.94700,-2.525746822
1.94750,-2.525746822
1.94800,-0.9997747838
1.94850,-0.08419156075
1.94900,-2.525746822
1.94950,-6.493274122
1.95000,-7.103662938
1.95050,-4.356913269
1.95100,-2.220552415
1.95150,-4.356913269
1.95200,-8.629634976
1.95250,-10.46080142
1.95300,-8.629634976
1.95350,-4.356913269
1.95400,-0.9997747838
1.95450,0.221002847
1.95500,1.13658607
1.95550,2.357363701
1.95600,3.578141332
1.95650,3.272946924
1.95700,0.8313916624
1.95750,-2.220552415
1.95800,-4.356913269
1.95850,-4.967302084
1.95900,-4.356913269
1.95950,-2.83094123
1.96000,-0.08419156075
1.96050,4.188530147
1.96100,8.766446263
1.96150,11.20800152
1.96200,10.2924183
1.96250,6.630085409
1.96300,3.883335739
1.96350,3.578141332
1.96400,5.714502186
1.96450,8.461251855
1.96500,11.20800152
1.96550,13.64955679
1.96600,15.78591764
1.96650,17.61708409
1.96700,19.44825053
1.96750,22.1950002
1.96800,21.88980579
1.96850,14.56514001
1.96900,0.8313916624
1.96950,-12.29196787
1.97000,-19.00624484
1.97050,-19.00624484
1.97100,-14.73352313
1.97150,-10.15560701
1.97200,-6.493274122
1.97250,-5.272496492
1.97300,-5.882885307
1.97350,-5.882885307
1.97400,-4.662107676
1.97450,-4.662107676
1.97500,-7.103662938
1.97550,-9.850412607
1.97600,-9.545218199
1.97650,-7.103662938
1.97700,-6.188079715
1.97750,-9.545218199
1.97800,-15.64910635
1.97850,-21.75299451
1.97900,-25.72052181
1.97950,-26.63610503
1.98000,-24.80493858
1.98050,-22.36338332
1.98100,-19.31143925
1.98150,-15.95430076
1.98200,-12.29196787
1.98250,-8.629634976
1.98300,-6.188079715
1.98350,-4.356913269
1.98400,-3.136135638
1.98450,-2.83094123
1.98500,-4.051718861
1.98550,-4.356913269
1.98600,-1.304969192
1.98650,4.798918962
1.98700,12.42877916
1.98750,17.92227849
1.98800,20.05863935
1.98850,19.14305612
1.98900,16.09111205
1.98950,13.03916797
1.99000,10.59761271
1.99050,9.07164067
1.99100,9.07164067
1.99150,10.90280712
1.99200,13.34436238
1.99250,15.48072323
1.99300,15.48072323
1.99350,13.64955679
1.99400,10.2924183
1.99450,6.324891001
1.99500,2.662558109
1.99550,0.221002847
1.99600,-2.525746822
1.99650,-5.882885307
1.99700,-8.324440569
1.99750,-8.934829384
1.99800,-8.019246161
1.99850,-7.408857346
1.99900,-8.019246161
1.99950,-9.240023792
2.00000,-11.07119024
2.00050,-14.73352313
2.00100,-20.53221688
2.00150,-25.4153274
2.00200,-26.33091062
2.00250,-23.27896655
2.00300,-19.00624484
2.00350,-16.56468958
2.00400,-15.95430076
2.00450,-15.95430076
2.00500,-16.56468958
2.00550,-18.09066162
2.00600,-19.31143925
2.00650,-17.78546721
2.00700,-12.59716228
2.00750,-6.188079715
2.00800,-1.610163599
2.00850,0.5261972547
2.00900,2.967752516
2.00950,6.019696593
2.01000,8.156057447
2.01050,9.07164067
2.01100,10.2924183
2.01150,12.42877916
2.01200,12.73397356
2.01250,9.987223893
2.01300,5.10411337
2.01350,2.052169293
2.01400,1.441780478
2.01450,0.8313916624
2.01500,-0.3893859684
2.01550,-1.304969192
2.01600,-0.3893859684
2.01650,0.8313916624
2.01700,0.5261972547
2.01750,-1.304969192
2.01800,-3.136135638
2.01850,-3.136135638
2.01900,-1.304969192
2.01950,0.5261972547
2.02000,1.441780478
2.02050,1.746974885
2.02100,2.662558109
2.02150,4.798918962
2.02200,7.850863039
2.02250,11.20800152
2.02300,15.78591764
2.02350,20.66902816
2.02400,24.94174987
2.02450,25.55213869
2.02500,20.66902816
2.02550,12.73397356
2.02600,5.10411337
2.02650,1.13658607
2.02700,0.5261972547
2.02750,1.13658607
2.02800,0.5261972547
2.02850,0.221002847
2.02900,0.8313916624
2.02950,2.662558109
2.03000,3.578141332
2.03050,3.272946924
2.03100,3.272946924
2.03150,3.883335739
2.03200,3.883335739
2.03250,2.662558109
2.03300,4.188530147
2.03350,8.766446263
2.03400,13.95475119
2.03450,16.09111205
2.03500,14.87033442
2.03550,12.42877916
2.03600,9.07164067
2.03650,4.798918962
2.03700,1.13658607
2.03750,-0.6945803761
2.03800,-2.525746822
2.03850,-4.662107676
2.03900,-5.272496492
2.03950,-2.525746822
2.04000,1.13658607
2.04050,2.357363701
2.04100,1.441780478
2.04150,0.8313916624
2.04200,0.8313916624
2.04250,-0.3893859684
2.04300,-5.577690899
2.04350,-11.68157905
2.04400,-16.56468958
2.04450,-19.31143925
2.04500,-19.92182806
2.04550,-18.39585602
2.04600,-15.64910635
2.04650,-12.29196787
2.04700,-8.934829384
2.04750,-5.882885307
2.04800,-3.441330045
2.04850,-0.3893859684
2.04900,4.188530147
2.04950,9.376835078
2.05000,11.51319593
2.05050,10.2924183
2.05100,9.07164067
2.05150,10.59761271
2.05200,13.64955679
2.05250,17.61708409
2.05300,23.11058342
2.05350,29.82486039
2.05400,32.57161006
2.05450,28.60408276
2.05500,20.66902816
2.05550,15.17552882
2.05600,11.20800152
2.05650,5.714502186
2.05700,-1.610163599
2.05750,-6.79846853
2.05800,-8.019246161
2.05850,-8.629634976
2.05900,-10.15560701
2.05950,-10.76599583
2.06000,-8.629634976
2.06050,-4.967302084
2.06100,-1.915358007
2.06150,0.221002847
2.06200,2.662558109
2.06250,3.578141332
2.06300,2.357363701
2.06350,1.13658607
2.06400,2.052169293
2.06450,3.883335739
2.06500,2.967752516
2.06550,-0.9997747838
2.06600,-6.188079715
2.06650,-9.240023792
2.06700,-8.019246161
2.06750,-4.662107676
2.06800,-2.220552415
2.06850,-3.441330045
2.06900,-9.240023792
2.06950,-15.95430076
2.07000,-21.14260569
2.07050,-24.19454977
2.07100,-24.80493858
2.07150,-22.05818892
2.07200,-15.34391195
2.07250,-7.408857346
2.07300,-1.304969192
2.07350,2.662558109
2.07400,6.630085409
2.07450,10.90280712
2.07500,14.56514001
2.07550,15.48072323
2.07600,14.2599456
2.07650,12.12358475
2.07700,9.376835078
2.07750,5.409307778
2.07800,0.8313916624
2.07850,-3.441330045
2.07900,-6.493274122
2.07950,-6.79846853
2.08000,-4.356913269
2.08050,-1.610163599
2.08100,-0.3893859684
2.08150,-0.08419156075
2.08200,0.5261972547
2.08250,1.13658607
2.08300,0.5261972547
2.08350,0.5261972547
2.08400,3.272946924
2.08450,8.156057447
2.08500,11.81839034
2.08550,12.42877916
2.08600,12.42877916
2.08650,13.64955679
2.08700,16.09111205
2.08750,18.2274729
2.08800,19.75344494
2.08850,20.66902816
2.08900,18.83786172
2.08950,13.95475119
2.09000,7.850863039
2.09050,3.883335739
2.09100,2.662558109
2.09150,1.13658607
2.09200,-0.6945803761
2.09250,-3.136135638
2.09300,-4.356913269
2.09350,-5.272496492
2.09400,-6.188079715
2.09450,-7.408857346
2.09500,-7.408857346
2.09550,-5.577690899
2.09600,-3.136135638
2.09650,-1.304969192
2.09700,-0.9997747838
2.09750,-0.6945803761
2.09800,0.221002847
2.09850,2.052169293
2.09900,3.883335739
2.09950,6.935279816
2.10000,11.81839034
2.10050,16.70150086
2.10100,17.61708409
2.10150,14.87033442
2.10200,11.81839034
2.10250,10.2924183
2.10300,7.240474224
2.10350,-0.08419156075
2.10400,-10.15560701
2.10450,-19.31143925
2.10500,-26.94129944
2.10550,-34.57115963
2.10600,-41.59063101
2.10650,-44.94776949
2.10700,-42.81140864
2.10750,-36.09713167
2.10800,-26.02571622
2.10850,-14.12313432
2.10900,-3.441330045
2.10950,2.967752516
2.11000,3.578141332
2.11050,0.5261972547
2.11100,-2.220552415
2.11150,-1.304969192
2.11200,2.357363701
2.11250,6.324891001
2.11300,5.409307778
2.11350,-0.08419156075
2.11400,-5.272496492
2.11450,-6.493274122
2.11500,-3.136135638
2.11550,2.052169293
2.11600,6.935279816
2.11650,9.07164067
2.11700,7.545668632
2.11750,2.967752516
2.11800,-1.915358007
2.11850,-4.967302084
2.11900,-4.662107676
2.11950,-2.83094123
2.12000,-1.915358007
2.12050,-3.746524453
2.12100,-7.103662938
2.12150,-9.545218199
2.12200,-9.545218199
2.12250,-9.850412607
2.12300,-12.29196787
2.12350,-14.73352313
2.12400,-12.29196787
2.12450,-5.272496492
2.12500,-0.08419156075
2.12550,-0.08419156075
2.12600,-2.83094123
2.12650,-4.356913269
2.12700,-3.136135638
2.12750,-0.3893859684
2.12800,2.967752516
2.12850,6.630085409
2.12900,6.630085409
2.12950,3.578141332
2.13000,1.746974885
2.13050,3.578141332
2.13100,7.240474224
2.13150,8.461251855
2.13200,7.545668632
2.13250,6.935279816
2.13300,6.019696593
2.13350,3.272946924
2.13400,0.8313916624
2.13450,2.662558109
2.13500,6.630085409
2.13550,7.545668632
2.13600,3.272946924
2.13650,-1.915358007
2.13700,-6.493274122
2.13750,-10.46080142
2.13800,-15.34391195
2.13850,-19.31143925
2.13900,-21.14260569
2.13950,-20.22702247
2.14000,-17.17507839
2.14050,-12.59716228
2.14100,-8.324440569
2.14150,-6.79846853
2.14200,-7.714051753
2.14250,-8.324440569
2.14300,-6.188079715
2.14350,-1.610163599
2.14400,2.052169293
2.14450,4.798918962
2.14500,5.714502186
2.14550,6.019696593
2.14600,6.324891001
2.14650,6.935279816
2.14700,7.240474224
2.14750,6.935279816
2.14800,4.798918962
2.14850,2.052169293
2.14900,-1.304969192
2.14950,-5.272496492
2.15000,-8.019246161
2.15050,-8.629634976
2.15100,-6.188079715
2.15150,-2.83094123
2.15200,-0.3893859684
2.15250,0.5261972547
2.15300,0.5261972547
2.15350,-1.915358007
2.15400,-7.103662938
2.15450,-12.59716228
2.15500,-14.12313432
2.15550,-11.07119024
2.15600,-6.493274122
2.15650,-3.441330045
2.15700,-1.610163599
2.15750,1.746974885
2.15800,6.324891001
2.15850,9.07164067
2.15900,9.07164067
2.15950,7.545668632
2.16000,6.019696593
2.16050,4.188530147
2.16100,1.441780478
2.16150,-0.08419156075
2.16200,1.441780478
2.16250,5.714502186
2.16300,10.59761271
2.16350,14.56514001
2.16400,17.61708409
2.16450,17.92227849
2.16500,15.48072323
2.16550,12.12358475
2.16600,9.682029486
2.16650,9.07164067
2.16700,8.461251855
2.16750,7.240474224
2.16800,6.019696593
2.16850,5.10411337
2.16900,5.10411337
2.16950,5.409307778
2.17000,5.409307778
2.17050,4.188530147
2.17100,2.662558109
2.17150,3.578141332
2.17200,7.545668632
2.17250,11.81839034
2.17300,13.03916797
2.17350,12.42877916
2.17400,12.42877916
2.17450,13.95475119
2.17500,14.87033442
2.17550,13.34436238
2.17600,9.682029486
2.17650,6.324891001
2.17700,3.578141332
2.17750,-0.08419156075
2.17800,-7.103662938
2.17850,-15.95430076
2.17900,-22.05818892
2.17950,-21.14260569
2.18000,-16.25949517
2.18050,-11.98677346
2.18100,-10.46080142
2.18150,-9.545218199
2.18200,-8.629634976
2.18250,-8.629634976
2.18300,-8.934829384
2.18350,-5.882885307
2.18400,0.221002847
2.18450,5.10411337
2.18500,4.493724555
2.18550,0.221002847
2.18600,-3.746524453
2.18650,-5.577690899
2.18700,-5.882885307
2.18750,-4.967302084
2.18800,-2.220552415
2.18850,0.221002847
2.18900,1.13658607
2.18950,-0.3893859684
2.19000,-3.136135638
2.19050,-4.662107676
2.19100,-5.272496492
2.19150,-6.79846853
2.19200,-9.240023792
2.19250,-12.29196787
2.19300,-13.81793991
2.19350,-12.59716228
2.19400,-9.545218199
2.19450,-5.882885307
2.19500,-0.9997747838
2.19550,3.578141332
2.19600,6.630085409
2.19650,6.324891001
2.19700,5.409307778
2.19750,7.240474224
2.19800,10.59761271
2.19850,11.51319593
2.19900,9.07164067
2.19950,5.409307778
2.20000,2.357363701
2.20050,-0.6945803761
2.20100,-5.577690899
2.20150,-8.324440569
2.20200,-6.188079715
2.20250,-0.6945803761
2.20300,2.967752516
2.20350,2.967752516
2.20400,0.221002847
2.20450,-1.304969192
2.20500,-1.915358007
2.20550,-2.83094123
2.20600,-4.967302084
2.20650,-6.188079715
2.20700,-4.356913269
2.20750,-0.6945803761
2.20800,3.883335739
2.20850,8.461251855
2.20900,13.03916797
2.20950,16.09111205
2.21000,16.39630646
2.21050,14.2599456
2.21100,12.73397356
2.21150,13.34436238
2.21200,15.17552882
2.21250,16.39630646
2.21300,16.70150086
2.21350,15.48072323
2.21400,13.03916797
2.21450,8.766446263
2.21500,2.662558109
2.21550,-3.746524453
2.21600,-8.629634976
2.21650,-10.15560701
2.21700,-9.545218199
2.21750,-8.324440569
2.21800,-8.629634976
2.21850,-9.240023792
2.21900,-8.324440569
2.21950,-6.493274122
2.22000,-4.662107676
2.22050,-3.136135638
2.22100,-0.6945803761
2.22150,3.272946924
2.22200,8.461251855
2.22250,12.12358475
2.22300,13.95475119
2.22350,14.87033442
2.22400,14.56514001
2.22450,12.42877916
2.22500,9.07164067
2.22550,8.461251855
2.22600,12.73397356
2.22650,20.05863935
2.22700,24.63655546
2.22750,23.41577783
2.22800,18.2274729
2.22850,11.81839034
2.22900,4.798918962
2.22950,-2.525746822
2.23000,-9.240023792
2.23050,-13.5127455
2.23100,-15.95430076
2.23150,-17.78546721
2.23200,-20.22702247
2.23250,-22.36338332
2.23300,-24.19454977
2.23350,-25.11013299
2.23400,-25.4153274
2.23450,-24.49974418
2.23500,-22.66857773
2.23550,-19.92182806
2.23600,-16.56468958
2.23650,-14.12313432
2.23700,-12.29196787
2.23750,-10.46080142
2.23800,-8.324440569
2.23850,-8.019246161
2.23900,-10.15560701
2.23950,-12.29196787
2.24000,-11.37638465
2.24050,-7.408857346
2.24100,-3.441330045
2.24150,-0.9997747838
2.24200,1.441780478
2.24250,4.493724555
2.24300,6.630085409
2.24350,6.324891001
2.24400,6.324891001
2.24450,8.766446263
2.24500,13.03916797
2.24550,17.31188968
2.24600,21.58461139
2.24650,25.85733309
2.24700,27.38330513
2.24750,23.72097224
2.24800,17.31188968
2.24850,13.34436238
2.24900,13.03916797
2.24950,12.73397356
2.25000,10.90280712
2.25050,9.987223893
2.25100,11.51319593
2.25150,12.73397356
2.25200,9.987223893
2.25250,4.188530147
2.25300,-0.3893859684
2.25350,-1.610163599
2.25400,-0.3893859684
2.25450,1.13658607
2.25500,1.746974885
2.25550,0.221002847
2.25600,-1.610163599
2.25650,-2.83094123
2.25700,-2.220552415
2.25750,-0.9997747838
2.25800,-1.915358007
2.25850,-5.272496492
2.25900,-9.240023792
2.25950,-11.98677346
2.26000,-13.5127455
2.26050,-12.90235668
2.26100,-10.76599583
2.26150,-7.714051753
2.26200,-5.577690899
2.26250,-4.662107676
2.26300,-3.746524453
2.26350,-3.746524453
2.26400,-4.662107676
2.26450,-5.577690899
2.26500,-4.662107676
2.26550,-1.610163599
2.26600,1.441780478
2.26650,3.272946924
2.26700,4.188530147
2.26750,5.714502186
2.26800,7.850863039
2.26850,9.987223893
2.26900,11.81839034
2.26950,12.73397356
2.27000,13.34436238
2.27050,13.64955679
2.27100,13.03916797
2.27150,11.20800152
2.27200,8.766446263
2.27250,5.409307778
2.27300,2.662558109
2.27350,2.052169293
2.27400,3.578141332
2.27450,5.409307778
2.27500,5.10411337
2.27550,2.662558109
2.27600,1.441780478
2.27650,3.883335739
2.27700,6.935279816
2.27750,7.240474224
2.27800,2.662558109
2.27850,-4.662107676
2.27900,-14.42832872
2.27950,-24.80493858
2.28000,-31.51921555
2.28050,-31.82440996
2.28100,-27.55168825
2.28150,-25.11013299
2.28200,-25.4153274
2.28250,-24.49974418
2.28300,-19.00624484
2.28350,-11.07119024
2.28400,-4.967302084
2.28450,-0.6945803761
2.28500,2.967752516
2.28550,7.240474224
2.28600,12.12358475
2.28650,17.31188968
2.28700,21.58461139
2.28750,21.88980579
2.28800,17.92227849
2.28850,12.73397356
2.28900,7.545668632
2.28950,0.5261972547
2.29000,-7.714051753
2.29050,-13.81793991
2.29100,-14.42832872
2.29150,-13.20755109
2.29200,-14.42832872
2.29250,-17.4802728
2.29300,-17.4802728
2.29350,-14.73352313
2.29400,-12.59716228
2.29450,-13.20755109
2.29500,-13.20755109
2.29550,-10.15560701
2.29600,-6.188079715
2.29650,-4.662107676
2.29700,-4.051718861
2.29750,-2.525746822
2.29800,0.221002847
2.29850,3.272946924
2.29900,6.935279816
2.29950,11.20800152
2.30000,15.78591764
2.30050,19.44825053
2.30100,22.80538902
2.30150,24.94174987
2.30200,24.02616665
2.30250,19.14305612
2.30300,13.34436238
2.30350,10.90280712
2.30400,11.20800152
2.30450,11.20800152
2.30500,9.682029486
2.30550,9.07164067
2.30600,9.987223893
2.30650,10.2924183
2.30700,8.766446263
2.30750,7.240474224
2.30800,6.935279816
2.30850,7.545668632
2.30900,8.156057447
2.30950,8.461251855
2.31000,8.461251855
2.31050,7.240474224
2.31100,6.019696593
2.31150,5.10411337
2.31200,3.578141332
2.31250,-0.9997747838
2.31300,-8.019246161
2.31350,-12.29196787
2.31400,-13.81793991
2.31450,-15.95430076
2.31500,-21.14260569
2.31550,-25.72052181
2.31600,-26.02571622
2.31650,-23.27896655
2.31700,-21.4478001
2.31750,-21.4478001
2.31800,-21.14260569
2.31850,-19.61663365
2.31900,-17.17507839
2.31950,-13.81793991
2.32000,-10.46080142
2.32050,-8.629634976
2.32100,-8.019246161
2.32150,-7.103662938
2.32200,-4.662107676
2.32250,-2.220552415
2.32300,-0.9997747838
2.32350,-0.6945803761
2.32400,-0.6945803761
2.32450,-1.610163599
2.32500,-4.967302084
2.32550,-9.545218199
2.32600,-13.20755109
2.32650,-14.42832872
2.32700,-12.90235668
2.32750,-9.850412607
2.32800,-5.577690899
2.32850,-1.304969192
2.32900,2.357363701
2.32950,5.409307778
2.33000,7.545668632
2.33050,8.766446263
2.33100,8.156057447
2.33150,6.935279816
2.33200,7.545668632
2.33250,9.987223893
2.33300,12.42877916
2.33350,12.73397356
2.33400,10.90280712
2.33450,9.376835078
2.33500,8.461251855
2.33550,7.240474224
2.33600,6.324891001
2.33650,7.850863039
2.33700,11.20800152
2.33750,14.2599456
2.33800,15.78591764
2.33850,17.31188968
2.33900,18.53266731
2.33950,18.53266731
2.34000,17.31188968
2.34050,17.61708409
2.34100,20.05863935
2.34150,21.88980579
2.34200,20.05863935
2.34250,15.17552882
2.34300,9.682029486
2.34350,4.188530147
2.34400,-2.220552415
2.34450,-9.240023792
2.34500,-13.81793991
2.34550,-14.42832872
2.34600,-10.46080142
2.34650,-4.967302084
2.34700,-0.6945803761
2.34750,0.8313916624
2.34800,2.967752516
2.34850,6.630085409
2.34900,7.850863039
2.34950,2.357363701
2.35000,-8.019246161
2.35050,-15.95430076
2.35100,-18.70105043
2.35150,-19.31143925
2.35200,-20.83741128
2.35250,-20.53221688
2.35300,-16.56468958
2.35350,-12.29196787
2.35400,-9.850412607
2.35450,-7.714051753
2.35500,-4.356913269
2.35550,-1.915358007
2.35600,-2.83094123
2.35650,-5.272496492
2.35700,-4.356913269
2.35750,0.221002847
2.35800,6.324891001
2.35850,10.59761271
2.35900,13.03916797
2.35950,13.34436238
2.36000,10.90280712
2.36050,5.409307778
2.36100,-1.304969192
2.36150,-7.408857346
2.36200,-10.76599583
2.36250,-10.46080142
2.36300,-9.240023792
2.36350,-9.240023792
2.36400,-11.07119024
2.36450,-13.20755109
2.36500,-13.20755109
2.36550,-10.15560701
2.36600,-5.272496492
2.36650,-1.915358007
2.36700,-2.83094123
2.36750,-7.408857346
2.36800,-12.29196787
2.36850,-15.03871754
2.36900,-16.56468958
2.36950,-17.17507839
2.37000,-15.64910635
2.37050,-12.59716228
2.37100,-11.37638465
2.37150,-13.5127455
2.37200,-15.34391195
2.37250,-12.59716228
2.37300,-5.882885307
2.37350,1.13658607
2.37400,6.019696593
2.37450,9.07164067
2.37500,8.766446263
2.37550,5.714502186
2.37600,2.967752516
2.37650,1.441780478
2.37700,-0.08419156075
2.37750,-4.051718861
2.37800,-8.934829384
2.37850,-11.37638465
2.37900,-11.98677346
2.37950,-11.98677346
2.38000,-9.850412607
2.38050,-3.746524453
2.38100,3.883335739
2.38150,8.766446263
2.38200,9.376835078
2.38250,9.376835078
2.38300,9.987223893
2.38350,9.376835078
2.38400,6.324891001
2.38450,4.188530147
2.38500,6.324891001
2.38550,12.12358475
2.38600,17.92227849
2.38650,19.75344494
2.38700,17.00669527
2.38750,12.12358475
2.38800,6.019696593
2.38850,0.221002847
2.38900,-3.441330045
2.38950,-3.136135638
2.39000,2.052169293
2.39050,8.461251855
2.39100,10.2924183
2.39150,7.240474224
2.39200,4.798918962
2.39250,5.714502186
2.39300,7.545668632
2.39350,7.240474224
2.39400,5.714502186
2.39450,5.10411337
2.39500,4.188530147
2.39550,0.8313916624
2.39600,-3.746524453
2.39650,-7.103662938
2.39700,-8.934829384
2.39750,-10.76599583
2.39800,-12.59716228
2.39850,-9.545218199
2.39900,-1.304969192
2.39950,6.324891001
2.40000,8.461251855
2.40050,5.714502186
2.40100,3.578141332
2.40150,2.662558109
2.40200,-0.3893859684
2.40250,-7.103662938
2.40300,-13.20755109
2.40350,-14.73352313
2.40400,-13.81793991
2.40450,-14.42832872
2.40500,-17.4802728
2.40550,-19.31143925
2.40600,-17.78546721
2.40650,-15.64910635
2.40700,-15.03871754
2.40750,-15.34391195
2.40800,-12.59716228
2.40850,-5.882885307
2.40900,0.8313916624
2.40950,3.883335739
2.41000,2.967752516
2.41050,1.441780478
2.41100,1.441780478
2.41150,1.441780478
2.41200,1.13658607
2.41250,2.052169293
2.41300,5.409307778
2.41350,8.766446263
2.41400,9.376835078
2.41450,9.07164067
2.41500,11.51319593
2.41550,15.17552882
2.41600,15.48072323
2.41650,11.81839034
2.41700,7.545668632
2.41750,4.188530147
2.41800,0.221002847
2.41850,-3.441330045
2.41900,-3.746524453
2.41950,-0.08419156075
2.42000,4.493724555
2.42050,7.850863039
2.42100,11.51319593
2.42150,15.48072323
2.42200,17.92227849
2.42250,18.2274729
2.42300,18.53266731
2.42350,18.2274729
2.42400,15.48072323
2.42450,10.2924183
2.42500,6.324891001
2.42550,5.409307778
2.42600,6.630085409
2.42650,7.850863039
2.42700,10.59761271
2.42750,14.56514001
2.42800,15.78591764
2.42850,11.20800152
2.42900,2.967752516
2.42950,-3.136135638
2.43000,-6.79846853
2.43050,-8.629634976
2.43100,-9.240023792
2.43150,-5.577690899
2.43200,2.662558109
2.43250,12.73397356
2.43300,20.36383376
2.43350,22.50019461
2.43400,19.75344494
2.43450,13.64955679
2.43500,7.240474224
2.43550,2.967752516
2.43600,1.441780478
2.43650,1.13658607
2.43700,0.221002847
2.43750,-0.3893859684
2.43800,0.221002847
2.43850,2.052169293
2.43900,1.746974885
2.43950,-0.9997747838
2.44000,-3.746524453
2.44050,-3.136135638
2.44100,-0.9997747838
2.44150,-0.6945803761
2.44200,-2.525746822
2.44250,-3.136135638
2.44300,-1.304969192
2.44350,-0.3893859684
2.44400,-4.051718861
2.44450,-10.46080142
2.44500,-16.56468958
2.44550,-19.31143925
2.44600,-18.70105043
2.44650,-14.73352313
2.44700,-8.324440569
2.44750,-2.525746822
2.44800,0.8313916624
2.44850,1.441780478
2.44900,1.13658607
2.44950,0.8313916624
2.45000,0.5261972547
2.45050,-0.6945803761
2.45100,-3.136135638
2.45150,-5.272496492
2.45200,-6.493274122
2.45250,-8.019246161
2.45300,-10.76599583
2.45350,-12.29196787
2.45400,-10.15560701
2.45450,-5.577690899
2.45500,-3.746524453
2.45550,-6.79846853
2.45600,-11.07119024
2.45650,-11.07119024
2.45700,-6.493274122
2.45750,-1.915358007
2.45800,-0.08419156075
2.45850,0.5261972547
2.45900,1.746974885
2.45950,1.441780478
2.46000,-1.915358007
2.46050,-6.493274122
2.46100,-8.629634976
2.46150,-10.15560701
2.46200,-14.12313432
2.46250,-18.39585602
2.46300,-17.17507839
2.46350,-8.629634976
2.46400,1.746974885
2.46450,7.545668632
2.46500,7.240474224
2.46550,4.188530147
2.46600,2.357363701
2.46650,3.578141332
2.46700,7.545668632
2.46750,11.20800152
2.46800,11.81839034
2.46850,9.376835078
2.46900,6.324891001
2.46950,4.188530147
2.47000,2.967752516
2.47050,2.662558109
2.47100,3.272946924
2.47150,3.272946924
2.47200,-0.08419156075
2.47250,-5.577690899
2.47300,-9.850412607
2.47350,-9.850412607
2.47400,-9.240023792
2.47450,-13.20755109
2.47500,-18.09066162
2.47550,-18.39585602
2.47600,-11.98677346
2.47650,-4.356913269
2.47700,-0.08419156075
2.47750,1.746974885
2.47800,2.967752516
2.47850,2.052169293
2.47900,-2.220552415
2.47950,-7.103662938
2.48000,-7.408857346
2.48050,-3.441330045
2.48100,-0.08419156075
2.48150,0.221002847
2.48200,-1.304969192
2.48250,-2.220552415
2.48300,-1.304969192
2.48350,0.5261972547
2.48400,2.662558109
2.48450,4.798918962
2.48500,6.630085409
2.48550,8.766446263
2.48600,11.20800152
2.48650,13.64955679
2.48700,13.95475119
2.48750,10.90280712
2.48800,6.324891001
2.48850,2.967752516
2.48900,1.746974885
2.48950,1.441780478
2.49000,1.746974885
2.49050,3.578141332
2.49100,6.630085409
2.49150,9.07164067
2.49200,8.156057447
2.49250,4.493724555
2.49300,2.662558109
2.49350,4.798918962
2.49400,8.766446263
2.49450,9.682029486
2.49500,6.324891001
2.49550,0.8313916624
2.49600,-4.051718861
2.49650,-9.240023792
2.49700,-14.73352313
2.49750,-20.22702247
2.49800,-23.88935536
2.49850,-23.58416095
2.49900,-20.22702247
2.49950,-15.03871754
2.50000,-9.240023792
2.50050,-4.662107676
2.50100,-1.304969192
2.50150,1.13658607
2.50200,3.883335739
2.50250,5.714502186
2.50300,5.714502186
2.50350,3.272946924
2.50400,0.5261972547
2.50450,-0.6945803761
2.50500,-0.9997747838
2.50550,-0.9997747838
2.50600,-0.9997747838
2.50650,-0.6945803761
2.50700,-0.08419156075
2.50750,-0.08419156075
2.50800,-0.6945803761
2.50850,-0.08419156075
2.50900,2.662558109
2.50950,5.714502186
2.51000,6.630085409
2.51050,4.493724555
2.51100,2.357363701
2.51150,2.052169293
2.51200,3.272946924
2.51250,4.493724555
2.51300,4.188530147
2.51350,3.272946924
2.51400,2.662558109
2.51450,2.662558109
2.51500,2.357363701
2.51550,-0.08419156075
2.51600,-5.272496492
2.51650,-10.76599583
2.51700,-12.59716228
2.51750,-10.46080142
2.51800,-6.493274122
2.51850,-2.220552415
2.51900,2.052169293
2.51950,6.324891001
2.52000,8.766446263
2.52050,7.850863039
2.52100,6.019696593
2.52150,5.409307778
2.52200,6.324891001
2.52250,8.156057447
2.52300,9.682029486
2.52350,10.90280712
2.52400,9.682029486
2.52450,5.714502186
2.52500,2.662558109
2.52550,4.798918962
2.52600,10.59761271
2.52650,16.70150086
2.52700,21.27941698
2.52750,25.85733309
2.52800,30.43524921
2.52850,31.65602684
2.52900,28.29888836
2.52950,21.58461139
2.53000,14.2599456
2.53050,7.850863039
2.53100,2.662558109
2.53150,-0.3893859684
2.53200,-2.525746822
2.53250,-4.356913269
2.53300,-4.662107676
2.53350,-0.6945803761
2.53400,6.935279816
2.53450,14.87033442
2.53500,17.31188968
2.53550,13.64955679
2.53600,8.156057447
2.53650,4.798918962
2.53700,2.967752516
2.53750,0.221002847
2.53800,-4.356913269
2.53850,-9.850412607
2.53900,-14.42832872
2.53950,-17.17507839
2.54000,-17.78546721
2.54050,-17.4802728
2.54100,-17.17507839
2.54150,-15.95430076
2.54200,-11.98677346
2.54250,-7.103662938
2.54300,-5.577690899
2.54350,-10.46080142
2.54400,-18.09066162
2.54450,-22.97377214
2.54500,-22.66857773
2.54550,-20.53221688
2.54600,-18.09066162
2.54650,-15.03871754
2.54700,-8.934829384
2.54750,-2.220552415
2.54800,0.8313916624
2.54850,-0.08419156075
2.54900,-2.525746822
2.54950,-4.662107676
2.55000,-5.272496492
2.55050,-4.662107676
2.55100,-3.136135638
2.55150,-0.9997747838
2.55200,-0.3893859684
2.55250,-0.9997747838
2.55300,-1.610163599
2.55350,-0.3893859684
2.55400,0.5261972547
2.55450,-0.3893859684
2.55500,-4.051718861
2.55550,-6.79846853
2.55600,-6.79846853
2.55650,-6.188079715
2.55700,-7.103662938
2.55750,-8.019246161
2.55800,-6.493274122
2.55850,-2.83094123
2.55900,-0.3893859684
2.55950,-0.3893859684
2.56000,0.221002847
2.56050,5.10411337
2.56100,10.2924183
2.56150,9.07164067
2.56200,-0.6945803761
2.56250,-12.29196787
2.56300,-18.39585602
2.56350,-17.17507839
2.56400,-13.5127455
2.56450,-11.07119024
2.56500,-10.15560701
2.56550,-8.019246161
2.56600,-5.272496492
2.56650,-3.136135638
2.56700,-1.915358007
2.56750,0.221002847
2.56800,5.714502186
2.56850,11.81839034
2.56900,15.48072323
2.56950,15.17552882
2.57000,13.34436238
2.57050,12.42877916
2.57100,11.81839034
2.57150,9.987223893
2.57200,6.630085409
2.57250,1.746974885
2.57300,-2.83094123
2.57350,-5.882885307
2.57400,-6.493274122
2.57450,-6.493274122
2.57500,-7.408857346
2.57550,-7.714051753
2.57600,-4.967302084
2.57650,-1.610163599
2.57700,-1.915358007
2.57750,-6.188079715
2.57800,-8.934829384
2.57850,-8.629634976
2.57900,-10.46080142
2.57950,-15.95430076
2.58000,-20.22702247
2.58050,-19.00624484
2.58100,-14.42832872
2.58150,-11.07119024
2.58200,-6.79846853
2.58250,1.441780478
2.58300,10.2924183
2.58350,13.34436238
2.58400,11.20800152
2.58450,10.59761271
2.58500,12.73397356
2.58550,13.03916797
2.58600,9.682029486
2.58650,6.630085409
2.58700,6.935279816
2.58750,7.850863039
2.58800,6.935279816
2.58850,6.324891001
2.58900,9.376835078
2.58950,13.64955679
2.59000,14.56514001
2.59050,11.20800152
2.59100,6.324891001
2.59150,3.578141332
2.59200,2.662558109
2.59250,2.052169293
2.59300,-0.08419156075
2.59350,-4.051718861
2.59400,-7.408857346
2.59450,-8.019246161
2.59500,-5.272496492
2.59550,-1.915358007
2.59600,0.8313916624
2.59650,5.714502186
2.59700,13.95475119
2.59750,23.72097224
2.59800,29.82486039
2.59850,28.29888836
2.59900,20.66902816
2.59950,12.42877916
2.60000,7.545668632
2.60050,6.019696593
2.60100,6.324891001
2.60150,6.935279816
2.60200,6.935279816
2.60250,5.409307778
2.60300,3.578141332
2.60350,2.357363701
2.60400,1.746974885
2.60450,0.221002847
2.60500,-1.610163599
2.60550,-2.83094123
2.60600,-3.746524453
2.60650,-5.882885307
2.60700,-8.934829384
2.60750,-11.37638465
2.60800,-11.37638465
2.60850,-8.019246161
2.60900,-1.915358007
2.60950,4.798918962
2.61000,9.987223893
2.61050,12.42877916
2.61100,14.87033442
2.61150,20.97422257
2.61200,28.60408276
2.61250,31.96122125
2.61300,30.43524921
2.61350,27.99369395
2.61400,26.77291632
2.61450,22.80538902
2.61500,14.56514001
2.61550,7.240474224
2.61600,4.493724555
2.61650,3.578141332
2.61700,-0.08419156075
2.61750,-5.882885307
2.61800,-10.15560701
2.61850,-13.5127455
2.61900,-20.22702247
2.61950,-29.07766029
2.62000,-34.87635404
2.62050,-33.65557641
2.62100,-26.94129944
2.62150,-19.31143925
2.62200,-13.5127455
2.62250,-8.629634976
2.62300,-2.83094123
2.62350,3.883335739
2.62400,9.07164067
2.62450,9.07164067
2.62500,5.10411337
2.62550,2.357363701
2.62600,3.272946924
2.62650,4.798918962
2.62700,3.578141332
2.62750,1.441780478
2.62800,1.441780478
2.62850,2.662558109
2.62900,1.13658607
2.62950,-2.220552415
2.63000,-5.272496492
2.63050,-6.79846853
2.63100,-8.324440569
2.63150,-9.240023792
2.63200,-8.019246161
2.63250,-5.272496492
2.63300,-4.051718861
2.63350,-4.662107676
2.63400,-5.272496492
2.63450,-4.967302084
2.63500,-5.577690899
2.63550,-6.188079715
2.63600,-3.441330045
2.63650,2.662558109
2.63700,7.545668632
2.63750,7.850863039
2.63800,6.630085409
2.63850,7.240474224
2.63900,8.156057447
2.63950,4.493724555
2.64000,-3.136135638
2.64050,-9.545218199
2.64100,-11.07119024
2.64150,-10.46080142
2.64200,-12.59716228
2.64250,-18.09066162
2.64300,-24.49974418
2.64350,-29.68804911
2.64400,-31.82440996
2.64450,-29.68804911
2.64500,-22.97377214
2.64550,-15.64910635
2.64600,-11.07119024
2.64650,-9.850412607
2.64700,-9.240023792
2.64750,-7.714051753
2.64800,-5.882885307
2.64850,-6.188079715
2.64900,-8.629634976
2.64950,-10.15560701
2.65000,-8.019246161
2.65050,-2.525746822
2.65100,1.13658607
2.65150,0.8313916624
2.65200,-2.525746822
2.65250,-4.967302084
2.65300,-4.967302084
2.65350,-4.051718861
2.65400,-4.051718861
2.65450,-4.356913269
2.65500,-4.356913269
2.65550,-5.272496492
2.65600,-6.188079715
2.65650,-5.272496492
2.65700,-3.136135638
2.65750,-2.220552415
2.65800,-2.83094123
2.65850,-2.525746822
2.65900,-1.304969192
2.65950,-0.9997747838
2.66000,-2.220552415
2.66050,-1.915358007
2.66100,1.746974885
2.66150,6.324891001
2.66200,8.461251855
2.66250,7.850863039
2.66300,7.240474224
2.66350,9.07164067
2.66400,13.34436238
2.66450,19.44825053
2.66500,23.72097224
2.66550,24.33136106
2.66600,22.1950002
2.66650,20.05863935
2.66700,16.70150086
2.66750,9.376835078
2.66800,-0.08419156075
2.66850,-6.79846853
2.66900,-8.629634976
2.66950,-7.408857346
2.67000,-6.493274122
2.67050,-5.577690899
2.67100,-4.967302084
2.67150,-5.577690899
2.67200,-7.714051753
2.67250,-9.850412607
2.67300,-11.07119024
2.67350,-12.59716228
2.67400,-13.81793991
2.67450,-12.59716228
2.67500,-6.79846853
2.67550,1.13658607
2.67600,7.850863039
2.67650,10.59761271
2.67700,8.766446263
2.67750,4.493724555
2.67800,1.13658607
2.67850,0.8313916624
2.67900,2.967752516
2.67950,3.272946924
2.68000,0.8313916624
2.68050,-1.915358007
2.68100,-2.83094123
2.68150,-1.915358007
2.68200,-1.610163599
2.68250,-2.83094123
2.68300,-4.356913269
2.68350,-5.272496492
2.68400,-5.577690899
2.68450,-6.493274122
2.68500,-6.79846853
2.68550,-5.272496492
2.68600,-1.915358007
2.68650,0.8313916624
2.68700,1.441780478
2.68750,1.441780478
2.68800,3.578141332
2.68850,8.156057447
2.68900,11.20800152
2.68950,9.987223893
2.69000,6.935279816
2.69050,6.630085409
2.69100,9.682029486
2.69150,13.03916797
2.69200,14.2599456
2.69250,14.56514001
2.69300,15.17552882
2.69350,15.17552882
2.69400,11.81839034
2.69450,4.798918962
2.69500,-1.915358007
2.69550,-4.967302084
2.69600,-5.272496492
2.69650,-6.493274122
2.69700,-8.629634976
2.69750,-10.46080142
2.69800,-10.15560701
2.69850,-8.324440569
2.69900,-5.577690899
2.69950,-1.915358007
2.70000,1.13658607
2.70050,1.441780478
2.70100,0.8313916624
2.70150,2.357363701
2.70200,6.019696593
2.70250,8.156057447
2.70300,7.545668632
2.70350,6.630085409
2.70400,6.935279816
2.70450,7.850863039
2.70500,7.850863039
2.70550,7.850863039
2.70600,10.2924183
2.70650,14.2599456
2.70700,18.2274729
2.70750,20.66902816
2.70800,21.58461139
2.70850,21.27941698
2.70900,19.44825053
2.70950,15.78591764
2.71000,12.12358475
2.71050,8.766446263
2.71100,5.714502186
2.71150,2.357363701
2.71200,-1.915358007
2.71250,-7.103662938
2.71300,-9.850412607
2.71350,-7.408857346
2.71400,-0.9997747838
2.71450,3.272946924
2.71500,2.662558109
2.71550,0.221002847
2.71600,0.8313916624
2.71650,5.10411337
2.71700,9.987223893
2.71750,13.95475119
2.71800,16.09111205
2.71850,17.31188968
2.71900,17.31188968
2.71950,17.00669527
2.72000,17.31188968
2.72050,16.39630646
2.72100,10.59761271
2.72150,-0.3893859684
2.72200,-14.42832872
2.72250,-26.63610503
2.72300,-33.96077082
2.72350,-36.09713167
2.72400,-35.48674285
2.72450,-34.26596522
2.72500,-32.73999318
2.72550,-28.16207707
2.72600,-19.61663365
2.72650,-9.850412607
2.72700,-2.525746822
2.72750,1.13658607
2.72800,4.798918962
2.72850,9.682029486
2.72900,12.73397356
2.72950,12.12358475
2.73000,10.59761271
2.73050,11.81839034
2.73100,15.48072323
2.73150,17.61708409
2.73200,16.70150086
2.73250,15.48072323
2.73300,15.48072323
2.73350,14.2599456
2.73400,8.766446263
2.73450,1.441780478
2.73500,-4.356913269
2.73550,-8.019246161
2.73600,-11.07119024
2.73650,-13.81793991
2.73700,-15.34391195
2.73750,-15.64910635
2.73800,-13.5127455
2.73850,-8.324440569
2.73900,0.221002847
2.73950,8.766446263
2.74000,10.59761271
2.74050,3.578141332
2.74100,-6.493274122
2.74150,-13.20755109
2.74200,-13.5127455
2.74250,-9.850412607
2.74300,-4.967302084
2.74350,-1.304969192
2.74400,-0.6945803761
2.74450,-4.967302084
2.74500,-12.59716228
2.74550,-21.14260569
2.74600,-28.77246588
2.74650,-34.26596522
2.74700,-35.48674285
2.74750,-31.21402115
2.74800,-22.36338332
2.74850,-11.98677346
2.74900,-4.356913269
2.74950,-0.6945803761
2.75000,0.221002847
2.75050,2.662558109
2.75100,8.461251855
2.75150,16.09111205
2.75200,21.58461139
2.75250,22.50019461
2.75300,17.92227849
2.75350,10.90280712
2.75400,5.714502186
2.75450,4.493724555
2.75500,6.630085409
2.75550,7.545668632
2.75600,4.798918962
2.75650,2.357363701
2.75700,4.188530147
2.75750,8.156057447
2.75800,9.682029486
2.75850,6.630085409
2.75900,2.357363701
2.75950,0.221002847
2.76000,-1.304969192
2.76050,-4.051718861
2.76100,-5.882885307
2.76150,-5.882885307
2.76200,-4.967302084
2.76250,-4.967302084
2.76300,-4.356913269
2.76350,-0.9997747838
2.76400,3.578141332
2.76450,6.935279816
2.76500,6.324891001
2.76550,4.798918962
2.76600,5.10411337
2.76650,6.935279816
2.76700,9.376835078
2.76750,11.20800152
2.76800,12.73397356
2.76850,12.73397356
2.76900,9.987223893
2.76950,5.714502186
2.77000,2.662558109
2.77050,2.967752516
2.77100,5.409307778
2.77150,7.545668632
2.77200,8.156057447
2.77250,6.630085409
2.77300,2.052169293
2.77350,-4.356913269
2.77400,-9.850412607
2.77450,-11.37638465
2.77500,-9.240023792
2.77550,-7.408857346
2.77600,-6.493274122
2.77650,-4.051718861
2.77700,0.221002847
2.77750,3.272946924
2.77800,2.967752516
2.77850,1.13658607
2.77900,0.5261972547
2.77950,1.441780478
2.78000,2.662558109
2.78050,5.10411337
2.78100,7.240474224
2.78150,6.324891001
2.78200,1.441780478
2.78250,-4.051718861
2.78300,-5.577690899
2.78350,-3.136135638
2.78400,-2.525746822
2.78450,-6.493274122
2.78500,-12.29196787
2.78550,-14.12313432
2.78600,-10.46080142
2.78650,-4.356913269
2.78700,-0.08419156075
2.78750,2.052169293
2.78800,3.578141332
2.78850,5.714502186
2.78900,8.461251855
2.78950,9.987223893
2.79000,9.376835078
2.79050,4.493724555
2.79100,-3.136135638
2.79150,-11.68157905
2.79200,-17.17507839
2.79250,-19.00624484
2.79300,-18.70105043
2.79350,-18.39585602
2.79400,-18.39585602
2.79450,-17.4802728
2.79500,-15.34391195
2.79550,-11.98677346
2.79600,-7.103662938
2.79650,-1.610163599
2.79700,3.578141332
2.79750,9.376835078
2.79800,15.17552882
2.79850,20.36383376
2.79900,21.88980579
2.79950,20.36383376
2.80000,17.92227849
2.80050,14.56514001
2.80100,9.987223893
2.80150,4.188530147
2.80200,-0.08419156075
2.80250,-2.220552415
2.80300,-4.967302084
2.80350,-8.629634976
2.80400,-9.545218199
2.80450,-5.882885307
2.80500,-1.304969192
2.80550,-1.610163599
2.80600,-6.188079715
2.80650,-10.76599583
2.80700,-12.90235668
2.80750,-12.90235668
2.80800,-11.07119024
2.80850,-6.188079715
2.80900,-0.08419156075
2.80950,4.493724555
2.81000,5.409307778
2.81050,4.493724555
2.81100,4.188530147
2.81150,5.10411337
2.81200,8.461251855
2.81250,13.95475119
2.81300,19.44825053
2.81350,22.80538902
2.81400,24.33136106
2.81450,25.85733309
2.81500,25.85733309
2.81550,21.88980579
2.81600,14.2599456
2.81650,7.545668632
2.81700,2.662558109
2.81750,-2.525746822
2.81800,-10.15560701
2.81850,-18.70105043
2.81900,-25.11013299
2.81950,-29.07766029
2.82000,-30.90882674
2.82050,-30.60363233
2.82100,-26.94129944
2.82150,-19.92182806
2.82200,-12.29196787
2.82250,-7.408857346
2.82300,-5.882885307
2.82350,-4.967302084
2.82400,-1.304969192
2.82450,2.662558109
2.82500,2.357363701
2.82550,-3.746524453
2.82600,-9.240023792
2.82650,-8.019246161
2.82700,-0.3893859684
2.82750,7.545668632
2.82800,12.42877916
2.82850,12.12358475
2.82900,6.324891001
2.82950,-1.915358007
2.83000,-8.629634976
2.83050,-11.68157905
2.83100,-13.20755109
2.83150,-15.64910635
2.83200,-17.4802728
2.83250,-16.56468958
2.83300,-14.73352313
2.83350,-15.03871754
2.83400,-15.64910635
2.83450,-12.29196787
2.83500,-5.577690899
2.83550,-1.915358007
2.83600,-2.525746822
2.83650,-3.136135638
2.83700,-1.610163599
2.83750,-0.3893859684
2.83800,-2.83094123
2.83850,-7.408857346
2.83900,-10.46080142
2.83950,-11.68157905
2.84000,-11.37638465
2.84050,-10.15560701
2.84100,-7.103662938
2.84150,-4.051718861
2.84200,-1.304969192
2.84250,1.441780478
2.84300,4.798918962
2.84350,6.324891001
2.84400,6.630085409
2.84450,8.156057447
2.84500,12.42877916
2.84550,15.48072323
2.84600,13.64955679
2.84650,7.240474224
2.84700,1.13658607
2.84750,-1.304969192
2.84800,-1.304969192
2.84850,-0.6945803761
2.84900,-0.6945803761
2.84950,-2.220552415
2.85000,-4.967302084
2.85050,-7.714051753
2.85100,-8.324440569
2.85150,-6.79846853
2.85200,-3.441330045
2.85250,-0.08419156075
2.85300,2.967752516
2.85350,2.967752516
2.85400,-1.304969192
2.85450,-8.324440569
2.85500,-12.59716228
2.85550,-11.37638465
2.85600,-8.629634976
2.85650,-7.408857346
2.85700,-5.882885307
2.85750,-2.525746822
2.85800,1.441780478
2.85850,4.493724555
2.85900,5.409307778
2.85950,6.019696593
2.86000,5.409307778
2.86050,2.967752516
2.86100,-0.9997747838
2.86150,-4.051718861
2.86200,-3.746524453
2.86250,-0.6945803761
2.86300,3.578141332
2.86350,9.07164067
2.86400,13.95475119
2.86450,16.09111205
2.86500,15.48072323
2.86550,14.2599456
2.86600,14.87033442
2.86650,17.00669527
2.86700,18.83786172
2.86750,18.2274729
2.86800,15.48072323
2.86850,11.51319593
2.86900,8.766446263
2.86950,7.545668632
2.87000,6.935279816
2.87050,6.019696593
2.87100,3.578141332
2.87150,-0.3893859684
2.87200,-7.103662938
2.87250,-15.03871754
2.87300,-20.53221688
2.87350,-21.14260569
2.87400,-17.78546721
2.87450,-14.73352313
2.87500,-12.59716228
2.87550,-9.240023792
2.87600,-3.441330045
2.87650,2.357363701
2.87700,4.798918962
2.87750,3.272946924
2.87800,-0.08419156075
2.87850,-1.915358007
2.87900,-0.6945803761
2.87950,2.967752516
2.88000,6.935279816
2.88050,8.156057447
2.88100,6.630085409
2.88150,5.409307778
2.88200,6.935279816
2.88250,9.376835078
2.88300,11.20800152
2.88350,12.12358475
2.88400,13.03916797
2.88450,13.95475119
2.88500,14.2599456
2.88550,15.17552882
2.88600,17.92227849
2.88650,20.36383376
2.88700,19.75344494
2.88750,14.87033442
2.88800,8.156057447
2.88850,1.441780478
2.88900,-4.662107676
2.88950,-10.46080142
2.89000,-12.90235668
2.89050,-11.37638465
2.89100,-6.493274122
2.89150,-2.220552415
2.89200,-0.6945803761
2.89250,-1.915358007
2.89300,-1.915358007
2.89350,-0.08419156075
2.89400,2.357363701
2.89450,1.13658607
2.89500,-2.83094123
2.89550,-6.79846853
2.89600,-7.408857346
2.89650,-6.188079715
2.89700,-4.662107676
2.89750,-0.9997747838
2.89800,4.798918962
2.89850,9.987223893
2.89900,9.682029486
2.89950,6.019696593
2.90000,5.10411337
2.90050,7.545668632
2.90100,9.07164067
2.90150,6.630085409
2.90200,4.188530147
2.90250,7.545668632
2.90300,13.95475119
2.90350,17.61708409
2.90400,16.09111205
2.90450,10.90280712
2.90500,4.798918962
2.90550,-2.220552415
2.90600,-9.850412607
2.90650,-14.73352313
2.90700,-15.64910635
2.90750,-14.73352313
2.90800,-12.90235668
2.90850,-9.850412607
2.90900,-6.493274122
2.90950,-5.272496492
2.91000,-7.714051753
2.91050,-11.37638465
2.91100,-14.12313432
2.91150,-15.34391195
