type,name,time_units,begin_time,frequency,count,units
signal_3d,"Noraxon MyoMotion-Segments-Forearm RT-Sensor Acceleration","s",0.0000,200,4916,"mG"

time,x,y,z
0.0000,-965.8203125,182.6171875,124.0234375
0.0050,-970.2148438,174.3164063,124.0234375
0.0100,-967.2851563,181.640625,111.8164063
0.0150,-963.3789063,184.5703125,126.953125
0.0200,-971.1914063,179.6875,123.5351563
0.0250,-971.1914063,180.1757813,121.5820313
0.0300,-972.1679688,169.4335938,131.3476563
0.0350,-966.796875,181.1523438,116.6992188
0.0400,-974.1210938,177.734375,126.953125
0.0450,-973.6328125,177.2460938,122.0703125
0.0500,-967.7734375,175.2929688,125
0.0550,-963.8671875,174.3164063,125
0.0600,-966.796875,180.6640625,117.6757813
0.0650,-971.1914063,179.1992188,122.5585938
0.0700,-972.65625,184.0820313,124.0234375
0.0750,-966.3085938,189.9414063,127.9296875
0.0800,-971.1914063,184.0820313,115.7226563
0.0850,-974.609375,182.6171875,129.3945313
0.0900,-974.609375,183.1054688,126.953125
0.0950,-974.609375,182.6171875,125
0.1000,-972.65625,183.1054688,123.5351563
0.1050,-969.2382813,187.0117188,131.8359375
0.1100,-974.1210938,180.6640625,122.5585938
0.1150,-969.7265625,182.6171875,124.0234375
0.1200,-972.65625,186.0351563,123.5351563
0.1250,-969.2382813,184.5703125,124.0234375
0.1300,-975.0976563,178.2226563,126.953125
0.1350,-968.2617188,179.6875,125.9765625
0.1400,-973.6328125,179.1992188,124.0234375
0.1450,-974.609375,182.1289063,125
0.1500,-971.1914063,186.0351563,132.8125
0.1550,-978.515625,184.5703125,124.5117188
0.1600,-972.1679688,189.9414063,130.859375
0.1650,-975.5859375,185.0585938,125.4882813
0.1700,-977.0507813,184.5703125,125.9765625
0.1750,-974.1210938,183.1054688,121.5820313
0.1800,-972.65625,182.1289063,125.4882813
0.1850,-966.3085938,177.734375,114.7460938
0.1900,-963.8671875,178.7109375,120.1171875
0.1950,-959.4726563,184.0820313,115.234375
0.2000,-960.9375,188.9648438,134.2773438
0.2050,-962.890625,181.1523438,117.1875
0.2100,-969.7265625,180.1757813,124.0234375
0.2150,-972.1679688,181.640625,131.3476563
0.2200,-975.0976563,185.0585938,120.6054688
0.2250,-982.421875,182.1289063,124.0234375
0.2300,-984.375,178.2226563,116.6992188
0.2350,-974.609375,189.453125,120.1171875
0.2400,-984.8632813,189.453125,112.3046875
0.2450,-972.1679688,197.7539063,134.2773438
0.2500,-979.9804688,191.8945313,129.3945313
0.2550,-977.0507813,196.2890625,125.9765625
0.2600,-983.3984375,189.453125,123.5351563
0.2650,-983.8867188,191.8945313,125.4882813
0.2700,-977.5390625,192.3828125,125.9765625
0.2750,-971.6796875,187.9882813,122.5585938
0.2800,-980.46875,180.1757813,120.1171875
0.2850,-973.1445313,177.2460938,126.953125
0.2900,-971.6796875,177.734375,127.4414063
0.2950,-975.0976563,171.875,117.1875
0.3000,-978.515625,171.875,126.4648438
0.3050,-975.0976563,166.9921875,127.4414063
0.3100,-974.1210938,172.3632813,120.6054688
0.3150,-968.75,173.3398438,118.1640625
0.3200,-967.2851563,175.2929688,124.0234375
0.3250,-972.1679688,173.828125,122.5585938
0.3300,-970.2148438,180.1757813,122.0703125
0.3350,-973.6328125,178.2226563,122.0703125
0.3400,-978.0273438,182.6171875,131.3476563
0.3450,-969.7265625,188.9648438,119.6289063
0.3500,-976.0742188,185.0585938,122.0703125
0.3550,-979.4921875,182.1289063,120.1171875
0.3600,-969.7265625,190.4296875,119.6289063
0.3650,-977.0507813,180.6640625,123.5351563
0.3700,-977.5390625,177.2460938,120.1171875
0.3750,-966.3085938,184.0820313,113.28125
0.3800,-969.2382813,182.1289063,120.1171875
0.3850,-975.0976563,187.5,125.9765625
0.3900,-974.609375,188.4765625,124.0234375
0.3950,-974.1210938,184.5703125,129.8828125
0.4000,-976.0742188,179.6875,129.3945313
0.4050,-978.515625,180.6640625,128.90625
0.4100,-983.3984375,178.7109375,121.5820313
0.4150,-968.2617188,187.9882813,123.5351563
0.4200,-978.515625,180.1757813,123.5351563
0.4250,-980.46875,175.2929688,114.2578125
0.4300,-977.5390625,185.0585938,121.5820313
0.4350,-979.0039063,180.6640625,111.328125
0.4400,-985.3515625,180.1757813,116.2109375
0.4450,-981.4453125,186.0351563,125
0.4500,-975.5859375,189.453125,126.953125
0.4550,-973.6328125,189.9414063,128.90625
0.4600,-979.9804688,180.1757813,124.0234375
0.4650,-980.9570313,174.3164063,125.4882813
0.4700,-967.2851563,182.1289063,132.3242188
0.4750,-974.609375,173.828125,116.2109375
0.4800,-972.65625,178.2226563,127.9296875
0.4850,-974.609375,175.78125,116.6992188
0.4900,-976.0742188,176.7578125,127.9296875
0.4950,-974.1210938,179.6875,124.5117188
0.5000,-974.609375,182.1289063,125
0.5050,-979.4921875,178.2226563,113.7695313
0.5100,-972.1679688,186.5234375,109.8632813
0.5150,-975.0976563,184.5703125,118.1640625
0.5200,-981.4453125,183.59375,109.8632813
0.5250,-978.515625,187.0117188,127.9296875
0.5300,-980.9570313,181.1523438,121.09375
0.5350,-980.46875,184.0820313,122.0703125
0.5400,-975.0976563,184.0820313,125.9765625
0.5450,-973.6328125,180.1757813,115.234375
0.5500,-977.5390625,183.59375,120.6054688
0.5550,-978.0273438,183.1054688,121.09375
0.5600,-973.1445313,192.3828125,119.6289063
0.5650,-976.5625,195.8007813,114.2578125
0.5700,-986.8164063,190.4296875,126.953125
0.5750,-984.8632813,200.6835938,114.2578125
0.5800,-984.375,206.0546875,109.8632813
0.5850,-988.28125,194.8242188,114.7460938
0.5900,-990.234375,191.8945313,105.9570313
0.5950,-995.6054688,173.828125,117.1875
0.6000,-992.1875,175.2929688,119.140625
0.6050,-990.234375,175.2929688,113.28125
0.6100,-996.09375,170.4101563,110.8398438
0.6150,-990.7226563,167.96875,121.09375
0.6200,-984.8632813,177.2460938,120.6054688
0.6250,-992.6757813,171.875,119.6289063
0.6300,-988.28125,180.1757813,125.9765625
0.6350,-982.9101563,185.0585938,120.1171875
0.6400,-982.9101563,189.453125,115.7226563
0.6450,-976.5625,200.1953125,110.3515625
0.6500,-979.4921875,206.0546875,125.4882813
0.6550,-986.8164063,211.4257813,106.4453125
0.6600,-986.8164063,220.703125,105.9570313
0.6650,-984.8632813,232.421875,112.3046875
0.6700,-985.3515625,230.46875,113.28125
0.6750,-986.328125,223.6328125,97.16796875
0.6800,-990.234375,219.2382813,107.421875
0.6850,-978.515625,214.84375,106.9335938
0.6900,-979.0039063,208.4960938,111.8164063
0.6950,-967.7734375,213.8671875,118.1640625
0.7000,-973.6328125,215.3320313,119.140625
0.7050,-965.3320313,216.3085938,131.8359375
0.7100,-961.4257813,215.3320313,136.2304688
0.7150,-957.03125,215.8203125,132.8125
0.7200,-964.3554688,210.4492188,119.140625
0.7250,-962.4023438,213.3789063,109.375
0.7300,-958.0078125,211.9140625,115.234375
0.7350,-953.125,222.1679688,103.0273438
0.7400,-948.7304688,235.3515625,87.40234375
0.7450,-946.2890625,251.953125,85.9375
0.7500,-950.1953125,269.0429688,98.6328125
0.7550,-946.7773438,280.2734375,106.4453125
0.7600,-933.1054688,299.3164063,110.8398438
0.7650,-919.921875,307.1289063,105.9570313
0.7700,-922.8515625,299.8046875,113.28125
0.7750,-932.6171875,272.9492188,107.421875
0.7800,-939.453125,257.3242188,109.8632813
0.7850,-941.40625,245.6054688,112.7929688
0.7900,-965.8203125,224.609375,112.3046875
0.7950,-966.3085938,217.2851563,118.1640625
0.8000,-977.5390625,209.4726563,132.8125
0.8050,-974.609375,209.9609375,131.8359375
0.8100,-974.609375,215.8203125,131.3476563
0.8150,-970.703125,232.421875,126.4648438
0.8200,-963.8671875,250.4882813,132.3242188
0.8250,-961.9140625,254.8828125,133.3007813
0.8300,-950.1953125,276.3671875,137.6953125
0.8350,-955.078125,280.7617188,108.8867188
0.8400,-955.5664063,290.5273438,107.9101563
0.8450,-950.6835938,297.3632813,116.2109375
0.8500,-955.5664063,289.5507813,102.0507813
0.8550,-952.6367188,281.7382813,103.0273438
0.8600,-964.84375,270.5078125,100.0976563
0.8650,-960.9375,264.6484375,100.5859375
0.8700,-970.2148438,253.90625,103.0273438
0.8750,-968.75,261.2304688,103.0273438
0.8800,-969.2382813,272.4609375,110.8398438
0.8850,-973.6328125,276.3671875,109.375
0.8900,-966.3085938,291.5039063,109.375
0.8950,-964.84375,299.8046875,112.7929688
0.9000,-961.9140625,308.1054688,122.0703125
0.9050,-964.84375,309.5703125,124.0234375
0.9100,-967.7734375,304.1992188,111.8164063
0.9150,-959.4726563,314.453125,127.4414063
0.9200,-962.890625,320.3125,126.953125
0.9250,-956.0546875,317.8710938,122.0703125
0.9300,-958.984375,307.1289063,115.7226563
0.9350,-960.4492188,306.1523438,110.3515625
0.9400,-957.5195313,305.1757813,108.8867188
0.9450,-961.9140625,298.3398438,104.0039063
0.9500,-954.5898438,306.640625,103.0273438
0.9550,-957.5195313,303.7109375,107.9101563
0.9600,-957.03125,311.0351563,109.8632813
0.9650,-954.5898438,318.359375,112.7929688
0.9700,-949.7070313,324.7070313,126.4648438
0.9750,-952.6367188,322.7539063,131.3476563
0.9800,-942.8710938,339.3554688,133.7890625
0.9850,-943.359375,335.9375,124.5117188
0.9900,-941.8945313,344.2382813,135.2539063
0.9950,-930.6640625,347.1679688,127.4414063
1.0000,-938.9648438,331.5429688,115.234375
1.0050,-943.8476563,325.6835938,121.5820313
1.0100,-943.359375,336.4257813,110.8398438
1.0150,-942.3828125,340.8203125,112.3046875
1.0200,-935.546875,361.328125,118.6523438
1.0250,-934.0820313,369.140625,120.6054688
1.0300,-937.9882813,365.234375,125.9765625
1.0350,-937.0117188,365.234375,125
1.0400,-944.3359375,350.0976563,131.8359375
1.0450,-944.3359375,348.1445313,125.4882813
1.0500,-934.0820313,358.3984375,130.859375
1.0550,-939.453125,354.9804688,113.7695313
1.0600,-938.4765625,350.5859375,136.2304688
1.0650,-934.0820313,344.2382813,119.6289063
1.0700,-925.78125,352.0507813,105.46875
1.0750,-939.9414063,352.5390625,114.7460938
1.0800,-936.0351563,365.7226563,118.6523438
1.0850,-937.5,373.046875,123.046875
1.0900,-928.2226563,383.3007813,118.1640625
1.0950,-925.2929688,380.3710938,121.09375
1.1000,-933.1054688,376.4648438,119.140625
1.1050,-928.7109375,379.3945313,117.6757813
1.1100,-927.734375,381.8359375,118.6523438
1.1150,-931.640625,383.3007813,126.4648438
1.1200,-931.640625,393.5546875,110.8398438
1.1250,-928.7109375,390.1367188,123.5351563
1.1300,-921.3867188,399.4140625,124.0234375
1.1350,-918.9453125,403.3203125,135.7421875
1.1400,-915.0390625,412.5976563,126.953125
1.1450,-922.3632813,402.34375,132.8125
1.1500,-918.4570313,405.7617188,116.2109375
1.1550,-915.0390625,402.8320313,117.1875
1.1600,-905.7617188,408.6914063,113.28125
1.1650,-909.6679688,404.7851563,112.3046875
1.1700,-917.4804688,402.34375,126.4648438
1.1750,-921.875,401.8554688,125
1.1800,-920.4101563,407.2265625,123.5351563
1.1850,-919.4335938,402.8320313,118.1640625
1.1900,-916.015625,408.203125,140.625
1.1950,-921.3867188,402.8320313,134.765625
1.2000,-925.78125,404.7851563,143.0664063
1.2050,-916.9921875,404.296875,139.1601563
1.2100,-920.4101563,390.625,134.765625
1.2150,-916.5039063,397.4609375,144.53125
1.2200,-919.921875,401.8554688,127.4414063
1.2250,-932.1289063,406.25,127.4414063
1.2300,-923.828125,419.4335938,124.5117188
1.2350,-921.3867188,427.2460938,125.9765625
1.2400,-907.2265625,451.6601563,111.8164063
1.2450,-901.3671875,461.4257813,113.28125
1.2500,-898.9257813,474.1210938,113.7695313
1.2550,-888.671875,485.8398438,116.6992188
1.2600,-891.6015625,490.7226563,123.5351563
1.2650,-883.7890625,495.6054688,130.3710938
1.2700,-881.8359375,499.0234375,126.4648438
1.2750,-875,506.3476563,111.328125
1.2800,-872.5585938,517.0898438,126.953125
1.2850,-868.1640625,516.6015625,136.2304688
1.2900,-871.09375,516.6015625,132.8125
1.2950,-875,507.3242188,141.6015625
1.3000,-884.765625,501.953125,155.7617188
1.3050,-875.4882813,500,137.6953125
1.3100,-868.6523438,501.4648438,137.6953125
1.3150,-867.1875,501.953125,140.1367188
1.3200,-858.3984375,516.1132813,147.9492188
1.3250,-856.9335938,531.25,139.1601563
1.3300,-861.328125,540.5273438,146.9726563
1.3350,-850.0976563,546.875,134.765625
1.3400,-857.9101563,567.8710938,137.2070313
1.3450,-847.65625,582.5195313,128.90625
1.3500,-849.609375,577.6367188,128.4179688
1.3550,-846.1914063,580.5664063,143.5546875
1.3600,-849.1210938,588.3789063,131.3476563
1.3650,-846.6796875,605.46875,138.671875
1.3700,-844.7265625,614.7460938,140.625
1.3750,-836.9140625,620.1171875,149.4140625
1.3800,-837.890625,615.234375,141.1132813
1.3850,-831.0546875,612.3046875,146.484375
1.3900,-838.3789063,605.9570313,151.8554688
1.3950,-834.9609375,603.0273438,156.7382813
1.4000,-841.3085938,597.65625,148.4375
1.4050,-832.5195313,594.2382813,150.390625
1.4100,-826.171875,585.9375,151.8554688
1.4150,-825.6835938,583.0078125,132.8125
1.4200,-813.4765625,594.7265625,147.4609375
1.4250,-811.5234375,606.4453125,132.3242188
1.4300,-801.2695313,624.5117188,129.8828125
1.4350,-804.6875,638.1835938,147.9492188
1.4400,-795.8984375,667.4804688,145.0195313
1.4450,-794.921875,687.0117188,148.4375
1.4500,-788.0859375,702.1484375,150.8789063
1.4550,-786.6210938,710.4492188,149.9023438
1.4600,-782.7148438,708.0078125,157.7148438
1.4650,-789.5507813,697.7539063,149.9023438
1.4700,-780.2734375,694.3359375,147.4609375
1.4750,-768.0664063,686.0351563,134.2773438
1.4800,-761.2304688,678.2226563,137.2070313
1.4850,-751.4648438,691.40625,136.2304688
1.4900,-751.953125,690.4296875,147.9492188
1.4950,-747.5585938,686.5234375,158.6914063
1.5000,-750.4882813,699.21875,163.5742188
1.5050,-741.2109375,707.5195313,154.7851563
1.5100,-742.6757813,695.8007813,170.4101563
1.5150,-731.9335938,701.171875,162.5976563
1.5200,-719.7265625,709.9609375,163.5742188
1.5250,-706.5429688,720.2148438,157.7148438
1.5300,-698.2421875,727.5390625,156.7382813
1.5350,-696.2890625,727.0507813,154.7851563
1.5400,-694.8242188,743.6523438,146.484375
1.5450,-701.6601563,766.6015625,148.4375
1.5500,-693.8476563,785.15625,152.8320313
1.5550,-694.8242188,771.484375,163.0859375
1.5600,-692.3828125,775.8789063,162.5976563
1.5650,-692.8710938,772.9492188,153.8085938
1.5700,-685.546875,775.390625,176.2695313
1.5750,-680.1757813,761.2304688,161.6210938
1.5800,-685.546875,752.9296875,168.9453125
1.5850,-683.1054688,756.3476563,160.15625
1.5900,-672.8515625,770.5078125,169.921875
1.5950,-669.921875,773.9257813,169.921875
1.6000,-667.4804688,779.296875,162.5976563
1.6050,-657.2265625,794.921875,168.9453125
1.6100,-647.4609375,802.734375,175.78125
1.6150,-641.1132813,798.3398438,154.296875
1.6200,-651.3671875,798.828125,162.109375
1.6250,-637.2070313,810.0585938,161.6210938
1.6300,-633.7890625,812.0117188,154.7851563
1.6350,-629.3945313,808.59375,150.390625
1.6400,-621.09375,805.1757813,161.1328125
1.6450,-627.4414063,800.2929688,151.8554688
1.6500,-624.0234375,804.6875,166.015625
1.6550,-625,806.640625,156.7382813
1.6600,-615.234375,808.59375,149.9023438
1.6650,-598.6328125,818.359375,153.3203125
1.6700,-593.2617188,808.59375,156.7382813
1.6750,-578.125,818.359375,155.2734375
1.6800,-578.6132813,819.3359375,143.0664063
1.6850,-566.8945313,829.5898438,158.203125
1.6900,-567.8710938,836.9140625,155.2734375
1.6950,-565.9179688,839.3554688,159.6679688
1.7000,-559.0820313,835.9375,165.5273438
1.7050,-555.1757813,845.2148438,165.0390625
1.7100,-551.7578125,841.796875,168.9453125
1.7150,-535.6445313,846.6796875,164.5507813
1.7200,-529.7851563,859.8632813,172.8515625
1.7250,-529.296875,847.65625,187.9882813
1.7300,-532.2265625,838.8671875,172.3632813
1.7350,-516.1132813,855.46875,164.0625
1.7400,-510.2539063,850.0976563,169.4335938
1.7450,-506.8359375,844.2382813,180.1757813
1.7500,-493.6523438,854.9804688,165.0390625
1.7550,-489.2578125,854.4921875,157.7148438
1.7600,-474.1210938,877.4414063,165.5273438
1.7650,-464.3554688,862.3046875,160.6445313
1.7700,-465.3320313,848.6328125,163.5742188
1.7750,-453.125,847.1679688,167.4804688
1.7800,-455.078125,852.5390625,185.546875
1.7850,-462.4023438,856.9335938,171.875
1.7900,-461.4257813,869.140625,184.0820313
1.7950,-446.7773438,878.4179688,177.2460938
1.8000,-441.8945313,872.0703125,187.5
1.8050,-437.5,868.6523438,182.1289063
1.8100,-428.7109375,867.1875,185.546875
1.8150,-417.4804688,875,176.7578125
1.8200,-413.5742188,873.5351563,182.6171875
1.8250,-402.8320313,870.6054688,177.2460938
1.8300,-401.3671875,866.6992188,179.1992188
1.8350,-391.6015625,880.859375,173.3398438
1.8400,-401.8554688,879.8828125,181.640625
1.8450,-392.0898438,890.625,190.9179688
1.8500,-390.625,890.625,174.8046875
1.8550,-381.8359375,895.5078125,178.2226563
1.8600,-362.7929688,932.1289063,171.3867188
1.8650,-365.234375,931.640625,174.8046875
1.8700,-370.1171875,925.2929688,185.546875
1.8750,-362.3046875,915.5273438,186.5234375
1.8800,-360.8398438,909.1796875,186.5234375
1.8850,-368.1640625,885.2539063,189.9414063
1.8900,-367.1875,881.3476563,197.265625
1.8950,-353.515625,904.7851563,184.5703125
1.9000,-356.4453125,896.484375,212.4023438
1.9050,-345.2148438,887.2070313,201.171875
1.9100,-332.03125,894.53125,207.03125
1.9150,-313.4765625,921.3867188,204.1015625
1.9200,-313.9648438,933.59375,207.03125
1.9250,-309.0820313,928.2226563,214.3554688
1.9300,-289.0625,935.546875,198.2421875
1.9350,-285.6445313,939.453125,197.265625
1.9400,-277.8320313,944.3359375,188.9648438
1.9450,-262.6953125,961.4257813,183.59375
1.9500,-282.7148438,933.1054688,203.6132813
1.9550,-277.34375,943.359375,187.5
1.9600,-272.4609375,950.6835938,195.8007813
1.9650,-270.9960938,955.5664063,209.4726563
1.9700,-271.9726563,942.3828125,206.0546875
1.9750,-277.34375,935.546875,204.5898438
1.9800,-279.296875,937.5,201.171875
1.9850,-275.390625,945.3125,207.03125
1.9900,-264.6484375,956.0546875,210.4492188
1.9950,-255.859375,943.8476563,205.5664063
2.0000,-245.6054688,939.9414063,211.4257813
2.0050,-245.1171875,939.9414063,221.6796875
2.0100,-249.0234375,950.1953125,218.2617188
2.0150,-236.8164063,967.2851563,227.0507813
2.0200,-227.0507813,970.2148438,236.328125
2.0250,-212.4023438,957.5195313,226.5625
2.0300,-202.1484375,955.078125,235.8398438
2.0350,-192.8710938,966.3085938,224.1210938
2.0400,-188.4765625,992.1875,247.5585938
2.0450,-186.5234375,1005.859375,234.8632813
2.0500,-180.6640625,985.8398438,248.5351563
2.0550,-166.015625,971.1914063,250
2.0600,-147.9492188,970.703125,233.3984375
2.0650,-144.53125,974.1210938,247.0703125
2.0700,-156.25,981.4453125,242.1875
2.0750,-153.8085938,979.0039063,235.3515625
2.0800,-145.0195313,964.84375,229.9804688
2.0850,-127.4414063,958.4960938,244.6289063
2.0900,-117.1875,975.5859375,218.75
2.0950,-102.0507813,1011.71875,231.4453125
2.1000,-90.8203125,1019.53125,236.328125
2.1050,-76.171875,1018.066406,237.7929688
2.1100,-90.33203125,987.7929688,248.5351563
2.1150,-91.30859375,977.0507813,236.328125
2.1200,-93.75,961.9140625,244.140625
2.1250,-91.796875,947.7539063,237.3046875
2.1300,-70.3125,966.796875,244.6289063
2.1350,-57.6171875,977.5390625,239.2578125
2.1400,-43.45703125,997.5585938,241.6992188
2.1450,-26.3671875,1004.394531,264.1601563
2.1500,-13.18359375,1007.324219,235.3515625
2.1550,-2.9296875,1007.324219,254.3945313
2.1600,-5.859375,1008.300781,255.859375
2.1650,-18.5546875,995.6054688,251.953125
2.1700,-23.4375,989.7460938,260.7421875
2.1750,-9.27734375,983.3984375,242.1875
2.1800,-4.39453125,975.5859375,247.0703125
2.1850,12.6953125,983.8867188,251.953125
2.1900,32.71484375,987.3046875,251.4648438
2.1950,34.66796875,975.5859375,255.859375
2.2000,25.87890625,975.5859375,262.2070313
2.2050,15.13671875,979.9804688,244.140625
2.2100,5.859375,977.5390625,250.4882813
2.2150,20.99609375,974.1210938,252.4414063
2.2200,27.34375,972.65625,262.2070313
2.2250,41.9921875,995.1171875,269.53125
2.2300,48.828125,1018.066406,256.8359375
2.2350,51.7578125,1013.183594,274.9023438
2.2400,64.453125,998.046875,270.5078125
2.2450,71.2890625,975.5859375,266.6015625
2.2500,73.2421875,958.4960938,264.1601563
2.2550,79.58984375,953.125,250.4882813
2.2600,83.49609375,952.1484375,272.4609375
2.2650,97.65625,961.4257813,265.1367188
2.2700,102.0507813,968.2617188,266.1132813
2.2750,118.1640625,972.1679688,265.1367188
2.2800,116.6992188,953.125,266.6015625
2.2850,140.625,962.4023438,278.3203125
2.2900,140.1367188,963.8671875,268.0664063
2.2950,142.0898438,966.3085938,264.1601563
2.3000,132.8125,957.03125,272.4609375
2.3050,140.625,955.078125,280.2734375
2.3100,154.296875,958.984375,286.6210938
2.3150,158.203125,961.4257813,283.203125
2.3200,153.8085938,965.3320313,277.8320313
2.3250,160.15625,946.2890625,290.5273438
2.3300,170.8984375,921.875,288.5742188
2.3350,181.640625,912.5976563,271.484375
2.3400,180.1757813,912.5976563,273.9257813
2.3450,190.4296875,932.1289063,273.4375
2.3500,203.125,928.2226563,269.0429688
2.3550,205.5664063,908.203125,262.2070313
2.3600,230.46875,929.6875,261.71875
2.3650,230.9570313,930.1757813,273.9257813
2.3700,231.4453125,910.6445313,271.9726563
2.3750,235.8398438,892.578125,276.3671875
2.3800,237.3046875,902.8320313,261.2304688
2.3850,247.0703125,928.7109375,255.3710938
2.3900,254.8828125,945.3125,272.9492188
2.3950,268.5546875,940.4296875,279.7851563
2.4000,269.0429688,917.96875,288.0859375
2.4050,262.6953125,904.296875,274.4140625
2.4100,251.4648438,920.8984375,282.2265625
2.4150,258.7890625,944.8242188,279.296875
2.4200,282.2265625,947.265625,292.4804688
2.4250,293.4570313,895.9960938,285.15625
2.4300,289.5507813,844.7265625,276.8554688
2.4350,291.015625,843.2617188,258.7890625
2.4400,290.0390625,869.6289063,255.859375
2.4450,298.3398438,885.2539063,274.9023438
2.4500,305.1757813,875.9765625,278.8085938
2.4550,304.6875,864.7460938,284.6679688
2.4600,305.1757813,868.6523438,263.1835938
2.4650,312.5,894.53125,281.7382813
2.4700,318.8476563,900.8789063,288.5742188
2.4750,328.6132813,880.3710938,293.4570313
2.4800,335.9375,863.7695313,294.4335938
2.4850,341.3085938,858.3984375,277.8320313
2.4900,351.5625,878.90625,285.15625
2.4950,350.0976563,885.7421875,283.203125
2.5000,356.4453125,882.8125,285.15625
2.5050,360.8398438,849.1210938,278.8085938
2.5100,357.9101563,824.7070313,270.9960938
2.5150,364.2578125,827.1484375,261.71875
2.5200,365.7226563,838.3789063,275.8789063
2.5250,371.5820313,827.1484375,295.4101563
2.5300,386.2304688,824.7070313,295.8984375
2.5350,393.0664063,835.4492188,283.6914063
2.5400,384.765625,848.6328125,267.578125
2.5450,383.7890625,848.1445313,285.6445313
2.5500,381.3476563,844.2382813,296.875
2.5550,407.2265625,842.7734375,290.5273438
2.5600,400.390625,850.5859375,289.0625
2.5650,392.0898438,902.8320313,285.6445313
2.5700,388.671875,949.21875,309.0820313
2.5750,396.9726563,916.5039063,300.78125
2.5800,401.8554688,816.8945313,304.6875
2.5850,402.34375,732.421875,260.2539063
2.5900,420.8984375,750,237.7929688
2.5950,420.4101563,783.203125,252.4414063
2.6000,425.78125,790.5273438,263.1835938
2.6050,448.2421875,780.7617188,273.4375
2.6100,448.7304688,773.4375,269.53125
2.6150,456.0546875,785.6445313,268.0664063
2.6200,450.6835938,795.4101563,286.6210938
2.6250,450.1953125,807.1289063,296.3867188
2.6300,457.5195313,830.5664063,300.78125
2.6350,461.9140625,863.7695313,290.5273438
2.6400,459.4726563,884.2773438,299.8046875
2.6450,465.3320313,879.3945313,303.7109375
2.6500,464.3554688,849.609375,311.5234375
2.6550,482.9101563,821.2890625,292.96875
2.6600,475.0976563,791.5039063,277.8320313
2.6650,466.3085938,789.5507813,266.1132813
2.6700,464.3554688,798.828125,265.1367188
2.6750,470.2148438,790.5273438,259.765625
2.6800,478.515625,781.7382813,256.8359375
2.6850,477.5390625,772.4609375,278.3203125
2.6900,487.7929688,791.9921875,263.1835938
2.6950,500,795.4101563,272.4609375
2.7000,503.90625,777.8320313,282.2265625
2.7050,511.71875,768.0664063,281.25
2.7100,512.6953125,772.9492188,292.96875
2.7150,517.578125,777.8320313,280.2734375
2.7200,524.4140625,785.6445313,291.015625
2.7250,534.6679688,776.3671875,296.875
2.7300,543.9453125,770.9960938,286.6210938
2.7350,550.2929688,778.8085938,279.296875
2.7400,550.78125,776.8554688,296.875
2.7450,548.828125,765.625,279.7851563
2.7500,542.96875,765.1367188,301.7578125
2.7550,553.7109375,775.8789063,281.7382813
2.7600,557.1289063,781.7382813,290.0390625
2.7650,560.546875,767.578125,300.78125
2.7700,572.7539063,762.2070313,287.5976563
2.7750,577.1484375,750.9765625,286.6210938
2.7800,567.8710938,736.8164063,276.3671875
2.7850,570.8007813,747.5585938,273.4375
2.7900,554.6875,748.046875,286.1328125
2.7950,555.1757813,754.3945313,289.0625
2.8000,571.2890625,741.2109375,294.4335938
2.8050,595.2148438,714.84375,288.0859375
2.8100,599.1210938,695.8007813,280.7617188
2.8150,602.5390625,695.8007813,280.7617188
2.8200,596.6796875,697.265625,281.7382813
2.8250,597.1679688,692.8710938,292.96875
2.8300,601.5625,703.125,276.3671875
2.8350,607.421875,746.09375,275.390625
2.8400,609.8632813,777.8320313,275.390625
2.8450,614.2578125,780.7617188,291.5039063
2.8500,614.7460938,767.578125,287.5976563
2.8550,614.7460938,761.71875,274.9023438
2.8600,645.9960938,807.1289063,273.9257813
2.8650,592.7734375,757.8125,302.2460938
2.8700,559.0820313,698.7304688,311.5234375
2.8750,598.6328125,687.0117188,269.53125
2.8800,652.34375,694.3359375,269.0429688
2.8850,627.9296875,663.0859375,275.8789063
2.8900,612.3046875,681.1523438,282.2265625
2.8950,619.140625,716.3085938,272.9492188
2.9000,628.90625,727.0507813,287.5976563
2.9050,639.1601563,706.0546875,285.15625
2.9100,643.0664063,707.5195313,283.6914063
2.9150,648.9257813,721.1914063,267.578125
2.9200,661.1328125,745.1171875,276.8554688
2.9250,668.9453125,735.8398438,281.25
2.9300,640.625,691.8945313,300.2929688
2.9350,628.90625,650.390625,284.6679688
2.9400,649.9023438,659.1796875,267.0898438
2.9450,681.640625,672.3632813,264.1601563
2.9500,692.8710938,673.828125,270.5078125
2.9550,687.5,666.9921875,279.7851563
2.9600,681.1523438,657.7148438,269.0429688
2.9650,667.4804688,663.5742188,273.9257813
2.9700,666.9921875,682.1289063,273.9257813
2.9750,681.640625,688.4765625,291.9921875
2.9800,688.9648438,661.6210938,301.7578125
2.9850,698.7304688,629.3945313,295.8984375
2.9900,695.3125,589.3554688,282.2265625
2.9950,714.84375,590.3320313,269.0429688
3.0000,734.375,614.2578125,267.0898438
3.0050,711.4257813,588.3789063,297.8515625
3.0100,679.1992188,572.265625,302.2460938
3.0150,698.2421875,594.2382813,286.6210938
3.0200,724.609375,627.9296875,311.5234375
3.0250,743.6523438,642.578125,303.7109375
3.0300,729.0039063,649.4140625,312.0117188
3.0350,715.8203125,639.6484375,317.3828125
3.0400,737.7929688,651.8554688,289.0625
3.0450,741.2109375,618.6523438,307.6171875
3.0500,672.8515625,545.4101563,327.6367188
3.0550,698.2421875,557.1289063,289.5507813
3.0600,739.2578125,581.5429688,279.296875
3.0650,728.0273438,567.8710938,313.4765625
3.0700,725.0976563,564.453125,298.828125
3.0750,744.140625,599.609375,291.015625
3.0800,741.2109375,598.1445313,301.7578125
3.0850,740.7226563,595.2148438,301.2695313
3.0900,762.6953125,621.5820313,284.1796875
3.0950,732.421875,596.6796875,331.5429688
3.1000,699.21875,563.9648438,328.6132813
3.1050,735.3515625,546.3867188,314.9414063
3.1100,791.5039063,558.1054688,310.0585938
3.1150,793.9453125,533.6914063,287.5976563
3.1200,776.3671875,523.4375,296.3867188
3.1250,764.1601563,519.0429688,301.2695313
3.1300,776.3671875,541.9921875,292.96875
3.1350,802.734375,553.7109375,297.8515625
3.1400,769.53125,530.7617188,337.890625
3.1450,745.1171875,516.1132813,320.3125
3.1500,786.1328125,557.6171875,283.6914063
3.1550,812.5,597.65625,302.734375
3.1600,800.78125,583.0078125,303.2226563
3.1650,788.5742188,571.7773438,308.59375
3.1700,785.15625,563.4765625,303.2226563
3.1750,784.1796875,521.484375,308.59375
3.1800,782.7148438,484.8632813,299.8046875
3.1850,790.5273438,481.9335938,288.0859375
3.1900,796.3867188,493.1640625,278.8085938
3.1950,813.4765625,523.4375,276.3671875
3.2000,801.2695313,526.3671875,304.6875
3.2050,802.734375,509.765625,288.0859375
3.2100,799.3164063,504.3945313,285.15625
3.2150,800.2929688,500.9765625,275.390625
3.2200,804.6875,495.6054688,282.7148438
3.2250,802.2460938,486.328125,270.5078125
3.2300,807.6171875,494.6289063,268.0664063
3.2350,816.40625,515.1367188,278.8085938
3.2400,803.7109375,513.671875,291.015625
3.2450,816.40625,513.1835938,280.2734375
3.2500,808.1054688,501.953125,288.5742188
3.2550,808.1054688,475.0976563,276.8554688
3.2600,818.359375,465.3320313,278.3203125
3.2650,823.7304688,452.6367188,280.2734375
3.2700,811.0351563,453.6132813,265.625
3.2750,817.3828125,484.375,253.4179688
3.2800,813.9648438,517.578125,275.390625
3.2850,814.453125,512.6953125,294.4335938
3.2900,809.0820313,483.3984375,281.25
3.2950,809.5703125,459.4726563,270.5078125
3.3000,827.1484375,464.84375,260.7421875
3.3050,827.6367188,437.9882813,279.7851563
3.3100,824.21875,423.828125,273.4375
3.3150,837.890625,435.546875,265.1367188
3.3200,837.4023438,453.125,266.1132813
3.3250,842.2851563,455.078125,290.5273438
3.3300,834.9609375,430.6640625,286.1328125
3.3350,833.0078125,421.3867188,271.9726563
3.3400,828.125,427.2460938,279.296875
3.3450,826.171875,428.2226563,275.8789063
3.3500,837.4023438,427.2460938,287.5976563
3.3550,834.9609375,403.3203125,303.2226563
3.3600,833.0078125,409.6679688,294.4335938
3.3650,833.4960938,430.1757813,280.7617188
3.3700,832.5195313,446.2890625,302.734375
3.3750,842.7734375,446.2890625,292.96875
3.3800,839.84375,426.7578125,301.2695313
3.3850,836.4257813,435.546875,283.203125
3.3900,836.9140625,446.7773438,294.4335938
3.3950,834.9609375,445.3125,294.921875
3.4000,834.9609375,437.9882813,278.3203125
3.4050,842.2851563,428.2226563,262.6953125
3.4100,850.0976563,432.1289063,282.7148438
3.4150,845.703125,411.6210938,272.9492188
3.4200,833.0078125,399.4140625,291.5039063
3.4250,834.4726563,388.671875,276.8554688
3.4300,837.4023438,365.234375,262.6953125
3.4350,852.0507813,395.9960938,260.2539063
3.4400,865.234375,392.0898438,267.578125
3.4450,864.2578125,390.625,264.6484375
3.4500,839.3554688,374.5117188,257.8125
3.4550,834.9609375,371.5820313,251.4648438
3.4600,845.2148438,384.765625,266.6015625
3.4650,848.1445313,390.1367188,249.5117188
3.4700,842.7734375,387.2070313,260.2539063
3.4750,853.0273438,380.3710938,274.9023438
3.4800,857.9101563,365.234375,268.0664063
3.4850,862.7929688,341.796875,269.0429688
3.4900,868.6523438,333.984375,249.0234375
3.4950,875.4882813,348.1445313,241.6992188
3.5000,877.9296875,364.2578125,250.9765625
3.5050,870.6054688,354.0039063,265.625
3.5100,871.09375,341.796875,262.2070313
3.5150,878.90625,333.4960938,255.3710938
3.5200,875,331.0546875,257.3242188
3.5250,880.3710938,346.1914063,262.6953125
3.5300,891.6015625,332.03125,254.3945313
3.5350,895.5078125,306.640625,257.3242188
3.5400,911.1328125,321.7773438,241.2109375
3.5450,894.53125,335.4492188,245.6054688
3.5500,880.3710938,355.9570313,258.3007813
3.5550,883.7890625,366.6992188,264.1601563
3.5600,890.625,367.6757813,259.765625
3.5650,899.9023438,342.2851563,261.71875
3.5700,901.8554688,307.6171875,259.765625
3.5750,896.484375,298.3398438,234.8632813
3.5800,906.7382813,317.8710938,248.5351563
3.5850,903.3203125,313.4765625,230.46875
3.5900,909.1796875,311.0351563,249.5117188
3.5950,908.6914063,309.5703125,237.3046875
3.6000,915.5273438,327.1484375,234.8632813
3.6050,906.7382813,313.4765625,270.5078125
3.6100,907.7148438,310.546875,247.5585938
3.6150,912.109375,321.2890625,252.4414063
3.6200,915.5273438,356.4453125,250
3.6250,919.921875,357.421875,269.53125
3.6300,921.3867188,339.84375,262.6953125
3.6350,921.3867188,314.9414063,269.0429688
3.6400,936.0351563,323.2421875,251.953125
3.6450,940.9179688,307.1289063,261.2304688
3.6500,936.0351563,276.3671875,263.1835938
3.6550,934.0820313,282.2265625,231.9335938
3.6600,935.546875,317.8710938,237.7929688
3.6650,928.7109375,330.5664063,255.3710938
3.6700,912.5976563,301.7578125,254.8828125
3.6750,924.3164063,288.5742188,227.0507813
3.6800,939.453125,300.78125,225.5859375
3.6850,932.6171875,302.734375,246.5820313
3.6900,920.8984375,291.9921875,217.2851563
3.6950,919.921875,302.734375,228.515625
3.7000,906.7382813,331.5429688,223.6328125
3.7050,908.203125,331.5429688,236.328125
3.7100,908.6914063,300.2929688,242.1875
3.7150,916.9921875,283.6914063,246.5820313
3.7200,920.4101563,280.7617188,233.3984375
3.7250,920.8984375,288.5742188,238.28125
3.7300,913.0859375,277.8320313,244.6289063
3.7350,907.2265625,240.7226563,247.5585938
3.7400,919.4335938,262.6953125,225.0976563
3.7450,914.0625,287.109375,239.7460938
3.7500,903.3203125,295.4101563,255.3710938
3.7550,916.5039063,307.6171875,242.1875
3.7600,927.2460938,301.7578125,257.3242188
3.7650,916.5039063,263.671875,248.5351563
3.7700,915.5273438,254.3945313,239.2578125
3.7750,915.5273438,263.671875,251.4648438
3.7800,933.1054688,298.828125,255.859375
3.7850,918.9453125,268.5546875,250.4882813
3.7900,921.875,242.6757813,251.953125
3.7950,924.8046875,233.8867188,248.046875
3.8000,926.7578125,251.953125,244.6289063
3.8050,935.546875,273.9257813,249.0234375
3.8100,934.0820313,255.3710938,249.0234375
3.8150,941.8945313,244.140625,244.6289063
3.8200,928.2226563,243.6523438,252.9296875
3.8250,937.5,267.578125,246.5820313
3.8300,933.1054688,265.1367188,256.3476563
3.8350,924.3164063,255.859375,247.5585938
3.8400,920.4101563,258.3007813,246.09375
3.8450,920.8984375,270.5078125,252.4414063
3.8500,919.4335938,271.484375,262.2070313
3.8550,930.6640625,264.6484375,278.8085938
3.8600,944.3359375,263.671875,246.5820313
3.8650,952.1484375,261.71875,250.4882813
3.8700,939.453125,237.7929688,251.4648438
3.8750,936.0351563,232.421875,223.1445313
3.8800,929.6875,240.234375,230.46875
3.8850,933.59375,267.0898438,228.515625
3.8900,933.59375,264.6484375,239.7460938
3.8950,934.0820313,267.578125,225.0976563
3.9000,936.0351563,249.5117188,237.7929688
3.9050,945.3125,240.234375,242.6757813
3.9100,949.21875,234.375,220.703125
3.9150,942.8710938,242.6757813,236.328125
3.9200,944.8242188,253.90625,230.9570313
3.9250,942.8710938,260.2539063,231.4453125
3.9300,933.59375,259.765625,239.2578125
3.9350,929.1992188,253.4179688,239.2578125
3.9400,933.59375,257.3242188,229.0039063
3.9450,930.1757813,245.1171875,226.0742188
3.9500,934.0820313,244.6289063,218.2617188
3.9550,941.40625,254.8828125,196.2890625
3.9600,941.40625,253.90625,190.9179688
3.9650,931.640625,242.1875,187.9882813
3.9700,939.453125,248.5351563,193.8476563
3.9750,930.6640625,247.5585938,182.1289063
3.9800,925.78125,253.90625,195.3125
3.9850,936.0351563,252.4414063,189.9414063
3.9900,936.5234375,246.09375,197.7539063
3.9950,932.6171875,240.234375,195.3125
4.0000,937.0117188,233.8867188,201.6601563
4.0050,936.5234375,223.1445313,199.7070313
4.0100,933.59375,227.0507813,200.6835938
4.0150,931.640625,246.5820313,211.4257813
4.0200,932.1289063,254.8828125,211.4257813
4.0250,935.0585938,251.953125,217.2851563
4.0300,931.1523438,240.234375,208.984375
4.0350,930.1757813,234.8632813,201.171875
4.0400,917.96875,237.7929688,195.3125
4.0450,924.3164063,257.3242188,195.8007813
4.0500,915.0390625,257.8125,192.3828125
4.0550,914.0625,250.9765625,193.359375
4.0600,913.5742188,240.7226563,201.171875
4.0650,921.3867188,249.0234375,185.0585938
4.0700,919.921875,250.9765625,198.7304688
4.0750,906.7382813,234.8632813,206.5429688
4.0800,906.25,239.2578125,205.5664063
4.0850,913.0859375,244.6289063,211.4257813
4.0900,921.875,251.953125,208.0078125
4.0950,916.015625,249.0234375,211.4257813
4.1000,916.5039063,251.4648438,196.7773438
4.1050,935.546875,258.3007813,214.84375
4.1100,930.6640625,247.5585938,230.46875
4.1150,926.7578125,237.3046875,199.21875
4.1200,926.7578125,249.0234375,207.03125
4.1250,931.1523438,262.6953125,212.890625
4.1300,929.6875,274.9023438,215.8203125
4.1350,922.8515625,277.8320313,200.1953125
4.1400,916.5039063,281.25,207.5195313
4.1450,912.109375,271.484375,215.8203125
4.1500,916.5039063,277.8320313,204.5898438
4.1550,926.7578125,281.7382813,208.4960938
4.1600,924.8046875,281.7382813,209.9609375
4.1650,918.4570313,278.8085938,217.7734375
4.1700,916.5039063,266.6015625,212.890625
4.1750,930.6640625,268.5546875,200.6835938
4.1800,928.2226563,267.0898438,202.6367188
4.1850,943.8476563,281.25,207.5195313
4.1900,931.640625,272.9492188,201.171875
4.1950,922.3632813,276.8554688,191.40625
4.2000,928.2226563,293.9453125,199.21875
4.2050,923.3398438,312.9882813,195.3125
4.2100,918.9453125,333.4960938,212.890625
4.2150,919.921875,344.2382813,208.4960938
4.2200,917.4804688,335.9375,207.5195313
4.2250,921.875,319.3359375,207.03125
4.2300,915.0390625,301.2695313,213.3789063
4.2350,923.828125,315.4296875,194.8242188
4.2400,917.96875,328.6132813,198.2421875
4.2450,909.6679688,327.6367188,202.6367188
4.2500,899.4140625,313.4765625,205.078125
4.2550,900.390625,305.6640625,199.21875
4.2600,908.203125,330.5664063,189.9414063
4.2650,906.25,363.28125,178.7109375
4.2700,888.1835938,387.6953125,195.3125
4.2750,876.4648438,390.625,200.1953125
4.2800,887.6953125,389.1601563,206.5429688
4.2850,887.6953125,363.7695313,195.3125
4.2900,898.4375,363.28125,206.0546875
4.2950,898.4375,363.28125,179.1992188
4.3000,893.5546875,381.8359375,199.21875
4.3050,884.2773438,378.4179688,197.265625
4.3100,877.4414063,370.6054688,181.1523438
4.3150,871.09375,357.421875,193.8476563
4.3200,880.859375,356.9335938,186.5234375
4.3250,880.3710938,375,182.6171875
4.3300,876.4648438,399.4140625,183.59375
4.3350,872.5585938,420.8984375,193.359375
4.3400,857.9101563,406.25,213.8671875
4.3450,850.5859375,399.9023438,213.3789063
4.3500,863.7695313,402.8320313,197.265625
4.3550,877.4414063,405.7617188,193.359375
4.3600,871.09375,406.25,203.125
4.3650,872.5585938,416.015625,192.8710938
4.3700,861.8164063,424.3164063,177.2460938
4.3750,878.4179688,442.8710938,189.453125
4.3800,868.1640625,427.734375,206.0546875
4.3850,804.1992188,394.0429688,221.6796875
4.3900,783.6914063,417.4804688,191.40625
4.3950,825.1953125,479.4921875,174.8046875
4.4000,852.0507813,500,206.0546875
4.4050,852.0507813,462.4023438,218.2617188
4.4100,831.0546875,421.875,219.7265625
4.4150,831.0546875,419.4335938,203.6132813
4.4200,825.1953125,452.1484375,176.7578125
4.4250,826.6601563,489.7460938,185.0585938
4.4300,823.7304688,500.4882813,213.8671875
4.4350,812.0117188,473.1445313,203.125
4.4400,805.6640625,455.5664063,202.1484375
4.4450,820.3125,465.3320313,187.0117188
4.4500,827.1484375,500.4882813,194.8242188
4.4550,812.0117188,513.671875,206.0546875
4.4600,812.9882813,526.8554688,210.9375
4.4650,799.8046875,505.3710938,226.0742188
4.4700,801.7578125,496.09375,217.2851563
4.4750,808.59375,496.09375,202.1484375
4.4800,809.5703125,514.6484375,194.8242188
4.4850,808.59375,521.9726563,210.4492188
4.4900,804.1992188,507.8125,225.0976563
4.4950,803.7109375,504.3945313,212.890625
4.5000,802.734375,512.6953125,202.1484375
4.5050,806.1523438,531.7382813,198.7304688
4.5100,794.4335938,548.3398438,207.5195313
4.5150,790.0390625,551.7578125,222.1679688
4.5200,780.2734375,528.3203125,218.2617188
4.5250,794.921875,537.5976563,214.84375
4.5300,796.875,541.015625,211.4257813
4.5350,792.96875,548.3398438,208.4960938
4.5400,788.5742188,550.78125,223.1445313
4.5450,788.5742188,533.203125,229.4921875
4.5500,791.015625,526.3671875,229.9804688
4.5550,793.9453125,542.96875,212.890625
4.5600,791.9921875,569.8242188,219.2382813
4.5650,776.8554688,580.5664063,222.1679688
4.5700,772.4609375,580.5664063,229.4921875
4.5750,770.0195313,562.9882813,238.7695313
4.5800,780.2734375,581.0546875,229.9804688
4.5850,777.8320313,599.1210938,237.7929688
4.5900,768.0664063,622.0703125,226.0742188
4.5950,758.3007813,626.953125,231.9335938
4.6000,752.4414063,618.1640625,246.5820313
4.6050,749.5117188,614.2578125,234.8632813
4.6100,751.4648438,610.8398438,220.703125
4.6150,749.0234375,611.328125,227.0507813
4.6200,741.6992188,610.3515625,229.9804688
4.6250,740.234375,614.2578125,228.0273438
4.6300,742.6757813,628.90625,232.9101563
4.6350,737.7929688,636.71875,231.4453125
4.6400,729.4921875,641.1132813,236.328125
4.6450,732.421875,633.7890625,241.2109375
4.6500,734.375,615.234375,239.2578125
4.6550,740.7226563,609.375,235.3515625
4.6600,747.0703125,632.3242188,225.5859375
4.6650,723.6328125,646.9726563,226.0742188
4.6700,708.984375,665.0390625,248.5351563
4.6750,709.4726563,662.5976563,238.28125
4.6800,714.3554688,656.25,247.5585938
4.6850,720.2148438,653.8085938,236.328125
4.6900,725.0976563,666.015625,245.6054688
4.6950,713.3789063,667.96875,249.0234375
4.7000,696.7773438,660.15625,248.046875
4.7050,700.1953125,657.7148438,250
4.7100,702.6367188,658.6914063,236.8164063
4.7150,707.5195313,660.6445313,246.09375
4.7200,697.7539063,655.2734375,244.140625
4.7250,695.8007813,646.9726563,257.3242188
4.7300,692.3828125,643.5546875,241.6992188
4.7350,690.4296875,647.4609375,229.9804688
4.7400,689.9414063,670.4101563,250
4.7450,682.6171875,680.1757813,245.1171875
4.7500,684.5703125,704.1015625,247.0703125
4.7550,671.3867188,708.0078125,251.953125
4.7600,661.1328125,705.078125,245.1171875
4.7650,657.7148438,688.4765625,252.4414063
4.7700,653.8085938,683.1054688,224.609375
4.7750,644.0429688,681.640625,224.1210938
4.7800,634.765625,705.5664063,222.65625
4.7850,624.0234375,724.1210938,221.1914063
4.7900,604.4921875,731.4453125,237.3046875
4.7950,613.7695313,738.28125,232.9101563
4.8000,608.3984375,718.2617188,229.9804688
4.8050,621.09375,710.9375,221.1914063
4.8100,621.5820313,722.1679688,230.46875
4.8150,614.2578125,728.0273438,247.0703125
4.8200,609.8632813,732.9101563,247.0703125
4.8250,599.1210938,726.5625,240.234375
4.8300,598.6328125,722.65625,247.0703125
4.8350,605.46875,723.1445313,242.6757813
4.8400,596.1914063,733.8867188,233.3984375
4.8450,583.4960938,750,230.9570313
4.8500,564.9414063,759.2773438,225.5859375
4.8550,556.1523438,754.3945313,247.0703125
4.8600,557.1289063,747.5585938,238.7695313
4.8650,567.3828125,755.859375,248.046875
4.8700,568.8476563,754.3945313,247.5585938
4.8750,580.5664063,763.1835938,259.2773438
4.8800,565.9179688,756.3476563,267.0898438
4.8850,554.1992188,758.7890625,255.3710938
4.8900,541.5039063,779.296875,260.7421875
4.8950,544.4335938,799.8046875,257.3242188
4.9000,531.7382813,793.4570313,255.859375
4.9050,533.6914063,771.9726563,245.1171875
4.9100,524.9023438,754.3945313,255.3710938
4.9150,520.0195313,759.2773438,228.0273438
4.9200,514.1601563,792.96875,243.6523438
4.9250,520.0195313,812.9882813,247.5585938
4.9300,520.5078125,802.734375,260.7421875
4.9350,527.8320313,779.7851563,259.765625
4.9400,527.8320313,758.7890625,245.6054688
4.9450,522.4609375,754.3945313,244.6289063
4.9500,517.578125,781.25,238.28125
4.9550,502.4414063,804.6875,240.7226563
4.9600,491.6992188,824.21875,247.5585938
4.9650,478.515625,805.6640625,249.5117188
4.9700,490.234375,791.015625,264.6484375
4.9750,494.140625,778.3203125,229.0039063
4.9800,491.6992188,802.2460938,228.0273438
4.9850,482.421875,836.4257813,227.5390625
4.9900,458.0078125,856.4453125,240.234375
4.9950,448.2421875,860.8398438,240.7226563
5.0000,445.3125,848.1445313,232.421875
5.0050,453.6132813,830.078125,240.234375
5.0100,456.5429688,813.4765625,229.9804688
5.0150,450.1953125,808.59375,229.0039063
5.0200,451.171875,824.7070313,216.796875
5.0250,441.8945313,832.03125,227.5390625
5.0300,426.2695313,820.8007813,220.703125
5.0350,418.4570313,820.3125,223.6328125
5.0400,423.3398438,841.3085938,214.84375
5.0450,412.5976563,833.984375,220.2148438
5.0500,415.5273438,832.03125,233.3984375
5.0550,419.921875,829.5898438,221.1914063
5.0600,413.0859375,849.1210938,233.3984375
5.0650,402.34375,879.8828125,228.515625
5.0700,384.765625,910.15625,233.3984375
5.0750,369.6289063,918.9453125,236.328125
5.0800,361.328125,913.0859375,236.8164063
5.0850,367.1875,884.2773438,236.8164063
5.0900,373.5351563,843.2617188,233.3984375
5.0950,379.3945313,823.2421875,214.84375
5.1000,378.4179688,852.0507813,212.4023438
5.1050,356.9335938,874.0234375,218.2617188
5.1100,342.7734375,875,235.8398438
5.1150,339.3554688,856.4453125,235.8398438
5.1200,348.1445313,869.140625,230.9570313
5.1250,345.2148438,894.0429688,237.3046875
5.1300,332.03125,911.6210938,233.8867188
5.1350,315.4296875,902.8320313,246.5820313
5.1400,319.8242188,908.203125,225.0976563
5.1450,305.1757813,890.625,236.328125
5.1500,300.2929688,897.9492188,235.3515625
5.1550,295.8984375,920.4101563,237.3046875
5.1600,281.25,926.7578125,251.4648438
5.1650,279.7851563,914.5507813,246.09375
5.1700,270.9960938,895.9960938,241.6992188
5.1750,263.671875,895.5078125,220.2148438
5.1800,253.4179688,911.1328125,233.3984375
5.1850,244.6289063,923.3398438,235.8398438
5.1900,228.515625,921.3867188,224.609375
5.1950,209.4726563,921.875,216.796875
5.2000,201.171875,944.3359375,207.03125
5.2050,202.1484375,961.9140625,195.3125
5.2100,192.3828125,957.5195313,212.4023438
5.2150,207.03125,955.078125,204.5898438
5.2200,202.1484375,945.8007813,208.4960938
5.2250,189.453125,949.21875,220.2148438
5.2300,176.7578125,953.6132813,197.7539063
5.2350,172.3632813,949.7070313,214.3554688
5.2400,171.875,941.8945313,189.9414063
5.2450,170.4101563,911.6210938,200.1953125
5.2500,179.1992188,896.9726563,193.8476563
5.2550,184.0820313,902.8320313,191.8945313
5.2600,176.2695313,918.4570313,199.21875
5.2650,172.8515625,939.453125,221.6796875
5.2700,172.8515625,954.5898438,227.0507813
5.2750,177.2460938,957.5195313,231.9335938
5.2800,177.2460938,966.796875,248.5351563
5.2850,181.1523438,978.515625,237.7929688
5.2900,153.3203125,981.4453125,256.3476563
5.2950,149.9023438,1000.976563,252.4414063
5.3000,139.6484375,991.6992188,251.4648438
5.3050,141.6015625,976.0742188,265.1367188
5.3100,140.625,953.6132813,251.953125
5.3150,145.9960938,925.78125,245.6054688
5.3200,145.9960938,910.6445313,234.375
5.3250,134.2773438,912.109375,231.9335938
5.3300,123.046875,975.0976563,220.703125
5.3350,80.56640625,1030.273438,245.1171875
5.3400,66.89453125,1050.292969,261.2304688
5.3450,68.359375,1003.90625,275.8789063
5.3500,98.14453125,961.4257813,274.9023438
5.3550,108.8867188,948.7304688,254.3945313
5.3600,95.703125,955.078125,235.8398438
5.3650,76.171875,956.0546875,234.8632813
5.3700,58.10546875,934.5703125,233.8867188
5.3750,62.5,925.2929688,213.8671875
5.3800,61.5234375,939.453125,208.984375
5.3850,40.52734375,965.8203125,214.84375
5.3900,41.015625,1008.300781,221.1914063
5.3950,30.2734375,1030.273438,234.8632813
5.4000,20.99609375,1028.320313,228.0273438
5.4050,18.5546875,1028.808594,223.6328125
5.4100,5.859375,1028.320313,229.0039063
5.4150,-9.765625,1020.019531,228.515625
5.4200,-14.6484375,991.2109375,226.5625
5.4250,-11.23046875,950.1953125,204.1015625
5.4300,3.90625,907.7148438,209.9609375
5.4350,9.27734375,898.9257813,184.5703125
5.4400,-11.23046875,921.875,174.8046875
5.4450,-25.87890625,977.0507813,192.8710938
5.4500,-65.91796875,1008.300781,203.6132813
5.4550,-67.87109375,1008.789063,207.5195313
5.4600,-67.3828125,977.5390625,213.3789063
5.4650,-46.875,986.8164063,201.171875
5.4700,-54.6875,1004.882813,195.8007813
5.4750,-54.6875,1020.996094,208.4960938
5.4800,-71.77734375,1008.300781,201.171875
5.4850,-89.35546875,958.984375,204.1015625
5.4900,-83.0078125,945.8007813,193.8476563
5.4950,-89.84375,964.84375,187.9882813
5.5000,-103.515625,987.3046875,224.609375
5.5050,-111.8164063,971.6796875,220.703125
5.5100,-107.9101563,956.0546875,222.65625
5.5150,-112.7929688,940.9179688,224.1210938
5.5200,-124.0234375,952.6367188,211.9140625
5.5250,-139.1601563,961.9140625,211.9140625
5.5300,-152.34375,985.3515625,194.3359375
5.5350,-173.3398438,1014.648438,195.8007813
5.5400,-169.921875,1054.6875,213.3789063
5.5450,-181.1523438,1043.457031,213.8671875
5.5500,-177.734375,1018.066406,215.3320313
5.5550,-194.8242188,974.609375,220.2148438
5.5600,-196.2890625,959.4726563,226.0742188
5.5650,-195.8007813,942.8710938,213.8671875
5.5700,-198.7304688,926.2695313,194.3359375
5.5750,-216.3085938,923.828125,175.78125
5.5800,-227.0507813,953.125,186.0351563
5.5850,-223.1445313,976.5625,190.9179688
5.5900,-222.65625,975.5859375,215.8203125
5.5950,-223.6328125,956.0546875,211.9140625
5.6000,-220.2148438,956.0546875,198.2421875
5.6050,-230.46875,976.0742188,188.9648438
5.6100,-233.8867188,996.09375,192.8710938
5.6150,-254.3945313,1011.230469,186.0351563
5.6200,-259.765625,1039.0625,187.0117188
5.6250,-267.578125,1054.6875,203.125
5.6300,-278.8085938,1041.992188,208.4960938
5.6350,-279.296875,1012.207031,212.890625
5.6400,-278.8085938,959.4726563,215.3320313
5.6450,-272.9492188,926.2695313,196.2890625
5.6500,-274.9023438,917.96875,204.5898438
5.6550,-289.5507813,924.8046875,189.453125
5.6600,-304.6875,921.875,202.6367188
5.6650,-313.4765625,920.4101563,199.21875
5.6700,-309.5703125,922.3632813,206.5429688
5.6750,-300.78125,938.9648438,199.21875
5.6800,-311.5234375,959.9609375,197.265625
5.6850,-327.6367188,976.0742188,196.2890625
5.6900,-312.9882813,990.7226563,211.9140625
5.6950,-317.8710938,965.8203125,198.7304688
5.7000,-332.5195313,946.2890625,199.21875
5.7050,-342.7734375,954.1015625,196.7773438
5.7100,-350.5859375,981.4453125,199.21875
5.7150,-356.9335938,982.421875,215.8203125
5.7200,-360.3515625,945.8007813,220.703125
5.7250,-354.0039063,904.7851563,224.1210938
5.7300,-355.9570313,880.3710938,205.078125
5.7350,-367.6757813,884.765625,194.8242188
5.7400,-376.953125,917.96875,207.03125
5.7450,-395.9960938,921.3867188,191.40625
5.7500,-407.2265625,912.109375,192.3828125
5.7550,-408.6914063,916.015625,171.875
5.7600,-402.34375,927.2460938,185.546875
5.7650,-411.6210938,919.4335938,175.78125
5.7700,-410.15625,920.4101563,164.5507813
5.7750,-417.4804688,915.5273438,158.203125
5.7800,-436.5234375,904.7851563,155.2734375
5.7850,-441.40625,894.0429688,174.8046875
5.7900,-445.3125,892.0898438,172.8515625
5.7950,-446.7773438,892.578125,177.2460938
5.8000,-458.984375,882.8125,189.453125
5.8050,-465.3320313,877.4414063,208.4960938
5.8100,-470.703125,884.765625,200.1953125
5.8150,-475.5859375,883.3007813,188.4765625
5.8200,-489.2578125,865.7226563,177.734375
5.8250,-479.9804688,866.6992188,164.5507813
5.8300,-490.7226563,854.0039063,164.5507813
5.8350,-497.0703125,854.0039063,137.2070313
5.8400,-504.3945313,860.8398438,144.0429688
5.8450,-512.2070313,871.5820313,159.1796875
5.8500,-534.1796875,866.2109375,144.0429688
5.8550,-537.109375,884.765625,156.25
5.8600,-534.1796875,899.9023438,161.1328125
5.8650,-535.15625,884.765625,169.921875
5.8700,-534.6679688,863.7695313,196.2890625
5.8750,-545.4101563,841.796875,190.4296875
5.8800,-551.7578125,827.6367188,194.3359375
5.8850,-553.2226563,803.2226563,191.8945313
5.8900,-563.4765625,777.8320313,191.8945313
5.8950,-575.6835938,753.90625,171.3867188
5.9000,-589.3554688,760.2539063,163.0859375
5.9050,-602.0507813,788.5742188,157.7148438
5.9100,-604.9804688,820.8007813,139.6484375
5.9150,-608.3984375,830.078125,156.7382813
5.9200,-606.4453125,818.8476563,152.34375
5.9250,-603.515625,821.2890625,141.1132813
5.9300,-602.0507813,847.65625,122.5585938
5.9350,-593.2617188,868.1640625,134.2773438
5.9400,-606.4453125,840.8203125,146.9726563
5.9450,-620.1171875,805.6640625,163.0859375
5.9500,-631.3476563,776.8554688,168.9453125
5.9550,-630.3710938,764.1601563,169.4335938
5.9600,-620.1171875,754.8828125,172.8515625
5.9650,-624.5117188,738.7695313,175.2929688
5.9700,-628.4179688,733.3984375,173.3398438
5.9750,-638.671875,728.515625,172.8515625
5.9800,-648.9257813,743.1640625,167.4804688
5.9850,-652.8320313,767.0898438,151.3671875
5.9900,-664.5507813,778.3203125,142.0898438
5.9950,-664.0625,787.5976563,151.3671875
6.0000,-669.4335938,784.6679688,141.1132813
6.0050,-658.203125,804.1992188,129.8828125
6.0100,-653.3203125,815.9179688,140.625
6.0150,-658.6914063,803.7109375,147.9492188
6.0200,-672.3632813,779.296875,140.625
6.0250,-662.109375,779.296875,139.6484375
6.0300,-670.8984375,774.9023438,138.1835938
6.0350,-665.0390625,779.7851563,147.4609375
6.0400,-671.3867188,755.3710938,154.7851563
6.0450,-679.6875,724.609375,159.1796875
6.0500,-682.6171875,686.0351563,160.6445313
6.0550,-688.9648438,667.4804688,153.3203125
6.0600,-699.21875,668.9453125,136.71875
6.0650,-698.2421875,689.9414063,143.5546875
6.0700,-714.3554688,695.8007813,134.765625
6.0750,-717.2851563,712.4023438,117.6757813
6.0800,-730.9570313,721.1914063,127.4414063
6.0850,-736.8164063,713.3789063,135.2539063
6.0900,-744.6289063,710.9375,113.28125
6.0950,-738.28125,732.9101563,115.234375
6.1000,-734.8632813,746.5820313,115.7226563
6.1050,-740.234375,738.7695313,119.6289063
6.1100,-752.4414063,703.6132813,131.3476563
6.1150,-770.0195313,679.1992188,141.6015625
6.1200,-765.1367188,670.4101563,126.4648438
6.1250,-766.1132813,656.7382813,136.2304688
6.1300,-768.5546875,636.2304688,140.1367188
6.1350,-772.4609375,620.1171875,140.625
6.1400,-782.7148438,622.0703125,132.3242188
6.1450,-795.8984375,618.6523438,134.765625
6.1500,-801.2695313,639.6484375,132.8125
6.1550,-804.6875,652.34375,132.3242188
6.1600,-808.59375,657.2265625,116.2109375
6.1650,-809.5703125,673.3398438,112.3046875
6.1700,-804.6875,705.078125,105.46875
6.1750,-792.96875,703.6132813,106.4453125
6.1800,-786.1328125,689.9414063,115.7226563
6.1850,-790.0390625,671.3867188,106.9335938
6.1900,-809.0820313,644.53125,127.9296875
6.1950,-809.0820313,622.0703125,145.5078125
6.2000,-813.9648438,581.5429688,116.6992188
6.2050,-812.5,550.78125,126.953125
6.2100,-809.5703125,536.1328125,133.7890625
6.2150,-823.2421875,514.1601563,131.8359375
6.2200,-827.6367188,508.7890625,126.953125
6.2250,-841.796875,500.9765625,128.4179688
6.2300,-851.0742188,512.6953125,121.5820313
6.2350,-856.4453125,533.203125,108.8867188
6.2400,-851.5625,561.0351563,99.12109375
6.2450,-851.0742188,580.5664063,107.421875
6.2500,-854.4921875,583.984375,105.9570313
6.2550,-855.46875,584.4726563,88.37890625
6.2600,-850.5859375,588.8671875,87.890625
6.2650,-849.609375,582.5195313,80.56640625
6.2700,-848.1445313,581.5429688,79.1015625
6.2750,-858.3984375,571.7773438,86.42578125
6.2800,-871.5820313,577.1484375,97.65625
6.2850,-879.8828125,577.1484375,104.0039063
6.2900,-873.5351563,584.9609375,106.9335938
6.2950,-866.2109375,578.6132813,124.0234375
6.3000,-861.8164063,558.59375,139.1601563
6.3050,-863.7695313,531.25,125.4882813
6.3100,-865.7226563,502.4414063,143.0664063
6.3150,-877.9296875,471.6796875,126.953125
6.3200,-878.90625,458.4960938,131.3476563
6.3250,-888.1835938,446.2890625,127.9296875
6.3300,-889.6484375,455.5664063,133.7890625
6.3350,-888.671875,467.2851563,124.0234375
6.3400,-893.0664063,467.2851563,116.6992188
6.3450,-902.8320313,464.3554688,120.6054688
6.3500,-903.3203125,459.9609375,105.46875
6.3550,-900.390625,449.21875,104.4921875
6.3600,-892.0898438,450.6835938,110.3515625
6.3650,-902.34375,445.3125,115.7226563
6.3700,-911.1328125,453.6132813,106.9335938
6.3750,-908.6914063,471.6796875,104.0039063
6.3800,-924.3164063,459.9609375,125.4882813
6.3850,-916.5039063,459.9609375,123.5351563
6.3900,-916.015625,448.7304688,132.8125
6.3950,-912.109375,442.3828125,129.3945313
6.4000,-911.1328125,429.1992188,136.71875
6.4050,-922.3632813,410.15625,140.625
6.4100,-932.1289063,398.9257813,129.3945313
6.4150,-928.2226563,400.390625,119.140625
6.4200,-915.5273438,412.109375,121.09375
6.4250,-915.0390625,412.5976563,125.4882813
6.4300,-908.6914063,416.9921875,117.6757813
6.4350,-918.4570313,404.7851563,115.234375
6.4400,-916.5039063,402.8320313,119.6289063
6.4450,-915.0390625,392.578125,115.234375
6.4500,-926.2695313,387.6953125,119.6289063
6.4550,-927.2460938,397.4609375,115.7226563
6.4600,-924.8046875,413.5742188,119.6289063
6.4650,-919.921875,415.5273438,131.8359375
6.4700,-920.8984375,400.8789063,124.0234375
6.4750,-921.875,391.1132813,126.953125
6.4800,-943.8476563,374.0234375,130.859375
6.4850,-944.3359375,368.1640625,118.6523438
6.4900,-937.9882813,377.9296875,123.046875
6.4950,-946.2890625,376.4648438,122.0703125
6.5000,-944.3359375,370.1171875,129.8828125
6.5050,-939.9414063,367.1875,103.0273438
6.5100,-945.8007813,360.8398438,112.7929688
6.5150,-950.6835938,365.234375,94.7265625
6.5200,-944.8242188,379.3945313,94.23828125
6.5250,-936.5234375,389.6484375,97.65625
6.5300,-940.9179688,381.8359375,101.5625
6.5350,-945.3125,377.4414063,90.33203125
6.5400,-954.5898438,363.28125,91.30859375
6.5450,-950.1953125,360.8398438,91.796875
6.5500,-949.7070313,356.9335938,98.6328125
6.5550,-947.7539063,347.1679688,88.8671875
6.5600,-948.2421875,342.2851563,98.14453125
6.5650,-947.265625,333.984375,89.84375
6.5700,-949.7070313,327.6367188,95.703125
6.5750,-950.6835938,330.078125,97.65625
6.5800,-947.265625,336.4257813,100.0976563
6.5850,-946.2890625,333.984375,96.6796875
6.5900,-942.8710938,340.3320313,104.9804688
6.5950,-951.171875,332.03125,95.21484375
6.6000,-950.6835938,329.1015625,97.65625
6.6050,-956.0546875,321.7773438,95.21484375
6.6100,-941.8945313,330.078125,84.9609375
6.6150,-936.0351563,335.9375,86.42578125
6.6200,-933.59375,340.8203125,83.984375
6.6250,-942.8710938,333.984375,75.1953125
6.6300,-952.6367188,319.8242188,65.4296875
6.6350,-949.7070313,312.9882813,62.01171875
6.6400,-952.1484375,319.8242188,71.2890625
6.6450,-951.171875,324.21875,70.3125
6.6500,-947.265625,329.5898438,80.078125
6.6550,-955.078125,308.59375,79.58984375
6.6600,-950.1953125,316.8945313,79.1015625
6.6650,-953.125,317.3828125,87.890625
6.6700,-950.6835938,316.40625,88.8671875
6.6750,-938.4765625,320.3125,74.70703125
6.6800,-943.359375,320.3125,70.80078125
6.6850,-940.4296875,331.5429688,73.73046875
6.6900,-943.359375,331.5429688,73.2421875
6.6950,-947.265625,319.3359375,78.61328125
6.7000,-960.9375,298.828125,72.75390625
6.7050,-955.5664063,290.5273438,84.9609375
6.7100,-958.4960938,286.1328125,91.796875
6.7150,-957.5195313,276.8554688,82.03125
6.7200,-947.265625,267.578125,75.68359375
6.7250,-945.8007813,273.4375,72.265625
6.7300,-954.1015625,285.15625,71.77734375
6.7350,-955.5664063,291.9921875,69.3359375
6.7400,-965.3320313,291.9921875,83.0078125
6.7450,-958.984375,299.3164063,73.2421875
6.7500,-958.4960938,292.4804688,63.96484375
6.7550,-955.078125,296.3867188,74.70703125
6.7600,-958.984375,289.5507813,73.2421875
6.7650,-966.796875,278.8085938,68.84765625
6.7700,-963.8671875,281.25,75.68359375
6.7750,-951.171875,294.4335938,66.89453125
6.7800,-959.9609375,285.15625,68.84765625
6.7850,-955.078125,270.0195313,78.61328125
6.7900,-958.4960938,247.5585938,70.3125
6.7950,-954.5898438,236.328125,69.82421875
6.8000,-951.171875,241.6992188,62.01171875
6.8050,-951.171875,234.375,65.91796875
6.8100,-958.4960938,224.609375,66.40625
6.8150,-954.5898438,211.4257813,56.640625
6.8200,-957.03125,205.078125,61.03515625
6.8250,-963.3789063,207.5195313,59.5703125
6.8300,-977.5390625,226.0742188,61.5234375
6.8350,-963.8671875,235.3515625,77.63671875
6.8400,-962.890625,238.7695313,79.58984375
6.8450,-977.0507813,250.4882813,80.078125
6.8500,-979.4921875,265.1367188,80.078125
6.8550,-969.2382813,279.296875,90.8203125
6.8600,-978.0273438,276.8554688,88.37890625
6.8650,-980.46875,277.34375,86.9140625
6.8700,-971.6796875,275.390625,76.171875
6.8750,-969.2382813,272.4609375,85.44921875
6.8800,-964.3554688,283.6914063,72.75390625
6.8850,-970.703125,284.1796875,72.75390625
6.8900,-978.0273438,275.390625,78.125
6.8950,-975.5859375,270.9960938,70.3125
6.9000,-975.0976563,270.0195313,80.56640625
6.9050,-964.84375,274.4140625,62.98828125
6.9100,-961.4257813,279.7851563,73.2421875
6.9150,-963.3789063,270.9960938,76.171875
6.9200,-965.8203125,264.6484375,71.77734375
6.9250,-966.3085938,267.0898438,76.171875
6.9300,-963.8671875,261.2304688,70.80078125
6.9350,-959.4726563,256.8359375,72.265625
6.9400,-969.2382813,251.953125,69.3359375
6.9450,-971.6796875,250,76.171875
6.9500,-969.7265625,251.4648438,68.359375
6.9550,-974.609375,240.7226563,70.80078125
6.9600,-972.65625,255.859375,82.51953125
6.9650,-964.84375,270.9960938,67.87109375
6.9700,-975.5859375,271.9726563,87.40234375
6.9750,-982.9101563,271.484375,76.171875
6.9800,-978.515625,281.7382813,74.70703125
6.9850,-972.1679688,288.5742188,65.4296875
6.9900,-964.3554688,290.5273438,62.5
6.9950,-965.8203125,288.5742188,62.98828125
7.0000,-962.890625,288.0859375,50.78125
7.0050,-973.1445313,269.53125,63.4765625
7.0100,-971.1914063,265.1367188,62.98828125
7.0150,-975.5859375,244.6289063,62.01171875
7.0200,-982.421875,234.8632813,58.10546875
7.0250,-987.7929688,239.2578125,55.6640625
7.0300,-978.0273438,244.6289063,62.01171875
7.0350,-978.515625,240.7226563,55.17578125
7.0400,-979.9804688,242.6757813,61.03515625
7.0450,-974.609375,250.4882813,62.5
7.0500,-971.1914063,249.5117188,72.265625
7.0550,-970.2148438,249.5117188,72.75390625
7.0600,-978.515625,251.953125,70.3125
7.0650,-981.4453125,262.6953125,80.078125
7.0700,-980.9570313,268.0664063,83.0078125
7.0750,-982.421875,269.0429688,88.8671875
7.0800,-976.5625,281.7382813,80.078125
7.0850,-990.7226563,276.8554688,70.3125
7.0900,-985.3515625,281.7382813,69.82421875
7.0950,-988.28125,269.53125,77.1484375
7.1000,-984.375,265.625,63.4765625
7.1050,-975.5859375,256.3476563,47.8515625
7.1100,-973.6328125,246.5820313,40.0390625
7.1150,-970.2148438,247.5585938,41.9921875
7.1200,-965.8203125,264.1601563,53.22265625
7.1250,-965.3320313,275.390625,56.15234375
7.1300,-961.4257813,282.2265625,69.3359375
7.1350,-970.703125,279.7851563,61.5234375
7.1400,-974.609375,276.8554688,66.40625
7.1450,-969.2382813,274.4140625,75.1953125
7.1500,-978.0273438,276.8554688,75.1953125
7.1550,-978.0273438,286.1328125,68.84765625
7.1600,-976.0742188,288.0859375,79.58984375
7.1650,-981.4453125,285.15625,82.03125
7.1700,-973.6328125,291.9921875,71.2890625
7.1750,-966.796875,303.7109375,62.5
7.1800,-968.2617188,319.8242188,61.5234375
7.1850,-972.65625,328.125,57.12890625
7.1900,-975.5859375,338.3789063,62.01171875
7.1950,-975.5859375,345.703125,72.75390625
7.2000,-961.9140625,361.328125,60.05859375
7.2050,-964.84375,364.7460938,71.77734375
7.2100,-964.84375,366.6992188,70.80078125
7.2150,-960.4492188,371.5820313,58.59375
7.2200,-965.3320313,370.6054688,65.4296875
7.2250,-964.3554688,365.234375,69.3359375
7.2300,-967.7734375,366.2109375,73.73046875
7.2350,-963.8671875,367.6757813,65.91796875
7.2400,-960.4492188,363.28125,70.80078125
7.2450,-955.078125,361.328125,82.03125
7.2500,-964.3554688,351.0742188,73.2421875
7.2550,-958.984375,351.0742188,62.01171875
7.2600,-953.125,360.3515625,70.80078125
7.2650,-940.9179688,363.7695313,62.01171875
7.2700,-950.6835938,352.5390625,85.9375
7.2750,-958.4960938,343.2617188,75.68359375
7.2800,-964.3554688,348.1445313,84.47265625
7.2850,-959.4726563,366.2109375,84.9609375
7.2900,-948.7304688,384.765625,75.68359375
7.2950,-940.9179688,395.0195313,63.4765625
7.3000,-940.9179688,406.25,62.01171875
7.3050,-937.9882813,422.8515625,61.03515625
7.3100,-946.7773438,426.7578125,69.82421875
7.3150,-944.3359375,431.640625,76.66015625
7.3200,-942.3828125,445.8007813,53.22265625
7.3250,-940.4296875,458.4960938,55.6640625
7.3300,-939.453125,464.3554688,63.96484375
7.3350,-939.453125,458.0078125,64.94140625
7.3400,-929.1992188,459.4726563,61.03515625
7.3450,-934.0820313,468.2617188,61.03515625
7.3500,-929.1992188,471.6796875,71.2890625
7.3550,-918.9453125,484.8632813,68.84765625
7.3600,-916.5039063,479.9804688,69.82421875
7.3650,-924.3164063,463.8671875,85.44921875
7.3700,-929.6875,460.4492188,89.35546875
7.3750,-916.9921875,468.75,76.171875
7.3800,-912.109375,476.5625,76.171875
7.3850,-911.6210938,484.375,88.37890625
7.3900,-906.7382813,496.09375,80.56640625
7.3950,-909.6679688,481.4453125,84.9609375
7.4000,-897.9492188,485.8398438,76.171875
7.4050,-895.0195313,511.71875,60.05859375
7.4100,-893.0664063,512.6953125,72.75390625
7.4150,-895.5078125,506.3476563,69.82421875
7.4200,-894.0429688,527.8320313,72.75390625
7.4250,-897.4609375,508.3007813,75.1953125
7.4300,-893.0664063,503.90625,90.33203125
7.4350,-893.0664063,514.6484375,66.89453125
7.4400,-881.8359375,531.25,77.63671875
7.4450,-888.1835938,524.4140625,86.9140625
7.4500,-883.3007813,534.6679688,92.7734375
7.4550,-868.1640625,544.4335938,85.9375
7.4600,-871.5820313,538.5742188,72.75390625
7.4650,-870.1171875,546.3867188,89.84375
7.4700,-871.09375,556.1523438,62.5
7.4750,-870.1171875,568.359375,67.3828125
7.4800,-871.5820313,566.8945313,68.84765625
7.4850,-869.140625,570.3125,88.8671875
7.4900,-875.9765625,585.4492188,88.37890625
7.4950,-868.1640625,590.3320313,81.54296875
7.5000,-871.09375,552.2460938,99.12109375
7.5050,-870.1171875,521.9726563,84.47265625
7.5100,-869.6289063,523.4375,81.54296875
7.5150,-890.1367188,504.3945313,73.73046875
7.5200,-886.71875,524.4140625,84.47265625
7.5250,-870.1171875,559.5703125,80.078125
7.5300,-861.328125,584.9609375,78.61328125
7.5350,-850.0976563,609.8632813,83.0078125
7.5400,-843.75,612.3046875,93.75
7.5450,-831.0546875,620.6054688,83.984375
7.5500,-833.984375,622.0703125,78.125
7.5550,-829.1015625,631.3476563,74.21875
7.5600,-831.5429688,645.9960938,83.49609375
7.5650,-819.3359375,658.6914063,81.0546875
7.5700,-813.4765625,649.4140625,83.984375
7.5750,-797.8515625,649.4140625,84.9609375
7.5800,-795.8984375,647.9492188,101.5625
7.5850,-805.1757813,645.9960938,84.9609375
7.5900,-796.3867188,659.1796875,90.8203125
7.5950,-776.8554688,669.921875,89.35546875
7.6000,-766.1132813,666.5039063,99.12109375
7.6050,-757.8125,663.0859375,104.9804688
7.6100,-764.6484375,662.109375,107.9101563
7.6150,-764.1601563,666.5039063,108.8867188
7.6200,-750.4882813,682.6171875,101.5625
7.6250,-744.140625,676.7578125,87.890625
7.6300,-733.8867188,687.5,100.5859375
7.6350,-734.8632813,690.4296875,98.14453125
7.6400,-729.9804688,697.265625,95.21484375
7.6450,-720.703125,710.9375,89.35546875
7.6500,-720.2148438,721.6796875,102.5390625
7.6550,-713.3789063,723.1445313,109.375
7.6600,-712.890625,720.703125,113.7695313
7.6650,-712.890625,721.1914063,104.4921875
7.6700,-701.171875,731.9335938,112.7929688
7.6750,-690.9179688,731.9335938,99.12109375
7.6800,-690.4296875,731.4453125,108.8867188
7.6850,-700.1953125,711.4257813,98.6328125
7.6900,-708.0078125,701.171875,101.5625
7.6950,-697.265625,711.9140625,104.4921875
7.7000,-689.453125,728.515625,111.328125
7.7050,-676.2695313,765.625,116.2109375
7.7100,-687.9882813,781.25,117.6757813
7.7150,-675.78125,792.96875,130.859375
7.7200,-666.5039063,782.7148438,122.5585938
7.7250,-648.4375,792.4804688,105.46875
7.7300,-660.15625,779.7851563,114.7460938
7.7350,-679.1992188,776.3671875,108.8867188
7.7400,-672.3632813,783.203125,111.8164063
7.7450,-650.8789063,778.8085938,104.9804688
7.7500,-636.71875,769.53125,103.515625
7.7550,-623.5351563,770.5078125,83.0078125
7.7600,-613.7695313,780.2734375,100.0976563
7.7650,-619.140625,787.5976563,83.984375
7.7700,-613.28125,813.9648438,111.8164063
7.7750,-613.7695313,825.1953125,112.7929688
7.7800,-622.5585938,821.2890625,141.1132813
7.7850,-619.6289063,806.1523438,138.671875
7.7900,-605.9570313,797.3632813,141.1132813
7.7950,-600.5859375,793.9453125,130.859375
7.8000,-601.0742188,792.96875,129.8828125
7.8050,-596.6796875,796.875,123.5351563
7.8100,-587.890625,814.453125,130.3710938
7.8150,-570.8007813,803.7109375,133.7890625
7.8200,-587.890625,770.5078125,131.8359375
7.8250,-605.46875,772.9492188,128.90625
7.8300,-578.6132813,807.1289063,110.3515625
7.8350,-566.8945313,829.1015625,129.8828125
7.8400,-569.8242188,840.3320313,131.8359375
7.8450,-563.4765625,845.2148438,140.1367188
7.8500,-563.9648438,851.0742188,140.1367188
7.8550,-553.2226563,863.28125,133.3007813
7.8600,-547.8515625,875,130.859375
7.8650,-547.8515625,860.8398438,151.8554688
7.8700,-536.1328125,846.1914063,152.34375
7.8750,-532.7148438,836.4257813,161.1328125
7.8800,-533.203125,848.1445313,149.9023438
7.8850,-521.484375,868.1640625,142.578125
7.8900,-499.5117188,895.0195313,147.9492188
7.8950,-499.5117188,853.515625,166.015625
7.9000,-512.2070313,849.609375,166.5039063
7.9050,-509.765625,873.046875,151.8554688
7.9100,-481.9335938,906.7382813,151.8554688
7.9150,-462.890625,908.6914063,162.5976563
7.9200,-454.1015625,911.1328125,164.5507813
7.9250,-472.1679688,905.2734375,165.0390625
7.9300,-476.5625,919.921875,160.15625
7.9350,-470.703125,906.25,166.015625
7.9400,-462.4023438,888.1835938,172.8515625
7.9450,-432.6171875,891.1132813,136.2304688
7.9500,-423.3398438,912.109375,144.0429688
7.9550,-429.1992188,900.390625,158.6914063
7.9600,-451.6601563,901.8554688,172.3632813
7.9650,-448.7304688,926.2695313,158.203125
7.9700,-419.4335938,943.359375,164.5507813
7.9750,-411.1328125,933.59375,165.0390625
7.9800,-409.6679688,924.8046875,166.5039063
7.9850,-409.6679688,933.1054688,151.3671875
7.9900,-407.7148438,942.3828125,156.25
7.9950,-409.1796875,943.359375,156.7382813
8.0000,-406.7382813,939.9414063,176.7578125
8.0050,-397.4609375,914.0625,163.5742188
8.0100,-383.3007813,895.9960938,162.5976563
8.0150,-379.8828125,901.3671875,154.7851563
8.0200,-372.0703125,932.1289063,174.8046875
8.0250,-354.9804688,962.4023438,165.0390625
8.0300,-356.4453125,955.078125,177.2460938
8.0350,-337.890625,962.4023438,193.8476563
8.0400,-340.8203125,972.1679688,188.9648438
8.0450,-334.9609375,985.3515625,178.7109375
8.0500,-321.7773438,991.2109375,182.1289063
8.0550,-306.640625,970.703125,193.8476563
8.0600,-309.5703125,937.0117188,192.3828125
8.0650,-303.7109375,935.0585938,190.9179688
8.0700,-303.7109375,954.5898438,173.828125
8.0750,-297.3632813,955.5664063,183.1054688
8.0800,-285.15625,945.3125,194.3359375
8.0850,-278.3203125,929.1992188,201.171875
8.0900,-266.6015625,937.0117188,182.6171875
8.0950,-263.1835938,949.21875,188.9648438
8.1000,-262.6953125,956.0546875,206.0546875
8.1050,-251.4648438,955.5664063,210.9375
8.1100,-247.0703125,957.5195313,212.890625
8.1150,-245.1171875,971.1914063,206.5429688
8.1200,-244.140625,983.8867188,228.515625
8.1250,-225.5859375,977.5390625,209.4726563
8.1300,-210.9375,951.171875,226.0742188
8.1350,-212.4023438,951.171875,202.1484375
8.1400,-214.84375,971.6796875,212.890625
8.1450,-203.6132813,984.375,212.4023438
8.1500,-197.7539063,960.9375,207.03125
8.1550,-185.546875,949.21875,201.171875
8.1600,-171.875,964.3554688,205.078125
8.1650,-183.59375,964.3554688,216.3085938
8.1700,-190.9179688,975.0976563,198.2421875
8.1750,-180.1757813,976.5625,212.4023438
8.1800,-151.8554688,975.0976563,212.4023438
8.1850,-137.6953125,967.2851563,221.1914063
8.1900,-131.3476563,968.2617188,223.6328125
8.1950,-129.8828125,973.1445313,208.4960938
8.2000,-135.2539063,969.7265625,231.4453125
8.2050,-123.046875,971.6796875,227.5390625
8.2100,-117.1875,982.421875,214.84375
8.2150,-103.515625,987.7929688,234.8632813
8.2200,-100.0976563,981.9335938,234.8632813
8.2250,-88.8671875,973.6328125,227.0507813
8.2300,-71.77734375,990.7226563,217.7734375
8.2350,-77.1484375,953.6132813,230.9570313
8.2400,-114.7460938,931.640625,235.8398438
8.2450,-110.3515625,945.3125,216.3085938
8.2500,-70.80078125,953.125,207.5195313
8.2550,-34.1796875,940.4296875,219.7265625
8.2600,-20.99609375,919.921875,230.9570313
8.2650,-19.04296875,918.4570313,227.0507813
8.2700,-26.85546875,942.8710938,220.2148438
8.2750,-33.203125,957.5195313,224.609375
8.2800,-20.01953125,968.75,229.0039063
8.2850,3.41796875,959.4726563,243.6523438
8.2900,20.5078125,944.3359375,229.9804688
8.2950,32.2265625,930.1757813,240.234375
8.3000,43.45703125,939.9414063,242.6757813
8.3050,45.8984375,936.5234375,244.6289063
8.3100,54.6875,921.3867188,242.6757813
8.3150,59.08203125,913.5742188,236.328125
8.3200,61.03515625,931.1523438,224.609375
8.3250,59.08203125,954.1015625,228.515625
8.3300,58.10546875,959.9609375,230.9570313
8.3350,69.82421875,975.5859375,210.9375
8.3400,81.0546875,1039.550781,205.078125
8.3450,88.37890625,1036.621094,225.5859375
8.3500,-1.953125,913.5742188,281.7382813
8.3550,-49.31640625,871.5820313,243.1640625
8.3600,22.4609375,935.0585938,204.5898438
8.3650,71.2890625,884.2773438,229.4921875
8.3700,23.92578125,838.8671875,246.09375
8.3750,26.85546875,871.09375,208.984375
8.3800,49.31640625,927.2460938,218.75
8.3850,56.15234375,957.03125,221.6796875
8.3900,54.6875,954.1015625,233.3984375
8.3950,54.19921875,947.265625,240.234375
8.4000,73.2421875,961.9140625,208.984375
8.4050,76.66015625,956.5429688,219.7265625
8.4100,87.40234375,957.03125,240.7226563
8.4150,87.890625,956.5429688,246.09375
8.4200,90.33203125,967.2851563,248.046875
8.4250,91.796875,982.421875,256.8359375
8.4300,97.65625,974.1210938,249.5117188
8.4350,122.5585938,954.1015625,269.53125
8.4400,135.2539063,929.6875,247.5585938
8.4450,141.6015625,927.734375,253.4179688
8.4500,134.2773438,934.0820313,253.90625
8.4550,143.0664063,943.359375,267.0898438
8.4600,157.7148438,941.8945313,255.3710938
8.4650,167.4804688,933.1054688,258.7890625
8.4700,159.1796875,932.1289063,260.2539063
8.4750,177.2460938,950.6835938,261.71875
8.4800,168.4570313,956.0546875,268.0664063
8.4850,172.3632813,951.6601563,263.671875
8.4900,184.5703125,943.8476563,263.1835938
8.4950,193.8476563,942.8710938,259.2773438
8.5000,203.6132813,942.3828125,270.5078125
8.5050,228.0273438,933.59375,270.0195313
8.5100,232.9101563,900.390625,264.6484375
8.5150,250,894.53125,269.0429688
8.5200,250.4882813,905.2734375,253.90625
8.5250,260.2539063,941.40625,260.2539063
8.5300,266.1132813,966.796875,262.2070313
8.5350,273.4375,953.125,282.2265625
8.5400,296.3867188,925.78125,278.8085938
8.5450,310.546875,902.8320313,280.7617188
8.5500,312.0117188,916.015625,283.6914063
8.5550,305.1757813,944.8242188,281.25
8.5600,318.359375,960.9375,285.15625
8.5650,319.8242188,935.546875,282.7148438
8.5700,329.5898438,914.5507813,291.9921875
8.5750,333.4960938,898.4375,267.0898438
8.5800,337.4023438,900.390625,284.1796875
8.5850,333.984375,908.203125,270.9960938
8.5900,336.4257813,917.96875,283.203125
8.5950,330.078125,912.109375,287.5976563
8.6000,347.1679688,906.7382813,283.6914063
8.6050,365.7226563,895.5078125,287.5976563
8.6100,369.6289063,888.1835938,281.7382813
8.6150,370.1171875,903.8085938,287.109375
8.6200,367.6757813,920.4101563,280.7617188
8.6250,361.328125,915.5273438,293.4570313
8.6300,371.5820313,904.7851563,299.3164063
8.6350,385.7421875,884.2773438,280.2734375
8.6400,395.0195313,866.2109375,282.2265625
8.6450,396.484375,853.0273438,264.1601563
8.6500,401.8554688,825.1953125,280.2734375
8.6550,414.0625,811.0351563,268.0664063
8.6600,406.25,810.0585938,263.671875
8.6650,405.2734375,829.1015625,258.7890625
8.6700,403.8085938,839.3554688,285.15625
8.6750,416.015625,846.1914063,282.7148438
8.6800,436.0351563,872.0703125,284.6679688
8.6850,441.8945313,881.3476563,291.9921875
8.6900,443.8476563,893.5546875,298.3398438
8.6950,430.1757813,878.4179688,312.0117188
8.7000,423.828125,852.5390625,304.1992188
8.7050,438.9648438,840.3320313,294.4335938
8.7100,438.9648438,827.1484375,292.4804688
8.7150,441.40625,808.59375,279.7851563
8.7200,437.0117188,786.6210938,290.0390625
8.7250,446.7773438,791.015625,276.3671875
8.7300,464.84375,810.546875,272.9492188
8.7350,462.890625,823.7304688,262.6953125
8.7400,453.125,830.5664063,281.7382813
8.7450,443.8476563,824.7070313,276.3671875
8.7500,452.1484375,823.7304688,291.015625
8.7550,460.4492188,808.1054688,270.5078125
8.7600,471.6796875,798.828125,282.7148438
8.7650,490.234375,800.78125,284.6679688
8.7700,487.7929688,798.828125,273.4375
8.7750,486.328125,791.015625,282.2265625
8.7800,484.8632813,774.4140625,284.1796875
8.7850,490.7226563,764.1601563,275.8789063
8.7900,492.1875,748.046875,279.296875
8.7950,500.4882813,735.8398438,277.8320313
8.8000,508.7890625,722.65625,275.8789063
8.8050,512.2070313,729.9804688,288.0859375
8.8100,518.0664063,759.2773438,265.625
8.8150,518.5546875,787.5976563,272.4609375
8.8200,519.53125,805.6640625,289.0625
8.8250,519.0429688,814.453125,286.1328125
8.8300,520.0195313,815.9179688,295.8984375
8.8350,522.4609375,812.5,287.5976563
8.8400,522.9492188,797.3632813,295.8984375
8.8450,532.2265625,780.2734375,292.96875
8.8500,542.4804688,760.2539063,260.2539063
8.8550,547.3632813,739.2578125,267.0898438
8.8600,570.3125,761.2304688,256.8359375
8.8650,564.453125,721.1914063,285.15625
8.8700,499.5117188,675.78125,308.1054688
8.8750,519.53125,702.6367188,271.484375
8.8800,575.1953125,731.4453125,270.5078125
8.8850,613.7695313,739.7460938,267.578125
8.8900,582.03125,715.3320313,298.828125
8.8950,576.171875,721.1914063,290.5273438
8.9000,570.8007813,727.5390625,281.7382813
8.9050,585.4492188,743.6523438,280.2734375
8.9100,587.890625,747.0703125,280.7617188
8.9150,586.9140625,741.6992188,287.109375
8.9200,602.5390625,738.28125,292.4804688
8.9250,612.3046875,716.3085938,280.7617188
8.9300,617.6757813,710.9375,274.9023438
8.9350,613.28125,711.4257813,283.6914063
8.9400,606.9335938,702.6367188,274.4140625
8.9450,620.1171875,700.1953125,280.7617188
8.9500,633.7890625,687.5,291.5039063
8.9550,636.71875,667.4804688,289.5507813
8.9600,637.2070313,665.0390625,289.5507813
8.9650,640.1367188,685.0585938,295.4101563
8.9700,646.9726563,700.1953125,299.8046875
8.9750,643.5546875,689.453125,302.2460938
8.9800,642.578125,680.6640625,285.15625
8.9850,648.9257813,704.1015625,288.0859375
8.9900,650.390625,729.9804688,294.4335938
8.9950,646.484375,721.1914063,288.0859375
9.0000,655.7617188,722.65625,294.4335938
9.0050,663.5742188,726.5625,284.1796875
9.0100,651.3671875,716.796875,288.5742188
9.0150,654.7851563,711.4257813,292.96875
9.0200,663.5742188,689.453125,296.3867188
9.0250,674.3164063,666.9921875,281.25
9.0300,664.0625,660.6445313,274.9023438
9.0350,672.8515625,674.8046875,260.2539063
9.0400,675.2929688,673.828125,286.1328125
9.0450,690.4296875,650.390625,274.9023438
9.0500,708.4960938,626.4648438,278.8085938
9.0550,715.8203125,624.5117188,265.625
9.0600,700.6835938,622.0703125,261.2304688
9.0650,706.0546875,634.2773438,277.8320313
9.0700,709.9609375,641.1132813,286.1328125
9.0750,709.4726563,651.8554688,278.8085938
9.0800,714.84375,676.2695313,278.8085938
9.0850,708.4960938,686.0351563,294.921875
9.0900,703.125,678.2226563,288.0859375
9.0950,712.4023438,667.96875,293.4570313
9.1000,715.8203125,640.1367188,301.2695313
9.1050,730.9570313,610.3515625,308.59375
9.1100,734.375,571.7773438,300.78125
9.1150,736.8164063,551.7578125,292.96875
9.1200,733.8867188,541.015625,279.7851563
9.1250,754.3945313,547.8515625,296.3867188
9.1300,755.3710938,535.6445313,304.1992188
9.1350,754.3945313,522.9492188,298.3398438
9.1400,747.0703125,534.6679688,293.9453125
9.1450,745.1171875,546.3867188,313.9648438
9.1500,740.7226563,561.0351563,318.359375
9.1550,749.0234375,572.265625,313.4765625
9.1600,743.6523438,576.6601563,312.9882813
9.1650,748.5351563,595.703125,312.5
9.1700,732.9101563,591.3085938,305.1757813
9.1750,740.234375,579.5898438,304.6875
9.1800,748.046875,574.21875,295.4101563
9.1850,754.3945313,572.7539063,291.5039063
9.1900,756.8359375,568.8476563,295.4101563
9.1950,753.90625,557.6171875,272.9492188
9.2000,740.234375,540.0390625,290.0390625
9.2050,751.953125,530.7617188,280.7617188
9.2100,751.953125,520.9960938,255.859375
9.2150,760.7421875,532.7148438,261.2304688
9.2200,756.3476563,553.2226563,258.7890625
9.2250,756.3476563,546.875,271.9726563
9.2300,759.2773438,526.8554688,263.1835938
9.2350,762.2070313,517.0898438,251.953125
9.2400,761.71875,530.2734375,256.3476563
9.2450,762.6953125,536.1328125,263.1835938
9.2500,753.4179688,528.3203125,251.953125
9.2550,763.1835938,526.3671875,245.6054688
9.2600,772.9492188,521.484375,263.1835938
9.2650,776.3671875,514.1601563,225.5859375
9.2700,767.578125,505.3710938,248.5351563
9.2750,766.1132813,494.6289063,252.4414063
9.2800,776.3671875,496.09375,249.5117188
9.2850,786.6210938,488.28125,250.4882813
9.2900,792.4804688,481.4453125,254.3945313
9.2950,791.9921875,485.8398438,262.2070313
9.3000,798.828125,511.71875,252.4414063
9.3050,791.015625,510.7421875,270.0195313
9.3100,791.5039063,513.1835938,261.71875
9.3150,791.015625,515.1367188,260.7421875
9.3200,794.921875,513.671875,266.1132813
9.3250,799.8046875,507.8125,264.6484375
9.3300,796.3867188,496.09375,271.484375
9.3350,803.2226563,490.7226563,255.859375
9.3400,813.4765625,480.9570313,276.3671875
9.3450,819.8242188,467.7734375,255.3710938
9.3500,830.078125,472.1679688,261.2304688
9.3550,821.2890625,469.7265625,257.3242188
9.3600,822.265625,484.8632813,269.53125
9.3650,815.9179688,480.46875,273.9257813
9.3700,813.4765625,482.9101563,275.8789063
9.3750,822.7539063,476.5625,274.4140625
9.3800,829.5898438,473.6328125,284.6679688
9.3850,835.4492188,458.984375,271.484375
9.3900,833.4960938,459.4726563,273.4375
9.3950,841.796875,469.7265625,264.1601563
9.4000,849.609375,480.46875,261.2304688
9.4050,840.3320313,468.75,267.0898438
9.4100,839.3554688,465.3320313,273.9257813
9.4150,841.3085938,468.2617188,259.765625
9.4200,841.796875,482.421875,280.2734375
9.4250,844.7265625,486.328125,276.8554688
9.4300,849.609375,479.0039063,285.15625
9.4350,857.421875,469.7265625,259.765625
9.4400,864.7460938,468.2617188,273.9257813
9.4450,862.3046875,458.0078125,286.6210938
9.4500,859.375,455.078125,278.8085938
9.4550,865.234375,455.5664063,276.3671875
9.4600,867.6757813,451.171875,266.1132813
9.4650,857.421875,436.0351563,283.6914063
9.4700,859.8632813,438.4765625,270.9960938
9.4750,867.6757813,430.6640625,274.9023438
9.4800,863.28125,414.5507813,270.0195313
9.4850,866.2109375,415.0390625,282.2265625
9.4900,874.5117188,418.4570313,267.0898438
9.4950,869.140625,403.3203125,270.5078125
9.5000,858.8867188,413.0859375,269.53125
9.5050,844.2382813,420.4101563,251.953125
9.5100,838.3789063,418.9453125,260.7421875
9.5150,849.1210938,405.7617188,236.8164063
9.5200,848.6328125,398.4375,254.8828125
9.5250,850.0976563,405.7617188,243.6523438
9.5300,848.6328125,416.9921875,247.0703125
9.5350,842.2851563,410.6445313,257.8125
9.5400,850.5859375,414.5507813,258.7890625
9.5450,854.0039063,410.6445313,265.625
9.5500,845.2148438,410.15625,249.5117188
9.5550,847.65625,407.2265625,253.90625
9.5600,844.7265625,392.578125,245.6054688
9.5650,860.3515625,383.3007813,242.1875
9.5700,854.4921875,370.6054688,241.6992188
9.5750,857.9101563,384.2773438,236.8164063
9.5800,859.8632813,399.4140625,242.6757813
9.5850,847.1679688,388.671875,254.8828125
9.5900,849.1210938,395.5078125,241.6992188
9.5950,852.0507813,405.2734375,229.9804688
9.6000,835.9375,393.5546875,248.046875
9.6050,841.796875,415.5273438,227.5390625
9.6100,849.609375,439.453125,235.3515625
9.6150,857.421875,427.2460938,257.3242188
9.6200,848.1445313,406.25,232.421875
9.6250,844.2382813,395.0195313,233.8867188
9.6300,857.9101563,390.1367188,231.4453125
9.6350,871.09375,378.90625,230.46875
9.6400,864.7460938,376.4648438,221.1914063
9.6450,868.1640625,374.5117188,230.46875
9.6500,876.953125,372.0703125,224.609375
9.6550,875.4882813,365.234375,233.3984375
9.6600,892.0898438,367.6757813,229.4921875
9.6650,883.7890625,355.9570313,227.5390625
9.6700,876.4648438,367.6757813,235.3515625
9.6750,875,380.859375,237.3046875
9.6800,886.2304688,396.9726563,260.2539063
9.6850,878.4179688,371.09375,271.484375
9.6900,874.0234375,357.9101563,261.71875
9.6950,874.5117188,353.0273438,260.7421875
9.7000,881.3476563,364.7460938,263.671875
9.7050,865.7226563,354.9804688,261.2304688
9.7100,868.6523438,329.1015625,257.3242188
9.7150,900.8789063,316.8945313,257.8125
9.7200,927.2460938,336.4257813,261.71875
9.7250,924.8046875,353.0273438,281.25
9.7300,918.9453125,388.671875,281.7382813
9.7350,899.9023438,390.625,296.875
9.7400,875.4882813,368.1640625,297.3632813
9.7450,887.2070313,375.4882813,273.9257813
9.7500,895.0195313,383.3007813,267.0898438
9.7550,895.0195313,357.421875,265.1367188
9.7600,896.484375,323.2421875,265.625
9.7650,901.3671875,312.5,240.234375
9.7700,898.4375,324.21875,220.703125
9.7750,895.5078125,324.7070313,231.9335938
9.7800,894.0429688,341.796875,215.3320313
9.7850,896.484375,348.6328125,215.8203125
9.7900,887.6953125,368.6523438,217.2851563
9.7950,883.7890625,385.2539063,194.3359375
9.8000,875,390.625,223.6328125
9.8050,882.3242188,394.53125,189.453125
9.8100,873.5351563,386.2304688,205.5664063
9.8150,882.3242188,369.6289063,202.6367188
9.8200,889.6484375,352.0507813,204.5898438
9.8250,905.2734375,348.1445313,195.3125
9.8300,914.0625,330.5664063,192.3828125
9.8350,914.5507813,309.0820313,173.3398438
9.8400,915.0390625,316.8945313,194.8242188
9.8450,915.0390625,335.9375,201.171875
9.8500,913.5742188,366.2109375,196.7773438
9.8550,905.7617188,380.3710938,213.3789063
9.8600,899.4140625,381.3476563,223.1445313
9.8650,892.0898438,357.9101563,224.609375
9.8700,901.8554688,344.2382813,221.6796875
9.8750,917.4804688,341.796875,217.2851563
9.8800,918.4570313,342.2851563,221.6796875
9.8850,910.15625,344.7265625,235.3515625
9.8900,901.3671875,353.0273438,239.7460938
9.8950,912.5976563,371.09375,245.6054688
9.9000,903.8085938,361.8164063,261.71875
9.9050,874.5117188,347.65625,270.0195313
9.9100,891.6015625,358.8867188,262.2070313
9.9150,918.9453125,359.375,263.671875
9.9200,917.4804688,332.5195313,280.2734375
9.9250,914.5507813,308.1054688,263.1835938
9.9300,921.3867188,306.640625,262.2070313
9.9350,921.3867188,311.5234375,251.953125
9.9400,912.109375,325.6835938,268.0664063
9.9450,906.7382813,334.9609375,264.6484375
9.9500,913.0859375,341.796875,259.2773438
9.9550,906.7382813,340.3320313,263.671875
9.9600,901.8554688,347.1679688,265.625
9.9650,903.3203125,351.5625,264.6484375
9.9700,899.4140625,340.3320313,259.765625
9.9750,912.5976563,333.4960938,253.4179688
9.9800,918.4570313,338.3789063,263.1835938
9.9850,916.015625,336.9140625,261.71875
9.9900,912.5976563,331.5429688,261.2304688
9.9950,910.15625,326.171875,254.3945313
10.0000,908.6914063,333.0078125,249.5117188
10.0050,900.390625,337.4023438,252.9296875
10.0100,897.9492188,330.5664063,247.0703125
10.0150,907.2265625,340.3320313,244.6289063
10.0200,895.5078125,340.3320313,237.7929688
10.0250,891.1132813,340.8203125,244.140625
10.0300,884.765625,337.890625,231.9335938
10.0350,890.625,337.4023438,236.328125
10.0400,888.1835938,334.4726563,244.6289063
10.0450,895.5078125,335.9375,240.234375
10.0500,888.671875,344.7265625,246.5820313
10.0550,895.9960938,365.7226563,243.6523438
10.0600,892.0898438,370.1171875,242.1875
10.0650,889.6484375,354.0039063,253.90625
10.0700,878.90625,334.9609375,251.4648438
10.0750,876.953125,339.84375,234.8632813
10.0800,888.671875,356.4453125,232.421875
10.0850,890.1367188,356.4453125,250
10.0900,890.625,355.46875,242.6757813
10.0950,885.2539063,359.375,263.1835938
10.1000,877.9296875,359.8632813,242.1875
10.1050,878.90625,361.8164063,252.4414063
10.1100,882.8125,369.140625,256.8359375
10.1150,894.0429688,366.2109375,243.1640625
10.1200,881.8359375,351.0742188,260.7421875
10.1250,886.71875,360.3515625,251.4648438
10.1300,877.4414063,365.7226563,249.5117188
10.1350,881.3476563,378.90625,248.5351563
10.1400,880.859375,384.2773438,259.765625
10.1450,887.6953125,390.625,251.953125
10.1500,881.3476563,373.5351563,245.1171875
10.1550,886.2304688,367.1875,254.3945313
10.1600,881.8359375,375.4882813,242.6757813
10.1650,874.5117188,378.90625,245.1171875
10.1700,876.953125,399.9023438,245.6054688
10.1750,871.5820313,398.9257813,249.0234375
10.1800,875.9765625,404.7851563,246.09375
10.1850,872.0703125,395.5078125,242.6757813
10.1900,870.6054688,395.0195313,255.859375
10.1950,864.2578125,401.8554688,240.7226563
10.2000,864.2578125,424.3164063,241.2109375
10.2050,861.328125,434.0820313,239.7460938
10.2100,858.8867188,416.5039063,257.3242188
10.2150,857.9101563,397.4609375,248.046875
10.2200,866.6992188,384.2773438,248.046875
10.2250,877.4414063,378.90625,245.6054688
10.2300,869.140625,384.2773438,249.0234375
10.2350,873.5351563,403.3203125,241.2109375
10.2400,869.140625,427.734375,232.9101563
10.2450,859.375,423.3398438,248.046875
10.2500,856.4453125,427.2460938,246.5820313
10.2550,853.515625,427.2460938,238.7695313
10.2600,857.421875,432.6171875,249.5117188
10.2650,860.8398438,434.0820313,242.6757813
10.2700,862.3046875,437.0117188,255.3710938
10.2750,864.2578125,428.7109375,249.0234375
10.2800,861.8164063,419.4335938,248.5351563
10.2850,863.7695313,415.5273438,249.5117188
10.2900,867.6757813,416.015625,235.8398438
10.2950,872.0703125,420.4101563,233.8867188
10.3000,865.7226563,429.1992188,248.046875
10.3050,850.0976563,423.828125,243.6523438
10.3100,851.5625,446.2890625,231.9335938
10.3150,854.9804688,466.3085938,235.3515625
10.3200,846.1914063,474.609375,236.8164063
10.3250,846.1914063,486.8164063,236.328125
10.3300,844.2382813,480.46875,242.6757813
10.3350,840.3320313,466.3085938,233.8867188
10.3400,843.75,477.0507813,220.2148438
10.3450,838.3789063,479.4921875,198.7304688
10.3500,833.4960938,490.234375,220.2148438
10.3550,818.359375,478.515625,207.5195313
10.3600,814.453125,477.5390625,217.7734375
10.3650,824.7070313,481.9335938,203.125
10.3700,830.5664063,486.328125,209.9609375
10.3750,835.9375,496.09375,220.2148438
10.3800,820.8007813,502.9296875,207.5195313
10.3850,816.40625,505.3710938,210.4492188
10.3900,822.265625,520.5078125,195.8007813
10.3950,820.8007813,509.765625,216.796875
10.4000,816.8945313,509.765625,199.7070313
10.4050,812.0117188,506.8359375,191.40625
10.4100,820.8007813,519.53125,210.4492188
10.4150,809.5703125,505.859375,198.2421875
10.4200,810.0585938,500,201.6601563
10.4250,821.7773438,502.9296875,200.6835938
10.4300,827.1484375,523.9257813,209.4726563
10.4350,820.8007813,540.0390625,196.2890625
10.4400,806.640625,556.640625,199.7070313
10.4450,785.15625,555.6640625,212.4023438
10.4500,796.3867188,567.3828125,208.984375
10.4550,804.1992188,560.546875,215.3320313
10.4600,802.734375,551.7578125,206.5429688
10.4650,800.2929688,552.2460938,210.4492188
10.4700,789.5507813,559.0820313,201.171875
10.4750,782.2265625,561.5234375,194.8242188
10.4800,769.53125,552.734375,196.7773438
10.4850,770.0195313,565.4296875,189.453125
10.4900,775.8789063,572.7539063,199.7070313
10.4950,769.0429688,568.359375,194.3359375
10.5000,771.9726563,564.453125,196.7773438
10.5050,776.8554688,551.7578125,191.40625
10.5100,783.203125,554.1992188,196.7773438
10.5150,783.203125,556.640625,187.0117188
10.5200,785.6445313,565.4296875,190.4296875
10.5250,772.4609375,565.9179688,192.3828125
10.5300,764.1601563,567.3828125,188.4765625
10.5350,766.1132813,574.21875,198.2421875
10.5400,767.578125,593.2617188,190.9179688
10.5450,757.8125,601.0742188,202.6367188
10.5500,751.953125,607.421875,187.9882813
10.5550,751.953125,600.0976563,207.03125
10.5600,755.3710938,596.1914063,199.21875
10.5650,755.859375,587.890625,196.2890625
10.5700,753.4179688,572.265625,202.6367188
10.5750,755.859375,574.7070313,192.8710938
10.5800,742.6757813,564.9414063,200.6835938
10.5850,740.7226563,576.6601563,200.1953125
10.5900,730.46875,589.84375,209.9609375
10.5950,729.9804688,605.46875,204.1015625
10.6000,731.9335938,618.1640625,205.078125
10.6050,731.9335938,624.5117188,211.9140625
10.6100,729.4921875,620.1171875,211.9140625
10.6150,736.8164063,628.4179688,209.9609375
10.6200,727.5390625,624.5117188,212.890625
10.6250,719.2382813,627.4414063,216.3085938
10.6300,718.75,625.9765625,214.3554688
10.6350,715.3320313,614.2578125,208.984375
10.6400,707.5195313,615.234375,209.4726563
10.6450,699.7070313,622.0703125,202.1484375
10.6500,698.7304688,642.0898438,216.3085938
10.6550,697.7539063,645.5078125,200.6835938
10.6600,697.7539063,643.5546875,220.2148438
10.6650,701.171875,636.71875,215.3320313
10.6700,702.1484375,638.671875,226.5625
10.6750,705.078125,657.2265625,219.2382813
10.6800,694.3359375,674.8046875,228.515625
10.6850,684.0820313,688.4765625,220.703125
10.6900,666.9921875,687.5,227.0507813
10.6950,672.8515625,696.7773438,236.8164063
10.7000,668.9453125,697.265625,229.4921875
10.7050,663.5742188,690.9179688,214.3554688
10.7100,653.3203125,685.0585938,221.6796875
10.7150,661.6210938,670.8984375,213.8671875
10.7200,659.6679688,662.109375,218.2617188
10.7250,661.1328125,656.25,195.8007813
10.7300,656.25,668.9453125,201.6601563
10.7350,653.3203125,685.546875,199.21875
10.7400,639.1601563,715.3320313,203.125
10.7450,634.2773438,718.75,216.796875
10.7500,630.3710938,712.4023438,218.75
10.7550,634.765625,703.6132813,218.75
10.7600,645.9960938,711.4257813,210.4492188
10.7650,646.484375,718.2617188,223.1445313
10.7700,638.1835938,710.9375,224.1210938
10.7750,636.71875,695.8007813,223.1445313
10.7800,632.3242188,684.5703125,230.46875
10.7850,630.3710938,685.546875,221.6796875
10.7900,626.4648438,708.984375,214.3554688
10.7950,615.7226563,722.65625,217.7734375
10.8000,602.5390625,720.703125,230.9570313
10.8050,612.3046875,728.515625,226.5625
10.8100,612.7929688,728.0273438,240.234375
10.8150,617.1875,746.09375,228.0273438
10.8200,601.0742188,746.5820313,238.7695313
10.8250,592.7734375,753.4179688,239.2578125
10.8300,588.8671875,750.4882813,242.6757813
10.8350,587.890625,757.3242188,245.6054688
10.8400,582.5195313,759.765625,244.140625
10.8450,577.6367188,761.2304688,240.7226563
10.8500,569.3359375,758.3007813,246.09375
10.8550,565.4296875,752.9296875,243.6523438
10.8600,567.8710938,750.4882813,247.0703125
10.8650,576.171875,760.2539063,248.5351563
10.8700,569.3359375,778.3203125,251.953125
10.8750,566.40625,795.8984375,254.3945313
10.8800,558.1054688,805.6640625,267.0898438
10.8850,557.1289063,800.78125,262.6953125
10.8900,560.0585938,793.9453125,266.1132813
10.8950,559.0820313,787.5976563,258.7890625
10.9000,543.4570313,788.0859375,253.90625
10.9050,532.2265625,802.734375,243.6523438
10.9100,518.0664063,808.1054688,252.9296875
10.9150,509.765625,804.1992188,262.6953125
10.9200,503.4179688,804.6875,246.5820313
10.9250,514.6484375,827.1484375,260.2539063
10.9300,506.3476563,842.2851563,249.5117188
10.9350,486.8164063,828.125,252.4414063
10.9400,471.6796875,812.0117188,251.953125
10.9450,480.46875,791.5039063,246.09375
10.9500,499.0234375,783.203125,251.953125
10.9550,498.046875,789.5507813,231.4453125
10.9600,482.9101563,814.453125,237.3046875
10.9650,466.796875,843.75,247.5585938
10.9700,453.125,851.5625,243.6523438
10.9750,458.0078125,844.7265625,248.046875
10.9800,473.6328125,857.9101563,241.6992188
10.9850,475.0976563,859.8632813,232.9101563
10.9900,468.2617188,852.0507813,238.28125
10.9950,450.1953125,842.2851563,238.28125
11.0000,434.0820313,832.03125,227.0507813
11.0050,426.2695313,843.2617188,225.0976563
11.0100,425.2929688,867.1875,211.4257813
11.0150,420.4101563,870.1171875,221.1914063
11.0200,404.296875,847.1679688,240.7226563
11.0250,424.3164063,836.9140625,227.0507813
11.0300,433.59375,823.2421875,245.1171875
11.0350,443.8476563,835.9375,220.703125
11.0400,425.78125,853.0273438,235.3515625
11.0450,408.203125,866.6992188,238.28125
11.0500,389.1601563,865.234375,245.1171875
11.0550,388.1835938,857.9101563,230.9570313
11.0600,393.5546875,859.8632813,238.7695313
11.0650,392.578125,876.4648438,235.3515625
11.0700,375.9765625,894.0429688,233.8867188
11.0750,370.6054688,907.2265625,251.4648438
11.0800,358.8867188,893.0664063,242.6757813
11.0850,359.375,861.8164063,244.6289063
11.0900,357.9101563,845.703125,243.6523438
11.0950,355.9570313,850.0976563,242.1875
11.1000,338.3789063,859.375,237.7929688
11.1050,325.6835938,858.3984375,245.1171875
11.1100,334.4726563,859.375,256.8359375
11.1150,342.7734375,862.7929688,230.9570313
11.1200,339.3554688,864.2578125,255.859375
11.1250,335.4492188,879.3945313,268.5546875
11.1300,319.8242188,900.8789063,249.0234375
11.1350,308.1054688,929.6875,248.5351563
11.1400,289.5507813,957.5195313,250
11.1450,290.5273438,962.890625,268.0664063
11.1500,285.15625,920.4101563,264.1601563
11.1550,283.203125,873.046875,261.71875
11.1600,285.6445313,849.1210938,238.7695313
11.1650,280.7617188,850.5859375,236.328125
11.1700,264.6484375,875,214.3554688
11.1750,249.5117188,903.3203125,221.1914063
11.1800,230.46875,918.9453125,248.5351563
11.1850,225.0976563,912.109375,249.0234375
11.1900,231.9335938,897.9492188,278.8085938
11.1950,249.0234375,896.9726563,265.625
11.2000,260.2539063,917.4804688,266.1132813
11.2050,250.4882813,942.3828125,253.90625
11.2100,234.8632813,955.078125,263.1835938
11.2150,209.4726563,948.7304688,235.8398438
11.2200,188.9648438,943.8476563,229.4921875
11.2250,185.546875,940.4296875,224.1210938
11.2300,183.1054688,936.0351563,226.0742188
11.2350,186.5234375,943.8476563,220.2148438
11.2400,188.9648438,964.3554688,220.2148438
11.2450,175.78125,964.84375,228.515625
11.2500,161.1328125,958.984375,206.5429688
11.2550,164.5507813,956.5429688,208.0078125
11.2600,167.96875,941.40625,240.234375
11.2650,153.8085938,909.6679688,227.0507813
11.2700,156.7382813,906.7382813,227.0507813
11.2750,159.1796875,912.109375,215.3320313
11.2800,161.6210938,930.6640625,217.7734375
11.2850,161.1328125,933.1054688,227.0507813
11.2900,138.671875,946.7773438,213.3789063
11.2950,137.6953125,998.046875,199.21875
11.3000,114.2578125,1021.972656,210.4492188
11.3050,103.0273438,1022.460938,224.609375
11.3100,101.5625,1011.230469,235.3515625
11.3150,99.609375,1008.789063,228.515625
11.3200,87.40234375,1022.949219,221.1914063
11.3250,81.54296875,1031.25,225.5859375
11.3300,71.77734375,997.0703125,218.2617188
11.3350,70.80078125,950.6835938,223.1445313
11.3400,73.73046875,910.6445313,219.7265625
11.3450,77.63671875,898.4375,197.265625
11.3500,80.56640625,906.7382813,208.4960938
11.3550,80.56640625,937.5,208.0078125
11.3600,59.08203125,974.609375,198.7304688
11.3650,50.29296875,1011.71875,211.9140625
11.3700,30.76171875,1020.507813,231.9335938
11.3750,31.25,1012.695313,248.5351563
11.3800,32.71484375,995.1171875,223.6328125
11.3850,47.8515625,1000.488281,215.3320313
11.3900,43.9453125,1017.578125,220.703125
11.3950,31.25,1009.277344,236.8164063
11.4000,19.53125,990.234375,218.75
11.4050,16.11328125,969.7265625,237.3046875
11.4100,9.27734375,952.6367188,221.6796875
11.4150,6.8359375,952.1484375,213.3789063
11.4200,7.8125,964.3554688,239.7460938
11.4250,0,970.2148438,223.6328125
11.4300,-9.765625,970.703125,247.0703125
11.4350,-17.08984375,963.3789063,237.3046875
11.4400,-20.01953125,960.4492188,229.9804688
11.4450,-21.484375,975.5859375,220.703125
11.4500,-24.4140625,982.421875,223.6328125
11.4550,-28.80859375,993.6523438,230.46875
11.4600,-41.015625,1004.882813,229.9804688
11.4650,-54.19921875,1026.367188,221.6796875
11.4700,-61.03515625,1035.15625,223.6328125
11.4750,-58.59375,1012.207031,233.8867188
11.4800,-59.5703125,973.6328125,209.9609375
11.4850,-63.96484375,951.6601563,202.1484375
11.4900,-71.2890625,967.2851563,200.6835938
11.4950,-90.8203125,966.3085938,217.2851563
11.5000,-111.328125,956.5429688,220.703125
11.5050,-107.421875,962.4023438,223.1445313
11.5100,-102.5390625,967.2851563,221.6796875
11.5150,-99.609375,978.0273438,220.703125
11.5200,-116.6992188,997.5585938,222.65625
11.5250,-125,1024.902344,218.2617188
11.5300,-145.5078125,1022.460938,207.5195313
11.5350,-151.8554688,1016.113281,205.078125
11.5400,-154.7851563,1011.230469,198.2421875
11.5450,-147.9492188,1017.578125,208.4960938
11.5500,-143.0664063,1002.441406,197.7539063
11.5550,-145.0195313,973.1445313,209.9609375
11.5600,-157.7148438,956.0546875,197.7539063
11.5650,-154.296875,964.3554688,188.4765625
11.5700,-165.5273438,979.9804688,198.2421875
11.5750,-177.2460938,991.2109375,211.4257813
11.5800,-200.1953125,972.1679688,213.3789063
11.5850,-199.21875,974.1210938,221.6796875
11.5900,-218.75,960.9375,223.1445313
11.5950,-220.2148438,961.4257813,222.1679688
11.6000,-218.75,950.6835938,235.8398438
11.6050,-206.5429688,928.2226563,213.8671875
11.6100,-209.4726563,916.9921875,207.5195313
11.6150,-216.796875,924.8046875,190.9179688
11.6200,-240.7226563,953.125,170.4101563
11.6250,-242.1875,998.5351563,174.3164063
11.6300,-254.8828125,1013.671875,161.6210938
11.6350,-241.2109375,1021.484375,171.875
11.6400,-245.6054688,1006.835938,167.96875
11.6450,-257.3242188,977.0507813,185.546875
11.6500,-269.53125,937.9882813,189.9414063
11.6550,-277.34375,914.5507813,179.6875
11.6600,-279.7851563,891.6015625,183.1054688
11.6650,-291.5039063,883.3007813,184.0820313
11.6700,-292.96875,889.1601563,204.5898438
11.6750,-290.5273438,897.9492188,199.21875
11.6800,-290.5273438,907.2265625,206.0546875
11.6850,-307.6171875,921.875,214.3554688
11.6900,-318.8476563,987.7929688,204.1015625
11.6950,-333.4960938,1038.574219,203.6132813
11.7000,-337.4023438,1040.039063,208.4960938
11.7050,-323.2421875,992.1875,199.21875
11.7100,-306.1523438,949.21875,160.6445313
11.7150,-305.1757813,930.1757813,113.7695313
11.7200,-334.9609375,931.640625,130.3710938
11.7250,-349.609375,914.5507813,138.671875
11.7300,-373.5351563,874.0234375,176.2695313
11.7350,-375,879.8828125,207.5195313
11.7400,-375.9765625,904.296875,229.0039063
11.7450,-382.3242188,917.96875,228.0273438
11.7500,-392.0898438,931.640625,222.65625
11.7550,-394.0429688,918.4570313,208.4960938
11.7600,-395.9960938,892.0898438,228.515625
11.7650,-392.0898438,879.8828125,212.4023438
11.7700,-395.0195313,875.4882813,199.7070313
11.7750,-409.6679688,901.8554688,187.9882813
11.7800,-403.3203125,966.796875,151.3671875
11.7850,-397.9492188,1013.183594,144.0429688
11.7900,-395.5078125,1018.554688,161.6210938
11.7950,-396.9726563,978.0273438,149.4140625
11.8000,-417.4804688,925.2929688,158.6914063
11.8050,-441.40625,894.0429688,156.7382813
11.8100,-453.125,881.3476563,163.0859375
11.8150,-464.84375,870.6054688,158.6914063
11.8200,-470.2148438,848.1445313,164.0625
11.8250,-476.5625,830.5664063,162.109375
11.8300,-486.328125,834.9609375,180.6640625
11.8350,-488.7695313,849.609375,184.5703125
11.8400,-498.5351563,869.140625,182.6171875
11.8450,-500,877.9296875,195.3125
11.8500,-495.1171875,888.671875,177.2460938
11.8550,-483.8867188,894.53125,167.4804688
11.8600,-470.2148438,898.9257813,138.671875
11.8650,-469.2382813,895.5078125,133.3007813
11.8700,-479.9804688,889.6484375,135.2539063
11.8750,-497.0703125,876.4648438,152.34375
11.8800,-524.9023438,864.2578125,171.875
11.8850,-542.4804688,854.0039063,165.0390625
11.8900,-560.546875,813.9648438,196.7773438
11.8950,-542.96875,798.828125,174.3164063
11.9000,-543.4570313,791.5039063,172.8515625
11.9050,-556.1523438,804.1992188,171.3867188
11.9100,-560.546875,827.6367188,157.2265625
11.9150,-554.1992188,842.2851563,148.9257813
11.9200,-541.9921875,833.4960938,160.15625
11.9250,-544.4335938,815.4296875,149.4140625
11.9300,-554.1992188,799.3164063,126.953125
11.9350,-556.640625,800.2929688,123.5351563
11.9400,-568.8476563,790.0390625,145.9960938
11.9450,-579.1015625,785.15625,125.4882813
11.9500,-594.7265625,820.3125,125.4882813
11.9550,-590.3320313,877.9296875,145.9960938
11.9600,-586.9140625,893.5546875,181.1523438
11.9650,-590.8203125,860.8398438,180.6640625
11.9700,-610.3515625,779.7851563,208.0078125
11.9750,-621.5820313,793.4570313,155.2734375
11.9800,-635.7421875,812.9882813,89.84375
11.9850,-629.8828125,843.75,149.9023438
11.9900,-629.3945313,832.03125,208.0078125
11.9950,-608.8867188,832.03125,197.7539063
12.0000,-589.84375,840.3320313,127.4414063
12.0050,-611.328125,779.7851563,152.8320313
12.0100,-614.2578125,745.1171875,144.53125
12.0150,-628.4179688,757.8125,126.4648438
12.0200,-620.1171875,806.640625,126.4648438
12.0250,-650.390625,808.1054688,143.5546875
12.0300,-650.8789063,815.9179688,150.390625
12.0350,-648.9257813,816.40625,138.1835938
12.0400,-636.71875,831.5429688,137.2070313
12.0450,-638.671875,828.6132813,141.6015625
12.0500,-645.5078125,817.3828125,144.53125
12.0550,-644.0429688,796.3867188,110.3515625
12.0600,-642.0898438,792.4804688,113.7695313
12.0650,-648.9257813,771.9726563,120.1171875
12.0700,-643.0664063,760.7421875,105.46875
12.0750,-648.9257813,738.7695313,109.375
12.0800,-671.875,729.9804688,107.421875
12.0850,-679.6875,742.6757813,133.7890625
12.0900,-676.7578125,761.71875,143.0664063
12.0950,-669.4335938,776.8554688,138.1835938
12.1000,-665.5273438,786.6210938,150.390625
12.1050,-654.7851563,796.3867188,138.671875
12.1100,-657.2265625,813.9648438,130.3710938
12.1150,-654.7851563,814.9414063,136.71875
12.1200,-661.6210938,808.59375,149.9023438
12.1250,-671.875,790.0390625,141.6015625
12.1300,-673.828125,767.0898438,128.90625
12.1350,-680.1757813,761.2304688,65.91796875
12.1400,-689.9414063,770.5078125,80.078125
12.1450,-689.453125,742.6757813,122.0703125
12.1500,-689.453125,698.2421875,116.2109375
12.1550,-702.1484375,646.9726563,118.1640625
12.1600,-716.796875,617.1875,109.375
12.1650,-721.1914063,630.859375,111.8164063
12.1700,-735.8398438,663.5742188,110.8398438
12.1750,-739.2578125,703.125,104.9804688
12.1800,-752.4414063,719.7265625,119.6289063
12.1850,-744.140625,743.1640625,104.0039063
12.1900,-732.9101563,746.09375,105.9570313
12.1950,-720.2148438,733.3984375,76.171875
12.2000,-728.0273438,715.3320313,82.03125
12.2050,-736.328125,694.8242188,80.56640625
12.2100,-747.5585938,656.25,80.56640625
12.2150,-758.7890625,624.0234375,68.84765625
12.2200,-781.25,608.3984375,67.87109375
12.2250,-795.8984375,606.9335938,71.2890625
12.2300,-795.8984375,610.8398438,77.63671875
12.2350,-797.8515625,610.8398438,81.54296875
12.2400,-788.0859375,621.5820313,92.7734375
12.2450,-791.015625,621.5820313,94.7265625
12.2500,-781.7382813,634.765625,83.0078125
12.2550,-770.5078125,652.34375,81.54296875
12.2600,-779.7851563,655.2734375,81.0546875
12.2650,-788.0859375,649.9023438,87.890625
12.2700,-787.5976563,639.1601563,88.8671875
12.2750,-784.6679688,632.3242188,98.6328125
12.2800,-787.109375,620.1171875,90.8203125
12.2850,-783.203125,608.8867188,90.33203125
12.2900,-784.1796875,603.515625,107.9101563
12.2950,-799.3164063,576.6601563,105.46875
12.3000,-809.5703125,562.0117188,125.9765625
12.3050,-811.0351563,542.4804688,115.7226563
12.3100,-806.1523438,550.2929688,119.140625
12.3150,-801.2695313,552.2460938,108.8867188
12.3200,-803.2226563,566.40625,93.75
12.3250,-798.3398438,602.0507813,85.9375
12.3300,-803.2226563,631.3476563,79.1015625
12.3350,-799.3164063,652.8320313,75.1953125
12.3400,-788.0859375,658.203125,67.3828125
12.3450,-804.1992188,639.6484375,75.68359375
12.3500,-819.3359375,621.09375,82.03125
12.3550,-833.984375,599.1210938,86.42578125
12.3600,-824.21875,582.03125,97.65625
12.3650,-823.7304688,566.40625,88.8671875
12.3700,-830.5664063,566.8945313,87.40234375
12.3750,-825.6835938,586.4257813,98.6328125
12.3800,-827.1484375,597.1679688,94.23828125
12.3850,-838.8671875,583.0078125,97.65625
12.3900,-852.0507813,567.3828125,89.35546875
12.3950,-858.3984375,558.1054688,99.609375
12.4000,-862.7929688,560.0585938,107.421875
12.4050,-860.3515625,560.546875,88.8671875
12.4100,-852.5390625,575.6835938,71.77734375
12.4150,-854.4921875,580.078125,64.94140625
12.4200,-859.375,581.5429688,66.89453125
12.4250,-868.1640625,567.3828125,70.3125
12.4300,-871.5820313,556.640625,64.453125
12.4350,-882.3242188,548.3398438,68.84765625
12.4400,-885.7421875,546.3867188,86.9140625
12.4450,-876.953125,541.015625,81.54296875
12.4500,-879.3945313,530.7617188,72.265625
12.4550,-886.2304688,514.1601563,86.42578125
12.4600,-887.2070313,494.140625,80.078125
12.4650,-881.8359375,478.0273438,95.703125
12.4700,-892.0898438,448.2421875,101.0742188
12.4750,-892.578125,432.6171875,93.75
12.4800,-910.15625,415.0390625,104.4921875
12.4850,-908.6914063,434.0820313,86.9140625
12.4900,-923.3398438,456.0546875,82.51953125
12.4950,-913.0859375,499.0234375,67.87109375
12.5000,-903.8085938,527.8320313,53.7109375
12.5050,-897.4609375,543.9453125,37.59765625
12.5100,-898.4375,530.2734375,41.015625
12.5150,-908.203125,509.2773438,35.64453125
12.5200,-917.96875,500,44.921875
12.5250,-913.5742188,495.1171875,43.45703125
12.5300,-904.296875,482.421875,64.94140625
12.5350,-914.5507813,447.7539063,69.82421875
12.5400,-922.3632813,433.1054688,71.2890625
12.5450,-914.5507813,414.0625,82.03125
12.5500,-919.4335938,397.4609375,76.66015625
12.5550,-906.7382813,402.8320313,81.0546875
12.5600,-903.8085938,395.5078125,80.078125
12.5650,-909.6679688,393.0664063,75.68359375
12.5700,-925.2929688,392.0898438,86.9140625
12.5750,-929.1992188,400.390625,80.56640625
12.5800,-919.4335938,405.7617188,79.1015625
12.5850,-916.5039063,417.4804688,58.59375
12.5900,-922.3632813,421.3867188,63.4765625
12.5950,-921.875,419.921875,58.59375
12.6000,-930.1757813,411.1328125,69.3359375
12.6050,-929.6875,398.4375,52.24609375
12.6100,-924.8046875,385.7421875,52.24609375
12.6150,-923.3398438,385.7421875,50.78125
12.6200,-937.5,384.2773438,44.43359375
12.6250,-940.9179688,386.71875,44.43359375
12.6300,-942.8710938,386.71875,55.17578125
12.6350,-940.9179688,392.578125,62.01171875
12.6400,-935.0585938,400.390625,59.08203125
12.6450,-926.7578125,396.9726563,48.828125
12.6500,-922.8515625,397.4609375,53.22265625
12.6550,-913.0859375,396.484375,43.45703125
12.6600,-912.109375,407.7148438,42.96875
12.6650,-916.9921875,416.015625,34.66796875
12.6700,-918.9453125,437.9882813,49.31640625
12.6750,-909.6679688,446.7773438,41.015625
12.6800,-921.3867188,441.40625,58.10546875
12.6850,-934.0820313,433.59375,49.31640625
12.6900,-926.2695313,431.640625,45.41015625
12.6950,-920.8984375,424.8046875,41.50390625
12.7000,-931.640625,418.4570313,26.85546875
12.7050,-921.3867188,439.9414063,35.64453125
12.7100,-918.4570313,441.8945313,30.76171875
12.7150,-906.7382813,427.2460938,41.50390625
12.7200,-906.7382813,408.6914063,51.7578125
12.7250,-922.3632813,382.8125,34.1796875
12.7300,-926.7578125,367.1875,38.0859375
12.7350,-919.4335938,366.2109375,22.4609375
12.7400,-917.96875,369.140625,38.57421875
12.7450,-902.8320313,376.4648438,21.97265625
12.7500,-905.7617188,365.7226563,23.4375
12.7550,-925.78125,363.28125,25.390625
12.7600,-934.5703125,369.140625,42.48046875
12.7650,-942.8710938,382.8125,34.66796875
12.7700,-946.2890625,387.2070313,42.48046875
12.7750,-936.5234375,395.9960938,36.1328125
12.7800,-937.9882813,394.53125,37.109375
12.7850,-927.2460938,400.8789063,41.50390625
12.7900,-922.3632813,401.3671875,42.48046875
12.7950,-935.0585938,388.671875,53.7109375
12.8000,-938.9648438,395.5078125,44.921875
12.8050,-947.265625,397.4609375,41.015625
12.8100,-952.1484375,389.6484375,54.6875
12.8150,-933.1054688,394.0429688,52.734375
12.8200,-943.8476563,382.8125,56.15234375
12.8250,-958.4960938,366.2109375,53.22265625
12.8300,-964.84375,356.9335938,75.1953125
12.8350,-972.65625,340.8203125,74.21875
12.8400,-963.8671875,347.1679688,58.10546875
12.8450,-962.4023438,340.8203125,60.546875
12.8500,-959.4726563,333.0078125,53.7109375
12.8550,-958.4960938,329.5898438,55.17578125
12.8600,-967.2851563,346.6796875,47.36328125
12.8650,-966.796875,353.0273438,58.10546875
12.8700,-959.4726563,354.9804688,62.5
12.8750,-957.03125,361.8164063,38.0859375
12.8800,-963.8671875,355.9570313,62.98828125
12.8850,-962.890625,340.8203125,48.33984375
12.8900,-966.3085938,334.4726563,56.640625
12.8950,-966.796875,331.5429688,41.50390625
12.9000,-971.6796875,342.2851563,37.109375
12.9050,-965.8203125,348.6328125,41.9921875
12.9100,-962.890625,343.2617188,24.4140625
12.9150,-948.7304688,353.515625,11.71875
12.9200,-956.0546875,362.3046875,0
12.9250,-951.171875,369.6289063,2.44140625
12.9300,-937.9882813,370.1171875,13.18359375
12.9350,-936.0351563,365.7226563,2.44140625
12.9400,-935.546875,358.3984375,-11.23046875
12.9450,-937.0117188,338.8671875,-6.34765625
12.9500,-933.59375,331.0546875,-1.46484375
12.9550,-932.1289063,330.5664063,-14.16015625
12.9600,-942.8710938,341.796875,-4.39453125
12.9650,-957.03125,350.0976563,0.9765625
12.9700,-961.9140625,354.9804688,23.92578125
12.9750,-972.65625,365.234375,17.08984375
12.9800,-968.2617188,376.4648438,37.59765625
12.9850,-957.5195313,392.0898438,24.4140625
12.9900,-957.03125,408.6914063,18.5546875
12.9950,-945.3125,417.96875,34.1796875
13.0000,-932.6171875,425.2929688,28.80859375
13.0050,-927.734375,422.3632813,29.296875
13.0100,-934.0820313,397.4609375,27.34375
13.0150,-928.7109375,392.578125,26.85546875
13.0200,-935.0585938,394.0429688,33.69140625
13.0250,-931.1523438,412.109375,24.90234375
13.0300,-935.546875,415.0390625,29.296875
13.0350,-919.4335938,417.4804688,23.4375
13.0400,-902.8320313,434.0820313,11.23046875
13.0450,-912.109375,435.546875,19.04296875
13.0500,-919.4335938,452.6367188,26.85546875
13.0550,-928.7109375,459.9609375,40.0390625
13.0600,-928.7109375,457.03125,51.26953125
13.0650,-924.8046875,456.5429688,39.0625
13.0700,-921.3867188,461.4257813,29.296875
13.0750,-918.9453125,469.2382813,30.2734375
13.0800,-913.5742188,485.3515625,25.390625
13.0850,-906.25,487.3046875,39.55078125
13.0900,-894.0429688,484.8632813,39.0625
13.0950,-895.5078125,497.0703125,24.90234375
13.1000,-904.296875,509.2773438,31.73828125
13.1050,-900.8789063,523.4375,32.2265625
13.1100,-895.9960938,525.390625,40.0390625
13.1150,-895.0195313,517.0898438,27.34375
13.1200,-891.1132813,510.7421875,18.5546875
13.1250,-891.6015625,508.3007813,29.78515625
13.1300,-900.8789063,500.9765625,34.1796875
13.1350,-903.3203125,500,35.64453125
13.1400,-897.9492188,517.0898438,39.0625
13.1450,-894.0429688,525.8789063,34.1796875
13.1500,-889.6484375,540.0390625,29.78515625
13.1550,-886.71875,546.875,39.55078125
13.1600,-889.6484375,544.921875,37.59765625
13.1650,-897.4609375,538.0859375,41.015625
13.1700,-889.6484375,551.7578125,41.50390625
13.1750,-902.34375,549.3164063,41.9921875
13.1800,-900.390625,565.9179688,53.22265625
13.1850,-892.0898438,568.359375,56.15234375
13.1900,-887.6953125,559.0820313,52.734375
13.1950,-877.9296875,566.40625,56.15234375
13.2000,-863.7695313,590.3320313,39.0625
13.2050,-860.3515625,594.2382813,42.48046875
13.2100,-853.515625,611.328125,43.45703125
13.2150,-857.421875,604.9804688,54.19921875
13.2200,-858.8867188,594.2382813,49.31640625
13.2250,-856.9335938,600.0976563,59.5703125
13.2300,-863.28125,598.1445313,42.96875
13.2350,-854.0039063,605.46875,50.78125
13.2400,-848.1445313,621.09375,53.7109375
13.2450,-843.2617188,627.9296875,50.78125
13.2500,-838.3789063,634.2773438,58.59375
13.2550,-843.75,631.3476563,62.5
13.2600,-838.3789063,641.6015625,62.01171875
13.2650,-830.5664063,644.53125,60.05859375
13.2700,-828.6132813,634.765625,61.03515625
13.2750,-816.40625,641.1132813,41.9921875
13.2800,-810.0585938,642.0898438,59.08203125
13.2850,-804.1992188,654.296875,42.96875
13.2900,-799.8046875,668.4570313,49.31640625
13.2950,-794.4335938,665.5273438,53.22265625
13.3000,-792.4804688,666.9921875,51.26953125
13.3050,-795.8984375,656.25,45.41015625
13.3100,-788.0859375,664.5507813,46.38671875
13.3150,-781.7382813,665.5273438,36.62109375
13.3200,-787.109375,664.5507813,21.97265625
13.3250,-771.9726563,682.1289063,35.15625
13.3300,-769.0429688,684.5703125,9.765625
13.3350,-776.3671875,694.3359375,7.32421875
13.3400,-788.5742188,700.6835938,21.97265625
13.3450,-793.9453125,694.8242188,30.76171875
13.3500,-773.4375,707.5195313,35.64453125
13.3550,-781.25,692.8710938,32.2265625
13.3600,-769.53125,706.0546875,21.484375
13.3650,-762.2070313,700.6835938,29.78515625
13.3700,-754.3945313,709.4726563,35.15625
13.3750,-745.1171875,723.1445313,29.78515625
13.3800,-752.9296875,727.0507813,38.57421875
13.3850,-732.9101563,743.1640625,38.0859375
13.3900,-721.1914063,750.4882813,35.15625
13.3950,-711.9140625,745.6054688,35.64453125
13.4000,-704.1015625,748.5351563,28.80859375
13.4050,-701.6601563,738.7695313,15.13671875
13.4100,-694.8242188,755.3710938,21.484375
13.4150,-688.4765625,769.53125,11.23046875
13.4200,-690.9179688,777.8320313,18.5546875
13.4250,-683.59375,788.5742188,13.671875
13.4300,-674.3164063,794.921875,14.6484375
13.4350,-669.921875,782.2265625,13.671875
13.4400,-656.7382813,780.2734375,12.20703125
13.4450,-651.8554688,779.7851563,10.7421875
13.4500,-655.2734375,792.96875,6.34765625
13.4550,-645.9960938,805.6640625,16.6015625
13.4600,-630.859375,805.1757813,35.15625
13.4650,-623.5351563,803.7109375,34.66796875
13.4700,-621.09375,807.6171875,32.71484375
13.4750,-621.09375,813.4765625,29.78515625
13.4800,-614.7460938,820.3125,31.25
13.4850,-614.7460938,814.453125,26.85546875
13.4900,-607.421875,817.3828125,31.73828125
13.4950,-604.9804688,807.6171875,31.25
13.5000,-602.0507813,817.8710938,40.0390625
13.5050,-604.0039063,821.7773438,41.9921875
13.5100,-598.6328125,828.125,38.0859375
13.5150,-597.65625,820.8007813,36.1328125
13.5200,-584.4726563,832.5195313,36.1328125
13.5250,-581.0546875,847.1679688,22.94921875
13.5300,-586.9140625,854.9804688,32.2265625
13.5350,-579.5898438,858.3984375,27.34375
13.5400,-572.265625,849.609375,24.4140625
13.5450,-571.2890625,830.078125,37.109375
13.5500,-559.5703125,830.078125,28.80859375
13.5550,-553.7109375,850.5859375,26.3671875
13.5600,-556.1523438,860.8398438,36.1328125
13.5650,-556.640625,855.9570313,38.0859375
13.5700,-551.7578125,840.3320313,50.29296875
13.5750,-549.8046875,830.078125,46.38671875
13.5800,-542.4804688,836.9140625,35.64453125
13.5850,-535.6445313,850.0976563,51.26953125
13.5900,-533.203125,841.796875,51.26953125
13.5950,-526.8554688,852.5390625,51.7578125
13.6000,-514.6484375,869.6289063,68.84765625
13.6050,-520.5078125,864.7460938,65.91796875
13.6100,-508.3007813,874.0234375,58.59375
13.6150,-503.90625,876.953125,74.70703125
13.6200,-515.1367188,884.765625,59.5703125
13.6250,-510.7421875,893.0664063,57.12890625
13.6300,-498.046875,906.7382813,55.17578125
13.6350,-488.7695313,907.7148438,24.90234375
13.6400,-477.0507813,898.4375,41.015625
13.6450,-485.3515625,864.7460938,45.41015625
13.6500,-493.6523438,862.3046875,44.43359375
13.6550,-486.328125,876.4648438,45.41015625
13.6600,-480.46875,880.3710938,37.59765625
13.6650,-458.0078125,899.9023438,39.55078125
13.6700,-452.1484375,892.578125,42.96875
13.6750,-445.8007813,887.2070313,59.08203125
13.6800,-452.1484375,889.6484375,57.6171875
13.6850,-449.7070313,899.4140625,58.10546875
13.6900,-439.9414063,916.5039063,52.734375
13.6950,-422.3632813,930.6640625,63.96484375
13.7000,-418.4570313,928.7109375,62.01171875
13.7050,-401.3671875,927.2460938,60.546875
13.7100,-401.8554688,927.2460938,65.4296875
13.7150,-395.9960938,942.8710938,64.94140625
13.7200,-385.2539063,957.5195313,44.43359375
13.7250,-365.7226563,954.1015625,49.31640625
13.7300,-359.375,947.7539063,51.7578125
13.7350,-355.46875,948.7304688,45.8984375
13.7400,-356.9335938,974.1210938,47.36328125
13.7450,-360.8398438,984.375,51.7578125
13.7500,-333.984375,985.8398438,66.40625
13.7550,-318.8476563,943.8476563,60.05859375
13.7600,-311.0351563,911.6210938,54.6875
13.7650,-312.0117188,910.6445313,38.0859375
13.7700,-296.3867188,944.8242188,54.19921875
13.7750,-279.296875,949.21875,64.453125
13.7800,-267.578125,938.4765625,75.1953125
13.7850,-266.6015625,946.2890625,82.03125
13.7900,-266.1132813,979.0039063,80.56640625
13.7950,-250,1008.300781,99.609375
13.8000,-232.9101563,1005.859375,98.6328125
13.8050,-216.3085938,984.8632813,103.515625
13.8100,-220.2148438,979.0039063,102.5390625
13.8150,-213.3789063,1005.371094,100.0976563
13.8200,-211.4257813,1026.855469,103.515625
13.8250,-201.171875,1027.34375,105.9570313
13.8300,-186.5234375,1001.464844,109.8632813
13.8350,-187.5,979.0039063,109.8632813
13.8400,-199.21875,988.7695313,111.8164063
13.8450,-192.3828125,1009.765625,110.8398438
13.8500,-181.640625,1002.929688,124.0234375
13.8550,-156.7382813,976.5625,111.328125
13.8600,-142.0898438,973.1445313,93.26171875
13.8650,-138.671875,993.1640625,75.1953125
13.8700,-140.625,1013.183594,75.68359375
13.8750,-138.671875,1008.789063,92.28515625
13.8800,-128.90625,999.5117188,92.7734375
13.8850,-121.09375,1005.371094,108.8867188
13.8900,-122.5585938,1037.597656,117.1875
13.8950,-121.5820313,1057.617188,131.3476563
13.9000,-115.7226563,1044.433594,134.765625
13.9050,-103.0273438,1010.253906,134.765625
13.9100,-87.40234375,990.234375,131.3476563
13.9150,-80.56640625,985.3515625,118.1640625
13.9200,-86.42578125,986.8164063,125.9765625
13.9250,-87.890625,990.234375,147.9492188
13.9300,-82.51953125,991.2109375,149.9023438
13.9350,-77.1484375,992.6757813,143.5546875
13.9400,-74.70703125,1004.882813,148.9257813
13.9450,-66.40625,1009.765625,144.53125
13.9500,-51.7578125,1014.160156,134.765625
13.9550,-41.9921875,1006.835938,127.9296875
13.9600,-37.59765625,1020.019531,119.6289063
13.9650,-31.25,1036.621094,121.09375
13.9700,-36.62109375,1029.785156,131.3476563
13.9750,-30.2734375,1006.835938,128.4179688
13.9800,-18.06640625,989.7460938,128.90625
13.9850,-20.5078125,980.46875,128.4179688
13.9900,-13.671875,989.7460938,126.953125
13.9950,-2.9296875,999.0234375,120.6054688
14.0000,4.8828125,1006.347656,140.1367188
14.0050,-2.44140625,986.328125,156.25
14.0100,4.39453125,990.7226563,134.2773438
14.0150,12.20703125,1003.417969,134.2773438
14.0200,19.53125,1021.972656,141.6015625
14.0250,21.97265625,1009.765625,131.8359375
14.0300,23.4375,976.0742188,140.1367188
14.0350,24.90234375,971.1914063,132.8125
14.0400,22.4609375,1001.953125,137.6953125
14.0450,29.296875,1022.460938,151.3671875
14.0500,44.921875,993.1640625,150.8789063
14.0550,62.98828125,955.5664063,140.625
14.0600,70.80078125,941.8945313,135.2539063
14.0650,76.66015625,965.8203125,136.71875
14.0700,79.1015625,1002.929688,127.4414063
14.0750,82.51953125,1020.507813,132.8125
14.0800,100.5859375,1013.183594,144.0429688
14.0850,95.703125,984.375,149.9023438
14.0900,90.8203125,977.5390625,156.7382813
14.0950,93.26171875,997.0703125,150.8789063
14.1000,110.3515625,1016.601563,153.8085938
14.1050,129.3945313,989.7460938,145.5078125
14.1100,141.1132813,955.5664063,147.9492188
14.1150,148.4375,947.265625,140.625
14.1200,153.3203125,972.1679688,154.296875
14.1250,145.0195313,983.3984375,158.6914063
14.1300,157.7148438,976.5625,161.6210938
14.1350,180.6640625,957.03125,162.109375
14.1400,199.7070313,949.7070313,163.5742188
14.1450,205.078125,966.796875,156.7382813
14.1500,200.6835938,967.2851563,180.6640625
14.1550,200.6835938,957.03125,174.8046875
14.1600,215.3320313,941.40625,177.734375
14.1650,220.703125,919.4335938,179.1992188
14.1700,226.5625,916.9921875,180.1757813
14.1750,237.3046875,923.828125,181.1523438
14.1800,240.234375,914.5507813,197.265625
14.1850,253.4179688,894.53125,193.359375
14.1900,268.0664063,874.5117188,193.8476563
14.1950,280.2734375,874.0234375,176.7578125
