type,name,time_units,begin_time,frequency,count,units
signal,"Noraxon MyoMotion-Joints-Elbow RT-Flexion","s",0.0000,200,4916,"deg"

time,value
0.0000,2.351106592
0.0050,2.350523857
0.0100,2.349940977
0.0150,2.349357954
0.0200,2.348779529
0.0250,2.348213226
0.0300,2.347664827
0.0350,2.347138743
0.0400,2.34663835
0.0450,2.3461668
0.0500,2.345728548
0.0550,2.345330092
0.0600,2.34497957
0.0650,2.344686639
0.0700,2.344462866
0.0750,2.344321671
0.0800,2.344277227
0.0850,2.344342811
0.0900,2.344529699
0.0950,2.344846984
0.1000,2.345302074
0.1050,2.345901364
0.1100,2.346650726
0.1150,2.347555601
0.1200,2.348620484
0.1250,2.34984814
0.1300,2.351239373
0.1350,2.352793441
0.1400,2.354508377
0.1450,2.356380751
0.1500,2.358404681
0.1550,2.360123817
0.1600,2.362067489
0.1650,2.363999246
0.1700,2.366037386
0.1750,2.367951544
0.1800,2.369852419
0.1850,2.371592859
0.1900,2.373298039
0.1950,2.374624699
0.2000,2.37566238
0.2050,2.376561365
0.2100,2.377002336
0.2150,2.377285727
0.2200,2.37697264
0.2250,2.376322144
0.2300,2.37559352
0.2350,2.374506846
0.2400,2.373128448
0.2450,2.371308557
0.2500,2.36923255
0.2550,2.366822972
0.2600,2.364083917
0.2650,2.360998175
0.2700,2.357736482
0.2750,2.354182092
0.2800,2.350457178
0.2850,2.346572337
0.2900,2.342629329
0.2950,2.338713254
0.3000,2.334862132
0.3050,2.331160936
0.3100,2.327571472
0.3150,2.32406171
0.3200,2.320618261
0.3250,2.317333704
0.3300,2.314187241
0.3350,2.311220001
0.3400,2.308296088
0.3450,2.305576166
0.3500,2.30310218
0.3550,2.301014547
0.3600,2.299134143
0.3650,2.297615224
0.3700,2.296310104
0.3750,2.295377075
0.3800,2.294680809
0.3850,2.294259999
0.3900,2.294099494
0.3950,2.294239536
0.4000,2.29465519
0.4050,2.295132841
0.4100,2.295841878
0.4150,2.296760088
0.4200,2.297910684
0.4250,2.299116864
0.4300,2.300260277
0.4350,2.301560429
0.4400,2.302737781
0.4450,2.303935737
0.4500,2.30516038
0.4550,2.306428799
0.4600,2.307587188
0.4650,2.308824227
0.4700,2.310111467
0.4750,2.311472172
0.4800,2.312655599
0.4850,2.31381762
0.4900,2.314918353
0.4950,2.316047837
0.5000,2.317034547
0.5050,2.317993089
0.5100,2.318838231
0.5150,2.319373833
0.5200,2.31994443
0.5250,2.320439932
0.5300,2.320525342
0.5350,2.320733873
0.5400,2.320918728
0.5450,2.321315087
0.5500,2.32172087
0.5550,2.322261802
0.5600,2.322996212
0.5650,2.323905629
0.5700,2.325092063
0.5750,2.326462295
0.5800,2.32793014
0.5850,2.329825512
0.5900,2.331739066
0.5950,2.33384293
0.6000,2.336111343
0.6050,2.338593606
0.6100,2.34144748
0.6150,2.344473819
0.6200,2.348035561
0.6250,2.352121699
0.6300,2.356609743
0.6350,2.361832911
0.6400,2.367753658
0.6450,2.374392872
0.6500,2.381752036
0.6550,2.389735273
0.6600,2.398466068
0.6650,2.408156346
0.6700,2.418824835
0.6750,2.430277743
0.6800,2.442681837
0.6850,2.456231428
0.6900,2.470695764
0.6950,2.486171787
0.7000,2.50274962
0.7050,2.520478465
0.7100,2.539361402
0.7150,2.559292223
0.7200,2.580282926
0.7250,2.602244923
0.7300,2.625154262
0.7350,2.648969616
0.7400,2.674033201
0.7450,2.700050956
0.7500,2.727174699
0.7550,2.755420945
0.7600,2.784900251
0.7650,2.815290703
0.7700,2.846708753
0.7750,2.879150458
0.7800,2.912928866
0.7850,2.947876904
0.7900,2.983832876
0.7950,3.020920708
0.8000,3.059290578
0.8050,3.098810747
0.8100,3.139669822
0.8150,3.182107429
0.8200,3.22583521
0.8250,3.270999266
0.8300,3.317591129
0.8350,3.365261961
0.8400,3.414255382
0.8450,3.464101124
0.8500,3.515160432
0.8550,3.567099077
0.8600,3.62002119
0.8650,3.673797567
0.8700,3.728332562
0.8750,3.783766639
0.8800,3.840058161
0.8850,3.89686545
0.8900,3.954582796
0.8950,4.012879188
0.9000,4.071828845
0.9050,4.131482728
0.9100,4.191746566
0.9150,4.252642064
0.9200,4.313925387
0.9250,4.375555658
0.9300,4.437834735
0.9350,4.500353513
0.9400,4.56331906
0.9450,4.626709589
0.9500,4.690683706
0.9550,4.754999997
0.9600,4.819844374
0.9650,4.885154498
0.9700,4.950890133
0.9750,5.01722634
0.9800,5.084043365
0.9850,5.151095401
0.9900,5.218573368
0.9950,5.286238316
1.0000,5.354018008
1.0050,5.422146506
1.0100,5.490399526
1.0150,5.558829222
1.0200,5.627561259
1.0250,5.696855305
1.0300,5.766756858
1.0350,5.837257216
1.0400,5.908189706
1.0450,5.979749897
1.0500,6.05197865
1.0550,6.124887749
1.0600,6.198382459
1.0650,6.272931211
1.0700,6.348173447
1.0750,6.424199267
1.0800,6.501041484
1.0850,6.578463658
1.0900,6.656729149
1.0950,6.735791755
1.1000,6.815617777
1.1050,6.896289867
1.1100,6.977628876
1.1150,7.059784349
1.1200,7.142795144
1.1250,7.226696283
1.1300,7.311573329
1.1350,7.397401081
1.1400,7.484182871
1.1450,7.572171672
1.1500,7.661228914
1.1550,7.75179766
1.1600,7.843846785
1.1650,7.937579976
1.1700,8.033104458
1.1750,8.130440235
1.1800,8.229766354
1.1850,8.330941522
1.1900,8.434167408
1.1950,8.539556342
1.2000,8.647204448
1.2050,8.756911124
1.2100,8.868899729
1.2150,8.983064205
1.2200,9.099446116
1.2250,9.218109478
1.2300,9.338821639
1.2350,9.461834671
1.2400,9.587017412
1.2450,9.714305986
1.2500,9.843672864
1.2550,9.975340163
1.2600,10.10899013
1.2650,10.24462558
1.2700,10.38210341
1.2750,10.521287
1.2800,10.66229254
1.2850,10.80502478
1.2900,10.94955701
1.2950,11.0960878
1.3000,11.24418779
1.3050,11.39389737
1.3100,11.54525513
1.3150,11.69843557
1.3200,11.85329324
1.3250,12.00983936
1.3300,12.16810762
1.3350,12.32805158
1.3400,12.48975916
1.3450,12.65346589
1.3500,12.81908139
1.3550,12.98684481
1.3600,13.1566781
1.3650,13.32857296
1.3700,13.50271066
1.3750,13.67911842
1.3800,13.85756925
1.3850,14.03830246
1.3900,14.22137452
1.3950,14.40656955
1.4000,14.593944
1.4050,14.78352436
1.4100,14.97526603
1.4150,15.16893474
1.4200,15.3645096
1.4250,15.56205259
1.4300,15.76154504
1.4350,15.96322474
1.4400,16.16673816
1.4450,16.37230819
1.4500,16.5799093
1.4550,16.7893279
1.4600,17.00066208
1.4650,17.21388778
1.4700,17.42890994
1.4750,17.64578346
1.4800,17.86423408
1.4850,18.08437038
1.4900,18.30629445
1.4950,18.52976237
1.5000,18.75462911
1.5050,18.98107621
1.5100,19.20853892
1.5150,19.43740865
1.5200,19.66755063
1.5250,19.89854693
1.5300,20.13066213
1.5350,20.36346977
1.5400,20.59699686
1.5450,20.83132557
1.5500,21.06600286
1.5550,21.30089416
1.5600,21.53612212
1.5650,21.77141544
1.5700,22.00696094
1.5750,22.24241613
1.5800,22.47775595
1.5850,22.71295439
1.5900,22.94791722
1.5950,23.18247504
1.6000,23.41710079
1.6050,23.65174407
1.6100,23.88640691
1.6150,24.12113259
1.6200,24.35640859
1.6250,24.59175021
1.6300,24.82757227
1.6350,25.06393884
1.6400,25.30067483
1.6450,25.53797053
1.6500,25.77595011
1.6550,26.01436265
1.6600,26.2536934
1.6650,26.49377036
1.6700,26.73455554
1.6750,26.97614965
1.6800,27.21837932
1.6850,27.46136661
1.6900,27.70480264
1.6950,27.94861442
1.7000,28.19279009
1.7050,28.43706257
1.7100,28.68158686
1.7150,28.92609783
1.7200,29.17074947
1.7250,29.41538886
1.7300,29.66028785
1.7350,29.90515829
1.7400,30.15047705
1.7450,30.39567109
1.7500,30.64100471
1.7550,30.88653078
1.7600,31.13209812
1.7650,31.3777254
1.7700,31.62330689
1.7750,31.86872541
1.7800,32.11392877
1.7850,32.35921174
1.7900,32.60397247
1.7950,32.84849136
1.8000,33.09269131
1.8050,33.33640696
1.8100,33.57991926
1.8150,33.82248221
1.8200,34.06456528
1.8250,34.30639856
1.8300,34.54774766
1.8350,34.78881785
1.8400,35.02965079
1.8450,35.27009023
1.8500,35.51062583
1.8550,35.75146389
1.8600,35.9922869
1.8650,36.23315351
1.8700,36.47397311
1.8750,36.71492873
1.8800,36.95610874
1.8850,37.19766488
1.8900,37.43962429
1.8950,37.68191965
1.9000,37.92466029
1.9050,38.16767042
1.9100,38.41130608
1.9150,38.65544949
1.9200,38.89993912
1.9250,39.14531967
1.9300,39.39159533
1.9350,39.63887229
1.9400,39.88797701
1.9450,40.13846302
1.9500,40.3907929
1.9550,40.64517062
1.9600,40.90185131
1.9650,41.16124209
1.9700,41.42374295
1.9750,41.689193
1.9800,41.95841922
1.9850,42.23139888
1.9900,42.50826416
1.9950,42.7890043
2.0000,43.07344277
2.0050,43.36190837
2.0100,43.65421956
2.0150,43.95030604
2.0200,44.25035751
2.0250,44.55414977
2.0300,44.86159473
2.0350,45.17292318
2.0400,45.4879321
2.0450,45.80692441
2.0500,46.12937813
2.0550,46.45508079
2.0600,46.78384501
2.0650,47.11574047
2.0700,47.45049625
2.0750,47.78816425
2.0800,48.12877467
2.0850,48.4722306
2.0900,48.81815725
2.0950,49.16675049
2.1000,49.51785213
2.1050,49.8712844
2.1100,50.22741023
2.1150,50.58632499
2.1200,50.94737172
2.1250,51.31054933
2.1300,51.67578916
2.1350,52.04326968
2.1400,52.41255019
2.1450,52.78333046
2.1500,53.1558721
2.1550,53.52975069
2.1600,53.90550373
2.1650,54.2834491
2.1700,54.66314935
2.1750,55.04547158
2.1800,55.43009597
2.1850,55.81709088
2.1900,56.20618647
2.1950,56.59825477
2.2000,56.99295744
2.2050,57.39040932
2.2100,57.79015455
2.2150,58.19264562
2.2200,58.5976086
2.2250,59.00480406
2.2300,59.41414477
2.2350,59.82595376
2.2400,60.23953151
2.2450,60.65555663
2.2500,61.07323126
2.2550,61.49258548
2.2600,61.91331912
2.2650,62.33484143
2.2700,62.75724746
2.2750,63.18060979
2.2800,63.60468998
2.2850,64.02956619
2.2900,64.45529248
2.2950,64.88193359
2.3000,65.30950548
2.3050,65.737231
2.3100,66.16563273
2.3150,66.59418284
2.3200,67.02287967
2.3250,67.45185058
2.3300,67.88081283
2.3350,68.30940154
2.3400,68.73752009
2.3450,69.16525114
2.3500,69.59213304
2.3550,70.01878584
2.3600,70.44474784
2.3650,70.86964019
2.3700,71.29402288
2.3750,71.71723536
2.3800,72.13909808
2.3850,72.55907429
2.3900,72.97783084
2.3950,73.39527549
2.4000,73.81113184
2.4050,74.22590559
2.4100,74.6391469
2.4150,75.05103733
2.4200,75.46174271
2.4250,75.8712785
2.4300,76.27977227
2.4350,76.68720221
2.4400,77.09357082
2.4450,77.49928516
2.4500,77.90425615
2.4550,78.30831924
2.4600,78.710897
2.4650,79.11179175
2.4700,79.51101166
2.4750,79.9075626
2.4800,80.30182785
2.4850,80.6930423
2.4900,81.08151288
2.4950,81.4666842
2.5000,81.84917282
2.5050,82.22899176
2.5100,82.60655357
2.5150,82.98172876
2.5200,83.35498653
2.5250,83.72647848
2.5300,84.09562961
2.5350,84.46272008
2.5400,84.82795867
2.5450,85.19069759
2.5500,85.55177379
2.5550,85.91096001
2.5600,86.26844235
2.5650,86.62456279
2.5700,86.97930989
2.5750,87.33212291
2.5800,87.68284088
2.5850,88.03135762
2.5900,88.37731284
2.5950,88.72135043
2.6000,89.06295581
2.6050,89.40321662
2.6100,89.74157516
2.6150,90.0789402
2.6200,90.41480167
2.6250,90.74936013
2.6300,91.08298619
2.6350,91.4160121
2.6400,91.74874941
2.6450,92.08192412
2.6500,92.41568442
2.6550,92.74991626
2.6600,93.08506326
2.6650,93.42133729
2.6700,93.75808494
2.6750,94.09570764
2.6800,94.43385415
2.6850,94.77244434
2.6900,95.11053098
2.6950,95.44829817
2.7000,95.78645647
2.7050,96.12441721
2.7100,96.46290335
2.7150,96.80151757
2.7200,97.14020881
2.7250,97.47863369
2.7300,97.81704597
2.7350,98.15491342
2.7400,98.4929503
2.7450,98.83034761
2.7500,99.16661567
2.7550,99.50232613
2.7600,99.83780864
2.7650,100.1727421
2.7700,100.5072361
2.7750,100.8418393
2.7800,101.1767414
2.7850,101.5123782
2.7900,101.8485
2.7950,102.1849911
2.8000,102.5213016
2.8050,102.8575478
2.8100,103.1940244
2.8150,103.5305729
2.8200,103.8672839
2.8250,104.2043523
2.8300,104.5424104
2.8350,104.881354
2.8400,105.2219139
2.8450,105.5640326
2.8500,105.9074573
2.8550,106.2526282
2.8600,106.599891
2.8650,106.9489936
2.8700,107.2997394
2.8750,107.6528185
2.8800,108.0080542
2.8850,108.3661298
2.8900,108.7269072
2.8950,109.0902959
2.9000,109.4570082
2.9050,109.8255903
2.9100,110.1963462
2.9150,110.5689164
2.9200,110.9434625
2.9250,111.3198171
2.9300,111.6974838
2.9350,112.0765428
2.9400,112.4567014
2.9450,112.8370267
2.9500,113.2177989
2.9550,113.5984977
2.9600,113.9786909
2.9650,114.3582736
2.9700,114.7367584
2.9750,115.1142585
2.9800,115.4906772
2.9850,115.865704
2.9900,116.2404055
2.9950,116.6138633
3.0000,116.9855103
3.0050,117.3552802
3.0100,117.7221585
3.0150,118.0866
3.0200,118.4483095
3.0250,118.8072593
3.0300,119.1635884
3.0350,119.5174581
3.0400,119.8681068
3.0450,120.2160007
3.0500,120.5613267
3.0550,120.9034993
3.0600,121.2425044
3.0650,121.5784966
3.0700,121.9111738
3.0750,122.2403998
3.0800,122.5660458
3.0850,122.8883915
3.0900,123.2071962
3.0950,123.5231876
3.1000,123.8364396
3.1050,124.1469721
3.1100,124.4549743
3.1150,124.7599811
3.1200,125.0624921
3.1250,125.3620033
3.1300,125.6586264
3.1350,125.9523682
3.1400,126.2432032
3.1450,126.5311792
3.1500,126.8159721
3.1550,127.0978138
3.1600,127.3763415
3.1650,127.651765
3.1700,127.923746
3.1750,128.1924202
3.1800,128.4579527
3.1850,128.7200387
3.1900,128.9791063
3.1950,129.2347183
3.2000,129.4866621
3.2050,129.7359646
3.2100,129.9826255
3.2150,130.2265002
3.2200,130.4672918
3.2250,130.705181
3.2300,130.9406159
3.2350,131.1733767
3.2400,131.4035974
3.2450,131.6317215
3.2500,131.8577228
3.2550,132.0817389
3.2600,132.3041364
3.2650,132.5245508
3.2700,132.7434779
3.2750,132.9608996
3.2800,133.1763019
3.2850,133.3901152
3.2900,133.6014813
3.2950,133.8105677
3.3000,134.0174257
3.3050,134.2220321
3.3100,134.4245899
3.3150,134.6250987
3.3200,134.8231653
3.3250,135.019046
3.3300,135.2122355
3.3350,135.4028386
3.3400,135.59068
3.3450,135.7760795
3.3500,135.9587095
3.3550,136.1390312
3.3600,136.3167984
3.3650,136.4921421
3.3700,136.6651713
3.3750,136.8358905
3.3800,137.0042085
3.3850,137.1702318
3.3900,137.334256
3.3950,137.4960579
3.4000,137.6558853
3.4050,137.8133324
3.4100,137.968603
3.4150,138.121839
3.4200,138.2724533
3.4250,138.4206077
3.4300,138.5661244
3.4350,138.7091528
3.4400,138.8492009
3.4450,138.9864104
3.4500,139.1206559
3.4550,139.25156
3.4600,139.3790524
3.4650,139.50298
3.4700,139.6238475
3.4750,139.7414852
3.4800,139.8560299
3.4850,139.9675144
3.4900,140.0754293
3.4950,140.1803164
3.5000,140.2826512
3.5050,140.3820978
3.5100,140.4786942
3.5150,140.5725907
3.5200,140.6640825
3.5250,140.7535551
3.5300,140.8408972
3.5350,140.9265259
3.5400,141.0105922
3.5450,141.0933064
3.5500,141.1745948
3.5550,141.2546533
3.5600,141.3330999
3.5650,141.4104172
3.5700,141.4864722
3.5750,141.5613791
3.5800,141.6357528
3.5850,141.7093788
3.5900,141.7822697
3.5950,141.8548874
3.6000,141.9272379
3.6050,141.999372
3.6100,142.0709978
3.6150,142.1423595
3.6200,142.2141547
3.6250,142.2864366
3.6300,142.359244
3.6350,142.4325841
3.6400,142.5065646
3.6450,142.5808451
3.6500,142.6560473
3.6550,142.7315195
3.6600,142.8079309
3.6650,142.8853186
3.6700,142.9636514
3.6750,143.0430263
3.6800,143.123158
3.6850,143.2039419
3.6900,143.2851169
3.6950,143.3669849
3.7000,143.4490066
3.7050,143.5315012
3.7100,143.6135485
3.7150,143.6955085
3.7200,143.7774617
3.7250,143.8590728
3.7300,143.9396184
3.7350,144.0190381
3.7400,144.0974681
3.7450,144.1741109
3.7500,144.249347
3.7550,144.3229683
3.7600,144.394712
3.7650,144.4648257
3.7700,144.532534
3.7750,144.5979552
3.7800,144.6610719
3.7850,144.7217022
3.7900,144.7800385
3.7950,144.8362049
3.8000,144.8897598
3.8050,144.9406828
3.8100,144.9892086
3.8150,145.0352146
3.8200,145.0789533
3.8250,145.1200762
3.8300,145.1584769
3.8350,145.1941558
3.8400,145.2264727
3.8450,145.2556819
3.8500,145.2817314
3.8550,145.3049521
3.8600,145.3257454
3.8650,145.3442268
3.8700,145.3602416
3.8750,145.3739428
3.8800,145.3854096
3.8850,145.3944867
3.8900,145.4011073
3.8950,145.4052342
3.9000,145.4069866
3.9050,145.4064893
3.9100,145.404047
3.9150,145.3993601
3.9200,145.3926097
3.9250,145.3836589
3.9300,145.3726298
3.9350,145.3595152
3.9400,145.3443083
3.9450,145.3274063
3.9500,145.3085649
3.9550,145.2877091
3.9600,145.2645389
3.9650,145.2392628
3.9700,145.2115537
3.9750,145.1811914
3.9800,145.1483786
3.9850,145.1128692
3.9900,145.0747326
3.9950,145.0340255
4.0000,144.9905846
4.0050,144.944221
4.0100,144.895339
4.0150,144.8434041
4.0200,144.7884017
4.0250,144.730088
4.0300,144.6686262
4.0350,144.6039605
4.0400,144.5354876
4.0450,144.4634099
4.0500,144.3874439
4.0550,144.3075877
4.0600,144.2242948
4.0650,144.1370591
4.0700,144.0461276
4.0750,143.9511508
4.0800,143.8521888
4.0850,143.7491336
4.0900,143.6422904
4.0950,143.5308794
4.1000,143.4152188
4.1050,143.2951095
4.1100,143.1704009
4.1150,143.0412704
4.1200,142.9072957
4.1250,142.7690317
4.1300,142.6264648
4.1350,142.4794279
4.1400,142.3282061
4.1450,142.1725425
4.1500,142.0131462
4.1550,141.8495756
4.1600,141.682012
4.1650,141.5099242
4.1700,141.3336169
4.1750,141.1526633
4.1800,140.9671918
4.1850,140.7773964
4.1900,140.5835427
4.1950,140.385311
4.2000,140.1828836
4.2050,139.9762138
4.2100,139.7656353
4.2150,139.5514578
4.2200,139.3331909
4.2250,139.1111001
4.2300,138.8855714
4.2350,138.6566061
4.2400,138.424332
4.2450,138.1885681
4.2500,137.9493966
4.2550,137.707053
4.2600,137.4619298
4.2650,137.2134489
4.2700,136.9620227
4.2750,136.7076785
4.2800,136.4503205
4.2850,136.1901785
4.2900,135.9275021
4.2950,135.6619905
4.3000,135.3934703
4.3050,135.1220115
4.3100,134.8473014
4.3150,134.5689749
4.3200,134.2867319
4.3250,134.0010025
4.3300,133.7112915
4.3350,133.4174867
4.3400,133.1199609
4.3450,132.8190776
4.3500,132.51468
4.3550,132.2070086
4.3600,131.8960826
4.3650,131.5817259
4.3700,131.2643871
4.3750,130.9443946
4.3800,130.621263
4.3850,130.2956635
4.3900,129.9674536
4.3950,129.6373525
4.4000,129.3054506
4.4050,128.9719333
4.4100,128.6367444
4.4150,128.3006381
4.4200,127.9638044
4.4250,127.6265036
4.4300,127.2886796
4.4350,126.9504628
4.4400,126.61207
4.4450,126.2737522
4.4500,125.935097
4.4550,125.5963345
4.4600,125.2570655
4.4650,124.9180561
4.4700,124.5789517
4.4750,124.24049
4.4800,123.9024328
4.4850,123.5650495
4.4900,123.2283169
4.4950,122.8928565
4.5000,122.55856
4.5050,122.2254932
4.5100,121.8934094
4.5150,121.5621827
4.5200,121.2320786
4.5250,120.9028566
4.5300,120.5740628
4.5350,120.246419
4.5400,119.9196272
4.5450,119.5935963
4.5500,119.2688494
4.5550,118.9452317
4.5600,118.6224577
4.5650,118.3006234
4.5700,117.980123
4.5750,117.6609436
4.5800,117.3431565
4.5850,117.0261839
4.5900,116.709608
4.5950,116.393396
4.6000,116.077714
4.6050,115.7624485
4.6100,115.4476822
4.6150,115.1334473
4.6200,114.8199752
4.6250,114.5066823
4.6300,114.1938659
4.6350,113.8809678
4.6400,113.5675361
4.6450,113.2533059
4.6500,112.9378242
4.6550,112.6213569
4.6600,112.3027929
4.6650,111.9821597
4.6700,111.658983
4.6750,111.3331753
4.6800,111.005191
4.6850,110.6742931
4.6900,110.3403948
4.6950,110.0030451
4.7000,109.6616499
4.7050,109.3165546
4.7100,108.9677154
4.7150,108.6141369
4.7200,108.2555391
4.7250,107.89134
4.7300,107.5218418
4.7350,107.1461597
4.7400,106.7647876
4.7450,106.3773245
4.7500,105.9838328
4.7550,105.5843552
4.7600,105.1796143
4.7650,104.7692651
4.7700,104.3539401
4.7750,103.9336248
4.7800,103.5089521
4.7850,103.0803538
4.7900,102.6481008
4.7950,102.2122652
4.8000,101.7734906
4.8050,101.3325428
4.8100,100.8902609
4.8150,100.4472623
4.8200,100.0045417
4.8250,99.56167575
4.8300,99.11946129
4.8350,98.67747505
4.8400,98.23664607
4.8450,97.79730818
4.8500,97.35882992
4.8550,96.92168006
4.8600,96.48608537
4.8650,96.05166779
4.8700,95.61816448
4.8750,95.18575435
4.8800,94.75392403
4.8850,94.32350563
4.8900,93.89424681
4.8950,93.4661697
4.9000,93.03889118
4.9050,92.6127814
4.9100,92.18709533
4.9150,91.76153523
4.9200,91.33612666
4.9250,90.91099396
4.9300,90.4858795
4.9350,90.06129554
4.9400,89.63670218
4.9450,89.21183815
4.9500,88.78699644
4.9550,88.36161124
4.9600,87.93602833
4.9650,87.50998692
4.9700,87.08410515
4.9750,86.65792551
4.9800,86.23120583
4.9850,85.8043175
4.9900,85.3764804
4.9950,84.94771927
5.0000,84.51794794
5.0050,84.08744885
5.0100,83.65638829
5.0150,83.22469006
5.0200,82.79287306
5.0250,82.36064574
5.0300,81.92806422
5.0350,81.4959936
5.0400,81.06411266
5.0450,80.63236525
5.0500,80.20075125
5.0550,79.76924654
5.0600,79.33826802
5.0650,78.9076332
5.0700,78.47776445
5.0750,78.04860521
5.0800,77.61991175
5.0850,77.19148276
5.0900,76.76379847
5.0950,76.33706432
5.1000,75.91135831
5.1050,75.48668529
5.1100,75.06263779
5.1150,74.63960594
5.1200,74.21718298
5.1250,73.79661942
5.1300,73.37775979
5.1350,72.96071492
5.1400,72.54547538
5.1450,72.13250958
5.1500,71.72213042
5.1550,71.31454433
5.1600,70.90977136
5.1650,70.50844774
5.1700,70.11085904
5.1750,69.71665263
5.1800,69.32609138
5.1850,68.93921186
5.1900,68.55654382
5.1950,68.17824262
5.2000,67.80461754
5.2050,67.43508888
5.2100,67.06995785
5.2150,66.70921499
5.2200,66.35271586
5.2250,66.00000188
5.2300,65.65127539
5.2350,65.3056915
5.2400,64.96315044
5.2450,64.62299249
5.2500,64.28518642
5.2550,63.94950368
5.2600,63.61538536
5.2650,63.28283891
5.2700,62.95095496
5.2750,62.62005261
5.2800,62.29000347
5.2850,61.96036761
5.2900,61.63117224
5.2950,61.30229368
5.3000,60.9736718
5.3050,60.64480204
5.3100,60.31578609
5.3150,59.98669938
5.3200,59.65693756
5.3250,59.32662646
5.3300,58.99597058
5.3350,58.66481953
5.3400,58.33340003
5.3450,58.00168006
5.3500,57.67003546
5.3550,57.33835182
5.3600,57.00654097
5.3650,56.67385784
5.3700,56.34011723
5.3750,56.00512565
5.3800,55.66929029
5.3850,55.33251794
5.3900,54.99446967
5.3950,54.65558122
5.4000,54.31607019
5.4050,53.97599022
5.4100,53.63611518
5.4150,53.29633876
5.4200,52.95696081
5.4250,52.61778802
5.4300,52.27903122
5.4350,51.94110104
5.4400,51.60397481
5.4450,51.26735301
5.4500,50.93092346
5.4550,50.59461327
5.4600,50.25890959
5.4650,49.9235145
5.4700,49.58860727
5.4750,49.25474387
5.4800,48.92227823
5.4850,48.59134333
5.4900,48.26224359
5.4950,47.93470314
5.5000,47.60919084
5.5050,47.28561309
5.5100,46.96383142
5.5150,46.64409445
5.5200,46.32628193
5.5250,46.01081353
5.5300,45.69757927
5.5350,45.38683654
5.5400,45.0787679
5.5450,44.77354305
5.5500,44.47076997
5.5550,44.17027408
5.5600,43.87192674
5.5650,43.57547896
5.5700,43.2810617
5.5750,42.98818028
5.5800,42.69638305
5.5850,42.40545444
5.5900,42.11508188
5.5950,41.82527342
5.6000,41.53611216
5.6050,41.24717297
5.6100,40.95886702
5.6150,40.67119827
5.6200,40.38424134
5.6250,40.09817073
5.6300,39.81324883
5.6350,39.52964894
5.6400,39.24716816
5.6450,38.96578439
5.6500,38.68509203
5.6550,38.40483888
5.6600,38.12468968
5.6650,37.84495511
5.6700,37.56569368
5.6750,37.28699613
5.6800,37.00870956
5.6850,36.73127008
5.6900,36.45464643
5.6950,36.17875736
5.7000,35.90363668
5.7050,35.62906303
5.7100,35.35497228
5.7150,35.08152112
5.7200,34.80877018
5.7250,34.53681616
5.7300,34.26544207
5.7350,33.99442944
5.7400,33.7240322
5.7450,33.45423519
5.7500,33.18529332
5.7550,32.91730858
5.7600,32.64983576
5.7650,32.38328019
5.7700,32.1172637
5.7750,31.85193131
5.7800,31.58708356
5.7850,31.32246576
5.7900,31.05761632
5.7950,30.79308098
5.8000,30.52845609
5.8050,30.26427508
5.8100,30.00092943
5.8150,29.73846501
5.8200,29.47694604
5.8250,29.21661251
5.8300,28.95724655
5.8350,28.69898202
5.8400,28.44187479
5.8450,28.18586486
5.8500,27.93100659
5.8550,27.67732178
5.8600,27.42455194
5.8650,27.17305059
5.8700,26.92226881
5.8750,26.67238536
5.8800,26.42347832
5.8850,26.17571752
5.8900,25.92960999
5.8950,25.68484644
5.9000,25.44158039
5.9050,25.19992104
5.9100,24.95962641
5.9150,24.72033647
5.9200,24.48226309
5.9250,24.24517317
5.9300,24.00909336
5.9350,23.77339915
5.9400,23.53806244
5.9450,23.30344742
5.9500,23.06954757
5.9550,22.83673413
5.9600,22.60521044
5.9650,22.3748777
5.9700,22.14586089
5.9750,21.91795371
5.9800,21.69118388
5.9850,21.46521464
5.9900,21.23989806
5.9950,21.01527504
6.0000,20.7905589
6.0050,20.56587793
6.0100,20.34094977
6.0150,20.1154321
6.0200,19.8890351
6.0250,19.66178703
6.0300,19.43374466
6.0350,19.20503825
6.0400,18.97556495
6.0450,18.74558128
6.0500,18.5153831
6.0550,18.28477577
6.0600,18.05455142
6.0650,17.82447379
6.0700,17.59500341
6.0750,17.36599181
6.0800,17.13739837
6.0850,16.90955593
6.0900,16.68253019
6.0950,16.45605056
6.1000,16.23020923
6.1050,16.00490511
6.1100,15.7803217
6.1150,15.55658842
6.1200,15.33370974
6.1250,15.11175098
6.1300,14.89102713
6.1350,14.67140209
6.1400,14.45291373
6.1450,14.23571825
6.1500,14.01992673
6.1550,13.80540262
6.1600,13.59219742
6.1650,13.38011625
6.1700,13.16959453
6.1750,12.96021422
6.1800,12.75239191
6.1850,12.54600252
6.1900,12.34111331
6.1950,12.13815932
6.2000,11.93724226
6.2050,11.73892885
6.2100,11.54329675
6.2150,11.35077471
6.2200,11.16141904
6.2250,10.97544521
6.2300,10.79276027
6.2350,10.61359199
6.2400,10.4378455
6.2450,10.26519517
6.2500,10.09561575
6.2550,9.928627531
6.2600,9.764108007
6.2650,9.602077536
6.2700,9.441940653
6.2750,9.284001218
6.2800,9.128061652
6.2850,8.973995782
6.2900,8.822067439
6.2950,8.671914686
6.3000,8.524314697
6.3050,8.379116464
6.3100,8.236361941
6.3150,8.096288447
6.3200,7.959268009
6.3250,7.825119015
6.3300,7.694123642
6.3350,7.566266145
6.3400,7.441470658
6.3450,7.320091476
6.3500,7.20176272
6.3550,7.087082319
6.3600,6.975363627
6.3650,6.866857578
6.3700,6.761382767
6.3750,6.658907534
6.3800,6.55928929
6.3850,6.462261408
6.3900,6.367877718
6.3950,6.27609503
6.4000,6.186979006
6.4050,6.100252969
6.4100,6.015660512
6.4150,5.933305851
6.4200,5.853171601
6.4250,5.775083668
6.4300,5.699237943
6.4350,5.625668338
6.4400,5.554394949
6.4450,5.485160832
6.4500,5.417891251
6.4550,5.352823684
6.4600,5.290011898
6.4650,5.229051236
6.4700,5.170093133
6.4750,5.112999531
6.4800,5.057474884
6.4850,5.003507076
6.4900,4.95095111
6.4950,4.899660088
6.5000,4.849572408
6.5050,4.8003714
6.5100,4.752190166
6.5150,4.70461142
6.5200,4.657686288
6.5250,4.611521696
6.5300,4.565889404
6.5350,4.520952809
6.5400,4.476705208
6.5450,4.433259133
6.5500,4.390450493
6.5550,4.348544768
6.5600,4.307655179
6.5650,4.267428616
6.5700,4.228261292
6.5750,4.189861256
6.5800,4.151936275
6.5850,4.114646996
6.5900,4.077969846
6.5950,4.041877552
6.6000,4.005955119
6.6050,3.970333944
6.6100,3.935017834
6.6150,3.899956773
6.6200,3.864972421
6.6250,3.829894362
6.6300,3.79468124
6.6350,3.759542647
6.6400,3.724392052
6.6450,3.688926019
6.6500,3.653282251
6.6550,3.617306173
6.6600,3.581108313
6.6650,3.544562484
6.6700,3.507618785
6.6750,3.470399226
6.6800,3.432754628
6.6850,3.395026253
6.6900,3.356690791
6.6950,3.317892829
6.7000,3.278465648
6.7050,3.238519066
6.7100,3.19818769
6.7150,3.15717013
6.7200,3.115690642
6.7250,3.073810099
6.7300,3.031341024
6.7350,2.988602834
6.7400,2.945638742
6.7450,2.902728606
6.7500,2.860104701
6.7550,2.817594216
6.7600,2.775427605
6.7650,2.734051611
6.7700,2.693544043
6.7750,2.654221207
6.7800,2.61608425
6.7850,2.579499486
6.7900,2.544637006
6.7950,2.511448095
6.8000,2.480049696
6.8050,2.45049268
6.8100,2.422806188
6.8150,2.397158366
6.8200,2.373316149
6.8250,2.351226715
6.8300,2.330692706
6.8350,2.311691532
6.8400,2.294006648
6.8450,2.277251763
6.8500,2.261553092
6.8550,2.24669107
6.8600,2.232038722
6.8650,2.218028761
6.8700,2.204300198
6.8750,2.190749841
6.8800,2.177578697
6.8850,2.164576299
6.8900,2.151588961
6.8950,2.138756584
6.9000,2.12617725
6.9050,2.11365853
6.9100,2.101470394
6.9150,2.08943359
6.9200,2.077645863
6.9250,2.066382667
6.9300,2.055561704
6.9350,2.04504005
6.9400,2.035001124
6.9450,2.02535067
6.9500,2.016383923
6.9550,2.007862589
6.9600,1.999987988
6.9650,1.992697715
6.9700,1.98602961
6.9750,1.979738342
6.9800,1.974375867
6.9850,1.969280668
6.9900,1.965094123
6.9950,1.961747217
7.0000,1.959449821
7.0050,1.958043476
7.0100,1.957559069
7.0150,1.958303049
7.0200,1.96018836
7.0250,1.96346091
7.0300,1.968514164
7.0350,1.975251858
7.0400,1.98353382
7.0450,1.993990943
7.0500,2.006439517
7.0550,2.021327686
7.0600,2.038671264
7.0650,2.058590905
7.0700,2.081043484
7.0750,2.106165947
7.0800,2.134278673
7.0850,2.165237439
7.0900,2.199279114
7.0950,2.236521151
7.1000,2.277045552
7.1050,2.321048258
7.1100,2.368346505
7.1150,2.419050343
7.1200,2.473385212
7.1250,2.531049655
7.1300,2.592271136
7.1350,2.656749103
7.1400,2.724685148
7.1450,2.795983024
7.1500,2.87040952
7.1550,2.94795076
7.1600,3.028419653
7.1650,3.111518847
7.1700,3.19725403
7.1750,3.285421157
7.1800,3.375763879
7.1850,3.468380821
7.1900,3.562885313
7.1950,3.659110929
7.2000,3.756979592
7.2050,3.856478757
7.2100,3.957380013
7.2150,4.059768862
7.2200,4.163681303
7.2250,4.26907321
7.2300,4.376036057
7.2350,4.484663312
7.2400,4.595048074
7.2450,4.707325152
7.2500,4.821565222
7.2550,4.937866524
7.2600,5.056354017
7.2650,5.177036976
7.2700,5.299922569
7.2750,5.425029232
7.2800,5.552291345
7.2850,5.681983095
7.2900,5.813927289
7.2950,5.947881425
7.3000,6.083447105
7.3050,6.22106231
7.3100,6.360325978
7.3150,6.501398952
7.3200,6.643880134
7.3250,6.787710439
7.3300,6.932704161
7.3350,7.078774501
7.3400,7.226190545
7.3450,7.374510641
7.3500,7.52404108
7.3550,7.674666595
7.3600,7.826548111
7.3650,7.979658947
7.3700,8.134109254
7.3750,8.289800664
7.3800,8.446857317
7.3850,8.605381591
7.3900,8.76522073
7.3950,8.926490488
7.4000,9.089325042
7.4050,9.253627777
7.4100,9.419644199
7.4150,9.587247203
7.4200,9.756586365
7.4250,9.927904177
7.4300,10.10109724
7.4350,10.27618744
7.4400,10.45330903
7.4450,10.63249592
7.4500,10.8137349
7.4550,10.99709474
7.4600,11.1829735
7.4650,11.37131905
7.4700,11.56227669
7.4750,11.7561318
7.4800,11.95302146
7.4850,12.15277571
7.4900,12.35594181
7.4950,12.56244753
7.5000,12.77227731
7.5050,12.98542187
7.5100,13.20198416
7.5150,13.42187733
7.5200,13.64515822
7.5250,13.87164008
7.5300,14.10120853
7.5350,14.33369662
7.5400,14.56884236
7.5450,14.80633693
7.5500,15.04578871
7.5550,15.28699151
7.5600,15.52938642
7.5650,15.77286722
7.5700,16.01710146
7.5750,16.26182089
7.5800,16.50679445
7.5850,16.75201435
7.5900,16.99676999
7.5950,17.241178
7.6000,17.48536794
7.6050,17.72918498
7.6100,17.97260978
7.6150,18.21552046
7.6200,18.4580158
7.6250,18.70012311
7.6300,18.94164603
7.6350,19.18273681
7.6400,19.42331886
7.6450,19.66357649
7.6500,19.90339701
7.6550,20.14254423
7.6600,20.3810198
7.6650,20.61872406
7.6700,20.85563073
7.6750,21.09185983
7.6800,21.32701552
7.6850,21.56085641
7.6900,21.79343046
7.6950,22.02490179
7.7000,22.25544222
7.7050,22.48487873
7.7100,22.7132672
7.7150,22.9408593
7.7200,23.16748314
7.7250,23.39337535
7.7300,23.61857162
7.7350,23.84345658
7.7400,24.06814182
7.7450,24.29279859
7.7500,24.51770423
7.7550,24.74265465
7.7600,24.96785275
7.7650,25.19375784
7.7700,25.42009752
7.7750,25.64685928
7.7800,25.87442623
7.7850,26.1028344
7.7900,26.33182836
7.7950,26.56165316
7.8000,26.79233742
7.8050,27.02410994
7.8100,27.25674748
7.8150,27.49031679
7.8200,27.72481665
7.8250,27.96061216
7.8300,28.19775457
7.8350,28.43601039
7.8400,28.67569145
7.8450,28.9170294
7.8500,29.1599665
7.8550,29.40500665
7.8600,29.65201697
7.8650,29.9009851
7.8700,30.15187008
7.8750,30.40478209
7.8800,30.65940506
7.8850,30.91550278
7.8900,31.17348949
7.8950,31.43320692
7.9000,31.6944011
7.9050,31.95700513
7.9100,32.22125399
7.9150,32.48684534
7.9200,32.75415904
7.9250,33.02281216
7.9300,33.2930787
7.9350,33.56513705
7.9400,33.83884158
7.9450,34.11423875
7.9500,34.39100609
7.9550,34.66961953
7.9600,34.94996811
7.9650,35.23201277
7.9700,35.51578417
7.9750,35.80115787
7.9800,36.08884859
7.9850,36.37895263
7.9900,36.6711104
7.9950,36.96518755
8.0000,37.26112756
8.0050,37.55904096
8.0100,37.85912687
8.0150,38.16117274
8.0200,38.46510379
8.0250,38.77059626
8.0300,39.07789842
8.0350,39.38664959
8.0400,39.69672218
8.0450,40.00794949
8.0500,40.32056202
8.0550,40.63488718
8.0600,40.95079773
8.0650,41.26771177
8.0700,41.58588764
8.0750,41.90547705
8.0800,42.22626681
8.0850,42.5482071
8.0900,42.87147884
8.0950,43.19631279
8.1000,43.52270225
8.1050,43.85081076
8.1100,44.18069984
8.1150,44.51294556
8.1200,44.84748098
8.1250,45.18392961
8.1300,45.52211326
8.1350,45.86248136
8.1400,46.20506835
8.1450,46.54946657
8.1500,46.89543566
8.1550,47.24255713
8.1600,47.59076133
8.1650,47.93979482
8.1700,48.28974032
8.1750,48.63982057
8.1800,48.99057406
8.1850,49.34192217
8.1900,49.69367562
8.1950,50.04604512
8.2000,50.39945016
8.2050,50.75345779
8.2100,51.10808157
8.2150,51.46282497
8.2200,51.81817346
8.2250,52.17347026
8.2300,52.52807835
8.2350,52.88139163
8.2400,53.23335341
8.2450,53.58306411
8.2500,53.93048546
8.2550,54.27438184
8.2600,54.61442029
8.2650,54.95017361
8.2700,55.28094902
8.2750,55.60653757
8.2800,55.92610595
8.2850,56.23971165
8.2900,56.54770351
8.2950,56.85021683
8.3000,57.14725278
8.3050,57.43919287
8.3100,57.72655675
8.3150,58.01025857
8.3200,58.29139709
8.3250,58.57119134
8.3300,58.85054816
8.3350,59.13100808
8.3400,59.41380324
8.3450,59.70022961
8.3500,59.99109515
8.3550,60.28710475
8.3600,60.58907636
8.3650,60.89769539
8.3700,61.21324856
8.3750,61.53574934
8.3800,61.86544902
8.3850,62.20243965
8.3900,62.5463938
8.3950,62.89763997
8.4000,63.25569812
8.4050,63.61987772
8.4100,63.98991659
8.4150,64.36529747
8.4200,64.74602344
8.4250,65.13198914
8.4300,65.52383535
8.4350,65.92096045
8.4400,66.32290834
8.4450,66.73056758
8.4500,67.14384331
8.4550,67.56259806
8.4600,67.98713793
8.4650,68.41752945
8.4700,68.85362411
8.4750,69.29621435
8.4800,69.74479599
8.4850,70.19945331
8.4900,70.65959132
8.4950,71.12494619
8.5000,71.59437211
8.5050,72.06809801
8.5100,72.54470733
8.5150,73.02502127
8.5200,73.50725153
8.5250,73.99174644
8.5300,74.47820533
8.5350,74.96606943
8.5400,75.4546279
8.5450,75.9437455
8.5500,76.43323352
8.5550,76.92284124
8.5600,77.41210093
8.5650,77.90118948
8.5700,78.39003764
8.5750,78.87849683
8.5800,79.36604089
8.5850,79.85285305
8.5900,80.33880156
8.5950,80.82380978
8.6000,81.30795867
8.6050,81.79092777
8.6100,82.2728054
8.6150,82.7531185
8.6200,83.23179633
8.6250,83.70881559
8.6300,84.18338953
8.6350,84.65533089
8.6400,85.12449375
8.6450,85.59042355
8.6500,86.05292612
8.6550,86.5115023
8.6600,86.96652552
8.6650,87.41785444
8.6700,87.8655112
8.6750,88.30980077
8.6800,88.75049587
8.6850,89.18780465
8.6900,89.62202961
8.6950,90.05236185
8.7000,90.48002175
8.7050,90.90470364
8.7100,91.32654611
8.7150,91.74589765
8.7200,92.16294572
8.7250,92.57803068
8.7300,92.99069559
8.7350,93.4013173
8.7400,93.81046024
8.7450,94.21746693
8.7500,94.62237937
8.7550,95.02509002
8.7600,95.42574354
8.7650,95.82378279
8.7700,96.21997544
8.7750,96.61339337
8.7800,97.00403349
8.7850,97.39201199
8.7900,97.77786897
8.7950,98.16119401
8.8000,98.54222479
8.8050,98.92081561
8.8100,99.2976636
8.8150,99.67200649
8.8200,100.0439921
8.8250,100.413449
8.8300,100.7805648
8.8350,101.1452098
8.8400,101.5073498
8.8450,101.86714
8.8500,102.2251795
8.8550,102.5816795
8.8600,102.9365913
8.8650,103.2903532
8.8700,103.6431103
8.8750,103.9955208
8.8800,104.3476354
8.8850,104.6989152
8.8900,105.049679
8.8950,105.4002376
8.9000,105.7502623
8.9050,106.1001713
8.9100,106.4497074
8.9150,106.7995505
8.9200,107.148993
8.9250,107.4980196
8.9300,107.8470914
8.9350,108.1970231
8.9400,108.547685
8.9450,108.8992788
8.9500,109.2513887
8.9550,109.6044207
8.9600,109.9578134
8.9650,110.311277
8.9700,110.6651643
8.9750,111.019796
8.9800,111.374892
8.9850,111.7304201
8.9900,112.0867435
8.9950,112.4445772
9.0000,112.8038853
9.0050,113.1652443
9.0100,113.5289111
9.0150,113.8944588
9.0200,114.2618467
9.0250,114.6305042
9.0300,114.9999939
9.0350,115.3700223
9.0400,115.7401766
9.0450,116.1106859
9.0500,116.481209
9.0550,116.8516491
9.0600,117.2213433
9.0650,117.5902517
9.0700,117.9572969
9.0750,118.3231554
9.0800,118.6871799
9.0850,119.0488289
9.0900,119.4078275
9.0950,119.763962
9.1000,120.1168575
9.1050,120.4653646
9.1100,120.80975
9.1150,121.149821
9.1200,121.4848276
9.1250,121.8152333
9.1300,122.1404637
9.1350,122.4609187
9.1400,122.7765585
9.1450,123.0863464
9.1500,123.3898492
9.1550,123.6875247
9.1600,123.9787886
9.1650,124.2631161
9.1700,124.5404986
9.1750,124.8111963
9.1800,125.0753029
9.1850,125.3331841
9.1900,125.5846732
9.1950,125.8291333
9.2000,126.0671454
9.2050,126.2987632
9.2100,126.5240184
9.2150,126.7434995
9.2200,126.9579863
9.2250,127.168249
9.2300,127.3745177
9.2350,127.5763633
9.2400,127.7744945
9.2450,127.9692776
9.2500,128.1612736
9.2550,128.3507066
9.2600,128.5382047
9.2650,128.7246759
9.2700,128.9100337
9.2750,129.0945121
9.2800,129.2781389
9.2850,129.4610728
9.2900,129.6432465
9.2950,129.8243339
9.3000,130.0044421
9.3050,130.1833652
9.3100,130.3610195
9.3150,130.5380917
9.3200,130.714478
9.3250,130.8910676
9.3300,131.0678391
9.3350,131.2452077
9.3400,131.4230291
9.3450,131.6006664
9.3500,131.7786686
9.3550,131.9566121
9.3600,132.1343259
9.3650,132.3118716
9.3700,132.4897423
9.3750,132.6670368
9.3800,132.8443157
9.3850,133.0210907
9.3900,133.1969609
9.3950,133.3719419
9.4000,133.545414
9.4050,133.7182924
9.4100,133.8896413
9.4150,134.0596693
9.4200,134.2283945
9.4250,134.3956149
9.4300,134.5607021
9.4350,134.7235754
9.4400,134.8838478
9.4450,135.0415527
9.4500,135.1963891
9.4550,135.3483515
9.4600,135.497367
9.4650,135.643647
9.4700,135.7865187
9.4750,135.9251819
9.4800,136.0600549
9.4850,136.1911076
9.4900,136.3182733
9.4950,136.4420327
9.5000,136.5625114
9.5050,136.6796619
9.5100,136.7935374
9.5150,136.9041777
9.5200,137.0114211
9.5250,137.1149424
9.5300,137.2149886
9.5350,137.3115816
9.5400,137.4050917
9.5450,137.4959102
9.5500,137.584259
9.5550,137.6701074
9.5600,137.7535044
9.5650,137.8340464
9.5700,137.9123633
9.5750,137.9890987
9.5800,138.0648871
9.5850,138.140121
9.5900,138.2148318
9.5950,138.2894529
9.6000,138.3640526
9.6050,138.4387235
9.6100,138.5138228
9.6150,138.5893041
9.6200,138.6654798
9.6250,138.7422169
9.6300,138.8201163
9.6350,138.8988264
9.6400,138.9782639
9.6450,139.0590912
9.6500,139.1402049
9.6550,139.2213986
9.6600,139.3032205
9.6650,139.3851165
9.6700,139.4665208
9.6750,139.5473597
9.6800,139.6268293
9.6850,139.7046721
9.6900,139.7809838
9.6950,139.8548593
9.7000,139.9270641
9.7050,139.9968875
9.7100,140.0644742
9.7150,140.129639
9.7200,140.1920876
9.7250,140.2517462
9.7300,140.3090431
9.7350,140.3635314
9.7400,140.4156425
9.7450,140.4657082
9.7500,140.51382
9.7550,140.560093
9.7600,140.6050448
9.7650,140.6481829
9.7700,140.6904888
9.7750,140.7330336
9.7800,140.7750507
9.7850,140.8168975
9.7900,140.8590091
9.7950,140.9015469
9.8000,140.9441755
9.8050,140.9869969
9.8100,141.030411
9.8150,141.0740333
9.8200,141.1179125
9.8250,141.1619195
9.8300,141.2060661
9.8350,141.2505264
9.8400,141.2950279
9.8450,141.3391518
9.8500,141.3826903
9.8550,141.4259629
9.8600,141.4686177
9.8650,141.5104732
9.8700,141.55091
9.8750,141.5893566
9.8800,141.625311
9.8850,141.6584937
9.8900,141.6888705
9.8950,141.7164528
9.9000,141.7408075
9.9050,141.7620378
9.9100,141.7801744
9.9150,141.7950134
9.9200,141.8064036
9.9250,141.8137367
9.9300,141.8169655
9.9350,141.8160942
9.9400,141.8110228
9.9450,141.8013639
9.9500,141.7874664
9.9550,141.7694691
9.9600,141.7468523
9.9650,141.7199034
9.9700,141.6884256
9.9750,141.6524654
9.9800,141.6121153
9.9850,141.5671071
9.9900,141.5177336
9.9950,141.4643438
10.0000,141.4064959
10.0050,141.3445121
10.0100,141.2781477
10.0150,141.2077301
10.0200,141.1336852
10.0250,141.0558145
10.0300,140.9740129
10.0350,140.8888737
10.0400,140.8000533
10.0450,140.7078661
10.0500,140.6124725
10.0550,140.5136936
10.0600,140.4114237
10.0650,140.3058348
10.0700,140.1969252
10.0750,140.0843703
10.0800,139.9682383
10.0850,139.8485234
10.0900,139.7250023
10.0950,139.5976514
10.1000,139.4668956
10.1050,139.3326061
10.1100,139.1946359
10.1150,139.0532553
10.1200,138.9084089
10.1250,138.7604002
10.1300,138.6091502
10.1350,138.4547063
10.1400,138.2965156
10.1450,138.1350219
10.1500,137.9701682
10.1550,137.8016308
10.1600,137.629782
10.1650,137.454833
10.1700,137.2768454
10.1750,137.0955868
10.1800,136.9110629
10.1850,136.7233443
10.1900,136.5322518
10.1950,136.3375498
10.2000,136.1396017
10.2050,135.9380693
10.2100,135.7329691
10.2150,135.5247566
10.2200,135.3131788
10.2250,135.0989155
10.2300,134.8814976
10.2350,134.661234
10.2400,134.4383134
10.2450,134.2124716
10.2500,133.9834586
10.2550,133.7511913
10.2600,133.5159896
10.2650,133.2774343
10.2700,133.0358736
10.2750,132.7911118
10.2800,132.542806
10.2850,132.291834
10.2900,132.0378059
10.2950,131.7811806
10.3000,131.5216186
10.3050,131.2592486
10.3100,130.9943228
10.3150,130.7270373
10.3200,130.4572039
10.3250,130.1850513
10.3300,129.910826
10.3350,129.6340021
10.3400,129.3551896
10.3450,129.0745685
10.3500,128.79251
10.3550,128.5092345
10.3600,128.2244736
10.3650,127.9385458
10.3700,127.6512911
10.3750,127.362866
10.3800,127.0733903
10.3850,126.7831806
10.3900,126.4919532
10.3950,126.1997626
10.4000,125.9067597
10.4050,125.6123414
10.4100,125.3166403
10.4150,125.0198162
10.4200,124.7217579
10.4250,124.4223142
10.4300,124.1216975
10.4350,123.8200891
10.4400,123.5179948
10.4450,123.2155649
10.4500,122.912972
10.4550,122.6102157
10.4600,122.307199
10.4650,122.0043019
10.4700,121.7014369
10.4750,121.3988158
10.4800,121.0963363
10.4850,120.7940636
10.4900,120.4917469
10.4950,120.1898033
10.5000,119.8878387
10.5050,119.5863173
10.5100,119.2844724
10.5150,118.9821926
10.5200,118.6794341
10.5250,118.3758166
10.5300,118.0720031
10.5350,117.767433
10.5400,117.4622923
10.5450,117.1566482
10.5500,116.8508413
10.5550,116.5450581
10.5600,116.2388419
10.5650,115.9326092
10.5700,115.6257771
10.5750,115.3190631
10.5800,115.0130987
10.5850,114.7069877
10.5900,114.4014325
10.5950,114.0957314
10.6000,113.7901269
10.6050,113.4843321
10.6100,113.1783515
10.6150,112.8714997
10.6200,112.563915
10.6250,112.2555465
10.6300,111.9463117
10.6350,111.6358489
10.6400,111.3241553
10.6450,111.0106726
10.6500,110.6952401
10.6550,110.3780341
10.6600,110.0595152
10.6650,109.7398466
10.6700,109.4187449
10.6750,109.0963357
10.6800,108.7729396
10.6850,108.4478851
10.6900,108.1215732
10.6950,107.7941297
10.7000,107.4649258
10.7050,107.1346785
10.7100,106.8033348
10.7150,106.4706235
10.7200,106.1369367
10.7250,105.802083
10.7300,105.4662722
10.7350,105.1296495
10.7400,104.7917584
10.7450,104.4521986
10.7500,104.1109409
10.7550,103.7678505
10.7600,103.4227117
10.7650,103.0750126
10.7700,102.7249686
10.7750,102.3723717
10.7800,102.0172393
10.7850,101.6588273
10.7900,101.2982194
10.7950,100.9349009
10.8000,100.569029
10.8050,100.2002873
10.8100,99.82923567
10.8150,99.45544387
10.8200,99.07961959
10.8250,98.7019086
10.8300,98.32268859
10.8350,97.94134314
10.8400,97.55804215
10.8450,97.17275247
10.8500,96.78592908
10.8550,96.39717466
10.8600,96.00651823
10.8650,95.61418861
10.8700,95.22045774
10.8750,94.82522931
10.8800,94.42860793
10.8850,94.03081953
10.8900,93.63153388
10.8950,93.23090421
10.9000,92.82926773
10.9050,92.4269036
10.9100,92.02405873
10.9150,91.62083274
10.9200,91.21740247
10.9250,90.81353056
10.9300,90.40924199
10.9350,90.00551591
10.9400,89.60159786
10.9450,89.19839839
10.9500,88.79609201
10.9550,88.3946297
10.9600,87.99370765
10.9650,87.59360921
10.9700,87.19438948
10.9750,86.79551585
10.9800,86.39723025
10.9850,85.99962022
10.9900,85.60291853
10.9950,85.20654344
11.0000,84.81087568
11.0050,84.41522242
11.0100,84.01964176
11.0150,83.62387216
11.0200,83.22769279
11.0250,82.83124899
11.0300,82.43397871
11.0350,82.03659674
11.0400,81.63924998
11.0450,81.24181543
11.0500,80.8439221
11.0550,80.4453085
11.0600,80.04614671
11.0650,79.64621312
11.0700,79.24532184
11.0750,78.84381216
11.0800,78.44154239
11.0850,78.03960222
11.0900,77.6369454
11.0950,77.23379924
11.1000,76.83042818
11.1050,76.4265476
11.1100,76.02209213
11.1150,75.61692477
11.1200,75.21098885
11.1250,74.80427649
11.1300,74.39585392
11.1350,73.98639927
11.1400,73.57558935
11.1450,73.16364838
11.1500,72.75023187
11.1550,72.33622048
11.1600,71.92195079
11.1650,71.50753413
11.1700,71.09315325
11.1750,70.6790287
11.1800,70.26512885
11.1850,69.85210699
11.1900,69.44058249
11.1950,69.03086428
11.2000,68.62315943
11.2050,68.21761294
11.2100,67.81427754
11.2150,67.41354452
11.2200,67.01532347
11.2250,66.62022655
11.2300,66.22839255
11.2350,65.83937357
11.2400,65.45343112
11.2450,65.06987547
11.2500,64.68870347
11.2550,64.30986719
11.2600,63.93312096
11.2650,63.55833522
11.2700,63.18577945
11.2750,62.81583483
11.2800,62.44870383
11.2850,62.08449632
11.2900,61.72326247
11.2950,61.36490443
11.3000,61.00945896
11.3050,60.65752347
11.3100,60.30890779
11.3150,59.96345905
11.3200,59.62143046
11.3250,59.28330765
11.3300,58.94874335
11.3350,58.61773922
11.3400,58.29007741
11.3450,57.96605917
11.3500,57.6457962
11.3550,57.3295519
11.3600,57.01720116
11.3650,56.70831008
11.3700,56.4027825
11.3750,56.10010133
11.3800,55.80011594
11.3850,55.50233582
11.3900,55.20687311
11.3950,54.91362693
11.4000,54.62227988
11.4050,54.33312474
11.4100,54.04585228
11.4150,53.76047592
11.4200,53.47700563
11.4250,53.1950508
11.4300,52.91456689
11.4350,52.63554095
11.4400,52.35794811
11.4450,52.08157773
11.4500,51.80619223
11.4550,51.53163502
11.4600,51.2575725
11.4650,50.98344282
11.4700,50.70945594
11.4750,50.4351995
11.4800,50.16082324
11.4850,49.88628305
11.4900,49.61159373
11.4950,49.3370455
11.5000,49.06239579
11.5050,48.78774921
11.5100,48.51331373
11.5150,48.23899812
11.5200,47.96468356
11.5250,47.69051463
11.5300,47.4161629
11.5350,47.14195862
11.5400,46.8675347
11.5450,46.59310445
11.5500,46.31857363
11.5550,46.04411404
11.5600,45.76994417
11.5650,45.49592219
11.5700,45.2218646
11.5750,44.94798486
11.5800,44.67402348
11.5850,44.3999564
11.5900,44.12568399
11.5950,43.85182598
11.6000,43.57798698
11.6050,43.30461683
11.6100,43.03200045
11.6150,42.76035507
11.6200,42.48996438
11.6250,42.22021545
11.6300,41.95164452
11.6350,41.68372552
11.6400,41.41650561
11.6450,41.15015754
11.6500,40.88446938
11.6550,40.61921425
11.6600,40.35416592
11.6650,40.08954717
11.6700,39.82557348
11.6750,39.5623161
11.6800,39.29989285
11.6850,39.03805466
11.6900,38.77659067
11.6950,38.5151115
11.7000,38.25348453
11.7050,37.99136361
11.7100,37.72863326
11.7150,37.46514379
11.7200,37.20074288
11.7250,36.93545634
11.7300,36.66974477
11.7350,36.4032547
11.7400,36.13604518
11.7450,35.86847742
11.7500,35.6004241
11.7550,35.33233727
11.7600,35.06424886
11.7650,34.79662489
11.7700,34.52910211
11.7750,34.26206015
11.7800,33.99527847
11.7850,33.72896886
11.7900,33.46276372
11.7950,33.19682592
11.8000,32.9311621
11.8050,32.6658871
11.8100,32.40101537
11.8150,32.13679783
11.8200,31.87411612
11.8250,31.61257892
11.8300,31.35290038
11.8350,31.09471971
11.8400,30.83830837
11.8450,30.58338347
11.8500,30.3299432
11.8550,30.07760844
11.8600,29.82658852
11.8650,29.57686765
11.8700,29.32840447
11.8750,29.08120844
11.8800,28.83540234
11.8850,28.59123263
11.8900,28.34896101
11.8950,28.10852079
11.9000,27.87061183
11.9050,27.63497011
11.9100,27.4016251
11.9150,27.17081401
11.9200,26.94272514
11.9250,26.71729903
11.9300,26.49479837
11.9350,26.27522004
11.9400,26.05842401
11.9450,25.84441076
11.9500,25.63338385
11.9550,25.42539064
11.9600,25.22069743
11.9650,25.01931136
11.9700,24.82095275
11.9750,24.62551357
11.9800,24.43250451
11.9850,24.24223618
11.9900,24.05455168
11.9950,23.86948162
12.0000,23.68688215
12.0050,23.50654262
12.0100,23.3283921
12.0150,23.15226803
12.0200,22.97812535
12.0250,22.80604925
12.0300,22.63559129
12.0350,22.46704445
12.0400,22.30016605
12.0450,22.13512828
12.0500,21.97198429
12.0550,21.81019101
12.0600,21.64979302
12.0650,21.49046335
12.0700,21.33202095
12.0750,21.17434072
12.0800,21.01769106
12.0850,20.86193119
12.0900,20.70705997
12.0950,20.55278607
12.1000,20.39931523
12.1050,20.24655648
12.1100,20.09431831
12.1150,19.94244
12.1200,19.79054742
12.1250,19.63858546
12.1300,19.48617131
12.1350,19.33366543
12.1400,19.1813953
12.1450,19.02940322
12.1500,18.8776589
12.1550,18.72645283
12.1600,18.57572325
12.1650,18.42540933
12.1700,18.27593204
12.1750,18.12717292
12.1800,17.97936937
12.1850,17.83284619
12.1900,17.68754636
12.1950,17.54356854
12.2000,17.40098477
12.2050,17.25996822
12.2100,17.12076425
12.2150,16.98353473
12.2200,16.84819253
12.2250,16.7148772
12.2300,16.58341949
12.2350,16.45402459
12.2400,16.32666451
12.2450,16.20111634
12.2500,16.0772267
12.2550,15.95460841
12.2600,15.83286411
12.2650,15.71160029
12.2700,15.59094744
12.2750,15.4704784
12.2800,15.35013329
12.2850,15.22947405
12.2900,15.10832114
12.2950,14.98660638
12.3000,14.86420595
12.3050,14.7410019
12.3100,14.61700063
12.3150,14.49235571
12.3200,14.3668201
12.3250,14.24025214
12.3300,14.11285072
12.3350,13.98447258
12.3400,13.85494669
12.3450,13.72398691
12.3500,13.59136496
12.3550,13.45716263
12.3600,13.32144482
12.3650,13.1842459
12.3700,13.04574585
12.3750,12.90617834
12.3800,12.7651255
12.3850,12.62262551
12.3900,12.47883611
12.3950,12.33377235
12.4000,12.18769916
12.4050,12.04061164
12.4100,11.89273795
12.4150,11.7443885
12.4200,11.59547588
12.4250,11.44632343
12.4300,11.29721227
12.4350,11.14833566
12.4400,10.99964418
12.4450,10.85159948
12.4500,10.70438973
12.4550,10.55811442
12.4600,10.41302552
12.4650,10.26924251
12.4700,10.12700585
12.4750,9.986444632
12.4800,9.847912565
12.4850,9.71129374
12.4900,9.577000246
12.4950,9.44517907
12.5000,9.31603158
12.5050,9.189679142
12.5100,9.066239527
12.5150,8.946019776
12.5200,8.829097101
12.5250,8.716028802
12.5300,8.606546136
12.5350,8.500812435
12.5400,8.399132794
12.5450,8.301418981
12.5500,8.207829981
12.5550,8.118377084
12.5600,8.033153457
12.5650,7.952236232
12.5700,7.875266571
12.5750,7.802265337
12.5800,7.733305372
12.5850,7.667934585
12.5900,7.606105415
12.5950,7.547458593
12.6000,7.491753933
12.6050,7.438508818
12.6100,7.387403818
12.6150,7.337791308
12.6200,7.289627617
12.6250,7.242574373
12.6300,7.196184921
12.6350,7.150236734
12.6400,7.104574396
12.6450,7.058740843
12.6500,7.012694667
12.6550,6.966008717
12.6600,6.918575566
12.6650,6.870052798
12.6700,6.820321642
12.6750,6.768830045
12.6800,6.715881215
12.6850,6.661302018
12.6900,6.604839938
12.6950,6.546719451
12.7000,6.486729731
12.7050,6.424993811
12.7100,6.361823416
12.7150,6.297148066
12.7200,6.231690617
12.7250,6.165537993
12.7300,6.099176238
12.7350,6.032599151
12.7400,5.966437339
12.7450,5.900776253
12.7500,5.835941563
12.7550,5.772030946
12.7600,5.70927554
12.7650,5.648151871
12.7700,5.588741233
12.7750,5.531238687
12.7800,5.475797577
12.7850,5.422630831
12.7900,5.372078184
12.7950,5.324064554
12.8000,5.278801392
12.8050,5.236454506
12.8100,5.197168498
12.8150,5.160856078
12.8200,5.127790916
12.8250,5.097763362
12.8300,5.071033323
12.8350,5.047553096
12.8400,5.027200976
12.8450,5.009984816
12.8500,4.996003743
12.8550,4.985350878
12.8600,4.978119337
12.8650,4.974416678
12.8700,4.97412033
12.8750,4.97732254
12.8800,4.983999574
12.8850,4.994526377
12.8900,5.008801379
12.8950,5.026909265
12.9000,5.048616309
12.9050,5.074341165
12.9100,5.103783136
12.9150,5.137289834
12.9200,5.174664752
12.9250,5.216065905
12.9300,5.261510891
12.9350,5.310669182
12.9400,5.363872463
12.9450,5.421065795
12.9500,5.482420031
12.9550,5.547745523
12.9600,5.617028664
12.9650,5.690095236
12.9700,5.766886436
12.9750,5.847643462
12.9800,5.931888793
12.9850,6.019874475
12.9900,6.111483802
12.9950,6.206583134
13.0000,6.305280516
13.0050,6.407560948
13.0100,6.513153258
13.0150,6.622315842
13.0200,6.734789757
13.0250,6.850600533
13.0300,6.969313565
13.0350,7.090982685
13.0400,7.215394715
13.0450,7.342635414
13.0500,7.472548777
13.0550,7.605252843
13.0600,7.740752372
13.0650,7.878505228
13.0700,8.018566453
13.0750,8.161146751
13.0800,8.305956456
13.0850,8.453067462
13.0900,8.602213942
13.0950,8.753477251
13.1000,8.906631381
13.1050,9.061684889
13.1100,9.218675072
13.1150,9.377617195
13.1200,9.538521716
13.1250,9.701452772
13.1300,9.866556265
13.1350,10.03403831
13.1400,10.20370724
13.1450,10.37586715
13.1500,10.55047951
13.1550,10.72773634
13.1600,10.90740981
13.1650,11.08979278
13.1700,11.27510695
13.1750,11.46329939
13.1800,11.65440503
13.1850,11.84834112
13.1900,12.04523451
13.1950,12.2446464
13.2000,12.44703693
13.2050,12.65165037
13.2100,12.85903589
13.2150,13.06880914
13.2200,13.28100003
13.2250,13.49519214
13.2300,13.71151502
13.2350,13.92973373
13.2400,14.14973458
13.2450,14.37122521
13.2500,14.59403806
13.2550,14.81814573
13.2600,15.04335539
13.2650,15.26991989
13.2700,15.49774402
13.2750,15.72671127
13.2800,15.95703654
13.2850,16.18844893
13.2900,16.42129891
13.2950,16.65552484
13.3000,16.89102902
13.3050,17.12815922
13.3100,17.36716833
13.3150,17.60809546
13.3200,17.85080932
13.3250,18.09561945
13.3300,18.34264404
13.3350,18.59179068
13.3400,18.84304226
13.3450,19.09647338
13.3500,19.35166176
13.3550,19.6085436
13.3600,19.86698839
13.3650,20.12691642
13.3700,20.38801084
13.3750,20.6501844
13.3800,20.91338784
13.3850,21.1773931
13.3900,21.44191751
13.3950,21.70719791
13.4000,21.97320076
13.4050,22.23972017
13.4100,22.50678152
13.4150,22.77461009
13.4200,23.04280597
13.4250,23.31164649
13.4300,23.58110593
13.4350,23.8509654
13.4400,24.1213394
13.4450,24.39212391
13.4500,24.6633092
13.4550,24.93460397
13.4600,25.20599414
13.4650,25.47708134
13.4700,25.74759284
13.4750,26.01745811
13.4800,26.28653125
13.4850,26.55448337
13.4900,26.82097956
13.4950,27.08601614
13.5000,27.34931338
13.5050,27.61115303
13.5100,27.87110419
13.5150,28.1293742
13.5200,28.3863467
13.5250,28.64204016
13.5300,28.8962168
13.5350,29.14932413
13.5400,29.40100325
13.5450,29.65159185
13.5500,29.90096215
13.5550,30.14927758
13.5600,30.39647672
13.5650,30.64241355
13.5700,30.88689521
13.5750,31.12975141
13.5800,31.37149888
13.5850,31.61183169
13.5900,31.85087502
13.5950,32.08891426
13.6000,32.32636425
13.6050,32.56329
13.6100,32.80029244
13.6150,33.03739919
13.6200,33.27533279
13.6250,33.51466715
13.6300,33.75578473
13.6350,33.99913433
13.6400,34.24498312
13.6450,34.49367477
13.6500,34.74624748
13.6550,35.00252806
13.6600,35.26293408
13.6650,35.52774235
13.6700,35.79748062
13.6750,36.07207353
13.6800,36.35162338
13.6850,36.63640044
13.6900,36.92627975
13.6950,37.22086304
13.7000,37.51996583
13.7050,37.82382698
13.7100,38.13218134
13.7150,38.44449167
13.7200,38.76089575
13.7250,39.08089496
13.7300,39.4042148
13.7350,39.7307145
13.7400,40.05994312
13.7450,40.39180416
13.7500,40.72599745
13.7550,41.06258224
13.7600,41.40166196
13.7650,41.74313792
13.7700,42.08655623
13.7750,42.43187904
13.7800,42.77901784
13.7850,43.12764031
13.7900,43.4777183
13.7950,43.82954628
13.8000,44.18307053
13.8050,44.53795064
13.8100,44.89455869
13.8150,45.25245132
13.8200,45.61140015
13.8250,45.97179749
13.8300,46.33354734
13.8350,46.69702171
13.8400,47.06237941
13.8450,47.4296146
13.8500,47.79875452
13.8550,48.17005083
13.8600,48.54325799
13.8650,48.9186211
13.8700,49.2960093
13.8750,49.67552145
13.8800,50.05667019
13.8850,50.4398637
13.8900,50.82496137
13.8950,51.21156905
13.9000,51.59967596
13.9050,51.98926933
13.9100,52.37993364
13.9150,52.77204651
13.9200,53.1657642
13.9250,53.56096039
13.9300,53.95750597
13.9350,54.35578154
13.9400,54.75624993
13.9450,55.15890725
13.9500,55.56339767
13.9550,55.97073613
13.9600,56.38118212
13.9650,56.79469887
13.9700,57.21169972
13.9750,57.63204875
13.9800,58.05532469
13.9850,58.48135597
13.9900,58.9101454
13.9950,59.3416837
14.0000,59.77572602
14.0050,60.21199955
14.0100,60.65038957
14.0150,61.09078711
14.0200,61.53339692
14.0250,61.97775784
14.0300,62.42430682
14.0350,62.87293874
14.0400,63.32378024
14.0450,63.77665645
14.0500,64.23152933
14.0550,64.68829348
14.0600,65.14667835
14.0650,65.60668939
14.0700,66.0691445
14.0750,66.533879
14.0800,67.00019321
14.0850,67.4682919
14.0900,67.93779122
14.0950,68.40842027
14.1000,68.87961022
14.1050,69.35121982
14.1100,69.82211537
14.1150,70.29244481
14.1200,70.76124913
14.1250,71.22805618
14.1300,71.69226077
14.1350,72.1532142
14.1400,72.61065016
14.1450,73.0642083
14.1500,73.51409424
14.1550,73.95931311
14.1600,74.40009366
14.1650,74.83657034
14.1700,75.26864614
14.1750,75.69638995
14.1800,76.11948682
14.1850,76.53783944
14.1900,76.95168593
14.1950,77.36122899
14.2000,77.76703949
14.2050,78.1694165
14.2100,78.56887619
14.2150,78.96582693
14.2200,79.35971827
14.2250,79.75091456
14.2300,80.13996862
14.2350,80.52731953
14.2400,80.91283336
14.2450,81.29698485
14.2500,81.6798786
14.2550,82.06141796
14.2600,82.44162353
14.2650,82.8209531
14.2700,83.19953678
14.2750,83.57789284
14.2800,83.95648392
14.2850,84.33552755
14.2900,84.71497098
14.2950,85.0943189
14.3000,85.4743369
14.3050,85.85492627
14.3100,86.23583112
14.3150,86.61798213
14.3200,87.00113387
14.3250,87.38597643
14.3300,87.77220314
14.3350,88.16078547
14.3400,88.55196426
14.3450,88.94645943
14.3500,89.34471177
14.3550,89.74724921
14.3600,90.15456742
14.3650,90.56691703
14.3700,90.98357152
14.3750,91.40478092
14.3800,91.83074095
14.3850,92.26111563
14.3900,92.69605854
14.3950,93.13525109
14.4000,93.57857867
14.4050,94.02644186
14.4100,94.47886283
14.4150,94.93560598
14.4200,95.39632155
14.4250,95.86091572
14.4300,96.32922669
14.4350,96.80099985
14.4400,97.27719249
14.4450,97.75713592
14.4500,98.24116669
14.4550,98.72901619
14.4600,99.22039254
14.4650,99.71523873
14.4700,100.2133649
14.4750,100.7147206
14.4800,101.2192673
14.4850,101.7267248
14.4900,102.2367681
14.4950,102.748811
14.5000,103.2625133
14.5050,103.7768674
14.5100,104.2908336
14.5150,104.8038539
14.5200,105.3159692
14.5250,105.8263934
14.5300,106.3348167
14.5350,106.8403154
14.5400,107.3428279
14.5450,107.8410568
14.5500,108.3346256
14.5550,108.8225447
14.5600,109.304357
14.5650,109.7794163
14.5700,110.2469313
14.5750,110.7064664
14.5800,111.1578098
14.5850,111.6005019
14.5900,112.0340801
14.5950,112.4595255
14.6000,112.8761818
14.6050,113.283686
14.6100,113.6821614
14.6150,114.0708371
14.6200,114.4501088
14.6250,114.8205063
14.6300,115.1821155
14.6350,115.5345694
14.6400,115.8777564
14.6450,116.2118032
14.6500,116.5366781
14.6550,116.8524125
14.6600,117.158967
14.6650,117.4564287
14.6700,117.7452696
14.6750,118.0253738
14.6800,118.2971716
14.6850,118.5609298
14.6900,118.8171566
14.6950,119.0663042
14.7000,119.3080512
14.7050,119.5429131
14.7100,119.7713968
14.7150,119.9929803
14.7200,120.2079174
14.7250,120.4169782
14.7300,120.6211252
14.7350,120.8209184
14.7400,121.0165585
14.7450,121.208823
14.7500,121.3977016
14.7550,121.5830406
14.7600,121.7659456
14.7650,121.9462779
14.7700,122.1253233
14.7750,122.3027611
14.7800,122.4783153
14.7850,122.6525122
14.7900,122.8252186
14.7950,122.9964631
14.8000,123.1670824
14.8050,123.3368866
14.8100,123.5066707
14.8150,123.6755872
14.8200,123.844091
14.8250,124.0117415
14.8300,124.1783906
14.8350,124.3436449
14.8400,124.5074931
14.8450,124.6702989
14.8500,124.8321728
14.8550,124.9935023
14.8600,125.1537279
14.8650,125.3127743
14.8700,125.4702827
14.8750,125.6256879
14.8800,125.7788508
14.8850,125.930057
14.8900,126.0797552
14.8950,126.2272605
14.9000,126.3728429
14.9050,126.516383
14.9100,126.6579238
14.9150,126.798165
14.9200,126.9360179
14.9250,127.0711969
14.9300,127.2033546
14.9350,127.332676
14.9400,127.4595358
14.9450,127.5834935
14.9500,127.7045834
14.9550,127.8229175
14.9600,127.9383849
14.9650,128.0507988
14.9700,128.1603578
14.9750,128.2668774
14.9800,128.3703208
14.9850,128.471192
14.9900,128.569601
14.9950,128.6656238
15.0000,128.7595458
15.0050,128.8510112
15.0100,128.9395753
15.0150,129.0261123
15.0200,129.1110106
15.0250,129.194704
15.0300,129.2772532
15.0350,129.358567
15.0400,129.4387609
15.0450,129.5185736
15.0500,129.5976198
15.0550,129.6777559
15.0600,129.758792
15.0650,129.8410202
15.0700,129.9244905
15.0750,130.0096433
15.0800,130.0966281
15.0850,130.1851448
15.0900,130.2756535
15.0950,130.3689569
15.1000,130.4651339
15.1050,130.5638873
15.1100,130.6652358
15.1150,130.7689628
15.1200,130.8745427
15.1250,130.9820484
15.1300,131.0911381
15.1350,131.2019586
15.1400,131.3143782
15.1450,131.4282814
15.1500,131.5432198
15.1550,131.6585866
15.1600,131.7743604
15.1650,131.8901923
15.1700,132.0064272
15.1750,132.1231428
15.1800,132.2400874
15.1850,132.3569816
15.1900,132.4733289
15.1950,132.589466
15.2000,132.7049056
15.2050,132.8201544
15.2100,132.9348816
15.2150,133.0485896
15.2200,133.1617031
15.2250,133.2739
15.2300,133.3855908
15.2350,133.4967529
15.2400,133.6066596
15.2450,133.7156974
15.2500,133.8240046
15.2550,133.9312038
15.2600,134.03769
15.2650,134.1437634
15.2700,134.2494681
15.2750,134.3551827
15.2800,134.4614129
15.2850,134.5674996
15.2900,134.6727437
15.2950,134.776715
15.3000,134.8791829
15.3050,134.9800734
15.3100,135.0799611
15.3150,135.178336
15.3200,135.2754605
15.3250,135.3710465
15.3300,135.4648346
15.3350,135.5565355
15.3400,135.646304
15.3450,135.733757
15.3500,135.8198043
15.3550,135.9035569
15.3600,135.9844399
15.3650,136.0621758
15.3700,136.1365575
15.3750,136.2074345
15.3800,136.2746029
15.3850,136.3385542
15.3900,136.399619
15.3950,136.4568415
15.4000,136.5098036
15.4050,136.5586107
15.4100,136.6031189
15.4150,136.6437998
15.4200,136.6808694
15.4250,136.7140967
15.4300,136.7435621
15.4350,136.768772
15.4400,136.7890736
15.4450,136.8043107
15.4500,136.8141647
15.4550,136.81946
15.4600,136.8199243
15.4650,136.8163197
15.4700,136.8083867
15.4750,136.7961965
15.4800,136.7799039
15.4850,136.7591349
15.4900,136.7345389
15.4950,136.7059212
15.5000,136.673876
15.5050,136.6383708
15.5100,136.5995778
15.5150,136.5575357
15.5200,136.5125163
15.5250,136.4649723
15.5300,136.4147663
15.5350,136.3621654
15.5400,136.3076468
15.5450,136.25094
15.5500,136.1919671
15.5550,136.1311488
15.5600,136.0683298
15.5650,136.0032509
15.5700,135.9349407
15.5750,135.8634097
15.5800,135.7880308
15.5850,135.708775
15.5900,135.6258462
15.5950,135.5391707
15.6000,135.4485508
15.6050,135.353802
15.6100,135.254505
15.6150,135.1508631
15.6200,135.042325
15.6250,134.9285503
15.6300,134.8090745
15.6350,134.6840614
15.6400,134.5534403
15.6450,134.4172185
15.6500,134.2744603
15.6550,134.1250472
15.6600,133.9692379
15.6650,133.8070189
15.6700,133.6383029
15.6750,133.4631459
15.6800,133.2821005
15.6850,133.0949554
15.6900,132.901026
15.6950,132.7005185
15.7000,132.4933696
15.7050,132.2796113
15.7100,132.0592749
15.7150,131.832453
15.7200,131.5990978
15.7250,131.3594464
15.7300,131.1135869
15.7350,130.8618971
15.7400,130.6050463
15.7450,130.343234
15.7500,130.0774422
15.7550,129.8068773
15.7600,129.5320729
15.7650,129.2529495
15.7700,128.9692871
15.7750,128.6819801
15.7800,128.3907381
15.7850,128.0962461
15.7900,127.7982504
15.7950,127.497297
15.8000,127.1936573
15.8050,126.8875429
15.8100,126.579098
15.8150,126.2689538
15.8200,125.9574501
15.8250,125.6446369
15.8300,125.3309932
15.8350,125.0162034
15.8400,124.7007334
15.8450,124.3849786
15.8500,124.0690772
15.8550,123.7532994
15.8600,123.4373241
15.8650,123.1211918
15.8700,122.8052538
15.8750,122.4892368
15.8800,122.1734122
15.8850,121.8573549
15.8900,121.5407141
15.8950,121.2239198
15.9000,120.9064038
15.9050,120.5878506
15.9100,120.2680208
15.9150,119.9463714
15.9200,119.6228269
15.9250,119.2971184
15.9300,118.9695313
15.9350,118.640278
15.9400,118.3089205
15.9450,117.9753115
15.9500,117.639223
15.9550,117.3005072
15.9600,116.9590922
15.9650,116.6148882
15.9700,116.2674053
15.9750,115.9168189
15.9800,115.5624692
15.9850,115.2043881
15.9900,114.8424727
15.9950,114.4777292
16.0000,114.1097008
16.0050,113.7383262
16.0100,113.3637612
16.0150,112.9860391
16.0200,112.6048577
16.0250,112.219458
16.0300,111.8296832
16.0350,111.4350968
16.0400,111.0346486
16.0450,110.628489
16.0500,110.2162893
16.0550,109.7985722
16.0600,109.3752315
16.0650,108.9463112
16.0700,108.5122397
16.0750,108.0729349
16.0800,107.6287705
16.0850,107.1795559
16.0900,106.7258657
16.0950,106.2681486
16.1000,105.8065042
16.1050,105.3415803
16.1100,104.8741155
16.1150,104.4043762
16.1200,103.9330018
16.1250,103.4607919
16.1300,102.9883176
16.1350,102.5163955
16.1400,102.0454007
16.1450,101.5759695
16.1500,101.109274
16.1550,100.6451941
16.1600,100.1843302
16.1650,99.72665365
16.1700,99.2727567
16.1750,98.82277019
16.1800,98.37583632
16.1850,97.93263359
16.1900,97.4929994
16.1950,97.05644175
16.2000,96.62358766
16.2050,96.1949614
16.2100,95.7702564
16.2150,95.349277
16.2200,94.93126902
16.2250,94.51638805
16.2300,94.10486015
16.2350,93.69668213
16.2400,93.29148619
16.2450,92.88943451
16.2500,92.49032906
16.2550,92.09421662
16.2600,91.70039182
16.2650,91.3084645
16.2700,90.91823234
16.2750,90.52943174
16.2800,90.14154529
16.2850,89.75464375
16.2900,89.36846888
16.2950,88.9821085
16.3000,88.59594658
16.3050,88.20902588
16.3100,87.82086931
16.3150,87.4311748
16.3200,87.04022064
16.3250,86.64803682
16.3300,86.25428443
16.3350,85.85875671
16.3400,85.4615229
16.3450,85.06258619
16.3500,84.66124408
16.3550,84.25771674
16.3600,83.85185942
16.3650,83.44400892
16.3700,83.0343401
16.3750,82.62269733
16.3800,82.2089396
16.3850,81.79366749
16.3900,81.3763818
16.3950,80.95679808
16.4000,80.53509717
16.4050,80.11102258
16.4100,79.6842236
16.4150,79.25497897
16.4200,78.82323283
16.4250,78.38907942
16.4300,77.95261871
16.4350,77.51393764
16.4400,77.0728803
16.4450,76.62905337
16.4500,76.18260702
16.4550,75.73364204
16.4600,75.28309992
16.4650,74.83171079
16.4700,74.37926658
16.4750,73.92585187
16.4800,73.47188798
16.4850,73.01758257
16.4900,72.56324384
16.4950,72.10905285
16.5000,71.65538138
16.5050,71.20248837
16.5100,70.75054672
16.5150,70.29984117
16.5200,69.85084597
16.5250,69.40352537
16.5300,68.95776437
16.5350,68.51366253
16.5400,68.07106636
16.5450,67.63013265
16.5500,67.19101906
16.5550,66.75367409
16.5600,66.3180615
16.5650,65.88403224
16.5700,65.45157528
16.5750,65.02058304
16.5800,64.59135752
16.5850,64.16371255
16.5900,63.73759414
16.5950,63.31274868
16.6000,62.88932009
16.6050,62.46819971
16.6100,62.04873932
16.6150,61.63094349
16.6200,61.21463732
16.6250,60.79982593
16.6300,60.38643113
16.6350,59.97457263
16.6400,59.56354873
16.6450,59.15332279
16.6500,58.74386426
16.6550,58.33443055
16.6600,57.92492536
16.6650,57.51481977
16.6700,57.10404853
16.6750,56.6922875
16.6800,56.27947791
16.6850,55.86545864
16.6900,55.45000595
16.6950,55.03339235
16.7000,54.61558381
16.7050,54.19655976
16.7100,53.77636684
16.7150,53.354719
16.7200,52.93134073
16.7250,52.50559569
16.7300,52.07785582
16.7350,51.64783925
16.7400,51.21629335
16.7450,50.78387667
16.7500,50.35088699
16.7550,49.91835951
16.7600,49.48670931
16.7650,49.05672232
16.7700,48.62894593
16.7750,48.2040282
16.7800,47.78263662
16.7850,47.36544314
16.7900,46.95331243
16.7950,46.54681485
16.8000,46.1460902
16.8050,45.75089792
16.8100,45.3618332
16.8150,44.97920775
16.8200,44.60300313
16.8250,44.23335381
16.8300,43.86994317
16.8350,43.51263408
16.8400,43.16149872
16.8450,42.81559326
16.8500,42.47445692
16.8550,42.1373785
16.8600,41.80380204
16.8650,41.47348145
16.8700,41.14606609
16.8750,40.82113734
16.8800,40.49800992
16.8850,40.17633941
16.8900,39.85620163
16.8950,39.53753247
16.9000,39.22019167
16.9050,38.9037877
16.9100,38.58838133
16.9150,38.27389738
16.9200,37.96029063
16.9250,37.64715942
16.9300,37.3346544
16.9350,37.0225687
16.9400,36.71154173
16.9450,36.4012451
16.9500,36.09191559
16.9550,35.78329189
16.9600,35.47574294
16.9650,35.16907508
16.9700,34.86314137
16.9750,34.55761867
16.9800,34.25230919
16.9850,33.94655924
16.9900,33.64017566
16.9950,33.3325806
17.0000,33.02333376
17.0050,32.71203059
17.0100,32.39888051
17.0150,32.08366576
17.0200,31.76694983
17.0250,31.44887153
17.0300,31.12930498
17.0350,30.8091159
17.0400,30.48827404
17.0450,30.16696171
17.0500,29.84549694
17.0550,29.523389
17.0600,29.20035082
17.0650,28.87649162
17.0700,28.55222151
17.0750,28.22769786
17.0800,27.90303006
17.0850,27.57834746
17.0900,27.25387703
17.0950,26.92968871
17.1000,26.60635086
17.1050,26.28418225
17.1100,25.96350569
17.1150,25.64434558
17.1200,25.32725049
17.1250,25.01252763
17.1300,24.70056871
17.1350,24.39161086
17.1400,24.08595332
17.1450,23.78388093
17.1500,23.48638145
17.1550,23.19363691
17.1600,22.90607124
17.1650,22.62424619
17.1700,22.34815043
17.1750,22.07808434
17.1800,21.8144953
17.1850,21.55737843
17.1900,21.30676503
17.1950,21.06271956
17.2000,20.82461633
17.2050,20.59274737
17.2100,20.36655342
17.2150,20.1461062
17.2200,19.9306239
17.2250,19.72046274
17.2300,19.51501804
17.2350,19.3142416
17.2400,19.11756416
17.2450,18.92509999
17.2500,18.73649731
17.2550,18.55192322
17.2600,18.37078844
17.2650,18.19294097
17.2700,18.01821849
17.2750,17.84643906
17.2800,17.67749961
17.2850,17.5115157
17.2900,17.34832914
17.2950,17.18756698
17.3000,17.02903757
17.3050,16.87257809
17.3100,16.71813533
17.3150,16.56556719
17.3200,16.41447901
17.3250,16.26474275
17.3300,16.11634986
17.3350,15.96877307
17.3400,15.82196457
17.3450,15.67552633
17.3500,15.52904441
17.3550,15.38249244
17.3600,15.23618597
17.3650,15.09002833
17.3700,14.94377999
17.3750,14.79759186
17.3800,14.65149316
17.3850,14.5055699
17.3900,14.36001829
17.3950,14.21496863
17.4000,14.07021523
17.4050,13.92631926
17.4100,13.78282418
17.4150,13.64001776
17.4200,13.49769484
17.4250,13.35580557
17.4300,13.21447494
17.4350,13.07357013
17.4400,12.93304558
17.4450,12.79300841
17.4500,12.65305268
17.4550,12.5134043
17.4600,12.37402169
17.4650,12.23476161
17.4700,12.09556602
17.4750,11.95671222
17.4800,11.8181224
17.4850,11.67977983
17.4900,11.54158513
17.4950,11.4035996
17.5000,11.26583371
17.5050,11.12806759
17.5100,10.99049835
17.5150,10.85303665
17.5200,10.71551441
17.5250,10.57799925
17.5300,10.44057495
17.5350,10.30323481
17.5400,10.16609928
17.5450,10.02909739
17.5500,9.892188164
17.5550,9.755291256
17.5600,9.618448005
17.5650,9.481786073
17.5700,9.345469059
17.5750,9.209302985
17.5800,9.07338743
17.5850,8.937508691
17.5900,8.801675357
17.5950,8.666031758
17.6000,8.530933239
17.6050,8.396141059
17.6100,8.261919505
17.6150,8.128333364
17.6200,7.995317312
17.6250,7.863014245
17.6300,7.731369228
17.6350,7.600724131
17.6400,7.470836846
17.6450,7.34221254
17.6500,7.214958421
17.6550,7.089267897
17.6600,6.965185136
17.6650,6.842807136
17.6700,6.722634675
17.6750,6.604685982
17.6800,6.489295417
17.6850,6.376529113
17.6900,6.266464221
17.6950,6.159336135
17.7000,6.055068901
17.7050,5.953489778
17.7100,5.854750626
17.7150,5.758830631
17.7200,5.665755531
17.7250,5.575547672
17.7300,5.487868408
17.7350,5.402850662
17.7400,5.320157438
17.7450,5.239867274
17.7500,5.161793264
17.7550,5.085863909
17.7600,5.011836755
17.7650,4.939772341
17.7700,4.869671609
17.7750,4.801127121
17.7800,4.734197856
17.7850,4.668999958
17.7900,4.605495249
17.7950,4.543597573
17.8000,4.483733408
17.8050,4.425757532
17.8100,4.369769466
17.8150,4.315839502
17.8200,4.264207329
17.8250,4.21472909
17.8300,4.167493775
17.8350,4.122338003
17.8400,4.079310842
17.8450,4.038259077
17.8500,3.99904825
17.8550,3.961388177
17.8600,3.925252807
17.8650,3.890221969
17.8700,3.855916237
17.8750,3.822269995
17.8800,3.788952451
17.8850,3.756034286
17.8900,3.723322996
17.8950,3.690681751
17.9000,3.657765226
17.9050,3.625077703
17.9100,3.592167714
17.9150,3.559157343
17.9200,3.526260983
17.9250,3.493457832
17.9300,3.460607136
17.9350,3.42780257
17.9400,3.394988219
17.9450,3.36213861
17.9500,3.328985647
17.9550,3.295505369
17.9600,3.261701797
17.9650,3.227386282
17.9700,3.192489865
17.9750,3.157002731
17.9800,3.120761405
17.9850,3.083736013
17.9900,3.045964027
17.9950,3.007489167
18.0000,2.968363848
18.0050,2.928775489
18.0100,2.88905439
18.0150,2.849077998
18.0200,2.809177162
18.0250,2.769631448
18.0300,2.730776698
18.0350,2.692848265
18.0400,2.656441314
18.0450,2.621681189
18.0500,2.58874998
18.0550,2.557832813
18.0600,2.529220039
18.0650,2.5030156
18.0700,2.47899117
18.0750,2.45749677
18.0800,2.438364766
18.0850,2.421299575
18.0900,2.406327491
18.0950,2.393156072
18.1000,2.381585785
18.1050,2.371563119
18.1100,2.363086765
18.1150,2.35569103
18.1200,2.349594298
18.1250,2.34433761
18.1300,2.33991723
18.1350,2.33632044
18.1400,2.333664518
18.1450,2.331836172
18.1500,2.331037406
18.1550,2.331468563
18.1600,2.333160919
18.1650,2.336383981
18.1700,2.341275264
18.1750,2.347736904
18.1800,2.355961534
18.1850,2.365690459
18.1900,2.377098771
18.1950,2.390030061
18.2000,2.404706488
18.2050,2.420721914
18.2100,2.438330385
18.2150,2.457434758
18.2200,2.47801409
18.2250,2.499966891
18.2300,2.523512091
18.2350,2.548399094
18.2400,2.574823737
18.2450,2.602628101
18.2500,2.632320421
18.2550,2.663655804
18.2600,2.696676144
18.2650,2.731438375
18.2700,2.768008262
18.2750,2.806290585
18.2800,2.846457591
18.2850,2.888631852
18.2900,2.932631723
18.2950,2.9786852
18.3000,3.027114578
18.3050,3.077732291
18.3100,3.130638624
18.3150,3.186266498
18.3200,3.244624829
18.3250,3.305442878
18.3300,3.368980566
18.3350,3.435061767
18.3400,3.503894421
18.3450,3.57515213
18.3500,3.649124188
18.3550,3.72562474
18.3600,3.804554307
18.3650,3.885567965
18.3700,3.969038982
18.3750,4.05469638
18.3800,4.142395448
18.3850,4.232192337
18.3900,4.324019193
18.3950,4.417793622
18.4000,4.513397996
18.4050,4.610960147
18.4100,4.710271838
18.4150,4.811691481
18.4200,4.914850722
18.4250,5.019941064
18.4300,5.126893542
18.4350,5.235912632
18.4400,5.346667679
18.4450,5.45924334
18.4500,5.573334849
18.4550,5.689105218
18.4600,5.806232476
18.4650,5.92457157
18.4700,6.044043347
18.4750,6.164496583
18.4800,6.286140454
18.4850,6.408752665
18.4900,6.532313479
18.4950,6.65671231
18.5000,6.781892682
18.5050,6.907741494
18.5100,7.034141725
18.5150,7.161135871
18.5200,7.288684151
18.5250,7.416909602
18.5300,7.545810105
18.5350,7.675518037
18.5400,7.806171673
18.5450,7.937806174
18.5500,8.070422905
18.5550,8.20396609
18.5600,8.338582224
18.5650,8.474479169
18.5700,8.611359579
18.5750,8.749707494
18.5800,8.889440501
18.5850,9.030623533
18.5900,9.173474168
18.5950,9.317744523
18.6000,9.463483152
18.6050,9.610911492
18.6100,9.760155266
18.6150,9.911254371
18.6200,10.06430349
18.6250,10.21965467
18.6300,10.37745869
18.6350,10.5378636
18.6400,10.70084972
18.6450,10.86694771
18.6500,11.0358243
18.6550,11.20793287
18.6600,11.38330371
18.6650,11.56237822
18.6700,11.7446981
18.6750,11.93046419
18.6800,12.11977087
18.6850,12.31263042
18.6900,12.50874611
18.6950,12.70848897
18.7000,12.91187989
18.7050,13.11849521
18.7100,13.32852417
18.7150,13.54168157
18.7200,13.75827129
18.7250,13.97822894
18.7300,14.20145824
18.7350,14.42756148
18.7400,14.65682863
18.7450,14.88898922
18.7500,15.12427905
18.7550,15.36248884
18.7600,15.60384767
18.7650,15.84818942
18.7700,16.09530177
18.7750,16.34531171
18.7800,16.59764425
18.7850,16.85233843
18.7900,17.10879176
18.7950,17.36716173
18.8000,17.62694447
18.8050,17.88797752
18.8100,18.15003058
18.8150,18.41286233
18.8200,18.67622349
18.8250,18.9399165
18.8300,19.20410709
18.8350,19.46883533
18.8400,19.73400614
18.8450,19.99971583
18.8500,20.26601635
18.8550,20.53343373
18.8600,20.80191066
18.8650,21.07137933
18.8700,21.34220447
18.8750,21.61436432
18.8800,21.88782351
18.8850,22.16283066
18.8900,22.43915399
18.8950,22.71694136
18.9000,22.99611473
18.9050,23.27659321
18.9100,23.55828641
18.9150,23.84100744
18.9200,24.12439667
18.9250,24.40831901
18.9300,24.69245115
18.9350,24.97678865
18.9400,25.26114583
18.9450,25.54536978
18.9500,25.82973527
18.9550,26.11381637
18.9600,26.39768459
18.9650,26.68104794
18.9700,26.9640846
18.9750,27.24687599
18.9800,27.52932475
18.9850,27.81166857
18.9900,28.09405287
18.9950,28.37639483
19.0000,28.6587575
19.0050,28.94131119
19.0100,29.22406883
19.0150,29.50715934
19.0200,29.79068212
19.0250,30.07462497
19.0300,30.35919205
19.0350,30.64460822
19.0400,30.93079281
19.0450,31.21818914
19.0500,31.50675145
19.0550,31.79642521
19.0600,32.08723651
19.0650,32.37938228
19.0700,32.67277737
19.0750,32.96723261
19.0800,33.26300734
19.0850,33.56012168
19.0900,33.85862808
19.0950,34.15848373
19.1000,34.45943608
19.1050,34.76168324
19.1100,35.0652475
19.1150,35.37025775
19.1200,35.67641025
19.1250,35.98349643
19.1300,36.29129667
19.1350,36.59954693
19.1400,36.90849251
19.1450,37.21819603
19.1500,37.52873539
19.1550,37.84005703
19.1600,38.15234096
19.1650,38.46586202
19.1700,38.7805642
19.1750,39.09642012
19.1800,39.41362584
19.1850,39.7322277
19.1900,40.05250685
19.1950,40.37445826
19.2000,40.69841828
19.2050,41.0242776
19.2100,41.35230318
19.2150,41.68200458
19.2200,42.01357788
19.2250,42.34710498
19.2300,42.68246074
19.2350,43.01943601
19.2400,43.35783867
19.2450,43.69737533
19.2500,44.03804433
19.2550,44.37969269
19.2600,44.722506
19.2650,45.06685135
19.2700,45.41277863
19.2750,45.7603279
19.2800,46.10955514
19.2850,46.46072679
19.2900,46.81356976
19.2950,47.16836047
19.3000,47.52492994
19.3050,47.88373968
19.3100,48.24481793
19.3150,48.6078061
19.3200,48.97268597
19.3250,49.33985017
19.3300,49.70887675
19.3350,50.07975186
19.3400,50.45265007
19.3450,50.82689075
19.3500,51.20249431
19.3550,51.57949861
19.3600,51.95749247
19.3650,52.3361337
19.3700,52.71519454
19.3750,53.09481475
19.3800,53.47491273
19.3850,53.8551152
19.3900,54.23612611
19.3950,54.61796527
19.4000,55.00127387
19.4050,55.38558046
19.4100,55.77101103
19.4150,56.15748847
19.4200,56.54520516
19.4250,56.93442431
19.4300,57.32502844
19.4350,57.71676544
19.4400,58.10991237
19.4450,58.50420942
19.4500,58.89956446
19.4550,59.29633335
19.4600,59.69438086
19.4650,60.09372588
19.4700,60.49460234
19.4750,60.89705395
19.4800,61.30095904
19.4850,61.70641087
19.4900,62.11334372
19.4950,62.52172661
19.5000,62.93182933
19.5050,63.34317408
19.5100,63.75543207
19.5150,64.1690515
19.5200,64.58376889
19.5250,64.99928419
19.5300,65.41601706
19.5350,65.83437074
19.5400,66.25438033
19.5450,66.67627315
19.5500,67.0995497
19.5550,67.52418858
19.5600,67.94979022
19.5650,68.37564962
19.5700,68.80153002
19.5750,69.2273885
19.5800,69.65310536
19.5850,70.07839449
19.5900,70.50343474
19.5950,70.92756042
19.6000,71.35092913
19.6050,71.77376397
19.6100,72.19606259
19.6150,72.61836165
19.6200,73.04083665
19.6250,73.46364648
19.6300,73.88717141
19.6350,74.31202654
19.6400,74.73832233
19.6450,75.16679887
19.6500,75.59717581
19.6550,76.02941759
19.6600,76.46383653
19.6650,76.90102567
19.6700,77.34165135
19.6750,77.78628006
19.6800,78.23536234
19.6850,78.68940888
19.6900,79.14851954
19.6950,79.61267263
19.7000,80.08200846
19.7050,80.55693336
19.7100,81.03722346
19.7150,81.5225727
19.7200,82.01299398
19.7250,82.50812977
19.7300,83.00780035
19.7350,83.51192069
19.7400,84.01938075
19.7450,84.53040715
19.7500,85.04444089
19.7550,85.56052919
19.7600,86.07779007
19.7650,86.5955678
19.7700,87.11304963
19.7750,87.62932863
19.7800,88.14427212
19.7850,88.65662389
19.7900,89.16644238
19.7950,89.67313726
19.8000,90.17560594
19.8050,90.67398094
19.8100,91.16819997
19.8150,91.65775004
19.8200,92.14189438
19.8250,92.6199572
19.8300,93.09156291
19.8350,93.55582306
19.8400,94.01251782
19.8450,94.46075883
19.8500,94.90051904
19.8550,95.33150699
19.8600,95.75355451
19.8650,96.16628242
19.8700,96.5697534
19.8750,96.96354805
19.8800,97.34767616
19.8850,97.72170243
19.8900,98.08620002
19.8950,98.44135429
19.9000,98.78714203
19.9050,99.12346203
19.9100,99.45056996
19.9150,99.76902432
19.9200,100.0798404
19.9250,100.3833488
19.9300,100.6801196
19.9350,100.9698489
19.9400,101.252815
19.9450,101.5295657
19.9500,101.8010231
19.9550,102.0675595
19.9600,102.3297158
19.9650,102.5878233
19.9700,102.8422431
19.9750,103.0929398
19.9800,103.3405488
19.9850,103.5851705
19.9900,103.8271836
19.9950,104.067412
20.0000,104.3062235
20.0050,104.5441632
20.0100,104.7815888
20.0150,105.0186557
20.0200,105.2556828
20.0250,105.4931136
20.0300,105.7312906
20.0350,105.9703334
20.0400,106.2111797
20.0450,106.4540346
20.0500,106.698732
20.0550,106.9460379
20.0600,107.1962217
20.0650,107.4493689
20.0700,107.7054764
20.0750,107.9646086
20.0800,108.2265895
20.0850,108.491423
20.0900,108.7586859
20.0950,109.0279501
20.1000,109.2988058
20.1050,109.5712581
20.1100,109.8444908
20.1150,110.118293
20.1200,110.3926545
20.1250,110.6678426
20.1300,110.944217
20.1350,111.2210371
20.1400,111.4981885
20.1450,111.7756076
20.1500,112.0527854
20.1550,112.3299664
20.1600,112.6070221
20.1650,112.8839075
20.1700,113.1609896
20.1750,113.4379868
20.1800,113.7150904
20.1850,113.9923778
20.1900,114.2696877
20.1950,114.5471856
20.2000,114.8245199
20.2050,115.1016977
20.2100,115.3787217
20.2150,115.655506
20.2200,115.9316113
20.2250,116.2073451
20.2300,116.4825303
20.2350,116.7575884
20.2400,117.0324082
20.2450,117.3072728
20.2500,117.5820539
20.2550,117.8565738
20.2600,118.1309397
20.2650,118.4052996
20.2700,118.6794091
20.2750,118.9540433
20.2800,119.2287351
20.2850,119.503965
20.2900,119.7796934
20.2950,120.0558055
20.3000,120.3323537
20.3050,120.6084173
20.3100,120.8840339
20.3150,121.1595007
20.3200,121.4343603
20.3250,121.708989
20.3300,121.9833432
20.3350,122.2570819
20.3400,122.5304225
20.3450,122.802396
20.3500,123.0732349
20.3550,123.3424154
20.3600,123.6101503
20.3650,123.8763631
20.3700,124.1410797
20.3750,124.4044807
20.3800,124.6667384
20.3850,124.9279171
20.3900,125.1878521
20.3950,125.4468946
20.4000,125.7047977
20.4050,125.961511
20.4100,126.2171749
20.4150,126.471886
20.4200,126.7253816
20.4250,126.9780889
20.4300,127.2293795
20.4350,127.4792692
20.4400,127.7276598
20.4450,127.9743125
20.4500,128.2194621
20.4550,128.4625696
20.4600,128.703411
20.4650,128.9419589
20.4700,129.1775464
20.4750,129.4106413
20.4800,129.6406787
20.4850,129.8673252
20.4900,130.0906239
20.4950,130.3102683
20.5000,130.5258413
20.5050,130.7375846
20.5100,130.9454801
20.5150,131.1495534
20.5200,131.3498253
20.5250,131.5460792
20.5300,131.7385694
20.5350,131.9265767
20.5400,132.1103341
20.5450,132.2892812
20.5500,132.4638904
20.5550,132.6343591
20.5600,132.8002531
20.5650,132.9621795
20.5700,133.1203215
20.5750,133.2737109
20.5800,133.4225692
20.5850,133.5666555
20.5900,133.7056545
20.5950,133.8398653
20.6000,133.9689999
20.6050,134.0942387
20.6100,134.2151907
20.6150,134.3317904
20.6200,134.4443178
20.6250,134.5529387
20.6300,134.657309
20.6350,134.7580343
20.6400,134.8550971
20.6450,134.9493848
20.6500,135.0407199
20.6550,135.1298951
20.6600,135.2166519
20.6650,135.3017139
20.6700,135.3855109
20.6750,135.4677229
20.6800,135.5486298
20.6850,135.6284112
20.6900,135.7070712
20.6950,135.7851403
20.7000,135.8629522
20.7050,135.9406119
20.7100,136.0181945
20.7150,136.0957242
20.7200,136.1734299
20.7250,136.251005
20.7300,136.3285031
20.7350,136.4061382
20.7400,136.4839346
20.7450,136.5622224
20.7500,136.6406039
20.7550,136.719854
20.7600,136.7999816
20.7650,136.8806488
20.7700,136.9618879
20.7750,137.0437508
20.7800,137.1262887
20.7850,137.2092847
20.7900,137.2924234
20.7950,137.3758119
20.8000,137.4592573
20.8050,137.542175
20.8100,137.6244343
20.8150,137.7057622
20.8200,137.785592
20.8250,137.864007
20.8300,137.940567
20.8350,138.0155469
20.8400,138.0888022
20.8450,138.1604602
20.8500,138.2300598
20.8550,138.297275
20.8600,138.3628062
20.8650,138.4258547
20.8700,138.4865624
20.8750,138.5455493
20.8800,138.6026625
20.8850,138.6585298
20.8900,138.7127412
20.8950,138.7655332
20.9000,138.816709
20.9050,138.8663917
20.9100,138.9142152
20.9150,138.9605069
20.9200,139.0052023
20.9250,139.04789
20.9300,139.0886632
20.9350,139.127194
20.9400,139.1630665
20.9450,139.1955926
20.9500,139.2250551
20.9550,139.2503949
20.9600,139.2722856
20.9650,139.2897752
20.9700,139.3027852
20.9750,139.3113079
20.9800,139.3151881
20.9850,139.3140548
20.9900,139.3081739
20.9950,139.2969313
21.0000,139.2804327
21.0050,139.2583382
21.0100,139.2308651
21.0150,139.1977909
21.0200,139.159345
21.0250,139.1153908
21.0300,139.0664179
21.0350,139.0124617
21.0400,138.9537311
21.0450,138.8904165
21.0500,138.8226925
21.0550,138.7505691
21.0600,138.6740709
21.0650,138.5937518
21.0700,138.5094258
21.0750,138.4210623
21.0800,138.3285021
21.0850,138.2322025
21.0900,138.1321504
21.0950,138.0281517
21.1000,137.9206065
21.1050,137.8098275
21.1100,137.6957812
21.1150,137.5783724
21.1200,137.4578203
21.1250,137.3337463
21.1300,137.2065211
21.1350,137.0760072
21.1400,136.9416766
21.1450,136.8039444
21.1500,136.6625538
21.1550,136.517238
21.1600,136.367781
21.1650,136.2136892
21.1700,136.0553089
21.1750,135.8922595
21.1800,135.7245463
21.1850,135.55137
21.1900,135.3734471
21.1950,135.1902616
21.2000,135.0019165
21.2050,134.8075806
21.2100,134.6081837
21.2150,134.402704
21.2200,134.1912177
21.2250,133.9732467
21.2300,133.7485243
21.2350,133.5167119
21.2400,133.2780744
21.2450,133.0323851
21.2500,132.7794938
21.2550,132.5196948
21.2600,132.2524509
21.2650,131.978062
21.2700,131.6959435
21.2750,131.4062185
21.2800,131.1086502
21.2850,130.8037289
21.2900,130.4911734
21.2950,130.1714283
21.3000,129.8444752
21.3050,129.5107139
21.3100,129.1701886
21.3150,128.8231516
21.3200,128.469336
21.3250,128.1096335
21.3300,127.7434409
21.3350,127.3704281
21.3400,126.9910739
21.3450,126.6052511
21.3500,126.2131777
21.3550,125.8143345
21.3600,125.4093247
21.3650,124.9981066
21.3700,124.5814262
21.3750,124.1589543
21.3800,123.7305613
21.3850,123.2963875
21.3900,122.8565106
21.3950,122.4112197
21.4000,121.9605181
21.4050,121.5043334
21.4100,121.0425342
21.4150,120.5753658
21.4200,120.1030437
21.4250,119.6260916
21.4300,119.1438425
21.4350,118.6567612
21.4400,118.1651047
21.4450,117.6685497
21.4500,117.1673522
21.4550,116.6617408
21.4600,116.1513639
21.4650,115.6368546
21.4700,115.1181976
21.4750,114.5957063
21.4800,114.0692836
21.4850,113.5395914
21.4900,113.0070657
21.4950,112.4712803
21.5000,111.9326423
21.5050,111.3913361
21.5100,110.8473072
21.5150,110.3007559
21.5200,109.7522513
21.5250,109.2022447
21.5300,108.6505249
21.5350,108.0975409
21.5400,107.542835
21.5450,106.9868068
21.5500,106.4297055
21.5550,105.8711286
21.5600,105.3109068
21.5650,104.7494093
21.5700,104.1868092
21.5750,103.622949
21.5800,103.057945
21.5850,102.4918161
21.5900,101.9249344
21.5950,101.3567029
21.6000,100.7870293
21.6050,100.2157093
21.6100,99.64270539
21.6150,99.06868089
21.6200,98.49409578
21.6250,97.91836266
21.6300,97.34187936
21.6350,96.7653789
21.6400,96.18849008
21.6450,95.61150938
21.6500,95.03436173
21.6550,94.45719131
21.6600,93.87960075
21.6650,93.30214786
21.6700,92.72436392
21.6750,92.14652491
21.6800,91.56878012
21.6850,90.99102301
21.6900,90.41342623
21.6950,89.83613182
21.7000,89.25960948
21.7050,88.68361331
21.7100,88.10818794
21.7150,87.5332569
21.7200,86.95857552
21.7250,86.38415239
21.7300,85.81061898
21.7350,85.23770614
21.7400,84.66531771
21.7450,84.09388735
21.7500,83.5230023
21.7550,82.95326873
21.7600,82.38480463
21.7650,81.81718467
21.7700,81.25038942
21.7750,80.68431269
21.7800,80.11900973
21.7850,79.55480923
21.7900,78.99155136
21.7950,78.42955233
21.8000,77.8682521
21.8050,77.30775129
21.8100,76.74802326
21.8150,76.18962384
21.8200,75.6319199
21.8250,75.07475367
21.8300,74.51789057
21.8350,73.96108923
21.8400,73.40429542
21.8450,72.84760897
21.8500,72.29051391
21.8550,71.73338555
21.8600,71.17595147
21.8650,70.61817147
21.8700,70.06013648
21.8750,69.50234402
21.8800,68.945208
21.8850,68.38864565
21.8900,67.83250463
21.8950,67.27722019
21.9000,66.72346897
21.9050,66.17150151
21.9100,65.62118189
21.9150,65.07321905
21.9200,64.52794935
21.9250,63.98566996
21.9300,63.4472696
21.9350,62.91237887
21.9400,62.38168204
21.9450,61.85511374
21.9500,61.33311823
21.9550,60.81616203
21.9600,60.3047502
21.9650,59.79877186
21.9700,59.29872393
21.9750,58.80481863
21.9800,58.31709384
21.9850,57.83574563
21.9900,57.36062647
21.9950,56.89143434
22.0000,56.42796131
22.0050,55.97058259
22.0100,55.51951445
22.0150,55.07504765
22.0200,54.63703984
22.0250,54.20553598
22.0300,53.78043215
22.0350,53.36238429
22.0400,52.9513162
22.0450,52.54729392
22.0500,52.15047927
22.0550,51.76068341
22.0600,51.37720512
22.0650,50.99981685
22.0700,50.62753281
22.0750,50.2592053
22.0800,49.89410616
22.0850,49.53041459
22.0900,49.16728716
22.0950,48.80413981
22.1000,48.44011873
22.1050,48.07481812
22.1100,47.70690061
22.1150,47.33597276
22.1200,46.96195991
22.1250,46.5848774
22.1300,46.20532655
22.1350,45.82350517
22.1400,45.43940399
22.1450,45.05272339
22.1500,44.6637131
22.1550,44.27248831
22.1600,43.87897916
22.1650,43.48339399
22.1700,43.08556438
22.1750,42.68533711
22.1800,42.28228037
22.1850,41.876831
22.1900,41.46903599
22.1950,41.05878158
22.2000,40.64589163
22.2050,40.2304799
22.2100,39.81281312
22.2150,39.39277241
22.2200,38.97063731
22.2250,38.54657989
22.2300,38.12066695
22.2350,37.6934488
22.2400,37.26547191
22.2450,36.83757209
22.2500,36.41052003
22.2550,35.98488144
22.2600,35.56125349
22.2650,35.14016299
22.2700,34.72210041
22.2750,34.30779905
22.2800,33.8975583
22.2850,33.49206593
22.2900,33.09146012
22.2950,32.6963845
22.3000,32.30693493
22.3050,31.92307707
22.3100,31.54498053
22.3150,31.17263681
22.3200,30.80668841
22.3250,30.44714802
22.3300,30.09411511
22.3350,29.74743922
22.3400,29.40726359
22.3450,29.07363097
22.3500,28.74682231
22.3550,28.42671034
22.3600,28.11320414
22.3650,27.80676135
22.3700,27.50755085
22.3750,27.2160185
22.3800,26.93193945
22.3850,26.65572047
22.3900,26.38719453
22.3950,26.12585012
22.4000,25.87161768
22.4050,25.62421553
22.4100,25.38338216
22.4150,25.14827213
22.4200,24.91864603
22.4250,24.69396067
22.4300,24.47294018
22.4350,24.25513641
22.4400,24.04036634
22.4450,23.82816684
22.4500,23.61770273
22.4550,23.40896186
22.4600,23.20154575
22.4650,22.9950459
22.4700,22.78917189
22.4750,22.58389285
22.4800,22.37908796
22.4850,22.17388642
22.4900,21.96811297
22.4950,21.76131295
22.5000,21.553108
22.5050,21.34322261
22.5100,21.13158947
22.5150,20.91770085
22.5200,20.70145053
22.5250,20.48264281
22.5300,20.26171061
22.5350,20.03889975
22.5400,19.81437569
22.5450,19.58854576
22.5500,19.3613801
22.5550,19.13324946
22.5600,18.9046782
22.5650,18.6761463
22.5700,18.44772013
22.5750,18.21980066
22.5800,17.99280896
22.5850,17.76667828
22.5900,17.54191941
22.5950,17.31876021
22.6000,17.09725709
22.6050,16.87763049
22.6100,16.65989679
22.6150,16.44435988
22.6200,16.2310355
22.6250,16.02001271
22.6300,15.8116866
22.6350,15.60598839
22.6400,15.40331795
22.6450,15.20344584
22.6500,15.00627789
22.6550,14.81178143
22.6600,14.6202335
22.6650,14.43154705
22.6700,14.24579139
22.6750,14.06289197
22.6800,13.88281551
22.6850,13.70564281
22.6900,13.53126422
22.6950,13.35949358
22.7000,13.19030233
22.7050,13.02319912
22.7100,12.85826147
22.7150,12.69512469
22.7200,12.53335146
22.7250,12.3728312
22.7300,12.21336262
22.7350,12.05470957
22.7400,11.89678117
22.7450,11.73913408
22.7500,11.5818831
22.7550,11.42470815
22.7600,11.26784682
22.7650,11.11110592
22.7700,10.95471884
22.7750,10.79837306
22.7800,10.6419689
22.7850,10.48575536
22.7900,10.3296567
22.7950,10.17373119
22.8000,10.01822727
22.8050,9.863279006
22.8100,9.708627472
22.8150,9.554638444
22.8200,9.401400952
22.8250,9.249548303
22.8300,9.098821426
22.8350,8.949340939
22.8400,8.801382648
22.8450,8.654962619
22.8500,8.51028336
22.8550,8.367634445
22.8600,8.226933657
22.8650,8.088104665
22.8700,7.951484117
22.8750,7.816937868
22.8800,7.684673311
22.8850,7.554905878
22.8900,7.427769106
22.8950,7.303185091
22.9000,7.181325357
22.9050,7.062636492
22.9100,6.946950517
22.9150,6.834100356
22.9200,6.724103433
22.9250,6.616955737
22.9300,6.512498583
22.9350,6.410716755
22.9400,6.31126591
22.9450,6.21444716
22.9500,6.120250465
22.9550,6.028634758
22.9600,5.939433043
22.9650,5.852796685
22.9700,5.768731806
22.9750,5.687078364
22.9800,5.607788077
22.9850,5.530687442
22.9900,5.455555303
22.9950,5.382561653
23.0000,5.311536643
23.0050,5.242152113
23.0100,5.17434605
23.0150,5.108106711
23.0200,5.043331031
23.0250,4.979937307
23.0300,4.917791964
23.0350,4.856956644
23.0400,4.797244267
23.0450,4.73869218
23.0500,4.681312999
23.0550,4.624935612
23.0600,4.56932077
23.0650,4.514586411
23.0700,4.460543048
23.0750,4.407409919
23.0800,4.355163287
23.0850,4.303875936
23.0900,4.253449946
23.0950,4.204116798
23.1000,4.155873607
23.1050,4.108392595
23.1100,4.061927435
23.1150,4.016433946
23.1200,3.971796131
23.1250,3.927636391
23.1300,3.884040746
23.1350,3.841074241
23.1400,3.798433795
23.1450,3.756132413
23.1500,3.714229635
23.1550,3.672790417
23.1600,3.631522398
23.1650,3.590890884
23.1700,3.550738536
23.1750,3.510864308
23.1800,3.4714994
23.1850,3.432438903
23.1900,3.393731241
23.1950,3.355418076
23.2000,3.317600435
23.2050,3.280077007
23.2100,3.243225473
23.2150,3.207177824
23.2200,3.172004359
23.2250,3.137759313
23.2300,3.104489414
23.2350,3.07247814
23.2400,3.041848973
23.2450,3.012590501
23.2500,2.98458959
23.2550,2.958020828
23.2600,2.932928902
23.2650,2.908963085
23.2700,2.886000647
23.2750,2.864324205
23.2800,2.844040063
23.2850,2.8249431
23.2900,2.807166758
23.2950,2.79031628
23.3000,2.774278952
23.3050,2.759431966
23.3100,2.745281
23.3150,2.731938096
23.3200,2.719272902
23.3250,2.707072847
23.3300,2.695435095
23.3350,2.684307039
23.3400,2.673440342
23.3450,2.663175686
23.3500,2.653267603
23.3550,2.644007866
23.3600,2.635238414
23.3650,2.627103241
23.3700,2.619707638
23.3750,2.612596664
23.3800,2.606258395
23.3850,2.600569959
23.3900,2.595605487
23.3950,2.591245111
23.4000,2.587402259
23.4050,2.584460936
23.4100,2.582433244
23.4150,2.581155642
23.4200,2.580664063
23.4250,2.580855679
23.4300,2.581839586
23.4350,2.583333968
23.4400,2.585687893
23.4450,2.588616516
23.4500,2.591955355
23.4550,2.595667414
23.4600,2.599903481
23.4650,2.604338646
23.4700,2.608966409
23.4750,2.614224127
23.4800,2.619599047
23.4850,2.625262553
23.4900,2.631019311
23.4950,2.636844876
23.5000,2.642727505
23.5050,2.64858387
23.5100,2.654374096
23.5150,2.660044304
23.5200,2.665467461
23.5250,2.670974776
23.5300,2.676415144
23.5350,2.681772187
23.5400,2.687050564
23.5450,2.692217683
23.5500,2.697293048
23.5550,2.702314555
23.5600,2.707448862
23.5650,2.712701142
23.5700,2.717945815
23.5750,2.723178921
23.5800,2.728207908
23.5850,2.733163509
23.5900,2.738079132
23.5950,2.743129687
23.6000,2.74845628
23.6050,2.753803728
23.6100,2.759206012
23.6150,2.76491415
23.6200,2.770944086
23.6250,2.777291235
23.6300,2.784007511
23.6350,2.791025272
23.6400,2.798539921
23.6450,2.806249249
23.6500,2.81438085
23.6550,2.822845688
23.6600,2.832044438
23.6650,2.841974161
23.6700,2.852474188
23.6750,2.864308255
23.6800,2.876965017
23.6850,2.890928669
23.6900,2.906274759
23.6950,2.923394183
23.7000,2.942335897
23.7050,2.963007402
23.7100,2.985661912
23.7150,3.010468174
23.7200,3.03746192
23.7250,3.066882944
23.7300,3.098805737
23.7350,3.133378478
23.7400,3.170394919
23.7450,3.210075476
23.7500,3.252573427
23.7550,3.297834674
23.7600,3.34585324
23.7650,3.39644627
23.7700,3.449818268
23.7750,3.505744808
23.7800,3.564203061
23.7850,3.625141376
23.7900,3.688533416
23.7950,3.754506135
23.8000,3.822910729
23.8050,3.893669438
23.8100,3.966781228
23.8150,4.042347112
23.8200,4.120393823
23.8250,4.200766113
23.8300,4.283890187
23.8350,4.369581927
23.8400,4.457885699
23.8450,4.549017569
23.8500,4.643098736
23.8550,4.740107023
23.8600,4.840022751
23.8650,4.943021986
23.8700,5.049364406
23.8750,5.15894121
23.8800,5.271845346
23.8850,5.388296031
23.8900,5.508207711
23.8950,5.631751966
23.9000,5.758887258
23.9050,5.889976933
23.9100,6.025267948
23.9150,6.164746818
23.9200,6.308496852
23.9250,6.45655254
23.9300,6.609338434
23.9350,6.766978207
23.9400,6.929744362
23.9450,7.09783963
23.9500,7.271730759
23.9550,7.451666583
23.9600,7.63774582
23.9650,7.830433896
23.9700,8.030603013
23.9750,8.238002611
23.9800,8.45322946
23.9850,8.676113765
23.9900,8.906942999
23.9950,9.145595648
24.0000,9.392213899
24.0050,9.646582757
24.0100,9.908834004
24.0150,10.1785487
24.0200,10.45562219
24.0250,10.73966205
24.0300,11.03031833
24.0350,11.3271528
24.0400,11.62991156
24.0450,11.93818766
24.0500,12.25150119
24.0550,12.56921827
24.0600,12.8912352
24.0650,13.21697702
24.0700,13.54605785
24.0750,13.8780585
24.0800,14.21277706
24.0850,14.5501469
24.0900,14.89013304
24.0950,15.23234455
24.1000,15.57660032
24.1050,15.92283012
24.1100,16.27086772
24.1150,16.62077615
24.1200,16.97259672
24.1250,17.32640413
24.1300,17.68174992
24.1350,18.03896883
24.1400,18.39802465
24.1450,18.75862424
24.1500,19.12077075
24.1550,19.48435796
24.1600,19.84953961
24.1650,20.21596436
24.1700,20.58369663
24.1750,20.95284837
24.1800,21.32374957
24.1850,21.69603488
24.1900,22.06991341
24.1950,22.44528908
24.2000,22.82222073
24.2050,23.20063249
24.2100,23.58046125
24.2150,23.96143321
24.2200,24.34416781
24.2250,24.72883268
24.2300,25.11516329
24.2350,25.50329318
24.2400,25.89319925
24.2450,26.2849495
24.2500,26.67866939
24.2550,27.07415263
24.2600,27.47167484
24.2650,27.87085159
24.2700,28.27126877
24.2750,28.67313557
24.2800,29.07635075
24.2850,29.48100865
24.2900,29.88731499
24.2950,30.29513371
24.3000,30.70435649
24.3050,31.11521121
24.3100,31.52760782
24.3150,31.94187766
24.3200,32.3579233
24.3250,32.77619404
24.3300,33.19677729
24.3350,33.62010584
24.3400,34.04603868
24.3450,34.47472645
24.3500,34.90631188
24.3550,35.34087275
24.3600,35.77846264
24.3650,36.219095
24.3700,36.66273027
24.3750,37.10938371
24.3800,37.55906352
24.3850,38.01142802
24.3900,38.46632467
24.3950,38.92386061
24.4000,39.38437115
24.4050,39.84792573
24.4100,40.31495325
24.4150,40.78543468
24.4200,41.25960414
24.4250,41.73814057
24.4300,42.2219478
24.4350,42.71131724
24.4400,43.20730586
24.4450,43.71082326
24.4500,44.22307314
24.4550,44.74529793
24.4600,45.27879293
24.4650,45.82542703
24.4700,46.38701117
24.4750,46.96555544
24.4800,47.56319649
24.4850,48.18222102
24.4900,48.82470759
24.4950,49.49311942
24.5000,50.18918922
24.5050,50.91466198
24.5100,51.67096953
24.5150,51.94426231
24.5200,52.2430678
24.5250,52.56640249
24.5300,52.91279527
24.5350,53.28037391
24.5400,53.66693354
24.5450,54.0699895
24.5500,54.48681669
24.5550,54.91447825
24.5600,55.34984722
24.5650,55.78962452
24.5700,56.23035593
24.5750,56.66845236
