type,name,time_units,begin_time,frequency,count,units
signal_3d,"Noraxon MyoMotion-Segments-Forearm RT-Acceleration","s",0.0000,200,4916,"mG"

time,x,y,z
0.0000,0.5140144481,-1.422049007,-9.274286281
0.0050,9.045355277,-3.929917833,-6.527502714
0.0100,-1.412690357,-13.59005302,-9.570742747
0.0150,-1.075319359,2.274832377,-10.92170076
0.0200,3.796459234,-3.394709226,-4.643107772
0.0250,2.819009193,-5.205932789,-4.799918862
0.0300,15.59721898,1.664249648,-4.598339367
0.0350,-0.07600406771,-8.934506034,-9.519689424
0.0400,6.76993019,-1.050567234,-1.715684964
0.0450,6.008166029,-5.858908971,-2.900322111
0.0500,7.62926164,-2.443073216,-8.600041868
0.0550,7.960956163,-2.024635678,-12.5873767
0.0600,0.4692326281,-8.138476,-9.486579843
0.0650,3.823444198,-4.509864783,-4.856412938
0.0700,-0.3020026913,-2.309722576,-2.341360024
0.0750,-5.886633298,3.806831225,-6.950707824
0.0800,-2.549094965,-9.967864061,-4.819202972
0.0850,2.642685339,2.398429717,-0.02866067332
0.0900,1.570303519,0.1331835612,-0.247201114
0.0950,1.552642607,-1.871957199,-0.5843927147
0.1000,0.4655704628,-2.942245664,-2.583409696
0.1050,-1.892759426,6.496174735,-4.143002042
0.1100,2.826807004,-4.625044038,-1.73017886
0.1150,0.6907694489,-2.047090485,-5.46705007
0.1200,-2.170249055,-2.298698975,-2.041984422
0.1250,-1.182211471,-1.59627659,-5.582123339
0.1300,6.601856012,-1.119394647,-0.6747212118
0.1350,3.979045007,-0.5746160397,-7.189703433
0.1400,4.844389857,-3.404422076,-2.292643896
0.1450,2.463576125,-1.97941407,-0.675535653
0.1500,0.09888632156,6.980874462,-2.296514638
0.1550,0.650813386,-2.424069345,3.521747179
0.1600,-3.7393529,5.826271463,-0.8681042536
0.1650,0.1754642943,-0.9659063707,0.8800874914
0.1700,1.030654396,-0.7979247765,2.278815881
0.1750,1.06477128,-4.882004726,-1.402613367
0.1800,2.813617734,-1.106852783,-2.518528333
0.1850,3.557526495,-11.42345872,-10.87648848
0.1900,3.62630714,-5.663180978,-12.39660221
0.1950,-3.300144595,-8.471700393,-16.29767061
0.2000,-3.102418075,10.68247662,-11.5591794
0.2050,0.7207128013,-7.708428255,-13.26422066
0.2100,4.426142685,-2.365562306,-5.92276729
0.2150,5.027837212,4.535119978,-2.347637473
0.2200,-0.2762861716,-5.562282102,-0.2116293329
0.2250,4.507259407,-4.043182255,6.811218307
0.2300,6.891104549,-12.19764014,7.064989827
0.2350,-4.602248259,-4.972577878,0.06907357606
0.2400,-4.808302439,-14.14923425,9.077396218
0.2450,-9.584046856,10.96136534,1.017265816
0.2500,-3.785677221,3.834777908,6.925587171
0.2550,-9.204070327,1.97513719,4.45960766
0.2600,-2.117177803,-2.755975777,9.065820665
0.2650,-3.990702443,-0.268104924,10.24150459
0.2700,-5.338995394,1.321244007,4.207951074
0.2750,-2.808243962,-1.817560848,-2.748563236
0.2800,5.398598495,-7.18203,4.056619015
0.2850,8.660958903,0.09536944793,-2.769569711
0.2900,8.04258435,0.8871401271,-4.044797693
0.2950,11.83040746,-10.66092597,-3.08688888
0.3000,14.42034471,-2.218043483,1.406178651
0.3050,18.86530918,-1.565134186,-2.711279317
0.3100,11.98355446,-6.787492297,-3.517682307
0.3150,9.578752674,-8.02074974,-8.874415289
0.3200,8.962910059,-1.510291102,-9.20870174
0.3250,10.79014746,-3.90685647,-4.904178183
0.3300,4.282291807,-2.650267323,-5.688200595
0.3350,6.690486529,-3.49412998,-2.719518682
0.3400,5.345170338,5.823065985,3.53188796
0.3450,-4.719515621,-2.737604607,-4.83236332
0.3500,0.6439081619,-2.033165602,0.9316542317
0.3550,3.543700229,-4.959361884,3.477388642
0.3600,-5.984158817,-2.113884204,-4.558455535
0.3650,5.497596073,-1.346295086,1.247537514
0.3700,8.208883119,-5.31609563,0.6654228868
0.3750,-1.618197532,-8.777743761,-9.852805469
0.3800,2.410732942,-2.941788489,-6.517510314
0.3850,-0.4347908151,2.91296961,0.9161348927
0.3900,-1.762198589,1.412227884,0.3817080333
0.3950,3.39185575,6.458390272,-0.1027877639
0.4000,8.255239122,4.675170493,0.8303635931
0.4050,7.651310905,4.054929205,3.331534503
0.4100,8.614885916,-4.08935306,6.82736222
0.4150,-2.091838529,2.095415837,-5.956480753
0.4200,7.07946123,-0.9690425332,2.579681389
0.4250,9.955552667,-11.2370923,2.435063765
0.4300,1.986288176,-1.662856204,2.299746446
0.4350,4.176686627,-12.63191682,1.651183454
0.4400,6.87993348,-9.03736954,8.343685621
0.4450,2.719662718,1.336195411,6.707404764
0.4500,-0.8323072856,4.900695226,1.874640071
0.4550,-1.158742217,7.199637973,0.3010722795
0.4600,8.225925393,-0.5307793192,4.061201698
0.4650,14.28019753,-0.4023546321,4.094681515
0.4700,6.339679338,10.0920138,-6.934458062
0.4750,11.77344205,-8.226106141,-3.316323945
0.4800,9.932979199,4.412069266,-2.968721465
0.4850,9.969929587,-7.177864363,-2.889039217
0.4900,11.89678445,3.696663933,0.08750163547
0.4950,8.016545998,1.435709593,-1.683244266
0.5000,5.922269864,2.261672621,-0.6906465532
0.5050,7.999696107,-10.05506341,1.971390498
0.5100,-1.950333736,-10.89951887,-4.08389437
0.5150,2.439284899,-3.640499469,-0.5875817262
0.5200,2.596410429,-12.87237312,4.409810634
0.5250,3.151745002,5.870416875,4.384299445
0.5300,7.661514526,-2.276099334,4.834655882
0.5350,5.124765576,-0.6585279227,5.027177875
0.5400,5.356574751,4.009424418,0.2634449861
0.5450,6.411441528,-6.931504516,-3.198126722
0.5500,5.11005963,-1.559236671,1.901401794
0.5550,5.767974715,-1.265432536,2.344213954
0.5600,-3.98416583,0.1022840484,-0.8420463118
0.5650,-7.877841804,-4.861421786,2.487614012
0.5700,1.951061618,4.774133564,12.99584524
0.5750,-10.90237795,-4.896186723,11.50462223
0.5800,-16.90442286,-7.987291202,11.52017236
0.5850,-4.112981262,-6.091719942,13.78939908
0.5900,-2.748980629,-15.38519122,14.08592339
0.5950,18.49965928,-9.091382048,17.22882675
0.6000,17.44177044,-6.329929187,14.40320643
0.6050,16.36873681,-11.66862826,11.7906362
0.6100,21.99820607,-15.93630213,16.26274374
0.6150,26.50771807,-5.748910366,11.76720138
0.6200,17.05322531,-3.4085902,7.777311025
0.6250,23.88141649,-6.6325058,14.22038302
0.6300,17.27805771,1.921037203,12.28998508
0.6350,10.81758792,-1.836006493,7.306708994
0.6400,6.281104574,-5.158344167,7.636112003
0.6450,-5.852780378,-7.063387588,2.918640976
0.6500,-6.789537482,8.378724519,8.709317644
0.6550,-14.59755327,-10.00356191,14.65507704
0.6600,-23.00235521,-8.386838286,16.43688151
0.6650,-32.34847729,0.4916200407,17.61549118
0.6700,-29.27743778,1.00045003,17.84479111
0.6750,-25.3867878,-16.03197331,15.57614485
0.6800,-16.97452478,-7.789336971,19.71574096
0.6850,-13.54574529,-7.255770584,7.397302624
0.6900,-4.854336073,-4.089336485,7.165274926
0.6950,-9.041456596,4.947099003,-1.911264386
0.7000,-7.768174551,5.170862111,4.20921298
0.7050,-5.647545844,18.91360666,-2.179157658
0.7100,-3.004878566,23.54013697,-5.664548652
0.7150,-3.807052977,20.82392595,-10.21302728
0.7200,0.578439577,5.287604272,-5.798542068
0.7250,-3.579233757,-3.261595759,-8.189397822
0.7300,-0.3917840362,2.626807063,-12.09390817
0.7350,-12.94795644,-6.287760469,-16.02168722
0.7400,-28.93914758,-17.91922788,-19.2041716
0.7450,-44.3487651,-15.45972587,-18.10244688
0.7500,-55.663561,-0.2479673061,-9.098799515
0.7550,-63.97663166,10.03410646,-9.001790986
0.7600,-82.3251751,20.45621587,-17.46974265
0.7650,-92.10693439,19.38456003,-28.94291357
0.7700,-81.37440058,24.20195273,-26.77701883
0.7750,-53.79368982,11.17173317,-23.88679705
0.7800,-35.58857164,8.848464705,-20.45264207
0.7850,-21.88522024,8.533946002,-20.84820558
0.7900,4.24382915,-0.6633720813,-2.076085034
0.7950,14.21341316,3.003337252,-2.645077217
0.8000,28.78443595,13.29892857,8.015459868
0.8050,28.90220383,12.59707997,5.153580166
0.8100,24.67246309,13.0624607,6.436629706
0.8150,8.285685157,12.08266947,6.013517846
0.8200,-7.320930377,22.28352946,4.362425295
0.8250,-10.14230556,24.1056072,3.657841779
0.8300,-30.16953512,34.46054509,-1.945781387
0.8350,-38.60674804,6.359347991,0.6631615025
0.8400,-46.23758673,6.995422257,3.479469487
0.8450,-49.87363943,16.68231086,1.480663343
0.8500,-43.10055224,-0.01297783472,2.747982226
0.8550,-34.20396335,-0.7396657414,-1.833003762
0.8600,-19.62903881,-8.632011342,6.805675659
0.8650,-13.00532657,-9.315916893,1.649280124
0.8700,1.696409711,-11.29060912,8.101931712
0.8750,-3.773841874,-10.05402719,8.571875732
0.8800,-10.42228375,-0.8108320311,12.83463498
0.8850,-11.67658977,-2.826876199,17.91857855
0.8900,-25.6031367,0.914176352,14.90559167
0.8950,-31.10432639,5.544145485,16.13500564
0.9000,-35.43615289,16.0320799,16.65926258
0.9050,-33.63697212,17.00662991,20.15605766
0.9100,-28.76480479,3.048979993,20.19056526
0.9150,-34.45232808,20.94351839,16.89933822
0.9200,-37.09627829,20.45707526,21.80278113
0.9250,-35.53878894,15.7738294,14.13605582
0.9300,-24.1027004,6.279561583,13.28700606
0.9350,-21.91678634,-0.04866448971,13.84864691
0.9400,-19.8763818,-1.830397994,10.6600847
0.9450,-11.32229459,-9.336601012,12.36691572
0.9500,-19.01587094,-8.102741873,7.699170625
0.9550,-12.30850755,-5.125851881,10.22315079
0.9600,-16.52993816,-2.558640395,12.14714196
0.9650,-21.09126497,1.317836067,12.35869981
0.9700,-23.01092849,15.86725751,11.23201362
0.9750,-17.03940744,18.93570938,14.0464024
0.9800,-32.31985968,25.43731336,10.13658314
0.9850,-28.94337051,14.84182129,8.57626586
0.9900,-32.43476829,26.33896118,11.04558075
0.9950,-37.70742394,20.55817163,0.5288699189
1.0000,-21.44392328,3.589006994,2.188583197
1.0050,-10.95597808,6.853413879,5.750162333
1.0100,-21.3061346,-2.349190183,7.439932496
1.0150,-23.23294143,-0.8542761911,8.124840576
1.0200,-40.56170141,9.340317796,9.035110766
1.0250,-45.42524603,11.9719955,10.50133081
1.0300,-37.16748115,14.88079038,13.64954455
1.0350,-35.45465844,13.16847472,12.71006128
1.0400,-15.37999686,14.85175963,15.51087001
1.0450,-12.69442444,7.615471944,14.15143958
1.0500,-21.83440371,15.47166275,8.645995183
1.0550,-18.49955856,-3.70489817,10.52998648
1.0600,-7.435920495,16.5160459,10.88052007
1.0650,-4.350050921,-0.7132515269,2.646936325
1.0700,-14.80512606,-12.4983421,-4.12905839
1.0750,-6.220217105,-7.013530202,10.37241802
1.0800,-16.34225951,-1.199458628,11.79283727
1.0850,-19.11568337,3.107685106,16.28523916
1.0900,-29.92315338,0.787703205,10.73414831
1.0950,-24.86998048,2.702796943,7.416062125
1.1000,-16.59825978,-2.168265631,13.07743007
1.1050,-18.37423495,-3.283304814,9.922478543
1.1100,-17.89753935,-2.641481679,10.06971693
1.1150,-13.46270935,3.420561369,15.2212345
1.1200,-23.42732827,-11.16969194,17.07984713
1.1250,-15.68048503,0.2111338669,14.75399846
1.1300,-23.70832122,2.605205576,11.58193947
1.1350,-22.52454189,14.17683346,12.34646525
1.1400,-31.50829662,6.987742934,11.24122072
1.1450,-15.5847992,8.760254925,14.86651728
1.1500,-20.82819336,-7.092308254,10.55764713
1.1550,-16.23540646,-6.789492165,6.475710502
1.1600,-22.88928831,-8.748281895,-0.1674408474
1.1650,-15.25775176,-11.97088386,1.789937
1.1700,-4.120266369,-1.126820522,9.765326245
1.1750,0.7884776909,-4.392879114,13.38364616
1.1800,-1.746617501,-5.643323363,14.00905617
1.1850,3.976759139,-12.14801375,10.65876315
1.1900,5.878797433,10.10722944,12.59720066
1.1950,14.79475141,1.652160839,14.47882692
1.2000,19.87385925,7.987412259,20.26034576
1.2050,19.52722575,4.921664761,11.57829595
1.2100,35.57627267,-3.055407703,8.28047355
1.2150,33.4151169,7.243461041,8.798717025
1.2200,30.75892298,-10.53130326,11.39921208
1.2250,35.31016441,-13.47818409,24.06845632
1.2300,23.26819992,-13.78237426,21.83890572
1.2350,19.48501994,-11.81329544,23.15374429
1.2400,-6.994310142,-20.29077986,19.36215598
1.2450,-13.76936294,-17.3061874,18.68547669
1.2500,-21.85150533,-15.56923277,22.2925162
1.2550,-31.73735891,-9.937105985,18.9655327
1.2600,-29.15702933,-4.316843415,24.77033473
1.2650,-31.08549722,3.56956139,21.13929502
1.2700,-31.41769908,-0.4301849614,20.61996437
1.2750,-39.63285161,-13.62735859,16.19409198
1.2800,-42.41759156,2.35587534,21.29951521
1.2850,-37.44875001,11.20820204,18.63473421
1.2900,-32.34005834,6.259224942,20.89940668
1.2950,-16.30068735,11.59993937,21.10410558
1.3000,0.3544781186,21.42426298,28.86818359
1.3050,-1.411914757,4.572936186,17.55433488
1.3100,-1.370367984,5.165038252,12.40077409
1.3150,2.557574924,6.874605774,11.70924598
1.3200,-7.615986076,16.99023673,12.30583152
1.3250,-18.47134742,9.581504097,17.59240356
1.3300,-18.08646082,16.22473879,27.16432363
1.3350,-26.77962943,6.597177736,19.38186817
1.3400,-35.64640937,8.56274585,37.28935096
1.3450,-49.85479373,3.506050659,35.35943077
1.3500,-39.99708507,0.8076179384,34.59703488
1.3550,-35.94358707,15.43701247,35.45881308
1.3600,-38.68008851,2.647665615,40.64663387
1.3650,-47.66138975,11.04415258,48.94957362
1.3700,-50.72943707,13.16520043,52.85531651
1.3750,-51.98068527,22.73857178,50.75020915
1.3800,-43.90338381,12.65631865,48.04546861
1.3850,-38.69593981,17.70066012,41.73696629
1.3900,-23.12703287,19.11945152,45.09462944
1.3950,-16.11083683,22.82985389,41.43548623
1.4000,-4.749008653,11.23551808,42.53443326
1.4050,-0.8745519866,13.20912719,33.75528972
1.4100,8.084269864,13.67012284,24.05594411
1.4150,11.59689938,-6.485922208,19.36946752
1.4200,4.065647681,10.13030206,18.36603314
1.4250,-4.070154619,-4.579550565,21.67429599
1.4300,-18.92008364,-4.167867561,23.98337529
1.4350,-18.12609291,12.18143092,37.4065263
1.4400,-40.93476259,12.72456628,47.93969008
1.4450,-50.01725305,16.55859269,59.78472713
1.4500,-59.11232985,20.27665203,64.40166637
1.4550,-60.48601996,18.71510215,68.63124442
1.4600,-52.87285578,25.15946475,65.53414942
1.4650,-36.35952689,13.20097108,63.59079617
1.4700,-33.48819144,10.79434847,54.24654732
1.4750,-31.201613,-1.593003299,38.08697456
1.4800,-22.54666934,0.471810715,28.48188731
1.4850,-32.58384514,1.20776791,29.67839099
1.4900,-22.57805708,10.51766978,31.21056864
1.4950,-13.80805823,19.76042491,27.01514443
1.5000,-14.0973314,22.73867611,38.35459432
1.5050,-21.67430164,15.29159723,35.96929359
1.5100,-2.211053338,27.12611444,31.50615595
1.5150,-8.466946988,20.66649727,26.30794037
1.5200,-16.27635766,23.28112336,23.71893216
1.5250,-27.23485133,19.60694158,20.6175535
1.5300,-31.92502299,19.25371765,19.81969776
1.5350,-26.84330689,15.88916138,18.04062448
1.5400,-35.13081217,7.311551868,27.60378682
1.5450,-39.90314146,6.730635099,49.00002848
1.5500,-50.40668932,11.94510085,57.62423242
1.5550,-31.15159465,18.70964373,50.35488585
1.5600,-29.31704343,16.80681817,51.98767857
1.5650,-22.22404947,5.963550961,49.11794309
1.5700,-17.30729885,27.33309415,49.39479996
1.5750,-8.126175484,11.49401032,33.4573774
1.5800,9.43476608,14.3931705,32.0484352
1.5850,9.697612303,4.310909352,31.61633146
1.5900,1.627421285,14.68511195,36.85421197
1.5950,3.669187936,13.28664643,37.51620671
1.6000,3.134599414,4.772479902,38.86437569
1.6050,-6.457079103,11.81102778,45.08797054
1.6100,-10.55166068,18.95258686,45.95250951
1.6150,-10.73744926,-2.701638107,35.40218248
1.6200,4.878238325,-0.455628384,43.38920394
1.6250,-6.367388543,0.7012133115,43.22004802
1.6300,-5.026069668,-7.264305692,41.60070095
1.6350,-0.5351031584,-12.93687594,35.57279778
1.6400,4.349056771,-2.892865544,29.56397824
1.6450,16.5694064,-16.19554267,27.94688417
1.6500,20.99541241,-4.232444982,31.51814818
1.6550,25.01973647,-15.7973475,31.98131926
1.6600,21.4327305,-22.25245426,26.57360561
1.6650,10.16537202,-16.93228754,25.27576384
1.6700,18.90910601,-14.59038808,14.78065343
1.6750,7.522067881,-14.38605207,13.79824554
1.6800,10.88510846,-28.75235749,12.73269952
1.6850,5.644821689,-13.46811831,17.05638632
1.6900,8.064550097,-19.2261671,23.02389271
1.6950,12.54411245,-17.05813889,24.61030429
1.7000,16.72824628,-11.96795396,18.98991995
1.7050,14.8101434,-13.97157285,24.4177015
1.7100,21.22039237,-11.69075522,20.3010351
1.7150,11.08177051,-13.90725273,15.15629308
1.7200,7.54724685,-6.97103764,24.60201082
1.7250,23.37423007,5.534512413,16.58197332
1.7300,33.13118532,-12.34953237,7.681589803
1.7350,15.53507827,-18.78753222,12.18668989
1.7400,20.82574103,-14.26427375,5.532513498
1.7450,29.40568399,-5.231268454,0.5959198386
1.7500,15.60752615,-19.05358027,0.6575322211
1.7550,16.49366179,-27.21924436,-3.309903035
1.7600,0.1285889005,-19.02077159,10.80746346
1.7650,4.398794419,-22.61957819,-7.79485682
1.7700,18.40289677,-21.51151082,-18.84422078
1.7750,15.48958135,-16.56689993,-25.03787201
1.7800,24.34000821,-2.407457773,-16.25797898
1.7850,31.247408,-19.95893093,-11.91226716
1.7900,33.18132191,-11.02279861,0.4913141272
1.7950,20.59934062,-16.3914443,0.9751686134
1.8000,27.31294648,-6.918736516,-4.942317887
1.8050,29.50393946,-12.98416541,-11.01313871
1.8100,28.88743431,-9.372918475,-15.46328893
1.8150,19.36374224,-17.50006757,-14.87205948
1.8200,23.35319798,-12.97352096,-16.76927596
1.8250,19.53087404,-17.06794296,-24.82261324
1.8300,25.75384833,-16.63790671,-28.69395434
1.8350,15.42581149,-22.75438357,-20.94126526
1.8400,32.07667691,-19.73135676,-16.50792657
1.8450,26.46801878,-11.31275696,-8.754080714
1.8500,27.16167847,-28.3414847,-12.67205879
1.8550,23.56935299,-25.16909028,-10.9058472
1.8600,-3.821283265,-32.24218355,14.29891196
1.8650,4.810610357,-31.6790141,15.32279581
1.8700,19.41026994,-24.21670625,13.22171605
1.8750,21.58803289,-22.44373434,1.636776531
1.8800,28.09111024,-23.59196352,-4.882721224
1.8850,49.67706737,-21.6133607,-24.10961432
1.8900,56.66112824,-15.94243288,-26.83535128
1.8950,38.33774864,-29.28942898,-12.40290466
1.9000,54.8364961,-4.504146672,-13.68112539
1.9050,50.45700969,-13.08051112,-28.3711005
1.9100,42.16049667,-6.760563432,-24.56695054
1.9150,20.54842509,-10.04298281,-5.839354398
1.9200,22.65926267,-10.94874014,6.180816022
1.9250,26.57285298,-3.777235621,1.177748742
1.9300,7.636686339,-16.94508781,-1.120831054
1.9350,8.244525053,-19.49266684,1.314517451
1.9400,2.956761112,-28.11004932,1.933029352
1.9450,-12.14739683,-33.87376421,12.79812102
1.9500,24.4109386,-17.82718644,-4.430733455
1.9550,18.21424193,-35.48031299,0.2060311983
1.9600,18.36932197,-29.27404547,7.560321817
1.9650,23.61844641,-18.68268822,14.65164438
1.9700,32.80332986,-22.07822956,1.47367345
1.9750,44.52896214,-25.81632395,-4.321736654
1.9800,50.2268841,-31.89214807,-3.083118469
1.9850,50.8553522,-28.5164868,4.4492026
1.9900,43.93007512,-26.15730912,12.7952302
1.9950,43.19216875,-28.45489075,-2.054750443
2.0000,41.03424552,-21.43941387,-6.83873582
2.0050,47.81334007,-13.3319031,-4.886784576
2.0100,53.64746798,-21.16554451,4.587453185
2.0150,45.22068679,-14.65020459,20.30147605
2.0200,42.52002162,-5.803007863,23.17068753
2.0250,34.81098854,-11.06928775,5.959562163
2.0300,32.83461446,-1.075354604,3.782535833
2.0350,24.62143114,-13.76865168,10.14158967
2.0400,25.13727601,2.934554034,39.52114594
2.0450,23.60171075,-13.14200309,49.27359773
2.0500,30.29225914,3.194162603,32.16355354
2.0550,24.90325138,9.002791632,16.15585081
2.0600,9.576558145,-4.461511957,9.215905189
2.0650,13.68303326,6.441550868,15.19269494
2.0700,28.19454297,-4.533834625,22.49120347
2.0750,30.39022407,-12.14828162,18.0495781
2.0800,28.73159268,-14.3580868,1.904927271
2.0850,21.22989638,3.088067424,-2.834451621
2.0900,8.949835804,-24.69306592,6.311356906
2.0950,-2.679560607,-18.59035339,42.69043462
2.1000,-7.848882168,-15.08413682,50.35905548
2.1050,-15.58754364,-12.08212671,48.05434437
2.1100,10.07543067,-0.7009398708,22.52752689
2.1150,15.65404839,-12.36134281,9.167289934
2.1200,27.0100675,-4.146588997,-3.543461578
2.1250,30.95882497,-8.985437926,-19.21538509
2.1300,15.14046314,-3.413797252,-0.378842109
2.1350,6.475630426,-9.856250997,7.972013688
2.1400,-2.889787249,-10.68644393,27.28166679
2.1450,-9.679764743,11.06585097,38.78199841
2.1500,-22.45615098,-15.81360629,34.17208333
2.1550,-22.62191619,2.552213575,38.70543341
2.1600,-13.48604928,1.161692935,40.18536543
2.1650,4.920432331,-4.161825094,27.13843838
2.1700,17.70891302,2.52705758,23.62744357
2.1750,6.304739751,-12.53376062,12.72725659
2.1800,8.801455401,-6.980741365,6.332338894
2.1850,-1.287461383,-2.814151955,15.70913478
2.1900,-15.08805013,-1.981534308,19.23687083
2.1950,-9.764826005,3.369374292,9.121947423
2.2000,6.069600058,5.470487995,10.50650675
2.2050,18.79918037,-16.92528734,9.73046385
2.2100,35.16357836,-14.32430637,8.424348693
2.2150,26.66913445,-10.40649228,6.111259761
2.2200,28.48997659,-1.552919545,7.346166042
2.2250,21.82044365,0.5495388986,31.59692789
2.2300,19.14371147,-18.10562729,50.7681936
2.2350,26.2084954,-1.20468862,50.76297417
2.2400,18.77523004,-1.159886116,35.89207548
2.2450,16.74373922,0.1903943195,13.72878816
2.2500,19.56682526,0.7162247102,-3.267139959
2.2550,16.36443003,-11.8090114,-11.50673215
2.2600,22.89673023,7.903354238,-6.417349233
2.2650,13.97243636,-0.9295879809,1.986857466
2.2700,16.43783393,-3.104891711,9.198470902
2.2750,6.853681751,-4.209148845,14.54723639
2.2800,13.2815168,0.3435418321,-3.523281908
2.2850,-0.7641535671,10.89031151,11.60104558
2.2900,3.699176301,-1.260267789,10.20917688
2.2950,7.320972265,-7.315973599,11.73874597
2.3000,23.1891106,-0.3035622508,3.616016759
2.3050,23.04015353,7.161199139,4.948100052
2.3100,17.60345138,12.41404739,12.49504613
2.3150,19.38932664,7.136950709,14.46778636
2.3200,29.05253949,-1.796921631,15.80823617
2.3250,29.07671684,14.65639032,2.226963541
2.3300,20.7444728,19.76805471,-19.43191865
2.3350,11.06302756,6.039205515,-30.78758668
2.3400,18.69676938,5.942110067,-30.49071685
2.3450,17.32874674,-0.9708220877,-10.25528433
2.3500,9.203320836,-4.069038767,-12.50826533
2.3550,7.755709117,-5.847066759,-32.65897861
2.3600,-6.894326948,-11.02805901,-7.144397883
2.3650,1.162543638,-1.564505173,-3.205302604
2.3700,2.543772657,0.9666639145,-21.83737778
2.3750,1.50907869,9.558753547,-36.36038045
2.3800,4.314737799,-9.49749299,-30.69523377
2.3850,4.278196276,-23.42138497,-5.919884498
2.3900,10.02082128,-12.78877537,16.27667352
2.3950,3.390127701,-4.406330539,17.24060195
2.4000,5.627948506,8.824922798,-1.03318407
2.4050,11.18298348,-2.348474924,-19.21757327
2.4100,32.65624888,-4.022803214,-5.084064418
2.4150,36.03104603,-15.55483163,17.90526992
2.4200,22.94448108,-3.062336514,30.52073942
2.4250,3.913399025,6.631053178,-15.02242129
2.4300,-1.670097064,13.33040681,-65.18928016
2.4350,-2.509514046,-4.851688674,-71.17151065
2.4400,9.515131979,-18.41056454,-48.46879951
2.4450,15.39428283,-6.719019452,-26.36233108
2.4500,12.57966891,-0.6711070015,-31.47393995
2.4550,16.53397889,6.863034061,-40.13768797
2.4600,17.34222903,-16.0498439,-42.714042
2.4650,27.24200389,-8.301281728,-11.86649268
2.4700,30.09469439,-4.981139722,-2.206830567
2.4750,21.48631252,6.297035602,-15.79693852
2.4800,15.02398185,12.09131246,-27.74950333
2.4850,9.521365145,-2.425704568,-35.41017483
2.4900,12.98939578,-3.437689622,-11.46273085
2.4950,20.90257194,-9.662313611,-6.631325327
2.5000,19.58772619,-7.892261216,-6.380711203
2.5050,8.094271618,-3.138246034,-36.22051754
2.5100,5.624394187,-3.62879319,-61.04555583
2.5150,3.131967674,-13.95899511,-59.17571621
2.5200,13.58660144,-6.138766057,-44.7413217
2.5250,13.87266376,15.29882272,-46.53872693
2.5300,4.50207912,17.06745636,-42.62860868
2.5350,3.818677035,1.403460582,-34.11136314
2.5400,16.82336996,-20.31100945,-30.91552137
2.5450,26.58507197,-4.716822695,-26.60030093
2.5500,34.77437807,5.652490609,-27.85913158
2.5550,14.0797242,1.642602414,-20.04809258
2.5600,27.26939948,-4.569237829,-16.84094853
2.5650,57.97603852,-28.96496742,22.85518529
2.5700,89.14679084,-26.243975,67.22906036
2.5750,72.11318845,-22.83261806,40.34341443
2.5800,34.80916184,16.10176876,-40.74611239
2.5850,-5.657471357,4.516770628,-124.7846073
2.5900,-17.12414449,-22.7960086,-108.1546679
2.5950,4.163672919,-23.32125391,-76.24825791
2.6000,9.083835138,-16.92487548,-64.52162472
2.6050,-8.015666122,-2.921579367,-59.14655764
2.6100,-8.526406301,-4.776209732,-66.12839055
2.6150,-6.308292433,-11.1524458,-52.94211685
2.6200,11.21017067,0.8470367046,-41.97166831
2.6250,23.20145556,4.485958567,-29.73222954
2.6300,31.86591682,-0.4440041647,-5.707083791
2.6350,43.73403038,-22.85247498,20.50656083
2.6400,61.20472561,-23.29198991,38.58358254
2.6450,59.29677198,-18.43812396,38.38957182
2.6500,53.31802895,-1.412546545,15.70868661
2.6550,24.02899993,-7.678427231,-3.550161531
2.6600,17.35483837,-12.57887901,-36.19118309
2.6650,24.58238265,-25.01139427,-45.84039288
2.6700,33.97995908,-31.24180985,-39.83378211
2.6750,27.5643961,-33.90935585,-45.22043377
2.6800,19.52277746,-34.00279831,-48.9377973
2.6850,25.50755415,-12.06990091,-50.57631444
2.6900,25.59079902,-34.12689778,-34.26728579
2.6950,23.26270795,-27.26147118,-22.43775761
2.7000,18.17378423,-12.14669841,-31.4349885
2.7050,10.45497582,-9.798197371,-35.28328779
2.7100,18.96012108,-2.023511005,-27.49082991
2.7150,17.68764191,-16.15884321,-24.86461289
2.7200,22.3940842,-10.09010475,-11.90373586
2.7250,14.77030963,-1.385413106,-11.80440659
2.7300,5.470831747,-9.034584515,-13.92111004
2.7350,5.727792735,-19.60172312,-6.543968572
2.7400,12.89111017,-3.654729351,-2.593546975
2.7450,7.939980737,-16.11781397,-17.47729906
2.7500,22.26109519,2.693821508,-14.7060204
2.7550,17.05982655,-20.26211265,-6.391048902
2.7600,23.25343945,-16.18138237,2.41082234
2.7650,19.81848093,-1.758717063,-3.274123879
2.7700,7.153507427,-12.28671339,-4.250598043
2.7750,1.06777133,-9.756665853,-10.49434815
2.7800,1.839887645,-15.2956908,-29.68176632
2.7850,7.775053124,-23.57983383,-20.81207659
2.7900,28.15634617,-14.25308378,-26.28114632
2.7950,35.43926554,-15.28312743,-20.51091367
2.8000,20.54971188,-5.55255347,-19.18255194
2.8050,-10.9846251,-0.9115667756,-26.26784403
2.8100,-22.9811193,-0.9237421428,-40.11304325
2.8150,-22.26753901,-2.088562176,-37.96102659
2.8200,-13.10343049,-3.06639565,-40.10346509
2.8250,-9.330295438,7.868689013,-39.60338753
2.8300,-8.446522997,-12.24821175,-34.3812
2.8350,13.77617139,-31.37544505,0.1414964421
2.8400,33.10124461,-45.23333792,24.52630017
2.8450,39.6127797,-32.61945554,34.0419952
2.8500,34.38871007,-31.90246613,23.52381453
2.8550,31.23853911,-42.39765966,15.34531299
2.8600,36.33986253,-62.24871702,67.05570131
2.8650,61.28001139,-19.45428161,6.418961308
2.8700,59.50480699,10.81171005,-54.38584898
2.8750,13.78372268,-22.95971627,-50.11774359
2.8800,-19.74902931,-26.32056412,-10.5779035
2.8850,-13.64027803,-9.246103669,-46.15710085
2.8900,13.9295858,-12.69881008,-41.78181755
2.8950,30.08457749,-36.65944765,-15.78183612
2.9000,36.87980267,-28.73309996,2.323605832
2.9050,19.78901609,-23.00410696,-6.303758738
2.9100,21.02450453,-26.05852539,-3.26632073
2.9150,23.88534977,-47.2793786,4.994486266
2.9200,35.69762632,-49.82817051,32.07945544
2.9250,29.64390436,-42.93400507,32.14707257
2.9300,33.61126798,-8.847325234,-11.0175393
2.9350,16.17042061,-6.999968926,-51.70869099
2.9400,4.544618151,-27.54405104,-36.95868564
2.9450,-7.766480265,-36.5976897,-7.48440684
2.9500,-9.293060636,-32.47643495,3.069335298
2.9550,-2.967688383,-22.36465341,-2.349972712
2.9600,-3.501218018,-29.3189302,-16.09472411
2.9650,15.39353787,-28.43722722,-20.28033771
2.9700,31.20904243,-37.17238811,-8.608066508
2.9750,33.95632608,-24.42739422,11.01119017
2.9800,18.49607797,-5.490155347,1.549079335
2.9850,-6.94713311,1.433145985,-14.16669123
2.9900,-30.51547155,4.626392706,-46.32365224
2.9950,-44.05852504,-9.038647743,-35.71022909
3.0000,-39.16690503,-22.09490744,-7.057879787
3.0050,-26.86562164,15.72268876,-30.43155566
3.0100,-10.03500492,25.7777931,-62.24361929
3.0150,-10.1713528,1.278763443,-39.42316963
3.0200,4.801417778,8.412946608,8.120756462
3.0250,2.689162954,-6.102349764,28.65024103
3.0300,23.52721573,-2.359012955,24.68411606
3.0350,31.44701065,5.73709511,10.57353236
3.0400,19.84754263,-26.50081056,25.53153431
3.0450,4.717479666,2.916563897,13.27288989
3.0500,11.1503645,52.16222925,-75.49902413
3.0550,-6.233946972,11.11383801,-61.05801776
3.0600,-16.81391203,-10.53114966,-19.02728403
3.0650,-4.883093243,25.40464093,-25.26941814
3.0700,-6.365218385,12.60278087,-33.83601618
3.0750,6.227816363,-10.84307661,-1.095395771
3.0800,13.92212447,-1.402689279,-0.9842251236
3.0850,15.70892789,-1.544526392,-3.272886802
3.0900,18.00817367,-29.59578276,23.53615051
3.0950,38.22233081,23.79954146,0.1808975554
3.1000,39.39702375,35.02185244,-44.9234385
3.1050,2.594765876,27.82874082,-31.6574549
3.1100,-23.45795419,15.20805194,16.52098796
3.1150,-45.63149373,4.002294862,-2.10730204
3.1200,-35.57004985,15.89539426,-18.64378471
3.1250,-26.11931136,21.68794227,-28.94022172
3.1300,-16.84286433,3.140686174,-9.02135057
3.1350,-20.06744455,0.4967217651,19.45617038
3.1400,0.06098325476,46.92790003,-7.098096608
3.1450,2.680980112,37.49183839,-39.39612001
3.1500,-1.079459651,-15.90610804,4.573726094
3.1550,20.66037828,-17.74179165,52.73725239
3.1600,21.00414938,-11.70343382,35.62278577
3.1650,25.48136699,-2.522445008,21.44655712
3.1700,23.2036116,-4.728246823,12.60031047
3.1750,-1.951720304,16.77213781,-9.127291537
3.1800,-27.26960886,23.3523313,-32.35914936
3.1850,-34.68800483,12.46356478,-31.06843417
3.1900,-29.69955121,-1.967462772,-23.12186224
3.1950,-15.19520058,-18.97595089,5.742897383
3.2000,6.331303254,5.074638428,5.914466089
3.2050,-8.788221419,-3.785356837,-6.448081446
3.2100,-8.39344999,-4.909575304,-12.8120273
3.2150,-11.41780493,-13.08506251,-16.64616581
3.2200,-12.63775861,-5.312260766,-13.64990843
3.2250,-18.72201794,-13.03968986,-23.9017625
3.2300,-13.19489347,-19.9222007,-16.03258422
3.2350,3.710685327,-20.14234355,4.589345356
3.2400,17.10841318,-8.354814575,-2.935478773
3.2450,9.234088034,-19.33372805,3.977442117
3.2500,11.35006945,-7.284213724,-5.975561567
3.2550,-9.534533313,-7.181900181,-22.62663472
3.2600,-19.14397971,-3.072767071,-18.50510523
3.2650,-28.02436402,3.101389406,-19.60717032
3.2700,-21.72301419,-10.30472933,-33.81078591
3.2750,-2.334481793,-35.29451314,-17.29795094
3.2800,35.21198711,-29.94456952,2.06253168
3.2850,40.62151282,-11.22785364,5.537341628
3.2900,19.91466182,-10.92199421,-16.70276037
3.2950,0.8869583476,-11.23274353,-30.68749718
3.3000,-4.574522154,-24.33676693,-16.3193946
3.3050,-16.24663052,3.686284676,-22.85187167
3.3100,-24.29741886,3.617832801,-34.01271203
3.3150,-22.03868397,-10.4130152,-19.4567195
3.3200,-4.538312392,-17.43074233,-11.53816344
3.3250,5.425710004,2.96303197,0.4540488556
3.3300,-8.196423304,9.359550061,-17.98752262
3.3350,-16.03709928,0.1536759716,-27.79595969
3.3400,-3.530080061,4.177445375,-27.21684219
3.3450,0.1162296402,0.4175883322,-29.41069788
3.3500,0.2792161346,10.08436467,-16.94733129
3.3550,-9.410468731,34.03825516,-25.05186746
3.3600,-3.277697217,23.12020931,-26.41091108
3.3650,11.18689199,1.665135773,-20.98714791
3.3700,34.48188301,14.33188872,-8.7803494
3.3750,28.90722315,4.236948706,-2.794853877
3.3800,20.25713403,19.67603127,-11.35163596
3.3850,25.87801015,-0.692050256,-15.70175885
3.3900,41.08756776,4.050743089,-7.517412101
3.3950,43.87110321,4.642463049,-9.800183801
3.4000,35.21803863,-7.9776791,-17.57863195
3.4050,21.38234667,-19.35954294,-19.6960888
3.4100,30.00489075,-4.446129459,-5.812372779
3.4150,15.07345155,-4.853998838,-20.76754229
3.4200,20.15580131,17.41384754,-31.65159268
3.4250,8.324533429,7.972161999,-38.78902534
3.4300,-14.44537973,4.192158544,-49.51516686
3.4350,5.165652884,-13.1442712,-25.14817537
3.4400,0.5791569,-6.887198411,-13.1285528
3.4450,1.295554445,-9.355444919,-15.37872776
3.4500,-0.297382775,-6.958177181,-45.43443866
3.4550,-0.6502034582,-11.65260794,-52.19657381
3.4600,12.54258012,-5.162889803,-33.91245756
3.4650,11.90553905,-23.57713371,-34.02159449
3.4700,17.77760809,-12.58579345,-36.95586696
3.4750,14.4417353,2.123502446,-26.50318759
3.4800,-0.4618756528,1.453061217,-29.81277151
3.4850,-19.62857317,11.46425578,-34.02680178
3.4900,-33.55400701,-4.213267948,-37.20640506
3.4950,-25.64079175,-17.86818042,-27.82402029
3.5000,-8.247710455,-17.11510826,-17.11009089
3.5050,-6.386948289,0.9538419057,-23.37950792
3.5100,-15.97597097,2.733409818,-28.34201022
3.5150,-26.70813454,-0.9889384017,-26.24647168
3.5200,-24.48992604,1.911914446,-30.03373885
3.5250,-10.73284841,-0.6339026462,-18.26939346
3.5300,-28.43841596,-3.406886095,-15.57411433
3.5350,-48.50854154,9.427149591,-20.33856922
3.5400,-46.68588267,-13.35025358,-5.249490363
3.5450,-24.79007864,-13.82343054,-13.98339434
3.5500,4.436290962,-9.896526151,-15.94698187
3.5550,15.6781196,-9.711192283,-7.532417917
3.5600,13.83314216,-14.86814306,-2.270511023
3.5650,-8.733737565,-3.378536194,-2.306475966
3.5700,-37.31857269,9.33906743,-13.10086309
3.5750,-49.79019336,-8.593620777,-27.73524995
3.5800,-31.29879814,-5.905132803,-8.046583019
3.5850,-38.34214792,-19.87140812,-17.39835448
3.5900,-34.31533473,-2.50330985,-7.819138654
3.5950,-38.03724223,-12.8321204,-11.94338736
3.6000,-25.31182108,-23.22030245,-0.4014268417
3.6050,-18.71683716,15.64215323,-3.49543624
3.6100,-28.13518361,-3.756374521,-9.613632177
3.6150,-17.5723599,-4.367553307,-0.7157692227
3.6200,11.41953004,-21.93464307,13.47523094
3.6250,19.16551685,-5.292849845,22.86774133
3.6300,3.231933411,-4.235848704,16.57646014
3.6350,-13.67187299,12.03528609,10.04649679
3.6400,-16.84623768,-8.575177584,21.65080792
3.6450,-27.23150315,5.80255961,23.2892662
3.6500,-48.66873967,20.8880808,9.45593363
3.6550,-52.24448693,-9.689911681,1.564219005
3.6600,-18.7225613,-20.04296854,15.91497118
3.6650,2.841270046,-9.240579407,18.28242093
3.6700,-13.44012399,4.014198581,-5.685785588
3.6750,-37.23266573,-16.88080772,-6.261240169
3.6800,-31.3915778,-25.29276799,11.09118993
3.6850,-17.65130992,-6.810022295,10.87470698
3.6900,-30.60937252,-27.64835525,-10.64422797
3.6950,-15.07779626,-22.10591697,-5.310230638
3.7000,14.80754078,-37.31575503,-9.80054696
3.7050,20.91842447,-26.02964529,-5.269123764
3.7100,-1.74802727,-7.736303872,-12.83850458
3.7150,-15.39949581,2.285471189,-9.083345482
3.7200,-21.78333136,-8.675149667,-10.09745059
3.7250,-11.43549293,-7.533964313,-6.058636085
3.7300,-13.45486535,3.690825092,-14.82731817
3.7350,-40.17537354,22.57833482,-30.3769555
3.7400,-31.63152728,-8.124557357,-18.18059022
3.7450,-1.47229561,-4.302641956,-12.37681467
3.7500,17.16205121,7.807278694,-16.07233329
3.7550,20.34925836,-10.23057612,-3.634719408
3.7600,18.79280047,4.906650754,8.30630503
3.7650,-11.34852343,14.26045783,-14.63720281
3.7700,-20.44725365,10.00126874,-20.39136388
3.7750,-6.223856132,17.5229927,-14.808673
3.7800,21.50792957,5.382479669,12.40136396
3.7850,0.3527539597,14.85447961,-10.50229581
3.7900,-20.7540519,26.8860011,-14.57022579
3.7950,-28.93357301,27.00277314,-15.15094658
3.8000,-13.47928923,16.47525284,-9.166715938
3.8050,5.923411792,10.86084521,6.053138067
3.8100,-7.986259148,18.88384138,-0.3420938885
3.8150,-20.27749943,19.12530171,2.913904779
3.8200,-11.49347943,28.70039431,-8.041644873
3.8250,5.442384188,12.48064867,5.545431583
3.8300,9.848619851,23.13194498,3.028082415
3.8350,2.964210756,20.31402085,-9.702746652
3.8400,7.397152791,18.78643113,-13.07110933
3.8450,21.44961418,19.91571045,-7.982686173
3.8500,27.555473,28.9183652,-6.914479773
3.8550,25.00120772,45.97594261,5.569379488
3.8600,9.310779382,16.01442576,10.81786995
3.8650,7.642723456,19.80877972,18.51702549
3.8700,-7.60540229,32.08495418,0.6322757502
3.8750,-20.51915992,9.434657004,-10.32067069
3.8800,-8.063388407,13.81288431,-12.6340935
3.8850,14.32582056,1.008126919,-2.529489114
3.8900,16.86847047,12.61244809,-0.6648931236
3.8950,14.74152435,-1.493610809,-2.725361037
3.9000,3.550474947,17.63985951,-2.683782845
3.9050,-5.163790446,25.40843619,4.762439103
3.9100,-18.92791803,7.905577873,2.1162513
3.9150,-3.525592984,19.70448733,1.672461573
3.9200,4.229020671,10.41683823,5.17458348
3.9250,10.89814638,8.686551932,5.04263693
3.9300,16.42448943,17.08987049,-2.123282521
3.9350,12.54243636,20.33579186,-7.87838512
3.9400,10.91103557,9.053607405,-4.985018119
3.9450,0.234452313,11.83023804,-11.93170149
3.9500,-4.288587737,4.790487935,-10.07607364
3.9550,-5.905387765,-19.95468579,-5.360714322
3.9600,-8.927491433,-24.23295111,-6.774524039
3.9650,-17.16584202,-21.00717639,-19.58546237
3.9700,-12.25570736,-18.92564286,-9.338388006
3.9750,-14.98647297,-27.99524947,-20.41668823
3.9800,-3.418658287,-18.03005028,-20.53611125
3.9850,-10.41494041,-22.82182818,-12.40853167
3.9900,-13.67120881,-12.80999335,-11.87354436
3.9950,-18.87974173,-11.70637324,-17.58417043
4.0000,-23.93221134,-3.280774424,-13.70528609
4.0050,-34.54698333,-0.004601406557,-17.37136462
4.0100,-30.41169105,-0.01294077985,-18.92998161
4.0150,-9.481182201,2.039637302,-13.40800716
4.0200,-3.185993543,-1.112800506,-10.79879798
4.0250,-5.271884311,5.378191034,-7.542911574
4.0300,-18.1882905,3.650114865,-16.08558607
4.0350,-26.4265022,-0.5195425326,-20.12284533
4.0400,-23.2124772,-5.613185359,-32.12151193
4.0450,-9.317503108,-13.49478441,-20.89551462
4.0500,-8.2784646,-15.53970521,-30.22430316
4.0550,-14.70558812,-11.0435258,-32.76211667
4.0600,-21.65410361,1.091018077,-34.30580246
4.0650,-24.7346707,-17.04321472,-28.24356656
4.0700,-18.6395181,-4.756950273,-26.15749219
4.0750,-26.37036246,11.09156814,-41.26299195
4.0800,-24.37403876,9.185660584,-40.77508342
4.0850,-21.36298072,12.46354575,-31.67238236
4.0900,-20.99670439,6.512781927,-22.18720352
4.0950,-21.75578699,12.14787808,-27.7977199
4.1000,-27.11305856,-1.029451283,-29.84582508
4.1050,-22.63517286,11.79991929,-6.282989637
4.1100,-25.73516382,31.67935831,-10.6209933
4.1150,-47.0257591,9.474766271,-23.99770755
4.1200,-35.9127669,12.36184369,-19.02491779
4.1250,-25.51832938,12.41903175,-9.762394569
4.1300,-15.49662282,10.94520729,-6.969985015
4.1350,-18.8326192,-2.780293782,-15.84482445
4.1400,-12.89945179,3.836785337,-19.20225747
4.1450,-18.51832628,16.91690555,-24.50188364
4.1500,-21.3218769,5.047300243,-20.94588799
4.1550,-22.61235139,7.203336292,-9.462814039
4.1600,-23.66199072,9.842097256,-11.02729677
4.1650,-23.01167532,19.59285517,-16.22695549
4.1700,-37.04849655,21.84121212,-23.00020887
4.1750,-47.86364881,10.47582035,-12.00685705
4.1800,-49.91611119,14.1317191,-14.45213188
4.1850,-44.73058311,12.71450765,5.411275443
4.1900,-52.14395715,12.70355749,-10.02763634
4.1950,-51.67823705,4.028717566,-19.51417401
4.2000,-39.37483687,4.479564517,-6.964848361
4.2050,-25.9593542,-6.050524396,-6.040942998
4.2100,-2.998086874,1.978429308,0.4947013441
4.2150,0.9646541816,-5.398186465,4.09003606
4.2200,-8.030487301,-1.173013363,-1.189254359
4.2250,-26.51626074,6.830124226,-3.034036489
4.2300,-39.00283146,22.12092354,-14.31251511
4.2350,-41.21455273,0.1427097965,-5.408571932
4.2400,-29.4981606,-1.181594747,-5.474112026
4.2450,-28.07790158,4.728899462,-12.53225795
4.2500,-37.53844051,14.81585366,-26.53114874
4.2550,-49.58106283,14.38051592,-29.86762449
4.2600,-39.37670003,-4.168237744,-15.81663076
4.2650,-19.43336262,-27.3927755,-7.996013843
4.2700,11.57642134,-21.82549627,-11.71139925
4.2750,17.90469882,-17.22553233,-20.08195297
4.2800,11.27791992,-9.964869984,-9.100356809
4.2850,-16.83952618,-7.322894591,-21.1532204
4.2900,-20.82336623,3.544128997,-9.456932376
4.2950,-34.7706264,-19.24379355,-15.26843863
4.3000,-13.00460128,-8.400518147,-8.189995659
4.3050,-15.62781646,-7.370719007,-18.28631954
4.3100,-28.50211386,-16.91276941,-30.99556541
4.3150,-34.38107252,1.661397527,-39.29879075
4.3200,-45.41726829,-3.561767941,-32.51335556
4.3250,-35.76704263,-13.99511843,-26.57709334
4.3300,-17.44100739,-22.65992234,-19.89224068
4.3350,1.835183685,-22.28658074,-12.37568755
4.3400,1.880009468,4.013718444,-26.97973905
4.3450,-3.301647947,7.770402718,-36.21703729
4.3500,-17.18605534,-6.672601278,-26.88885978
4.3550,-26.44852977,-10.18125568,-14.54038185
4.3600,-22.75677379,-0.526531016,-17.86711621
4.3650,-23.59924804,-12.80558883,-14.65445099
4.3700,-21.75261698,-29.23566588,-23.85441253
4.3750,-14.33789679,-25.34899739,1.397659834
4.3800,-18.16812572,-2.433106275,-10.66281359
4.3850,-9.877150883,27.45668037,-77.88465954
4.3900,2.879857554,-8.982655668,-91.69964611
4.3950,19.41630774,-49.89436828,-31.21194298
4.4000,29.94376989,-29.42474962,8.308793388
4.4050,2.111349995,-0.3503864919,-6.299814513
4.4100,-21.15560076,20.05520426,-42.88955661
4.4150,-33.28709434,7.945912924,-47.70612031
4.4200,-19.84431049,-29.55694288,-43.2547737
4.4250,7.093561362,-37.71656893,-22.25152764
4.4300,24.13051211,-15.54900737,-13.11828193
4.4350,1.662313636,-11.88655619,-38.57164024
4.4400,-12.23954607,-3.853413246,-52.72249704
4.4450,-22.59000795,-20.01272036,-39.00621101
4.4500,-0.9878631296,-27.23327827,-14.16182554
4.4550,17.39925399,-22.13656666,-17.71307696
4.4600,24.62782402,-22.15320222,-9.07923363
4.4650,17.95195807,1.810793867,-27.44075699
4.4700,2.73468354,-0.6913395736,-32.46215507
4.4750,-11.04540386,-12.64348287,-30.19847726
4.4800,-4.854595091,-26.17019047,-21.47297669
4.4850,3.036110868,-14.13373619,-14.93188072
4.4900,-3.093425266,6.284171626,-22.64141005
4.4950,-14.01303586,-1.934079567,-27.63822237
4.5000,-15.63244993,-13.99247113,-26.52026816
4.5050,-9.22742271,-24.12671899,-14.37646315
4.5100,8.848138303,-22.86690475,-12.95162728
4.5150,15.43092475,-10.21107379,-11.25603375
4.5200,-0.9620179911,-2.550451608,-32.74629106
4.5250,-8.464947018,-7.84776343,-16.67064442
4.5300,-12.6319963,-11.23445471,-14.03714431
4.5350,-10.1934118,-16.13610742,-13.8040944
4.5400,-4.280388193,-3.144151748,-12.59200011
4.5450,-18.13494291,11.50931179,-21.04127018
4.5500,-28.12897707,16.29661694,-22.96247155
4.5550,-28.7743839,-4.86075167,-15.29951312
4.5600,-10.46738674,-9.650461556,-0.09300847178
4.5650,3.339282691,-11.06616513,-5.119722322
4.5700,4.919989997,-3.255273328,-6.830773208
4.5750,-6.17211245,13.98998518,-16.80980592
4.5800,-7.458849629,0.2080600409,-0.3568009467
4.5850,5.297540313,0.6055231448,10.19098155
4.5900,18.71597568,-19.07815174,13.55452092
4.5950,26.41946189,-15.16691812,10.42340844
4.6000,25.69049834,2.695872729,4.206306845
4.6050,16.54891696,-5.241070869,-3.034653479
4.6100,3.913483883,-15.15056098,-6.878788548
4.6150,4.240550888,-8.474016899,-6.913673253
4.6200,5.466133192,-4.692756944,-12.33311468
4.6250,4.350690651,-7.016519689,-11.4718519
4.6300,10.24156291,-7.340132082,0.5892069571
4.6350,14.09308402,-10.9541468,1.497656347
4.6400,20.43845425,-7.74053393,-0.7210462504
4.6450,11.54816866,1.319633475,-1.912832734
4.6500,-6.510637237,8.777324365,-12.60704488
4.6550,-19.79699823,9.323983878,-12.61990892
4.6600,-16.70187991,-7.352457413,4.242985144
4.6650,4.972619519,-13.57713891,-3.446663746
4.6700,30.62862568,-0.5801847433,2.879391159
4.6750,21.15034111,-7.351236624,-0.6683831045
4.6800,13.20075326,5.291371489,1.024873354
4.6850,-0.3414550852,-2.156890805,1.01014596
4.6900,3.154282791,2.810216909,14.71553812
4.6950,9.926938922,5.393642957,8.452652226
4.7000,12.44713122,7.769555518,-8.729655288
4.7050,5.346032334,12.07746107,-7.433706895
4.7100,-4.269639587,1.122301341,-8.216128337
4.7150,-7.090712668,10.50248507,-1.282503827
4.7200,-8.086937855,11.39878426,-12.24845963
4.7250,-11.02818428,27.90855868,-16.11606874
4.7300,-20.04595387,16.09093179,-24.64655184
4.7350,-24.26116652,5.080535996,-26.25700571
4.7400,-7.155091937,15.31023074,-6.177418673
4.7450,-1.750512966,7.680656016,-5.703416025
4.7500,7.562183737,1.270125113,12.61071619
4.7550,17.03281003,4.42465427,7.574251204
4.7600,16.19453613,-0.1801084612,-2.978486548
4.7650,7.095824405,14.08604507,-15.08036419
4.7700,-6.922479176,-8.134922109,-28.18004118
4.7750,-4.907132106,-7.557270337,-35.85563341
4.7800,11.14100535,-18.08756853,-25.38424195
4.7850,25.05074944,-26.40248652,-19.51154223
4.7900,45.05422257,-15.17492787,-23.02691786
4.7950,36.08341313,-19.2953632,-12.91081521
4.8000,23.46373304,-13.0515229,-31.38310857
4.8050,2.507330973,-15.23543589,-30.52756193
4.8100,7.237529475,-9.540109765,-19.76367856
4.8150,17.23646164,4.092079659,-16.09636038
4.8200,18.96491348,3.339488911,-15.23432323
4.8250,16.97507724,-0.1524925182,-28.26776846
4.8300,13.18415503,9.123796141,-29.75262248
4.8350,2.278010152,7.1865913,-26.15960307
4.8400,7.683376539,-5.169226196,-26.12989352
4.8450,20.84663191,-13.75853914,-22.40859136
4.8500,34.16332085,-23.12167015,-27.96700246
4.8550,41.33564378,-1.03507224,-31.62477792
4.8600,29.91719872,-4.25756519,-38.0570741
4.8650,24.98462653,3.936474241,-23.20208052
4.8700,18.68585921,5.913318922,-23.47560529
4.8750,13.41110187,16.45731056,-6.88339552
4.8800,19.61242519,25.84030738,-18.87333112
4.8850,21.79526121,14.21179482,-26.63727088
4.8900,39.51937557,10.98672043,-16.72277605
4.8950,41.52005581,1.840357961,0.291921268
4.9000,43.49702041,2.704315067,-12.13139747
4.9050,23.22288819,2.696508642,-30.30718214
4.9100,20.66698373,19.00905925,-46.5538787
4.9150,13.42003675,-7.128361241,-52.00846196
4.9200,34.74520462,-5.141347071,-24.6575439
4.9250,35.96191553,-6.679895085,-4.35064641
4.9300,30.44623497,10.82302759,-8.913103269
4.9350,8.733146884,21.06657258,-23.46036705
4.9400,-10.2959388,17.40584461,-43.81980198
4.9450,-12.83471189,18.78571055,-50.57796054
4.9500,-3.617490558,3.595695637,-33.05087165
4.9550,15.41071627,-3.747496414,-21.39629947
4.9600,30.17300881,-5.042681632,-9.316353314
4.9650,28.92519264,2.980729614,-30.73103256
4.9700,12.64284834,25.67735939,-32.91412558
4.9750,-12.52480166,-0.01694247913,-50.13507052
4.9800,-5.656813324,-8.660165418,-31.87997224
4.9850,11.3028719,-21.78995814,-8.279061029
4.9900,39.24590221,-20.04720891,-0.4800386581
4.9950,44.33063725,-21.28550569,-1.253077941
5.0000,33.76390189,-23.15571296,-15.11619548
5.0050,16.82602878,-6.632822112,-24.20281416
5.0100,-0.656923947,-8.068177212,-39.27054327
5.0150,-2.457346309,-6.857619418,-46.64309122
5.0200,-6.087169598,-22.26145111,-35.54885694
5.0250,2.969524332,-15.3181087,-30.93997082
5.0300,5.116121551,-18.77276093,-49.34185224
5.0350,7.676273489,-15.64004378,-52.51544427
5.0400,3.269940351,-28.59047041,-34.41908541
5.0450,6.538618835,-21.12736549,-44.08566179
5.0500,2.390475984,-6.116105606,-41.16180516
5.0550,-11.34366525,-13.74542961,-44.40504785
5.0600,0.08873382515,-8.869381578,-27.35269474
5.0650,13.30083212,-24.07023147,-6.250856811
5.0700,35.26308022,-31.74231375,14.2252003
5.0750,47.08986142,-33.08956352,16.67331238
5.0800,47.24625342,-30.43643227,8.566987648
5.0850,27.31500164,-17.71292009,-14.20324902
5.0900,2.157210889,-3.839327447,-48.64608273
5.0950,-20.26313891,-11.34704632,-68.71787504
5.1000,-16.50334342,-22.00059357,-44.20239482
5.1050,6.12934859,-26.52042637,-31.38457808
5.1100,19.34400738,-11.52076773,-31.3761604
5.1150,11.8496455,-4.095577505,-49.14567282
5.1200,0.7028549225,-9.163101172,-35.70402131
5.1250,6.893596112,-10.23565244,-12.75770817
5.1300,17.22105059,-19.97888788,-2.350238706
5.1350,28.18890249,-6.812083447,-12.80030195
5.1400,13.42745489,-25.62433648,-11.59092535
5.1450,20.01193242,-10.56651412,-29.59595936
5.1500,20.4205112,-13.07218742,-24.65844693
5.1550,25.04252612,-17.56187175,-4.967986294
5.1600,38.64047596,-7.779860917,-0.1687339589
5.1650,29.79071025,-7.279396015,-12.93134843
5.1700,26.63652665,-5.491181634,-33.60114986
5.1750,21.36664846,-24.89470365,-41.42011424
5.1800,32.75442537,-18.00163195,-26.62361422
5.1850,38.80133286,-19.51008864,-17.07883646
5.1900,44.56632921,-30.8024308,-25.99419907
5.1950,54.48862731,-40.27649579,-32.45569211
5.2000,58.2762778,-55.91768526,-15.83562727
5.2050,51.77797063,-69.49847211,-1.611983642
5.2100,59.35747614,-52.04439553,-3.637803898
5.2150,37.26646926,-52.85617026,-3.651364717
5.2200,35.65394282,-45.31241319,-12.30100168
5.2250,45.92073299,-36.08995311,-9.044854245
5.2300,46.51034155,-58.91458734,-13.0379534
5.2350,49.12681229,-41.2644098,-13.34675913
5.2400,35.8346871,-59.7990187,-26.38610631
5.2450,30.15145382,-39.91798971,-52.54644072
5.2500,12.58423947,-37.47983181,-65.82329347
5.2550,2.990599306,-37.333589,-59.56784325
5.2600,9.457172552,-34.27621478,-44.4592739
5.2650,16.53238449,-17.35557004,-19.68516025
5.2700,14.85266974,-13.80888144,-3.877415821
5.2750,7.010138428,-6.078104596,0.9829853641
5.2800,7.277102476,9.709708925,13.77259012
5.2850,-3.6535678,0.2076533518,23.15253229
5.2900,22.7260164,12.57202437,25.56404622
5.2950,21.13108876,5.665114967,42.91554715
5.3000,24.00983546,7.250767829,32.26670409
5.3050,18.77321936,26.92633579,20.78004551
5.3100,8.591374588,22.2534808,-3.975387416
5.3150,-5.912710599,26.98244036,-31.52448855
5.3200,-15.6756979,22.25608776,-48.80133444
5.3250,-10.49463713,18.8132432,-49.57744482
5.3300,-4.672298539,-7.861990793,7.264712369
5.3350,39.90526962,-6.570837717,61.32046574
5.3400,52.43578179,2.732541539,83.08567451
5.3450,47.1237347,30.56197498,41.85183839
5.3500,10.68578166,49.31081209,3.492619976
5.3550,-11.29533451,37.68751597,-12.52115772
5.3600,-9.197350577,17.28940271,-11.78432001
5.3650,3.745494211,13.10747588,-12.67145982
5.3700,14.79958217,14.67861498,-35.08216809
5.3750,-0.3365817834,1.170201859,-48.25895368
5.3800,-6.096559656,-4.605481047,-35.64871653
5.3850,9.867616035,-8.100622113,-9.8251727
5.3900,4.717345138,-9.006097168,33.04163616
5.3950,12.16942283,-1.352856267,57.06701436
5.4000,13.19765833,-7.431848495,53.39952534
5.4050,8.037873814,-10.08977543,52.91814632
5.4100,15.36345088,-6.248865021,53.39674507
5.4150,24.23360944,-7.171662905,45.04349281
5.4200,23.5471482,-2.386437906,16.60420148
5.4250,10.56619558,-12.34364529,-28.20233944
5.4300,-6.044707622,7.685429288,-68.3619333
5.4350,-22.77030591,-11.29430834,-82.62669467
5.4400,-12.56426472,-28.48893301,-62.1477527
5.4450,-3.738948967,-24.07002262,-4.056296769
5.4500,29.19295925,-28.07910893,29.96764374
5.4550,26.06240999,-22.34107236,31.57541707
5.4600,23.95289454,-8.233043152,2.502915512
5.4650,-5.916286079,-14.02914935,8.088383569
5.4700,-7.862223784,-22.51400936,24.96314093
5.4750,-12.93115345,-11.5144679,43.35735466
5.4800,-3.177031013,-18.44787198,30.50577792
5.4850,14.37946478,-9.228441145,-15.62154332
5.4900,1.448366568,-13.03057146,-31.06530921
5.4950,-1.734789195,-21.79215889,-13.15804329
5.5000,11.17841815,7.593099028,17.71940619
5.5050,14.76021621,6.787400904,2.551874168
5.5100,7.916315727,14.47658076,-12.58482211
5.5150,9.504417462,19.39102959,-26.44322384
5.5200,9.516766338,5.062180103,-16.28769128
5.5250,16.41758942,1.563947913,-5.374543141
5.5300,14.63028433,-20.33200758,15.51235381
5.5350,23.26398924,-26.93850517,47.2006507
5.5400,10.13959342,-13.39964063,89.26000669
5.5450,16.63490747,-11.86437081,80.25017388
5.5500,12.19409179,-3.710073279,55.58236948
5.5550,32.12552819,4.799278259,17.47698
5.5600,31.90229573,13.82108786,4.498853951
5.5650,26.11231823,6.299604782,-13.91608822
5.5700,22.25131685,-8.942260126,-33.22163077
5.5750,29.36513779,-29.31202146,-35.93290991
5.5800,29.35126771,-24.64597252,-3.43616292
5.5850,15.56841031,-19.8956608,19.4504678
5.5900,15.46982398,6.437976315,23.54353664
5.5950,14.63472157,7.553978819,4.334870713
5.6000,2.360898932,-2.353166131,0.9115827928
5.6050,-1.310506848,-14.35111228,20.45909548
5.6100,-8.81378537,-12.0782565,41.09627207
5.6150,-1.603675345,-23.82278316,58.93466326
5.6200,-10.54167767,-25.45950337,86.8960983
5.6250,-10.67215572,-11.90734324,106.7826623
5.6300,-1.715579363,-5.804376483,98.59725918
5.6350,2.31972048,3.735014669,71.38830742
5.6400,12.4389448,14.26902209,21.9254187
5.6450,7.400656477,3.24145114,-14.63679799
5.6500,8.068011712,13.18427954,-20.27758487
5.6550,10.4789106,-4.318767687,-12.64626795
5.6600,22.92294894,6.349902588,-8.443725643
5.6650,25.27674785,2.648230283,-7.79810814
5.6700,17.24053669,12.57462534,-5.619568972
5.6750,-3.404199665,8.287440956,5.848983818
5.6800,-6.931947,3.395106351,28.31221028
5.6850,-3.890120809,-1.530920576,48.13101246
5.6900,-24.72107474,18.09495239,59.93493048
5.6950,-20.11844233,8.618874063,35.79229133
5.7000,-5.434707899,8.855162011,22.55190033
5.7050,-5.424831635,5.012898861,32.70043385
5.7100,-13.9543895,4.790862646,60.95043899
5.7150,-10.66688997,20.95633529,67.04254254
5.7200,2.128397973,29.87794053,35.47332867
5.7250,7.737440494,40.11691056,-3.749040263
5.7300,9.656906977,25.00581841,-28.86810301
5.7350,10.76661742,13.38390001,-22.42283237
5.7400,2.876358849,21.8235879,13.47801183
5.7450,9.45038503,3.184956583,20.93255927
5.7500,17.80091848,3.551208174,17.08340264
5.7550,7.239505029,-15.04241791,17.53408869
5.7600,-5.808913523,0.6486470899,27.64745421
5.7650,-2.366419124,-8.903385026,22.54791369
5.7700,-12.40735727,-17.66550604,20.78105005
5.7750,-11.01683761,-23.74827434,18.24512592
5.7800,3.918433623,-29.37164184,16.08104174
5.7850,11.47998253,-9.433094654,12.17005143
5.7900,9.663496175,-10.30546236,11.83278704
5.7950,6.047952927,-4.602426538,13.73769872
5.8000,18.355947,6.419965552,12.68894359
5.8050,25.18238706,25.39348435,14.21346873
5.8100,19.06339682,17.68031217,21.65248479
5.8150,15.88427246,7.105290675,20.59927173
5.8200,28.21604745,-4.22801326,9.764532584
5.8250,11.35173623,-12.58035066,4.160653798
5.8300,21.07264704,-13.2935623,-1.707667261
5.8350,14.78078887,-39.4358414,-3.278534606
5.8400,13.33096996,-33.21445166,7.435626742
5.8450,11.96768617,-19.22266139,23.15038814
5.8500,23.67583532,-37.45930433,26.86608619
5.8550,13.19833234,-24.99619413,46.38030787
5.8600,-2.152359287,-17.78550328,58.68550255
5.8650,2.905645326,-7.037355554,47.8634928
5.8700,13.81115361,21.05356769,34.34183678
5.8750,27.47053717,14.82327028,20.48190745
5.8800,35.53321873,18.85831823,12.70303282
5.8850,44.13403832,18.13824899,-7.141175891
5.8900,60.91830752,17.18650245,-22.58217717
5.8950,74.27929082,-4.004045393,-38.94526907
5.9000,74.4329026,-14.23716382,-27.28218907
5.9050,61.78457406,-21.3964763,2.453625276
5.9100,36.10698916,-38.10641786,27.84296584
5.9150,31.36468806,-20.69596519,40.35242804
5.9200,29.64452031,-22.3382606,29.6204271
5.9250,17.59504447,-30.3794984,28.31283782
5.9300,-9.015918817,-45.86693039,45.85936348
5.9350,-31.44055095,-30.01940201,59.15487
5.9400,-7.942782304,-19.32537186,46.86155668
5.9450,21.5632998,-5.574530976,29.43716639
5.9500,43.50185249,-1.213246257,14.27457715
5.9550,45.16649999,1.16870961,3.979493975
5.9600,38.53599661,8.863788335,-8.683975858
5.9650,47.03055242,11.62648741,-18.07541838
5.9700,47.51549933,10.1495423,-19.96511433
5.9750,52.69235161,8.590943239,-17.31787733
5.9800,44.48625791,2.714660324,-0.2696342254
5.9850,23.02164436,-11.6196419,18.26494719
5.9900,16.61493579,-21.55249294,32.88876815
5.9950,6.43025565,-10.27291361,41.17924324
6.0000,4.117189794,-19.65180921,40.84339404
6.0050,-25.33991357,-24.95566776,46.69593751
6.0100,-40.23085958,-10.976162,53.84342048
6.0150,-32.66795608,-3.644238786,49.11111672
6.0200,-14.13507504,-13.06955966,38.64372055
6.0250,-27.42976319,-9.472569446,31.67437133
6.0300,-24.4087741,-11.45318112,33.8984949
6.0350,-35.6339537,1.022920003,34.80227465
6.0400,-18.63917921,7.154277423,22.20617162
6.0450,3.637787368,9.484892053,6.115709167
6.0500,26.97942214,9.929390533,-19.39271689
6.0550,37.16115877,1.806349252,-29.26541439
6.0600,34.07939315,-15.28149574,-23.42855923
6.0650,14.40239243,-5.784796771,-8.068373332
6.0700,13.63576425,-16.22116743,6.059230992
6.0750,-5.668289184,-30.87042594,17.28932539
6.0800,-6.634280735,-22.36513682,34.46233618
6.0850,-1.16744258,-14.7620357,34.35111009
6.0900,-4.775664677,-36.21883773,35.08568116
6.0950,-30.35420251,-29.50831071,45.80272729
6.1000,-48.38177009,-25.39095366,52.5279134
6.1050,-44.0073394,-21.60001725,51.49190143
6.1100,-13.46996389,-13.84071673,38.32505547
6.1150,12.41746469,-8.317216999,36.37314237
6.1200,7.070262622,-20.64249556,24.8908388
6.1250,14.50922112,-10.73171732,18.07061795
6.1300,26.84012069,-7.376475479,7.139023431
6.1350,36.10538121,-7.33732452,-0.170423553
6.1400,33.67290338,-16.16722773,7.833545539
6.1450,39.09010085,-15.41164076,16.16005839
6.1500,20.05272323,-15.03425078,33.53471401
6.1550,6.162087747,-13.41112089,44.20601904
6.1600,-4.812764361,-27.68819675,48.08672831
6.1650,-23.81075659,-28.19190927,58.32000974
6.1700,-59.06904241,-28.91754093,73.05890625
6.1750,-70.77063343,-23.2325072,62.85157037
6.1800,-67.97101299,-11.80752928,50.0743782
6.1850,-58.95773583,-21.0022432,40.4035424
6.1900,-28.28655389,-5.838898821,41.90500939
6.1950,-12.53142674,10.75749078,30.76911586
6.2000,10.75684021,-20.43182254,6.884566391
6.2050,31.26404862,-11.64555146,-10.79816433
6.2100,37.57234837,-4.165832595,-20.55476864
6.2150,57.08899205,-9.783397014,-22.18907139
6.2200,57.46483399,-14.53371862,-22.01610025
6.2250,66.39652481,-15.4174451,-14.3811723
6.2300,54.88449027,-21.39346963,-0.7522770661
6.2350,32.92696221,-31.11374248,13.71012302
6.2400,0.08415904542,-34.92192163,23.974893
6.2450,-20.02588767,-22.88654426,35.3739938
6.2500,-26.80729493,-22.80133037,39.79950447
6.2550,-35.60871668,-38.2452602,38.51587305
6.2600,-47.24657974,-35.50079144,36.5776469
6.2650,-48.9240367,-41.22005777,31.29209522
6.2700,-54.21834896,-40.60736434,29.17920703
6.2750,-44.45834321,-34.89759223,33.46612802
6.2800,-45.42039371,-24.1844008,48.63930971
6.2850,-45.00891017,-17.74129755,56.30030745
6.2900,-59.17807928,-10.73608125,55.01680203
6.2950,-58.6201596,8.598613149,47.37112394
6.3000,-45.27132267,23.68154475,35.13754472
6.3050,-28.50294233,8.601140273,21.3644193
6.3100,-3.829656718,23.40783902,10.85532479
6.3150,20.41954282,3.292540661,4.45585328
6.3200,28.45919494,7.442663944,-0.4592294197
6.3250,38.0126674,2.384135961,1.47859761
6.3300,27.27786007,10.66647121,7.996404178
6.3350,10.22662738,4.892143649,11.60585938
6.3400,6.382379756,-1.293248888,14.64246098
6.3450,9.918993736,2.11664453,22.33775753
6.3500,6.651052329,-11.63109859,19.06613587
6.3550,10.64017068,-11.68546193,11.51847088
6.3600,3.158274381,-2.502140831,5.535291742
6.3650,9.519154144,1.598651105,12.83070106
6.3700,0.2506814578,-5.785867921,23.39106177
6.3750,-21.14153242,-3.869246221,28.86183545
6.3800,-3.45742364,13.94560657,39.93545853
6.3850,-10.82140418,15.1900174,32.69384118
6.3900,-2.845544982,24.12839807,28.34456398
6.3950,-2.906911963,22.17738756,21.708727
6.4000,6.497124959,29.0873597,15.96195837
6.4050,25.4092065,29.36799706,18.45444454
6.4100,33.29496695,16.31306261,21.45697447
6.4150,24.75675988,8.790363746,17.55308119
6.4200,6.563086273,16.41517789,11.12591611
6.4250,3.649090585,22.36406327,11.31951103
6.4300,-7.57689273,18.14664385,6.510524403
6.4350,3.407249491,13.41213052,10.19889505
6.4400,2.371220668,19.26474506,8.061197395
6.4450,7.133954707,14.81934431,2.208823068
6.4500,13.7468676,17.55716605,10.98800419
6.4550,1.366166628,16.64689895,15.31929102
6.4600,-16.05646501,24.99990352,19.67426878
6.4650,-19.66640164,39.30115476,17.03913189
6.4700,-10.55312909,30.223427,11.49138338
6.4750,-3.445132067,32.34670232,8.901398679
6.4800,17.9977043,30.25973472,23.04767099
6.4850,17.80529579,18.44168063,20.16488584
6.4900,5.120664815,26.5464107,18.36263913
6.4950,6.353407233,24.93776067,25.39147251
6.5000,10.66476599,32.50906356,21.98633253
6.5050,2.865897187,7.849904235,14.32800737
6.5100,10.34219303,15.98104792,18.38323317
6.5150,0.8974964678,-0.532886085,22.82328693
6.5200,-16.60378726,3.737371186,22.36207609
6.5250,-30.43034136,11.5356763,18.51839428
6.5300,-23.49082652,14.12052835,20.14167655
6.5350,-23.33059343,2.644915431,21.60966201
6.5400,-9.6222912,0.1700707906,25.4070793
6.5450,-11.19504726,1.757067288,20.47771883
6.5500,-8.610150786,8.60813435,19.27681843
6.5550,-4.946216967,-1.547124789,13.22928486
6.5600,-0.5529447368,7.024687202,12.86972083
6.5650,2.507113677,-1.6782016,8.424773836
6.5700,8.409443274,3.156325157,9.14204733
6.5750,4.740542891,6.130889079,11.05269232
6.5800,-3.681599248,11.2794917,10.13525346
6.5850,-4.516776697,8.369543502,8.099729192
6.5900,-11.10076366,19.19577281,7.651221949
6.5950,-5.392133959,7.554586647,11.90533468
6.6000,-4.228012571,10.01077303,10.70558788
6.6050,1.59242516,5.974544774,13.2170843
6.6100,-14.78423137,1.014683653,1.556605701
6.6150,-23.43380719,5.373981215,-2.048493005
6.6200,-31.18998821,5.329584629,-3.100842182
6.6250,-26.31065482,-5.374150825,2.738582653
6.6300,-15.00350108,-18.78026584,6.731090901
6.6350,-12.23447519,-22.32569446,1.550020544
6.6400,-17.28763077,-11.45045614,6.740449789
6.6450,-23.50962116,-10.35841699,7.040010232
6.6500,-28.70882222,1.633322751,5.747120949
6.6550,-8.958952572,-4.224616422,6.797278704
6.6600,-19.71881691,-1.135546777,4.569664989
6.6650,-18.7730222,7.830662364,8.211352655
6.6700,-19.87721674,9.6480588,5.644767646
6.6750,-32.22426685,-0.2819953745,-6.077964003
6.6800,-33.74912241,-4.112672008,-1.809716864
6.6850,-45.72832837,2.685303802,-1.167367168
6.6900,-46.7665519,2.494616723,1.508230155
6.6950,-34.66270299,4.978304494,2.118439497
6.7000,-15.43290644,-7.002163588,8.813686057
6.7050,-7.416832567,4.231429665,2.326663677
6.7100,-2.42115889,9.976312814,4.444137598
6.7150,1.494562923,-0.7812449845,0.1094366201
6.7200,4.119209022,-6.849557676,-12.79468229
6.7250,-4.359915298,-7.551099208,-12.85589866
6.7300,-15.19350527,-5.477531035,-1.744010984
6.7350,-23.59604594,-5.581812932,1.292233328
6.7400,-19.31622114,6.856400824,11.72898467
6.7450,-32.17072462,1.145869254,6.761884477
6.7500,-30.26808045,-8.519843948,3.674420883
6.7550,-33.4190244,4.166875541,2.230641309
6.7600,-28.36500843,1.221709023,4.016453137
6.7650,-19.71453268,-6.179410924,8.337037558
6.7700,-22.45853918,2.213808238,6.657954358
6.7750,-41.9514555,-0.1156496459,-2.937305262
6.7800,-32.48338401,-1.319259352,3.255788685
6.7850,-18.37678094,5.514418136,-4.562053559
6.7900,-0.667693748,-7.974463441,-7.588881135
6.7950,7.176524995,-10.18226755,-14.1942418
6.8000,-2.440829472,-15.18251375,-16.76277785
6.8050,4.074651359,-12.7172193,-18.25338067
6.8100,13.50864153,-15.26344859,-13.51205438
6.8150,20.78980741,-26.81889186,-21.22560203
6.8200,27.33478154,-24.08397693,-20.01841196
6.8250,24.78459994,-25.15447092,-13.35676601
6.8300,9.956025965,-20.00100117,4.976687271
6.8350,2.075560463,0.4495089351,-4.784815631
6.8400,-1.650807783,3.999223634,-4.768836381
6.8450,-10.38270571,6.147878265,11.75071895
6.8500,-24.42665521,10.2412046,17.55264598
6.8550,-37.50767297,26.03457304,11.72787589
6.8600,-35.01792692,22.53964345,19.44248295
6.8650,-36.07605882,21.44706697,21.77841088
6.8700,-39.95530866,12.35943267,11.95572221
6.8750,-35.82309003,21.43197862,9.562654718
6.8800,-51.80135402,13.50503941,6.424189194
6.8850,-51.79149307,13.28475719,12.64847752
6.8900,-41.40468395,15.70040139,18.09633465
6.8950,-40.93047854,7.954228929,14.10654179
6.9000,-38.07970433,18.20526804,14.11805853
6.9050,-50.09998414,4.526169457,3.824470994
6.9100,-53.58832179,16.74034478,2.4129574
6.9150,-44.91900992,17.45921929,2.505567359
6.9200,-40.61377731,11.70016991,3.101832169
6.9250,-42.23330119,16.9513372,4.400536623
6.9300,-39.56674239,10.95332841,0.3042342515
6.9350,-36.4184688,12.22748962,-4.862330596
6.9400,-31.35486577,7.307799483,3.331532309
6.9450,-27.65090557,13.47291709,5.742252054
6.9500,-32.07328669,6.99428133,3.593325068
6.9550,-20.59968153,6.239629545,6.161170906
6.9600,-32.19542013,22.21118665,8.366893342
6.9650,-52.25245435,13.75490566,3.020096356
6.9700,-45.60802268,31.579971,15.0363691
6.9750,-47.22776943,20.2193579,21.2634386
6.9800,-58.16411628,22.45886736,19.09909374
6.9850,-68.43813717,16.65462468,13.75812108
6.9900,-72.56872086,15.78118516,6.369014091
6.9950,-70.25187569,15.85775906,7.404925925
7.0000,-73.72582777,4.733750762,3.629758613
7.0050,-50.48155617,10.91319581,10.45492827
7.0100,-46.71954006,9.639475444,7.572387408
7.0150,-26.90449057,2.726001999,7.335789984
7.0200,-17.43745122,-4.279830732,11.61621438
7.0250,-21.08134328,-5.816768421,17.64408315
7.0300,-25.94197431,3.169055191,9.724324366
7.0350,-23.90677396,-4.367415329,8.907321948
7.0400,-23.51775109,1.746127203,11.14905462
7.0450,-30.84524155,5.984574588,7.733505855
7.0500,-27.23121457,15.63022998,4.840944024
7.0550,-26.55599457,16.2277124,3.940990399
7.0600,-27.42583835,13.63780881,12.41240944
7.0650,-33.23912215,25.6070006,18.28074568
7.0700,-36.75119192,30.05665976,19.20191295
7.0750,-34.95540601,35.69301616,21.2435384
7.0800,-49.76283304,31.47696974,17.83895703
7.0850,-44.51547714,18.97823953,29.94290063
7.0900,-49.4137434,20.48484175,25.82076192
7.0950,-34.29924777,23.43210006,26.43718927
7.1000,-34.41767417,9.675444624,20.93186095
7.1050,-31.01915486,-6.967165833,9.336953142
7.1100,-23.372305,-17.04749029,4.75359998
7.1150,-23.0804463,-14.82456591,1.804855961
7.1200,-34.62752007,0.8197064308,2.108965263
7.1250,-42.71856192,6.346039136,4.486866444
7.1300,-44.29622544,21.02002752,3.19232479
7.1350,-40.51662125,11.3838018,11.21621643
7.1400,-33.72084738,14.19591801,14.68396795
7.1450,-27.82577662,21.98423159,9.516061426
7.1500,-26.10148238,21.10741654,18.68246294
7.1550,-34.50004776,17.0270031,20.62201581
7.1600,-31.35397421,27.33510488,19.96012249
7.1650,-24.25985986,27.54273743,24.6613934
7.1700,-33.05008864,19.31029453,18.25204431
7.1750,-45.60702868,14.13391433,14.18095647
7.1800,-57.9164255,16.63854625,19.79030526
7.1850,-63.23237652,13.2709574,26.06795899
7.1900,-67.8084292,19.46574877,32.05463056
7.1950,-68.56994351,30.76597788,34.85425081
7.2000,-87.0560414,23.83745374,25.32762261
7.2050,-83.10742751,34.57581006,30.05477075
7.2100,-82.20266549,33.22896078,30.79730671
7.2150,-88.34487701,22.47311311,27.4528102
7.2200,-81.1099992,27.07654507,32.56158013
7.2250,-72.027571,28.48682625,30.62389879
7.2300,-67.63875102,31.25161305,34.68854983
7.2350,-69.08456362,23.46676411,31.13881118
7.2400,-61.17725206,26.29580524,27.13903318
7.2450,-54.13929234,36.05710392,22.36499697
7.2500,-41.36703462,22.38078315,27.80682241
7.2550,-42.48413371,11.10356748,22.16505565
7.2600,-46.34198744,21.46756966,20.14941479
7.2650,-51.57645986,14.42335786,9.273097125
7.2700,-27.65203666,31.5853822,16.71336591
7.2750,-15.90983838,16.78179951,20.65499749
7.2800,-11.91702046,24.05105519,28.39741626
7.2850,-25.32062511,28.41598288,29.79026389
7.2900,-43.62400759,24.45837879,25.35887793
7.2950,-54.33935095,15.0723846,20.88999708
7.3000,-60.26106777,14.89643362,24.86966959
7.3050,-71.55708051,17.14200249,28.07416364
7.3100,-64.75680382,23.38094819,38.57829667
7.3150,-62.7777338,29.88992253,38.81005012
7.3200,-77.8907844,9.632260299,40.91142671
7.3250,-84.06504721,13.67237778,44.25633199
7.3300,-81.92416495,21.23062751,46.48333399
7.3350,-70.82641195,18.61255866,44.60418756
7.3400,-71.68050147,15.02703486,35.80292247
7.3450,-72.56128558,14.39809868,44.04555611
7.3500,-68.97838628,23.94922202,41.94215921
7.3550,-79.5827881,24.70483583,37.95430514
7.3600,-70.42109407,22.85702155,34.28937351
7.3650,-43.37206842,30.46612607,36.35217679
7.3700,-31.69821772,30.43193334,40.37774434
7.3750,-42.06333415,20.24786543,31.61237335
7.3800,-45.27595756,20.9232395,30.71324268
7.3850,-43.08278145,32.57245314,34.68154497
7.3900,-51.81829986,26.83242226,35.06963544
7.3950,-31.00362048,24.85612507,31.95189411
7.4000,-36.50323996,17.67627304,22.99089469
7.4050,-59.16456663,6.761025974,31.00771951
7.4100,-51.27912317,17.30072422,30.9162705
7.4150,-39.94274769,10.37342639,30.28859146
7.4200,-52.34903376,16.325727,39.32942966
7.4250,-27.62707605,11.09813844,33.71839955
7.4300,-15.69283944,23.08437788,29.01401201
7.4350,-26.01912935,0.877726809,32.58303928
7.4400,-36.26142518,14.782207,31.67593684
7.4450,-19.06897225,18.63024905,34.75772407
7.4500,-22.57805148,25.00460889,36.1283795
7.4550,-34.02784113,21.37723665,27.56369686
7.4600,-25.77148419,4.228807683,26.80499851
7.4650,-22.2540277,20.11472495,30.92891215
7.4700,-32.11874401,-6.511518937,34.86326979
7.4750,-35.33160679,-1.608075931,40.87743477
7.4800,-27.03633209,-3.325391592,41.64419311
7.4850,-19.20804758,14.42365566,43.06383302
7.4900,-22.4510993,12.86865923,56.98954706
7.4950,-26.21921203,6.148537085,52.67504516
7.5000,17.41611215,11.68681321,35.9368504
7.5050,43.30753454,-11.10800645,17.20011461
7.5100,46.93846704,-16.49191211,17.06209441
7.5150,76.67483371,-35.08811063,22.29310749
7.5200,67.90263026,-23.05140651,31.15165988
7.5250,36.05536075,-19.80042868,36.79473123
7.5300,17.05313395,-17.44287335,43.86322001
7.5350,-0.9897294981,-8.976003676,49.47986913
7.5400,3.113927146,0.4597059192,46.71402373
7.5450,-6.581847907,-7.427587286,40.55654672
7.5500,-1.328081194,-16.44343988,43.23189011
7.5550,-5.995886971,-20.36644644,44.54149944
7.5600,-7.069842064,-12.43480651,56.1920529
7.5650,-18.03209571,-12.73709039,54.16707384
7.5700,-6.953672501,-12.97759127,44.18357874
7.5750,-9.413196538,-10.99013236,32.14083825
7.5800,1.257345901,2.428425568,31.30983518
7.5850,9.936435889,-18.83150438,35.55974933
7.5900,2.562916229,-11.75321439,37.71541802
7.5950,-11.40443862,-9.406295824,29.59487086
7.6000,-6.597758102,-0.5937537518,20.26375268
7.6050,-1.477647692,3.992954734,12.40580666
7.6100,10.23513829,2.287461954,17.15813358
7.6150,13.02357158,1.343582077,19.73187669
7.6200,-3.302249698,-2.880781143,19.55609096
7.6250,-0.7990215136,-17.87883265,9.530027996
7.6300,-5.819781978,-4.432164218,10.59882389
7.6350,-1.976766237,-9.260332155,13.04485743
7.6400,-4.932671252,-12.63718713,13.87014617
7.6450,-16.24409825,-16.82989179,16.01299554
7.6500,-14.88559943,-5.495611499,24.59429485
7.6550,-12.62724115,0.4312068281,21.59225449
7.6600,-4.204076029,1.917389612,20.07264114
7.6650,-1.284495347,-9.722172561,19.38831382
7.6700,-8.569392044,-0.3168521067,19.81248417
7.6750,-13.24028524,-13.62025917,11.21639614
7.6800,-4.785499107,-6.900450723,11.67741838
7.6850,18.68198105,-23.88598094,2.601113641
7.6900,37.61420703,-26.57662447,0.555274195
7.6950,29.49941968,-22.42750218,1.272386928
7.7000,20.50837946,-14.90879291,8.876460784
7.7050,-6.255041211,-5.930810822,28.0820986
7.7100,-1.799284344,-8.748403517,47.59116794
7.7150,-8.702784177,5.643761411,49.9982485
7.7200,-4.658069464,-3.152260516,35.30621471
7.7250,-22.31386832,-16.6246586,29.00235859
7.7300,2.556540852,-14.36624744,28.01989542
7.7350,22.8909397,-27.85145381,36.63600531
7.7400,19.96736118,-25.26772479,37.75973725
7.7450,10.96993067,-28.89916446,19.92723958
7.7500,11.51175922,-29.4085215,3.646956958
7.7550,1.576699608,-47.81260783,-6.480928371
7.7600,-2.223544197,-30.45267052,-2.690165367
7.7650,-1.237403315,-49.03510083,4.137731897
7.7700,-9.63326845,-21.5366014,24.98728875
7.7750,-10.22681516,-22.24120263,34.30330959
7.7800,11.21334627,0.338567645,40.13558309
7.7850,23.00708853,-3.988647739,25.9172658
7.7900,23.70231261,-0.6043697833,11.09985623
7.7950,24.61222369,-11.47176836,3.712827738
7.8000,30.48248166,-14.92034738,2.899497184
7.8050,28.64818374,-22.01240386,2.492935424
7.8100,18.65338432,-14.96310869,12.60755404
7.8150,17.65563704,-9.701537615,-5.385263116
7.8200,55.05133348,-19.0935759,-23.63778415
7.8250,72.13203503,-28.96167356,-12.77261268
7.8300,32.40134231,-41.30312006,-2.166309859
7.8350,20.73482449,-21.35720147,12.30543438
7.8400,22.80437955,-22.42296561,23.33545249
7.8450,22.32328804,-15.01501488,25.08950276
7.8500,25.05767398,-17.36402506,30.09347846
7.8550,13.64791515,-23.39018178,33.60802826
7.8600,8.017894128,-26.76427667,40.24511411
7.8650,25.89494995,-8.881648287,31.26001687
7.8700,29.67386421,-7.682289241,12.79185968
7.8750,39.46995845,-0.618505113,3.891784699
7.8800,36.75282658,-14.02340493,12.21440659
7.8850,20.71152689,-20.70280902,22.31391503
7.8900,-4.06082057,-12.43698583,35.51423019
7.8950,26.65522008,3.503542598,2.416725451
7.9000,44.82587816,-1.715411911,4.939491589
7.9050,33.54673553,-18.32181561,21.60209934
7.9100,-0.6542646344,-14.21408739,37.92673851
7.9150,-9.391218159,-1.25249005,32.635481
7.9200,-11.83606366,0.3866685786,31.16824465
7.9250,12.27392961,-6.336331869,34.17101151
7.9300,14.01800316,-15.47603634,48.13266565
7.9350,22.55203404,-10.25219162,34.31038884
7.9400,30.91256641,-3.257748268,15.67587679
7.9450,1.510798465,-33.18828358,-0.6524594129
7.9500,-8.483570781,-26.64693537,15.44398269
7.9550,10.8723063,-15.82226627,9.816645846
7.9600,38.59362868,-11.15030077,22.46539628
7.9650,28.29302083,-27.87210435,40.56963133
7.9700,2.761070582,-17.55081445,45.28118465
7.9750,5.811961443,-16.6314677,33.22552576
7.9800,14.50573324,-16.84434546,24.85167569
7.9850,13.83211055,-34.62413937,29.58026767
7.9900,15.51159008,-32.71654992,37.98836195
7.9950,22.89831114,-35.24509914,39.30518434
8.0000,32.73011946,-17.68679602,38.64580942
8.0050,37.89592146,-28.3896347,8.95981266
8.0100,38.15723093,-26.47020653,-13.08063114
8.0150,37.43296017,-35.92530049,-11.04077495
8.0200,29.59265805,-19.84748329,18.12948395
8.0250,7.446239829,-29.78298155,38.52049769
8.0300,20.74915379,-19.88266726,34.31997736
8.0350,11.29036469,-2.187037222,38.18736463
8.0400,16.12374726,-11.05916177,47.18407014
8.0450,10.76237485,-23.08090285,55.65409759
8.0500,4.115383514,-19.60258949,57.73792698
8.0550,6.129138264,-4.793063681,36.24775214
8.0600,25.65858488,-5.842636879,5.058897089
8.0650,26.74731101,-8.103054889,1.121121518
8.0700,23.19106089,-29.4776792,16.01750059
8.0750,25.30218436,-21.65755862,16.83353608
8.0800,25.72881692,-9.198278758,5.957099394
8.0850,31.71484806,-1.422539227,-9.880990708
8.0900,20.81376092,-19.75686632,-9.24632478
8.0950,21.79356178,-16.84798275,2.611957682
8.1000,29.39768333,-3.72779916,12.2399946
8.1050,26.44771024,1.445682298,10.01721863
8.1100,28.63930701,1.794394182,11.13123802
8.1150,28.32139508,-8.126491038,22.29498671
8.1200,35.32030976,8.777006555,38.52421775
8.1250,21.89134179,-6.443924303,24.61196197
8.1300,24.06015032,14.30751373,-0.2257648359
8.1350,26.49869671,-11.62666986,-5.078233314
8.1400,32.81226077,-7.858124317,17.10534147
8.1450,25.66277629,-10.40174309,27.03480477
8.1500,30.34173688,-12.87233374,2.139265196
8.1550,26.24288207,-16.05229144,-12.5955051
8.1600,17.14536449,-14.14728115,0.5425598139
8.1650,37.0964216,-8.836635959,4.501524263
8.1700,44.50256873,-32.35111557,11.70054938
8.1750,43.33496764,-19.04940611,14.40208246
8.1800,22.67509719,-14.44321679,9.092419801
8.1850,18.48522661,-3.919989887,1.583316984
8.1900,18.97630854,-2.797148108,2.210892628
8.1950,19.8606242,-20.25750624,3.267478712
8.2000,36.78423856,-1.512420335,5.422692319
8.2050,30.1510387,-5.164869005,5.057318019
8.2100,26.57400539,-20.61762667,11.88547932
8.2150,23.20587609,-2.025362317,20.32768258
8.2200,26.86260884,-2.6789155,14.2214294
8.2250,21.550132,-8.589949343,3.430163209
8.2300,7.237188828,-19.77537322,16.69326568
8.2350,25.41949363,-3.414529089,-16.12322306
8.2400,71.08087204,-5.415730694,-34.77488037
8.2450,67.03285255,-28.48755628,-26.71810171
8.2500,31.98598795,-32.02929306,-23.02743485
8.2550,6.019742046,-11.60353737,-33.72616145
8.2600,3.133347948,4.35239802,-51.31170498
8.2650,6.264587881,-0.7810430901,-53.72405975
8.2700,16.70124442,-16.62263077,-31.66821305
8.2750,28.84376196,-19.11825083,-16.53774782
8.2800,22.39738449,-16.43813312,-4.737080889
8.2850,9.09235753,2.966768865,-10.11391942
8.2900,-4.089289055,-4.337624595,-27.86502379
8.2950,-7.183935991,9.6084824,-38.83708019
8.3000,-12.25256749,10.34835,-28.39684964
8.3050,-8.64192306,11.8365304,-31.07723164
8.3100,-12.06411395,13.83224386,-45.79935593
8.3150,-12.56934929,8.880826038,-54.63093734
8.3200,-12.1068257,-7.891087832,-40.30707807
8.3250,-4.156228294,-12.09633738,-17.22012982
8.3300,2.610433403,-13.38077233,-11.03259008
8.3350,-8.007605955,-35.62754542,-0.09774071041
8.3400,-13.84944094,-57.14438411,61.05392835
8.3450,-10.7510605,-37.57905425,63.83991637
8.3500,91.90719358,25.72919838,-48.74335582
8.3550,132.6344619,-11.98267733,-103.6291943
8.3600,60.69709852,-52.26714847,-45.91400857
8.3650,21.84338485,-7.456867642,-83.94188127
8.3700,74.0690975,8.222873649,-128.6338954
8.3750,68.51414878,-36.89637799,-107.1705229
8.3800,56.60756534,-40.30862785,-48.55909965
8.3850,57.46876923,-46.1245499,-18.7897017
8.3900,66.56963598,-36.48109982,-19.1774076
8.3950,73.12876268,-30.09273967,-24.44431956
8.4000,53.34316386,-61.5467378,-16.29066458
8.4050,57.13713375,-50.94632073,-18.5363923
8.4100,56.81573682,-31.03511334,-11.41304166
8.4150,62.66368048,-27.5664317,-10.77065257
8.4200,66.85052711,-30.0520873,-0.02220992569
8.4250,74.15098118,-27.75216199,16.50162569
8.4300,71.00239499,-32.93483163,7.262976098
8.4350,54.40641766,-5.467934204,-2.509379189
8.4400,38.91298908,-18.56198622,-29.41308679
8.4450,38.67790873,-13.37792679,-28.7699601
8.4500,51.36542525,-18.26925386,-24.27675164
8.4550,51.99582426,-8.992559949,-10.58226226
8.4600,39.70189636,-18.64951351,-12.41221629
8.4650,34.70374148,-12.95984683,-17.99440185
8.4700,47.58347724,-14.821852,-20.48446062
8.4750,38.21873228,-17.77671828,0.9672792189
8.4800,53.97210592,-17.10301719,5.520976217
8.4850,53.51980701,-21.11505534,0.7890867102
8.4900,45.4148865,-18.85668217,-4.12745991
8.4950,40.54806721,-22.43815866,-4.178762264
8.5000,39.05757904,-11.85095821,0.5259969284
8.5050,19.25672696,-6.945410608,-1.959296155
8.5100,12.14795162,-2.170304818,-33.13034436
8.5150,0.9315215603,4.920452679,-33.02264883
8.5200,3.724630165,-14.14088115,-27.1079597
8.5250,8.450797164,-19.96534676,10.5641434
8.5300,13.99677001,-26.85542601,36.02503818
8.5350,14.6517197,-4.168599681,30.84194448
8.5400,-8.327333949,3.713249378,11.2206036
8.5450,-21.06694781,13.64847668,-5.142179137
8.5500,-13.59033077,10.44520514,8.277220045
8.5550,4.2443062,-4.330627759,31.93500562
8.5600,2.131602038,-5.962582008,51.6784496
8.5650,-0.5430317678,-1.466121393,28.32909358
8.5700,-7.29686546,13.67246419,14.91470264
8.5750,-16.06105123,-5.333995795,-5.283878833
8.5800,-9.52222809,8.460510916,2.566437136
8.5850,-2.499253061,-8.942641275,4.853792715
8.5900,6.534538225,-2.379590211,17.84310168
8.5950,17.48200077,1.046811475,11.5833017
8.6000,4.600007699,0.1756771742,11.51348595
8.6050,-9.230417211,8.672208396,9.078444732
8.6100,-10.9035577,4.457638576,2.363868838
8.6150,-0.005188308228,2.169684749,17.98025142
8.6200,11.17533979,-11.98110087,29.99953571
8.6250,24.3306579,-1.672609126,26.77679255
8.6300,18.68944949,6.761299191,22.69481532
8.6350,-0.3800014273,-3.764452351,4.630449545
8.6400,-8.775960372,3.30146209,-7.062069532
8.6450,-13.88764271,-10.66192597,-23.10207613
8.6500,-18.39878801,12.92286702,-40.58204863
8.6550,-32.46677425,6.487114643,-51.32239267
8.6600,-21.77712415,0.03585188606,-56.45212042
8.6650,-10.6924575,-13.09357911,-41.69839378
8.6700,6.523073267,5.745008016,-25.9273566
8.6750,2.569914732,1.161433053,-15.60748391
8.6800,-0.2407375382,-5.445896337,15.69652166
8.6850,5.353782606,-2.890683836,28.23484012
8.6900,15.25072433,-3.139572043,41.25162299
8.6950,30.93570859,11.54125242,26.12398114
8.7000,29.74581519,11.2654302,-1.011224348
8.7050,13.95252202,6.560132115,-7.376461231
8.7100,13.25320462,7.493205565,-19.09342915
8.7150,5.118081912,0.9739920454,-37.23527261
8.7200,7.870685707,16.2877921,-54.72363545
8.7250,1.859580665,1.208281633,-50.42661251
8.7300,-2.343638489,-9.238520985,-26.61601534
8.7350,6.655320755,-25.66400482,-19.6401127
8.7400,28.1547765,-13.82631244,-13.31087896
8.7450,37.10627613,-19.37588122,-24.41353475
8.7500,38.51284974,-6.58152579,-17.07903034
8.7550,23.73166185,-20.10325021,-31.88065
8.7600,18.33969318,-5.96182546,-30.37950926
8.7650,8.520166304,-4.903451461,-18.91918368
8.7700,11.0519646,-16.67902503,-25.09688468
8.7750,15.93344636,-7.663321393,-29.65985576
8.7800,14.85090935,-1.384319294,-43.26326994
8.7850,7.245466696,-6.172081811,-50.91199076
8.7900,4.124419895,1.660377449,-62.01831625
8.7950,-4.476946615,4.401884421,-67.74466305
8.8000,-13.85458338,7.387140283,-74.27811014
8.8050,-5.351283959,14.42417847,-62.99181336
8.8100,0.8819173666,-18.65589916,-43.38999258
8.8150,20.15113908,-25.15004487,-18.9773696
8.8200,37.22421645,-18.50646839,0.4180618993
8.8250,45.28004685,-26.04069558,5.923994222
8.8300,52.56734383,-19.24069951,10.23007269
8.8350,50.65756672,-26.68743626,6.258259481
8.8400,49.6523521,-14.57738021,-2.933243504
8.8450,36.9335957,-11.23270536,-11.854173
8.8500,12.76125737,-33.48795284,-31.12494924
8.8550,4.432490193,-19.9434671,-42.38406927
8.8600,-2.394389809,-38.05396664,-15.5006168
8.8650,-4.772457353,2.293303797,-40.82826038
8.8700,35.59853923,35.10847666,-106.3438168
8.8750,25.35348044,-8.990428551,-85.34639488
8.8800,-1.119397372,-18.66792034,-31.1415867
8.8850,-24.51658847,-23.06218285,-2.802704426
8.8900,1.974817609,11.76211929,-30.66193109
8.8950,10.88323898,0.0626848148,-32.33334116
8.9000,19.42364849,-12.3475491,-33.57703961
8.9050,19.74460326,-20.66569475,-13.33598648
8.9100,23.61491418,-22.79440994,-9.303612502
8.9150,27.57561624,-16.09550688,-12.07380786
8.9200,19.13493875,-9.974301586,-3.409954913
8.9250,-0.1139352058,-11.71471321,-16.78846272
8.9300,-5.24405086,-15.76029601,-19.05611208
8.9350,5.013220786,-9.732499939,-18.87743178
8.9400,5.973254382,-15.96773446,-31.97150086
8.9450,0.4178651085,-9.645453537,-23.49975156
8.9500,-9.719434431,5.179974861,-20.61342997
8.9550,-19.85172761,11.2245618,-33.42847352
8.9600,-17.90149115,11.23514566,-34.75250927
8.9650,-3.034110482,6.804177638,-16.9984978
8.9700,5.703703241,3.549628674,-0.6578102898
8.9750,6.826619384,9.178279204,-9.681816273
8.9800,0.7651545406,-3.347606694,-21.47431935
8.9850,14.15132405,-11.65441595,-0.2394777309
8.9900,34.02812473,-18.19156346,20.33413386
8.9950,33.68892064,-21.2962519,9.685161441
9.0000,33.54654336,-16.85656697,18.59565783
9.0050,30.51957692,-28.67876874,23.34157965
9.0100,39.19782658,-22.24099603,9.614243747
9.0150,38.8303943,-17.01489263,9.40756162
9.0200,24.38764818,-5.226821539,1.448633414
9.0250,2.016683317,-9.773878569,-10.76637708
9.0300,7.324061241,-14.57883667,-23.91838721
9.0350,8.447533872,-34.71236335,-12.80884417
9.0400,18.76872158,-12.36233413,-4.293301289
9.0450,-6.214670718,-12.60818782,-12.54122692
9.0500,-28.45314049,0.894808643,-14.42972581
9.0550,-35.48196708,-10.98011862,-14.30698781
9.0600,-23.66092436,-15.58396072,-27.69982471
9.0650,-10.30761659,-7.027277929,-11.13399364
9.0700,-1.997292456,-3.481410137,-1.53785792
9.0750,6.551075352,-15.8762214,2.849072922
9.0800,22.260234,-27.49014474,22.1668512
9.0850,42.44910144,-18.77392033,28.3168172
9.0900,43.02004659,-22.89878411,17.34417271
9.0950,36.02305093,-14.55015282,18.97350918
9.1000,22.47100108,3.16965126,6.191868562
9.1050,-0.5455293432,21.81987268,0.7901425739
9.1100,-26.67397185,30.40280184,-22.72342673
9.1150,-40.12747989,30.81371772,-35.32073267
9.1200,-45.9673744,22.27637501,-47.6565117
9.1250,-45.89563875,32.94795532,-23.31911407
9.1300,-48.05597043,44.05984443,-27.48415353
9.1350,-54.1518953,43.30943336,-37.30299587
9.1400,-39.50532543,32.7205485,-36.79886299
9.1450,-19.81845284,44.05947896,-25.33185961
9.1500,-2.115601633,40.07216459,-18.58625568
9.1550,1.854251464,29.62534382,-7.069734839
9.1600,11.55681019,25.82774693,-8.679276925
9.1650,24.52208922,15.50587249,5.972951095
9.1700,32.45066034,9.513647295,-10.66090101
9.1750,22.96050869,13.25888884,-12.0714568
9.1800,14.14191926,6.156388931,-11.90558879
9.1850,10.84108107,2.014052175,-9.03527418
9.1900,11.23118481,5.960997114,-8.287451058
9.1950,0.4935282737,-10.18250998,-23.41978797
9.2000,6.243945817,11.51567774,-38.99002136
9.2050,-7.868725733,6.219299656,-37.77962479
9.2100,-20.68161257,-12.62914402,-50.39627881
9.2150,-13.29949332,-14.43547994,-35.44316974
9.2200,5.531404126,-27.31435518,-28.24272941
9.2250,8.837349439,-13.81018472,-27.97410089
9.2300,-7.329646,-13.42412767,-39.21363312
9.2350,-17.31841292,-19.8003409,-45.46877407
9.2400,-3.633329432,-23.32600636,-37.41899571
9.2450,5.108086051,-21.10081914,-31.52862755
9.2500,3.642686042,-28.38249769,-46.36352309
9.2550,-3.418855885,-34.05380971,-41.53126833
9.2600,-3.513317298,-17.27411507,-31.3146467
9.2650,-22.24063351,-47.66000735,-43.32368629
9.2700,-11.74232635,-24.00683724,-48.35319902
9.2750,-14.32842287,-16.06162724,-54.0345151
9.2800,-17.96736684,-19.96462005,-45.85656001
9.2850,-26.52932995,-16.08269546,-41.36907788
9.2900,-30.8921052,-9.853554576,-39.02130871
9.2950,-22.00200175,-5.452421585,-34.84162487
9.3000,-8.681446375,-26.73434512,-18.71562569
9.3050,4.500143298,-11.17516878,-20.54672768
9.3100,5.336083334,-20.10758912,-21.27646923
9.3150,9.163685282,-22.33875195,-20.98260824
9.3200,10.55215831,-17.21740035,-17.06151054
9.3250,5.520110999,-16.3773228,-16.48529221
9.3300,4.29720914,-5.304631854,-23.27180069
9.3350,-7.011217934,-16.87395771,-24.75362445
9.3400,-9.418957984,5.207709452,-15.45606042
9.3450,-28.29979295,-7.492624334,-22.61516469
9.3500,-26.0760547,-5.022317642,-10.29880377
9.3550,-21.86599256,-7.642724869,-19.77656201
9.3600,-4.013609735,-4.56457483,-8.121323003
9.3650,0.5531780501,1.029811005,-14.29907245
9.3700,7.06030152,1.101288421,-14.60442107
9.3750,-0.8516411531,2.328751632,-10.38758295
9.3800,-0.3181595463,12.26120313,-3.289026832
9.3850,-16.98831014,7.13895745,-9.037714099
9.3900,-12.37102729,8.107996112,-9.858522924
9.3950,-10.61049922,-5.454269627,-0.5485110938
9.4000,-5.600882988,-13.73834602,10.30072532
9.4050,-4.480686369,-3.217298482,-1.405466508
9.4100,-1.231848784,3.901181026,-1.96688472
9.4150,-3.316263714,-10.27358918,-2.788476372
9.4200,17.52179748,0.4150175986,9.751879612
9.4250,19.92366859,-4.953941294,13.06735562
9.4300,17.54432172,5.19250275,16.00204424
9.4350,-1.156328279,-13.45298445,11.48958239
9.4400,1.981444411,-1.057056181,20.82571189
9.4450,3.036073792,14.28122689,17.48661445
9.4500,1.797410877,8.112363608,11.57633488
9.4550,0.4785667862,4.945311499,16.13257569
9.4600,-5.798975722,-2.922441703,13.50452975
9.4650,-2.196705904,19.20043634,2.699486846
9.4700,-4.256085687,5.905722153,2.503091921
9.4750,-10.2596384,12.12704486,6.802745973
9.4800,-19.83582762,14.80456589,-5.31171774
9.4850,-13.63276635,24.25727311,0.7279233682
9.4900,-19.23796599,8.339976283,5.372748451
9.4950,-24.35793939,17.85401355,-4.844181993
9.5000,-10.00893093,11.51680456,-9.676483847
9.5050,-2.248736361,-7.938830932,-23.83645307
9.5100,5.186891606,-0.2736551067,-27.19278635
9.5150,-18.26042912,-15.71878151,-29.87078636
9.5200,-14.20273021,3.048489589,-28.56583901
9.5250,-12.09090304,-10.97413055,-27.16474123
9.5300,0.535558478,-13.96946102,-22.80583222
9.5350,5.141922892,-1.893053312,-28.140711
9.5400,6.221138927,-3.66929443,-19.04719793
9.5450,6.144606403,3.685596094,-15.89792005
9.5500,5.025308008,-10.29178874,-28.02201431
9.5550,4.993877591,-5.561735301,-25.95323344
9.5600,-6.622463394,-5.914953712,-36.71200973
9.5650,-21.26676903,-5.12427893,-27.73432054
9.5700,-26.81078258,0.4164557086,-38.1243153
9.5750,-18.61869646,-10.84834839,-30.82685713
9.5800,-4.022573676,-13.65363573,-21.43708036
9.5850,0.2516280192,2.277426125,-33.70843333
9.5900,0.3131084355,-12.77117397,-32.69013598
9.5950,2.786393357,-28.02937877,-29.26074618
9.6000,10.3717954,-6.270481323,-43.41380154
9.6050,17.29199932,-35.21763414,-34.84732703
9.6100,36.71789196,-40.74320258,-16.46693752
9.6150,34.15329794,-15.98488736,-8.785953729
9.6200,13.06124941,-27.01218304,-31.75009316
9.6250,8.096894166,-20.3403608,-39.26985431
9.6300,-1.70396396,-20.78105023,-29.768753
9.6350,-15.69313271,-16.6421994,-22.77593404
9.6400,-17.24478138,-23.51334119,-31.70925661
9.6450,-15.05355818,-14.81859203,-27.04701484
9.6500,-22.24555474,-19.0874342,-21.69877983
9.6550,-21.84031767,-8.12841562,-23.36924106
9.6600,-27.93708412,-13.45084106,-8.680158693
9.6650,-32.9059001,-9.243709944,-21.0238534
9.6700,-15.7712906,-8.102323773,-20.99434161
9.6750,-2.749405653,-12.85649829,-16.73018481
9.6800,15.6068395,-1.298692486,5.225631004
9.6850,4.889913117,21.40299346,-8.763163718
9.6900,-6.437972633,19.45679839,-20.15647226
9.6950,-9.826086193,20.8795872,-21.8113521
9.7000,-1.568434892,17.29923619,-10.53825835
9.7050,-2.242534205,20.454316,-28.76120313
9.7100,-24.54260713,29.8948666,-36.88814581
9.7150,-47.43422795,35.22942489,-12.5886802
9.7200,-41.30848236,28.02056076,19.30014531
9.7250,-17.76251584,36.82525868,28.26162591
9.7300,14.01593456,19.73327552,36.49260698
9.7350,31.57446441,32.4784052,23.96049286
9.7400,26.06794356,44.71396712,-6.13353411
9.7450,17.3432803,19.98874773,1.230622725
9.7500,17.99425516,9.584618425,9.406150532
9.7550,-2.356878506,20.33846777,-0.6559003379
9.7600,-28.65559096,37.23516822,-11.81034898
9.7650,-49.5087233,19.92152422,-17.66419651
9.7700,-46.84880124,-3.159303704,-20.81012196
9.7750,-39.49392821,6.04835871,-20.42573671
9.7800,-32.13142726,-17.17115694,-19.6028661
9.7850,-26.92749364,-20.53736998,-14.77890482
9.7900,-6.018964932,-29.39494394,-15.00250414
9.7950,-0.6735130387,-57.61437457,-18.19031065
9.8000,20.82340354,-34.93153599,-16.85672503
9.8050,6.44884981,-67.09950625,-17.40166427
9.8100,11.46618696,-49.11217116,-24.31987169
9.8150,-5.9435642,-43.9253409,-23.15895173
9.8200,-21.43475094,-34.1399232,-22.42845981
9.8250,-34.87557366,-41.19189264,-12.0938778
9.8300,-53.17571567,-35.57022567,-11.21152328
9.8350,-78.06035027,-41.50134793,-23.18591595
9.8400,-62.13236382,-27.17517206,-14.5680209
9.8450,-43.79113798,-31.55346753,-6.16534171
9.8500,-20.66261839,-50.75216031,2.220984288
9.8550,1.684559529,-43.53119588,4.350145612
9.8600,9.95450983,-35.53255835,1.400777715
9.8650,-4.291288434,-22.37077127,-13.15934719
9.8700,-19.99783636,-18.61643229,-9.929962259
9.8750,-30.29408956,-22.06978079,2.199354589
9.8800,-28.12875344,-18.74913565,4.351319725
9.8850,-16.29470395,-7.979470068,1.140335297
9.8900,-3.790014482,-7.956223429,-2.757985289
9.8950,8.29114701,-12.51812316,15.20522715
9.9000,11.91181284,6.366371442,8.015559453
9.9050,17.0348174,21.78436068,-21.336923
9.9100,15.24335421,8.711968696,-3.908994048
9.9150,4.353963985,8.553556963,21.29408856
9.9200,-8.898820094,36.20519809,14.64419557
9.9250,-34.60421884,33.70161306,-0.8681444905
9.9300,-39.31170318,33.23157448,4.532099077
9.9350,-40.15545713,21.96762714,3.686045244
9.9400,-18.15807451,29.08126764,4.339323916
9.9450,-10.39859628,21.86546172,1.91102728
9.9500,-10.57631715,13.51369032,8.702778668
9.9550,-7.548745892,18.44838163,3.556542251
9.9600,0.3731930223,17.03750586,2.065421909
9.9650,2.299948437,14.10287783,4.698160109
9.9700,-7.6923875,15.77883543,-4.037358745
9.9750,-22.18454125,13.3404407,3.795134675
9.9800,-17.26432489,19.32717093,13.2411411
9.9850,-18.73792209,18.91326133,10.14038315
9.9900,-22.5759992,21.43586188,5.001198113
9.9950,-29.47837785,18.59935655,-0.8632935578
10.0000,-26.47971728,11.14505637,-0.9779856963
10.0050,-18.78787754,12.59269987,-6.015349443
10.0100,-26.62850357,11.20374386,-12.17608521
10.0150,-25.0925091,4.187129615,-0.9594287987
10.0200,-23.82224132,-0.8516263042,-13.2186639
10.0250,-19.87023706,4.943259462,-15.4052874
10.0300,-25.69653741,-3.496339908,-25.26878519
10.0350,-27.74121427,0.7598399484,-19.11567321
10.0400,-26.39761875,10.08348113,-20.31288419
10.0450,-31.57360009,5.899839318,-14.36867909
10.0500,-19.91447002,8.05265402,-15.66501073
10.0550,-9.054389642,-4.561156129,-2.08931271
10.0600,-5.679614916,-7.214251703,-4.318573284
10.0650,-13.20338784,11.72320011,-9.570936965
10.0700,-25.51781844,20.23506715,-26.93834903
10.0750,-29.1395033,4.449184335,-31.06635271
10.0800,-23.60439386,-5.443166821,-15.00045953
10.0850,-17.99167259,10.73200376,-9.314498601
10.0900,-23.19719274,5.806394799,-11.11647112
10.0950,-10.0343891,23.01262403,-9.313266796
10.1000,-16.50017037,5.774626013,-20.91302704
10.1050,-12.31708527,14.84323902,-16.76964074
10.1100,-7.754729839,16.14499206,-9.410976555
10.1150,-22.25727184,6.559791013,-4.00119227
10.1200,-22.15583691,30.88600162,-16.42011515
10.1250,-22.39693848,19.47696054,-10.82004519
10.1300,-16.07406294,16.62476806,-17.46357723
10.1350,-9.399208951,10.58958288,-9.084828573
10.1400,-1.464124013,19.09454875,-4.664001492
10.1450,-4.344146203,10.26105924,1.971593766
10.1500,-18.85198249,13.99471841,-12.15720362
10.1550,-23.49667061,26.34852977,-8.182807733
10.1600,-21.36554961,13.50191134,-11.62819926
10.1650,-15.67130455,15.28048862,-16.15852648
10.1700,-1.863186374,6.70516693,-5.393402628
10.1750,-0.09176759029,11.64655827,-9.710124344
10.1800,-0.3645931249,7.504040162,-4.162839109
10.1850,-8.540257512,10.42808397,-12.2536188
10.1900,-4.137538725,23.50408078,-10.61192092
10.1950,-3.891384365,8.376004723,-16.99873798
10.2000,12.00775239,-0.7092919454,-7.516243842
10.2050,18.68378424,-5.331197432,-6.312910027
10.2100,12.26229792,20.01854573,-11.65464184
10.2150,-7.343086948,22.57838363,-22.78529437
10.2200,-23.2910351,30.43774911,-20.76819087
10.2250,-35.31807248,32.47510285,-14.3563446
10.2300,-27.33790686,34.25082628,-18.58943601
10.2350,-20.14919466,19.86819966,-8.47948854
10.2400,-4.847666435,2.383720511,-3.716867315
10.2450,1.401428721,19.24538751,-10.60780416
10.2500,3.439072097,17.66642544,-11.81147231
10.2550,-0.1624342397,12.36715623,-16.18799415
10.2600,4.803893713,20.77239352,-7.966013327
10.2650,-0.5757436239,15.77445951,-5.960354818
10.2700,4.630277308,27.11612784,-0.4969794565
10.2750,-7.139904316,27.31688735,-4.033074718
10.2800,-14.99466887,32.88778752,-10.49743059
10.2850,-20.37808612,37.28140282,-10.44873558
10.2900,-29.76405856,26.85188012,-10.07890675
10.2950,-31.42267445,24.92799632,-4.838939086
10.3000,-17.56847468,34.59216516,-3.150126687
10.3050,-17.36026885,34.59337197,-20.12006399
10.3100,-8.380717964,15.3057275,-11.15152379
10.3150,4.153404993,10.41082976,1.848306068
10.3200,13.37602719,9.186932369,-1.444719964
10.3250,20.16174101,4.539526871,4.218098307
10.3300,17.16870189,14.48718427,0.9872063253
10.3350,2.843639408,15.06307113,-11.02596487
10.3400,0.9059400496,-0.4200410381,-6.025608661
10.3450,-5.97712519,-19.08130374,-14.15725121
10.3500,11.42062253,-4.171969079,-8.338655492
10.3550,3.229567198,-8.686226257,-29.60433573
10.3600,6.774866943,2.013611219,-31.10745402
10.3650,-4.172372839,-10.68661654,-23.51148018
10.3700,-3.397182919,-4.907680883,-14.90935978
10.3750,2.9129738,1.422662137,-3.313198282
10.3800,8.111765403,-12.22444708,-15.36742331
10.3850,11.16698679,-9.579275867,-17.15132549
10.3900,10.15855805,-27.66172109,-7.770833047
10.3950,9.894353293,-2.50034936,-9.812315787
10.4000,2.033368001,-16.01542227,-16.74014746
10.4050,-3.451978239,-20.65837168,-24.0679496
10.4100,6.448554703,-7.895747223,-6.112889098
10.4150,-4.871999868,-11.18867225,-25.0903425
10.4200,-10.30460136,-3.568181563,-26.99289458
10.4250,-17.87907429,-3.219122474,-16.02837743
10.4300,-4.791022693,-3.492288743,1.257412284
10.4350,1.61106507,-21.44741069,1.709998267
10.4400,20.09274435,-25.80689286,-0.3345221841
10.4450,34.55447995,-14.40974729,-15.64945777
10.4500,32.10969341,-20.49577275,-0.811118154
10.4550,22.84516168,-9.371048303,3.348069333
10.4600,10.91382136,-11.60436962,-4.396973935
10.4650,11.35862787,-7.176114247,-5.237243096
10.4700,15.20227802,-18.21889137,-12.13855229
10.4750,15.36511173,-24.21518332,-18.00153748
10.4800,14.5468626,-18.09280729,-32.59315892
10.4850,16.73905907,-29.1364252,-26.65310952
10.4900,19.79211988,-21.83116366,-15.59678744
10.4950,15.48618349,-23.7505704,-24.5913615
10.5000,9.224361914,-18.14053516,-23.85643092
10.5050,-7.680424038,-14.78956457,-28.24913924
10.5100,-10.49784539,-9.141364734,-20.67805969
10.5150,-16.1578461,-17.27861209,-21.39401344
10.5200,-13.40123403,-16.76631258,-13.71868893
10.5250,-7.495598655,-15.26236504,-23.43404213
10.5300,-6.287985726,-18.9076246,-29.95341457
10.5350,-1.849238974,-11.93067288,-22.34416238
10.5400,3.188406955,-25.77478161,-11.61201424
10.5450,16.27267585,-19.17277049,-12.07325865
10.5500,14.19822235,-34.19319617,-15.94529312
10.5550,14.54784365,-12.767585,-16.11078534
10.5600,3.054275068,-16.05205562,-17.42644274
10.5650,-7.364189122,-13.36715536,-22.63862074
10.5700,-16.52165534,0.5476473936,-32.57302293
10.5750,-24.23182419,-7.435594576,-31.4090874
10.5800,-22.049075,3.548134825,-45.79810188
10.5850,-16.9811193,-1.217671892,-40.31499371
10.5900,-1.123232747,1.067485774,-37.92856906
10.5950,3.06173006,-9.97188272,-29.94199804
10.6000,6.760167794,-13.37542029,-20.36433842
10.6050,10.2783234,-8.837477253,-14.87792763
10.6100,5.693951504,-5.696850271,-19.41503552
10.6150,1.585032793,-8.897509958,-9.137003804
10.6200,2.824791633,-4.500460727,-17.84819965
10.6250,7.82735502,-2.878900369,-21.37531419
10.6300,2.62284814,-2.822351809,-23.07541679
10.6350,-8.418265158,-1.316817621,-34.28034971
10.6400,-6.201974616,-1.314580632,-39.30451006
10.6450,-3.86017068,-10.83365993,-42.24579095
10.6500,11.31489953,-6.682802271,-26.79891269
10.6550,3.311372715,-20.70863741,-28.72509472
10.6600,6.84050224,-1.424824116,-25.59304995
10.6650,-5.636204907,-0.6164634268,-28.71811417
10.6700,-4.266405504,9.735983353,-24.22760491
10.6750,-2.472307417,-3.320401851,-11.5010352
10.6800,15.13783032,-3.546495642,-5.293299657
10.6850,22.71629612,-16.8842106,-5.074392078
10.6900,32.48341747,-12.35972585,-16.19160899
10.6950,33.74974073,-5.801709408,-3.437308866
10.7000,29.36780851,-12.01317195,-7.36357987
10.7050,18.67289658,-22.15640783,-18.77267321
10.7100,21.40743912,-13.79378355,-28.08125621
10.7150,-0.1830106803,-11.91645466,-33.85077569
10.7200,-6.143398012,-3.4340931,-40.23997948
10.7250,-24.11369163,-19.06432098,-48.60434847
10.7300,-15.3356685,-19.36643593,-41.76804965
10.7350,-9.240102655,-28.20866451,-32.73119008
10.7400,14.77122384,-39.16909483,-20.34037602
10.7450,21.64400608,-28.11579262,-17.83339727
10.7500,17.59480387,-22.77795721,-24.34229093
10.7550,5.473457915,-16.57352055,-27.60811891
10.7600,-6.241247405,-23.98557573,-16.58136685
10.7650,-2.068618907,-14.48925161,-8.324040842
10.7700,-3.661561764,-10.38913043,-18.76641321
10.7750,-15.11016646,-3.42186011,-30.92675748
10.7800,-19.1027076,8.622101374,-40.23595554
10.7850,-24.93317691,1.526659994,-42.99418836
10.7900,-17.17576997,-14.34635382,-30.17296053
10.7950,-4.907322361,-17.52256494,-26.12085294
10.8000,5.132391782,-5.685232753,-32.65890029
10.8050,-4.340352101,-9.562274211,-21.80148392
10.8100,-3.614411322,4.607372057,-18.56365521
10.8150,-7.229267232,-11.34625936,-5.318260177
10.8200,5.421872044,-3.112360131,-12.25167608
10.8250,11.1113128,-5.350468851,-12.01660141
10.8300,9.665878968,-0.02654994482,-15.72598851
10.8350,10.49276851,1.280938174,-10.37094497
10.8400,10.86808762,-0.2581402012,-12.04287946
10.8450,9.520006491,-3.042781293,-14.61504294
10.8500,12.35715071,3.201128221,-20.42730134
10.8550,7.541742157,4.576422756,-27.4248158
10.8600,1.411603102,10.98866637,-27.05024009
10.8650,-4.355703822,11.85274491,-14.31734535
10.8700,6.316996132,7.988442031,-3.354337726
10.8750,13.26878371,4.319518795,9.35237728
10.8800,24.95416369,11.85533421,15.45557325
10.8850,17.23267787,11.83450464,10.05694644
10.8900,8.608446549,20.17521584,7.149403736
10.8950,-0.8138525805,17.9291382,-0.2338031748
10.9000,5.517315743,11.91641329,-9.686447729
10.9050,12.22263105,-3.892736434,-6.597005669
10.9100,25.13496126,0.8746335479,-7.645151437
10.9150,29.47125711,11.15286767,-12.7749691
10.9200,23.79626683,-2.983967627,-19.60255219
10.9250,24.62531297,4.130715936,8.040762442
10.9300,28.44387647,-11.76401132,13.47959286
10.9350,35.11457582,-6.100310362,-7.40862114
10.9400,36.20147894,-1.688102726,-28.3973346
10.9450,13.67375179,4.932355296,-42.04410983
10.9500,-7.402449539,19.26101959,-37.97810823
10.9550,-16.74250012,0.08742163933,-38.37234878
10.9600,3.288832838,-6.330418888,-23.88590015
10.9650,27.4095103,-10.63645917,-4.894866443
10.9700,35.7737212,-18.21225933,-5.899413476
10.9750,26.21121872,-8.577225719,-7.981463321
10.9800,10.69837058,-13.86807965,9.182644942
10.9850,1.931137105,-20.31307051,9.412421251
10.9900,1.929907749,-12.42104088,0.9393180291
10.9950,8.922164159,-11.323906,-15.77938343
11.0000,9.77133973,-19.59415146,-34.71462342
11.0050,14.65004633,-25.93249827,-29.13550065
11.0100,13.59190189,-45.89515745,-12.42821773
11.0150,17.56943484,-37.6145736,-9.51995655
11.0200,26.2667541,-13.57788025,-31.38107264
11.0250,-4.369422775,-15.13565085,-34.715877
11.0300,-14.77567083,10.35906585,-37.97710826
11.0350,-33.59099389,-11.80919129,-28.7974962
11.0400,-11.78699302,-7.902044363,-18.09659105
11.0450,4.015584632,-12.84399295,-12.88592956
11.0500,17.94348007,-9.098299162,-20.32972946
11.0550,6.344316975,-17.35571621,-30.6208081
11.0600,0.2349944776,-7.831297481,-24.70534755
11.0650,-0.1805248324,-15.28232772,-11.33171266
11.0700,13.87724793,-25.50534626,-2.738197849
11.0750,23.86960796,-14.11462808,11.37235275
11.0800,21.78290555,-18.06249421,-7.801396392
11.0850,8.263818702,-2.968624919,-34.78287052
11.0900,-0.1074625422,3.427961726,-49.91150006
11.0950,-2.600137475,1.850517017,-47.1012471
11.1000,9.10321035,-7.982410487,-46.36244648
11.1050,17.97607003,-2.356811956,-49.90978181
11.1100,9.959688213,12.35356679,-42.86352008
11.1150,-10.9553253,-7.481354345,-43.40682793
11.1200,-3.282297575,15.75704154,-37.03132835
11.1250,3.672822977,23.16416101,-21.51521619
11.1300,10.50429015,-3.703729491,-12.19488292
11.1350,22.35353993,-14.8363657,10.09789274
11.1400,40.40905845,-25.99399032,29.98773202
11.1450,41.71395273,-9.217190543,39.99955812
11.1500,30.45191728,2.116123704,-1.342033754
11.1550,15.9985597,17.1156424,-45.87073154
11.1600,-4.813046514,6.926358327,-72.88664162
11.1650,-6.33151976,4.557356061,-73.65573094
11.1700,-0.2191524646,-25.68559182,-61.40942643
11.1750,15.98374457,-30.99319456,-37.73534578
11.1800,40.76758448,-14.56172391,-21.4950096
11.1850,39.50385947,-10.74323812,-28.94430275
11.1900,36.27618922,25.32983664,-32.58971435
11.1950,10.46353011,21.37815513,-32.23827926
11.2000,-1.900762844,21.1687354,-10.11765525
11.2050,0.9249259422,1.893828946,7.617827379
11.2100,14.72475359,4.004999221,18.02147883
11.2150,21.78161318,-24.01305643,-0.7314362997
11.2200,32.13376233,-32.20995236,-11.48964862
11.2250,27.26290648,-34.93836339,-16.58658271
11.2300,24.15894857,-30.51047607,-20.56933126
11.2350,14.26654298,-35.03151066,-13.74281885
11.2400,8.808670403,-38.16338607,6.304985071
11.2450,18.41404238,-32.54914819,6.301831773
11.2500,18.2400723,-52.77187515,-7.449123896
11.2550,9.776749295,-47.44129468,-8.550354547
11.2600,10.79299267,-10.43345847,-14.12656101
11.2650,11.35162546,-15.01515602,-50.07861387
11.2700,3.306412351,-10.82287315,-52.2842252
11.2750,-7.813663316,-19.70723919,-49.63157673
11.2800,-13.0450044,-19.39845595,-30.90982204
11.2850,-14.40031605,-9.024845152,-26.39184504
11.2900,-2.421527167,-29.47688641,-20.06478043
11.2950,-8.707727769,-53.9364391,25.55385531
11.3000,13.03805927,-54.49869655,48.15634931
11.3050,23.01429158,-42.22549096,50.79861244
11.3100,22.2594016,-27.02449251,42.6248396
11.3150,16.16254361,-30.40579381,38.56201113
11.3200,20.28696107,-42.21797928,49.18825454
11.3250,21.7931284,-39.88835993,57.80376807
11.3300,22.41295283,-38.49156775,22.23061575
11.3350,19.09933828,-20.33654574,-21.31354967
11.3400,9.891919602,-9.993261231,-60.43004984
11.3450,-5.896019453,-23.85154654,-77.21753972
11.3500,-9.490645368,-12.25731305,-66.24651886
11.3550,-14.227584,-17.55428266,-36.59257378
11.3600,-1.889118068,-39.00486507,-4.347966809
11.3650,5.571711829,-35.63506508,34.26828234
11.3700,25.66296995,-22.42585068,46.42924454
11.3750,25.90805079,-2.162460526,42.89125944
11.3800,12.03051774,-17.55346344,20.23882265
11.3850,-10.09888363,-18.98950446,24.2909098
11.3900,-10.38544499,-16.67241377,41.97911376
11.3950,2.257201492,-1.335676677,37.15594314
11.4000,3.537163877,-14.89318651,14.18086707
11.4050,8.732982415,8.148062074,-1.601230638
11.4100,6.444151963,-2.219861416,-21.89048875
11.4150,1.506706093,-8.054099659,-24.24552472
11.4200,3.622389258,16.57329357,-6.404056485
11.4250,0.988799528,0.7087741953,-4.345944731
11.4300,12.99121396,21.7356788,1.380273554
11.4350,12.72356304,14.57053602,-7.86578282
11.4400,8.738549151,10.05844823,-12.28700281
11.4450,0.9303039953,0.6958765401,0.4688998125
11.4500,-0.9480674955,3.650882254,7.842345796
11.4550,-0.7186519066,9.010811136,20.39651551
11.4600,4.388329292,5.124090174,31.65752584
11.4650,6.723375823,-8.310394924,51.37756125
11.4700,7.522235423,-7.693305598,60.74012654
11.4750,5.620270765,9.353925316,40.47115073
11.4800,-1.335033434,-3.819096728,-2.214099533
11.4850,-2.017731453,-6.342642819,-25.02910574
11.4900,-2.648133768,-10.47882998,-9.606244848
11.4950,16.03782424,1.294844585,-5.538045868
11.5000,33.02228728,2.01185245,-12.58734419
11.5050,24.47193154,7.133370612,-6.570862164
11.5100,13.73105428,9.159673775,-2.490964846
11.5150,4.004956889,10.07033935,7.497856415
11.5200,12.2748669,5.46292085,28.65793412
11.5250,8.736051738,-3.211279594,55.2731216
11.5300,19.72721518,-17.05962799,53.08264355
11.5350,20.48689816,-17.98209788,47.31096253
11.5400,16.50445679,-22.23587229,41.6710802
11.5450,6.403974596,-9.228128935,49.14187013
11.5500,-3.93434685,-13.27643609,31.63541727
11.5550,1.768568939,3.939351385,6.034737023
11.5600,8.082370209,-7.159224637,-11.10942685
11.5650,-4.880383281,-13.66256412,-5.463964175
11.5700,-0.04060231212,-8.210563551,13.40691263
11.5750,6.969819324,1.092333325,28.86655586
11.5800,27.86484623,0.1818962376,14.86097447
11.5850,23.73638561,10.31599457,18.36735206
11.5900,40.09149513,9.128280147,9.631254346
11.5950,35.72353241,9.826269189,10.35636795
11.6000,35.67339534,26.36556903,2.64827106
11.6050,18.24484364,14.53066214,-25.60148966
11.6100,16.60586046,10.74163711,-36.97005024
11.6150,11.07650991,-6.342223611,-31.21139925
11.6200,14.10008282,-34.81836569,-2.992902089
11.6250,-1.420094081,-34.85369812,41.5837249
11.6300,-3.305777079,-50.44483997,56.43820746
11.6350,-20.68567092,-35.03159997,62.77888123
11.6400,-19.03698102,-36.43433119,49.07782607
11.6450,-0.04988593101,-18.47891424,27.09792754
11.6500,18.68421049,-12.30981944,-5.994860717
11.6550,24.7389646,-20.31352381,-28.10204796
11.6600,29.81986159,-13.73623334,-48.32632465
11.6650,38.27596783,-13.77172485,-52.67414179
11.6700,38.5761334,6.573134114,-42.52302798
11.6750,26.95696425,3.685676288,-35.80770324
11.6800,20.7621243,11.54945553,-25.64880475
11.6850,28.5186021,14.69851995,-5.313738157
11.6900,7.954195114,-2.152419134,57.82244384
11.6950,-2.247069311,-9.450760911,109.6035574
11.7000,-3.937598303,-4.058857761,113.0859065
11.7050,-8.499192447,-2.308291874,62.32391143
11.7100,-24.96424647,-27.96070111,9.528178877
11.7150,-37.55817265,-68.61407594,-17.56209358
11.7200,-12.41857834,-60.9555648,-3.365712049
11.7250,4.136615997,-54.51256659,-12.64443893
11.7300,45.93434913,-21.4836182,-34.62705672
11.7350,48.6749304,9.538181023,-22.54263835
11.7400,40.93389212,30.14437016,4.474855925
11.7450,35.52208727,28.58300698,19.1938465
11.7500,31.78389397,21.66517267,34.30407026
11.7550,29.43876276,10.59035836,20.45333266
11.7600,41.67298915,32.65137974,1.026391177
11.7650,33.32035728,21.29534302,-14.36354213
11.7700,28.5761641,10.5821372,-19.45194905
11.7750,21.34514392,-4.609977154,7.985048482
11.7800,-27.47759849,-38.71512675,57.36541365
11.7850,-60.06644777,-44.06895821,95.49208165
11.7900,-65.74253766,-24.45460137,102.3072849
11.7950,-55.55380747,-32.30023624,64.1051669
11.8000,-17.65710084,-25.40491493,26.97750672
11.8050,10.79051226,-31.45398482,8.768262786
11.8100,22.86402333,-26.66786687,3.722591719
11.8150,31.42335534,-32.13933265,-1.402887755
11.8200,42.63831105,-25.9554445,-17.7190125
11.8250,50.6854217,-27.26372282,-30.50554488
11.8300,56.35980098,-10.85163439,-18.66410915
11.8350,47.14502965,-6.450914305,-3.74015593
11.8400,39.97702712,-9.94007894,17.64178243
11.8450,34.58872509,3.450105578,28.44505236
11.8500,15.07525525,-10.59638903,32.45114254
11.8550,-5.22468322,-14.47360326,30.60440457
11.8600,-31.38649401,-35.79371535,22.80650483
11.8650,-37.28129749,-38.24926241,18.34915619
11.8700,-30.11853651,-37.11233299,18.75647747
11.8750,-10.08701757,-23.03592829,18.74713945
11.8800,18.71705518,-9.808627993,25.45527217
11.8850,31.75244288,-18.9584523,24.44032646
11.8900,70.1981441,9.078407561,5.217733641
11.8950,53.54298557,-4.714675835,-19.98032327
11.9000,52.58373731,-4.054235788,-25.87467191
11.9050,50.38255923,-6.960840315,-8.622995683
11.9100,32.60139513,-19.65079557,11.17086811
11.9150,12.23822618,-23.39835823,18.85361533
11.9200,4.737495732,-6.796695673,7.001814836
11.9250,8.736472765,-15.46197684,-8.363636887
11.9300,15.01480705,-37.61925855,-19.93881096
11.9350,10.38350662,-39.21668339,-18.19921033
11.9400,26.06178407,-18.64126678,-16.11102137
11.9450,27.10323116,-38.71666718,-17.48145062
11.9500,13.90131915,-39.95190802,20.08342252
11.9550,-23.55589485,-15.3956494,67.6026398
11.9600,-32.50699484,22.54541731,83.58629901
11.9650,-15.23678738,23.19088081,59.23718075
11.9700,49.5067598,45.09404641,9.641905592
11.9750,33.08952153,-5.933215849,19.27327195
11.9800,12.37121779,-69.41642711,33.54646071
11.9850,-1.478211522,-6.422887161,63.52888727
11.9900,13.72808316,51.77766174,62.45533576
11.9950,-9.203902968,49.59531856,48.60919185
12.0000,-49.7856954,-10.40387877,33.30926059
12.0050,5.02661561,8.386083594,2.521322884
12.0100,22.27871522,0.4283917058,-23.83144853
12.0150,16.06713374,-17.98583298,-7.729551819
12.0200,-25.51815143,-11.56506258,24.90138751
12.0250,-4.76700795,-0.5983887917,47.19973242
12.0300,-12.41579729,8.671096326,54.39721286
12.0350,-21.53165753,-0.2851020089,51.7865024
12.0400,-44.82817577,4.893010688,55.30409741
12.0450,-44.76387964,10.68133995,54.72026639
12.0500,-36.03136155,13.24623319,50.81423605
12.0550,-35.29616663,-18.40623744,29.37651508
12.0600,-37.45914799,-12.79576834,25.51511329
12.0650,-21.4894432,-7.737404397,15.35852127
12.0700,-25.56966537,-19.13696986,1.182652923
12.0750,-9.867720095,-16.31267432,-10.81624293
12.0800,7.791384073,-22.59153036,-2.374881681
12.0850,6.427545384,3.652307854,15.57238751
12.0900,-10.67252721,16.32467221,28.73912617
12.0950,-31.41643019,16.35961585,34.15948104
12.1000,-42.35565615,31.57720913,39.96423436
12.1050,-63.06014242,25.49385908,38.06491953
12.1100,-79.21614648,19.76838408,51.10235302
12.1150,-84.04874457,28.21999766,50.57344024
12.1200,-75.75933254,40.49231942,51.97810457
12.1250,-61.62199739,30.28533379,44.46841331
12.1300,-50.79465816,17.22292997,27.72139469
12.1350,-60.13009551,-44.39006132,20.23036253
12.1400,-60.71641834,-30.98785888,35.11700229
12.1450,-36.10138391,9.090266343,20.01379695
12.1500,-9.68982639,1.29472934,-11.92248436
12.1550,31.70817238,-2.389732649,-38.47117939
12.1600,56.86900266,-15.2372906,-49.62386272
12.1650,46.53268246,-11.3311313,-36.51164039
12.1700,28.30372284,-11.69310505,-3.436574537
12.1750,-3.589560951,-13.29606421,25.53308455
12.1800,-8.188249595,0.9414464799,48.05416657
12.1850,-38.26512767,-8.597720291,56.08558616
12.1900,-51.26562101,-2.194921403,49.95575708
12.1950,-60.20713981,-27.56241067,28.5913949
12.2000,-44.34678231,-23.53343668,22.70836235
12.2050,-27.67584316,-26.98284667,14.86783481
12.2100,4.659669775,-31.04604229,-2.496471113
12.2150,29.66640048,-46.0082198,-16.68456735
12.2200,51.88484664,-51.51288796,-10.17118062
12.2250,59.27542208,-49.96168828,0.4474471506
12.2300,54.03366123,-41.89869006,3.958146962
12.2350,52.44476587,-36.81594599,6.099308668
12.2400,37.05239095,-21.02568647,7.092656113
12.2450,35.73701924,-17.93341242,9.675353955
12.2500,14.40577292,-24.29549859,10.0171476
12.2550,-9.508084972,-19.73762503,12.62230645
12.2600,-9.407249096,-19.91029256,21.5346857
12.2650,-2.001066464,-13.53156247,25.17810931
12.2700,2.948051652,-11.58080238,18.13080913
12.2750,5.214836428,-0.3144756135,12.54080268
12.2800,11.41060197,-7.766608679,6.053826373
12.2850,14.59629224,-6.809984989,-3.982620881
12.2900,19.92823466,11.57371785,-4.870657529
12.2950,46.19112961,5.260571092,-9.84545839
12.3000,64.57385084,23.50393803,-8.834453848
12.3050,75.440145,12.97504368,-20.41067299
12.3100,63.85251802,19.91934304,-18.96762692
12.3150,53.82075879,12.95394549,-22.34952641
12.3200,37.15207778,1.513370565,-13.39512931
12.3250,0.8916822034,0.9322832482,3.591171234
12.3300,-24.5831864,-1.172163184,24.41097648
12.3350,-48.38574737,0.5039584805,33.63885319
12.3400,-64.32401753,-2.107070793,26.99037147
12.3450,-42.22143212,3.093442379,29.47670915
12.3500,-21.1534775,6.317371296,31.16951659
12.3550,1.947085156,7.336530804,30.47941394
12.3600,9.122154706,19.98457609,13.48461755
12.3650,16.06500442,11.41915713,3.422553406
12.3700,15.55335986,10.95335344,9.201293841
12.3750,-4.233652084,27.43899887,17.15593846
12.3800,-16.8764123,26.28117165,24.05539935
12.3850,-2.152092549,27.65962814,25.84761263
12.3900,12.06040154,17.06989201,27.35648878
12.3950,20.96448174,26.52018435,28.15795949
12.4000,19.04106964,35.37792297,33.4421294
12.4050,9.153845738,19.67563594,30.45818141
12.4100,-15.46423156,8.319378747,31.05678105
12.4150,-23.86365534,3.800209299,34.54386094
12.4200,-26.49528735,6.933575964,39.44332155
12.4250,-13.97612428,8.804104784,39.37630273
12.4300,-8.713574288,2.818427526,36.13433396
12.4350,0.3065641173,6.211894563,41.09266129
12.4400,3.176443296,24.93513966,44.03058979
12.4450,-2.134965631,22.02340732,33.3945796
12.4500,1.585217224,12.6745544,29.61250332
12.4550,17.86039972,24.53129,27.77125257
12.4600,29.99223388,16.64320871,18.10964497
12.4650,40.27287447,31.75844092,6.316723098
12.4700,67.67834836,32.24668502,0.6703443898
12.4750,75.63282159,24.00042439,-6.850434941
12.4800,96.99393482,30.33767094,0.6159315107
12.4850,71.88503417,17.89461423,8.074233651
12.4900,54.37191108,16.29746438,31.56672398
12.4950,4.795418481,11.83878938,42.68578816
12.5000,-32.1006189,5.514119101,47.52118686
12.5050,-56.98414257,-5.17133298,48.5477032
12.5100,-48.45091421,-2.831536823,42.93174884
12.5150,-31.24090551,-11.50049584,41.32540838
12.5200,-21.03704861,-4.04824103,46.05241511
12.5250,-23.07692733,-4.195635037,39.75826429
12.5300,-15.20970073,17.25708301,26.72876065
12.5350,16.90175207,15.8903753,20.40381238
12.5400,29.92618099,15.07293955,20.92787712
12.5450,42.18331232,24.35129503,6.085281654
12.5500,54.30793945,16.71060084,2.986297635
12.5550,41.88276515,24.77356394,-5.691233588
12.5600,43.78931418,23.86009439,-11.45455246
12.5650,44.38450155,19.39748785,-7.337533226
12.5700,50.90902402,29.06319936,6.985193321
12.5750,40.7413924,24.80516796,13.8735765
12.5800,28.79470801,26.41990887,7.338382131
12.5850,9.826517451,9.603772565,8.718883835
12.5900,7.032020653,14.99673069,15.91127175
12.5950,4.438691223,10.79337733,14.63536568
12.6000,15.34642871,19.34180999,19.04613599
12.6050,20.32295414,1.16500838,12.61372876
12.6100,27.38334336,0.1283265774,3.01572051
12.6150,24.25198569,-0.5093379701,1.670514386
12.6200,27.3640348,-8.079611265,13.77295321
12.6250,24.34008419,-7.458727214,17.9412004
12.6300,25.03757338,3.558051939,20.27551086
12.6350,18.37049545,12.20641836,21.17735465
12.6400,6.174584791,12.16334176,18.79921494
12.6450,1.753123252,3.269328422,9.37493365
12.6500,-1.476135093,8.779816754,6.172743732
12.6550,-8.635544511,1.099224057,-3.637354413
12.6600,-21.38125293,3.499699096,-0.2241184231
12.6650,-31.17503721,-2.838712193,7.057892579
12.6700,-49.42071458,16.11421464,17.85276679
12.6750,-65.06853873,11.72607543,12.13471148
12.6800,-54.70904693,26.73777636,21.49949585
12.6850,-47.68621693,15.74013052,29.76849926
12.6900,-52.34082212,13.28213786,21.48665146
12.6950,-51.80801159,9.501906167,13.63759434
12.7000,-48.49257187,-6.45188735,20.48449326
12.7050,-72.69554788,8.342540965,19.02807535
12.7100,-79.45440222,5.140868497,16.58297634
12.7150,-70.77419671,15.00153175,0.6008578191
12.7200,-54.43579843,22.08839144,-5.801481497
12.7250,-32.47140627,-1.223159752,-1.294940712
12.7300,-18.94022885,-0.2123361687,-2.604158588
12.7350,-27.02977742,-13.881285,-10.5305569
12.7400,-29.35927947,3.363993499,-10.27978013
12.7450,-47.70619135,-8.716542368,-22.77822678
12.7500,-39.1999008,-9.042883663,-23.73760551
12.7550,-32.79622456,-9.135703053,-5.75163069
12.7600,-33.96437225,8.555831328,5.11903744
12.7650,-48.31158457,3.647039417,17.05745538
12.7700,-51.83260935,12.54533694,21.93583958
12.7750,-66.92004127,10.05341213,15.1922342
12.7800,-66.96946804,11.2034097,15.99389893
12.7850,-77.08142333,18.78734262,7.927219604
12.7900,-80.53520279,21.12035502,3.355492206
12.7950,-63.95569295,28.54953426,11.62238923
12.8000,-72.6848241,21.75688934,17.02651711
12.8050,-74.27928784,18.10190101,25.24365456
12.8100,-63.53970824,29.81984342,27.85055186
12.8150,-74.90505532,31.58784358,11.00347782
12.8200,-61.60453792,31.92776206,17.70938533
12.8250,-43.69010567,24.16872065,26.23823317
12.8300,-28.73247053,42.91425375,30.20007729
12.8350,-12.61044691,37.78973617,32.54055678
12.8400,-25.75368406,24.91880947,25.50358354
12.8450,-20.41276286,26.19313645,22.22302824
12.8500,-16.28275326,18.35928659,16.74217707
12.8550,-13.55560633,19.21915525,14.80809185
12.8600,-28.97332501,14.90912174,28.10939309
12.8650,-32.31706487,26.96206059,30.01427323
12.8700,-34.93155727,32.7272606,23.8231654
12.8750,-48.08133256,11.08319669,22.66114239
12.8800,-33.77438685,32.95417093,28.34148036
12.8850,-23.54024395,15.20273262,22.18800397
12.8900,-13.89481166,21.20693181,23.81131894
12.8950,-14.6859456,5.689772326,22.78612689
12.9000,-23.72649116,3.368941036,30.59368951
12.9050,-29.41823653,10.21292824,27.20364157
12.9100,-29.40929551,-7.953164075,22.0835828
12.9150,-45.69797247,-16.16391153,11.36074268
12.9200,-53.9686159,-26.21161452,20.63979534
12.9250,-60.33831645,-21.59254586,18.45592645
12.9300,-60.50765905,-9.675983501,6.592148752
12.9350,-58.75924687,-21.18662118,3.005141306
12.9400,-54.57050535,-36.44293724,-0.241283597
12.9450,-33.45106857,-37.33150327,-4.83689304
12.9500,-24.15407564,-34.66385164,-10.34771766
12.9550,-26.07156039,-47.17393839,-12.35945298
12.9600,-28.24384176,-36.73427183,1.849885846
12.9650,-28.03187244,-31.80958562,18.1750834
12.9700,-22.12719107,-9.73095197,25.31845581
12.9750,-27.96834112,-15.50420644,38.61724595
12.9800,-31.36563745,6.985028667,39.0560738
12.9850,-50.46206884,-0.7456217172,33.74424709
12.9900,-64.98103297,-2.477793891,38.77479818
12.9950,-70.23286805,15.73170284,31.6499927
13.0000,-80.03880848,13.61597426,22.19726919
13.0050,-76.33766301,13.23641137,16.82716201
13.0100,-49.79629576,3.219781147,14.26923474
13.0150,-44.44312104,1.493617455,7.653404679
13.0200,-38.75239929,6.808130143,14.4907327
13.0250,-55.81333049,3.005689173,17.04217657
13.0300,-52.44558567,6.586271318,22.53105927
13.0350,-58.44405928,3.183336517,8.35090609
13.0400,-79.01743745,-2.64367767,-1.296707986
13.0450,-71.36688167,3.162216686,8.416578369
13.0500,-77.96883476,13.13885969,22.10937764
13.0550,-73.58691089,25.46570397,34.21838141
13.0600,-63.87872402,34.40345791,33.8017433
13.0650,-64.68862563,22.04755212,29.83025708
13.0700,-69.34599892,13.39126512,28.46358731
13.0750,-72.83796273,15.65329086,29.56842349
13.0800,-86.46010576,14.93258345,31.08212296
13.0850,-82.50694292,28.98555431,25.99786904
13.0900,-80.85876078,28.70341079,14.18395047
13.0950,-91.0743757,16.98443166,20.31870105
13.1000,-91.90589744,24.31133877,33.96607019
13.1050,-100.8862515,27.86933652,37.13713452
13.1100,-97.52035421,35.33118109,34.25766786
13.1150,-89.73947214,19.99966628,29.92057411
13.1200,-83.60354866,9.193431061,23.82159873
13.1250,-72.97765052,18.01163236,23.99220194
13.1300,-56.52459215,17.38574424,29.67532617
13.1350,-49.14214002,16.84310477,31.77491706
13.1400,-59.61260374,24.06597987,34.93369399
13.1450,-64.73310925,20.95524555,35.56757737
13.1500,-74.56003979,19.61640496,38.29652991
13.1550,-73.07544126,29.66391248,39.56082251
13.1600,-65.11355721,25.23567608,41.6098892
13.1650,-49.21568332,23.71783989,45.78686765
13.1700,-58.26993713,27.22000463,45.70420579
13.1750,-44.57436546,23.18041373,56.03593476
13.1800,-49.99762703,36.7164258,62.99163564
13.1850,-48.98698727,39.72283821,57.37038231
13.1900,-38.07833736,32.94335054,49.20035059
13.1950,-41.61466902,37.83071196,44.78070354
13.2000,-67.26816486,28.13876817,44.41313323
13.2050,-64.80819554,30.97170524,44.01589427
13.2100,-75.42826593,35.4655082,47.45037426
13.2150,-58.65018241,41.3270701,48.31456347
13.2200,-44.1999761,31.73128514,44.1633618
13.2250,-40.35772963,41.08323704,46.27167818
13.2300,-34.1941161,21.32035879,50.35894582
13.2350,-35.95354213,30.08772774,47.04149197
13.2400,-43.98275658,35.51998828,51.09243387
13.2450,-46.45786129,33.02489538,51.05460254
13.2500,-45.07426193,40.52088761,51.16437124
13.2550,-32.11625383,40.08337538,54.41075716
13.2600,-36.48884977,40.79475887,56.11626263
13.2650,-36.90457655,38.73479194,51.66809889
13.2700,-23.3273792,35.47292006,44.72492273
13.2750,-34.10392326,19.08160938,38.16258979
13.2800,-26.40399281,34.51066222,34.44517618
13.2850,-37.28081961,20.97704199,36.75320195
13.2900,-41.93644962,28.76884356,42.28985246
13.2950,-34.83611718,30.60147523,36.69379565
13.3000,-31.08588476,27.10496611,36.25837751
13.3050,-16.10959245,16.23362443,32.30684299
13.3100,-19.87535281,18.19677712,31.56810782
13.3150,-20.71909976,8.164980865,27.07669731
13.3200,-14.54572072,-9.597566401,30.21746026
13.3250,-25.79415885,7.693631737,30.41402264
13.3300,-30.21399379,-17.63104956,29.04578549
13.3350,-26.60986595,-21.84966145,41.0170774
13.3400,-12.01861387,-11.58862915,54.99329441
13.3450,5.486005222,-8.084196167,55.45283507
13.3500,-7.892753474,1.521397567,48.80664372
13.3550,13.65579756,-8.97589618,44.60203851
13.3600,0.5023820897,-16.2517307,44.45620956
13.3650,9.1429251,-10.17136237,35.67232409
13.3700,6.436069018,-3.816721015,36.16723086
13.3750,-3.812150606,-6.432374169,38.73427006
13.3800,8.477162077,-1.364593278,47.33958141
13.3850,-8.801449072,3.637731945,44.41847981
13.3900,-15.30520139,2.781671837,41.31824135
13.3950,-11.04465053,2.128290439,31.45196985
13.4000,-13.45573119,-4.299803938,27.95636119
13.4050,-5.713354399,-20.75166741,18.76063985
13.4100,-12.34765624,-12.28043763,26.4134103
13.4150,-22.11155366,-20.15030803,32.18675129
13.4200,-16.30218892,-14.64722762,40.31451118
13.4250,-22.56320616,-17.80493972,43.31707526
13.4300,-25.72800729,-15.89329412,42.06691371
