type,name,time_units,begin_time,frequency,count,units
signal_3d,"Noraxon MyoMotion-Trajectories-Body center of mass","s",0.0000,200,5068,"mm"

time,x,y,z
0.0000,0.1572637576,18.0413789,1075.466704
0.0050,0.15852573,18.04214169,1075.466575
0.0100,0.1597875761,18.04290468,1075.466446
0.0150,0.161049296,18.04366788,1075.466318
0.0200,0.1626620227,18.04441952,1075.466123
0.0250,0.164666462,18.04514204,1075.465851
0.0300,0.1671019272,18.04581792,1075.465493
0.0350,0.170005067,18.04643079,1075.46504
0.0400,0.1734083893,18.04696624,1075.464484
0.0450,0.1773388657,18.04741243,1075.463821
0.0500,0.1818169591,18.04776058,1075.463044
0.0550,0.1868560207,18.04800535,1075.462153
0.0600,0.1924617285,18.04814463,1075.461148
0.0650,0.1986314604,18.04817917,1075.460029
0.0700,0.2053537891,18.04811249,1075.458801
0.0750,0.2126081711,18.04795094,1075.45747
0.0800,0.2203647196,18.04770365,1075.456044
0.0850,0.2285841196,18.04738247,1075.454534
0.0900,0.2372179452,18.04700192,1075.452951
0.0950,0.2462094004,18.0465789,1075.45131
0.1000,0.2554942345,18.04613213,1075.449625
0.1050,0.26500178,18.04568183,1075.447913
0.1100,0.2746560995,18.04524943,1075.446192
0.1150,0.2843770955,18.04485705,1075.444479
0.1200,0.2940816847,18.04452691,1075.442794
0.1250,0.3036851993,18.04428065,1075.441153
0.1300,0.3131029445,18.04413867,1075.439574
0.1350,0.32225183,18.04411943,1075.438074
0.1400,0.3310520934,18.04423872,1075.436669
0.1450,0.339429095,18.04450891,1075.435371
0.1500,0.3473150417,18.04493851,1075.434192
0.1550,0.3572251098,18.04552359,1075.432716
0.1600,0.3664118392,18.04621254,1075.431383
0.1650,0.3748031986,18.0470106,1075.430211
0.1700,0.3823824728,18.04787554,1075.429189
0.1750,0.3891248995,18.04882743,1075.428323
0.1800,0.3950238017,18.04981437,1075.427603
0.1850,0.4001013726,18.05082554,1075.427019
0.1900,0.404337965,18.05187647,1075.426577
0.1950,0.4077111092,18.05289446,1075.426268
0.2000,0.4102381443,18.05384243,1075.426079
0.2050,0.4119145486,18.05470823,1075.426008
0.2100,0.4127865705,18.0554913,1075.426049
0.2150,0.4128689393,18.05612355,1075.426185
0.2200,0.4121647244,18.05655483,1075.426406
0.2250,0.4107278731,18.05678835,1075.426706
0.2300,0.4085798587,18.05680592,1075.427078
0.2350,0.4057593949,18.05656913,1075.42751
0.2400,0.4022688659,18.05611111,1075.428007
0.2450,0.3981497826,18.05545897,1075.428569
0.2500,0.3934471729,18.05457296,1075.42918
0.2550,0.388134921,18.05345523,1075.42985
0.2600,0.3823637525,18.05217741,1075.430565
0.2650,0.3761460691,18.05072222,1075.431323
0.2700,0.3695227648,18.04911072,1075.432122
0.2750,0.3625314159,18.04738157,1075.432965
0.2800,0.3552443578,18.04552725,1075.433838
0.2850,0.3477147776,18.04360091,1075.434745
0.2900,0.3399639639,18.04162961,1075.435689
0.2950,0.332114376,18.03963442,1075.436651
0.3000,0.3242416602,18.03761069,1075.437619
0.3050,0.3163324455,18.03557152,1075.438597
0.3100,0.3084994015,18.0335807,1075.439577
0.3150,0.3007993885,18.03162691,1075.440546
0.3200,0.293311702,18.02969687,1075.44149
0.3250,0.2860766817,18.02781207,1075.442405
0.3300,0.2791019335,18.02593626,1075.443283
0.3350,0.2724308953,18.02412481,1075.444127
0.3400,0.2661266769,18.02231953,1075.444913
0.3450,0.2601830464,18.02057107,1075.445649
0.3500,0.254659901,18.01890667,1075.44633
0.3550,0.2494993491,18.01727341,1075.446955
0.3600,0.2447108616,18.01566656,1075.447523
0.3650,0.240277671,18.01412377,1075.44804
0.3700,0.2361986874,18.01263313,1075.448506
0.3750,0.2324387305,18.0111962,1075.448922
0.3800,0.2289822251,18.00980393,1075.449291
0.3850,0.2258143312,18.00848861,1075.449619
0.3900,0.222862182,18.00724524,1075.44992
0.3950,0.2201438995,18.00602559,1075.450177
0.4000,0.2175787045,18.00486788,1075.450414
0.4050,0.2151800166,18.003741,1075.450622
0.4100,0.2129311198,18.00262881,1075.4508
0.4150,0.2108012398,18.00152207,1075.450951
0.4200,0.2087915189,18.00044136,1075.451079
0.4250,0.206869006,17.99935628,1075.451186
0.4300,0.2050380527,17.99823135,1075.451265
0.4350,0.2032866087,17.9970924,1075.451322
0.4400,0.2016423692,17.99586658,1075.45134
0.4450,0.2000753583,17.99454136,1075.451324
0.4500,0.1985862121,17.99313845,1075.451276
0.4550,0.1971837183,17.99163456,1075.451191
0.4600,0.1958895088,17.98995615,1075.451055
0.4650,0.1946554804,17.98810002,1075.450875
0.4700,0.1934953747,17.9861107,1075.450658
0.4750,0.1923849365,17.98392304,1075.450399
0.4800,0.1913351246,17.98157633,1075.4501
0.4850,0.1903042557,17.97907289,1075.44977
0.4900,0.189324015,17.97640949,1075.449404
0.4950,0.1883730787,17.97364043,1075.449014
0.5000,0.1874356218,17.97075276,1075.448602
0.5050,0.1865123152,17.96778645,1075.448175
0.5100,0.185611592,17.96471051,1075.447724
0.5150,0.1846954433,17.96152495,1075.44726
0.5200,0.1838283969,17.9582572,1075.446772
0.5250,0.1829969216,17.95490658,1075.446262
0.5300,0.1822602495,17.95148742,1075.445723
0.5350,0.1815895587,17.94801665,1075.445164
0.5400,0.1810084684,17.94451039,1075.444584
0.5450,0.1805076233,17.94094678,1075.44398
0.5500,0.180137164,17.9373224,1075.443345
0.5550,0.1799154667,17.93371336,1075.442686
0.5600,0.1797969,17.93005853,1075.442003
0.5650,0.1797751232,17.92638429,1075.441301
0.5700,0.1798383441,17.92270791,1075.440585
0.5750,0.1800545135,17.91903942,1075.439846
0.5800,0.1804000478,17.91541179,1075.439091
0.5850,0.1808774059,17.91178416,1075.438315
0.5900,0.1815313744,17.9081817,1075.437512
0.5950,0.182334177,17.90460755,1075.436686
0.6000,0.1832617613,17.90110544,1075.435852
0.6050,0.1843812564,17.89767053,1075.434995
0.6100,0.1856769053,17.89428977,1075.434114
0.6150,0.1871576966,17.89097483,1075.433212
0.6200,0.1888216067,17.88771797,1075.432285
0.6250,0.1906876671,17.88453862,1075.431333
0.6300,0.1927592906,17.88141025,1075.430352
0.6350,0.1950358081,17.87834921,1075.429339
0.6400,0.1975125563,17.87535575,1075.4283
0.6450,0.200218148,17.87241431,1075.427226
0.6500,0.203079311,17.86946435,1075.426119
0.6550,0.2061276324,17.86657352,1075.424983
0.6600,0.2093622984,17.86369473,1075.423813
0.6650,0.2127480411,17.86082691,1075.422614
0.6700,0.2162561497,17.85794444,1075.421392
0.6750,0.2198583643,17.85504084,1075.420149
0.6800,0.22352534,17.85209909,1075.418889
0.6850,0.2272614621,17.84908053,1075.417606
0.6900,0.2310301066,17.84597826,1075.416305
0.6950,0.2347876166,17.84276436,1075.414995
0.7000,0.2384953057,17.83942972,1075.413678
0.7050,0.242113746,17.83600783,1075.412369
0.7100,0.2456222549,17.83244688,1075.411066
0.7150,0.2490018681,17.82876872,1075.409773
0.7200,0.2522114172,17.82492238,1075.408492
0.7250,0.2552678617,17.82092619,1075.407222
0.7300,0.2581149367,17.81681126,1075.405977
0.7350,0.2607701577,17.81254523,1075.404751
0.7400,0.2631546857,17.80814493,1075.40356
0.7450,0.2653327722,17.80362305,1075.402394
0.7500,0.2672520087,17.79895511,1075.401257
0.7550,0.2689007496,17.79416189,1075.400156
0.7600,0.2702736763,17.78929564,1075.3991
0.7650,0.2714192512,17.78436005,1075.398077
0.7700,0.2723215482,17.77935055,1075.39709
0.7750,0.2729841121,17.77431812,1075.396145
0.7800,0.273409005,17.76926152,1075.395241
0.7850,0.2736204559,17.76418495,1075.394375
0.7900,0.2736104047,17.75908618,1075.393546
0.7950,0.2734001862,17.75395639,1075.392747
0.8000,0.2730217971,17.74880607,1075.391975
0.8050,0.2724981474,17.74367342,1075.391232
0.8100,0.2718361173,17.73857834,1075.390519
0.8150,0.2710918387,17.73354319,1075.389829
0.8200,0.2702137657,17.72856247,1075.389171
0.8250,0.2692051985,17.72367068,1075.388549
0.8300,0.2680246078,17.71886108,1075.387969
0.8350,0.2667033848,17.71414215,1075.387428
0.8400,0.2652576432,17.70948846,1075.386918
0.8450,0.2636826208,17.70496651,1075.386454
0.8500,0.2619737163,17.7005459,1075.386029
0.8550,0.260105091,17.69625178,1075.385653
0.8600,0.2580740555,17.69208349,1075.385326
0.8650,0.2559030378,17.68807367,1075.385053
0.8700,0.2536091563,17.6842292,1075.384827
0.8750,0.2511353846,17.68053747,1075.384658
0.8800,0.2484804366,17.67704988,1075.384553
0.8850,0.2456866018,17.67377643,1075.384507
0.8900,0.2427161137,17.67071794,1075.384527
0.8950,0.2395681056,17.66786823,1075.384614
0.9000,0.2362713483,17.66519673,1075.384757
0.9050,0.2328558245,17.66270439,1075.384952
0.9100,0.2292953212,17.66037718,1075.385202
0.9150,0.2256206844,17.65822874,1075.385502
0.9200,0.2218577,17.65627662,1075.385849
0.9250,0.2180515211,17.65451202,1075.386235
0.9300,0.2142190873,17.65295816,1075.386657
0.9350,0.2103983094,17.65157071,1075.387107
0.9400,0.2065968309,17.65038496,1075.387585
0.9450,0.2028881915,17.64939154,1075.388078
0.9500,0.1992912382,17.6485925,1075.388581
0.9550,0.195773749,17.64794762,1075.389098
0.9600,0.1923805077,17.64749367,1075.389621
0.9650,0.1891210514,17.64720535,1075.390147
0.9700,0.1859851472,17.64708711,1075.390678
0.9750,0.1829217959,17.64712059,1075.391222
0.9800,0.1799518282,17.64731159,1075.391775
0.9850,0.1769773539,17.64769707,1075.392362
0.9900,0.1740080438,17.64825646,1075.392977
0.9950,0.1710153652,17.64901668,1075.393629
1.0000,0.1679617047,17.64995085,1075.394324
1.0050,0.1648192995,17.65107245,1075.395068
1.0100,0.1616139199,17.65237035,1075.395854
1.0150,0.1582599615,17.65382685,1075.396699
1.0200,0.1547975037,17.65548337,1075.397603
1.0250,0.1511918858,17.65730066,1075.39857
1.0300,0.1474668922,17.65917478,1075.399579
1.0350,0.1435834559,17.66113279,1075.400645
1.0400,0.1396050075,17.66315385,1075.401758
1.0450,0.1354797319,17.66516656,1075.402919
1.0500,0.13124668,17.66715329,1075.404119
1.0550,0.1269037712,17.66906088,1075.405357
1.0600,0.1224983731,17.67090338,1075.406626
1.0650,0.1179857898,17.67260458,1075.407928
1.0700,0.1134318448,17.67417374,1075.409252
1.0750,0.1088536286,17.67557424,1075.410593
1.0800,0.1042402915,17.67678487,1075.411954
1.0850,0.09961624995,17.67778575,1075.413328
1.0900,0.09498205137,17.6785681,1075.414717
1.0950,0.09032654403,17.6791238,1075.416124
1.1000,0.0856197471,17.67947499,1075.417561
1.1050,0.08086921117,17.67956094,1075.419019
1.1100,0.07604199682,17.67939948,1075.420508
1.1150,0.07113116156,17.67902162,1075.42204
1.1200,0.06616833523,17.67841319,1075.423605
1.1250,0.06108324228,17.67755821,1075.425221
1.1300,0.05590263404,17.67645269,1075.426881
1.1350,0.05059761436,17.6750973,1075.428592
1.1400,0.04514986803,17.67349892,1075.43036
1.1450,0.03956452486,17.67163396,1075.432182
1.1500,0.0338437446,17.66954592,1075.434068
1.1550,0.02799130288,17.66716792,1075.436008
1.1600,0.02202471396,17.66451662,1075.438001
1.1650,0.01593395093,17.66162431,1075.440057
1.1700,0.00974178841,17.65848417,1075.442175
1.1750,0.003450735511,17.65510125,1075.444355
1.1800,-0.002942444109,17.65142383,1075.446592
1.1850,-0.009437663576,17.64748507,1075.448893
1.1900,-0.01604283739,17.6432769,1075.451261
1.1950,-0.02272070031,17.63884548,1075.453698
1.2000,-0.02947862721,17.6341651,1075.456202
1.2050,-0.03630174702,17.62930257,1075.458781
1.2100,-0.04316486937,17.6242751,1075.461433
1.2150,-0.05009396358,17.61910123,1075.46417
1.2200,-0.05708792154,17.61379567,1075.466994
1.2250,-0.0642300951,17.60834709,1075.469918
1.2300,-0.07143962239,17.60284704,1075.472945
1.2350,-0.07877292774,17.59727982,1075.476083
1.2400,-0.08622369029,17.59164543,1075.479336
1.2450,-0.0938955324,17.58596681,1075.482724
1.2500,-0.101751475,17.58029165,1075.486252
1.2550,-0.1098142583,17.57461416,1075.489925
1.2600,-0.1181180083,17.56892735,1075.493752
1.2650,-0.1266535175,17.563293,1075.497741
1.2700,-0.1354749456,17.55770677,1075.501901
1.2750,-0.1445274167,17.5522262,1075.506238
1.2800,-0.1538026853,17.54685742,1075.51075
1.2850,-0.1633057365,17.54159374,1075.515442
1.2900,-0.1730271209,17.53644658,1075.520322
1.2950,-0.1829967926,17.53140887,1075.525395
1.3000,-0.1931956502,17.52649686,1075.530666
1.3050,-0.2036501889,17.52168763,1075.536141
1.3100,-0.2143891793,17.51698768,1075.541831
1.3150,-0.2253819365,17.51236819,1075.54773
1.3200,-0.2366697927,17.50783275,1075.553846
1.3250,-0.2482495974,17.50338979,1075.560182
1.3300,-0.2601325379,17.49910527,1075.566754
1.3350,-0.2723034649,17.49491383,1075.573554
1.3400,-0.2847772947,17.49083492,1075.580589
1.3450,-0.297536714,17.48689677,1075.587865
1.3500,-0.3105758496,17.48307124,1075.595381
1.3550,-0.3238525188,17.47945091,1075.603139
1.3600,-0.337379001,17.47595644,1075.611136
1.3650,-0.351114969,17.47266799,1075.619374
1.3700,-0.3650733869,17.46955524,1075.627858
1.3750,-0.3792082724,17.46666857,1075.636591
1.3800,-0.3935499084,17.46402485,1075.645578
1.3850,-0.40805209,17.46162774,1075.654813
1.3900,-0.4227196602,17.459482,1075.664304
1.3950,-0.4375416844,17.45760463,1075.67405
1.4000,-0.4525154576,17.45599027,1075.684051
1.4050,-0.4676320805,17.45464189,1075.694303
1.4100,-0.482899225,17.4535983,1075.704813
1.4150,-0.4983386772,17.45278753,1075.715572
1.4200,-0.5140013255,17.45224791,1075.726594
1.4250,-0.5298208026,17.45200963,1075.737863
1.4300,-0.545817394,17.45203245,1075.74938
1.4350,-0.561996964,17.45235822,1075.761146
1.4400,-0.5783955874,17.45294972,1075.773166
1.4450,-0.5949888776,17.45382686,1075.785439
1.4500,-0.6118033469,17.45498724,1075.797955
1.4550,-0.6288751857,17.45645252,1075.810729
1.4600,-0.6461773837,17.45821891,1075.823759
1.4650,-0.6637179253,17.46024221,1075.837035
1.4700,-0.6815043971,17.46250907,1075.850556
1.4750,-0.6995437033,17.46500092,1075.864322
1.4800,-0.7178557374,17.46773208,1075.878345
1.4850,-0.7364308246,17.47067897,1075.892622
1.4900,-0.7552544454,17.4738752,1075.907152
1.4950,-0.7743319107,17.47725541,1075.921919
1.5000,-0.7936369863,17.48086681,1075.936936
1.5050,-0.8131860163,17.48470314,1075.952208
1.5100,-0.8329785062,17.48876814,1075.967729
1.5150,-0.8529937416,17.4930917,1075.983509
1.5200,-0.8732391513,17.49765728,1075.999547
1.5250,-0.8936529227,17.50252091,1076.015847
1.5300,-0.9142727997,17.50757816,1076.032409
1.5350,-0.9351269528,17.51290126,1076.04925
1.5400,-0.9562131355,17.51849567,1076.066368
1.5450,-0.9774928863,17.52438478,1076.083768
1.5500,-0.9989465478,17.53054646,1076.101448
1.5550,-1.020567928,17.53703676,1076.119408
1.5600,-1.042335641,17.54383966,1076.137654
1.5650,-1.064254617,17.55094229,1076.15618
1.5700,-1.08629609,17.55832535,1076.174984
1.5750,-1.10843928,17.56596602,1076.194061
1.5800,-1.130734876,17.57385567,1076.21342
1.5850,-1.153144547,17.58197766,1076.233058
1.5900,-1.175690479,17.59035859,1076.252974
1.5950,-1.198314748,17.59896152,1076.27316
1.6000,-1.220959541,17.60783294,1076.293604
1.6050,-1.243597093,17.61694983,1076.31431
1.6100,-1.266244895,17.62634393,1076.335286
1.6150,-1.288813118,17.63605705,1076.356528
1.6200,-1.311315253,17.64601214,1076.378028
1.6250,-1.333733486,17.65627801,1076.399788
1.6300,-1.356043535,17.666845,1076.421814
1.6350,-1.378250728,17.67772056,1076.444092
1.6400,-1.400340895,17.68893069,1076.46663
1.6450,-1.422289419,17.7004823,1076.489416
1.6500,-1.444097446,17.71240671,1076.51245
1.6550,-1.465816648,17.72466997,1076.535748
1.6600,-1.487400643,17.7373012,1076.559297
1.6650,-1.508856924,17.75027261,1076.583094
1.6700,-1.530218995,17.76360605,1076.607152
1.6750,-1.551478294,17.77724607,1076.631463
1.6800,-1.572594797,17.79123104,1076.656019
1.6850,-1.593593929,17.80554602,1076.680832
1.6900,-1.61445863,17.82014577,1076.705887
1.6950,-1.635184772,17.83499128,1076.731186
1.7000,-1.655782675,17.8500518,1076.756717
1.7050,-1.676265921,17.86530742,1076.782485
1.7100,-1.696622797,17.88068436,1076.808465
1.7150,-1.716876137,17.89619707,1076.834666
1.7200,-1.736965765,17.91175324,1076.861062
1.7250,-1.756910389,17.92733205,1076.887648
1.7300,-1.776708202,17.94290566,1076.914423
1.7350,-1.796362146,17.9583739,1076.941369
1.7400,-1.815839605,17.97378785,1076.968483
1.7450,-1.835128502,17.98909534,1076.995751
1.7500,-1.854213941,18.00426192,1077.023177
1.7550,-1.873018233,18.01925003,1077.05074
1.7600,-1.891591528,18.03404477,1077.078444
1.7650,-1.909905964,18.04863224,1077.106285
1.7700,-1.927994536,18.06300712,1077.134257
1.7750,-1.945804188,18.07714868,1077.162365
1.7800,-1.963283832,18.09106477,1077.190593
1.7850,-1.980399049,18.10474637,1077.218942
1.7900,-1.997166072,18.11812164,1077.247408
1.7950,-2.013556589,18.13122173,1077.276007
1.8000,-2.029574996,18.14404778,1077.304725
1.8050,-2.045208733,18.15653528,1077.333563
1.8100,-2.060435086,18.16870947,1077.362532
1.8150,-2.075260079,18.18050587,1077.391612
1.8200,-2.089696009,18.19190892,1077.420802
1.8250,-2.1037911,18.2029066,1077.450103
1.8300,-2.117601001,18.21349731,1077.47952
1.8350,-2.131093016,18.22371167,1077.50906
1.8400,-2.144318313,18.23353208,1077.538724
1.8450,-2.15729971,18.24293674,1077.568509
1.8500,-2.17012424,18.25195572,1077.598429
1.8550,-2.182824202,18.26055673,1077.628484
1.8600,-2.195465065,18.26876397,1077.658669
1.8650,-2.208135656,18.27658796,1077.689005
1.8700,-2.220864335,18.28406546,1077.719496
1.8750,-2.233745004,18.29119263,1077.750153
1.8800,-2.246753887,18.29801466,1077.780975
1.8850,-2.259932829,18.30458157,1077.81196
1.8900,-2.27328748,18.31087691,1077.843109
1.8950,-2.286877235,18.31697725,1077.874451
1.9000,-2.300768429,18.32281774,1077.905972
1.9050,-2.314998605,18.32850152,1077.937678
1.9100,-2.329515121,18.33403601,1077.969567
1.9150,-2.344362287,18.3394149,1078.001627
1.9200,-2.359496317,18.34472803,1078.033863
1.9250,-2.374857026,18.34991764,1078.066253
1.9300,-2.390477291,18.3550037,1078.0988
1.9350,-2.406319432,18.36001965,1078.131512
1.9400,-2.422377228,18.36498853,1078.164382
1.9450,-2.438635979,18.36989619,1078.197398
1.9500,-2.455032254,18.37476203,1078.230549
1.9550,-2.471478061,18.37964147,1078.263817
1.9600,-2.488019697,18.38455038,1078.297225
1.9650,-2.504610084,18.38952038,1078.330768
1.9700,-2.521259739,18.39457278,1078.364444
1.9750,-2.538004774,18.39978767,1078.39827
1.9800,-2.554818781,18.40509669,1078.432221
1.9850,-2.571761274,18.41048625,1078.466291
1.9900,-2.588832756,18.41604292,1078.500494
1.9950,-2.606050189,18.42173204,1078.534818
2.0000,-2.623367981,18.42762779,1078.569268
2.0050,-2.640820506,18.43373463,1078.603846
2.0100,-2.658367058,18.44004286,1078.638554
2.0150,-2.675977869,18.44653087,1078.673369
2.0200,-2.693656366,18.45325882,1078.708305
2.0250,-2.711375646,18.46021722,1078.743369
2.0300,-2.729090843,18.46740024,1078.778527
2.0350,-2.746775594,18.47485548,1078.813804
2.0400,-2.764436854,18.48250526,1078.849179
2.0450,-2.782063159,18.4903161,1078.884651
2.0500,-2.799709119,18.49830435,1078.920214
2.0550,-2.817360882,18.50641007,1078.955855
2.0600,-2.834979765,18.51461671,1078.991559
2.0650,-2.852593003,18.52292109,1079.02733
2.0700,-2.870139792,18.53127411,1079.063156
2.0750,-2.887617611,18.53969752,1079.099032
2.0800,-2.90505791,18.54819256,1079.134963
2.0850,-2.922469946,18.55672478,1079.170947
2.0900,-2.939820615,18.56533473,1079.206993
2.0950,-2.957096064,18.5740345,1079.243104
2.1000,-2.974292634,18.58276204,1079.27927
2.1050,-2.991383983,18.59154212,1079.315493
2.1100,-3.00843337,18.60030725,1079.351759
2.1150,-3.025437869,18.60906996,1079.388076
2.1200,-3.042388867,18.61781239,1079.424449
2.1250,-3.059336148,18.62646518,1079.46087
2.1300,-3.076289339,18.63507377,1079.497336
2.1350,-3.093329529,18.64355786,1079.533831
2.1400,-3.110456764,18.65197223,1079.570364
2.1450,-3.127720295,18.66032268,1079.606938
2.1500,-3.145091754,18.66859268,1079.643554
2.1550,-3.162579089,18.6768276,1079.680202
2.1600,-3.180208571,18.68508643,1079.716905
2.1650,-3.197941233,18.69341543,1079.753655
2.1700,-3.215750245,18.7018289,1079.790436
2.1750,-3.23364593,18.71037492,1079.827255
2.1800,-3.251642134,18.71907044,1079.864117
2.1850,-3.269737116,18.72791972,1079.901024
2.1900,-3.287990391,18.73698671,1079.938006
2.1950,-3.306366227,18.74628911,1079.975038
2.2000,-3.324810788,18.75591452,1080.012146
2.2050,-3.343313379,18.76580036,1080.049336
2.2100,-3.361906066,18.77595219,1080.086595
2.2150,-3.380553611,18.78641837,1080.123941
2.2200,-3.399248148,18.79710374,1080.161368
2.2250,-3.418008068,18.80800706,1080.198893
2.2300,-3.436771557,18.81913693,1080.236498
2.2350,-3.455542697,18.83044169,1080.27418
2.2400,-3.474267253,18.84181537,1080.311911
2.2450,-3.492994658,18.85325698,1080.349707
2.2500,-3.511716989,18.86474428,1080.387567
2.2550,-3.530482132,18.87618917,1080.425482
