type,name,time_units,begin_time,frequency,count,units
signal,"Noraxon Ultium-RT BICEPS BR.","s",0.00000,2000,50680,"uV"

time,value
0.00000,-0.8585403903
0.00050,-0.5533459826
0.00100,-0.5533459826
0.00150,-0.2481515749
0.00200,0.05704283282
0.00250,-0.5533459826
0.00300,-1.163734798
0.00350,0.05704283282
0.00400,2.498598094
0.00450,2.803792502
0.00500,0.05704283282
0.00550,-1.468929206
0.00600,-0.8585403903
0.00650,0.9726260559
0.00700,1.277820464
0.00750,0.05704283282
0.00800,0.05704283282
0.00850,0.3622372405
0.00900,0.6674316482
0.00950,0.05704283282
0.01000,0.3622372405
0.01050,0.6674316482
0.01100,0.6674316482
0.01150,0.05704283282
0.01200,-0.2481515749
0.01250,0.05704283282
0.01300,-0.5533459826
0.01350,-1.163734798
0.01400,-0.5533459826
0.01450,0.9726260559
0.01500,1.277820464
0.01550,0.05704283282
0.01600,-0.8585403903
0.01650,0.05704283282
0.01700,0.9726260559
0.01750,0.3622372405
0.01800,-1.163734798
0.01850,-1.774123613
0.01900,-0.8585403903
0.01950,-0.2481515749
0.02000,0.05704283282
0.02050,0.9726260559
0.02100,2.193403687
0.02150,2.498598094
0.02200,1.888209279
0.02250,1.888209279
0.02300,2.193403687
0.02350,1.583014871
0.02400,0.3622372405
0.02450,0.05704283282
0.02500,0.05704283282
0.02550,0.05704283282
0.02600,-0.8585403903
0.02650,-2.384512429
0.02700,-2.994901244
0.02750,-2.994901244
0.02800,-3.300095652
0.02850,-2.689706836
0.02900,-1.468929206
0.02950,-0.5533459826
0.03000,-1.774123613
0.03050,-3.910484467
0.03100,-4.82606769
0.03150,-2.994901244
0.03200,-0.5533459826
0.03250,0.3622372405
0.03300,0.3622372405
0.03350,0.05704283282
0.03400,1.277820464
0.03450,3.719375725
0.03500,5.245347764
0.03550,4.940153356
0.03600,3.719375725
0.03650,2.803792502
0.03700,2.803792502
0.03750,2.498598094
0.03800,1.888209279
0.03850,1.583014871
0.03900,1.888209279
0.03950,2.193403687
0.04000,1.888209279
0.04050,1.277820464
0.04100,1.277820464
0.04150,1.583014871
0.04200,2.193403687
0.04250,2.498598094
0.04300,2.498598094
0.04350,1.583014871
0.04400,0.05704283282
0.04450,0.05704283282
0.04500,0.9726260559
0.04550,2.803792502
0.04600,2.498598094
0.04650,0.6674316482
0.04700,-0.8585403903
0.04750,-1.468929206
0.04800,-1.163734798
0.04850,-0.2481515749
0.04900,0.05704283282
0.04950,0.05704283282
0.05000,-1.163734798
0.05050,-2.994901244
0.05100,-3.910484467
0.05150,-3.910484467
0.05200,-3.60529006
0.05250,-2.689706836
0.05300,-0.5533459826
0.05350,1.888209279
0.05400,4.024570133
0.05450,3.719375725
0.05500,2.803792502
0.05550,1.583014871
0.05600,0.3622372405
0.05650,-1.163734798
0.05700,-2.689706836
0.05750,-1.468929206
0.05800,0.9726260559
0.05850,3.414181318
0.05900,4.024570133
0.05950,4.024570133
0.06000,4.329764541
0.06050,4.634958948
0.06100,4.940153356
0.06150,4.940153356
0.06200,4.329764541
0.06250,2.498598094
0.06300,0.6674316482
0.06350,0.05704283282
0.06400,0.9726260559
0.06450,1.583014871
0.06500,1.277820464
0.06550,1.583014871
0.06600,2.498598094
0.06650,2.498598094
0.06700,0.9726260559
0.06750,0.05704283282
0.06800,0.05704283282
0.06850,0.3622372405
0.06900,0.05704283282
0.06950,0.3622372405
0.07000,2.193403687
0.07050,3.719375725
0.07100,3.414181318
0.07150,1.888209279
0.07200,0.9726260559
0.07250,0.3622372405
0.07300,0.05704283282
0.07350,-0.2481515749
0.07400,0.6674316482
0.07450,2.193403687
0.07500,2.498598094
0.07550,1.277820464
0.07600,0.3622372405
0.07650,0.6674316482
0.07700,0.6674316482
0.07750,0.3622372405
0.07800,0.05704283282
0.07850,-0.2481515749
0.07900,-0.8585403903
0.07950,-1.163734798
0.08000,-0.5533459826
0.08050,-0.2481515749
0.08100,-0.5533459826
0.08150,-0.8585403903
0.08200,-0.5533459826
0.08250,-0.2481515749
0.08300,-0.2481515749
0.08350,-0.2481515749
0.08400,0.3622372405
0.08450,0.9726260559
0.08500,0.6674316482
0.08550,0.05704283282
0.08600,-0.5533459826
0.08650,-0.8585403903
0.08700,-0.8585403903
0.08750,-0.5533459826
0.08800,0.05704283282
0.08850,0.3622372405
0.08900,-0.2481515749
0.08950,-1.468929206
0.09000,-1.163734798
0.09050,0.05704283282
0.09100,0.6674316482
0.09150,0.9726260559
0.09200,0.9726260559
0.09250,1.277820464
0.09300,0.3622372405
0.09350,0.05704283282
0.09400,0.05704283282
0.09450,0.9726260559
0.09500,1.277820464
0.09550,0.05704283282
0.09600,-0.5533459826
0.09650,-0.8585403903
0.09700,-1.468929206
0.09750,-2.384512429
0.09800,-2.384512429
0.09850,-1.774123613
0.09900,-0.8585403903
0.09950,-0.2481515749
0.10000,-0.2481515749
0.10050,-0.2481515749
0.10100,-0.2481515749
0.10150,0.05704283282
0.10200,0.3622372405
0.10250,0.05704283282
0.10300,-0.8585403903
0.10350,-0.8585403903
0.10400,0.9726260559
0.10450,3.414181318
0.10500,2.498598094
0.10550,0.05704283282
0.10600,-0.5533459826
0.10650,0.05704283282
0.10700,0.6674316482
0.10750,0.05704283282
0.10800,-0.2481515749
0.10850,0.9726260559
0.10900,2.498598094
0.10950,1.583014871
0.11000,0.05704283282
0.11050,-0.2481515749
0.11100,0.05704283282
0.11150,0.05704283282
0.11200,0.05704283282
0.11250,1.277820464
0.11300,2.498598094
0.11350,2.498598094
0.11400,1.277820464
0.11450,0.3622372405
0.11500,0.3622372405
0.11550,0.05704283282
0.11600,-0.5533459826
0.11650,-0.5533459826
0.11700,-0.2481515749
0.11750,0.05704283282
0.11800,-0.2481515749
0.11850,-0.8585403903
0.11900,-1.163734798
0.11950,-1.163734798
0.12000,-0.8585403903
0.12050,-0.5533459826
0.12100,-0.8585403903
0.12150,-2.079318021
0.12200,-2.994901244
0.12250,-3.300095652
0.12300,-2.994901244
0.12350,-1.468929206
0.12400,0.9726260559
0.12450,3.719375725
0.12500,4.940153356
0.12550,3.414181318
0.12600,1.583014871
0.12650,1.888209279
0.12700,3.719375725
0.12750,4.940153356
0.12800,4.634958948
0.12850,3.414181318
0.12900,2.498598094
0.12950,1.888209279
0.13000,0.9726260559
0.13050,0.6674316482
0.13100,0.3622372405
0.13150,0.3622372405
0.13200,0.9726260559
0.13250,1.277820464
0.13300,1.277820464
0.13350,0.3622372405
0.13400,0.05704283282
0.13450,0.6674316482
0.13500,0.9726260559
0.13550,0.05704283282
0.13600,-0.8585403903
0.13650,-0.8585403903
0.13700,-0.2481515749
0.13750,0.05704283282
0.13800,-0.2481515749
0.13850,-0.5533459826
0.13900,-0.5533459826
0.13950,-0.8585403903
0.14000,-1.468929206
0.14050,-1.163734798
0.14100,0.05704283282
0.14150,0.6674316482
0.14200,0.05704283282
0.14250,-0.8585403903
0.14300,-0.8585403903
0.14350,-0.5533459826
0.14400,-0.5533459826
0.14450,-1.468929206
0.14500,-2.079318021
0.14550,-2.689706836
0.14600,-3.300095652
0.14650,-3.300095652
0.14700,-2.079318021
0.14750,0.05704283282
0.14800,1.888209279
0.14850,2.498598094
0.14900,1.888209279
0.14950,1.277820464
0.15000,1.277820464
0.15050,1.277820464
0.15100,0.6674316482
0.15150,0.05704283282
0.15200,0.05704283282
0.15250,0.3622372405
0.15300,1.583014871
0.15350,1.583014871
0.15400,0.9726260559
0.15450,0.05704283282
0.15500,-0.8585403903
0.15550,-0.8585403903
0.15600,-0.5533459826
0.15650,-0.2481515749
0.15700,0.05704283282
0.15750,0.6674316482
0.15800,0.6674316482
0.15850,-0.2481515749
0.15900,-1.774123613
0.15950,-2.384512429
0.16000,-1.774123613
0.16050,-0.5533459826
0.16100,-0.2481515749
0.16150,-0.5533459826
0.16200,-1.163734798
0.16250,-2.079318021
0.16300,-2.384512429
0.16350,-2.689706836
0.16400,-3.300095652
0.16450,-3.300095652
0.16500,-2.994901244
0.16550,-2.079318021
0.16600,-1.774123613
0.16650,-2.079318021
0.16700,-1.468929206
0.16750,0.05704283282
0.16800,0.6674316482
0.16850,0.6674316482
0.16900,0.3622372405
0.16950,0.6674316482
0.17000,0.9726260559
0.17050,0.6674316482
0.17100,-0.8585403903
0.17150,-2.384512429
0.17200,-2.689706836
0.17250,-2.994901244
0.17300,-2.994901244
0.17350,-2.079318021
0.17400,-0.5533459826
0.17450,-0.2481515749
0.17500,-0.8585403903
0.17550,-1.163734798
0.17600,-0.5533459826
0.17650,0.05704283282
0.17700,-0.5533459826
0.17750,-1.468929206
0.17800,-1.163734798
0.17850,-0.5533459826
0.17900,-1.163734798
0.17950,-2.079318021
0.18000,-2.079318021
0.18050,-1.163734798
0.18100,-0.2481515749
0.18150,0.3622372405
0.18200,1.583014871
0.18250,3.10898691
0.18300,3.719375725
0.18350,3.10898691
0.18400,2.803792502
0.18450,2.498598094
0.18500,1.888209279
0.18550,0.05704283282
0.18600,-0.5533459826
0.18650,0.05704283282
0.18700,1.583014871
0.18750,1.888209279
0.18800,0.6674316482
0.18850,-0.5533459826
0.18900,-1.774123613
0.18950,-1.468929206
0.19000,-0.8585403903
0.19050,-0.2481515749
0.19100,0.05704283282
0.19150,-0.2481515749
0.19200,0.05704283282
0.19250,0.3622372405
0.19300,0.05704283282
0.19350,-0.5533459826
0.19400,-2.384512429
0.19450,-3.60529006
0.19500,-3.60529006
0.19550,-2.689706836
0.19600,-1.468929206
0.19650,-0.8585403903
0.19700,-1.163734798
0.19750,-1.468929206
0.19800,-1.468929206
0.19850,-1.163734798
0.19900,-0.5533459826
0.19950,0.05704283282
0.20000,0.3622372405
0.20050,0.05704283282
0.20100,-1.163734798
0.20150,-1.163734798
0.20200,0.3622372405
0.20250,2.498598094
0.20300,2.498598094
0.20350,0.6674316482
0.20400,0.05704283282
0.20450,0.3622372405
0.20500,0.05704283282
0.20550,-0.5533459826
0.20600,-1.163734798
0.20650,-0.5533459826
0.20700,0.05704283282
0.20750,-0.5533459826
0.20800,-1.163734798
0.20850,-0.5533459826
0.20900,-0.5533459826
0.20950,-1.468929206
0.21000,-2.079318021
0.21050,-0.5533459826
0.21100,1.277820464
0.21150,2.193403687
0.21200,1.277820464
0.21250,1.277820464
0.21300,2.193403687
0.21350,2.498598094
0.21400,0.9726260559
0.21450,-0.2481515749
0.21500,-0.5533459826
0.21550,0.05704283282
0.21600,-0.2481515749
0.21650,-0.8585403903
0.21700,-0.5533459826
0.21750,0.05704283282
0.21800,0.05704283282
0.21850,-0.8585403903
0.21900,-1.774123613
0.21950,-1.468929206
0.22000,-0.5533459826
0.22050,0.05704283282
0.22100,0.05704283282
0.22150,0.3622372405
0.22200,0.6674316482
0.22250,0.3622372405
0.22300,-0.2481515749
0.22350,-0.2481515749
0.22400,0.6674316482
0.22450,1.277820464
0.22500,0.6674316482
0.22550,0.05704283282
0.22600,0.6674316482
0.22650,1.888209279
0.22700,1.888209279
0.22750,0.6674316482
0.22800,0.05704283282
0.22850,0.05704283282
0.22900,0.3622372405
0.22950,0.05704283282
0.23000,-0.8585403903
0.23050,-1.774123613
0.23100,-2.384512429
0.23150,-2.079318021
0.23200,-1.163734798
0.23250,-0.2481515749
0.23300,0.05704283282
0.23350,0.05704283282
0.23400,0.05704283282
0.23450,-0.2481515749
0.23500,-1.774123613
0.23550,-2.994901244
0.23600,-2.384512429
0.23650,-0.8585403903
0.23700,-1.163734798
0.23750,-2.384512429
0.23800,-3.300095652
0.23850,-3.300095652
0.23900,-2.689706836
0.23950,-1.774123613
0.24000,-0.2481515749
0.24050,1.583014871
0.24100,2.498598094
0.24150,0.9726260559
0.24200,-0.8585403903
0.24250,-1.774123613
0.24300,-1.468929206
0.24350,-1.163734798
0.24400,-0.8585403903
0.24450,-1.468929206
0.24500,-2.079318021
0.24550,-2.079318021
0.24600,-1.163734798
0.24650,-0.2481515749
0.24700,0.05704283282
0.24750,0.6674316482
0.24800,2.193403687
0.24850,3.414181318
0.24900,3.719375725
0.24950,2.803792502
0.25000,2.193403687
0.25050,1.583014871
0.25100,0.6674316482
0.25150,0.05704283282
0.25200,0.9726260559
0.25250,2.193403687
0.25300,2.498598094
0.25350,1.888209279
0.25400,1.888209279
0.25450,1.888209279
0.25500,0.9726260559
0.25550,0.3622372405
0.25600,0.9726260559
0.25650,2.193403687
0.25700,2.498598094
0.25750,1.583014871
0.25800,0.9726260559
0.25850,1.277820464
0.25900,1.583014871
0.25950,0.3622372405
0.26000,-0.8585403903
0.26050,-1.163734798
0.26100,-0.8585403903
0.26150,-0.5533459826
0.26200,-0.8585403903
0.26250,-1.163734798
0.26300,-0.8585403903
0.26350,0.05704283282
0.26400,1.583014871
0.26450,1.277820464
0.26500,-0.2481515749
0.26550,-1.468929206
0.26600,-1.163734798
0.26650,0.05704283282
0.26700,0.3622372405
0.26750,0.3622372405
0.26800,0.9726260559
0.26850,0.6674316482
0.26900,0.05704283282
0.26950,-0.2481515749
0.27000,0.05704283282
0.27050,0.6674316482
0.27100,0.05704283282
0.27150,-0.2481515749
0.27200,-0.5533459826
0.27250,-0.2481515749
0.27300,-0.5533459826
0.27350,-1.163734798
0.27400,-0.2481515749
0.27450,0.6674316482
0.27500,0.6674316482
0.27550,-0.5533459826
0.27600,-1.468929206
0.27650,-1.163734798
0.27700,-0.5533459826
0.27750,-0.5533459826
0.27800,0.05704283282
0.27850,1.277820464
0.27900,1.888209279
0.27950,0.9726260559
0.28000,-0.2481515749
0.28050,-1.163734798
0.28100,-1.163734798
0.28150,-0.8585403903
0.28200,-0.5533459826
0.28250,0.3622372405
0.28300,2.803792502
0.28350,5.245347764
0.28400,6.771319802
0.28450,6.771319802
0.28500,5.550542171
0.28550,4.634958948
0.28600,4.024570133
0.28650,3.414181318
0.28700,2.498598094
0.28750,1.888209279
0.28800,2.498598094
0.28850,3.414181318
0.28900,3.10898691
0.28950,1.888209279
0.29000,1.277820464
0.29050,1.277820464
0.29100,0.3622372405
0.29150,-0.8585403903
0.29200,-1.468929206
0.29250,-0.2481515749
0.29300,0.3622372405
0.29350,-1.163734798
0.29400,-4.215678875
0.29450,-5.131262098
0.29500,-3.60529006
0.29550,-2.689706836
0.29600,-3.60529006
0.29650,-4.215678875
0.29700,-1.468929206
0.29750,3.719375725
0.29800,8.297291841
0.29850,9.518069472
0.29900,7.992097433
0.29950,5.245347764
0.30000,2.193403687
0.30050,0.05704283282
0.30100,-0.5533459826
0.30150,0.05704283282
0.30200,0.05704283282
0.30250,0.05704283282
0.30300,0.6674316482
0.30350,1.583014871
0.30400,1.277820464
0.30450,0.05704283282
0.30500,-0.8585403903
0.30550,0.05704283282
0.30600,0.9726260559
0.30650,0.9726260559
0.30700,0.05704283282
0.30750,0.05704283282
0.30800,0.05704283282
0.30850,-0.2481515749
0.30900,0.05704283282
0.30950,0.3622372405
0.31000,0.9726260559
0.31050,0.6674316482
0.31100,0.3622372405
0.31150,0.6674316482
0.31200,0.9726260559
0.31250,0.6674316482
0.31300,0.05704283282
0.31350,0.3622372405
0.31400,0.6674316482
0.31450,0.05704283282
0.31500,-1.163734798
0.31550,-2.384512429
0.31600,-2.994901244
0.31650,-2.689706836
0.31700,-2.079318021
0.31750,-1.468929206
0.31800,-0.8585403903
0.31850,-0.5533459826
0.31900,-0.2481515749
0.31950,0.3622372405
0.32000,1.277820464
0.32050,0.9726260559
0.32100,0.3622372405
0.32150,0.3622372405
0.32200,0.3622372405
0.32250,-0.2481515749
0.32300,-1.774123613
0.32350,-2.384512429
0.32400,-2.079318021
0.32450,-1.774123613
0.32500,-2.384512429
0.32550,-3.300095652
0.32600,-3.300095652
0.32650,-2.079318021
0.32700,-1.468929206
0.32750,-2.079318021
0.32800,-2.994901244
0.32850,-3.300095652
0.32900,-2.689706836
0.32950,-2.079318021
0.33000,-1.774123613
0.33050,-1.163734798
0.33100,-1.163734798
0.33150,-2.384512429
0.33200,-4.215678875
0.33250,-5.131262098
0.33300,-4.82606769
0.33350,-4.215678875
0.33400,-3.300095652
0.33450,-2.079318021
0.33500,-0.2481515749
0.33550,0.05704283282
0.33600,-0.5533459826
0.33650,-2.384512429
0.33700,-3.910484467
0.33750,-4.215678875
0.33800,-3.910484467
0.33850,-2.689706836
0.33900,0.3622372405
0.33950,4.634958948
0.34000,7.686903025
0.34050,7.992097433
0.34100,5.550542171
0.34150,3.10898691
0.34200,2.193403687
0.34250,2.193403687
0.34300,1.888209279
0.34350,0.9726260559
0.34400,0.3622372405
0.34450,0.05704283282
0.34500,0.05704283282
0.34550,-0.5533459826
0.34600,-1.163734798
0.34650,-1.468929206
0.34700,-1.163734798
0.34750,-0.8585403903
0.34800,-0.5533459826
0.34850,-0.5533459826
0.34900,-0.5533459826
0.34950,-0.8585403903
0.35000,-1.163734798
0.35050,-0.8585403903
0.35100,-1.163734798
0.35150,-2.079318021
0.35200,-2.689706836
0.35250,-2.384512429
0.35300,-1.468929206
0.35350,-1.468929206
0.35400,-1.468929206
0.35450,-0.5533459826
0.35500,0.3622372405
0.35550,0.9726260559
0.35600,0.05704283282
0.35650,-0.5533459826
0.35700,0.05704283282
0.35750,1.583014871
0.35800,1.583014871
0.35850,0.05704283282
0.35900,-2.079318021
0.35950,-2.994901244
0.36000,-2.994901244
0.36050,-2.994901244
0.36100,-3.300095652
0.36150,-2.994901244
0.36200,-2.384512429
0.36250,-2.689706836
0.36300,-3.910484467
0.36350,-4.215678875
0.36400,-3.60529006
0.36450,-2.384512429
0.36500,-1.468929206
0.36550,-0.2481515749
0.36600,0.9726260559
0.36650,2.193403687
0.36700,2.803792502
0.36750,2.803792502
0.36800,3.414181318
0.36850,3.719375725
0.36900,3.10898691
0.36950,1.583014871
0.37000,0.3622372405
0.37050,0.05704283282
0.37100,0.05704283282
0.37150,0.3622372405
0.37200,0.6674316482
0.37250,0.05704283282
0.37300,-0.8585403903
0.37350,-2.079318021
0.37400,-2.384512429
0.37450,-2.994901244
0.37500,-2.994901244
0.37550,-2.079318021
0.37600,0.05704283282
0.37650,1.888209279
0.37700,1.888209279
0.37750,0.6674316482
0.37800,-0.2481515749
0.37850,-0.5533459826
0.37900,-0.2481515749
0.37950,0.05704283282
0.38000,0.6674316482
0.38050,0.05704283282
0.38100,-1.163734798
0.38150,-2.079318021
0.38200,-1.163734798
0.38250,0.05704283282
0.38300,0.9726260559
0.38350,1.583014871
0.38400,1.277820464
0.38450,-0.2481515749
0.38500,-1.774123613
0.38550,-2.079318021
0.38600,-0.8585403903
0.38650,-0.2481515749
0.38700,-1.163734798
0.38750,-2.079318021
0.38800,-2.079318021
0.38850,-1.468929206
0.38900,-1.163734798
0.38950,-1.468929206
0.39000,-2.384512429
0.39050,-4.82606769
0.39100,-6.352039729
0.39150,-3.60529006
0.39200,1.277820464
0.39250,4.634958948
0.39300,4.940153356
0.39350,3.719375725
0.39400,1.888209279
0.39450,-0.2481515749
0.39500,-2.079318021
0.39550,-1.468929206
0.39600,0.3622372405
0.39650,1.583014871
0.39700,0.6674316482
0.39750,0.9726260559
0.39800,3.414181318
0.39850,5.550542171
0.39900,5.245347764
0.39950,4.329764541
0.40000,3.719375725
0.40050,2.498598094
0.40100,0.6674316482
0.40150,-0.2481515749
0.40200,0.05704283282
0.40250,0.6674316482
0.40300,0.05704283282
0.40350,-0.8585403903
0.40400,-0.5533459826
0.40450,0.05704283282
0.40500,0.3622372405
0.40550,0.6674316482
0.40600,0.6674316482
0.40650,0.05704283282
0.40700,-0.8585403903
0.40750,-1.163734798
0.40800,-0.5533459826
0.40850,-0.2481515749
0.40900,-0.8585403903
0.40950,-1.163734798
0.41000,-0.8585403903
0.41050,-1.163734798
0.41100,-1.163734798
0.41150,0.05704283282
0.41200,2.498598094
0.41250,2.498598094
0.41300,0.05704283282
0.41350,-1.774123613
0.41400,-0.5533459826
0.41450,1.277820464
0.41500,1.583014871
0.41550,0.05704283282
0.41600,-0.5533459826
0.41650,0.05704283282
0.41700,0.05704283282
0.41750,-0.2481515749
0.41800,-0.5533459826
0.41850,-0.5533459826
0.41900,-0.5533459826
0.41950,-0.5533459826
0.42000,0.05704283282
0.42050,-0.2481515749
0.42100,-1.468929206
0.42150,-2.079318021
0.42200,-1.468929206
0.42250,-1.163734798
0.42300,-2.384512429
0.42350,-3.60529006
0.42400,-3.60529006
0.42450,-3.300095652
0.42500,-3.910484467
0.42550,-4.215678875
0.42600,-3.300095652
0.42650,-2.079318021
0.42700,-1.468929206
0.42750,-1.774123613
0.42800,-1.163734798
0.42850,0.6674316482
0.42900,1.583014871
0.42950,0.9726260559
0.43000,0.05704283282
0.43050,0.6674316482
0.43100,1.888209279
0.43150,2.193403687
0.43200,0.6674316482
0.43250,-0.8585403903
0.43300,-1.468929206
0.43350,-0.5533459826
0.43400,0.6674316482
0.43450,1.277820464
0.43500,1.277820464
0.43550,0.6674316482
0.43600,0.6674316482
0.43650,0.6674316482
0.43700,0.6674316482
0.43750,0.3622372405
0.43800,0.6674316482
0.43850,0.6674316482
0.43900,0.3622372405
0.43950,-0.2481515749
0.44000,-1.163734798
0.44050,-1.468929206
0.44100,-0.5533459826
0.44150,0.9726260559
0.44200,1.888209279
0.44250,1.583014871
0.44300,0.6674316482
0.44350,0.6674316482
0.44400,1.277820464
0.44450,1.277820464
0.44500,0.3622372405
0.44550,0.05704283282
0.44600,0.9726260559
0.44650,1.583014871
0.44700,0.6674316482
0.44750,-0.2481515749
0.44800,-0.2481515749
0.44850,0.05704283282
0.44900,-0.2481515749
0.44950,-2.079318021
0.45000,-2.994901244
0.45050,-1.163734798
0.45100,1.583014871
0.45150,3.10898691
0.45200,2.498598094
0.45250,1.583014871
0.45300,1.583014871
0.45350,2.803792502
0.45400,3.719375725
0.45450,4.024570133
0.45500,4.024570133
0.45550,4.024570133
0.45600,3.719375725
0.45650,3.414181318
0.45700,3.414181318
0.45750,2.803792502
0.45800,0.9726260559
0.45850,-0.5533459826
0.45900,-0.8585403903
0.45950,-0.2481515749
0.46000,-0.8585403903
0.46050,-2.689706836
0.46100,-2.994901244
0.46150,-1.468929206
0.46200,0.05704283282
0.46250,0.3622372405
0.46300,-0.5533459826
0.46350,-1.468929206
0.46400,-1.774123613
0.46450,-2.079318021
0.46500,-1.163734798
0.46550,0.05704283282
0.46600,0.6674316482
0.46650,0.9726260559
0.46700,1.888209279
0.46750,3.719375725
0.46800,5.245347764
0.46850,5.550542171
0.46900,5.245347764
0.46950,5.855736579
0.47000,6.466125395
0.47050,5.855736579
0.47100,4.329764541
0.47150,3.414181318
0.47200,3.414181318
0.47250,3.719375725
0.47300,3.719375725
0.47350,4.024570133
0.47400,4.329764541
0.47450,4.634958948
0.47500,4.634958948
0.47550,4.329764541
0.47600,3.10898691
0.47650,1.583014871
0.47700,0.9726260559
0.47750,2.193403687
0.47800,4.024570133
0.47850,4.940153356
0.47900,4.329764541
0.47950,3.719375725
0.48000,3.719375725
0.48050,2.803792502
0.48100,0.05704283282
0.48150,-2.079318021
0.48200,-2.079318021
0.48250,-0.2481515749
0.48300,0.9726260559
0.48350,0.6674316482
0.48400,0.6674316482
0.48450,1.277820464
0.48500,1.583014871
0.48550,0.9726260559
0.48600,0.05704283282
0.48650,-0.5533459826
0.48700,-0.5533459826
0.48750,-0.2481515749
0.48800,-0.2481515749
0.48850,-0.5533459826
0.48900,-0.8585403903
0.48950,-0.8585403903
0.49000,-0.8585403903
0.49050,-1.163734798
0.49100,-2.689706836
0.49150,-3.910484467
0.49200,-3.910484467
0.49250,-2.384512429
0.49300,-1.774123613
0.49350,-2.384512429
0.49400,-2.689706836
0.49450,-2.689706836
0.49500,-2.994901244
0.49550,-2.994901244
0.49600,-1.468929206
0.49650,0.05704283282
0.49700,0.05704283282
0.49750,-2.079318021
0.49800,-2.689706836
0.49850,-0.5533459826
0.49900,1.277820464
0.49950,1.277820464
0.50000,0.3622372405
0.50050,1.277820464
0.50100,2.803792502
0.50150,2.498598094
0.50200,0.9726260559
0.50250,0.05704283282
0.50300,0.05704283282
0.50350,0.05704283282
0.50400,-1.163734798
0.50450,-1.774123613
0.50500,-1.774123613
0.50550,-1.468929206
0.50600,-1.163734798
0.50650,-1.163734798
0.50700,-2.079318021
0.50750,-2.689706836
0.50800,-1.774123613
0.50850,0.6674316482
0.50900,2.193403687
0.50950,1.583014871
0.51000,0.3622372405
0.51050,0.05704283282
0.51100,0.3622372405
0.51150,0.05704283282
0.51200,-1.163734798
0.51250,-1.468929206
0.51300,-1.163734798
0.51350,-0.2481515749
0.51400,0.3622372405
0.51450,0.6674316482
0.51500,0.05704283282
0.51550,-1.163734798
0.51600,-0.2481515749
0.51650,2.193403687
0.51700,4.024570133
0.51750,2.803792502
0.51800,0.9726260559
0.51850,0.6674316482
0.51900,0.6674316482
0.51950,0.05704283282
0.52000,-1.163734798
0.52050,-1.468929206
0.52100,-0.5533459826
0.52150,0.05704283282
0.52200,0.05704283282
0.52250,-0.5533459826
0.52300,-0.8585403903
0.52350,-1.163734798
0.52400,-1.468929206
0.52450,-1.774123613
0.52500,-1.774123613
0.52550,-1.774123613
0.52600,-1.468929206
0.52650,-0.8585403903
0.52700,-0.5533459826
0.52750,-0.8585403903
0.52800,-1.774123613
0.52850,-2.079318021
0.52900,-1.774123613
0.52950,-0.8585403903
0.53000,0.05704283282
0.53050,0.05704283282
0.53100,0.05704283282
0.53150,-0.5533459826
0.53200,-0.8585403903
0.53250,-0.5533459826
0.53300,0.6674316482
0.53350,1.888209279
0.53400,1.277820464
0.53450,-0.5533459826
0.53500,-2.079318021
0.53550,-2.079318021
0.53600,-0.8585403903
0.53650,0.05704283282
0.53700,0.6674316482
0.53750,1.583014871
0.53800,2.498598094
0.53850,2.498598094
0.53900,1.888209279
0.53950,1.583014871
0.54000,1.583014871
0.54050,0.6674316482
0.54100,0.05704283282
0.54150,-0.5533459826
0.54200,-0.5533459826
0.54250,-1.163734798
0.54300,-2.079318021
0.54350,-1.468929206
0.54400,0.9726260559
0.54450,3.719375725
0.54500,5.245347764
0.54550,5.245347764
0.54600,4.024570133
0.54650,1.888209279
0.54700,0.6674316482
0.54750,1.583014871
0.54800,4.634958948
0.54850,6.160930987
0.54900,5.550542171
0.54950,4.024570133
0.55000,3.414181318
0.55050,3.414181318
0.55100,3.10898691
0.55150,1.888209279
0.55200,1.277820464
0.55250,1.583014871
0.55300,2.498598094
0.55350,3.719375725
0.55400,4.329764541
0.55450,4.024570133
0.55500,3.719375725
0.55550,4.329764541
0.55600,5.245347764
0.55650,5.245347764
0.55700,4.940153356
0.55750,4.940153356
0.55800,4.329764541
0.55850,2.803792502
0.55900,0.9726260559
0.55950,0.6674316482
0.56000,1.277820464
0.56050,0.6674316482
0.56100,-1.163734798
0.56150,-2.079318021
0.56200,-1.468929206
0.56250,-1.468929206
0.56300,-3.300095652
0.56350,-5.131262098
0.56400,-5.741650914
0.56450,-5.436456506
0.56500,-6.046845321
0.56550,-6.657234137
0.56600,-6.352039729
0.56650,-4.82606769
0.56700,-2.994901244
0.56750,-1.163734798
0.56800,0.6674316482
0.56850,2.193403687
0.56900,2.498598094
0.56950,1.583014871
0.57000,0.3622372405
0.57050,-0.5533459826
0.57100,-1.468929206
0.57150,-1.774123613
0.57200,-2.079318021
0.57250,-2.689706836
0.57300,-3.300095652
0.57350,-3.300095652
0.57400,-2.689706836
0.57450,-2.384512429
0.57500,-2.689706836
0.57550,-2.079318021
0.57600,-1.163734798
0.57650,-1.163734798
0.57700,-2.689706836
0.57750,-4.215678875
0.57800,-3.300095652
0.57850,-0.2481515749
0.57900,1.888209279
0.57950,2.498598094
0.58000,1.583014871
0.58050,0.6674316482
0.58100,0.6674316482
0.58150,1.888209279
0.58200,3.414181318
0.58250,4.024570133
0.58300,3.719375725
0.58350,2.803792502
0.58400,1.888209279
0.58450,0.9726260559
0.58500,0.05704283282
0.58550,-0.8585403903
0.58600,-0.8585403903
0.58650,0.05704283282
0.58700,2.193403687
0.58750,3.719375725
0.58800,3.719375725
0.58850,2.193403687
0.58900,0.9726260559
0.58950,1.277820464
0.59000,2.193403687
0.59050,1.277820464
0.59100,-0.5533459826
0.59150,-1.468929206
0.59200,0.05704283282
0.59250,1.583014871
0.59300,2.193403687
0.59350,1.888209279
0.59400,2.498598094
0.59450,2.803792502
0.59500,1.888209279
0.59550,0.6674316482
0.59600,0.6674316482
0.59650,0.6674316482
0.59700,-0.5533459826
0.59750,-2.689706836
0.59800,-2.994901244
0.59850,-1.163734798
0.59900,0.3622372405
0.59950,0.6674316482
0.60000,0.6674316482
0.60050,0.9726260559
0.60100,2.803792502
0.60150,5.550542171
0.60200,8.602486248
0.60250,11.04404151
0.60300,11.95962473
0.60350,12.57001355
0.60400,13.18040236
0.60450,13.18040236
0.60500,11.65443033
0.60550,9.518069472
0.60600,7.07651421
0.60650,4.329764541
0.60700,1.277820464
0.60750,-1.163734798
0.60800,-2.384512429
0.60850,-3.60529006
0.60900,-5.436456506
0.60950,-7.267622952
0.61000,-9.098789398
0.61050,-12.15073348
0.61100,-14.89748314
0.61150,-13.37151111
0.61200,-5.131262098
0.61250,6.160930987
0.61300,15.62195763
0.61350,19.89467933
0.61400,18.06351289
0.61450,13.18040236
0.61500,7.381708618
0.61550,2.193403687
0.61600,-2.994901244
0.61650,-9.709178214
0.61700,-13.67670551
0.61750,-9.709178214
0.61800,-0.2481515749
0.61850,5.855736579
0.61900,4.329764541
0.61950,-0.5533459826
0.62000,-3.910484467
0.62050,-5.131262098
0.62100,-7.57281736
0.62150,-11.23515025
0.62200,-13.37151111
0.62250,-13.0663167
0.62300,-12.45592788
0.62350,-13.0663167
0.62400,-14.59228874
0.62450,-16.11826078
0.62500,-17.033844
0.62550,-16.42345518
0.62600,-14.28709433
0.62650,-13.0663167
0.62700,-13.98189992
0.62750,-15.20267755
0.62800,-13.98189992
0.62850,-9.403983806
0.62900,-3.300095652
0.62950,1.277820464
0.63000,4.634958948
0.63050,5.855736579
0.63100,5.550542171
0.63150,5.245347764
0.63200,6.160930987
0.63250,6.771319802
0.63300,5.855736579
0.63350,4.024570133
0.63400,1.888209279
0.63450,0.05704283282
0.63500,-2.384512429
0.63550,-4.82606769
0.63600,-6.046845321
0.63650,-6.046845321
0.63700,-5.741650914
0.63750,-5.436456506
0.63800,-5.131262098
0.63850,-4.520873283
0.63900,-4.82606769
0.63950,-5.741650914
0.64000,-7.267622952
0.64050,-8.183206175
0.64100,-7.267622952
0.64150,-5.131262098
0.64200,-2.689706836
0.64250,-0.2481515749
0.64300,1.277820464
0.64350,3.10898691
0.64400,4.024570133
0.64450,3.10898691
0.64500,1.277820464
0.64550,0.05704283282
0.64600,0.3622372405
0.64650,0.05704283282
0.64700,-0.8585403903
0.64750,-1.774123613
0.64800,-1.774123613
0.64850,-1.774123613
0.64900,-2.994901244
0.64950,-4.520873283
0.65000,-5.131262098
0.65050,-4.520873283
0.65100,-3.910484467
0.65150,-3.60529006
0.65200,-1.774123613
0.65250,0.05704283282
0.65300,0.3622372405
0.65350,-0.5533459826
0.65400,-0.5533459826
0.65450,0.6674316482
0.65500,1.583014871
0.65550,1.277820464
0.65600,2.498598094
0.65650,7.686903025
0.65700,15.01156881
0.65750,20.50506815
0.65800,23.55701223
0.65850,25.99856749
0.65900,26.91415071
0.65950,25.38817867
0.66000,21.11545696
0.66050,15.62195763
0.66100,11.34923592
0.66150,8.297291841
0.66200,5.245347764
0.66250,2.193403687
0.66300,0.05704283282
0.66350,-2.384512429
0.66400,-4.520873283
0.66450,-5.741650914
0.66500,-6.657234137
0.66550,-6.962428544
0.66600,-7.57281736
0.66650,-8.488400583
0.66700,-10.01437262
0.66750,-11.84553907
0.66800,-12.76112229
0.66850,-13.98189992
0.66900,-16.11826078
0.66950,-17.94942722
0.67000,-16.42345518
0.67050,-11.54034466
0.67100,-8.183206175
0.67150,-8.488400583
0.67200,-9.403983806
0.67250,-6.962428544
0.67300,-3.60529006
0.67350,-3.300095652
0.67400,-1.468929206
0.67450,8.602486248
0.67500,26.91415071
0.67550,43.08945432
0.67600,50.71931451
0.67650,52.85567537
0.67700,54.3816474
0.67750,54.076453
0.67800,51.63489773
0.67850,52.24528655
0.67900,60.18034115
0.67950,72.38811746
0.68000,82.76472732
0.68050,90.0893931
0.68100,96.80367007
0.68150,100.7711974
0.68200,97.10886448
0.68250,84.59589377
0.68300,66.58942371
0.68350,45.83620399
0.68400,23.25181782
0.68450,1.277820464
0.68500,-16.42345518
0.68550,-29.54681471
0.68600,-40.22861898
0.68650,-49.38445121
0.68700,-54.87795055
0.68750,-55.18314496
0.68800,-50.91042325
0.68850,-46.02731273
0.68900,-42.36497984
0.68950,-39.61823017
0.69000,-34.73511965
0.69050,-25.57928741
0.69100,-13.37151111
0.69150,0.05704283282
0.69200,19.28429052
0.69250,49.19334247
0.69300,83.98550495
0.69350,106.5698911
0.69400,108.706252
0.69450,100.7711974
0.69500,98.63483652
0.69550,101.3815862
0.69600,93.44653159
0.69650,65.9790349
0.69700,25.69337308
0.69750,-15.81306637
0.69800,-54.26756174
0.69850,-89.36491862
0.69900,-116.2220265
0.69950,-132.0921357
0.70000,-140.3323847
0.70050,-145.825884
0.70100,-146.7414673
0.70150,-139.4168015
0.70200,-124.7674699
0.70250,-107.3713887
0.70300,-88.75452981
0.70350,-67.08572686
0.70400,-44.50134069
0.70450,-26.18967623
0.70500,-12.45592788
0.70550,0.05704283282
0.70600,12.26481914
0.70650,15.62195763
0.70700,4.024570133
0.70750,-18.55981604
0.70800,-42.36497984
0.70850,-61.89742193
0.70900,-78.98830876
0.70950,-96.38439
0.71000,-112.864888
0.71050,-124.7674699
0.71100,-131.4817469
0.71150,-133.9233021
0.71200,-133.0077189
0.71250,-127.5142196
0.71300,-118.0531929
0.71350,-106.7609999
0.71400,-96.07919559
0.71450,-85.70258573
0.71500,-74.71558705
0.71550,-62.50781075
0.71600,-50.60522885
0.71650,-40.8390078
0.71700,-31.07278675
0.71750,-15.20267755
0.71800,9.212875064
0.71850,36.06998294
0.71900,54.68684181
0.71950,61.09592437
0.72000,58.65436911
0.72050,52.24528655
0.72100,43.39464873
0.72150,31.18687242
0.72200,18.97909611
0.72250,11.04404151
0.72300,7.686903025
0.72350,5.245347764
0.72400,1.277820464
0.72450,-2.994901244
0.72500,-5.741650914
0.72550,-4.520873283
0.72600,0.05704283282
0.72650,7.992097433
0.72700,17.75831848
0.72750,27.82973393
0.72800,39.12192702
0.72850,50.4141201
0.72900,59.87514674
0.72950,64.75825727
0.73000,65.67384049
0.73050,65.9790349
0.73100,65.06345167
0.73150,59.56995233
0.73200,48.58295366
0.73250,35.15439972
0.73300,21.72584578
0.73350,6.771319802
0.73400,-10.92995584
0.73450,-29.54681471
0.73500,-44.50134069
0.73550,-53.96236733
0.73600,-59.76106108
0.73650,-61.28703312
0.73700,-58.54028345
0.73750,-52.7415897
0.73800,-46.02731273
0.73850,-37.78706372
0.73900,-26.49487064
0.73950,-15.20267755
0.74000,-7.878011767
0.74050,-3.300095652
0.74100,3.10898691
0.74150,13.18040236
0.74200,21.11545696
0.74250,24.47259545
0.74300,26.6089563
0.74350,29.96609479
0.74400,31.79726123
0.74450,29.66090038
0.74500,26.91415071
0.74550,26.91415071
0.74600,28.13492834
0.74650,26.6089563
0.74700,23.25181782
0.74750,21.11545696
0.74800,21.42065137
0.74850,21.72584578
0.74900,21.42065137
0.74950,21.42065137
0.75000,19.89467933
0.75050,17.75831848
0.75100,18.06351289
0.75150,22.641429
0.75200,28.13492834
0.75250,30.88167801
0.75300,32.10245564
0.75350,33.32323327
0.75400,33.32323327
0.75450,30.2712892
0.75500,28.13492834
0.75550,30.2712892
0.75600,32.10245564
0.75650,31.18687242
0.75700,36.98556616
0.75750,63.84267404
0.75800,109.0114464
0.75850,152.0438579
0.75900,177.9853825
0.75950,187.7516036
0.76000,188.6671868
0.76050,179.2061602
0.76100,156.621774
0.76150,125.18675
0.76200,91.92055955
0.76250,58.95956352
0.76300,24.77778986
0.76350,-6.657234137
0.76400,-30.46239794
0.76450,-46.02731273
0.76500,-56.40392259
0.76550,-64.03378278
0.76600,-68.00131008
0.76650,-67.39092127
0.76700,-64.03378278
0.76750,-59.45586667
0.76800,-56.09872818
0.76850,-55.48833937
0.76900,-56.40392259
0.76950,-55.18314496
0.77000,-47.24809036
0.77050,-30.76759235
0.77100,-6.352039729
0.77150,21.42065137
0.77200,45.22581517
0.77250,61.09592437
0.77300,69.64136779
0.77350,72.99850627
0.77400,70.2517566
0.77450,61.40111878
0.77500,50.1089257
0.77550,41.25828787
0.77600,33.01803886
0.77650,20.81026256
0.77700,5.550542171
0.77750,-6.657234137
0.77800,-12.76112229
0.77850,-13.67670551
0.77900,-11.54034466
0.77950,-6.962428544
0.78000,-0.8585403903
0.78050,6.466125395
0.78100,16.53754085
0.78150,27.82973393
0.78200,37.29076057
0.78250,42.1738711
0.78300,44.61542636
0.78350,44.92062076
0.78400,39.42712143
0.78450,26.91415071
0.78500,15.31676322
0.78550,12.26481914
0.78600,12.87520796
0.78650,4.024570133
0.78700,-16.42345518
0.78750,-38.70264695
0.78800,-56.09872818
0.78850,-72.27403179
0.78900,-90.28050185
0.78950,-101.8778893
0.79000,-99.13113967
0.79050,-86.31297455
0.79100,-73.49480942
0.79150,-65.86494923
0.79200,-58.84547785
0.79250,-49.38445121
0.79300,-37.78706372
0.79350,-24.9688986
0.79400,-10.01437262
0.79450,4.024570133
0.79500,14.09598559
0.79550,17.45312407
0.79600,17.45312407
0.79650,15.31676322
0.79700,8.907680656
0.79750,-1.468929206
0.79800,-12.15073348
0.79850,-18.86501044
0.79900,-23.74812097
0.79950,-30.15720353
0.80000,-36.8714805
0.80050,-39.92342458
0.80100,-40.53381339
0.80150,-42.67017425
0.80200,-46.63770155
0.80250,-47.55328477
0.80300,-45.41692391
0.80350,-46.33250714
0.80400,-54.87795055
0.80450,-66.17014364
0.80500,-74.41039265
0.80550,-80.5142808
0.80600,-89.05972422
0.80650,-98.52075085
0.80700,-103.098667
0.80750,-100.3519173
0.80800,-93.33244592
0.80850,-83.87141929
0.80900,-70.44286535
0.80950,-53.35197851
0.81000,-36.8714805
0.81050,-23.74812097
0.81100,-11.84553907
0.81150,0.6674316482
0.81200,12.26481914
0.81250,20.19987374
0.81300,23.86220663
0.81350,24.47259545
0.81400,21.42065137
0.81450,16.23234644
0.81500,11.04404151
0.81550,7.686903025
0.81600,4.329764541
0.81650,1.277820464
0.81700,-0.2481515749
0.81750,-1.163734798
0.81800,-0.8585403903
0.81850,4.329764541
0.81900,19.28429052
0.81950,40.64789906
0.82000,56.82320267
0.82050,60.79072997
0.82100,56.82320267
0.82150,53.46606418
0.82200,53.46606418
0.82250,54.076453
0.82300,54.68684181
0.82350,54.68684181
0.82400,51.63489773
0.82450,43.69984313
0.82500,33.93362209
0.82550,24.77778986
0.82600,16.23234644
0.82650,8.907680656
0.82700,5.550542171
0.82750,7.381708618
0.82800,10.12845829
0.82850,11.65443033
0.82900,14.40117999
0.82950,20.50506815
0.83000,26.91415071
0.83050,28.74531716
0.83100,27.82973393
0.83150,27.82973393
0.83200,27.21934512
0.83250,22.94662341
0.83300,15.62195763
0.83350,9.518069472
0.83400,5.245347764
0.83450,0.9726260559
0.83500,-2.079318021
0.83550,-1.774123613
0.83600,0.9726260559
0.83650,4.940153356
0.83700,10.43365269
0.83750,21.72584578
0.83800,40.95309346
0.83850,64.14786845
0.83900,85.20628258
0.83950,98.63483652
0.84000,102.9075582
0.84050,97.7192533
0.84100,83.98550495
0.84150,63.23228523
0.84200,37.59595498
0.84250,10.7388471
0.84300,-14.59228874
0.84350,-36.8714805
0.84400,-53.65717292
0.84450,-64.03378278
0.84500,-70.13767094
0.84550,-75.93636468
0.84600,-79.90389198
0.84650,-76.24155909
0.84700,-63.11819956
0.84750,-47.85847918
0.84800,-37.17667491
0.84850,-30.15720353
0.84900,-21.91695452
0.84950,-11.23515025
0.85000,0.05704283282
0.85050,13.48559677
0.85100,29.96609479
0.85150,44.61542636
0.85200,52.24528655
0.85250,54.3816474
0.85300,55.90761944
0.85350,54.99203622
0.85400,46.75178721
0.85450,32.71284446
0.85500,20.19987374
0.85550,11.95962473
0.85600,4.940153356
0.85650,-1.468929206
0.85700,-5.436456506
0.85750,-5.741650914
0.85800,-2.994901244
0.85850,4.634958948
0.85900,20.81026256
0.85950,39.73231583
0.86000,52.85567537
0.86050,58.3491747
0.86100,62.62189641
0.86150,69.64136779
0.86200,77.57642239
0.86250,85.20628258
0.86300,92.22575396
0.86350,94.36211481
0.86400,85.51147699
0.86450,66.58942371
0.86500,47.36217603
0.86550,32.71284446
0.86600,18.6739017
0.86650,0.3622372405
0.86700,-19.17020485
0.86750,-33.51434201
0.86800,-39.92342458
0.86850,-40.53381339
0.86900,-37.48186931
0.86950,-30.76759235
0.87000,-18.55981604
0.87050,-0.2481515749
0.87100,18.06351289
0.87150,29.35570597
0.87200,28.74531716
0.87250,19.28429052
0.87300,4.634958948
0.87350,-14.89748314
0.87400,-39.31303576
0.87450,-62.50781075
0.87500,-80.20908639
0.87550,-94.55322355
0.87600,-110.7285272
0.87650,-127.5142196
0.87700,-137.585635
0.87750,-139.4168015
0.87800,-137.2804406
0.87850,-133.3129133
0.87900,-123.2414979
0.87950,-105.2350278
0.88000,-84.4818081
0.88050,-64.94936601
0.88100,-42.97536865
0.88150,-16.11826078
0.88200,8.297291841
0.88250,24.16740104
0.88300,35.76478853
0.88350,53.16086977
0.88400,72.99850627
0.88450,80.01797765
0.88500,65.9790349
0.88550,40.34270465
0.88600,15.62195763
0.88650,-8.183206175
0.88700,-36.56628609
0.88750,-65.55975482
0.88800,-86.00778014
0.88850,-96.38439
0.88900,-100.6571117
0.88950,-100.0467229
0.89000,-93.33244592
0.89050,-83.26103047
0.89100,-74.71558705
0.89150,-66.47533805
0.89200,-55.18314496
0.89250,-42.67017425
0.89300,-35.34550846
0.89350,-32.9039532
0.89400,-27.71564827
0.89450,-16.42345518
0.89500,-1.163734798
0.89550,17.45312407
0.89600,40.34270465
0.89650,61.09592437
0.89700,73.60889509
0.89750,80.62836647
0.89800,92.22575396
0.89850,107.1802799
0.89900,110.8426128
0.89950,97.7192533
0.90000,80.62836647
0.90050,71.77772864
0.90100,67.81020134
0.90150,59.56995233
0.90200,47.05698162
0.90250,37.59595498
0.90300,30.5764836
0.90350,20.19987374
0.90400,7.07651421
0.90450,-1.468929206
0.90500,-5.436456506
0.90550,-10.92995584
0.90600,-21.30656571
0.90650,-30.76759235
0.90700,-35.95589728
0.90750,-39.92342458
0.90800,-46.33250714
0.90850,-52.43639529
0.90900,-54.57275615
0.90950,-54.87795055
0.91000,-57.31950582
0.91050,-60.98183871
0.91100,-61.89742193
0.91150,-58.54028345
0.91200,-53.35197851
0.91250,-45.11172951
0.91300,-33.51434201
0.91350,-21.0013713
0.91400,-11.54034466
0.91450,-5.436456506
0.91500,0.3622372405
0.91550,7.07651421
0.91600,10.12845829
0.91650,7.07651421
0.91700,0.05704283282
0.91750,-8.183206175
0.91800,-17.33903841
0.91850,-27.10525945
0.91900,-35.95589728
0.91950,-40.8390078
0.92000,-42.36497984
0.92050,-41.75459102
0.92100,-39.31303576
0.92150,-33.81953642
0.92200,-26.49487064
0.92250,-19.78059367
0.92300,-14.28709433
0.92350,-10.92995584
0.92400,-8.488400583
0.92450,-5.436456506
0.92500,0.05704283282
0.92550,5.245347764
0.92600,7.686903025
0.92650,8.602486248
0.92700,11.95962473
0.92750,19.89467933
0.92800,27.52453953
0.92850,30.88167801
0.92900,29.35570597
0.92950,25.69337308
0.93000,21.42065137
0.93050,17.45312407
0.93100,14.40117999
0.93150,11.04404151
0.93200,5.855736579
0.93250,0.9726260559
0.93300,0.6674316482
0.93350,6.771319802
0.93400,17.45312407
0.93450,30.88167801
0.93500,46.75178721
0.93550,62.0115076
0.93600,71.77772864
0.93650,75.74525594
0.93700,77.8816168
0.93750,81.23875528
0.93800,83.06992173
0.93850,81.8491441
0.93900,79.10239443
0.93950,76.66083917
0.94000,73.30370068
0.94050,68.11539575
0.94100,61.70631319
0.94150,55.60242503
0.94200,49.49853688
0.94250,44.31023195
0.94300,41.25828787
0.94350,40.34270465
0.94400,39.42712143
0.94450,35.76478853
0.94500,28.13492834
0.94550,16.53754085
0.94600,1.583014871
0.94650,-13.67670551
0.94700,-29.24162031
0.94750,-44.50134069
0.94800,-57.92989463
0.94850,-66.17014364
0.94900,-70.13767094
0.94950,-73.80000383
0.95000,-77.76753113
0.95050,-78.68311435
0.95100,-73.80000383
0.95150,-66.78053245
0.95200,-61.89742193
0.95250,-57.92989463
0.95300,-53.04678411
0.95350,-49.99484003
0.95400,-48.7740624
0.95450,-45.11172951
0.95500,-36.26109168
0.95550,-25.57928741
0.95600,-16.11826078
0.95650,-6.046845321
0.95700,5.550542171
0.95750,15.31676322
0.95800,24.16740104
0.95850,42.1738711
0.95900,73.60889509
0.95950,108.0958632
0.96000,134.0373878
0.96050,150.8230802
0.96100,161.1996901
0.96150,160.8944957
0.96200,147.7711362
0.96250,133.7321934
0.96300,130.3750549
0.96350,130.9854437
0.96400,120.9140283
0.96450,98.94003093
0.96500,74.82967272
0.96550,51.94009214
0.96600,24.16740104
0.96650,-6.962428544
0.96700,-34.73511965
0.96750,-57.62470022
0.96800,-80.81947521
0.96850,-102.4882782
0.96900,-115.6116377
0.96950,-118.9687762
0.97000,-118.0531929
0.97050,-112.5596936
0.97100,-98.52075085
0.97150,-79.90389198
0.97200,-66.78053245
0.97250,-61.89742193
0.97300,-58.23508904
0.97350,-51.52081207
0.97400,-45.11172951
0.97450,-41.14420221
0.97500,-36.56628609
0.97550,-31.37798116
0.97600,-29.85200912
0.97650,-32.9039532
0.97700,-35.04031405
0.97750,-34.12473083
0.97800,-31.37798116
0.97850,-28.02084268
0.97900,-21.30656571
0.97950,-10.92995584
0.98000,-3.300095652
0.98050,-0.2481515749
0.98100,1.583014871
0.98150,7.381708618
0.98200,14.09598559
0.98250,17.45312407
0.98300,17.14792966
0.98350,16.23234644
0.98400,17.14792966
0.98450,19.28429052
0.98500,18.6739017
0.98550,11.95962473
0.98600,-1.163734798
0.98650,-18.86501044
0.98700,-37.48186931
0.98750,-54.26756174
0.98800,-68.91689331
0.98850,-78.68311435
0.98900,-83.56622488
0.98950,-85.39739132
0.99000,-86.61816895
0.99050,-86.61816895
0.99100,-83.87141929
0.99150,-78.37791995
0.99200,-72.27403179
0.99250,-65.86494923
0.99300,-59.15067226
0.99350,-50.91042325
0.99400,-41.75459102
0.99450,-32.29356438
0.99500,-23.44292656
0.99550,-15.20267755
0.99600,-6.046845321
0.99650,4.329764541
0.99700,16.23234644
0.99750,27.21934512
0.99800,36.37517735
0.99850,44.31023195
0.99900,51.02450892
0.99950,54.076453
1.00000,53.77125859
1.00050,53.16086977
1.00100,56.21281385
1.00150,62.0115076
1.00200,67.19981253
1.00250,70.55695101
1.00300,76.05045035
1.00350,86.73225462
1.00400,97.41405889
1.00450,101.991975
1.00500,101.991975
1.00550,107.7906688
1.00600,124.8815556
1.00650,146.5503585
1.00700,160.2841069
1.00750,160.8944957
1.00800,148.9919138
1.00850,126.1023332
1.00900,94.36211481
1.00950,58.95956352
1.01000,24.77778986
1.01050,-9.709178214
1.01100,-46.63770155
1.01150,-77.46233672
1.01200,-90.89089066
1.01250,-86.31297455
1.01300,-74.10519824
1.01350,-61.89742193
1.01400,-48.7740624
1.01450,-35.34550846
1.01500,-27.71564827
1.01550,-28.63123149
1.01600,-32.9039532
1.01650,-35.95589728
1.01700,-41.14420221
1.01750,-52.43639529
1.01800,-67.39092127
1.01850,-80.5142808
1.01900,-90.58569625
1.01950,-98.82594526
1.02000,-102.4882782
1.02050,-100.6571117
1.02100,-95.77400119
1.02150,-89.97530744
1.02200,-79.29350317
1.02250,-60.6766443
1.02300,-40.22861898
1.02350,-26.49487064
1.02400,-20.39098248
1.02450,-12.76112229
1.02500,3.10898691
1.02550,23.25181782
1.02600,39.12192702
1.02650,48.27775925
1.02700,53.77125859
1.02750,55.29723063
1.02800,48.58295366
1.02850,33.62842768
1.02900,18.06351289
1.02950,7.381708618
1.03000,0.6674316482
1.03050,-6.962428544
1.03100,-14.59228874
1.03150,-16.11826078
1.03200,-9.098789398
1.03250,4.940153356
1.03300,25.38817867
1.03350,52.24528655
1.03400,81.54394969
1.03450,105.3491135
1.03500,119.9984451
1.03550,128.5438885
1.03600,132.5114158
1.03650,130.9854437
1.03700,123.9659724
1.03750,113.5893625
1.03800,101.0763918
1.03850,84.29069936
1.03900,61.40111878
1.03950,33.93362209
1.04000,5.855736579
1.04050,-22.52734334
1.04100,-50.30003444
1.04150,-73.18961502
1.04200,-86.31297455
1.04250,-88.14414099
1.04300,-79.90389198
1.04350,-64.33897719
1.04400,-45.11172951
1.04450,-27.41045386
1.04500,-14.28709433
1.04550,-5.131262098
1.04600,0.05704283282
1.04650,0.6674316482
1.04700,-3.910484467
1.04750,-14.28709433
1.04800,-29.85200912
1.04850,-49.68964562
1.04900,-71.05325416
1.04950,-91.50127948
1.05000,-110.4233328
1.05050,-126.9038308
1.05100,-137.2804406
1.05150,-136.9752462
1.05200,-126.9038308
1.05250,-110.4233328
1.05300,-89.67011303
1.05350,-65.25456042
1.05400,-41.44939661
1.05450,-23.13773215
1.05500,-10.31956703
1.05550,1.583014871
1.05600,14.7063744
1.05650,25.99856749
1.05700,34.5440109
1.05750,40.95309346
1.05800,44.31023195
1.05850,44.61542636
1.05900,46.75178721
1.05950,54.3816474
1.06000,63.84267404
1.06050,68.11539575
1.06100,67.81020134
1.06150,69.64136779
1.06200,74.2192839
1.06250,77.27122798
1.06300,77.8816168
1.06350,78.49200561
1.06400,75.74525594
1.06450,62.62189641
1.06500,41.25828787
1.06550,18.36870729
1.06600,-6.046845321
1.06650,-36.56628609
1.06700,-67.69611568
1.06750,-88.14414099
1.06800,-96.68958441
1.06850,-102.1830837
1.06900,-106.4558055
1.06950,-101.8778893
1.07000,-88.4493354
1.07050,-75.02078146
1.07100,-61.89742193
1.07150,-36.26109168
1.07200,8.602486248
1.07250,65.36864608
1.07300,124.5763612
1.07350,182.868493
1.07400,229.8684318
1.07450,246.0437354
1.07500,225.5957101
1.07550,183.1736875
1.07600,134.952971
1.07650,81.54394969
1.07700,21.42065137
1.07750,-33.81953642
1.07800,-74.10519824
1.07850,-101.8778893
1.07900,-124.1570811
1.07950,-140.0271903
1.08000,-146.1310785
1.08050,-145.825884
1.08100,-141.2479679
1.08150,-129.6505804
1.08200,-112.5596936
1.08250,-98.82594526
1.08300,-89.97530744
1.08350,-75.93636468
1.08400,-51.82600648
1.08450,-30.15720353
1.08500,-17.64423281
1.08550,-0.2481515749
1.08600,35.76478853
1.08650,79.40758884
1.08700,107.4854743
1.08750,117.2516954
1.08800,122.4400003
1.08850,127.6283053
1.08900,126.1023332
1.08950,116.6413066
1.09000,107.7906688
1.09050,101.3815862
1.09100,88.25822666
1.09150,65.36864608
1.09200,40.64789906
1.09250,18.6739017
1.09300,-6.352039729
1.09350,-38.70264695
1.09400,-70.74805975
1.09450,-94.55322355
1.09500,-110.1181383
1.09550,-121.105137
1.09600,-126.293442
1.09650,-124.1570811
1.09700,-117.4428041
1.09750,-110.4233328
1.09800,-103.7090558
1.09850,-95.77400119
1.09900,-87.53375218
1.09950,-79.59869758
1.10000,-70.44286535
1.10050,-59.76106108
1.10100,-51.82600648
1.10150,-48.7740624
1.10200,-47.85847918
1.10250,-45.72211832
1.10300,-46.02731273
1.10350,-51.21561766
1.10400,-55.48833937
1.10450,-51.52081207
1.10500,-39.92342458
1.10550,-29.24162031
1.10600,-19.17020485
1.10650,-1.774123613
1.10700,22.94662341
1.10750,46.75178721
1.10800,63.53747963
1.10850,75.13486713
1.10900,82.1543385
1.10950,83.98550495
1.11000,88.86861547
1.11050,107.7906688
1.11100,131.901027
1.11150,138.9204983
1.11200,132.5114158
1.11250,152.3490523
1.11300,224.6801269
1.11350,320.5111709
1.11400,382.1604413
1.11450,382.7708301
1.11500,339.7384186
1.11550,275.9527874
1.11600,198.7386022
1.11650,113.2841681
1.11700,31.49206683
1.11750,-37.17667491
1.11800,-94.55322355
1.11850,-139.7219959
1.11900,-166.2739094
1.11950,-171.7674087
1.12000,-164.1375485
1.12050,-153.4557442
1.12100,-143.9947176
1.12150,-135.1440798
1.12200,-126.9038308
1.12250,-122.0207202
1.12300,-122.3259147
1.12350,-128.7349972
1.12400,-134.2284966
1.12450,-126.5986364
1.12500,-101.8778893
1.12550,-70.13767094
1.12600,-48.16367358
1.12650,-41.44939661
1.12700,-43.89095188
1.12750,-50.91042325
1.12800,-60.6766443
1.12850,-67.69611568
1.12900,-63.42339397
1.12950,-48.16367358
1.13000,-33.81953642
1.13050,-28.9364259
1.13100,-27.71564827
1.13150,-20.69617689
1.13200,-9.098789398
1.13250,-2.079318021
1.13300,-1.468929206
1.13350,-0.5533459826
1.13400,0.05704283282
1.13450,-7.57281736
1.13500,-20.08578808
1.13550,-18.55981604
1.13600,9.212875064
1.13650,48.58295366
1.13700,72.69331187
1.13750,72.38811746
1.13800,58.0439803
1.13850,39.42712143
1.13900,17.75831848
1.13950,-3.910484467
1.14000,-18.55981604
1.14050,-21.0013713
1.14100,-16.42345518
1.14150,-9.403983806
1.14200,0.05704283282
1.14250,13.79079118
1.14300,28.13492834
1.14350,37.90114939
1.14400,39.42712143
1.14450,31.79726123
1.14500,19.58948493
1.14550,10.12845829
1.14600,5.245347764
1.14650,-0.8585403903
1.14700,-13.98189992
1.14750,-30.76759235
1.14800,-46.94289595
1.14850,-63.42339397
1.14900,-80.81947521
1.14950,-94.85841796
1.15000,-103.098667
1.15050,-107.9817775
1.15100,-111.0337216
1.15150,-107.3713887
1.15200,-96.07919559
1.15250,-80.5142808
1.15300,-52.7415897
1.15350,3.10898691
1.15400,83.68031054
1.15450,152.0438579
1.15500,177.3749937
1.15550,176.4594105
1.15600,187.7516036
1.15650,214.9139059
1.15700,223.7645437
1.15750,198.4334078
1.15800,163.6412454
1.15850,142.5828312
1.15900,127.6283053
1.15950,111.1478072
1.16000,114.5049457
1.16050,156.9269684
1.16100,216.4398779
1.16150,254.2839844
1.16200,264.6605943
1.16250,271.9852601
1.16300,282.6670644
1.16350,278.3943427
1.16400,253.97879
1.16450,230.7840151
1.16500,219.491822
1.16550,194.7710749
1.16600,130.6802493
1.16650,35.45959413
1.16700,-61.89742193
1.16750,-149.7934113
1.16800,-233.1114847
1.16850,-307.8841145
1.16900,-361.9035247
1.16950,-391.8125767
1.17000,-404.9359362
1.17050,-400.6632145
1.17100,-370.4489681
1.17150,-317.0399468
1.17200,-260.5789813
1.17250,-213.884237
1.17300,-169.3258534
1.17350,-118.0531929
1.17400,-68.91689331
1.17450,-39.00784135
1.17500,-27.71564827
1.17550,-22.83253774
1.17600,-20.69617689
1.17650,-29.54681471
1.17700,-52.43639529
1.17750,-80.20908639
1.17800,-103.4038614
1.17850,-121.105137
1.17900,-133.0077189
1.17950,-134.533691
1.18000,-124.4622755
1.18050,-108.8973607
1.18100,-93.02725152
1.18150,-70.74805975
1.18200,-38.09225813
1.18250,-2.079318021
1.18300,25.38817867
1.18350,42.78425991
1.18400,54.3816474
1.18450,58.0439803
1.18500,49.80373129
1.18550,31.18687242
1.18600,11.34923592
1.18650,-6.352039729
1.18700,-24.66370419
1.18750,-43.58575747
1.18800,-58.84547785
1.18850,-69.52728212
1.18900,-78.98830876
1.18950,-88.4493354
1.19000,-97.91036204
1.19050,-108.8973607
1.19100,-122.0207202
1.19150,-127.819414
1.19200,-114.6960545
1.19250,-80.5142808
1.19300,-38.09225813
1.19350,-2.994901244
1.19400,18.97909611
1.19450,33.01803886
1.19500,44.00503754
1.19550,52.24528655
1.19600,55.60242503
1.19650,52.55048096
1.19700,45.53100958
1.19750,36.68037176
1.19800,25.08298426
1.19850,11.34923592
1.19900,3.414181318
1.19950,10.12845829
1.20000,29.05051156
1.20050,47.66737043
1.20100,58.95956352
1.20150,68.42059016
1.20200,82.1543385
1.20250,96.80367007
1.20300,103.8231415
1.20350,101.0763918
1.20400,91.31017074
1.20450,77.8816168
1.20500,64.45306286
1.20550,56.51800826
1.20600,56.82320267
1.20650,60.48553556
1.20700,65.9790349
1.20750,80.62836647
1.20800,110.5374184
1.20850,144.7191921
1.20900,159.3685237
1.20950,145.3295809
1.21000,120.6088339
1.21050,110.8426128
1.21100,121.8296115
1.21150,138.3101095
1.21200,148.9919138
1.21250,157.2321628
1.21300,166.0828006
1.21350,163.9464398
1.21400,137.3945263
1.21450,91.31017074
1.21500,46.1413984
1.21550,11.34923592
1.21600,-20.08578808
1.21650,-53.35197851
1.21700,-80.5142808
1.21750,-93.02725152
1.21800,-98.21555645
1.21850,-108.8973607
1.21900,-125.0726643
1.21950,-137.585635
1.22000,-142.1635512
1.22050,-142.1635512
1.22100,-136.3648574
1.22150,-123.5466923
1.22200,-111.0337216
1.22250,-105.5402222
1.22300,-97.60516763
1.22350,-72.27403179
1.22400,-35.04031405
1.22450,-6.352039729
1.22500,15.31676322
1.22550,51.63489773
1.22600,104.4335303
1.22650,144.4139977
1.22700,156.9269684
1.22750,173.102272
1.22800,224.6801269
1.22850,288.7709525
1.22900,315.0176716
1.22950,294.2644519
1.23000,260.693067
1.23050,236.8879032
1.23100,212.4723506
1.23150,187.1412148
1.23200,181.9529098
1.23250,199.9593799
1.23300,206.9788513
1.23350,181.9529098
1.23400,151.4334691
1.23450,149.6023026
1.23500,164.862023
1.23550,154.7906075
1.23600,99.55041974
1.23650,13.48559677
1.23700,-83.87141929
1.23750,-181.2284353
1.23800,-264.8517031
1.23850,-322.8386405
1.23900,-356.7152198
1.23950,-374.4164954
1.24000,-376.5528563
1.24050,-363.1243023
1.24100,-343.5918602
1.24150,-328.6373343
1.24200,-314.9035859
1.24250,-294.1503662
1.24300,-269.7348136
1.24350,-250.2023715
1.24400,-232.5010958
1.24450,-208.0855432
1.24500,-178.7868801
1.24550,-153.4557442
1.24600,-133.6181077
1.24650,-116.5272209
1.24700,-103.4038614
1.24750,-93.33244592
1.24800,-79.90389198
1.24850,-61.28703312
1.24900,-47.85847918
1.24950,-46.63770155
1.25000,-45.11172951
1.25050,-28.9364259
1.25100,-4.520873283
1.25150,10.7388471
1.25200,18.36870729
1.25250,29.96609479
1.25300,46.75178721
1.25350,59.87514674
1.25400,66.58942371
1.25450,71.77772864
1.25500,72.38811746
1.25550,63.84267404
1.25600,54.99203622
1.25650,62.316702
1.25700,83.37511614
1.25750,97.41405889
1.25800,93.751726
1.25850,81.8491441
1.25900,72.38811746
1.25950,63.84267404
1.26000,54.3816474
1.26050,51.63489773
1.26100,58.65436911
1.26150,62.316702
1.26200,50.1089257
1.26250,25.69337308
1.26300,1.277820464
1.26350,-20.69617689
1.26400,-44.8065351
1.26450,-67.08572686
1.26500,-77.46233672
1.26550,-77.15714232
1.26600,-83.56622488
1.26650,-103.7090558
1.26700,-116.5272209
1.26750,-89.97530744
1.26800,-22.22214893
1.26850,51.32970333
1.26900,93.44653159
1.26950,96.49847567
1.27000,78.79720002
1.27050,57.43359148
1.27100,38.81673261
1.27150,22.03104019
1.27200,7.07651421
1.27250,-7.878011767
1.27300,-21.91695452
1.27350,-26.18967623
1.27400,-14.59228874
1.27450,7.992097433
1.27500,31.18687242
1.27550,49.19334247
1.27600,63.53747963
1.27650,76.66083917
1.27700,87.64783784
1.27750,96.80367007
1.27800,105.0439191
1.27850,105.0439191
1.27900,88.56342107
1.27950,56.82320267
1.28000,22.03104019
1.28050,-1.163734798
1.28100,-3.300095652
1.28150,16.84273526
1.28200,49.19334247
1.28250,75.13486713
1.28300,80.93356087
1.28350,71.47253423
1.28400,59.56995233
1.28450,52.55048096
1.28500,49.80373129
1.28550,50.1089257
1.28600,55.60242503
1.28650,65.9790349
1.28700,76.96603357
1.28750,84.90108817
1.28800,89.17380988
1.28850,91.61536514
1.28900,100.466003
1.28950,127.0179164
1.29000,168.2191615
1.29050,204.2321016
1.29100,220.4074052
1.29150,227.732071
1.29200,242.3814025
1.29250,253.6735956
1.29300,231.3944039
1.29350,166.387995
1.29400,81.8491441
1.29450,3.414181318
1.29500,-69.52728212
1.29550,-143.3843288
1.29600,-204.1180159
1.29650,-231.2803182
1.29700,-228.5335685
1.29750,-219.3777363
1.29800,-215.7154034
1.29850,-210.2219041
1.29900,-193.1310172
1.29950,-162.0011877
1.30000,-112.5596936
1.30050,-42.67017425
1.30100,24.77778986
1.30150,51.94009214
1.30200,25.99856749
1.30250,-19.78059367
1.30300,-47.55328477
1.30350,-55.48833937
1.30400,-63.72858838
1.30450,-72.27403179
1.30500,-61.59222752
1.30550,-31.68317557
1.30600,-7.267622952
1.30650,-4.215678875
1.30700,-8.793594991
1.30750,-5.131262098
1.30800,0.05704283282
1.30850,-4.82606769
1.30900,-17.64423281
1.30950,-26.80006504
1.31000,-33.51434201
1.31050,-45.41692391
1.31100,-62.50781075
1.31150,-75.32597587
1.31200,-79.59869758
1.31250,-82.65064165
1.31300,-91.50127948
1.31350,-106.150611
1.31400,-121.4103314
1.31450,-133.6181077
1.31500,-143.9947176
1.31550,-156.5076883
1.31600,-167.7998814
1.31650,-168.1050758
1.31700,-153.4557442
1.31750,-133.6181077
1.31800,-121.4103314
1.31850,-114.3908601
1.31900,-100.9623061
1.31950,-76.24155909
1.32000,-46.63770155
1.32050,-18.55981604
1.32100,6.771319802
1.32150,27.82973393
1.32200,43.39464873
1.32250,56.82320267
1.32300,68.72578457
1.32350,73.30370068
1.32400,68.42059016
1.32450,63.84267404
1.32500,68.42059016
1.32550,77.27122798
1.32600,81.8491441
1.32650,85.8166714
1.32700,92.53094837
1.32750,91.00497633
1.32800,71.47253423
1.32850,53.46606418
1.32900,64.14786845
1.32950,98.94003093
1.33000,127.0179164
1.33050,137.3945263
1.33100,147.7711362
1.33150,167.6087727
1.33200,176.7646049
1.33250,155.7061908
1.33300,112.3685849
1.33350,65.67384049
1.33400,20.50506815
1.33450,-27.41045386
1.33500,-74.10519824
1.33550,-106.7609999
1.33600,-120.7999426
1.33650,-121.7155258
1.33700,-118.3583874
1.33750,-115.3064433
1.33800,-106.150611
1.33850,-77.76753113
1.33900,-27.71564827
1.33950,26.3037619
1.34000,60.48553556
1.34050,68.11539575
1.34100,61.09592437
1.34150,46.75178721
1.34200,21.72584578
1.34250,-13.67670551
1.34300,-49.99484003
1.34350,-76.24155909
1.34400,-90.58569625
1.34450,-91.50127948
1.34500,-73.49480942
1.34550,-34.42992524
1.34600,16.23234644
1.34650,65.06345167
1.34700,105.6543079
1.34750,142.2776368
1.34800,175.8490217
1.34850,193.5502973
1.34900,181.0373266
1.34950,144.7191921
1.35000,116.0309178
1.35050,124.5763612
1.35100,166.0828006
1.35150,208.8100177
1.35200,225.2905157
1.35250,213.9983226
1.35300,182.868493
1.35350,133.426999
1.35400,63.53747963
1.35450,-15.50787196
1.35500,-81.73505843
1.35550,-116.8324153
1.35600,-119.579165
1.35650,-104.0142502
1.35700,-83.56622488
1.35750,-61.28703312
1.35800,-33.20914761
1.35850,-1.468929206
1.35900,21.42065137
1.35950,25.69337308
1.36000,13.18040236
1.36050,-13.0663167
1.36100,-58.54028345
1.36150,-125.9882475
1.36200,-202.2868495
1.36250,-269.7348136
1.36300,-324.9750014
1.36350,-373.5009122
1.36400,-408.9034635
1.36450,-418.3644901
1.36500,-403.4099641
1.36550,-376.2476619
1.36600,-337.1827777
1.36650,-277.9750626
1.36700,-205.643988
1.36750,-139.1116071
1.36800,-79.59869758
1.36850,-9.098789398
1.36900,70.86214542
1.36950,130.3750549
1.37000,155.0958019
1.37050,178.9009657
1.37100,241.1606249
1.37150,328.7514199
1.37200,389.7903015
1.37250,399.2513281
1.37300,382.7708301
1.37350,373.9201923
1.37400,373.004609
1.37450,357.1344998
1.37500,317.7644213
1.37550,273.5112321
1.37600,250.3164571
1.37650,253.97879
1.37700,258.5567062
1.37750,228.0372654
1.37800,147.4659418
1.37850,35.45959413
1.37900,-80.5142808
1.37950,-190.3842676
1.38000,-293.5399774
1.38050,-381.4359668
1.38100,-441.5592651
1.38150,-475.7410388
1.38200,-495.2734809
1.38250,-499.2410082
1.38300,-477.2670108
1.38350,-432.4034329
1.38400,-386.0138829
1.38450,-349.390554
1.38500,-312.4620307
1.38550,-264.5465086
1.38600,-213.2738482
1.38650,-169.6310478
1.38700,-127.5142196
1.38750,-78.37791995
1.38800,-31.07278675
1.38850,1.277820464
1.38900,25.69337308
1.38950,60.18034115
1.39000,105.3491135
1.39050,142.8880256
1.39100,164.2516342
1.39150,179.5113546
1.39200,197.2126302
1.39250,208.1996289
1.39300,200.8749631
1.39350,182.2581042
1.39400,170.6607167
1.39450,175.5438273
1.39500,188.056798
1.39550,195.0762694
1.39600,193.5502973
1.39650,191.1087421
1.39700,193.8554917
1.39750,200.2645743
1.39800,204.537296
1.39850,203.6217128
1.39900,198.1282134
1.39950,186.2256315
1.40000,166.9983838
1.40050,142.8880256
1.40100,116.6413066
1.40150,85.51147699
1.40200,41.25828787
1.40250,-17.64423281
1.40300,-85.39739132
1.40350,-154.0661331
1.40400,-218.1569587
1.40450,-273.0919521
1.40500,-317.3451412
1.40550,-350.6113316
1.40600,-369.5333849
1.40650,-364.6502744
1.40700,-336.5723889
1.40750,-303.6113928
1.40800,-278.5854514
1.40850,-242.8777057
1.40900,-165.968715
1.40950,-54.57275615
1.41000,41.86867669
1.41050,84.59589377
1.41100,80.32317206
1.41150,62.92709082
1.41200,52.24528655
1.41250,48.58295366
1.41300,46.75178721
1.41350,45.22581517
1.41400,48.58295366
1.41450,71.16733983
1.41500,118.472473
1.41550,172.7970776
1.41600,208.5048233
1.41650,233.5307647
1.41700,279.0047315
1.41750,342.4851683
1.41800,376.3617475
1.41850,349.8098341
1.41900,292.4332854
1.41950,246.9593187
1.42000,207.8944345
1.42050,143.4984145
1.42100,58.65436911
1.42150,-7.57281736
1.42200,-35.65070287
1.42250,-39.00784135
1.42300,-30.76759235
1.42350,-12.76112229
1.42400,9.518069472
1.42450,23.86220663
1.42500,30.2712892
1.42550,34.2388165
1.42600,27.82973393
1.42650,-1.774123613
1.42700,-48.46886799
1.42750,-93.63764033
1.42800,-135.1440798
1.42850,-181.2284353
1.42900,-222.124486
1.42950,-237.079012
1.43000,-224.5660412
1.43050,-203.5076271
1.43100,-181.5336297
1.43150,-151.3193834
1.43200,-115.0012489
1.43250,-83.26103047
1.43300,-52.43639529
1.43350,-10.01437262
1.43400,37.59595498
1.43450,69.03097897
1.43500,78.49200561
1.43550,83.06992173
1.43600,91.00497633
1.43650,92.53094837
1.43700,80.93356087
1.43750,63.84267404
1.43800,49.49853688
1.43850,38.81673261
1.43900,37.59595498
1.43950,51.02450892
1.44000,72.69331187
1.44050,92.53094837
1.44100,114.1997513
1.44150,144.7191921
1.44200,172.4918832
1.44250,177.0697993
1.44300,158.7581348
1.44350,135.2581654
1.44400,111.4530016
1.44450,76.35564476
1.44500,26.6089563
1.44550,-25.88448182
1.44600,-76.24155909
1.44650,-129.9557748
1.44700,-183.0596018
1.44750,-217.2413755
1.44800,-222.4296804
1.44850,-208.3907376
1.44900,-191.2998508
1.44950,-177.260908
1.45000,-165.6635205
1.45050,-154.9817163
1.45100,-147.0466617
1.45150,-141.8583567
1.45200,-136.6700518
1.45250,-125.6830531
1.45300,-105.8454166
1.45350,-84.4818081
1.45400,-71.66364298
1.45450,-60.6766443
1.45500,-35.65070287
1.45550,1.583014871
1.45600,32.10245564
1.45650,50.71931451
1.45700,80.32317206
1.45750,134.3425822
1.45800,186.8360203
1.45850,203.011324
1.45900,180.7321322
1.45950,138.9204983
1.46000,87.34264344
1.46050,27.82973393
1.46100,-24.9688986
1.46150,-57.62470022
1.46200,-80.81947521
1.46250,-111.9493048
1.46300,-140.9427735
1.46350,-140.9427735
1.46400,-117.4428041
1.46450,-103.098667
1.46500,-97.60516763
1.46550,-50.60522885
1.46600,77.27122798
1.46650,255.8099565
1.46700,408.4071603
1.46750,484.0953734
1.46800,486.2317343
1.46850,440.7577676
1.46900,365.6799433
1.46950,270.1540936
1.47000,167.3035783
1.47050,73.9140895
1.47100,0.6674316482
1.47150,-50.60522885
1.47200,-83.26103047
1.47250,-101.2675005
1.47300,-108.2869719
1.47350,-108.2869719
1.47400,-105.5402222
1.47450,-98.52075085
1.47500,-82.34544725
1.47550,-56.40392259
1.47600,-30.15720353
1.47650,-19.17020485
1.47700,-28.02084268
1.47750,-48.16367358
1.47800,-64.6441716
1.47850,-68.91689331
1.47900,-59.15067226
1.47950,-36.8714805
1.48000,-7.267622952
1.48050,22.03104019
1.48100,44.92062076
1.48150,58.65436911
1.48200,61.70631319
1.48250,48.88814807
1.48300,12.57001355
1.48350,-48.16367358
1.48400,-118.0531929
1.48450,-173.2933807
1.48500,-201.3712663
1.48550,-209.9167097
1.48600,-214.7998202
1.48650,-220.5985139
1.48700,-216.936181
1.48750,-195.2673781
1.48800,-162.0011877
1.48850,-131.7869413
1.48900,-112.5596936
1.48950,-102.7934726
1.49000,-98.82594526
1.49050,-98.52075085
1.49100,-98.82594526
1.49150,-94.55322355
1.49200,-82.65064165
1.49250,-64.94936601
1.49300,-45.11172951
1.49350,-25.27409301
1.49400,-8.488400583
1.49450,3.10898691
1.49500,11.65443033
1.49550,17.45312407
1.49600,16.23234644
1.49650,4.329764541
1.49700,-7.267622952
1.49750,0.05704283282
1.49800,27.52453953
1.49850,51.32970333
1.49900,47.66737043
1.49950,22.3362346
1.50000,0.05704283282
1.50050,-9.098789398
1.50100,-15.50787196
1.50150,-27.71564827
1.50200,-37.17667491
1.50250,-34.12473083
1.50300,-21.61176011
1.50350,-8.488400583
1.50400,1.277820464
1.50450,8.297291841
1.50500,11.95962473
1.50550,12.87520796
1.50600,14.09598559
1.50650,13.48559677
1.50700,8.602486248
1.50750,10.7388471
1.50800,41.86867669
1.50850,103.8231415
1.50900,166.387995
1.50950,197.2126302
1.51000,196.6022414
1.51050,182.5632986
1.51100,161.8100789
1.51150,127.6283053
1.51200,87.34264344
1.51250,59.87514674
1.51300,50.1089257
1.51350,46.75178721
1.51400,55.29723063
1.51450,98.02444771
1.51500,178.5957713
1.51550,261.3034558
1.51600,304.0306729
1.51650,299.1475624
1.51700,267.1021496
1.51750,219.491822
1.51800,154.1802187
1.51850,73.30370068
1.51900,-6.962428544
1.51950,-72.5792262
1.52000,-121.7155258
1.52050,-154.9817163
1.52100,-168.4102702
1.52150,-161.3907988
1.52200,-142.1635512
1.52250,-118.3583874
1.52300,-83.87141929
1.52350,-30.76759235
1.52400,28.13492834
1.52450,65.06345167
1.52500,65.06345167
1.52550,42.4790655
1.52600,13.18040236
1.52650,-24.35850978
1.52700,-72.27403179
1.52750,-101.5726949
1.52800,-72.88442061
1.52850,7.992097433
1.52900,88.25822666
1.52950,122.1348059
1.53000,116.0309178
1.53050,101.991975
1.53100,90.69978192
1.53150,74.2192839
1.53200,55.90761944
1.53250,47.66737043
1.53300,40.64789906
1.53350,11.04404151
1.53400,-43.28056306
1.53450,-94.85841796
1.53500,-119.2739706
1.53550,-120.7999426
1.53600,-108.8973607
1.53650,-77.15714232
1.53700,-19.17020485
1.53750,50.1089257
1.53800,106.5698911
1.53850,141.9724424
1.53900,163.0308565
1.53950,173.4074664
1.54000,171.5763
1.54050,162.7256621
1.54100,154.1802187
1.54150,141.0568592
1.54200,112.6737793
1.54250,68.42059016
1.54300,16.23234644
1.54350,-43.28056306
1.54400,-113.7804712
1.54450,-186.1115459
1.54500,-242.2673169
1.54550,-278.280257
1.54600,-304.2217816
1.54650,-326.195779
1.54700,-339.3191385
1.54750,-344.5074435
1.54800,-350.3061372
1.54850,-355.7996365
1.54900,-343.8970546
1.54950,-301.475032
1.55000,-237.6894008
1.55050,-173.2933807
1.55100,-122.6311091
1.55150,-88.75452981
1.55200,-67.69611568
1.55250,-55.48833937
1.55300,-49.99484003
1.55350,-49.07925681
1.55400,-42.97536865
1.55450,-17.33903841
1.55500,26.3037619
1.55550,69.33617338
1.55600,91.92055955
1.55650,91.92055955
1.55700,77.8816168
1.55750,58.3491747
1.55800,43.08945432
1.55850,36.98556616
1.55900,27.82973393
1.55950,-0.2481515749
1.56000,-32.9039532
1.56050,-25.27409301
1.56100,35.76478853
1.56150,104.4335303
1.56200,137.3945263
1.56250,158.4529404
1.56300,222.2385716
1.56350,327.8358367
1.56400,412.0694932
1.56450,428.8551857
1.56500,394.3682176
1.56550,347.0630844
1.56600,298.842368
1.56650,242.0762081
1.56700,176.4594105
1.56750,110.8426128
1.56800,51.94009214
1.56850,2.498598094
1.56900,-38.09225813
1.56950,-76.5467535
1.57000,-118.6635818
1.57050,-158.3388548
1.57100,-185.1959626
1.57150,-200.1504886
1.57200,-211.1374873
1.57250,-219.3777363
1.57300,-219.9881251
1.57350,-214.4946258
1.57400,-209.6115153
1.57450,-201.9816551
1.57500,-180.3128521
1.57550,-143.3843288
1.57600,-107.0661943
1.57650,-85.39739132
1.57700,-78.98830876
1.57750,-77.15714232
1.57800,-70.74805975
1.57850,-54.26756174
1.57900,-27.71564827
1.57950,2.803792502
1.58000,26.91415071
1.58050,38.5115382
1.58100,41.56348228
1.58150,44.31023195
1.58200,48.58295366
1.58250,49.19334247
1.58300,40.95309346
1.58350,25.38817867
1.58400,7.686903025
1.58450,-10.01437262
1.58500,-29.54681471
1.58550,-49.68964562
1.58600,-68.91689331
1.58650,-86.61816895
1.58700,-100.6571117
1.58750,-104.624639
1.58800,-95.77400119
1.58850,-84.4818081
1.58900,-77.15714232
1.58950,-60.37144989
1.59000,-15.81306637
1.59050,44.61542636
1.59100,84.59589377
1.59150,85.8166714
1.59200,68.11539575
1.59250,54.3816474
1.59300,43.39464873
1.59350,26.6089563
1.59400,13.18040236
1.59450,18.6739017
1.59500,39.73231583
1.59550,63.23228523
1.59600,85.51147699
1.59650,109.0114464
1.59700,127.9334997
1.59750,131.901027
1.59800,123.0503891
1.59850,109.6218352
1.59900,90.39458751
1.59950,61.09592437
1.60000,27.21934512
1.60050,2.193403687
1.60100,-11.23515025
1.60150,-22.83253774
1.60200,-36.8714805
1.60250,-48.46886799
1.60300,-52.43639529
1.60350,-46.33250714
1.60400,-27.71564827
1.60450,3.719375725
1.60500,38.2063438
1.60550,62.92709082
1.60600,76.96603357
1.60650,89.17380988
1.60700,101.0763918
1.60750,102.6023638
1.60800,91.00497633
1.60850,81.23875528
1.60900,84.90108817
1.60950,87.03744903
1.61000,63.23228523
1.61050,16.53754085
1.61100,-13.67670551
1.61150,4.940153356
1.61200,58.3491747
1.61250,97.7192533
1.61300,93.44653159
1.61350,62.316702
1.61400,35.76478853
1.61450,19.89467933
1.61500,-3.60529006
1.61550,-42.36497984
1.61600,-81.12466962
1.61650,-103.098667
1.61700,-112.2544992
1.61750,-122.3259147
1.61800,-132.0921357
1.61850,-126.5986364
1.61900,-100.9623061
1.61950,-68.00131008
1.62000,-35.95589728
1.62050,4.940153356
1.62100,68.72578457
1.62150,145.3295809
1.62200,204.8424904
1.62250,225.9009045
1.62300,209.7256009
1.62350,169.4399391
1.62400,118.1672786
1.62450,70.86214542
1.62500,37.29076057
1.62550,9.823263879
1.62600,-30.15720353
1.62650,-86.31297455
1.62700,-132.7025245
1.62750,-141.8583567
1.62800,-115.0012489
1.62850,-75.02078146
1.62900,-40.8390078
1.62950,-16.72864959
1.63000,-3.910484467
1.63050,-2.384512429
1.63100,-7.267622952
1.63150,-10.62476144
1.63200,-11.84553907
1.63250,-12.45592788
1.63300,-7.878011767
1.63350,8.907680656
1.63400,36.37517735
1.63450,62.0115076
1.63500,75.44006154
1.63550,73.9140895
1.63600,56.82320267
1.63650,27.52453953
1.63700,-5.741650914
1.63750,-35.34550846
1.63800,-61.89742193
1.63850,-85.70258573
1.63900,-93.63764033
1.63950,-60.06625548
1.64000,19.28429052
1.64050,109.0114464
1.64100,156.0113852
1.64150,139.5308872
1.64200,85.8166714
1.64250,35.15439972
1.64300,0.05704283282
1.64350,-28.9364259
1.64400,-53.65717292
1.64450,-62.20261634
1.64500,-54.87795055
1.64550,-49.38445121
1.64600,-51.52081207
1.64650,-46.63770155
1.64700,-27.10525945
1.64750,-10.31956703
1.64800,-15.81306637
1.64850,-39.61823017
1.64900,-71.35844857
1.64950,-116.8324153
1.65000,-179.0920745
1.65050,-228.8387629
1.65100,-228.2283741
1.65150,-178.1764913
1.65200,-115.9168321
1.65250,-68.6116989
1.65300,-33.20914761
1.65350,-1.163734798
1.65400,18.97909611
1.65450,21.72584578
1.65500,18.97909611
1.65550,23.55701223
1.65600,28.13492834
1.65650,18.06351289
1.65700,-6.046845321
1.65750,-30.15720353
1.65800,-44.19614628
1.65850,-49.07925681
1.65900,-49.68964562
1.65950,-48.46886799
1.66000,-49.68964562
1.66050,-59.45586667
1.66100,-77.15714232
1.66150,-93.94283474
1.66200,-97.91036204
1.66250,-86.61816895
1.66300,-66.17014364
1.66350,-39.31303576
1.66400,-3.910484467
1.66450,32.71284446
1.66500,54.076453
1.66550,51.32970333
1.66600,43.08945432
1.66650,55.60242503
1.66700,89.17380988
1.66750,112.9789737
1.66800,101.3815862
1.66850,64.75825727
1.66900,38.5115382
1.66950,43.39464873
1.67000,68.11539575
1.67050,88.25822666
1.67100,91.92055955
1.67150,86.1218658
1.67200,78.1868112
1.67250,65.67384049
1.67300,43.69984313
1.67350,19.28429052
1.67400,4.940153356
1.67450,1.583014871
1.67500,-3.300095652
1.67550,-17.33903841
1.67600,-31.98836998
1.67650,-42.05978543
1.67700,-57.01431141
1.67750,-86.61816895
1.67800,-119.8843594
1.67850,-134.8388854
1.67900,-125.6830531
1.67950,-107.0661943
1.68000,-94.55322355
1.68050,-86.00778014
1.68100,-73.80000383
1.68150,-62.20261634
1.68200,-64.03378278
1.68250,-82.34544725
1.68300,-102.4882782
1.68350,-112.2544992
1.68400,-115.9168321
1.68450,-123.2414979
1.68500,-130.5661637
1.68550,-124.7674699
1.68600,-104.624639
1.68650,-85.39739132
1.68700,-77.15714232
1.68750,-70.74805975
1.68800,-54.57275615
1.68850,-31.68317557
1.68900,-12.76112229
1.68950,0.05704283282
1.69000,10.7388471
1.69050,18.97909611
1.69100,24.77778986
1.69150,33.62842768
1.69200,50.1089257
1.69250,71.47253423
1.69300,94.0569204
1.69350,118.472473
1.69400,137.0893319
1.69450,143.19322
1.69500,153.5698299
1.69550,205.7580736
1.69600,306.1670338
1.69650,401.6928834
1.69700,433.1279074
1.69750,400.4721057
1.69800,346.75789
1.69850,293.654063
1.69900,227.1216822
1.69950,148.0763306
1.70000,85.8166714
1.70050,55.60242503
1.70100,34.2388165
1.70150,-4.215678875
1.70200,-54.87795055
1.70250,-96.07919559
1.70300,-121.4103314
1.70350,-136.3648574
1.70400,-142.4687456
1.70450,-140.3323847
1.70500,-134.2284966
1.70550,-126.5986364
1.70600,-117.1376097
1.70650,-111.6441104
1.70700,-117.4428041
1.70750,-126.9038308
1.70800,-123.5466923
1.70850,-106.4558055
1.70900,-93.02725152
1.70950,-85.70258573
1.71000,-64.33897719
1.71050,-20.39098248
1.71100,24.16740104
1.71150,46.4465928
1.71200,51.32970333
1.71250,51.02450892
1.71300,43.08945432
1.71350,27.21934512
1.71400,23.25181782
1.71450,44.31023195
1.71500,69.64136779
1.71550,79.10239443
1.71600,96.49847567
1.71650,160.2841069
1.71700,256.7255397
1.71750,327.8358367
1.71800,340.6540018
1.71850,313.7968939
1.71900,269.2385104
1.71950,202.0957407
1.72000,112.6737793
1.72050,29.66090038
1.72100,-23.44292656
1.72150,-58.84547785
1.72200,-92.72205711
1.72250,-116.5272209
1.72300,-115.9168321
1.72350,-104.3194446
1.72400,-105.5402222
1.72450,-118.0531929
1.72500,-121.4103314
1.72550,-108.2869719
1.72600,-80.81947521
1.72650,-31.07278675
1.72700,50.1089257
1.72750,143.8036089
1.72800,206.6736568
1.72850,213.0827394
1.72900,176.7646049
1.72950,134.0373878
1.73000,109.0114464
1.73050,104.4335303
1.73100,109.9270296
1.73150,116.0309178
1.73200,121.2192227
1.73250,124.2711668
1.73300,117.2516954
1.73350,92.22575396
1.73400,50.71931451
1.73450,0.05704283282
1.73500,-59.76106108
1.73550,-135.1440798
1.73600,-224.5660412
1.73650,-316.7347524
1.73700,-397.6112704
1.73750,-451.6306806
1.73800,-461.702096
1.73850,-428.4359056
1.73900,-377.7736339
1.73950,-330.7736951
1.74000,-270.040008
1.74050,-169.6310478
1.74100,-50.60522885
1.74150,26.6089563
1.74200,39.12192702
1.74250,24.47259545
1.74300,18.6739017
1.74350,6.466125395
1.74400,-38.39745254
1.74450,-97.29997322
1.74500,-124.1570811
1.74550,-105.2350278
1.74600,-68.00131008
1.74650,-38.70264695
1.74700,-20.08578808
1.74750,-5.436456506
1.74800,7.686903025
1.74850,22.641429
1.74900,40.03751024
1.74950,51.94009214
1.75000,51.94009214
1.75050,44.31023195
1.75100,37.90114939
1.75150,31.49206683
1.75200,19.28429052
1.75250,4.329764541
1.75300,-7.57281736
1.75350,-22.52734334
1.75400,-49.99484003
1.75450,-85.39739132
1.75500,-110.1181383
1.75550,-115.6116377
1.75600,-113.1700824
1.75650,-117.1376097
1.75700,-125.9882475
1.75750,-129.6505804
1.75800,-124.4622755
1.75850,-114.3908601
1.75900,-101.5726949
1.75950,-84.17661369
1.76000,-64.6441716
1.76050,-49.07925681
1.76100,-38.39745254
1.76150,-24.66370419
1.76200,-3.60529006
1.76250,18.36870729
1.76300,34.2388165
1.76350,46.1413984
1.76400,60.18034115
1.76450,74.2192839
1.76500,85.51147699
1.76550,101.991975
1.76600,134.0373878
1.76650,173.4074664
1.76700,196.6022414
1.76750,192.9399085
1.76800,175.2386329
1.76850,157.8425516
1.76900,138.3101095
1.76950,111.7581961
1.77000,84.90108817
1.77050,68.11539575
1.77100,57.12839707
1.77150,41.56348228
1.77200,20.50506815
1.77250,2.498598094
1.77300,-8.183206175
1.77350,-16.42345518
1.77400,-24.66370419
1.77450,-32.29356438
1.77500,-40.8390078
1.77550,-49.38445121
1.77600,-43.28056306
1.77650,-6.657234137
1.77700,55.29723063
1.77750,115.7257234
1.77800,149.907497
1.77850,159.0633292
1.77900,156.9269684
1.77950,149.2971082
1.78000,137.0893319
1.78050,127.0179164
1.78100,125.4919444
1.78150,125.7971388
1.78200,116.946501
1.78250,103.2127526
1.78300,99.85561415
1.78350,109.9270296
1.78400,122.1348059
1.78450,130.6802493
1.78500,144.7191921
1.78550,168.2191615
1.78600,181.0373266
1.78650,158.7581348
1.78700,101.0763918
1.78750,30.5764836
1.78800,-37.17667491
1.78850,-106.4558055
1.78900,-183.3647962
1.78950,-256.3062596
1.79000,-303.6113928
1.79050,-318.5659188
1.79100,-315.2087803
1.79150,-305.4425593
1.79200,-285.2997284
1.79250,-243.4880945
1.79300,-184.2803794
1.79350,-124.7674699
1.79400,-75.32597587
1.79450,-32.59875879
1.79500,5.245347764
1.79550,33.01803886
1.79600,45.83620399
1.79650,45.53100958
1.79700,35.76478853
1.79750,23.25181782
1.79800,28.44012275
1.79850,72.38811746
1.79900,141.9724424
1.79950,191.1087421
1.80000,190.4983532
1.80050,156.0113852
1.80100,117.8620842
1.80150,77.27122798
1.80200,18.97909611
1.80250,-48.7740624
1.80300,-100.6571117
1.80350,-129.345386
1.80400,-146.1310785
1.80450,-149.1830225
1.80500,-117.1376097
1.80550,-46.02731273
1.80600,35.15439972
1.80650,94.97250363
1.80700,127.3231108
1.80750,139.8360816
1.80800,138.9204983
1.80850,133.7321934
1.80900,140.141276
1.80950,160.5893013
1.81000,174.0178552
1.81050,164.862023
1.81100,147.1607473
1.81150,146.5503585
1.81200,163.0308565
1.81250,172.4918832
1.81300,159.3685237
1.81350,129.1542773
1.81400,88.86861547
1.81450,36.37517735
1.81500,-27.41045386
1.81550,-92.4168627
1.81600,-150.4038002
1.81650,-197.7089334
1.81700,-228.5335685
1.81750,-236.1634287
1.81800,-228.5335685
1.81850,-225.1764301
1.81900,-234.0270679
1.81950,-242.5725113
1.82000,-238.604984
1.82050,-225.1764301
1.82100,-207.16996
1.82150,-179.0920745
1.82200,-135.7544686
1.82250,-82.34544725
1.82300,-23.44292656
1.82350,45.83620399
1.82400,125.4919444
1.82450,193.5502973
1.82500,223.4593493
1.82550,212.4723506
1.82600,181.9529098
1.82650,152.9594411
1.82700,130.9854437
1.82750,110.8426128
1.82800,86.73225462
1.82850,58.3491747
1.82900,33.01803886
1.82950,22.03104019
1.83000,29.05051156
1.83050,46.1413984
1.83100,61.40111878
1.83150,69.33617338
1.83200,68.11539575
1.83250,54.68684181
1.83300,30.5764836
1.83350,7.992097433
1.83400,1.583014871
1.83450,13.48559677
1.83500,27.52453953
1.83550,29.05051156
1.83600,21.72584578
1.83650,23.25181782
1.83700,37.59595498
1.83750,47.66737043
1.83800,37.59595498
1.83850,18.97909611
1.83900,15.01156881
1.83950,22.03104019
1.84000,8.907680656
1.84050,-42.05978543
1.84100,-111.6441104
1.84150,-173.2933807
1.84200,-227.6179853
1.84250,-287.1308948
1.84300,-342.0658882
1.84350,-370.4489681
1.84400,-367.0918296
1.84450,-342.676277
1.84500,-303.9165872
1.84550,-251.7283435
1.84600,-201.3712663
1.84650,-172.9881863
1.84700,-163.2219653
1.84750,-150.7089946
1.84800,-126.293442
1.84850,-100.3519173
1.84900,-79.29350317
1.84950,-54.57275615
1.85000,-24.9688986
1.85050,-5.741650914
1.85100,-6.046845321
1.85150,-12.45592788
1.85200,-7.878011767
1.85250,5.855736579
1.85300,15.62195763
1.85350,17.14792966
1.85400,20.19987374
1.85450,32.40765005
1.85500,52.24528655
1.85550,71.77772864
1.85600,84.59589377
1.85650,89.47900429
1.85700,91.61536514
1.85750,95.27769804
1.85800,103.2127526
1.85850,114.8101401
1.85900,127.6283053
1.85950,132.8166102
1.86000,124.5763612
1.86050,109.9270296
1.86100,105.9595023
1.86150,120.6088339
1.86200,146.8555529
1.86250,174.3230496
1.86300,195.9918526
1.86350,203.6217128
1.86400,195.0762694
1.86450,188.3619924
1.86500,207.2840457
1.86550,243.6021802
1.86600,261.3034558
1.86650,245.1281522
1.86700,224.6801269
1.86750,226.8164878
1.86800,235.0567368
1.86850,223.1541549
1.86900,199.6541855
1.86950,190.1931588
1.87000,186.8360203
1.87050,162.4204677
1.87100,119.6932507
1.87150,92.22575396
1.87200,86.42706021
1.87250,69.64136779
1.87300,19.58948493
1.87350,-49.07925681
1.87400,-117.7479985
1.87450,-194.0466005
1.87500,-286.2153116
1.87550,-369.8385793
1.87600,-408.9034635
1.87650,-396.3904928
1.87700,-357.3256086
1.87750,-313.6828083
1.87800,-263.325731
1.87850,-194.3517949
1.87900,-109.8129439
1.87950,-33.20914761
1.88000,7.07651421
1.88050,4.634958948
1.88100,-18.86501044
1.88150,-39.00784135
1.88200,-50.60522885
1.88250,-63.42339397
1.88300,-77.15714232
1.88350,-79.29350317
1.88400,-71.35844857
1.88450,-71.35844857
1.88500,-86.92336336
1.88550,-100.6571117
1.88600,-93.63764033
1.88650,-70.44286535
1.88700,-46.63770155
1.88750,-26.49487064
1.88800,-3.60529006
1.88850,23.25181782
1.88900,48.27775925
1.88950,69.33617338
1.89000,88.86861547
1.89050,107.4854743
1.89100,124.2711668
1.89150,138.9204983
1.89200,150.2126914
1.89250,156.3165796
1.89300,157.2321628
1.89350,158.147746
1.89400,156.3165796
1.89450,140.7516648
1.89500,104.7387247
1.89550,58.0439803
1.89600,10.12845829
1.89650,-42.97536865
1.89700,-103.7090558
1.89750,-151.3193834
1.89800,-160.78041
1.89850,-139.4168015
1.89900,-125.3778587
1.89950,-143.0791344
1.90000,-175.734936
1.90050,-190.3842676
1.90100,-176.3453248
1.90150,-144.6051064
1.90200,-104.9298334
1.90250,-61.28703312
1.90300,-21.91695452
1.90350,4.024570133
1.90400,22.94662341
1.90450,50.1089257
1.90500,89.7841987
1.90550,129.7646661
1.90600,159.3685237
1.90650,179.816549
1.90700,185.9204371
1.90750,163.0308565
1.90800,116.3361122
1.90850,81.8491441
1.90900,86.73225462
1.90950,107.4854743
1.91000,94.97250363
1.91050,34.2388165
1.91100,-42.67017425
1.91150,-103.4038614
1.91200,-143.6895232
1.91250,-170.2414367
1.91300,-183.0596018
1.91350,-186.1115459
1.91400,-192.8258228
1.91450,-207.4751544
1.91500,-213.884237
1.91550,-198.929711
1.91600,-168.4102702
1.91650,-129.0401916
1.91700,-75.02078146
1.91750,-5.436456506
1.91800,55.90761944
1.91850,80.62836647
1.91900,64.14786845
1.91950,25.99856749
1.92000,-15.50787196
1.92050,-53.65717292
1.92100,-81.42986402
1.92150,-93.33244592
1.92200,-90.58569625
1.92250,-81.42986402
1.92300,-70.13767094
1.92350,-55.48833937
1.92400,-36.8714805
1.92450,-16.72864959
1.92500,2.498598094
1.92550,20.50506815
1.92600,36.06998294
1.92650,50.4141201
1.92700,65.36864608
1.92750,80.32317206
1.92800,91.61536514
1.92850,99.55041974
1.92900,106.5698911
1.92950,108.4010576
1.93000,95.27769804
1.93050,66.58942371
1.93100,37.90114939
1.93150,30.2712892
1.93200,51.32970333
1.93250,90.0893931
1.93300,128.8490829
1.93350,154.4854131
1.93400,165.1672174
1.93450,167.3035783
1.93500,168.5243559
1.93550,169.7451335
1.93600,164.5568286
1.93650,151.1282746
1.93700,135.8685543
1.93750,122.1348059
1.93800,102.6023638
1.93850,65.67384049
1.93900,15.92715203
1.93950,-29.85200912
1.94000,-61.28703312
1.94050,-81.42986402
1.94100,-96.68958441
1.94150,-104.0142502
1.94200,-97.29997322
1.94250,-78.68311435
1.94300,-52.7415897
1.94350,-20.39098248
1.94400,12.87520796
1.94450,27.21934512
1.94500,5.245347764
1.94550,-38.39745254
1.94600,-60.6766443
1.94650,-33.81953642
1.94700,20.81026256
1.94750,60.48553556
1.94800,69.03097897
1.94850,69.33617338
1.94900,84.29069936
1.94950,108.4010576
1.95000,122.1348059
1.95050,119.9984451
1.95100,109.9270296
1.95150,97.41405889
1.95200,82.76472732
1.95250,67.81020134
1.95300,50.1089257
1.95350,16.53754085
1.95400,-42.36497984
1.95450,-113.1700824
1.95500,-169.3258534
1.95550,-204.1180159
1.95600,-230.6699294
1.95650,-250.2023715
1.95700,-244.0984833
1.95750,-208.695932
1.95800,-167.1894926
1.95850,-140.9427735
1.95900,-122.9363035
1.95950,-103.098667
1.96000,-94.24802915
1.96050,-109.8129439
1.96100,-129.9557748
1.96150,-120.1895538
1.96200,-79.59869758
1.96250,-40.53381339
1.96300,-24.05331538
1.96350,-17.033844
1.96400,-1.163734798
1.96450,22.641429
1.96500,44.00503754
1.96550,58.0439803
1.96600,67.81020134
1.96650,76.05045035
1.96700,84.29069936
1.96750,87.34264344
1.96800,76.96603357
1.96850,49.19334247
1.96900,16.84273526
1.96950,-1.774123613
1.97000,-6.352039729
1.97050,-6.962428544
1.97100,-7.878011767
1.97150,-1.468929206
1.97200,15.62195763
1.97250,36.68037176
1.97300,53.16086977
1.97350,67.19981253
1.97400,80.62836647
1.97450,90.0893931
1.97500,90.0893931
1.97550,80.93356087
1.97600,64.45306286
1.97650,39.73231583
1.97700,12.57001355
1.97750,-1.774123613
1.97800,9.212875064
1.97850,40.95309346
1.97900,75.74525594
1.97950,105.3491135
1.98000,133.426999
1.98050,157.2321628
1.98100,159.0633292
1.98150,131.5958326
1.98200,94.97250363
1.98250,81.23875528
1.98300,93.751726
1.98350,102.9075582
1.98400,84.90108817
1.98450,47.05698162
1.98500,12.87520796
1.98550,-5.741650914
1.98600,-13.67670551
1.98650,-20.69617689
1.98700,-37.48186931
1.98750,-69.83247653
1.98800,-107.3713887
1.98850,-127.5142196
1.98900,-124.7674699
1.98950,-120.4947482
1.99000,-133.9233021
1.99050,-152.540161
1.99100,-152.2349666
1.99150,-130.5661637
1.99200,-101.2675005
1.99250,-62.81300515
1.99300,-6.046845321
1.99350,56.21281385
1.99400,98.32964211
1.99450,119.3880562
1.99500,145.9399697
1.99550,186.5308259
1.99600,216.4398779
1.99650,217.0502667
1.99700,201.1801575
1.99750,184.6996595
1.99800,159.6737181
1.99850,113.8945569
1.99900,57.73878589
1.99950,11.04404151
2.00000,-20.08578808
2.00050,-35.04031405
2.00100,-26.18967623
2.00150,1.277820464
2.00200,18.06351289
2.00250,1.583014871
2.00300,-31.37798116
2.00350,-52.43639529
2.00400,-62.50781075
2.00450,-80.20908639
2.00500,-102.7934726
2.00550,-109.5077495
2.00600,-104.3194446
2.00650,-118.6635818
2.00700,-169.6310478
2.00750,-238.604984
2.00800,-299.9490599
2.00850,-341.4554994
2.00900,-355.1892477
2.00950,-334.1308336
2.01000,-288.9620613
2.01050,-244.7088721
2.01100,-213.884237
2.01150,-186.7219347
2.01200,-155.8972995
2.01250,-132.3973301
2.01300,-125.0726643
2.01350,-117.7479985
2.01400,-87.83894659
2.01450,-32.29356438
2.01500,31.49206683
2.01550,86.73225462
2.01600,126.4075276
2.01650,150.5178858
2.01700,160.5893013
2.01750,157.2321628
2.01800,140.7516648
2.01850,112.6737793
2.01900,79.71278324
2.01950,47.97256484
2.02000,21.42065137
2.02050,4.634958948
2.02100,-0.5533459826
2.02150,-2.689706836
2.02200,-16.72864959
2.02250,-41.14420221
2.02300,-46.02731273
2.02350,0.05704283282
2.02400,90.69978192
2.02450,185.6152427
2.02500,246.6541243
2.02550,266.7969552
2.02600,259.4722894
2.02650,239.9398473
2.02700,216.1346835
2.02750,192.0243253
2.02800,167.9139671
2.02850,143.4984145
2.02900,119.9984451
2.02950,98.94003093
2.03000,79.40758884
2.03050,55.90761944
2.03100,20.19987374
2.03150,-30.76759235
2.03200,-89.05972422
2.03250,-133.0077189
2.03300,-150.0986058
2.03350,-153.4557442
2.03400,-164.1375485
2.03450,-179.0920745
2.03500,-175.4297416
2.03550,-146.4362729
2.03600,-118.0531929
2.03650,-112.5596936
2.03700,-117.1376097
2.03750,-97.60516763
2.03800,-44.8065351
2.03850,18.06351289
2.03900,66.89461812
2.03950,101.0763918
2.04000,136.4789431
2.04050,181.6477154
2.04100,227.1216822
2.04150,260.3878726
2.04200,281.7514811
2.04250,301.2839232
2.04300,320.5111709
2.04350,327.5306423
2.04400,314.7124772
2.04450,291.2125078
2.04500,266.7969552
2.04550,229.8684318
2.04600,158.4529404
2.04650,51.02450892
2.04700,-68.91689331
2.04750,-180.9232409
2.04800,-281.9425899
2.04850,-371.3645513
2.04900,-431.7930441
2.04950,-444.0008204
2.05000,-415.9229349
2.05050,-378.9944115
2.05100,-355.7996365
2.05150,-339.6243329
2.05200,-309.715281
2.05250,-259.0530093
2.05300,-197.403739
2.05350,-136.3648574
2.05400,-78.07272554
2.05450,-21.61176011
2.05500,29.05051156
2.05550,69.33617338
2.05600,95.88808685
2.05650,110.232224
2.05700,113.8945569
2.05750,109.6218352
2.05800,99.85561415
2.05850,85.51147699
2.05900,65.9790349
2.05950,44.00503754
2.06000,26.3037619
2.06050,20.81026256
2.06100,25.38817867
2.06150,29.96609479
2.06200,22.641429
2.06250,3.719375725
2.06300,-13.67670551
2.06350,-18.55981604
2.06400,-14.28709433
2.06450,-14.59228874
2.06500,-25.57928741
2.06550,-38.09225813
2.06600,-44.50134069
2.06650,-49.68964562
2.06700,-60.98183871
2.06750,-72.5792262
2.06800,-75.02078146
2.06850,-75.02078146
2.06900,-89.05972422
2.06950,-117.1376097
2.07000,-131.4817469
2.07050,-108.8973607
2.07100,-59.15067226
2.07150,-12.45592788
2.07200,18.36870729
2.07250,48.58295366
2.07300,88.25822666
2.07350,119.9984451
2.07400,118.1672786
2.07450,87.95303225
2.07500,69.03097897
2.07550,88.56342107
2.07600,130.0698605
2.07650,158.4529404
2.07700,162.7256621
2.07750,159.9789125
2.07800,161.8100789
2.07850,162.4204677
2.07900,155.4009964
2.07950,147.4659418
2.08000,143.19322
2.08050,134.6477766
2.08100,112.6737793
2.08150,79.71278324
2.08200,41.56348228
2.08250,0.9726260559
2.08300,-34.42992524
2.08350,-53.35197851
2.08400,-49.68964562
2.08450,-34.73511965
2.08500,-21.91695452
2.08550,-10.01437262
2.08600,7.07651421
2.08650,23.25181782
2.08700,25.08298426
2.08750,13.79079118
2.08800,9.823263879
2.08850,30.2712892
2.08900,72.69331187
2.08950,116.3361122
2.09000,138.6153039
2.09050,130.3750549
2.09100,97.41405889
2.09150,54.99203622
2.09200,13.48559677
2.09250,-24.9688986
2.09300,-65.25456042
2.09350,-104.9298334
2.09400,-136.059663
2.09450,-149.4882169
2.09500,-144.9103008
2.09550,-131.7869413
2.09600,-122.3259147
2.09650,-123.8518867
2.09700,-133.6181077
2.09750,-140.3323847
2.09800,-136.6700518
2.09850,-126.9038308
2.09900,-120.4947482
2.09950,-120.4947482
2.10000,-123.5466923
2.10050,-130.8713581
2.10100,-150.0986058
2.10150,-172.6829919
2.10200,-165.3583261
2.10250,-103.4038614
2.10300,-10.62476144
2.10350,57.12839707
2.10400,78.79720002
2.10450,90.39458751
2.10500,127.9334997
2.10550,177.9853825
2.10600,202.0957407
2.10650,196.297047
2.10700,186.8360203
2.10750,187.1412148
2.10800,186.2256315
2.10850,185.0048539
2.10900,200.8749631
2.10950,230.1736262
2.11000,238.4138752
2.11050,205.4528792
2.11100,159.9789125
2.11150,137.6997207
2.11200,131.2906381
2.11250,99.85561415
2.11300,23.86220663
2.11350,-72.27403179
2.11400,-153.7609386
2.11450,-209.3063209
2.11500,-245.9296498
2.11550,-269.7348136
2.11600,-279.806229
2.11650,-277.9750626
2.11700,-271.2607856
2.11750,-265.7672863
2.11800,-261.4945646
2.11850,-253.55951
2.11900,-236.1634287
2.11950,-203.8128215
2.12000,-158.0336604
2.12050,-109.2025551
2.12100,-71.66364298
2.12150,-49.38445121
2.12200,-33.81953642
2.12250,-17.64423281
2.12300,-1.468929206
2.12350,13.48559677
2.12400,35.45959413
2.12450,71.16733983
2.12500,112.0633905
2.12550,138.3101095
2.12600,142.5828312
2.12650,138.3101095
2.12700,141.9724424
2.12750,154.4854131
2.12800,165.4724118
2.12850,165.1672174
2.12900,151.4334691
2.12950,125.18675
2.13000,89.47900429
2.13050,49.80373129
2.13100,7.686903025
2.13150,-37.48186931
2.13200,-83.56622488
2.13250,-120.1895538
2.13300,-139.1116071
2.13350,-142.1635512
2.13400,-132.7025245
2.13450,-105.2350278
2.13500,-53.35197851
2.13550,10.12845829
2.13600,56.21281385
2.13650,69.64136779
2.13700,64.75825727
2.13750,61.40111878
2.13800,56.82320267
2.13850,38.81673261
2.13900,11.04404151
2.13950,-8.183206175
2.14000,-15.50787196
2.14050,-28.9364259
2.14100,-59.76106108
2.14150,-95.16361237
2.14200,-116.5272209
2.14250,-120.7999426
2.14300,-114.6960545
2.14350,-98.82594526
2.14400,-70.74805975
2.14450,-33.81953642
2.14500,6.466125395
2.14550,49.49853688
2.14600,89.7841987
2.14650,112.6737793
2.14700,103.8231415
2.14750,71.16733983
2.14800,37.29076057
2.14850,18.97909611
2.14900,15.92715203
2.14950,21.11545696
2.15000,29.96609479
2.15050,40.95309346
2.15100,51.63489773
2.15150,56.82320267
2.15200,53.77125859
2.15250,44.31023195
2.15300,34.84920531
2.15350,29.66090038
2.15400,26.91415071
2.15450,21.42065137
2.15500,15.01156881
2.15550,14.7063744
2.15600,24.16740104
2.15650,37.59595498
2.15700,47.66737043
2.15750,52.55048096
2.15800,57.43359148
2.15850,68.42059016
2.15900,86.42706021
2.15950,103.517947
2.16000,109.3166408
2.16050,101.0763918
2.16100,85.8166714
2.16150,66.89461812
2.16200,38.2063438
2.16250,2.193403687
2.16300,-21.91695452
2.16350,-20.69617689
2.16400,-9.098789398
2.16450,-3.910484467
2.16500,11.95962473
2.16550,72.69331187
2.16600,173.102272
2.16650,261.9138446
2.16700,302.1995065
2.16750,311.9657275
2.16800,325.3942814
2.16850,340.9591962
2.16900,328.7514199
2.16950,276.5631762
2.17000,199.9593799
2.17050,112.6737793
2.17100,15.01156881
2.17150,-88.75452981
2.17200,-186.7219347
2.17250,-274.9231185
2.17300,-358.5463862
2.17350,-429.3514888
2.17400,-467.8059842
2.17450,-468.1111786
2.17500,-450.4099029
2.17550,-429.6566832
2.17600,-393.3385487
2.17650,-328.6373343
2.17700,-250.2023715
2.17750,-183.975185
2.17800,-131.1765525
2.17850,-76.5467535
2.17900,-21.0013713
2.17950,18.36870729
2.18000,46.1413984
2.18050,88.25822666
2.18100,152.6542467
2.18150,208.5048233
2.18200,226.5112933
2.18250,214.303517
2.18300,196.297047
2.18350,176.4594105
2.18400,142.8880256
2.18450,94.66730922
2.18500,42.78425991
2.18550,-10.62476144
2.18600,-70.13767094
2.18650,-128.1246084
2.18700,-171.1570199
2.18750,-199.5400998
2.18800,-221.8192916
2.18850,-230.0595406
2.18900,-206.5595712
2.18950,-151.6245778
2.19000,-89.05972422
2.19050,-36.56628609
2.19100,9.212875064
2.19150,52.24528655
2.19200,79.40758884
2.19250,81.23875528
2.19300,70.86214542
2.19350,69.03097897
2.19400,79.10239443
2.19450,83.68031054
2.19500,71.77772864
2.19550,48.27775925
2.19600,24.16740104
2.19650,1.277820464
2.19700,-23.44292656
2.19750,-46.33250714
2.19800,-55.18314496
2.19850,-46.02731273
2.19900,-31.68317557
2.19950,-32.59875879
2.20000,-54.26756174
2.20050,-84.17661369
2.20100,-109.2025551
2.20150,-126.5986364
2.20200,-137.8908294
2.20250,-138.5012183
2.20300,-122.3259147
2.20350,-88.4493354
2.20400,-39.92342458
2.20450,19.28429052
2.20500,77.57642239
2.20550,115.4205289
2.20600,126.4075276
2.20650,125.18675
2.20700,128.5438885
2.20750,133.7321934
2.20800,127.6283053
2.20850,108.0958632
2.20900,85.20628258
2.20950,61.70631319
2.21000,32.40765005
2.21050,1.583014871
2.21100,-18.86501044
2.21150,-26.80006504
2.21200,-30.46239794
2.21250,-33.81953642
2.21300,-31.07278675
2.21350,-20.39098248
2.21400,-9.098789398
2.21450,1.888209279
2.21500,19.89467933
2.21550,44.31023195
2.21600,64.75825727
2.21650,80.93356087
2.21700,107.4854743
2.21750,151.1282746
2.21800,196.9074358
2.21850,225.9009045
2.21900,237.8034864
2.21950,242.0762081
2.22000,236.5827088
2.22050,207.8944345
2.22100,152.3490523
2.22150,80.32317206
2.22200,4.024570133
2.22250,-68.6116989
2.22300,-130.2609693
2.22350,-174.208964
2.22400,-202.2868495
2.22450,-220.2933195
2.22500,-229.4491518
2.22550,-227.0075965
2.22600,-213.5790426
2.22650,-195.8777669
2.22700,-176.0401304
2.22750,-150.0986058
2.22800,-117.7479985
2.22850,-83.26103047
2.22900,-51.21561766
2.22950,-20.69617689
2.23000,7.07651421
2.23050,33.62842768
2.23100,63.53747963
2.23150,97.10886448
2.23200,124.2711668
2.23250,133.1218046
2.23300,127.3231108
2.23350,123.660778
2.23400,124.2711668
2.23450,108.0958632
2.23500,64.75825727
2.23550,17.14792966
2.23600,0.9726260559
2.23650,21.42065137
2.23700,48.58295366
2.23750,53.77125859
2.23800,34.84920531
2.23850,8.907680656
2.23900,-6.657234137
2.23950,-5.436456506
2.24000,10.7388471
2.24050,33.93362209
2.24100,48.27775925
2.24150,41.86867669
2.24200,15.92715203
2.24250,-13.67670551
2.24300,-28.9364259
2.24350,-24.9688986
2.24400,-18.55981604
2.24450,-32.9039532
2.24500,-70.13767094
2.24550,-109.8129439
2.24600,-134.2284966
2.24650,-145.825884
2.24700,-158.6440492
2.24750,-175.4297416
2.24800,-187.9427123
2.24850,-187.9427123
2.24900,-169.9362423
2.24950,-130.5661637
2.25000,-79.90389198
2.25050,-43.89095188
2.25100,-38.70264695
2.25150,-46.63770155
2.25200,-31.37798116
2.25250,15.31676322
2.25300,70.2517566
2.25350,116.3361122
2.25400,165.7776062
2.25450,229.258043
2.25500,283.887842
2.25550,295.7904239
2.25600,270.1540936
2.25650,245.738541
2.25700,238.4138752
2.25750,214.303517
2.25800,141.3620536
2.25850,39.12192702
2.25900,-43.28056306
2.25950,-90.89089066
2.26000,-129.6505804
2.26050,-175.4297416
2.26100,-208.0855432
2.26150,-208.3907376
2.26200,-187.0271291
2.26250,-163.5271597
2.26300,-133.3129133
2.26350,-89.36491862
2.26400,-53.35197851
2.26450,-50.30003444
2.26500,-61.59222752
2.26550,-44.50134069
2.26600,7.686903025
2.26650,58.95956352
2.26700,87.03744903
2.26750,115.4205289
2.26800,164.5568286
2.26850,210.3359897
2.26900,218.2710443
2.26950,191.7191309
2.27000,161.1996901
2.27050,134.6477766
2.27100,96.19328126
2.27150,42.78425991
2.27200,-2.079318021
2.27250,-20.69617689
2.27300,-22.22214893
2.27350,-26.80006504
2.27400,-40.53381339
2.27450,-53.96236733
2.27500,-56.40392259
2.27550,-45.72211832
2.27600,-30.46239794
2.27650,-22.83253774
2.27700,-21.91695452
2.27750,-11.23515025
2.27800,24.16740104
2.27850,74.2192839
2.27900,108.4010576
2.27950,110.8426128
2.28000,96.19328126
2.28050,88.86861547
2.28100,93.44653159
2.28150,94.97250363
2.28200,80.01797765
2.28250,44.00503754
2.28300,-10.92995584
2.28350,-78.07272554
2.28400,-143.6895232
2.28450,-193.1310172
2.28500,-220.9037083
2.28550,-230.9751238
2.28600,-227.0075965
2.28650,-209.3063209
2.28700,-180.0076577
2.28750,-141.8583567
2.28800,-97.60516763
2.28850,-53.04678411
2.28900,-19.78059367
2.28950,-7.267622952
2.29000,-10.92995584
2.29050,-14.28709433
2.29100,-2.994901244
2.29150,23.25181782
2.29200,52.85567537
2.29250,74.52447831
2.29300,85.51147699
2.29350,93.751726
2.29400,108.0958632
2.29450,125.18675
2.29500,127.6283053
2.29550,102.6023638
2.29600,58.95956352
2.29650,19.28429052
2.29700,-3.910484467
2.29750,-19.78059367
2.29800,-46.02731273
2.29850,-89.67011303
2.29900,-136.059663
2.29950,-162.3063821
2.30000,-162.3063821
2.30050,-150.0986058
2.30100,-135.7544686
2.30150,-108.8973607
2.30200,-59.45586667
2.30250,0.05704283282
2.30300,48.58295366
2.30350,83.98550495
2.30400,111.4530016
2.30450,120.6088339
2.30500,100.466003
2.30550,71.77772864
2.30600,65.9790349
2.30650,72.69331187
2.30700,51.32970333
2.30750,-2.384512429
2.30800,-45.72211832
2.30850,-50.30003444
2.30900,-42.05978543
2.30950,-53.35197851
2.31000,-77.15714232
2.31050,-87.22855777
2.31100,-78.98830876
2.31150,-59.76106108
2.31200,-31.37798116
2.31250,-2.384512429
2.31300,4.024570133
2.31350,-17.33903841
2.31400,-46.02731273
2.31450,-63.11819956
2.31500,-71.66364298
2.31550,-67.08572686
2.31600,-26.18967623
2.31650,53.16086977
2.31700,132.5114158
2.31750,176.1542161
2.31800,195.6866582
2.31850,216.1346835
2.31900,230.7840151
2.31950,217.9658499
2.32000,182.868493
2.32050,145.0243865
2.32100,102.6023638
2.32150,42.4790655
2.32200,-26.18967623
2.32250,-83.26103047
2.32300,-129.6505804
2.32350,-180.3128521
2.32400,-226.7024021
2.32450,-243.4880945
2.32500,-226.7024021
2.32550,-198.6245166
2.32600,-171.1570199
2.32650,-134.2284966
2.32700,-86.92336336
2.32750,-49.38445121
2.32800,-33.51434201
2.32850,-23.44292656
2.32900,-1.468929206
2.32950,26.3037619
2.33000,42.78425991
2.33050,47.66737043
2.33100,54.3816474
2.33150,62.92709082
2.33200,54.076453
2.33250,20.19987374
2.33300,-17.033844
2.33350,-28.32603708
2.33400,-9.709178214
2.33450,13.18040236
2.33500,15.01156881
2.33550,-3.300095652
2.33600,-23.44292656
2.33650,-31.37798116
2.33700,-31.07278675
2.33750,-31.37798116
2.33800,-31.37798116
2.33850,-21.30656571
2.33900,4.024570133
2.33950,35.76478853
2.34000,57.43359148
2.34050,64.14786845
2.34100,71.47253423
2.34150,95.88808685
2.34200,127.6283053
2.34250,131.5958326
2.34300,87.34264344
2.34350,20.81026256
2.34400,-21.0013713
2.34450,-20.39098248
2.34500,-0.8585403903
2.34550,11.34923592
2.34600,14.7063744
2.34650,14.7063744
2.34700,5.245347764
2.34750,-18.55981604
2.34800,-42.97536865
2.34850,-51.82600648
2.34900,-46.02731273
2.34950,-34.12473083
2.35000,-14.28709433
2.35050,12.26481914
2.35100,24.16740104
2.35150,0.05704283282
2.35200,-50.60522885
2.35250,-97.29997322
2.35300,-124.4622755
2.35350,-133.6181077
2.35400,-119.579165
2.35450,-72.5792262
2.35500,-3.910484467
2.35550,59.87514674
2.35600,105.6543079
2.35650,137.3945263
2.35700,156.9269684
2.35750,163.9464398
2.35800,169.4399391
2.35850,181.9529098
2.35900,185.0048539
2.35950,152.0438579
2.36000,85.51147699
2.36050,15.31676322
2.36100,-35.04031405
2.36150,-62.20261634
2.36200,-62.50781075
2.36250,-35.65070287
2.36300,-1.468929206
2.36350,7.686903025
2.36400,-16.11826078
2.36450,-52.7415897
2.36500,-78.98830876
2.36550,-87.83894659
2.36600,-77.76753113
2.36650,-48.7740624
2.36700,-11.54034466
2.36750,15.62195763
2.36800,23.86220663
2.36850,14.7063744
2.36900,-3.910484467
2.36950,-21.91695452
2.37000,-24.35850978
2.37050,-3.300095652
2.37100,31.49206683
2.37150,66.58942371
2.37200,94.0569204
2.37250,113.5893625
2.37300,124.2711668
2.37350,130.6802493
2.37400,142.2776368
2.37450,160.8944957
2.37500,174.3230496
2.37550,171.8814944
2.37600,151.1282746
2.37650,107.4854743
2.37700,37.90114939
2.37750,-42.67017425
2.37800,-109.8129439
2.37850,-152.540161
2.37900,-181.5336297
2.37950,-201.3712663
2.38000,-199.2349054
2.38050,-169.3258534
2.38100,-128.7349972
2.38150,-100.3519173
2.38200,-90.89089066
2.38250,-93.33244592
2.38300,-94.85841796
2.38350,-83.56622488
2.38400,-57.01431141
2.38450,-30.15720353
2.38500,-18.55981604
2.38550,-16.42345518
2.38600,-7.267622952
2.38650,8.602486248
2.38700,16.84273526
2.38750,14.09598559
2.38800,10.43365269
2.38850,7.686903025
2.38900,-5.436456506
2.38950,-31.37798116
2.39000,-55.48833937
2.39050,-64.33897719
2.39100,-56.40392259
2.39150,-35.95589728
2.39200,-10.62476144
2.39250,4.329764541
2.39300,-2.384512429
2.39350,-21.30656571
2.39400,-24.9688986
2.39450,2.498598094
2.39500,49.19334247
2.39550,90.0893931
2.39600,110.232224
2.39650,111.1478072
2.39700,101.3815862
2.39750,85.20628258
2.39800,56.82320267
2.39850,13.18040236
2.39900,-35.04031405
2.39950,-66.78053245
2.40000,-70.74805975
2.40050,-56.709117
2.40100,-46.02731273
2.40150,-54.57275615
2.40200,-75.93636468
2.40250,-84.17661369
2.40300,-55.79353378
2.40350,-3.300095652
2.40400,27.52453953
2.40450,9.518069472
2.40500,-28.9364259
2.40550,-35.65070287
2.40600,3.414181318
2.40650,53.16086977
2.40700,75.74525594
2.40750,65.36864608
2.40800,34.84920531
2.40850,-2.994901244
2.40900,-33.51434201
2.40950,-41.75459102
2.41000,-27.10525945
2.41050,-4.82606769
2.41100,12.87520796
2.41150,22.94662341
2.41200,18.36870729
2.41250,-3.910484467
2.41300,-24.66370419
2.41350,-6.352039729
2.41400,61.70631319
2.41450,141.3620536
2.41500,177.6801881
2.41550,157.2321628
2.41600,114.1997513
2.41650,89.7841987
2.41700,89.17380988
2.41750,90.69978192
2.41800,77.8816168
2.41850,54.076453
2.41900,26.6089563
2.41950,-7.57281736
2.42000,-49.68964562
2.42050,-84.17661369
2.42100,-95.77400119
2.42150,-93.02725152
2.42200,-97.91036204
2.42250,-115.9168321
2.42300,-132.3973301
2.42350,-138.1960239
2.42400,-136.059663
2.42450,-123.8518867
2.42500,-92.72205711
2.42550,-51.21561766
2.42600,-26.18967623
2.42650,-28.32603708
2.42700,-37.17667491
2.42750,-30.15720353
2.42800,-10.31956703
2.42850,7.381708618
2.42900,22.641429
2.42950,41.25828787
2.43000,58.95956352
2.43050,64.14786845
2.43100,53.77125859
2.43150,36.37517735
2.43200,22.94662341
2.43250,17.75831848
2.43300,13.48559677
2.43350,-2.384512429
2.43400,-28.63123149
2.43450,-42.05978543
2.43500,-26.80006504
2.43550,-0.2481515749
2.43600,10.43365269
2.43650,7.07651421
2.43700,9.518069472
2.43750,15.01156881
2.43800,5.855736579
2.43850,-3.60529006
2.43900,20.19987374
2.43950,73.60889509
2.44000,108.0958632
2.44050,107.1802799
2.44100,113.8945569
2.44150,158.147746
2.44200,202.0957407
2.44250,198.7386022
2.44300,160.5893013
2.44350,125.18675
2.44400,87.95303225
2.44450,22.641429
2.44500,-54.87795055
2.44550,-104.624639
2.44600,-130.2609693
2.44650,-174.8193528
2.44700,-241.3517337
2.44750,-276.1438961
2.44800,-248.0660106
2.44850,-188.2479067
2.44900,-141.8583567
2.44950,-109.8129439
2.45000,-71.96883738
2.45050,-31.07278675
2.45100,-6.046845321
2.45150,-1.774123613
2.45200,-5.741650914
2.45250,-6.657234137
2.45300,-2.689706836
2.45350,1.888209279
2.45400,0.05704283282
2.45450,-8.793594991
2.45500,-7.878011767
2.45550,15.92715203
2.45600,44.31023195
2.45650,43.69984313
2.45700,21.11545696
2.45750,25.69337308
2.45800,81.54394969
2.45850,149.6023026
2.45900,181.0373266
2.45950,178.9009657
2.46000,178.2905769
2.46050,180.1217434
2.46100,153.8750243
2.46150,95.27769804
2.46200,44.61542636
2.46250,38.81673261
2.46300,65.67384049
2.46350,80.93356087
2.46400,56.51800826
2.46450,2.193403687
2.46500,-50.60522885
2.46550,-82.04025284
2.46600,-98.82594526
2.46650,-120.7999426
2.46700,-153.7609386
2.46750,-181.8388242
2.46800,-188.8582955
2.46850,-173.5985751
2.46900,-139.7219959
2.46950,-89.67011303
2.47000,-31.07278675
2.47050,22.3362346
2.47100,64.75825727
2.47150,94.66730922
2.47200,102.9075582
2.47250,81.54394969
2.47300,54.076453
2.47350,67.19981253
2.47400,134.952971
2.47450,213.6931282
2.47500,248.1800963
2.47550,230.7840151
2.47600,188.6671868
2.47650,141.9724424
2.47700,95.27769804
2.47750,54.68684181
2.47800,25.99856749
2.47850,1.277820464
2.47900,-32.9039532
2.47950,-77.46233672
2.48000,-120.4947482
2.48050,-151.9297722
2.48100,-166.5791038
2.48150,-167.1894926
2.48200,-167.7998814
2.48250,-181.2284353
2.48300,-198.929711
2.48350,-191.9102396
2.48400,-147.0466617
2.48450,-82.04025284
2.48500,-22.22214893
2.48550,21.72584578
2.48600,46.75178721
2.48650,48.88814807
2.48700,34.5440109
2.48750,17.45312407
2.48800,0.9726260559
2.48850,-22.83253774
2.48900,-44.50134069
2.48950,-41.14420221
2.49000,-10.01437262
2.49050,19.28429052
2.49100,27.82973393
2.49150,24.47259545
2.49200,21.42065137
2.49250,13.48559677
2.49300,-3.910484467
2.49350,-23.13773215
2.49400,-39.92342458
2.49450,-58.23508904
2.49500,-61.59222752
2.49550,-14.89748314
2.49600,84.90108817
2.49650,189.58277
2.49700,251.2320404
2.49750,269.2385104
2.49800,267.407344
2.49850,248.7904851
2.49900,202.4009351
2.49950,136.7841375
2.50000,74.52447831
2.50050,25.08298426
2.50100,-17.33903841
2.50150,-57.31950582
2.50200,-91.19608507
2.50250,-116.5272209
2.50300,-129.0401916
2.50350,-120.1895538
2.50400,-86.92336336
2.50450,-40.53381339
2.50500,0.3622372405
2.50550,25.38817867
2.50600,28.13492834
2.50650,9.823263879
2.50700,-20.08578808
2.50750,-48.7740624
2.50800,-69.83247653
2.50850,-83.87141929
2.50900,-85.70258573
2.50950,-69.22208772
2.51000,-41.75459102
2.51050,-17.33903841
2.51100,3.10898691
2.51150,29.05051156
2.51200,56.51800826
2.51250,67.50500693
2.51300,59.87514674
2.51350,50.4141201
2.51400,47.05698162
2.51450,39.12192702
2.51500,22.3362346
2.51550,10.7388471
2.51600,6.160930987
2.51650,-14.28709433
2.51700,-62.81300515
2.51750,-115.3064433
2.51800,-144.6051064
2.51850,-157.7284659
2.51900,-172.6829919
2.51950,-182.449213
2.52000,-169.3258534
2.52050,-141.2479679
2.52100,-118.6635818
2.52150,-98.21555645
2.52200,-61.59222752
2.52250,-16.42345518
2.52300,11.65443033
2.52350,20.50506815
2.52400,28.44012275
2.52450,32.10245564
2.52500,9.212875064
2.52550,-33.20914761
2.52600,-58.23508904
2.52650,-55.18314496
2.52700,-55.79353378
2.52750,-70.44286535
2.52800,-57.01431141
2.52850,15.62195763
2.52900,108.0958632
2.52950,156.3165796
2.53000,150.5178858
2.53050,129.4594717
2.53100,109.9270296
2.53150,71.16733983
2.53200,9.518069472
2.53250,-43.89095188
2.53300,-68.00131008
2.53350,-78.98830876
2.53400,-95.16361237
2.53450,-99.74152849
2.53500,-62.50781075
2.53550,16.53754085
2.53600,111.4530016
2.53650,204.2321016
2.53700,296.7060071
2.53750,383.0760245
2.53800,433.7382962
2.53850,423.3616863
2.53900,358.9656663
2.53950,275.3423986
2.54000,196.9074358
2.54050,118.7776674
2.54100,26.91415071
2.54150,-73.49480942
2.54200,-153.4557442
2.54250,-185.1959626
2.54300,-173.9037696
2.54350,-154.6765219
2.54400,-158.3388548
2.54450,-175.1245472
2.54500,-168.7154646
2.54550,-127.2090252
2.54600,-84.78700251
2.54650,-83.56622488
2.54700,-121.105137
2.54750,-152.540161
2.54800,-145.825884
2.54850,-111.6441104
2.54900,-83.56622488
2.54950,-75.63117028
2.55000,-75.02078146
2.55050,-67.39092127
2.55100,-56.709117
2.55150,-60.98183871
2.55200,-81.73505843
2.55250,-94.85841796
2.55300,-77.46233672
2.55350,-40.8390078
2.55400,-18.86501044
2.55450,-22.22214893
2.55500,-28.02084268
2.55550,-18.86501044
2.55600,-10.01437262
2.55650,-19.47539926
2.55700,-36.56628609
2.55750,-42.05978543
2.55800,-41.75459102
2.55850,-53.96236733
2.55900,-71.05325416
2.55950,-65.25456042
2.56000,-29.24162031
2.56050,12.87520796
2.56100,40.95309346
2.56150,57.73878589
2.56200,74.82967272
2.56250,92.22575396
2.56300,102.9075582
2.56350,104.7387247
2.56400,98.63483652
2.56450,84.29069936
2.56500,64.45306286
2.56550,44.31023195
2.56600,26.3037619
2.56650,9.212875064
2.56700,-5.741650914
2.56750,-13.67670551
2.56800,-13.67670551
2.56850,-10.92995584
2.56900,-9.098789398
2.56950,-4.82606769
2.57000,6.160930987
2.57050,20.19987374
2.57100,24.16740104
2.57150,10.7388471
2.57200,-9.709178214
2.57250,-16.11826078
2.57300,2.193403687
2.57350,26.91415071
2.57400,21.72584578
2.57450,-25.88448182
2.57500,-85.70258573
2.57550,-116.2220265
2.57600,-107.6765831
2.57650,-81.12466962
2.57700,-51.82600648
2.57750,-18.55981604
2.57800,11.95962473
2.57850,18.36870729
2.57900,-3.300095652
2.57950,-17.94942722
2.58000,11.04404151
2.58050,75.13486713
2.58100,129.1542773
2.58150,150.2126914
2.58200,157.2321628
2.58250,170.3555223
2.58300,177.6801881
2.58350,151.1282746
2.58400,87.64783784
2.58450,17.75831848
2.58500,-24.9688986
2.58550,-36.26109168
2.58600,-34.73511965
2.58650,-33.20914761
2.58700,-21.91695452
2.58750,6.160930987
2.58800,35.76478853
2.58850,43.39464873
2.58900,37.59595498
2.58950,49.49853688
2.59000,79.10239443
2.59050,87.95303225
2.59100,58.65436911
2.59150,30.88167801
2.59200,45.53100958
2.59250,84.90108817
2.59300,103.2127526
2.59350,94.36211481
2.59400,90.0893931
2.59450,98.32964211
2.59500,91.61536514
2.59550,56.21281385
2.59600,15.62195763
2.59650,-2.384512429
2.59700,4.634958948
2.59750,29.96609479
2.59800,61.40111878
2.59850,75.74525594
2.59900,52.85567537
2.59950,3.719375725
2.60000,-37.17667491
2.60050,-56.709117
2.60100,-71.96883738
2.60150,-98.21555645
2.60200,-129.9557748
2.60250,-160.78041
2.60300,-193.4362116
2.60350,-219.9881251
2.60400,-218.1569587
2.60450,-180.6180465
2.60500,-131.4817469
2.60550,-96.07919559
2.60600,-73.80000383
2.60650,-52.43639529
2.60700,-34.73511965
2.60750,-33.81953642
2.60800,-47.55328477
2.60850,-59.76106108
2.60900,-62.81300515
2.60950,-69.52728212
2.61000,-92.4168627
2.61050,-122.0207202
2.61100,-133.0077189
2.61150,-111.0337216
2.61200,-69.83247653
2.61250,-36.26109168
2.61300,-20.39098248
2.61350,-13.37151111
2.61400,-14.59228874
2.61450,-40.53381339
2.61500,-96.07919559
2.61550,-147.0466617
2.61600,-151.014189
2.61650,-109.8129439
2.61700,-68.6116989
2.61750,-57.92989463
2.61800,-60.6766443
2.61850,-43.89095188
2.61900,-3.60529006
2.61950,33.93362209
2.62000,50.71931451
2.62050,49.19334247
2.62100,42.1738711
2.62150,40.34270465
2.62200,51.32970333
2.62250,74.52447831
2.62300,93.14133718
2.62350,85.20628258
2.62400,51.32970333
2.62450,24.47259545
2.62500,34.2388165
2.62550,69.03097897
2.62600,90.69978192
2.62650,86.42706021
2.62700,82.45953291
2.62750,99.24522534
2.62800,120.9140283
2.62850,119.9984451
2.62900,96.80367007
2.62950,68.42059016
2.63000,35.45959413
2.63050,-4.215678875
2.63100,-23.74812097
2.63150,9.518069472
2.63200,77.57642239
2.63250,118.1672786
2.63300,102.2971694
2.63350,64.75825727
2.63400,47.36217603
2.63450,44.61542636
2.63500,27.21934512
2.63550,-14.89748314
2.63600,-72.88442061
2.63650,-140.9427735
2.63700,-210.2219041
2.63750,-259.3582037
2.63800,-273.7023409
2.63850,-259.0530093
2.63900,-225.4816245
2.63950,-172.3777975
2.64000,-101.8778893
2.64050,-29.54681471
2.64100,33.01803886
2.64150,87.64783784
2.64200,130.3750549
2.64250,142.5828312
2.64300,119.9984451
2.64350,86.1218658
2.64400,67.50500693
2.64450,64.45306286
2.64500,61.09592437
2.64550,48.88814807
2.64600,30.2712892
2.64650,14.7063744
2.64700,16.84273526
2.64750,45.22581517
2.64800,85.51147699
2.64850,108.706252
2.64900,99.85561415
2.64950,66.58942371
2.65000,25.38817867
2.65050,-0.8585403903
2.65100,16.23234644
2.65150,81.8491441
2.65200,145.6347753
2.65250,146.5503585
2.65300,87.03744903
2.65350,28.74531716
2.65400,7.686903025
2.65450,-3.300095652
2.65500,-34.12473083
2.65550,-65.25456042
2.65600,-64.94936601
2.65650,-44.8065351
2.65700,-40.53381339
2.65750,-55.48833937
2.65800,-66.78053245
2.65850,-65.25456042
2.65900,-67.69611568
2.65950,-83.26103047
2.66000,-100.6571117
2.66050,-101.2675005
2.66100,-76.24155909
2.66150,-31.07278675
2.66200,18.06351289
2.66250,52.85567537
2.66300,65.67384049
2.66350,63.23228523
2.66400,55.90761944
2.66450,49.19334247
2.66500,47.97256484
2.66550,56.21281385
2.66600,67.81020134
2.66650,69.33617338
2.66700,56.82320267
2.66750,40.64789906
2.66800,34.2388165
2.66850,38.2063438
2.66900,44.31023195
2.66950,41.56348228
2.67000,16.84273526
2.67050,-34.73511965
2.67100,-99.74152849
2.67150,-154.6765219
2.67200,-190.3842676
2.67250,-212.0530705
2.67300,-220.5985139
2.67350,-207.7803488
2.67400,-180.9232409
2.67450,-166.5791038
2.67500,-176.6505192
2.67550,-187.3323235
2.67600,-169.3258534
2.67650,-126.9038308
2.67700,-81.12466962
2.67750,-32.9039532
2.67800,25.69337308
2.67850,74.82967272
2.67900,79.71278324
2.67950,47.36217603
2.68000,28.74531716
2.68050,50.1089257
2.68100,79.40758884
2.68150,85.8166714
2.68200,89.47900429
2.68250,119.9984451
2.68300,160.2841069
2.68350,170.3555223
2.68400,148.6867194
2.68450,124.5763612
2.68500,101.3815862
2.68550,57.12839707
2.68600,-6.352039729
2.68650,-61.59222752
2.68700,-97.91036204
2.68750,-130.2609693
2.68800,-155.8972995
2.68850,-152.8453554
2.68900,-124.1570811
2.68950,-104.624639
2.69000,-106.150611
2.69050,-99.43633408
2.69100,-68.00131008
2.69150,-31.98836998
2.69200,-3.300095652
2.69250,42.4790655
2.69300,116.946501
2.69350,179.5113546
2.69400,195.0762694
2.69450,194.1606861
2.69500,230.7840151
2.69550,299.4527568
2.69600,340.3488074
2.69650,322.9527262
2.69700,276.8683706
2.69750,232.6151815
2.69800,177.0697993
2.69850,87.03744903
2.69900,-23.44292656
2.69950,-113.1700824
2.70000,-158.6440492
2.70050,-171.4622143
2.70100,-172.0726031
2.70150,-161.3907988
2.70200,-121.4103314
2.70250,-44.19614628
2.70300,45.83620399
2.70350,104.7387247
2.70400,105.3491135
2.70450,60.48553556
2.70500,3.719375725
2.70550,-40.22861898
2.70600,-64.33897719
2.70650,-66.17014364
2.70700,-52.13120088
2.70750,-38.09225813
2.70800,-37.17667491
2.70850,-44.8065351
2.70900,-51.52081207
2.70950,-61.59222752
2.71000,-80.81947521
2.71050,-92.4168627
2.71100,-76.85194791
2.71150,-49.07925681
2.71200,-42.05978543
2.71250,-53.35197851
2.71300,-43.28056306
2.71350,0.3622372405
2.71400,35.76478853
2.71450,25.69337308
2.71500,-8.183206175
2.71550,-23.74812097
2.71600,-16.42345518
2.71650,-11.23515025
2.71700,-12.15073348
2.71750,-2.994901244
2.71800,11.04404151
2.71850,1.583014871
2.71900,-40.22861898
2.71950,-93.94283474
2.72000,-137.2804406
2.72050,-164.1375485
2.72100,-169.3258534
2.72150,-145.5206896
2.72200,-102.7934726
2.72250,-67.08572686
2.72300,-52.7415897
2.72350,-48.16367358
2.72400,-36.8714805
2.72450,-20.08578808
2.72500,-11.54034466
2.72550,-19.47539926
2.72600,-31.98836998
2.72650,-23.74812097
2.72700,20.81026256
2.72750,85.51147699
2.72800,131.2906381
2.72850,140.4464704
2.72900,137.6997207
2.72950,154.1802187
2.73000,186.2256315
2.73050,209.4204065
2.73100,220.1022108
2.73150,235.6671256
2.73200,253.3684012
2.73250,241.7710137
2.73300,187.1412148
2.73350,124.8815556
2.73400,103.2127526
2.73450,128.2386941
2.73500,162.4204677
2.73550,168.2191615
2.73600,139.5308872
2.73650,97.41405889
2.73700,67.19981253
2.73750,56.21281385
2.73800,46.4465928
2.73850,7.992097433
2.73900,-63.72858838
2.73950,-131.4817469
2.74000,-151.014189
2.74050,-122.6311091
2.74100,-86.61816895
2.74150,-69.52728212
2.74200,-62.20261634
2.74250,-49.99484003
2.74300,-34.73511965
2.74350,-12.76112229
2.74400,34.2388165
2.74450,102.6023638
2.74500,141.0568592
2.74550,108.0958632
2.74600,30.2712892
2.74650,-26.18967623
2.74700,-37.17667491
2.74750,-35.04031405
2.74800,-48.7740624
2.74850,-71.66364298
2.74900,-90.58569625
2.74950,-111.0337216
2.75000,-135.1440798
2.75050,-147.0466617
2.75100,-141.8583567
2.75150,-140.6375791
2.75200,-150.7089946
2.75250,-138.1960239
2.75300,-66.17014364
2.75350,47.66737043
2.75400,141.667248
2.75450,176.7646049
2.75500,170.6607167
2.75550,162.1152733
2.75600,159.0633292
2.75650,141.0568592
2.75700,99.24522534
2.75750,52.24528655
2.75800,17.75831848
2.75850,-12.15073348
2.75900,-55.79353378
2.75950,-107.9817775
2.76000,-140.3323847
2.76050,-133.9233021
2.76100,-97.29997322
2.76150,-54.26756174
2.76200,-27.10525945
2.76250,-28.9364259
2.76300,-57.01431141
2.76350,-81.12466962
2.76400,-65.55975482
2.76450,-9.098789398
2.76500,51.94009214
2.76550,85.20628258
2.76600,92.83614277
2.76650,91.61536514
2.76700,83.06992173
2.76750,58.95956352
2.76800,25.08298426
2.76850,0.05704283282
2.76900,-6.352039729
2.76950,3.414181318
2.77000,18.36870729
2.77050,27.21934512
2.77100,25.08298426
2.77150,23.25181782
2.77200,37.90114939
2.77250,63.84267404
2.77300,73.9140895
2.77350,53.16086977
2.77400,18.36870729
2.77450,-5.741650914
2.77500,-11.54034466
2.77550,3.10898691
2.77600,46.4465928
2.77650,111.7581961
2.77700,160.8944957
2.77750,154.4854131
2.77800,98.63483652
2.77850,37.29076057
2.77900,-1.774123613
2.77950,-31.37798116
2.78000,-75.93636468
2.78050,-143.9947176
2.78100,-225.1764301
2.78150,-297.8126991
2.78200,-328.9425287
2.78250,-292.0140053
2.78300,-203.8128215
2.78350,-122.0207202
2.78400,-89.05972422
2.78450,-83.87141929
2.78500,-60.6766443
2.78550,-20.39098248
2.78600,-7.267622952
2.78650,-36.8714805
2.78700,-64.6441716
2.78750,-44.19614628
2.78800,11.65443033
2.78850,58.3491747
2.78900,70.2517566
2.78950,50.4141201
2.79000,7.07651421
2.79050,-41.14420221
2.79100,-59.15067226
2.79150,-31.68317557
2.79200,3.414181318
2.79250,1.277820464
2.79300,-24.35850978
2.79350,-19.47539926
2.79400,28.74531716
2.79450,80.62836647
2.79500,109.0114464
2.79550,133.7321934
2.79600,168.2191615
2.79650,185.0048539
2.79700,160.2841069
2.79750,117.5568898
2.79800,93.14133718
2.79850,87.64783784
2.79900,76.05045035
2.79950,57.43359148
2.80000,53.77125859
2.80050,71.16733983
2.80100,88.25822666
2.80150,83.98550495
2.80200,68.72578457
2.80250,72.38811746
2.80300,106.5698911
2.80350,145.9399697
2.80400,151.4334691
2.80450,109.9270296
2.80500,42.78425991
2.80550,-21.0013713
2.80600,-71.35844857
2.80650,-106.150611
2.80700,-122.3259147
2.80750,-121.7155258
2.80800,-115.3064433
2.80850,-107.0661943
2.80900,-92.72205711
2.80950,-82.65064165
2.81000,-97.60516763
2.81050,-127.5142196
2.81100,-128.1246084
2.81150,-83.26103047
2.81200,-36.56628609
2.81250,-22.83253774
2.81300,-8.488400583
2.81350,49.49853688
2.81400,121.2192227
2.81450,139.8360816
2.81500,103.8231415
2.81550,73.30370068
2.81600,73.9140895
2.81650,68.72578457
2.81700,33.32323327
2.81750,-5.741650914
2.81800,-24.35850978
2.81850,-34.42992524
2.81900,-44.50134069
2.81950,-36.56628609
2.82000,-5.131262098
2.82050,19.89467933
2.82100,21.42065137
2.82150,23.55701223
2.82200,51.02450892
2.82250,88.56342107
2.82300,103.8231415
2.82350,87.03744903
2.82400,47.05698162
2.82450,-5.131262098
2.82500,-52.7415897
2.82550,-81.12466962
2.82600,-105.5402222
2.82650,-162.3063821
2.82700,-252.0335379
2.82750,-319.481502
2.82800,-316.1243635
2.82850,-257.8322317
2.82900,-194.9621837
2.82950,-150.0986058
2.83000,-112.5596936
2.83050,-73.80000383
2.83100,-41.75459102
2.83150,-24.66370419
2.83200,-22.83253774
2.83250,-32.59875879
2.83300,-42.05978543
2.83350,-32.29356438
2.83400,0.3622372405
2.83450,39.73231583
2.83500,69.33617338
2.83550,93.44653159
2.83600,118.7776674
2.83650,136.4789431
2.83700,138.3101095
2.83750,135.5633599
2.83800,143.8036089
2.83850,152.0438579
2.83900,138.6153039
2.83950,105.9595023
2.84000,74.52447831
2.84050,47.97256484
2.84100,9.212875064
2.84150,-47.55328477
2.84200,-104.3194446
2.84250,-140.0271903
2.84300,-143.9947176
2.84350,-109.5077495
2.84400,-38.39745254
2.84450,40.34270465
2.84500,91.92055955
2.84550,112.6737793
2.84600,130.0698605
2.84650,153.5698299
2.84700,163.9464398
2.84750,155.0958019
2.84800,149.907497
2.84850,159.3685237
2.84900,158.147746
2.84950,129.1542773
2.85000,93.14133718
2.85050,67.81020134
2.85100,37.59595498
2.85150,-8.183206175
2.85200,-34.73511965
2.85250,-6.046845321
2.85300,50.1089257
2.85350,74.82967272
2.85400,53.16086977
2.85450,24.77778986
2.85500,15.31676322
2.85550,5.550542171
2.85600,-21.61176011
2.85650,-49.99484003
2.85700,-55.18314496
2.85750,-46.02731273
2.85800,-53.96236733
2.85850,-91.80647389
2.85900,-136.9752462
2.85950,-155.2869107
2.86000,-138.5012183
2.86050,-108.5921663
2.86100,-86.61816895
2.86150,-62.81300515
2.86200,-14.89748314
2.86250,52.55048096
2.86300,110.5374184
2.86350,137.6997207
2.86400,135.5633599
2.86450,108.0958632
2.86500,60.48553556
2.86550,10.12845829
2.86600,-25.57928741
2.86650,-55.48833937
2.86700,-92.4168627
2.86750,-114.0856656
2.86800,-86.31297455
2.86850,-26.18967623
2.86900,3.10898691
2.86950,-20.69617689
2.87000,-50.60522885
2.87050,-43.28056306
2.87100,-21.30656571
2.87150,-24.9688986
2.87200,-42.36497984
2.87250,-30.76759235
2.87300,11.34923592
2.87350,38.5115382
2.87400,18.6739017
2.87450,-33.51434201
2.87500,-87.83894659
2.87550,-134.533691
2.87600,-184.8907682
2.87650,-245.9296498
2.87700,-303.001004
2.87750,-330.1633063
2.87800,-312.7672251
2.87850,-261.1893702
2.87900,-194.0466005
2.87950,-126.9038308
2.88000,-70.13767094
2.88050,-27.10525945
2.88100,11.04404151
2.88150,53.16086977
2.88200,79.40758884
2.88250,62.0115076
2.88300,18.36870729
2.88350,13.48559677
2.88400,76.96603357
2.88450,157.2321628
2.88500,187.7516036
2.88550,170.3555223
2.88600,145.0243865
2.88650,109.6218352
2.88700,36.06998294
2.88750,-57.62470022
2.88800,-113.7804712
2.88850,-113.1700824
2.88900,-94.85841796
2.88950,-82.65064165
2.89000,-57.31950582
2.89050,-12.45592788
2.89100,15.92715203
2.89150,4.329764541
2.89200,-19.17020485
2.89250,-18.86501044
2.89300,0.05704283282
2.89350,16.53754085
2.89400,31.79726123
2.89450,56.51800826
2.89500,79.40758884
2.89550,79.71278324
2.89600,60.18034115
2.89650,42.1738711
2.89700,39.73231583
2.89750,54.68684181
2.89800,87.03744903
2.89850,128.2386941
2.89900,159.3685237
2.89950,170.0503279
2.90000,172.1866888
2.90050,176.7646049
2.90100,170.9659111
2.90150,131.901027
2.90200,59.56995233
2.90250,-18.25462163
2.90300,-75.32597587
2.90350,-102.7934726
2.90400,-105.2350278
2.90450,-88.14414099
2.90500,-55.48833937
2.90550,-14.28709433
2.90600,18.97909611
2.90650,30.88167801
2.90700,20.50506815
2.90750,2.193403687
2.90800,-11.84553907
2.90850,-18.25462163
2.90900,-12.15073348
2.90950,15.62195763
2.91000,63.84267404
2.91050,109.0114464
2.91100,125.18675
2.91150,104.4335303
2.91200,54.99203622
2.91250,-7.267622952
2.91300,-56.09872818
2.91350,-66.78053245
2.91400,-45.41692391
2.91450,-26.80006504
2.91500,-28.32603708
2.91550,-36.8714805
2.91600,-45.41692391
2.91650,-75.02078146
2.91700,-133.0077189
2.91750,-181.2284353
2.91800,-179.0920745
2.91850,-134.533691
2.91900,-81.42986402
2.91950,-31.98836998
