type,name,time_units,begin_time,frequency,count,units
signal_4d,"Noraxon MyoMotion-Segments-Upper arm RT-Orientation","s",0.0000,200,5068,""

time,x,y,z,w
0.0000,-0.08169258061,-0.6415232742,-0.7569691214,0.09365874329
0.0050,-0.08159037332,-0.6414977736,-0.7569980757,0.09368847782
0.0100,-0.0814881651,-0.6414722648,-0.7570270202,0.09371821112
0.0150,-0.08138595595,-0.6414467478,-0.7570559551,0.0937479432
0.0200,-0.08126131708,-0.6414219563,-0.7570861995,0.09378144254
0.0250,-0.08111214617,-0.641398544,-0.7571174022,0.09381879771
0.0300,-0.08093650316,-0.6413771635,-0.7571491977,0.09386004953
0.0350,-0.08073268425,-0.641358433,-0.7571812266,0.09390518713
0.0400,-0.08049929087,-0.6413429072,-0.7572131511,0.09395415613
0.0450,-0.08023528799,-0.6413310543,-0.7572446668,0.09400687219
0.0500,-0.07994004506,-0.6413232347,-0.7572755159,0.09406322798
0.0550,-0.07961335916,-0.6413196872,-0.7573054964,0.09412309497
0.0600,-0.07925546542,-0.6413205297,-0.7573344599,0.09418633246
0.0650,-0.07886704185,-0.6413257661,-0.7573623047,0.09425280292
0.0700,-0.07844921413,-0.6413352874,-0.7573889743,0.0943223805
0.0750,-0.07800356193,-0.6413488704,-0.7574144599,0.09439494994
0.0800,-0.07753211959,-0.6413661821,-0.7574387983,0.09447040666
0.0850,-0.07703736535,-0.6413867824,-0.7574620721,0.09454865946
0.0900,-0.0765222004,-0.6414101278,-0.7574844125,0.09462962277
0.0950,-0.07598992144,-0.6414355867,-0.7575059939,0.09471319435
0.1000,-0.07544418889,-0.6414624605,-0.7575270241,0.09479922947
0.1050,-0.07488898996,-0.6414900029,-0.7575477375,0.09488751662
0.1100,-0.07432859437,-0.6415174356,-0.75756839,0.09497775746
0.1150,-0.07376750053,-0.6415439666,-0.7575892515,0.09506955833
0.1200,-0.07321036451,-0.641568808,-0.7576105978,0.09516243548
0.1250,-0.07266190777,-0.6415911944,-0.7576327033,0.09525583073
0.1300,-0.07212681385,-0.6416104008,-0.7576558317,0.09534913183
0.1350,-0.07160962722,-0.6416257625,-0.7576802267,0.09544169066
0.1400,-0.07111465455,-0.6416366962,-0.7577060993,0.09553283786
0.1450,-0.07064586096,-0.6416427198,-0.7577336174,0.09562189899
0.1500,-0.07020676236,-0.6416434647,-0.7577628994,0.09570821791
0.1550,-0.06961683863,-0.6416399847,-0.7578028222,0.09584627573
0.1600,-0.06906906321,-0.6416322367,-0.757842778,0.09597844137
0.1650,-0.0685677055,-0.6416207633,-0.7578821373,0.09610375605
0.1700,-0.06811284199,-0.6416063957,-0.7579203288,0.09622187408
0.1750,-0.06770670407,-0.6415883445,-0.7579580021,0.09633205842
0.1800,-0.06734886689,-0.6415683144,-0.7579939103,0.09643370781
0.1850,-0.06704013908,-0.6415464925,-0.7580281486,0.09652483436
0.1900,-0.06677987709,-0.6415225326,-0.7580611277,0.09660545962
0.1950,-0.06656863423,-0.6414988071,-0.7580907537,0.09667629774
0.2000,-0.06640469994,-0.6414756498,-0.7581168514,0.09673802882
0.2050,-0.06628759086,-0.6414534876,-0.7581391202,0.09679076934
0.2100,-0.06621481741,-0.6414327507,-0.758157396,0.0968348449
0.2150,-0.06618420205,-0.6414149427,-0.7581705074,0.09687107131
0.2200,-0.06619407637,-0.6414014265,-0.7581772796,0.09690081014
0.2250,-0.06624148119,-0.6413920482,-0.7581779702,0.09692508519
0.2300,-0.06632576876,-0.6413875839,-0.7581720699,0.09694313819
0.2350,-0.06644463287,-0.6413892566,-0.7581586599,0.09695555
0.2400,-0.06659666008,-0.6413959399,-0.7581386467,0.09696352705
0.2450,-0.06678028979,-0.6414068742,-0.7581127979,0.09696700631
0.2500,-0.06699485243,-0.6414234654,-0.7580801129,0.09696478862
0.2550,-0.0672407266,-0.6414455506,-0.7580404578,0.09695852042
0.2600,-0.06751415407,-0.6414718151,-0.7579957001,0.0969446646
0.2650,-0.06781563502,-0.6415029631,-0.7579452052,0.0969229274
0.2700,-0.06814372545,-0.6415387187,-0.7578893287,0.09689308804
0.2750,-0.0684978883,-0.6415779006,-0.7578291266,0.0968547964
0.2800,-0.06887567457,-0.6416211772,-0.7577643433,0.09680705789
0.2850,-0.06927462055,-0.641667401,-0.7576961298,0.09674992695
0.2900,-0.06969265166,-0.6417157982,-0.7576250799,0.09668509179
0.2950,-0.0701269952,-0.6417660659,-0.7575520244,0.09660978953
0.3000,-0.07057450643,-0.6418187402,-0.7574768711,0.09652322798
0.3050,-0.07103209409,-0.6418730961,-0.7574000487,0.09642891895
0.3100,-0.07149703128,-0.6419275967,-0.7573233398,0.09632494079
0.3150,-0.07196560379,-0.6419824326,-0.7572468551,0.09621179038
0.3200,-0.07243331437,-0.6420382447,-0.7571703439,0.09609046631
0.3250,-0.07289646088,-0.6420943817,-0.7570944756,0.0959628369
0.3300,-0.07335446318,-0.6421515137,-0.7570186135,0.09582992777
0.3350,-0.07380236618,-0.6422079553,-0.7569443494,0.09569432994
0.3400,-0.07423622446,-0.6422650152,-0.7568709073,0.09555659531
0.3450,-0.07465494591,-0.6423210369,-0.7567995886,0.0954185896
0.3500,-0.07505545449,-0.6423750484,-0.7567314852,0.09528082352
0.3550,-0.07543754524,-0.6424280005,-0.7566654777,0.09514618067
0.3600,-0.07580002462,-0.6424799338,-0.7566015251,0.09501591051
0.3650,-0.07614292404,-0.6425294057,-0.7565407885,0.09489074358
0.3700,-0.0764649325,-0.6425765424,-0.7564830912,0.09477253769
0.3750,-0.07676757215,-0.6426205501,-0.7564289905,0.0946612423
0.3800,-0.07705009664,-0.6426618643,-0.7563780583,0.09455815001
0.3850,-0.07731572386,-0.6426994883,-0.7563311436,0.09446082704
0.3900,-0.07756625235,-0.642733377,-0.7562878781,0.09437122518
0.3950,-0.07780249656,-0.6427646076,-0.7562475611,0.09428709919
0.4000,-0.07802797455,-0.6427922487,-0.7562104914,0.09420962226
0.4050,-0.07824300209,-0.6428170499,-0.7561762563,0.09413682805
0.4100,-0.07844940683,-0.6428396063,-0.7561442312,0.09406823418
0.4150,-0.07864801316,-0.6428600315,-0.7561143036,0.09400335049
0.4200,-0.07883886866,-0.6428780034,-0.7560867768,0.09394195783
0.4250,-0.07902556015,-0.6428947381,-0.756060454,0.0938824076
0.4300,-0.07920691588,-0.6429115591,-0.7560343567,0.09382453332
0.4350,-0.07938367173,-0.6429275157,-0.7560092667,0.0937679625
0.4400,-0.07955527554,-0.642945125,-0.7559832743,0.09371132994
0.4450,-0.07972232876,-0.6429648801,-0.7559558063,0.09365539087
0.4500,-0.07988575086,-0.6429862866,-0.7559272975,0.09359926816
0.4550,-0.08004476386,-0.6430099465,-0.7558973602,0.09354263917
0.4600,-0.08019865314,-0.6430384804,-0.7558638439,0.09348549718
0.4650,-0.08034755358,-0.6430715335,-0.7558268064,0.0934297176
0.4700,-0.08049143074,-0.6431084243,-0.7557869727,0.09337417299
0.4750,-0.08062983494,-0.6431508225,-0.7557427484,0.09332066975
0.4800,-0.08076374546,-0.6431978197,-0.7556950206,0.09326745434
0.4850,-0.08089284926,-0.6432488031,-0.7556440681,0.0932167718
0.4900,-0.08101750368,-0.6433043123,-0.7555895048,0.09316773174
0.4950,-0.08113842293,-0.6433626123,-0.7555327885,0.09311987453
0.5000,-0.08125672897,-0.643424635,-0.755473096,0.09307246841
0.5050,-0.08137245091,-0.643489022,-0.7554115483,0.09302577863
0.5100,-0.08148608715,-0.6435565934,-0.755347518,0.09297879209
0.5150,-0.08160038307,-0.6436274256,-0.7552806026,0.09293183434
0.5200,-0.08171434875,-0.6437009815,-0.7552117593,0.09288169962
0.5250,-0.08182819201,-0.6437773083,-0.7551409037,0.09282855111
0.5300,-0.08194129209,-0.643856141,-0.7550685082,0.09277091282
0.5350,-0.08205371413,-0.6439369998,-0.7549947995,0.09271019911
0.5400,-0.0821642429,-0.6440193762,-0.7549203024,0.09264673361
0.5450,-0.08227305592,-0.644104038,-0.7548443497,0.09258045257
0.5500,-0.08237659159,-0.6441910903,-0.7547670719,0.09251272071
0.5550,-0.08247448697,-0.6442786699,-0.7546902913,0.09244197524
0.5600,-0.08256699105,-0.6443683315,-0.7546123784,0.09237046994
0.5650,-0.08265367551,-0.6444592012,-0.7545340788,0.0922986014
0.5700,-0.08273378055,-0.6445508773,-0.7544557005,0.09222735024
0.5750,-0.08280492148,-0.644643924,-0.7543772402,0.09215495493
0.5800,-0.08286548537,-0.6447369096,-0.7542998997,0.09208306022
0.5850,-0.08291433021,-0.6448312896,-0.7542224503,0.09201259323
0.5900,-0.08295105028,-0.6449266283,-0.7541456607,0.09194068674
0.5950,-0.08297350596,-0.6450227252,-0.7540696891,0.09186939214
0.6000,-0.08298312285,-0.6451189465,-0.7539949175,0.09179875031
0.6050,-0.08298018298,-0.6452156117,-0.7539215963,0.09172420743
0.6100,-0.08296253351,-0.6453132906,-0.7538492704,0.09164743535
0.6150,-0.08293190892,-0.6454121029,-0.7537778942,0.09156638095
0.6200,-0.08288864748,-0.6455123014,-0.7537074265,0.09147926656
0.6250,-0.08283419182,-0.6456136618,-0.7536381417,0.09138406737
0.6300,-0.08276887714,-0.645717006,-0.7535694478,0.09127950713
0.6350,-0.08269495086,-0.6458217342,-0.753501922,0.09116296538
0.6400,-0.08261277244,-0.6459282987,-0.7534351775,0.09103403741
0.6450,-0.08252412541,-0.6460372253,-0.7533689252,0.09088968466
0.6500,-0.08243057206,-0.646149965,-0.7533016186,0.09073089306
0.6550,-0.08233223652,-0.6462644201,-0.7532352018,0.09055624197
0.6600,-0.08223039135,-0.6463821616,-0.7531682797,0.09036485167
0.6650,-0.08212586073,-0.6465030357,-0.753100886,0.09015665957
0.6700,-0.08202010219,-0.6466278238,-0.7530320658,0.08993257574
0.6750,-0.08191403052,-0.6467562685,-0.7529618425,0.08969328078
0.6800,-0.08181008464,-0.6468886633,-0.7528897402,0.0894382828
0.6850,-0.0817069965,-0.6470259457,-0.7528149243,0.08916883999
0.6900,-0.08160577035,-0.6471676621,-0.7527374597,0.08888662517
0.6950,-0.08150654593,-0.6473144287,-0.7526564019,0.0885948871
0.7000,-0.08140944346,-0.6474658198,-0.752571917,0.0882950992
0.7050,-0.08131570922,-0.6476207923,-0.752484531,0.08798917797
0.7100,-0.08122547847,-0.6477804604,-0.7523931135,0.08767838702
0.7150,-0.081139048,-0.6479436932,-0.7522984109,0.08736433098
0.7200,-0.08105690231,-0.6481114303,-0.752199306,0.08704916121
0.7250,-0.08097781995,-0.6482830335,-0.7520962968,0.08673443114
0.7300,-0.0809036918,-0.6484569918,-0.7519902965,0.08642173631
0.7350,-0.08083451528,-0.6486342176,-0.7518805264,0.08611101566
0.7400,-0.08077044286,-0.6488134149,-0.7517675182,0.08580726507
0.7450,-0.08071024425,-0.6489944661,-0.7516516609,0.08550918125
0.7500,-0.08065511468,-0.6491773578,-0.7515326028,0.08521888057
0.7550,-0.08060394803,-0.6493614178,-0.7514107316,0.0849391851
0.7600,-0.08055807674,-0.6495452169,-0.7512872395,0.08466930485
0.7650,-0.08051662076,-0.6497283372,-0.751162697,0.08440831897
0.7700,-0.08047897394,-0.6499106597,-0.751037008,0.08415867039
0.7750,-0.0804449501,-0.6500906442,-0.7509115652,0.08392011405
0.7800,-0.08041423335,-0.6502683559,-0.7507862801,0.08369335671
0.7850,-0.08038464502,-0.6504439076,-0.7506612136,0.08347918544
0.7900,-0.08035538717,-0.6506169066,-0.7505366963,0.08327856922
0.7950,-0.08032480439,-0.6507875607,-0.750412635,0.08309244181
0.8000,-0.08029042892,-0.6509556022,-0.7502894483,0.08292161745
0.8050,-0.08025087523,-0.6511202831,-0.7501678906,0.08276659892
0.8100,-0.08020478436,-0.6512809932,-0.7500486301,0.08262755578
0.8150,-0.08014932253,-0.6514370914,-0.7499325058,0.08250477987
0.8200,-0.08008433307,-0.6515887878,-0.7498190792,0.08240084714
0.8250,-0.08001024543,-0.6517349628,-0.7497093219,0.0823154397
0.8300,-0.07992824524,-0.6518759915,-0.7496026625,0.08224971496
0.8350,-0.07983799121,-0.6520119294,-0.7494992873,0.08220193035
0.8400,-0.07973958063,-0.6521434078,-0.7493987021,0.08217152925
0.8450,-0.07963416891,-0.6522693121,-0.7493018589,0.08215757955
0.8500,-0.07952326505,-0.652390354,-0.749208161,0.08215843097
0.8550,-0.07940723386,-0.6525059342,-0.7491179743,0.08217516475
0.8600,-0.07928597655,-0.6526161502,-0.7490312602,0.08220745439
0.8650,-0.07915971115,-0.6527206789,-0.7489483776,0.08225438036
0.8700,-0.07902913938,-0.6528192637,-0.7488697259,0.08231365514
0.8750,-0.07889674203,-0.6529119113,-0.748794954,0.08238602501
0.8800,-0.07876348905,-0.6529976224,-0.7487248849,0.08247099256
0.8850,-0.0786292749,-0.6530762287,-0.7486599148,0.0825663885
0.8900,-0.0784940881,-0.6531476574,-0.7485999657,0.08267349706
0.8950,-0.07836023456,-0.6532125839,-0.7485443196,0.08279127622
0.9000,-0.07822581895,-0.6532717497,-0.7484926097,0.08291896992
0.9050,-0.07808855113,-0.6533252873,-0.7484449282,0.08305682743
0.9100,-0.07794906937,-0.6533735919,-0.7484007982,0.08320539115
0.9150,-0.07780599125,-0.6534162443,-0.7483608422,0.08336359674
0.9200,-0.0776582694,-0.6534526846,-0.748325691,0.08353108578
0.9250,-0.07750265193,-0.6534834716,-0.7482951995,0.08370773986
0.9300,-0.07733731791,-0.6535073903,-0.7482705603,0.08389397319
0.9350,-0.07715983872,-0.6535265065,-0.7482501922,0.08408991958
0.9400,-0.07696864843,-0.6535394102,-0.7482353875,0.08429633056
0.9450,-0.07676094678,-0.6535466561,-0.7482260926,0.08451177185
0.9500,-0.07653645855,-0.6535479308,-0.748222619,0.08473597341
0.9550,-0.07629594493,-0.6535448684,-0.7482233789,0.0849694592
0.9600,-0.07603756585,-0.6535357719,-0.748230198,0.08521064633
0.9650,-0.07576171631,-0.6535217919,-0.7482419691,0.08545984753
0.9700,-0.07546873124,-0.6535027472,-0.7482589267,0.0857158595
0.9750,-0.0751601229,-0.6534791391,-0.7482802718,0.0859802623
0.9800,-0.0748355223,-0.6534507503,-0.7483062859,0.08625232783
0.9850,-0.07449732276,-0.653416486,-0.7483373557,0.08653465642
0.9900,-0.07414707263,-0.6533768452,-0.7483731502,0.0868247537
0.9950,-0.07378550823,-0.6533311238,-0.7484141447,0.08712295619
1.0000,-0.07341640623,-0.6532804154,-0.7484592053,0.08742738819
1.0050,-0.07304083399,-0.6532241532,-0.7485086836,0.08773820602
1.0100,-0.07265809665,-0.6531626899,-0.7485624067,0.08805466866
1.0150,-0.0722707258,-0.6530966457,-0.7486194152,0.08837807837
1.0200,-0.07187870885,-0.6530255487,-0.7486803908,0.08870601104
1.0250,-0.07148435257,-0.6529505324,-0.7487442487,0.08903729347
1.0300,-0.07108678232,-0.6528746283,-0.7488085672,0.08937068201
1.0350,-0.07068693996,-0.6527973505,-0.7488736389,0.08970645801
1.0400,-0.0702867442,-0.6527205328,-0.7489383701,0.09003886639
1.0450,-0.06988736437,-0.6526459282,-0.7490010547,0.09036851654
1.0500,-0.06948973755,-0.6525746323,-0.7490611039,0.09069172107
1.0550,-0.06909451218,-0.6525087171,-0.7491168771,0.09100674113
1.0600,-0.06870050739,-0.6524479994,-0.7491688408,0.09131208195
1.0650,-0.06830760373,-0.6523948517,-0.7492148341,0.09160873915
1.0700,-0.06791374191,-0.652349141,-0.7492553871,0.09189497675
1.0750,-0.06751952716,-0.6523123151,-0.7492894056,0.09216910432
1.0800,-0.06712218927,-0.6522849059,-0.7493163895,0.09243355283
1.0850,-0.0667212466,-0.6522676154,-0.7493358908,0.09268740958
1.0900,-0.06631697111,-0.6522610006,-0.7493473759,0.09293092399
1.0950,-0.06590852762,-0.6522649674,-0.7493509238,0.09316475362
1.1000,-0.06549692203,-0.65227922,-0.7493465886,0.09338984187
1.1050,-0.06508190215,-0.6523051913,-0.7493332395,0.09360544708
1.1100,-0.06466282524,-0.6523422113,-0.749311232,0.09381383671
1.1150,-0.06424007223,-0.6523898224,-0.7492809828,0.09401458168
1.1200,-0.06381295841,-0.6524479844,-0.7492426034,0.09420751141
1.1250,-0.063381827,-0.6525172728,-0.7491951665,0.09439573679
1.1300,-0.0629454585,-0.6525974458,-0.7491390196,0.09457892093
1.1350,-0.06250433374,-0.6526881329,-0.7490742649,0.0947584033
1.1400,-0.06205860218,-0.6527889117,-0.7490011162,0.09493521254
1.1450,-0.06160629984,-0.6528999352,-0.7489193339,0.09511135434
1.1500,-0.06114653916,-0.6530203565,-0.7488296025,0.09528767625
1.1550,-0.06067991586,-0.6531515604,-0.7487306073,0.09546446772
1.1600,-0.0602042268,-0.6532927513,-0.7486230283,0.09564305361
1.1650,-0.05971923819,-0.6534427422,-0.7485079019,0.09582335842
1.1700,-0.05922194431,-0.6536017823,-0.7483849331,0.09600762203
1.1750,-0.05871152338,-0.6537695308,-0.7482542977,0.09619700383
1.1800,-0.05818593833,-0.6539467526,-0.7481152011,0.0963933985
1.1850,-0.05764402169,-0.6541323966,-0.7479684081,0.0965983174
1.1900,-0.05708582309,-0.6543265881,-0.7478136738,0.09681236624
1.1950,-0.05650819347,-0.654527751,-0.7476525213,0.09703584173
1.2000,-0.05591008888,-0.6547361533,-0.7474844363,0.09727100816
1.2050,-0.05529221199,-0.6549499983,-0.7473109317,0.09751739461
1.2100,-0.05465260915,-0.6551682446,-0.7471330661,0.09777446041
1.2150,-0.05399199298,-0.6553904909,-0.7469508415,0.09804391641
1.2200,-0.053310754,-0.6556160535,-0.7467647815,0.09832555628
1.2250,-0.05261214183,-0.6558446495,-0.7465746924,0.09862041888
1.2300,-0.05189566898,-0.6560743969,-0.7463826209,0.09892526691
1.2350,-0.05116363494,-0.656305226,-0.7461882636,0.09924116088
1.2400,-0.05041863806,-0.6565374778,-0.7459914754,0.0995651537
1.2450,-0.04966352149,-0.6567699822,-0.7457926524,0.09990017392
1.2500,-0.04890112312,-0.6570018179,-0.745592942,0.1002419886
1.2550,-0.04813116349,-0.6572329324,-0.7453922686,0.1005913991
1.2600,-0.04735713011,-0.6574637922,-0.7451900142,0.100948041
1.2650,-0.04658072193,-0.6576925862,-0.7449880525,0.1013089342
1.2700,-0.04580502198,-0.6579192881,-0.744786089,0.1016749331
1.2750,-0.04502855018,-0.6581427518,-0.7445855241,0.1020438398
1.2800,-0.04425120888,-0.6583626071,-0.7443867239,0.1024153964
1.2850,-0.0434744999,-0.658579086,-0.7441895537,0.1027884409
1.2900,-0.04269596033,-0.6587922785,-0.743993868,0.1031644959
1.2950,-0.04191746347,-0.6590022468,-0.7437994815,0.1035436924
1.3000,-0.04113610597,-0.6592084872,-0.743606862,0.1039270219
1.3050,-0.04035263846,-0.6594116092,-0.7434153171,0.1043151982
1.3100,-0.03956742556,-0.6596115221,-0.7432246813,0.1047097506
1.3150,-0.03877954892,-0.6598090234,-0.7430343778,0.1051100029
1.3200,-0.03799125037,-0.6600037073,-0.7428446236,0.1055160481
1.3250,-0.03720148961,-0.660195107,-0.7426557718,0.1059286291
1.3300,-0.0364123694,-0.6603818023,-0.7424690777,0.106346994
1.3350,-0.03562500498,-0.6605657777,-0.742282997,0.1067692127
1.3400,-0.03484106301,-0.6607460565,-0.7420984521,0.1071943871
1.3450,-0.03406011167,-0.6609222806,-0.7419158511,0.1076221058
1.3500,-0.03328206771,-0.6610950352,-0.7417347429,0.108051976
1.3550,-0.03250750664,-0.6612617661,-0.7415576947,0.1084819068
1.3600,-0.03173647422,-0.6614244972,-0.7413828542,0.1089123236
1.3650,-0.03097010809,-0.6615811448,-0.7412124415,0.1093405587
1.3700,-0.03020938277,-0.6617326485,-0.7410456961,0.1097659846
1.3750,-0.02945275617,-0.6618777539,-0.7408839533,0.1101877572
1.3800,-0.02870345872,-0.6620157381,-0.7407279086,0.1106048795
1.3850,-0.02796049201,-0.6621469548,-0.7405774248,0.1110166614
1.3900,-0.02722387097,-0.6622710739,-0.7404328755,0.1114228089
1.3950,-0.02649383815,-0.6623877874,-0.740294539,0.1118234823
1.4000,-0.02577002349,-0.6624968077,-0.7401627217,0.1122186752
1.4050,-0.0250530479,-0.6625983466,-0.7400371982,0.1126087086
1.4100,-0.02434489897,-0.6626912622,-0.739919142,0.1129923897
1.4150,-0.02364518426,-0.6627772989,-0.7398066181,0.113372506
1.4200,-0.02295470916,-0.6628551084,-0.7397005417,0.1137510231
1.4250,-0.02227276922,-0.6629238959,-0.7396019345,0.1141262921
1.4300,-0.02159982021,-0.6629848284,-0.7395095644,0.1144996474
1.4350,-0.02093524935,-0.663036343,-0.7394246873,0.1148723425
1.4400,-0.02028100477,-0.6630797539,-0.73934603,0.1152448206
1.4450,-0.01963715092,-0.6631149005,-0.7392738572,0.1156165003
1.4500,-0.01900488038,-0.6631409311,-0.7392087532,0.1159885305
1.4550,-0.01838441876,-0.6631574451,-0.7391508838,0.1163623098
1.4600,-0.01777422343,-0.663164759,-0.7390999509,0.1167383482
1.4650,-0.01717276018,-0.6631639031,-0.7390546357,0.1171195087
1.4700,-0.01658113303,-0.6631551948,-0.7390147029,0.1175054149
1.4750,-0.01599908224,-0.6631388901,-0.7389798668,0.1178965572
1.4800,-0.01542865308,-0.6631152521,-0.7389499738,0.1182922455
1.4850,-0.01486850123,-0.6630844603,-0.7389248683,0.1186927345
1.4900,-0.01431717245,-0.663045901,-0.7389048912,0.1190995949
1.4950,-0.01377399168,-0.6630006092,-0.7388889113,0.1195142087
1.5000,-0.01323779286,-0.662947698,-0.7388779373,0.1199354172
1.5050,-0.01270703159,-0.6628870086,-0.7388717828,0.1203654178
1.5100,-0.01218354442,-0.6628186597,-0.7388704495,0.1208033298
1.5150,-0.01166683897,-0.6627418265,-0.7388749578,0.1212474869
1.5200,-0.0111567764,-0.6626570491,-0.7388846552,0.121698923
1.5250,-0.01065204626,-0.6625631318,-0.7389010838,0.1221548958
1.5300,-0.01015367607,-0.6624627547,-0.7389216327,0.122616566
1.5350,-0.009663036175,-0.6623539113,-0.7389481313,0.1230836352
1.5400,-0.009180564412,-0.6622362254,-0.7389809962,0.1235555999
1.5450,-0.008705771695,-0.6621094251,-0.739020764,0.1240307592
1.5500,-0.008236581906,-0.661974034,-0.7390668785,0.1245097832
1.5550,-0.007776902225,-0.6618287766,-0.739121008,0.1249893025
1.5600,-0.007325282516,-0.6616741864,-0.7391827589,0.1254689615
1.5650,-0.006881537685,-0.661510532,-0.7392516762,0.1259500682
1.5700,-0.006445660551,-0.6613383623,-0.7393276071,0.1264306664
1.5750,-0.006017780677,-0.6611586042,-0.7394098044,0.1269103133
1.5800,-0.00559982125,-0.6609713718,-0.7394979812,0.1273900447
1.5850,-0.005190804483,-0.660777109,-0.7395920156,0.1278683634
1.5900,-0.004793111968,-0.6605745768,-0.7396931656,0.1283443622
1.5950,-0.004404980224,-0.6603651579,-0.7398004338,0.128816818
1.6000,-0.004025510753,-0.6601477321,-0.7399151388,0.1292840067
1.6050,-0.003653008992,-0.6599230548,-0.7400366597,0.1297457497
1.6100,-0.003288007576,-0.6596897339,-0.7401663002,0.1302017364
1.6150,-0.002927130436,-0.6594470926,-0.740304962,0.1306504003
1.6200,-0.002569385152,-0.6591966667,-0.7404509764,0.1310934955
1.6250,-0.002213473872,-0.6589368339,-0.7406056246,0.1315319667
1.6300,-0.001857814634,-0.6586677294,-0.7407688866,0.1319652508
1.6350,-0.001502092271,-0.6583886606,-0.7409411145,0.1323947891
1.6400,-0.001144126147,-0.6580989834,-0.7411226541,0.1328218003
1.6450,-0.0007849611094,-0.6577984194,-0.741314065,0.1332444381
1.6500,-0.0004253592826,-0.6574864138,-0.7415158253,0.1336626932
1.6550,-6.807639259e-5,-0.6571636785,-0.7417273405,0.1340762747
1.6600,0.0002871021709,-0.6568294746,-0.7419495998,0.134483271
1.6650,0.0006384384971,-0.6564846645,-0.7421819731,0.1348828992
1.6700,0.0009832027794,-0.6561286771,-0.7424251205,0.1352742875
1.6750,0.001320787514,-0.6557631505,-0.7426776975,0.1356568597
1.6800,0.00165206908,-0.65538715,-0.7429406992,0.1360296723
1.6850,0.001975423542,-0.655000962,-0.7432139684,0.1363922092
1.6900,0.002290777512,-0.654606073,-0.7434962077,0.1367443989
1.6950,0.002597504223,-0.654203689,-0.7437864899,0.1370855345
1.7000,0.002894916085,-0.6537943536,-0.7440842511,0.1374161194
1.7050,0.003183378275,-0.6533786874,-0.7443887299,0.1377373432
1.7100,0.003463345077,-0.6529585408,-0.7446981357,0.1380501211
1.7150,0.003734729972,-0.6525330237,-0.7450131585,0.1383549727
1.7200,0.003998216013,-0.6521053361,-0.7453312406,0.138650592
1.7250,0.004254542372,-0.6516755004,-0.745652052,0.1389386854
1.7300,0.004504653779,-0.6512441356,-0.7459749212,0.1392199727
1.7350,0.004748845421,-0.650814003,-0.746297191,0.139495823
1.7400,0.00498909584,-0.6503835721,-0.7466202096,0.1397661642
1.7450,0.005225149668,-0.6499541035,-0.7469430098,0.1400303582
1.7500,0.005458374467,-0.6495266453,-0.7472646469,0.1402885979
1.7550,0.005690417113,-0.6491025861,-0.7475843239,0.1405387152
1.7600,0.005916830626,-0.6486826001,-0.7479016984,0.1407797041
1.7650,0.006137335297,-0.6482669102,-0.7482169972,0.1410094729
1.7700,0.006350646861,-0.6478553571,-0.7485302344,0.1412288699
1.7750,0.006559083565,-0.6474490441,-0.7488405921,0.1414371994
1.7800,0.006765963723,-0.6470476896,-0.7491482168,0.1416349478
1.7850,0.006971576944,-0.6466518431,-0.7494529578,0.1418205028
1.7900,0.007177190642,-0.646262678,-0.7497535214,0.1419954092
1.7950,0.007383519441,-0.6458799959,-0.7500502697,0.1421587403
1.8000,0.007590182696,-0.6455033865,-0.7503435348,0.1423107406
1.8050,0.007797702505,-0.6451346512,-0.7506318608,0.1424509994
1.8100,0.008007890895,-0.6447732419,-0.7509156583,0.1425798528
1.8150,0.008221364507,-0.6444206747,-0.7511933553,0.1426987955
1.8200,0.008438426843,-0.6440768932,-0.7514648757,0.1428085754
1.8250,0.008659545991,-0.6437420175,-0.7517294632,0.1429127048
1.8300,0.008884318646,-0.6434151775,-0.7519874579,0.1430134309
1.8350,0.009114571602,-0.643095765,-0.7522394069,0.1431105738
1.8400,0.009348253584,-0.6427840931,-0.7524848348,0.1432054233
1.8450,0.009583039702,-0.6424806669,-0.7527234875,0.1432972761
1.8500,0.009815750053,-0.6421844135,-0.7529559611,0.1433881125
1.8550,0.01004612782,-0.6418959213,-0.7531814512,0.1434796259
1.8600,0.01027116865,-0.6416141263,-0.753400709,0.1435729355
1.8650,0.01048777511,-0.6413383932,-0.7536139792,0.1436699077
1.8700,0.01069586151,-0.6410675004,-0.7538220149,0.1437721403
1.8750,0.01089224048,-0.6408006589,-0.7540252193,0.1438813512
1.8800,0.01107696142,-0.6405369506,-0.7542245688,0.1439965823
1.8850,0.01124907519,-0.640274471,-0.7544214411,0.1441192193
1.8900,0.01140791136,-0.6400142383,-0.7546149215,0.1442496262
1.8950,0.01155356335,-0.6397532821,-0.754807075,0.1443902098
1.9000,0.01168343904,-0.6394931202,-0.7549963053,0.1445428153
1.9050,0.01179681864,-0.6392304478,-0.7551852102,0.1447085624
1.9100,0.01189552024,-0.6389655817,-0.7553736525,0.1448866011
1.9150,0.01197613716,-0.638698418,-0.7555618658,0.1450764283
1.9200,0.01203960692,-0.6384271394,-0.7557516041,0.1452767994
1.9250,0.01208521603,-0.6381537222,-0.7559418956,0.1454841054
1.9300,0.01211329655,-0.6378776413,-0.7561326952,0.1457008235
1.9350,0.0121258956,-0.6375981805,-0.756324633,0.1459265991
1.9400,0.01212308699,-0.6373145275,-0.7565184344,0.1461611514
1.9450,0.01210507757,-0.6370270331,-0.7567138891,0.146403949
1.9500,0.01207518769,-0.6367352932,-0.7569113493,0.1466545788
1.9550,0.01203680274,-0.6364383651,-0.7571117943,0.1469117211
1.9600,0.01198929683,-0.6361355125,-0.7573155257,0.1471769716
1.9650,0.01193668553,-0.6358259556,-0.7575228948,0.147451462
1.9700,0.01187836959,-0.6355089927,-0.7577344803,0.1477351748
1.9750,0.01181468994,-0.6351820476,-0.7579520461,0.1480299811
1.9800,0.01174503034,-0.6348475604,-0.7581737673,0.1483346481
1.9850,0.0116679962,-0.6345052646,-0.758399509,0.1486509731
1.9900,0.01158464362,-0.6341529981,-0.7586308432,0.148979914
1.9950,0.01149535536,-0.6337912716,-0.7588670727,0.1493226265
2.0000,0.01140248057,-0.6334183026,-0.7591097064,0.1496786257
2.0050,0.01130412238,-0.63303348,-0.7593592986,0.1500476112
2.0100,0.01120228869,-0.6326373437,-0.7596153856,0.1504292724
2.0150,0.01109728007,-0.6322306721,-0.759877489,0.1508225094
2.0200,0.0109895864,-0.63181181,-0.7601468586,0.1512277058
2.0250,0.01087854871,-0.6313812991,-0.7604234226,0.1516427733
2.0300,0.01076579617,-0.6309395239,-0.7607069285,0.1520670373
2.0350,0.01065074807,-0.6304855815,-0.7609985139,0.1524983766
2.0400,0.01053162407,-0.6300217323,-0.7612964637,0.1529359213
2.0450,0.01040804812,-0.6295492328,-0.7615998406,0.1533790042
2.0500,0.0102759906,-0.6290678137,-0.7619089647,0.1538272383
2.0550,0.0101344756,-0.6285795724,-0.7622223178,0.1542794599
2.0600,0.009984062023,-0.6280850872,-0.7625397127,0.1547340564
2.0650,0.009823319813,-0.627584768,-0.7628606934,0.1551915716
2.0700,0.009652511309,-0.6270805832,-0.7631841615,0.1556493072
2.0750,0.009469904716,-0.6265725626,-0.7635103571,0.1561059874
2.0800,0.009274901498,-0.6260599843,-0.7638397422,0.1565621937
2.0850,0.009068478716,-0.6255439773,-0.7641709997,0.1570196754
2.0900,0.008851762509,-0.6250238645,-0.7645047878,0.157477759
2.0950,0.008625314346,-0.6244991847,-0.7648415584,0.1579359453
2.1000,0.008390254149,-0.6239715189,-0.765179798,0.1583951514
2.1050,0.008146644965,-0.6234408586,-0.7655196964,0.1588544066
2.1100,0.007895019074,-0.622908141,-0.7658597155,0.1593173333
2.1150,0.007634978174,-0.6223730867,-0.7662001862,0.1597833618
2.1200,0.007366694604,-0.6218367384,-0.766540192,0.1602527271
2.1250,0.00708843992,-0.6213005002,-0.7668783705,0.1607264985
2.1300,0.006796099993,-0.6207639372,-0.767215669,0.1612019367
2.1350,0.006487653139,-0.6202285059,-0.7675503983,0.1616814673
2.1400,0.006164650146,-0.6196922689,-0.7678839126,0.1621659202
2.1450,0.005827171072,-0.6191542234,-0.7682165396,0.1626574313
2.1500,0.005476304563,-0.6186147146,-0.7685481143,0.1631552663
2.1550,0.005111560028,-0.6180723472,-0.7688798149,0.163659023
2.1600,0.004732392374,-0.6175250705,-0.7692131636,0.1641691224
2.1650,0.004338655659,-0.6169716279,-0.7695497014,0.1646828571
2.1700,0.003929638923,-0.616411865,-0.7698899914,0.1651979776
2.1750,0.003505601579,-0.6158442626,-0.7702351101,0.1657149064
2.1800,0.003064691024,-0.615268412,-0.7705855547,0.1662326435
2.1850,0.00260874674,-0.6146837665,-0.770941448,0.1667523474
2.1900,0.002138215479,-0.6140873563,-0.7713045343,0.1672766042
2.1950,0.001652860591,-0.6134791463,-0.771675249,0.1678032034
2.2000,0.001155737045,-0.612857146,-0.7720551327,0.1683319786
2.2050,0.0006472707525,-0.6122225485,-0.7724432581,0.1688625037
2.2100,0.0001279804442,-0.6115750219,-0.7728393845,0.1693967592
2.2150,-0.0003988256122,-0.610913526,-0.7732439921,0.1699359687
2.2200,-0.0009312028324,-0.6102402636,-0.773654976,0.1704814703
2.2250,-0.001467920144,-0.6095550709,-0.7740719218,0.171035437
2.2300,-0.002008342207,-0.6088582679,-0.7744951166,0.1715951356
2.2350,-0.002552656207,-0.6081516464,-0.7749229527,0.1721611925
2.2400,-0.003099760738,-0.6074387409,-0.7753529015,0.1727322947
2.2450,-0.003650728275,-0.6067194409,-0.7757845896,0.1733103074
2.2500,-0.004206676948,-0.6059945502,-0.77621761,0.173894022
2.2550,-0.004770605905,-0.6052660653,-0.7766503729,0.1744833226
2.2600,-0.005345093266,-0.6045359694,-0.7770814403,0.1750774878
2.2650,-0.005932779389,-0.6038043913,-0.7775110238,0.1756748905
2.2700,-0.006533613949,-0.6030716087,-0.7779387081,0.1762762407
2.2750,-0.007147370525,-0.6023381626,-0.7783647387,0.1768784515
2.2800,-0.007771736483,-0.6016013099,-0.7787909203,0.1774828625
2.2850,-0.008404114675,-0.6008587054,-0.7792192731,0.1780884933
2.2900,-0.009042688212,-0.6001103981,-0.7796501443,0.1786935714
2.2950,-0.009687746437,-0.5993550413,-0.7800848482,0.1792967138
2.3000,-0.01033891899,-0.5985937403,-0.7805217915,0.1799010115
2.3050,-0.01099287555,-0.5978255986,-0.7809615407,0.1805070145
2.3100,-0.01164891475,-0.5970482988,-0.7814050976,0.1811179317
2.3150,-0.01230578993,-0.5962624687,-0.7818517821,0.1817344954
2.3200,-0.01296346127,-0.5954689481,-0.7823009232,0.1823566453
2.3250,-0.0136210485,-0.5946699847,-0.7827509872,0.1829835196
2.3300,-0.01427948903,-0.5938661899,-0.7832015755,0.1836146422
2.3350,-0.01494057659,-0.593060766,-0.7836498728,0.1842514149
2.3400,-0.01560589405,-0.5922542817,-0.7840950686,0.1848952278
2.3450,-0.01627891391,-0.5914477093,-0.7845358394,0.1855481631
2.3500,-0.01695819048,-0.5906427414,-0.7849704388,0.1862121963
2.3550,-0.01764500799,-0.5898394091,-0.7853984855,0.1868885876
2.3600,-0.01833973291,-0.5890381409,-0.7858192839,0.1875787188
2.3650,-0.01904301069,-0.5882408998,-0.7862314442,0.1882820324
2.3700,-0.01975347926,-0.5874472838,-0.7866350905,0.1889992674
2.3750,-0.02047450237,-0.586657341,-0.7870299627,0.1897308538
2.3800,-0.02120544066,-0.5858725584,-0.787415662,0.1904737509
2.3850,-0.02194821962,-0.5850922855,-0.787792957,0.1912264363
2.3900,-0.02270584369,-0.5843179915,-0.7881615012,0.1919853576
2.3950,-0.02347818898,-0.5835504324,-0.7885203742,0.1927518793
2.4000,-0.02426522729,-0.5827878802,-0.7888708136,0.1935260313
2.4050,-0.0250639085,-0.5820264775,-0.789215155,0.1943101107
2.4100,-0.02587107185,-0.5812660777,-0.7895541285,0.1951018011
2.4150,-0.02668333352,-0.5805035996,-0.7898896731,0.1959027181
2.4200,-0.02749755235,-0.5797389972,-0.7902223432,0.1967110266
2.4250,-0.02831256171,-0.5789711071,-0.79055303,0.1975266128
2.4300,-0.0291212425,-0.5781999644,-0.7908814337,0.1983514866
2.4350,-0.02992176388,-0.5774266486,-0.7912075905,0.1991825852
2.4400,-0.03071312066,-0.5766522999,-0.7915309289,0.2000190437
2.4450,-0.03149373575,-0.5758780594,-0.7918506279,0.2008611172
2.4500,-0.0322639551,-0.5751039445,-0.7921671232,0.2017070624
2.4550,-0.03302105673,-0.5743311655,-0.7924799543,0.2025557806
2.4600,-0.03376589075,-0.5735609521,-0.7927887342,0.2034053142
2.4650,-0.03449544287,-0.5727963306,-0.7930913352,0.204256119
2.4700,-0.03521187421,-0.5720375192,-0.7933876769,0.2051077634
2.4750,-0.03591682999,-0.5712852698,-0.7936780473,0.2059569837
2.4800,-0.03660866538,-0.5705417981,-0.7939610453,0.2068035801
2.4850,-0.03729021018,-0.5698062605,-0.794237487,0.2076465265
2.4900,-0.03796315293,-0.5690813965,-0.7945063424,0.2084822176
2.4950,-0.03862949283,-0.5683668842,-0.7947677157,0.2093110732
2.5000,-0.03928964489,-0.5676634706,-0.7950213113,0.210132393
2.5050,-0.03994595965,-0.5669710201,-0.7952670995,0.2109464936
2.5100,-0.04059812015,-0.5662885961,-0.7955059529,0.2117529161
2.5150,-0.04124802602,-0.5656162956,-0.7957381965,0.2125500627
2.5200,-0.04189647922,-0.564952103,-0.7959655164,0.2133370647
2.5250,-0.04254129535,-0.5642936201,-0.7961899608,0.2141132756
2.5300,-0.04318099577,-0.5636409451,-0.7964111584,0.2148803233
2.5350,-0.0438150569,-0.5629926287,-0.7966306385,0.2156366544
2.5400,-0.04444363917,-0.5623465454,-0.7968503828,0.2163806674
2.5450,-0.04506541392,-0.5617028015,-0.7970702281,0.2171131565
2.5500,-0.04568075842,-0.5610624759,-0.797289238,0.2178348856
2.5550,-0.04629009427,-0.5604253954,-0.797506928,0.2185481711
2.5600,-0.04689199162,-0.5597903057,-0.7977241419,0.2192536161
2.5650,-0.04748539477,-0.5591564737,-0.7979410364,0.2199528986
2.5700,-0.04807025186,-0.5585255919,-0.7981567082,0.2206451523
2.5750,-0.04864876513,-0.5578980258,-0.7983697318,0.2213342763
2.5800,-0.04922251304,-0.5572757103,-0.7985787583,0.2220200299
2.5850,-0.04979371799,-0.5566597584,-0.798783402,0.2227006415
2.5900,-0.05036357641,-0.5560503812,-0.798983014,0.2233777676
2.5950,-0.05093240221,-0.555446747,-0.7991783381,0.2240508546
2.6000,-0.0515004744,-0.5548485314,-0.7993699215,0.2247187954
2.6050,-0.05206840315,-0.5542563471,-0.7995578468,0.2253797523
2.6100,-0.05263715488,-0.5536721388,-0.7997411565,0.2260322437
2.6150,-0.0532079066,-0.5530936847,-0.7999211246,0.2266770589
2.6200,-0.05378173968,-0.5525213541,-0.8000972594,0.2273148766
2.6250,-0.05435927636,-0.5519540805,-0.8002696667,0.2279478507
2.6300,-0.05494215749,-0.5513906536,-0.8004382215,0.2285790018
2.6350,-0.05553044613,-0.5508294098,-0.8006042519,0.2292076847
2.6400,-0.0561212316,-0.5502703478,-0.8007680614,0.2298335562
2.6450,-0.05671186546,-0.5497126273,-0.8009305968,0.2304560064
2.6500,-0.05730238477,-0.5491564048,-0.8010922448,0.2310733545
2.6550,-0.05789070074,-0.5486001689,-0.8012545189,0.2316845211
2.6600,-0.05847661827,-0.5480450291,-0.8014170822,0.2322881649
2.6650,-0.05905875568,-0.5474904093,-0.8015804902,0.2328841619
2.6700,-0.059637981,-0.546938078,-0.801743362,0.2334729784
2.6750,-0.06021211866,-0.5463884557,-0.8019056081,0.2340545916
2.6800,-0.06078351824,-0.5458443251,-0.8020645899,0.2346310516
2.6850,-0.06135390369,-0.5453056278,-0.8022200793,0.2352029233
2.6900,-0.06192001196,-0.5447725553,-0.8023717748,0.2357717329
2.6950,-0.06248435961,-0.5442451551,-0.8025191502,0.2363385907
2.7000,-0.06304742785,-0.5437248953,-0.8026618043,0.236901431
2.7050,-0.0636109944,-0.5432138822,-0.802798402,0.2374595657
2.7100,-0.06417748197,-0.5427116095,-0.8029292148,0.2380126798
2.7150,-0.06474782268,-0.5422198396,-0.8030529327,0.2385610034
2.7200,-0.06532397108,-0.5417373498,-0.8031693991,0.2391073797
2.7250,-0.06590483559,-0.5412636093,-0.8032796232,0.2396499634
2.7300,-0.06649232892,-0.5407988185,-0.8033835761,0.2401879217
2.7350,-0.0670867792,-0.5403422105,-0.8034815539,0.2407219394
2.7400,-0.06768984793,-0.5398930592,-0.8035738964,0.2412520719
2.7450,-0.0683007554,-0.5394522641,-0.8036602714,0.2417776454
2.7500,-0.06891900465,-0.5390180277,-0.8037415141,0.2423000518
2.7550,-0.06954448004,-0.538589106,-0.8038181641,0.2428203026
2.7600,-0.07017485704,-0.5381674122,-0.8038890589,0.2433386669
2.7650,-0.0708148373,-0.537751356,-0.803954791,0.2438553505
2.7700,-0.07146203391,-0.5373410164,-0.8040151662,0.2443714841
2.7750,-0.07211568569,-0.5369358335,-0.8040702137,0.2448884033
2.7800,-0.0727762616,-0.5365335837,-0.8041209946,0.2454073254
2.7850,-0.07344387416,-0.5361361861,-0.8041664753,0.245927362
2.7900,-0.07411735432,-0.5357407259,-0.8042084276,0.246449381
2.7950,-0.07479580166,-0.5353464805,-0.8042473844,0.246973437
2.8000,-0.07548144687,-0.534952855,-0.8042838292,0.2474985176
2.8050,-0.07617090672,-0.5345584609,-0.8043192007,0.2480239267
2.8100,-0.07686469013,-0.5341636087,-0.8043537664,0.2485479371
2.8150,-0.07756172099,-0.5337675771,-0.8043871317,0.2490736748
2.8200,-0.07826066096,-0.5333706912,-0.8044201017,0.2495982268
2.8250,-0.07896237401,-0.5329732492,-0.8044523677,0.2501216649
2.8300,-0.07966608784,-0.5325728145,-0.8044853381,0.2506448732
2.8350,-0.08037021631,-0.5321713249,-0.8045180269,0.2511673817
2.8400,-0.08107478289,-0.5317688889,-0.8045494748,0.2516920159
2.8450,-0.08178027452,-0.531366098,-0.8045798215,0.2522169055
2.8500,-0.08248689069,-0.5309614839,-0.8046094243,0.2527439215
2.8550,-0.0831947498,-0.5305557424,-0.804638485,0.253270895
2.8600,-0.08390382729,-0.5301487327,-0.8046679228,0.2537951989
2.8650,-0.08461622645,-0.5297420138,-0.8046965795,0.2543165509
2.8700,-0.08533199982,-0.5293348756,-0.8047250472,0.25483453
2.8750,-0.08604868723,-0.5289278071,-0.8047534334,0.2553486042
2.8800,-0.08676709494,-0.5285204901,-0.8047824155,0.2558570431
2.8850,-0.08748681888,-0.5281135473,-0.8048114234,0.2563605088
2.8900,-0.08820766633,-0.527706773,-0.8048404635,0.2568594898
2.8950,-0.0889292175,-0.5273013112,-0.8048683374,0.2573555537
2.9000,-0.08965248919,-0.5268973742,-0.8048955389,0.257846388
2.9050,-0.09037768815,-0.526496088,-0.8049206995,0.2583339124
2.9100,-0.09110570046,-0.52609776,-0.8049439516,0.2588167943
2.9150,-0.0918347623,-0.5257031293,-0.8049647406,0.2592958979
2.9200,-0.09256470067,-0.5253103518,-0.8049842084,0.2597715049
2.9250,-0.09329590843,-0.5249183584,-0.8050026917,0.2602446097
2.9300,-0.09402715276,-0.5245267265,-0.805021414,0.2607127359
2.9350,-0.09475744636,-0.5241358125,-0.8050403566,0.2611756126
2.9400,-0.09548665693,-0.5237436645,-0.8050613122,0.2616317179
2.9450,-0.09621515347,-0.5233509732,-0.8050842704,0.2620796076
2.9500,-0.09694081767,-0.5229570253,-0.8051103401,0.2625181287
2.9550,-0.09766420129,-0.5225616603,-0.8051396266,0.2629471367
2.9600,-0.0983837134,-0.5221645486,-0.8051719631,0.2633684471
2.9650,-0.09909997324,-0.521766971,-0.8052068836,0.2637807762
2.9700,-0.0998132865,-0.5213675813,-0.8052452727,0.2641840341
2.9750,-0.1005224863,-0.5209677054,-0.8052861674,0.2645790398
2.9800,-0.1012264365,-0.5205667592,-0.8053301043,0.264965811
2.9850,-0.1019225611,-0.5201653075,-0.8053772736,0.2653437235
2.9900,-0.1026136639,-0.5197645059,-0.8054264012,0.2657133918
2.9950,-0.1032993383,-0.5193647809,-0.8054778966,0.2660729771
3.0000,-0.1039796531,-0.5189668074,-0.8055310263,0.2664234417
3.0050,-0.1046574246,-0.5185710504,-0.8055850597,0.2667650666
3.0100,-0.1053326036,-0.5181788658,-0.8056395313,0.2670967078
3.0150,-0.1060053537,-0.5177910667,-0.8056939655,0.267418231
3.0200,-0.1066756985,-0.5174063037,-0.8057495512,0.2677287301
3.0250,-0.1073438369,-0.5170258613,-0.8058057098,0.2680274566
3.0300,-0.1080079307,-0.5166497815,-0.8058619112,0.2683167349
3.0350,-0.1086691994,-0.5162774715,-0.8059182523,0.2685969995
3.0400,-0.1093236347,-0.5159092238,-0.8059749386,0.2688687674
3.0450,-0.1099720768,-0.5155445765,-0.8060321733,0.2691320634
3.0500,-0.1106138517,-0.5151839992,-0.8060895019,0.2693877089
3.0550,-0.1112507741,-0.5148296204,-0.8061452211,0.269636069
3.0600,-0.1118830113,-0.5144792738,-0.806200256,0.2698785205
3.0650,-0.1125081844,-0.514133846,-0.8062546877,0.2701141893
3.0700,-0.1131276654,-0.5137922234,-0.8063088142,0.2703438154
3.0750,-0.113740661,-0.513454923,-0.8063622543,0.2705679562
3.0800,-0.1143492543,-0.5131220154,-0.8064156631,0.2707837211
3.0850,-0.1149508385,-0.5127927224,-0.8064696178,0.2709920371
3.0900,-0.1155454319,-0.5124686649,-0.8065230784,0.2711930027
3.0950,-0.1161321094,-0.5121489982,-0.8065775471,0.2713842247
3.1000,-0.1167080318,-0.5118344094,-0.8066322528,0.2715680053
3.1050,-0.11727238,-0.5115248658,-0.806687508,0.2717439326
3.1100,-0.1178269762,-0.5112214481,-0.806741867,0.2719135795
3.1150,-0.1183694417,-0.5109250825,-0.8067955491,0.272075683
3.1200,-0.1189010371,-0.5106348024,-0.8068480084,0.2722332332
3.1250,-0.1194222463,-0.5103525852,-0.8068982689,0.2723852961
3.1300,-0.1199353358,-0.5100787286,-0.8069462214,0.2725307352
3.1350,-0.1204408564,-0.5098129712,-0.8069909872,0.2726724794
3.1400,-0.1209394141,-0.509554865,-0.8070337365,0.2728077084
3.1450,-0.121431052,-0.5093032386,-0.8070749829,0.2729371407
3.1500,-0.1219145295,-0.5090586605,-0.8071146919,0.2730604361
3.1550,-0.1223900007,-0.5088213481,-0.8071533311,0.2731758106
3.1600,-0.1228576329,-0.5085906043,-0.8071905091,0.2732857135
3.1650,-0.1233159321,-0.5083675712,-0.8072263971,0.2733882538
3.1700,-0.1237641062,-0.5081502299,-0.8072621273,0.273484273
3.1750,-0.1242030216,-0.5079399214,-0.8072972854,0.2735721819
3.1800,-0.1246318513,-0.5077366236,-0.8073314046,0.2736538432
3.1850,-0.1250514473,-0.5075387513,-0.8073642649,0.2737325249
3.1900,-0.1254616785,-0.5073472224,-0.8073958841,0.2738065915
3.1950,-0.1258603204,-0.5071631175,-0.8074259633,0.2738760045
3.2000,-0.126246925,-0.5069865074,-0.8074543393,0.27394139
3.2050,-0.1266223982,-0.5068172555,-0.8074809829,0.2740027375
3.2100,-0.1269867441,-0.5066564004,-0.8075053379,0.2740598258
3.2150,-0.1273424481,-0.5065053453,-0.8075259704,0.2741131943
3.2200,-0.1276896188,-0.5063652662,-0.8075418122,0.2741638197
3.2250,-0.1280285273,-0.5062369901,-0.8075528877,0.2742100282
3.2300,-0.1283592829,-0.5061193935,-0.8075592276,0.2742538021
3.2350,-0.1286811419,-0.5060120376,-0.807561093,0.2742955752
3.2400,-0.1289957984,-0.5059166402,-0.8075568715,0.2743361744
3.2450,-0.1293033618,-0.5058316857,-0.807546834,0.2743775817
3.2500,-0.1296056822,-0.5057580452,-0.8075301755,0.2744197196
3.2550,-0.1299023635,-0.5056953782,-0.8075067364,0.2744638975
3.2600,-0.130194823,-0.5056428129,-0.8074774754,0.2745082523
3.2650,-0.1304838994,-0.5055984008,-0.8074433772,0.2745530945
3.2700,-0.1307673196,-0.5055627624,-0.8074040247,0.2745996036
3.2750,-0.131046389,-0.5055342127,-0.8073607876,0.2746462496
3.2800,-0.1313230751,-0.5055119305,-0.8073141596,0.2746921655
3.2850,-0.131598135,-0.5054964795,-0.8072637334,0.2747371557
3.2900,-0.131870789,-0.5054856771,-0.807211318,0.2747803001
3.2950,-0.1321417016,-0.5054788357,-0.8071569111,0.2748225577
3.3000,-0.1324110645,-0.5054747961,-0.8071011627,0.2748640641
3.3050,-0.1326776955,-0.5054737925,-0.80704439,0.2749040318
3.3100,-0.132942277,-0.5054745134,-0.8069869778,0.2749434212
3.3150,-0.1332056804,-0.5054757398,-0.8069296937,0.2749818041
3.3200,-0.1334688285,-0.5054788181,-0.8068720157,0.2750177931
3.3250,-0.1337316557,-0.505483247,-0.8068136591,0.275053178
3.3300,-0.1339938228,-0.5054871511,-0.8067562727,0.2750867353
3.3350,-0.1342548976,-0.5054905622,-0.806699409,0.2751199328
3.3400,-0.1345190706,-0.5054936296,-0.8066424579,0.2751522401
3.3450,-0.1347869707,-0.5054968845,-0.8065843897,0.2751853823
3.3500,-0.1350580141,-0.5055004725,-0.8065252609,0.2752192012
3.3550,-0.1353320664,-0.5055016023,-0.8064661119,0.2752558304
3.3600,-0.1356086767,-0.5055010827,-0.8064061793,0.2752962334
3.3650,-0.1358892525,-0.5054971376,-0.8063456777,0.275342338
3.3700,-0.1361732687,-0.5054905989,-0.8062838329,0.2753951272
3.3750,-0.1364608945,-0.5054802942,-0.8062211089,0.2754552959
3.3800,-0.1367517748,-0.5054664313,-0.8061563123,0.2755261133
3.3850,-0.1370482546,-0.5054495769,-0.806089698,0.2756046079
3.3900,-0.1373489198,-0.5054286931,-0.8060217585,0.275691921
3.3950,-0.1376562867,-0.5054042031,-0.8059511413,0.2757899491
3.4000,-0.1379703858,-0.505375019,-0.8058789374,0.2758974466
3.4050,-0.1382908894,-0.5053426282,-0.805804203,0.2760145729
3.4100,-0.1386160839,-0.505303411,-0.8057288886,0.2761430828
3.4150,-0.1389459959,-0.5052577746,-0.8056533273,0.2762812112
3.4200,-0.1392799945,-0.5052051818,-0.8055774356,0.2764304663
3.4250,-0.1396181388,-0.5051455779,-0.8055008456,0.2765919524
3.4300,-0.139961043,-0.5050799719,-0.8054222779,0.2767671993
3.4350,-0.1403102639,-0.5050055271,-0.8053441505,0.27695351
3.4400,-0.140668281,-0.5049224729,-0.8052647757,0.2771540584
3.4450,-0.1410347664,-0.5048292671,-0.8051850175,0.2773692366
3.4500,-0.1414113639,-0.5047251134,-0.8051052978,0.277598353
3.4550,-0.1417983878,-0.504607731,-0.8050258891,0.2778445119
3.4600,-0.1421976054,-0.504475331,-0.80494735,0.2781083333
3.4650,-0.142609939,-0.5043277664,-0.8048691521,0.2783910153
3.4700,-0.1430361877,-0.5041647651,-0.8047906515,0.2786943593
3.4750,-0.1434782901,-0.503984592,-0.8047116966,0.2790207817
3.4800,-0.143935766,-0.503785844,-0.8046328719,0.2793711869
3.4850,-0.1444096161,-0.5035705225,-0.8045532752,0.2797438453
3.4900,-0.1449005877,-0.5033370524,-0.8044729727,0.2801407995
3.4950,-0.1454094329,-0.503084632,-0.8043918623,0.280563151
3.5000,-0.1459369259,-0.5028145163,-0.8043082621,0.281012803
3.5050,-0.1464819734,-0.5025261208,-0.8042231197,0.2814883713
3.5100,-0.1470445999,-0.502219035,-0.8041359432,0.2819916868
3.5150,-0.1476236359,-0.50189471,-0.8040472043,0.282519124
3.5200,-0.1482176713,-0.5015536955,-0.8039572556,0.2830691499
3.5250,-0.1488259346,-0.5011986206,-0.8038645387,0.2836416531
3.5300,-0.1494486528,-0.5008311719,-0.8037688668,0.2842337878
3.5350,-0.1500853739,-0.5004527106,-0.8036698313,0.2848442858
3.5400,-0.1507337719,-0.5000636741,-0.8035678769,0.2854720986
3.5450,-0.1513908452,-0.4996651921,-0.8034640361,0.286113702
3.5500,-0.1520541521,-0.4992589527,-0.8033579552,0.2867682492
3.5550,-0.1527208702,-0.4988463665,-0.8032500344,0.2874335065
3.5600,-0.1533874143,-0.4984291405,-0.803140339,0.2881081202
3.5650,-0.154050527,-0.4980102994,-0.8030281884,0.288790418
3.5700,-0.1547111756,-0.4975906335,-0.8029137145,0.2894781179
3.5750,-0.1553671677,-0.4971727399,-0.8027960476,0.2901703223
3.5800,-0.156017907,-0.4967573876,-0.8026755497,0.2908650415
3.5850,-0.1566627958,-0.4963445387,-0.802552322,0.291562408
3.5900,-0.1573018998,-0.4959368602,-0.8024251084,0.2922613358
3.5950,-0.1579349394,-0.4955343638,-0.8022949227,0.2929592228
3.6000,-0.1585624397,-0.4951391832,-0.8021603366,0.2936561532
3.6050,-0.1591847168,-0.4947521455,-0.802021438,0.2943503922
3.6100,-0.1598025936,-0.4943745662,-0.8018778519,0.295040387
3.6150,-0.1604152089,-0.4940071721,-0.8017289679,0.295727132
3.6200,-0.1610217835,-0.4936506717,-0.8015741206,0.2964117554
3.6250,-0.1616223425,-0.4933061666,-0.8014133401,0.2970924144
3.6300,-0.1622199922,-0.4929767497,-0.8012437905,0.297770023
3.6350,-0.1628116775,-0.4926621059,-0.8010670295,0.29844266
3.6400,-0.1633965673,-0.4923631971,-0.8008822977,0.2991113325
3.6450,-0.1639728271,-0.4920799869,-0.800690666,0.2997743414
3.6500,-0.1645422711,-0.4918141065,-0.8004902143,0.3004332579
3.6550,-0.1651064232,-0.4915675568,-0.8002807652,0.3010845445
3.6600,-0.165665807,-0.4913391355,-0.8000632318,0.3017275583
3.6650,-0.1662178986,-0.491131055,-0.7998374473,0.3023606371
3.6700,-0.1667627811,-0.4909419054,-0.7996046459,0.3029828883
3.6750,-0.1673000363,-0.4907744295,-0.7993637871,0.3035929728
3.6800,-0.167829241,-0.4906262638,-0.7991170362,0.3041893777
3.6850,-0.1683476562,-0.4904982558,-0.7988636265,0.3047743984
3.6900,-0.1688555772,-0.4903914438,-0.7986038206,0.3053456461
3.6950,-0.1693510101,-0.4903055938,-0.7983374507,0.305905173
3.7000,-0.1698345853,-0.4902409492,-0.7980648709,0.3064514435
3.7050,-0.1703077506,-0.490196338,-0.7977865111,0.3069845322
3.7100,-0.1707703594,-0.4901745828,-0.7975017236,0.3075018106
3.7150,-0.1712257207,-0.4901743278,-0.797209369,0.3080066605
3.7200,-0.1716746499,-0.4901947017,-0.7969110744,0.3084958808
3.7250,-0.1721180489,-0.4902323656,-0.796608484,0.3089701089
3.7300,-0.1725557188,-0.4902859365,-0.7963034549,0.3094269414
3.7350,-0.1729891244,-0.4903546951,-0.7959960156,0.3098667116
3.7400,-0.1734162806,-0.4904350588,-0.7956893178,0.3102881828
3.7450,-0.173839691,-0.4905250789,-0.7953842984,0.310690725
3.7500,-0.1742596883,-0.4906228895,-0.7950822553,0.3110738635
3.7550,-0.1746760317,-0.4907274845,-0.794784556,0.3114359154
3.7600,-0.1750891157,-0.4908393651,-0.794490795,0.3117769971
3.7650,-0.1754981809,-0.4909537235,-0.7942041946,0.3120969837
3.7700,-0.1759026664,-0.4910699248,-0.7939254491,0.3123955221
3.7750,-0.1763000842,-0.4911859072,-0.7936561977,0.3126731917
3.7800,-0.1766920905,-0.4913012168,-0.7933964769,0.3129297843
3.7850,-0.177076329,-0.491413574,-0.7931483332,0.3131651234
3.7900,-0.1774524915,-0.4915219557,-0.7929125887,0.3133790149
3.7950,-0.1778216784,-0.4916257658,-0.7926897921,0.3135704873
3.8000,-0.1781829268,-0.4917232638,-0.7924815904,0.3137387533
3.8050,-0.1785357115,-0.4918146529,-0.7922882627,0.313883188
3.8100,-0.178879461,-0.4919000206,-0.7921100843,0.3140033798
3.8150,-0.1792118943,-0.4919776129,-0.7919488042,0.3140990559
3.8200,-0.179535148,-0.4920470483,-0.7918038088,0.3141712293
3.8250,-0.1798472506,-0.4921078102,-0.7916757491,0.3142202696
3.8300,-0.1801463454,-0.4921622771,-0.7915633978,0.314246678
3.8350,-0.1804329583,-0.4922110676,-0.791466384,0.3142501799
3.8400,-0.1807061886,-0.4922567881,-0.7913834641,0.3142303944
3.8450,-0.1809654252,-0.4923007242,-0.7913135523,0.3141884367
3.8500,-0.1812106112,-0.4923430597,-0.7912559883,0.3141257503
3.8550,-0.1814421779,-0.492384534,-0.7912098168,0.3140433608
3.8600,-0.1816612579,-0.492427001,-0.7911736533,0.3139412149
3.8650,-0.1818687952,-0.4924695348,-0.7911472628,0.3138208201
3.8700,-0.1820639081,-0.4925128144,-0.7911304429,0.3136821375
3.8750,-0.1822463602,-0.4925564081,-0.7911234061,0.3135254461
3.8800,-0.1824147896,-0.4926002517,-0.7911263284,0.3133511914
3.8850,-0.1825692299,-0.4926443973,-0.7911392776,0.3131590929
3.8900,-0.1827087265,-0.4926887538,-0.791162224,0.3129499137
3.8950,-0.1828332938,-0.4927329124,-0.7911947547,0.3127253169
3.9000,-0.1829401841,-0.4927771393,-0.791237637,0.3124845305
3.9050,-0.1830290164,-0.4928213446,-0.7912900749,0.3122299135
3.9100,-0.183098594,-0.49286461,-0.7913518621,0.311964119
3.9150,-0.1831504795,-0.4929090716,-0.7914210919,0.311687671
3.9200,-0.1831834722,-0.4929543091,-0.7914981165,0.3114010215
3.9250,-0.1831980416,-0.4930004023,-0.7915819662,0.3111062066
3.9300,-0.1831912062,-0.4930469087,-0.791673357,0.3108038348
3.9350,-0.183166371,-0.4930938994,-0.7917707045,0.3104957946
3.9400,-0.183123432,-0.4931417986,-0.7918728058,0.3101845169
3.9450,-0.1830647064,-0.4931901523,-0.7919791774,0.3098705689
3.9500,-0.1829895948,-0.4932387509,-0.7920905723,0.3095526904
3.9550,-0.1828979647,-0.4932885514,-0.7922055869,0.3092329991
3.9600,-0.1827925261,-0.4933407364,-0.7923220844,0.3089134585
3.9650,-0.1826741683,-0.4933938476,-0.7924403478,0.3085951305
3.9700,-0.1825427179,-0.4934498989,-0.7925592276,0.3082778359
3.9750,-0.1824000107,-0.4935073447,-0.7926785653,0.3079633565
3.9800,-0.1822446312,-0.4935694986,-0.7927959252,0.3076534827
3.9850,-0.1820791795,-0.4936354813,-0.7929106983,0.3073496519
3.9900,-0.1819036091,-0.4937048195,-0.7930228505,0.3070527427
3.9950,-0.1817190677,-0.4937788218,-0.7931315808,0.3067620433
4.0000,-0.1815250994,-0.4938571043,-0.7932359602,0.3064808481
4.0050,-0.1813206099,-0.493939479,-0.7933360056,0.3062100747
4.0100,-0.1811073828,-0.4940244949,-0.7934323921,0.3059492663
4.0150,-0.1808855056,-0.4941108695,-0.7935259694,0.3056982473
4.0200,-0.1806550636,-0.4941996569,-0.7936160663,0.3054570125
4.0250,-0.1804174445,-0.4942921001,-0.7937019146,0.3052247307
4.0300,-0.1801737694,-0.4943864069,-0.7937840369,0.3050022889
4.0350,-0.1799234102,-0.494482023,-0.7938628669,0.3047898359
4.0400,-0.1796677787,-0.4945806598,-0.793936924,0.3045876246
4.0450,-0.1794066607,-0.4946823421,-0.7940068211,0.3043941499
4.0500,-0.1791400797,-0.4947875934,-0.7940718992,0.3042102696
4.0550,-0.1788674959,-0.4948951559,-0.7941326323,0.3040371127
4.0600,-0.1785889784,-0.4950035724,-0.7941904046,0.3038733971
4.0650,-0.1783052897,-0.4951145734,-0.7942434479,0.3037204773
4.0700,-0.1780169069,-0.4952277826,-0.7942922655,0.3035773728
4.0750,-0.1777251868,-0.4953441773,-0.7943362865,0.3034431874
4.0800,-0.1774283686,-0.4954633395,-0.7943759539,0.3033184746
4.0850,-0.1771277176,-0.4955833809,-0.7944119214,0.3032038643
4.0900,-0.1768243853,-0.4957053926,-0.7944437701,0.3030979985
4.0950,-0.1765184431,-0.4958291341,-0.7944718147,0.3030004038
4.1000,-0.1762102641,-0.495954369,-0.7944961963,0.302910879
4.1050,-0.1759005144,-0.4960816297,-0.794516277,0.3028298389
4.1100,-0.1755893013,-0.4962088307,-0.7945337881,0.3027560953
4.1150,-0.1752794884,-0.4963373287,-0.7945474083,0.3026892351
4.1200,-0.1749686356,-0.4964674292,-0.794557259,0.3026298571
4.1250,-0.1746581458,-0.4965988985,-0.7945634921,0.3025771358
4.1300,-0.1743487218,-0.4967309936,-0.7945661827,0.3025316916
4.1350,-0.1740400612,-0.496862952,-0.7945664029,0.3024921411
4.1400,-0.1737323422,-0.4969942452,-0.7945644318,0.3024585217
4.1450,-0.1734272021,-0.497123534,-0.7945606311,0.302431151
4.1500,-0.1731233581,-0.4972507844,-0.7945558561,0.3024085844
4.1550,-0.1728227185,-0.4973752089,-0.7945503181,0.3023904788
4.1600,-0.1725255953,-0.4974941183,-0.7945452716,0.3023777976
4.1650,-0.1722300283,-0.4976086108,-0.7945404808,0.3023704882
4.1700,-0.171938756,-0.4977178425,-0.7945368022,0.3023661412
4.1750,-0.17165255,-0.4978221933,-0.7945334752,0.3023657103
4.1800,-0.1713708852,-0.4979215602,-0.7945308265,0.3023688232
4.1850,-0.171094324,-0.4980162698,-0.7945285848,0.3023753549
4.1900,-0.1708227215,-0.498104723,-0.7945281606,0.302384333
4.1950,-0.1705545793,-0.498188393,-0.7945281767,0.3023978125
4.2000,-0.1702910957,-0.4982667923,-0.794529218,0.302414398
4.2050,-0.170031498,-0.4983397102,-0.7945314437,0.3024344687
4.2100,-0.1697771347,-0.4984091347,-0.7945337792,0.3024568278
4.2150,-0.1695258523,-0.4984745667,-0.7945370629,0.3024813175
4.2200,-0.1692780217,-0.4985367722,-0.7945409342,0.3025074247
4.2250,-0.1690335628,-0.4985951242,-0.7945460007,0.3025346419
4.2300,-0.168795089,-0.4986508527,-0.7945515225,0.3025614369
4.2350,-0.1685613525,-0.4987045895,-0.7945568522,0.3025891794
4.2400,-0.1683327517,-0.4987561616,-0.7945629312,0.3026154728
4.2450,-0.1681102748,-0.4988070393,-0.7945691574,0.3026389386
4.2500,-0.167893496,-0.4988574237,-0.7945751596,0.3026604708
4.2550,-0.1676822982,-0.4989075732,-0.7945810225,0.3026794987
4.2600,-0.1674732505,-0.4989583065,-0.7945880594,0.3026931362
4.2650,-0.1672689454,-0.4990113203,-0.794594281,0.3027023799
4.2700,-0.1670711068,-0.4990668551,-0.7945994889,0.3027064117
4.2750,-0.1668798438,-0.4991257306,-0.7946040457,0.3027028796
4.2800,-0.1666949392,-0.4991878053,-0.7946080451,0.302691901
4.2850,-0.1665163648,-0.4992538835,-0.794611906,0.3026710737
4.2900,-0.1663433845,-0.4993237626,-0.7946159722,0.3026402408
4.2950,-0.1661731445,-0.4993983137,-0.794620716,0.3025982949
4.3000,-0.1660068778,-0.4994787029,-0.7946259372,0.302543157
4.3050,-0.1658446047,-0.499565782,-0.794631986,0.3024724838
4.3100,-0.1656843277,-0.499659238,-0.7946392239,0.3023869263
4.3150,-0.1655246911,-0.4997620756,-0.7946465675,0.3022850926
4.3200,-0.1653638854,-0.4998728416,-0.7946550239,0.3021677027
4.3250,-0.1652009657,-0.4999919008,-0.7946649333,0.3020337462
4.3300,-0.1650347346,-0.5001211604,-0.7946758091,0.3018819632
4.3350,-0.1648650572,-0.5002605967,-0.7946881732,0.3017110469
4.3400,-0.1646908228,-0.5004122094,-0.7947014263,0.3015198114
4.3450,-0.1645097561,-0.5005773332,-0.794715627,0.3013070624
4.3500,-0.1643222995,-0.5007560876,-0.7947309307,0.3010718693
4.3550,-0.1641304928,-0.500951423,-0.7947462444,0.300811004
4.3600,-0.1639320555,-0.5011636354,-0.794761236,0.300525988
4.3650,-0.1637266682,-0.5013937076,-0.7947757936,0.3002155325
4.3700,-0.1635140523,-0.5016413719,-0.7947899581,0.2998799948
4.3750,-0.1632914631,-0.5019069578,-0.7948036228,0.2995204584
4.3800,-0.1630585007,-0.5021905279,-0.794816927,0.29913651
4.3850,-0.162815026,-0.5024929151,-0.7948286279,0.2987299615
4.3900,-0.1625594327,-0.5028148532,-0.7948386773,0.2983004045
4.3950,-0.1622908948,-0.5031552155,-0.7948470332,0.2978501107
4.4000,-0.1620086561,-0.5035135449,-0.7948545628,0.2973777553
4.4050,-0.1617135302,-0.5038890471,-0.7948609836,0.2968847911
4.4100,-0.1614056485,-0.5042825147,-0.7948657803,0.2963709724
4.4150,-0.1610817109,-0.5046937843,-0.7948695825,0.2958364638
4.4200,-0.1607433056,-0.5051217517,-0.7948731387,0.2952800349
4.4250,-0.1603905934,-0.5055675338,-0.7948756485,0.2947015943
4.4300,-0.1600236002,-0.5060299514,-0.794877834,0.2941009429
4.4350,-0.1596403601,-0.5065099786,-0.7948785788,0.2934802242
4.4400,-0.1592413634,-0.5070056011,-0.7948784777,0.2928407662
4.4450,-0.1588242844,-0.5075175627,-0.7948770973,0.2921834534
4.4500,-0.1583895238,-0.5080440721,-0.7948745244,0.2915106687
4.4550,-0.1579357573,-0.5085850013,-0.7948700874,0.2908249254
4.4600,-0.1574625151,-0.5091406356,-0.7948638164,0.2901256328
4.4650,-0.1569709799,-0.5097095356,-0.7948560228,0.2894135514
4.4700,-0.1564573436,-0.5102921479,-0.7948460202,0.2886915787
4.4750,-0.1559216101,-0.5108869428,-0.7948346283,0.2879598874
4.4800,-0.155362252,-0.5114935587,-0.7948215526,0.2872204894
4.4850,-0.1547801932,-0.5121118254,-0.7948065181,0.2864736792
4.4900,-0.1541771598,-0.5127426044,-0.7947877223,0.2857217206
4.4950,-0.1535535139,-0.5133855579,-0.7947657371,0.2849631737
4.5000,-0.152911035,-0.5140398287,-0.7947392484,0.2842020353
4.5050,-0.1522507811,-0.5147051126,-0.7947082002,0.2834382176
4.5100,-0.1515712505,-0.5153798352,-0.7946730219,0.2826739638
4.5150,-0.1508737024,-0.516062808,-0.7946336612,0.2819107103
4.5200,-0.1501601082,-0.5167530758,-0.7945894227,0.281150938
4.5250,-0.1494314045,-0.5174494245,-0.7945398492,0.2803975328
4.5300,-0.1486883039,-0.5181504723,-0.7944857905,0.2796501475
4.5350,-0.1479341351,-0.5188549728,-0.7944278171,0.2789076054
4.5400,-0.1471703895,-0.51956267,-0.7943666277,0.27816752
4.5450,-0.1463998968,-0.5202707923,-0.7943030562,0.2774311228
4.5500,-0.1456254922,-0.5209790201,-0.7942379767,0.276694982
4.5550,-0.1448497925,-0.5216853895,-0.7941726029,0.2759579112
4.5600,-0.1440772958,-0.5223881769,-0.7941078868,0.2752180764
4.5650,-0.1433075758,-0.523086933,-0.7940457126,0.2744711378
4.5700,-0.1425414681,-0.5237816357,-0.7939861876,0.2737163896
4.5750,-0.1417802913,-0.5244703894,-0.7939300104,0.272954755
4.5800,-0.14102564,-0.5251535423,-0.7938776496,0.2721834001
4.5850,-0.1402769694,-0.525830817,-0.7938293135,0.271402551
4.5900,-0.1395345122,-0.5265022173,-0.7937851901,0.2706115427
4.5950,-0.1388001556,-0.5271671908,-0.7937453109,0.2698103985
4.6000,-0.1380715383,-0.5278252925,-0.7937102548,0.268999521
4.6050,-0.1373499119,-0.528477134,-0.7936787731,0.2681807706
4.6100,-0.1366341806,-0.5291239198,-0.7936502968,0.2673540435
4.6150,-0.1359245822,-0.5297647951,-0.7936256832,0.2665183761
4.6200,-0.1352214267,-0.5304001016,-0.7936048849,0.2656730785
4.6250,-0.1345245097,-0.5310319555,-0.79358651,0.2648181824
4.6300,-0.133834187,-0.5316610775,-0.7935697912,0.2639543437
4.6350,-0.1331504642,-0.532289369,-0.7935536712,0.2630808858
4.6400,-0.1324751512,-0.5329170488,-0.7935379118,0.2621971319
4.6450,-0.1318078055,-0.5335461847,-0.7935210979,0.2613033453
4.6500,-0.1311488844,-0.5341769951,-0.7935029956,0.2603995085
4.6550,-0.1304971695,-0.5348100246,-0.7934825735,0.2594882113
4.6600,-0.1298541104,-0.5354465316,-0.7934591213,0.2585682592
4.6650,-0.1292176453,-0.5360861697,-0.7934328292,0.2576407661
4.6700,-0.1285879457,-0.5367300124,-0.7934028438,0.2567059826
4.6750,-0.1279663886,-0.5373777526,-0.7933697963,0.2557618436
4.6800,-0.1273545202,-0.5380282881,-0.7933341434,0.254808407
4.6850,-0.1267492957,-0.5386827569,-0.7932969296,0.2538414563
4.6900,-0.1261507917,-0.5393389034,-0.7932594854,0.252861452
4.6950,-0.1255602818,-0.5399957576,-0.793222835,0.2518664953
4.7000,-0.1249772875,-0.5406544931,-0.7931859843,0.2508573121
4.7050,-0.1243996538,-0.5413148457,-0.7931502604,0.2498311997
4.7100,-0.1238274014,-0.5419770149,-0.793115498,0.2487880562
4.7150,-0.1232608656,-0.5426413802,-0.7930812035,0.2477282706
4.7200,-0.122697966,-0.5433090139,-0.7930464768,0.2466532185
4.7250,-0.1221376656,-0.5439789445,-0.7930119772,0.2455632357
4.7300,-0.1215791114,-0.5446534456,-0.7929753685,0.2444610579
4.7350,-0.1210211323,-0.5453311664,-0.7929373713,0.2433477547
4.7400,-0.1204621548,-0.5460131036,-0.7928963134,0.2422271579
4.7450,-0.1199013679,-0.5466995874,-0.7928517868,0.2411001187
4.7500,-0.1193373808,-0.5473915469,-0.7928029949,0.2399676961
4.7550,-0.1187693517,-0.5480912186,-0.7927486268,0.2388293782
4.7600,-0.1181978865,-0.5487986104,-0.7926875731,0.2376883597
4.7650,-0.1176250619,-0.5495151282,-0.792618315,0.2365452926
4.7700,-0.1170530536,-0.5502398885,-0.7925409672,0.2354006437
4.7750,-0.1164830985,-0.5509741183,-0.7924548339,0.2342531641
4.7800,-0.1159183551,-0.551718545,-0.7923587164,0.2331035104
4.7850,-0.1153593217,-0.5524740648,-0.7922517929,0.231952002
4.7900,-0.1148058737,-0.5532399449,-0.7921348822,0.2307975372
4.7950,-0.114259062,-0.5540170381,-0.7920061576,0.2296437121
4.8000,-0.1137174102,-0.5548045943,-0.7918660468,0.2284915244
4.8050,-0.1131803585,-0.5556028901,-0.7917131514,0.2273453779
4.8100,-0.1126469135,-0.5564097149,-0.7915484353,0.2262078174
4.8150,-0.1121184228,-0.55722453,-0.7913716126,0.2250805483
4.8200,-0.111594985,-0.5580466621,-0.7911830274,0.2239640583
4.8250,-0.1110761187,-0.5588754773,-0.7909832998,0.2228580628
4.8300,-0.110563859,-0.5597084728,-0.7907734191,0.2217644207
4.8350,-0.1100558893,-0.5605447049,-0.790554843,0.2206816151
4.8400,-0.1095542382,-0.561382156,-0.7903276824,0.2196135201
4.8450,-0.109058839,-0.5622202646,-0.7900930261,0.2185578956
4.8500,-0.1085705675,-0.5630591598,-0.789850993,0.2175137312
4.8550,-0.1080896837,-0.5638976879,-0.7896027849,0.2164796987
4.8600,-0.107614437,-0.5647353131,-0.7893491017,0.215455691
4.8650,-0.1071454985,-0.5655711009,-0.7890895937,0.2144452961
4.8700,-0.1066806411,-0.5664020775,-0.7888268238,0.213448283
4.8750,-0.1062186886,-0.5672296991,-0.7885601471,0.2124640042
4.8800,-0.1057575946,-0.5680513037,-0.7882915362,0.2114935023
4.8850,-0.1052954801,-0.5688652177,-0.7880221817,0.2105380421
4.8900,-0.1048305175,-0.5696698893,-0.7877532405,0.2095986927
4.8950,-0.1043598781,-0.5704642644,-0.7874859959,0.2086752145
4.9000,-0.1038840407,-0.5712473489,-0.7872215208,0.2077663342
4.9050,-0.1033994964,-0.5720186921,-0.786961048,0.2068706577
4.9100,-0.1029089448,-0.5727781434,-0.7867045305,0.2059876917
4.9150,-0.1024111117,-0.5735244838,-0.7864534633,0.2051160176
4.9200,-0.1019065269,-0.5742606615,-0.7862062411,0.2042535161
4.9250,-0.1013946227,-0.574984618,-0.7859646014,0.203399766
4.9300,-0.1008762728,-0.5756977192,-0.7857279225,0.2025530686
4.9350,-0.1003528898,-0.5763991753,-0.7854966168,0.2017135426
4.9400,-0.09982271447,-0.5770910202,-0.7852691996,0.2008822151
4.9450,-0.09928571982,-0.5777728714,-0.7850453976,0.2000614371
4.9500,-0.0987429408,-0.5784450894,-0.7848247973,0.1992514686
4.9550,-0.09819225758,-0.57910865,-0.7846068805,0.1984527528
4.9600,-0.0976315755,-0.5797648401,-0.7843907221,0.1976663874
4.9650,-0.09706408975,-0.5804141717,-0.7841754262,0.1968929983
4.9700,-0.09649003592,-0.5810578728,-0.7839607698,0.1961298877
4.9750,-0.09590985613,-0.5816955621,-0.7837472195,0.1953762229
4.9800,-0.09532326771,-0.5823294244,-0.783533631,0.1946303296
4.9850,-0.09473307748,-0.5829606807,-0.7833191722,0.1938905961
4.9900,-0.09414139193,-0.5835905392,-0.7831032182,0.1931549393
4.9950,-0.09354902052,-0.5842225856,-0.7828836957,0.1924205557
5.0000,-0.09295783922,-0.5848562988,-0.7826614177,0.1916847808
5.0050,-0.09236815704,-0.5854927513,-0.7824353939,0.1909482026
5.0100,-0.09177957948,-0.5861322329,-0.7822051284,0.1902121222
5.0150,-0.09119137403,-0.5867748132,-0.7819698859,0.1894796809
5.0200,-0.09060190973,-0.587419874,-0.7817306696,0.1887494261
5.0250,-0.09000894447,-0.588068583,-0.7814863669,0.1880233761
5.0300,-0.0894108197,-0.5887183902,-0.7812392674,0.1873007456
5.0350,-0.08880645271,-0.5893700756,-0.780988977,0.1865812043
5.0400,-0.08819698912,-0.590024115,-0.7807358219,0.1858612688
5.0450,-0.08758372085,-0.5906799576,-0.7804802358,0.1851401661
5.0500,-0.08696927908,-0.5913384363,-0.7802213887,0.1844174147
5.0550,-0.08635552857,-0.5919992115,-0.7799599378,0.1836903688
5.0600,-0.08574367103,-0.5926627974,-0.7796960319,0.1829560858
5.0650,-0.0851344004,-0.5933293809,-0.7794300214,0.1822120231
5.0700,-0.08452846689,-0.5939992661,-0.779161784,0.181457225
5.0750,-0.08392500481,-0.5946734067,-0.7788901705,0.1806937612
5.0800,-0.0833223136,-0.5953506207,-0.7786158616,0.1799232349
5.0850,-0.08272063858,-0.5960302795,-0.7783383341,0.1791497686
5.0900,-0.08211782335,-0.5967127504,-0.7780568095,0.1783764495
5.0950,-0.08151170603,-0.5973967659,-0.7777719622,0.1776055197
5.1000,-0.0809007177,-0.598081894,-0.7774842977,0.1768368986
5.1050,-0.08028590105,-0.5987671617,-0.7771946173,0.1760698358
5.1100,-0.07966691241,-0.5994516814,-0.776903726,0.1753039227
5.1150,-0.07904339758,-0.6001352422,-0.7766114848,0.1745406372
5.1200,-0.07841488993,-0.6008164535,-0.7763190591,0.1737797824
5.1250,-0.07778215857,-0.601495119,-0.7760267825,0.1730202025
5.1300,-0.07714556991,-0.6021718258,-0.7757347455,0.1722592749
5.1350,-0.07650760942,-0.6028466798,-0.7754427237,0.1714964972
5.1400,-0.07586900676,-0.6035194619,-0.7751510746,0.1707306781
5.1450,-0.07522838931,-0.6041903069,-0.774859804,0.1699618974
5.1500,-0.07458462404,-0.6048569454,-0.7745696153,0.1691955097
5.1550,-0.07393802238,-0.6055201618,-0.7742793885,0.1684337588
5.1600,-0.07328702987,-0.6061787077,-0.7739897851,0.1676788541
5.1650,-0.07263257966,-0.6068313964,-0.7737015268,0.1669314596
5.1700,-0.07197111636,-0.6074798338,-0.7734133752,0.1661931436
5.1750,-0.07130034492,-0.6081201003,-0.7731281782,0.1654660829
5.1800,-0.07061910308,-0.6087527478,-0.7728452853,0.1647519327
5.1850,-0.06992700721,-0.6093778209,-0.7725650825,0.1640490122
5.1900,-0.06922557456,-0.6099964962,-0.7722868707,0.1633556972
5.1950,-0.0685144127,-0.6106082689,-0.7720115584,0.1626698214
5.2000,-0.06779412215,-0.6112143494,-0.7717381545,0.1619913487
5.2050,-0.06706487451,-0.6118138307,-0.7714678015,0.1613182272
5.2100,-0.06632343087,-0.6124067092,-0.7712012268,0.1606483515
5.2150,-0.06557174583,-0.6129935485,-0.7709379174,0.1599811965
5.2200,-0.06480898909,-0.6135748024,-0.7706770089,0.1593195053
5.2250,-0.06403493173,-0.61415218,-0.7704168574,0.1586647192
5.2300,-0.06324759081,-0.6147248906,-0.7701575362,0.1580203169
5.2350,-0.06244291448,-0.6152932159,-0.769898737,0.1573882958
5.2400,-0.06161839276,-0.6158560406,-0.7696409297,0.1567716502
5.2450,-0.06077319992,-0.6164132321,-0.7693840653,0.1561713981
5.2500,-0.059906083,-0.6169648832,-0.7691274945,0.1555907818
5.2550,-0.0590180101,-0.6175111395,-0.7688710666,0.1550295132
5.2600,-0.05810993071,-0.6180525804,-0.7686141438,0.1544879988
5.2650,-0.05718187087,-0.6185904022,-0.768356313,0.1539633864
5.2700,-0.05623422436,-0.619124502,-0.7680971414,0.1534579566
5.2750,-0.05526898902,-0.6196572186,-0.7678345519,0.1529717984
5.2800,-0.05429082789,-0.620190438,-0.7675671087,0.1525026568
5.2850,-0.05330456689,-0.6207266437,-0.7672926626,0.1520494226
5.2900,-0.05231328631,-0.6212668561,-0.7670102653,0.1516115645
5.2950,-0.05132136136,-0.621811145,-0.7667198522,0.1511875857
5.3000,-0.05033149119,-0.6223607448,-0.7664202188,0.1507776259
5.3050,-0.04934820923,-0.6229159759,-0.7661109476,0.15038104
5.3100,-0.04837374375,-0.6234771741,-0.7657918826,0.1499966227
5.3150,-0.04741061284,-0.6240437644,-0.7654640511,0.1496208555
5.3200,-0.0464615394,-0.6246165732,-0.7651268187,0.1492528498
5.3250,-0.04552819266,-0.6251947606,-0.764781102,0.1488911047
5.3300,-0.04461343095,-0.6257781718,-0.7644272903,0.1485336304
5.3350,-0.04371806677,-0.6263673625,-0.7640649147,0.1481805113
5.3400,-0.04284122949,-0.6269620461,-0.7636943012,0.1478317831
5.3450,-0.04198334839,-0.6275632873,-0.7633144659,0.1474881183
5.3500,-0.0411446041,-0.6281703517,-0.7629263293,0.1471480439
5.3550,-0.04032723046,-0.6287839855,-0.7625285946,0.1468147014
5.3600,-0.03953157072,-0.6294037259,-0.762121548,0.1464887396
5.3650,-0.03875690493,-0.6300280833,-0.7617058883,0.1461733775
5.3700,-0.03800305245,-0.6306580145,-0.7612804589,0.145870832
5.3750,-0.03727362162,-0.6312920648,-0.7608465509,0.1455799851
5.3800,-0.03657108344,-0.6319315523,-0.7604031909,0.1452998839
5.3850,-0.03589682794,-0.6325758729,-0.7599513175,0.1450281967
5.3900,-0.03525536101,-0.6332254587,-0.7594907357,0.1447632563
5.3950,-0.03464815182,-0.6338804751,-0.7590217149,0.1445028898
5.4000,-0.03408048942,-0.6345408342,-0.7585443094,0.1442462502
5.4050,-0.03355348728,-0.6352085206,-0.7580573131,0.1439910029
5.4100,-0.03307194017,-0.6358845315,-0.7575597271,0.1437371533
5.4150,-0.03263836858,-0.6365693197,-0.7570519264,0.143480378
5.4200,-0.0322544336,-0.6372634773,-0.7565337105,0.1432189127
5.4250,-0.03192086585,-0.6379672683,-0.7560051673,0.1429510752
5.4300,-0.03163599487,-0.6386793058,-0.7554673411,0.1426779754
5.4350,-0.03139638197,-0.639399166,-0.7549205546,0.1424005968
5.4400,-0.03119801389,-0.6401260918,-0.754365511,0.1421194795
5.4450,-0.03103614226,-0.6408582532,-0.7538034284,0.1418374018
5.4500,-0.0309082832,-0.6415954444,-0.7532351461,0.1415513279
5.4550,-0.0308077976,-0.6423342579,-0.7526636022,0.1412624601
5.4600,-0.0307315997,-0.6430730818,-0.7520898716,0.1409730658
5.4650,-0.03067169332,-0.6438092812,-0.7515161031,0.1406854773
5.4700,-0.03062241212,-0.6445388551,-0.7509456857,0.1404012438
5.4750,-0.03057695873,-0.6452627301,-0.7503778155,0.140122064
5.4800,-0.03052914953,-0.6459780905,-0.7498147665,0.139850254
5.4850,-0.03047378794,-0.6466836666,-0.7492572334,0.139589333
5.4900,-0.03040457147,-0.6473777965,-0.748706235,0.1393431888
5.4950,-0.03031887726,-0.6480599185,-0.7481616592,0.1391159209
5.5000,-0.03021168906,-0.648728455,-0.7476243446,0.1389117881
5.5050,-0.03008295423,-0.6493826827,-0.7470945298,0.138733236
5.5100,-0.02993224702,-0.6500228455,-0.7465714999,0.1385833917
5.5150,-0.02975870957,-0.6506492213,-0.7460550635,0.138462458
5.5200,-0.02956585341,-0.6512596784,-0.7455467081,0.1383719542
5.5250,-0.02935603987,-0.6518537438,-0.745047223,0.1383096349
5.5300,-0.0291303238,-0.6524304159,-0.7445577136,0.1382743205
5.5350,-0.02889149022,-0.6529913404,-0.7440767785,0.1382654654
5.5400,-0.02864400067,-0.6535352197,-0.7436060429,0.1382797557
5.5450,-0.02839075022,-0.6540616896,-0.74314596,0.138316137
5.5500,-0.02813141768,-0.6545722365,-0.7426964639,0.1383682516
5.5550,-0.02786931047,-0.655065879,-0.7422583492,0.1384360456
5.5600,-0.02760922852,-0.6555425524,-0.7418322066,0.1385159552
5.5650,-0.02735315847,-0.6560030795,-0.7414174226,0.1386072506
5.5700,-0.02710371921,-0.6564478629,-0.7410141572,0.1387069233
5.5750,-0.02686240076,-0.6568770809,-0.7406223162,0.1388146132
5.5800,-0.02662675002,-0.6572901286,-0.7402424064,0.1389312158
5.5850,-0.0263952009,-0.6576852472,-0.7398758023,0.1390582835
5.5900,-0.02616806111,-0.6580630161,-0.7395220904,0.1391954643
5.5950,-0.02594248652,-0.658422758,-0.7391818418,0.1393436896
5.6000,-0.02571670111,-0.6587646607,-0.7388551482,0.1395021257
5.6050,-0.02549124868,-0.659088377,-0.7385425264,0.1396697684
5.6100,-0.02526587437,-0.659394364,-0.7382440436,0.1398443437
5.6150,-0.0250421305,-0.6596827479,-0.7379601879,0.1400225872
5.6200,-0.02482054598,-0.6599546434,-0.7376903284,0.1402026692
5.6250,-0.02460362401,-0.6602099744,-0.7374344869,0.1403845752
5.6300,-0.02439197236,-0.6604509707,-0.7371909754,0.1405667554
5.6350,-0.02418826608,-0.6606782004,-0.7369593596,0.140748519
5.6400,-0.02399520525,-0.6608928371,-0.7367388526,0.1409281771
5.6450,-0.0238150448,-0.6610959898,-0.7365287982,0.1411037395
5.6500,-0.023648443,-0.6612892902,-0.7363281844,0.141272894
5.6550,-0.02349694601,-0.6614719743,-0.7361379227,0.1414343647
5.6600,-0.02336228772,-0.6616463139,-0.735956037,0.1415876775
5.6650,-0.02324696591,-0.6618123929,-0.7357826103,0.1417317381
5.6700,-0.02315243668,-0.6619706383,-0.7356179258,0.141862983
5.6750,-0.02307686195,-0.6621207872,-0.7354619193,0.1419834031
5.6800,-0.02302118678,-0.662262521,-0.7353151921,0.1420913314
5.6850,-0.02298504094,-0.6623970666,-0.7351766002,0.1421871325
5.6900,-0.0229656541,-0.6625229555,-0.7350473056,0.1422721714
5.6950,-0.02296314814,-0.6626425418,-0.7349255456,0.142344645
5.7000,-0.02297388725,-0.6627571634,-0.7348095514,0.142408097
5.7050,-0.02299735036,-0.6628659576,-0.7346999385,0.1424634851
5.7100,-0.02303183007,-0.6629704175,-0.7345954768,0.1425105114
5.7150,-0.02307529474,-0.6630713269,-0.7344952074,0.1425508208
5.7200,-0.02312762587,-0.6631705304,-0.734397266,0.1425854697
5.7250,-0.02318878868,-0.6632678625,-0.7343017944,0.1426145061
5.7300,-0.02325905795,-0.663365536,-0.7342065923,0.142638921
5.7350,-0.02333925501,-0.6634637619,-0.7341116705,0.1426575304
5.7400,-0.02343010939,-0.6635636011,-0.7340169454,0.1426656972
5.7450,-0.02353381589,-0.6636655443,-0.733922164,0.1426620556
5.7500,-0.02364984722,-0.663769446,-0.7338276704,0.1426455657
5.7550,-0.02377849277,-0.6638766543,-0.7337324152,0.142615266
5.7600,-0.02391672141,-0.6639882735,-0.7336360809,0.1425681023
5.7650,-0.02406273673,-0.6641063585,-0.7335372109,0.142502244
5.7700,-0.02421900379,-0.6642316737,-0.7334352858,0.1424163089
5.7750,-0.02438479769,-0.6643641831,-0.7333308945,0.1423074596
5.7800,-0.02456216505,-0.6645043176,-0.7332241884,0.1421724358
5.7850,-0.02475018755,-0.6646524829,-0.7331153321,0.142008503
5.7900,-0.02495152772,-0.6648080186,-0.7330048826,0.1418152378
5.7950,-0.02516500066,-0.664970493,-0.7328937355,0.1415900376
5.8000,-0.02539168717,-0.6651397536,-0.7327822782,0.1413311826
5.8050,-0.02563100909,-0.6653154121,-0.7326710646,0.1410374595
5.8100,-0.0258833073,-0.6654963338,-0.7325609811,0.1407092505
5.8150,-0.02614549988,-0.6656822281,-0.7324520361,0.1403481341
5.8200,-0.02641481379,-0.6658725563,-0.7323449049,0.1399533375
5.8250,-0.02669046485,-0.6660664208,-0.7322400271,0.1395266457
5.8300,-0.02697250317,-0.6662636296,-0.7321374411,0.1390684266
5.8350,-0.02726106988,-0.6664640731,-0.7320370192,0.1385794933
5.8400,-0.02755539532,-0.6666680635,-0.7319381113,0.1380615607
5.8450,-0.02785752286,-0.666875685,-0.7318405522,0.1375143098
5.8500,-0.02817012967,-0.6670871127,-0.731743332,0.1369413154
5.8550,-0.02849230136,-0.6673019909,-0.7316467044,0.1363427359
5.8600,-0.02882314838,-0.6675198405,-0.7315506953,0.135720554
5.8650,-0.02916355592,-0.6677397145,-0.7314558989,0.1350756402
5.8700,-0.02951346926,-0.6679610307,-0.7313622607,0.1344107889
5.8750,-0.02987431575,-0.6681820766,-0.7312713983,0.1337250155
5.8800,-0.03024800138,-0.6684019162,-0.7311837377,0.1330198429
5.8850,-0.03063400862,-0.6686191648,-0.7311003938,0.1322958205
5.8900,-0.03103055135,-0.6688331958,-0.7310212936,0.1315565635
5.8950,-0.03143761198,-0.6690435722,-0.7309464581,0.1308038623
5.9000,-0.03185483113,-0.6692487751,-0.730876878,0.1300397475
5.9050,-0.03227847126,-0.6694493307,-0.7308115802,0.129267661
5.9100,-0.03270703015,-0.6696452834,-0.7307500141,0.1284907059
5.9150,-0.033138706,-0.6698364829,-0.7306914395,0.1277142613
5.9200,-0.03357151514,-0.6700220418,-0.7306361628,0.1269417757
5.9250,-0.03400434487,-0.6702029264,-0.7305830644,0.1261749897
5.9300,-0.03443590847,-0.670378981,-0.7305317602,0.1254174526
5.9350,-0.03486496939,-0.6705493397,-0.7304829099,0.1246705068
5.9400,-0.03529097807,-0.6707135201,-0.7304365385,0.1239370165
5.9450,-0.03571364866,-0.6708704473,-0.7303930923,0.1232205702
5.9500,-0.03613226607,-0.6710196718,-0.7303525251,0.1225244811
5.9550,-0.03654498524,-0.6711615,-0.7303146197,0.121849338
5.9600,-0.03695086911,-0.6712950489,-0.7302802041,0.1211957675
5.9650,-0.03734920777,-0.6714202592,-0.7302491137,0.1205657668
5.9700,-0.03774020668,-0.6715376856,-0.730220184,0.1199637303
5.9750,-0.0381231278,-0.6716460675,-0.730194569,0.1193904456
5.9800,-0.0384968558,-0.6717464463,-0.7301709509,0.1188490066
5.9850,-0.03885987865,-0.6718368694,-0.7301512353,0.1183397834
5.9900,-0.03921361466,-0.6719186113,-0.7301344033,0.1178618909
5.9950,-0.03955908889,-0.6719899881,-0.7301217654,0.1174169583
6.0000,-0.03989830135,-0.672051352,-0.7301133705,0.1170024446
6.0050,-0.04023026344,-0.672102393,-0.730109689,0.1166179288
6.0100,-0.0405558798,-0.6721442225,-0.7301101695,0.1162605057
6.0150,-0.0408754026,-0.6721750959,-0.7301165536,0.1159295479
6.0200,-0.04119005646,-0.6721950263,-0.7301289678,0.1156240294
6.0250,-0.04150020884,-0.672205249,-0.7301465901,0.1153420684
6.0300,-0.04180769992,-0.6722050743,-0.730170444,0.1150807412
6.0350,-0.0421141091,-0.6721952867,-0.730200067,0.1148379752
6.0400,-0.04241834528,-0.6721755985,-0.7302359473,0.1146128701
6.0450,-0.04271928949,-0.6721473578,-0.7302771938,0.1144037235
6.0500,-0.04301675787,-0.6721104906,-0.7303236906,0.1142118814
6.0550,-0.04330887546,-0.6720648271,-0.7303761844,0.1140343758
6.0600,-0.04359617942,-0.672010659,-0.7304340956,0.1138730845
6.0650,-0.04387884823,-0.6719478461,-0.7304981864,0.1137239571
6.0700,-0.04415645777,-0.671876699,-0.7305679135,0.1135888741
6.0750,-0.04442987575,-0.6717973226,-0.7306433472,0.1134664827
6.0800,-0.04469881716,-0.6717116635,-0.7307224072,0.1133588125
6.0850,-0.04496499216,-0.6716193083,-0.730805506,0.1132650281
6.0900,-0.04522689441,-0.6715222225,-0.7308911998,0.1131834209
6.0950,-0.04548562635,-0.6714199833,-0.7309796862,0.1131148181
6.1000,-0.04574082796,-0.6713125751,-0.7310713973,0.1130566901
6.1050,-0.04599301256,-0.6712004018,-0.7311660552,0.1130082435
6.1100,-0.04624229938,-0.6710834812,-0.7312639776,0.1129672792
6.1150,-0.04649076994,-0.6709612051,-0.7313658175,0.1129323272
6.1200,-0.04673961393,-0.6708334573,-0.7314718072,0.1129020651
6.1250,-0.04698676448,-0.6707006194,-0.7315816726,0.1128768333
6.1300,-0.04723106762,-0.6705644344,-0.7316943159,0.1128538599
6.1350,-0.04747097927,-0.6704230842,-0.7318113851,0.1128339089
6.1400,-0.04770763879,-0.6702774541,-0.7319319439,0.1128173093
6.1450,-0.04793786768,-0.6701295131,-0.7320543417,0.1128044208
6.1500,-0.04816039338,-0.6699787067,-0.7321793428,0.1127941442
6.1550,-0.04837514724,-0.6698263995,-0.7323056864,0.1127866189
6.1600,-0.04858266529,-0.6696740999,-0.7324321927,0.1127803517
6.1650,-0.04878217892,-0.6695217958,-0.7325592513,0.1127732564
6.1700,-0.04897605631,-0.6693716315,-0.7326852528,0.1127620732
6.1750,-0.04916560394,-0.6692243486,-0.7328095244,0.1127462447
6.1800,-0.04935187632,-0.669080268,-0.732932029,0.1127236805
6.1850,-0.04953659632,-0.6689402513,-0.7330522931,0.1126916212
6.1900,-0.04972072585,-0.6688039516,-0.7331708456,0.1126482794
6.1950,-0.04990400094,-0.6686708912,-0.7332883269,0.1125924493
6.2000,-0.05008888128,-0.6685414304,-0.7334043379,0.112523495
6.2050,-0.05027527204,-0.6684143428,-0.7335200521,0.1124410802
6.2100,-0.05046316169,-0.6682887339,-0.7336361606,0.1123459893
6.2150,-0.05065299395,-0.668164834,-0.7337524993,0.112237688
6.2200,-0.05084554147,-0.6680427771,-0.7338688985,0.1121160947
6.2250,-0.05104029239,-0.6679221879,-0.7339857402,0.1119811264
6.2300,-0.05123804301,-0.6678026575,-0.7341033952,0.1118323689
6.2350,-0.05143994089,-0.6676857817,-0.734220268,0.1116701725
6.2400,-0.05164526395,-0.6675706942,-0.7343372281,0.1114942613
6.2450,-0.05185621162,-0.66745806,-0.7344535131,0.1113045761
6.2500,-0.05207381043,-0.6673477084,-0.7345693347,0.1111001654
6.2550,-0.05230005707,-0.6672389771,-0.7346852573,0.1108802245
6.2600,-0.05253571815,-0.6671310949,-0.7348015763,0.1106469339
6.2650,-0.05277904556,-0.6670253483,-0.734917374,0.1103993229
6.2700,-0.05303013137,-0.6669199225,-0.7350344632,0.1101360977
6.2750,-0.05328759503,-0.666816617,-0.7351511967,0.1098578601
6.2800,-0.05355040981,-0.6667147062,-0.7352683213,0.1095643644
6.2850,-0.05381899322,-0.6666149868,-0.7353850224,0.1092558653
6.2900,-0.05409029278,-0.6665176216,-0.7355010742,0.1089342469
6.2950,-0.05436418006,-0.6664229634,-0.7356163292,0.1085982777
6.3000,-0.05463723592,-0.6663307671,-0.7357311626,0.1082484995
6.3050,-0.05491065117,-0.6662415399,-0.7358448183,0.1078862098
6.3100,-0.05518348316,-0.6661545406,-0.7359575268,0.1075147895
6.3150,-0.0554550035,-0.6660710518,-0.7360683314,0.1071331324
6.3200,-0.05572450354,-0.6659911824,-0.7361773039,0.1067403482
6.3250,-0.05599206793,-0.665914555,-0.7362841727,0.106340542
6.3300,-0.05625633295,-0.6658406674,-0.7363895079,0.1059335794
6.3350,-0.05651788051,-0.6657698628,-0.7364926888,0.1055212695
6.3400,-0.05677658703,-0.6657008297,-0.7365946132,0.1051056624
6.3450,-0.0570317783,-0.6656345313,-0.7366942539,0.1046882195
6.3500,-0.05728314201,-0.6655699305,-0.7367926467,0.1042684274
6.3550,-0.05753014018,-0.6655062791,-0.7368902301,0.1038482756
6.3600,-0.05777374834,-0.6654446062,-0.736985978,0.1034279379
6.3650,-0.05801412565,-0.6653829579,-0.7370813677,0.1030094065
6.3700,-0.05825092154,-0.6653222318,-0.7371755894,0.1025929254
6.3750,-0.05848500581,-0.6652620574,-0.7372687548,0.1021796571
6.3800,-0.05871563192,-0.6652004355,-0.7373626958,0.1017698873
6.3850,-0.05894238999,-0.6651379081,-0.7374567471,0.1013652015
6.3900,-0.05916623636,-0.6650738262,-0.7375513239,0.1009663645
6.3950,-0.0593878451,-0.6650086951,-0.7376458582,0.1005738895
6.4000,-0.05960804563,-0.66494082,-0.7377417494,0.1001883129
6.4050,-0.05982710901,-0.6648709836,-0.7378378449,0.0998128591
6.4100,-0.06004648206,-0.6647980663,-0.7379350227,0.09944774189
6.4150,-0.06026698715,-0.6647224547,-0.7380325217,0.09909563767
6.4200,-0.06048793309,-0.6646449993,-0.7381297735,0.09875561913
6.4250,-0.06071074502,-0.6645642541,-0.7382278563,0.09842860255
6.4300,-0.06093607635,-0.664479793,-0.738326836,0.09811667861
6.4350,-0.06116609197,-0.6643925472,-0.7384257799,0.097819323
6.4400,-0.06140109742,-0.664302051,-0.7385252997,0.09753497838
6.4450,-0.0616423874,-0.6642076489,-0.7386257312,0.09726481616
6.4500,-0.06189179237,-0.6641094876,-0.7387269879,0.09700738076
6.4550,-0.06215029727,-0.6640087051,-0.7388280219,0.09676225528
6.4600,-0.06241771383,-0.6639043583,-0.7389296786,0.09652959202
6.4650,-0.06269585617,-0.6637969502,-0.739031214,0.09631045261
6.4700,-0.062983427,-0.6636865618,-0.739132537,0.0961058183
6.4750,-0.0632803812,-0.6635735208,-0.739233596,0.09591384937
6.4800,-0.06358743747,-0.6634579032,-0.7393341263,0.09573556391
6.4850,-0.06390388244,-0.6633400246,-0.7394339316,0.09557074067
6.4900,-0.06423051973,-0.6632207445,-0.7395323619,0.09541787106
6.4950,-0.06456775006,-0.6631010293,-0.7396287294,0.09527525019
6.5000,-0.06491460363,-0.6629812594,-0.7397227379,0.09514312901
6.5050,-0.06527248868,-0.6628624833,-0.739813586,0.09501941135
6.5100,-0.06564090197,-0.6627454239,-0.739901003,0.09490142726
6.5150,-0.06601974232,-0.662630099,-0.7399850908,0.09478824254
6.5200,-0.06640813688,-0.6625175276,-0.740064917,0.09468053496
6.5250,-0.06680494491,-0.6624074358,-0.7401411201,0.0945759521
6.5300,-0.06720859565,-0.6623014613,-0.7402124145,0.09447412572
6.5350,-0.06761727593,-0.6621985326,-0.7402798681,0.0943754431
6.5400,-0.06803067211,-0.6620998028,-0.7403427098,0.09427805022
6.5450,-0.06844548919,-0.6620053295,-0.7404012846,0.09418118981
6.5500,-0.06885990351,-0.6619160387,-0.7404548353,0.09408564355
6.5550,-0.06927075593,-0.6618329662,-0.7405028108,0.0939908213
6.5600,-0.06967563026,-0.6617565273,-0.7405451952,0.0938957885
6.5650,-0.07007548761,-0.6616864835,-0.7405822214,0.09379977087
6.5700,-0.07046813778,-0.6616244974,-0.7406123442,0.09370497074
6.5750,-0.07085341809,-0.661570374,-0.7406360269,0.0936093428
6.5800,-0.07122984344,-0.6615243246,-0.7406532872,0.09351248836
6.5850,-0.0715959202,-0.6614868967,-0.7406637309,0.09341492053
6.5900,-0.0719530072,-0.6614580817,-0.7406672299,0.09331680171
6.5950,-0.07229929603,-0.6614383001,-0.7406633446,0.09322015327
6.6000,-0.07263774215,-0.6614274116,-0.7406519937,0.09312444281
6.6050,-0.07296599842,-0.6614249523,-0.7406339437,0.09302879686
6.6100,-0.07328398024,-0.6614315668,-0.7406089997,0.09293035157
6.6150,-0.07359397146,-0.6614467693,-0.7405771117,0.09283124644
6.6200,-0.07389617881,-0.6614704193,-0.7405384176,0.09273128465
6.6250,-0.0741908613,-0.661502442,-0.7404932733,0.09262800583
6.6300,-0.07447781638,-0.661542974,-0.7404413532,0.09252324466
6.6350,-0.07475839273,-0.6615901879,-0.7403842875,0.09241597734
6.6400,-0.07503301246,-0.6616454103,-0.7403208487,0.09230622429
6.6450,-0.07530284116,-0.6617067818,-0.7402527779,0.09219241758
6.6500,-0.07556769307,-0.661774496,-0.7401797729,0.09207575178
6.6550,-0.07582946709,-0.661848801,-0.7401015204,0.09195540185
6.6600,-0.07608855332,-0.6619293173,-0.7400182218,0.09183214256
6.6650,-0.07634539836,-0.6620163869,-0.7399295292,0.0917059184
6.6700,-0.07660086713,-0.6621092318,-0.7398359949,0.09157714228
6.6750,-0.07685492405,-0.6622081882,-0.73973735,0.09144555288
6.6800,-0.0771089917,-0.6623132459,-0.7396336603,0.09130945308
6.6850,-0.0773619904,-0.6624232458,-0.739526063,0.09116889765
6.6900,-0.07761664147,-0.6625373679,-0.7394148861,0.09102482792
6.6950,-0.07787139807,-0.6626551575,-0.7393008043,0.0908763359
6.7000,-0.07812810435,-0.6627775853,-0.7391827905,0.0907230616
6.7050,-0.07838700029,-0.6629038379,-0.7390620061,0.09056120089
6.7100,-0.0786459719,-0.6630344709,-0.7389380172,0.09039196998
6.7150,-0.07890501647,-0.6631685137,-0.7388118878,0.09021372009
6.7200,-0.07916389094,-0.6633059462,-0.7386836107,0.09002679283
6.7250,-0.07942000326,-0.6634478781,-0.7385524326,0.08983140015
6.7300,-0.07967444394,-0.6635932118,-0.7384192354,0.08962736757
6.7350,-0.07992490265,-0.663742583,-0.7382837277,0.08941437735
6.7400,-0.08017016077,-0.6638958281,-0.738145965,0.08919422155
6.7450,-0.08041084655,-0.664053059,-0.7380060521,0.08896458624
6.7500,-0.08064579134,-0.6642140532,-0.7378640669,0.0887274853
6.7550,-0.08087534367,-0.6643775029,-0.7377209664,0.08848439562
6.7600,-0.08109990753,-0.664543292,-0.7375768489,0.08823497055
6.7650,-0.08132057423,-0.6647122489,-0.7374308021,0.08797955734
6.7700,-0.0815368729,-0.6648826883,-0.7372844291,0.08771784214
6.7750,-0.08174796724,-0.6650543383,-0.73713779,0.08745213259
6.7800,-0.0819538101,-0.6652267069,-0.7369915883,0.08718027432
6.7850,-0.08215541476,-0.6654005574,-0.7368448026,0.08690410196
6.7900,-0.08235304883,-0.6655742319,-0.7366989403,0.08662325675
6.7950,-0.08254585867,-0.6657476631,-0.736553989,0.08633916589
6.8000,-0.08273383792,-0.6659208277,-0.7364099815,0.08605174275
6.8050,-0.08291647815,-0.6660936727,-0.7362668909,0.08576212525
6.8100,-0.08309380461,-0.66626567,-0.7361251533,0.0854706696
6.8150,-0.08326582743,-0.6664373988,-0.7359842262,0.08517754481
6.8200,-0.08343352378,-0.6666084662,-0.7358444888,0.08488161228
6.8250,-0.08359827589,-0.6667799701,-0.7357047567,0.08458315882
6.8300,-0.08375985769,-0.6669507066,-0.7355664306,0.08427969691
6.8350,-0.08391933676,-0.6671214948,-0.7354287663,0.08397014775
6.8400,-0.0840767947,-0.6672931213,-0.7352910328,0.08365452676
6.8450,-0.08423211143,-0.6674649483,-0.735153948,0.08333166824
6.8500,-0.08438580087,-0.6676362117,-0.7350181866,0.083001149
6.8550,-0.08453730084,-0.667807908,-0.7348829144,0.08266283887
6.8600,-0.0846877805,-0.6679809163,-0.7347472331,0.08231633352
6.8650,-0.08483345429,-0.6681547132,-0.7346120654,0.08196143962
6.8700,-0.08497535392,-0.668328026,-0.7344784856,0.08159775155
6.8750,-0.08511395681,-0.668501183,-0.7343463428,0.08122334323
6.8800,-0.08524902871,-0.668674256,-0.7342154123,0.08083978532
6.8850,-0.08537969261,-0.6688479833,-0.7340851033,0.0804471527
6.8900,-0.08550622659,-0.6690219261,-0.7339558469,0.08004475284
6.8950,-0.08562805888,-0.6691955042,-0.7338281601,0.07963318453
6.9000,-0.08574430826,-0.6693687576,-0.7337021371,0.07921208171
6.9050,-0.08585817056,-0.6695417313,-0.7335770447,0.07878428875
6.9100,-0.08596938276,-0.6697136354,-0.7334534564,0.07835138206
6.9150,-0.08607809667,-0.669883748,-0.733331989,0.07791353722
6.9200,-0.08618410365,-0.6700511923,-0.7332132612,0.07747266267
6.9250,-0.08628704028,-0.6702146976,-0.7330983916,0.0770295662
6.9300,-0.08638893061,-0.6703744426,-0.7329869685,0.07658435473
6.9350,-0.0864869189,-0.6705307452,-0.7328789046,0.07613831961
6.9400,-0.086583702,-0.6706820306,-0.7327751702,0.07569297452
6.9450,-0.08667974394,-0.6708278872,-0.732675978,0.07524944484
6.9500,-0.08677677026,-0.6709684557,-0.7325810917,0.07480686996
6.9550,-0.08687500286,-0.6711042294,-0.7324897833,0.07436776565
6.9600,-0.08697537775,-0.6712326981,-0.7324043735,0.07393092938
6.9650,-0.08707888323,-0.6713531194,-0.7323251465,0.07349923136
6.9700,-0.08718659909,-0.6714654432,-0.73225205,0.07307250378
6.9750,-0.08729941398,-0.6715673769,-0.7321869371,0.07265232073
6.9800,-0.08741930165,-0.67165975,-0.732128751,0.07223944842
6.9850,-0.08754695887,-0.6717423652,-0.7320774474,0.07183547734
6.9900,-0.08768108247,-0.6718148275,-0.7320337069,0.07143890582
6.9950,-0.08782386899,-0.6718763182,-0.7319978392,0.07105170235
7.0000,-0.08797586593,-0.6719263011,-0.731970258,0.07067414168
7.0050,-0.08813739293,-0.6719642169,-0.7319512503,0.07030830946
7.0100,-0.08830912525,-0.6719896287,-0.7319411358,0.06995434895
7.0150,-0.08849197028,-0.6720022118,-0.7319400798,0.06961262869
7.0200,-0.08868561289,-0.6720016932,-0.731948291,0.06928409364
7.0250,-0.08889140326,-0.6719869706,-0.7319667677,0.06896724408
7.0300,-0.08910902059,-0.6719591027,-0.7319946963,0.06866084361
7.0350,-0.08933988599,-0.6719175052,-0.7320324969,0.06836427693
7.0400,-0.0895843801,-0.6718617477,-0.7320806733,0.06807583008
7.0450,-0.08984247308,-0.6717928035,-0.732138239,0.06779644693
7.0500,-0.09011384827,-0.6717108183,-0.7322052097,0.06752482352
7.0550,-0.09039765176,-0.6716160057,-0.7322816477,0.06725915474
7.0600,-0.0906944625,-0.6715094706,-0.7323664711,0.06699923448
7.0650,-0.09100255436,-0.6713914797,-0.7324596616,0.06674473874
7.0700,-0.0913211791,-0.6712617596,-0.7325615677,0.06649542756
7.0750,-0.09164900942,-0.671121679,-0.7326710443,0.06625173115
7.0800,-0.09198668509,-0.6709725579,-0.7327867422,0.06601414071
7.0850,-0.09233136887,-0.670813933,-0.7329095047,0.06578178708
7.0900,-0.09268295203,-0.6706467451,-0.7330383718,0.06555577162
7.0950,-0.09304105189,-0.6704719539,-0.7331724237,0.06533696334
7.1000,-0.09340676692,-0.6702900358,-0.7333111322,0.06512470486
7.1050,-0.09377895083,-0.6701027265,-0.7334531027,0.06491833654
7.1100,-0.09415641745,-0.6699096894,-0.7335988545,0.06471705879
7.1150,-0.09453969574,-0.6697124778,-0.7337468153,0.06452173323
7.1200,-0.0949262377,-0.6695110206,-0.7338975511,0.06433029823
7.1250,-0.09531392476,-0.6693070834,-0.7340496949,0.06414303692
7.1300,-0.09570264527,-0.6691008547,-0.7342031429,0.06395932231
7.1350,-0.0960901298,-0.6688936961,-0.7343570019,0.06377855392
7.1400,-0.09647467038,-0.6686863872,-0.734510885,0.06359963377
7.1450,-0.09685625802,-0.6684795197,-0.7346641949,0.06342332251
7.1500,-0.09723325615,-0.6682755445,-0.7348150696,0.06324795713
7.1550,-0.09760535943,-0.6680733738,-0.7349644255,0.06307498992
7.1600,-0.09797188413,-0.6678742836,-0.7351112585,0.06290380665
7.1650,-0.09833389762,-0.6676788303,-0.7352549294,0.06273446381
7.1700,-0.09868893523,-0.6674889462,-0.7353941302,0.06256575771
7.1750,-0.0990346454,-0.6673056611,-0.7355279216,0.06240168422
7.1800,-0.09937038851,-0.6671292015,-0.7356564049,0.06223992585
7.1850,-0.09969572718,-0.6669595573,-0.7357796711,0.06208048406
7.1900,-0.1000091013,-0.6667970683,-0.7358974805,0.06192533947
7.1950,-0.1003102018,-0.666642143,-0.7360095768,0.06177393779
7.2000,-0.1005978239,-0.6664943881,-0.7361163857,0.06162771337
7.2050,-0.1008685051,-0.6663550878,-0.7362172241,0.06148691425
7.2100,-0.1011232117,-0.6662245717,-0.7363115576,0.06135312773
7.2150,-0.101359088,-0.6661027343,-0.7363998687,0.06122675901
7.2200,-0.1015769414,-0.6659886095,-0.7364828903,0.06110850359
7.2250,-0.1017776031,-0.6658837004,-0.736559062,0.0609997142
7.2300,-0.1019620712,-0.6657873161,-0.7366288099,0.06090141414
7.2350,-0.1021321395,-0.6656992017,-0.7366921065,0.06081397216
7.2400,-0.1022886434,-0.6656189917,-0.7367491132,0.06073825399
7.2450,-0.1024348542,-0.6655461454,-0.7367998007,0.06067522215
7.2500,-0.1025710743,-0.6654797536,-0.7368448983,0.06062563872
7.2550,-0.1027010977,-0.6654175709,-0.7368859438,0.06058916294
7.2600,-0.1028258206,-0.6653613175,-0.7369212635,0.0605658256
7.2650,-0.1029480984,-0.6653092021,-0.7369519612,0.06055709337
7.2700,-0.1030690558,-0.6652609689,-0.736978273,0.06056102753
7.2750,-0.1031905001,-0.6652155116,-0.7370008127,0.06057925216
7.2800,-0.1033127207,-0.6651719932,-0.7370202644,0.06061213658
7.2850,-0.1034372661,-0.6651291116,-0.7370376916,0.06065837246
7.2900,-0.1035644205,-0.6650855878,-0.737054054,0.06071979331
7.2950,-0.1036952293,-0.6650415385,-0.7370693671,0.06079308828
7.3000,-0.1038272527,-0.6649967235,-0.737084126,0.06087898249
7.3050,-0.1039603942,-0.664949858,-0.7370995816,0.06097646751
7.3100,-0.104093976,-0.6649022259,-0.7371149174,0.06108250649
7.3150,-0.1042260892,-0.6648535889,-0.737130717,0.06119586377
7.3200,-0.1043552111,-0.6648039814,-0.7371473809,0.06131390558
7.3250,-0.1044802781,-0.6647545494,-0.7371642028,0.06143450669
7.3300,-0.1045987286,-0.6647060999,-0.7371808476,0.06155732853
7.3350,-0.1047079562,-0.6646592257,-0.7371974321,0.06167903783
7.3400,-0.1048049226,-0.6646155964,-0.7372130212,0.06179804738
7.3450,-0.1048880615,-0.664575974,-0.7372274951,0.06191033675
7.3500,-0.1049549795,-0.6645409881,-0.7372406894,0.06201526644
7.3550,-0.105002509,-0.6645113444,-0.7372525305,0.06211161387
7.3600,-0.1050287708,-0.6644887223,-0.737261926,0.06219765031
7.3650,-0.1050302216,-0.6644726723,-0.7372698975,0.06227213274
7.3700,-0.1050076816,-0.6644655244,-0.7372742837,0.06233445472
7.3750,-0.1049613405,-0.6644674137,-0.7372750305,0.0623835117
7.3800,-0.1048892656,-0.6644778556,-0.7372728474,0.06241930746
7.3850,-0.1047925119,-0.6644980505,-0.7372664005,0.0624429737
7.3900,-0.1046703322,-0.6645280984,-0.7372555703,0.06245600072
7.3950,-0.1045249579,-0.6645667255,-0.7372411495,0.06245869006
7.4000,-0.1043543912,-0.6646148028,-0.7372224308,0.06245328189
7.4050,-0.1041628173,-0.6646694134,-0.7372012815,0.06244156349
7.4100,-0.1039525858,-0.6647318008,-0.7371758927,0.0624275276
7.4150,-0.1037237747,-0.6648002491,-0.7371476754,0.06241243529
7.4200,-0.103480486,-0.66487411,-0.7371163038,0.06240001204
7.4250,-0.1032252885,-0.6649508463,-0.7370835414,0.06239202523
7.4300,-0.1029608437,-0.6650303188,-0.737048762,0.06239280557
7.4350,-0.1026887609,-0.6651116667,-0.7370124369,0.0624031809
7.4400,-0.1024127368,-0.6651927638,-0.7369757591,0.06242554621
7.4450,-0.1021313509,-0.6652736368,-0.7369388871,0.06246000258
7.4500,-0.1018483292,-0.6653518549,-0.7369034419,0.06250715441
7.4550,-0.1015645494,-0.6654291497,-0.7368678371,0.06256580228
7.4600,-0.1012808209,-0.6655035577,-0.7368337933,0.062635222
7.4650,-0.1009985225,-0.665576502,-0.7368000122,0.06271331974
7.4700,-0.1007216834,-0.6656475584,-0.7367664,0.06279922296
7.4750,-0.1004517667,-0.6657162925,-0.7367335266,0.06288856273
7.4800,-0.1001915958,-0.6657830625,-0.7367007797,0.06298030615
7.4850,-0.09994232066,-0.6658484693,-0.7366676993,0.06307177857
7.4900,-0.099703664,-0.6659133617,-0.7366339014,0.06315907949
7.4950,-0.09947827784,-0.6659777498,-0.7365992014,0.06324022034
7.5000,-0.09926523938,-0.6660428889,-0.7365627174,0.06331386578
7.5050,-0.09906576729,-0.6661078157,-0.7365252641,0.06337891572
7.5100,-0.09887789672,-0.6661722107,-0.7364875132,0.06343414038
7.5150,-0.09870175048,-0.6662371851,-0.7364484328,0.06347978799
7.5200,-0.09853471425,-0.666303371,-0.7364077598,0.06351644838
7.5250,-0.09837666304,-0.66636965,-0.7363665174,0.06354426632
7.5300,-0.09822678037,-0.6664354409,-0.736325278,0.06356404441
7.5350,-0.09808581981,-0.6665012356,-0.7362836257,0.06357434592
7.5400,-0.09795448614,-0.6665673592,-0.7362411088,0.0635759708
7.5450,-0.09783090308,-0.6666327692,-0.7361989719,0.06356838212
7.5500,-0.09771569192,-0.6666972593,-0.7361573047,0.06355179592
7.5550,-0.09760850797,-0.6667629157,-0.736114281,0.06352604782
7.5600,-0.09751023869,-0.666827352,-0.7360718657,0.0634920816
7.5650,-0.0974207451,-0.6668927794,-0.7360281999,0.0634484684
7.5700,-0.09733840652,-0.6669575411,-0.735984817,0.06339733484
7.5750,-0.09726316618,-0.6670222706,-0.7359411425,0.06333878517
7.5800,-0.09719232773,-0.6670866497,-0.7358976761,0.0632745099
7.5850,-0.09712312963,-0.6671514734,-0.7358539019,0.06320636239
7.5900,-0.09705229348,-0.6672162047,-0.7358106836,0.06313498495
7.5950,-0.09697514999,-0.6672821095,-0.7357674251,0.06306110385
7.6000,-0.09689066405,-0.6673493238,-0.7357242735,0.06298311304
7.6050,-0.0967944254,-0.6674198018,-0.7356799579,0.0629018834
7.6100,-0.09668559762,-0.6674920789,-0.7356358622,0.06281797593
7.6150,-0.09656119242,-0.6675681855,-0.7355905909,0.0627306666
7.6200,-0.09641800718,-0.6676490707,-0.7355437282,0.0626395258
7.6250,-0.09625535973,-0.6677356335,-0.7354946465,0.06254322044
7.6300,-0.09606991134,-0.6678289129,-0.7354429451,0.06244028915
7.6350,-0.09585982516,-0.6679306309,-0.7353870725,0.06233313598
7.6400,-0.09562105885,-0.6680428963,-0.7353257374,0.06222026777
7.6450,-0.09534988353,-0.6681658006,-0.7352589925,0.06210536656
7.6500,-0.0950430511,-0.6683015612,-0.7351850395,0.06199031716
7.6550,-0.0946979777,-0.6684497561,-0.7351044578,0.06187610738
7.6600,-0.09431086994,-0.6686108594,-0.7350169841,0.06176578008
7.6650,-0.09387972148,-0.668785689,-0.7349218137,0.06166220691
7.6700,-0.09340123511,-0.6689734133,-0.7348197385,0.06156893364
7.6750,-0.09287432272,-0.6691736253,-0.7347110191,0.06148770495
7.6800,-0.0922974771,-0.6693863966,-0.734595543,0.06141999586
7.6850,-0.09167102175,-0.6696102918,-0.7344740912,0.06137010784
7.6900,-0.09099629577,-0.6698439287,-0.7343475839,0.06133849797
7.6950,-0.09027319671,-0.6700873941,-0.7342156969,0.061326541
7.7000,-0.08950599948,-0.6703383219,-0.7340798461,0.06133506158
7.7050,-0.08869535428,-0.6705965475,-0.7339398979,0.0613647367
7.7100,-0.08784502645,-0.670860051,-0.7337971102,0.06141534323
7.7150,-0.08696005081,-0.6711283272,-0.7336512537,0.06148622516
7.7200,-0.08604504563,-0.6713998616,-0.7335032087,0.06157530979
7.7250,-0.08510680683,-0.6716746572,-0.7333522012,0.06168091492
7.7300,-0.08414903081,-0.6719519884,-0.7331986744,0.06179943194
7.7350,-0.08318035638,-0.6722303484,-0.7330431643,0.06192823523
7.7400,-0.08220558188,-0.6725096145,-0.7328854311,0.06206452673
7.7450,-0.08123321774,-0.6727897451,-0.7327250054,0.06220281087
7.7500,-0.08026797754,-0.6730713341,-0.7325609965,0.06234113658
7.7550,-0.07931383259,-0.6733520821,-0.7323954886,0.06247509718
7.7600,-0.07837615816,-0.6736331919,-0.7322269273,0.06260373329
7.7650,-0.07745788057,-0.6739138097,-0.7320558804,0.06272672313
7.7700,-0.07656015771,-0.6741933707,-0.7318830338,0.06284159442
7.7750,-0.07568181667,-0.6744716953,-0.7317087596,0.0629482807
7.7800,-0.07482333292,-0.6747483076,-0.7315334172,0.06304799606
7.7850,-0.07398564766,-0.6750215361,-0.7313584115,0.06314209139
7.7900,-0.07316782604,-0.6752911927,-0.731183906,0.06323266529
7.7950,-0.07236744474,-0.6755559605,-0.7310112773,0.06332147848
7.8000,-0.07158497176,-0.6758137641,-0.7308422412,0.0634110917
7.8050,-0.07081878783,-0.6760647481,-0.7306767905,0.06350262581
7.8100,-0.07006867839,-0.6763078487,-0.7305157547,0.06359879115
7.8150,-0.06933519008,-0.6765419577,-0.7303598783,0.06370289679
7.8200,-0.06862013045,-0.6767662426,-0.7302098043,0.06381514129
7.8250,-0.06792349403,-0.6769794148,-0.7300665361,0.06393843756
7.8300,-0.06724493616,-0.6771820507,-0.7299295517,0.06407369423
7.8350,-0.06658406211,-0.6773731941,-0.7297995593,0.0642239977
7.8400,-0.06594170138,-0.6775521792,-0.7296770072,0.06439100563
7.8450,-0.06531853341,-0.6777206836,-0.7295602348,0.06457575386
7.8500,-0.06471510936,-0.6778777456,-0.7294498414,0.06478152146
7.8550,-0.06413136616,-0.6780223556,-0.7293468686,0.06500768011
7.8600,-0.06356753578,-0.6781561754,-0.729249729,0.06525490662
7.8650,-0.06302377721,-0.6782788388,-0.7291587358,0.0655237237
7.8700,-0.06250157443,-0.6783910518,-0.7290731392,0.06581407022
7.8750,-0.0619995253,-0.6784932332,-0.7289928478,0.06612427172
7.8800,-0.06151726662,-0.6785862874,-0.7289172007,0.06645292284
7.8850,-0.06105712603,-0.6786709545,-0.7288453841,0.06679946854
7.8900,-0.06061826826,-0.6787493013,-0.7287758869,0.06716039169
7.8950,-0.06020121365,-0.6788214456,-0.7287085037,0.06753647564
7.9000,-0.05980309053,-0.6788883471,-0.7286427302,0.06792624147
7.9050,-0.05942338145,-0.6789506764,-0.7285779468,0.06833019959
7.9100,-0.05905876456,-0.6790109744,-0.728512183,0.06874706019
7.9150,-0.05870631329,-0.6790700892,-0.7284449228,0.0691764201
7.9200,-0.0583656515,-0.6791283686,-0.728375986,0.06961704272
7.9250,-0.05803163017,-0.6791867032,-0.7283048677,0.07006976382
7.9300,-0.05770082379,-0.6792459744,-0.7282309727,0.07053489617
7.9350,-0.05737178859,-0.6793055488,-0.728155085,0.07101141724
7.9400,-0.05704184273,-0.6793662245,-0.7280765594,0.07150024431
7.9450,-0.056707114,-0.6794278722,-0.7279958218,0.07200106358
7.9500,-0.05636739427,-0.6794903208,-0.7279132723,0.07251130095
7.9550,-0.05601990979,-0.6795552113,-0.7278274522,0.07303207718
7.9600,-0.05566436569,-0.6796215416,-0.7277394314,0.07356193741
7.9650,-0.05530180824,-0.6796896866,-0.7276488404,0.07409996595
7.9700,-0.05493003643,-0.6797598505,-0.7275556181,0.07464622763
7.9750,-0.05455064837,-0.679833218,-0.727458723,0.07519859562
7.9800,-0.05416288833,-0.6799101382,-0.7273577874,0.07575773572
7.9850,-0.05376742982,-0.6799899425,-0.7272535686,0.07632161216
7.9900,-0.05336378019,-0.6800744467,-0.7271445972,0.07688815665
7.9950,-0.05295341038,-0.6801622035,-0.7270323553,0.07745493934
8.0000,-0.05253722502,-0.6802534863,-0.7269163997,0.07802295999
8.0050,-0.05211512994,-0.680347161,-0.7267979148,0.078590997
8.0100,-0.05168776255,-0.6804431864,-0.7266771649,0.07915644767
8.0150,-0.05125285724,-0.6805398934,-0.7265559384,0.07971867081
8.0200,-0.05081038565,-0.6806380955,-0.7264334101,0.08027819299
8.0250,-0.05035900689,-0.6807352151,-0.7263123222,0.08083283978
8.0300,-0.04990096677,-0.6808314899,-0.7261921327,0.08138404225
8.0350,-0.04943367672,-0.6809254389,-0.7260745689,0.08193032767
8.0400,-0.04895756216,-0.681016951,-0.7259596355,0.08247228167
8.0450,-0.04847203696,-0.6811044144,-0.7258488208,0.08301040705
8.0500,-0.04797703202,-0.6811873798,-0.7257426403,0.08354386888
8.0550,-0.04747398522,-0.6812661184,-0.7256404084,0.08407552751
8.0600,-0.04696265763,-0.6813393342,-0.7255436729,0.08460259535
8.0650,-0.04644455501,-0.681405573,-0.7254537936,0.08512427246
8.0700,-0.04591869907,-0.6814653855,-0.7253701861,0.08564166396
8.0750,-0.04538898363,-0.681518721,-0.7252925286,0.08615579473
8.0800,-0.04485727981,-0.6815647129,-0.7252216194,0.08666584871
8.0850,-0.04432262742,-0.6816036216,-0.7251572258,0.087172276
8.0900,-0.04378784003,-0.681635055,-0.7250994154,0.0876761922
8.0950,-0.04325320899,-0.681659419,-0.7250478414,0.08817723132
8.1000,-0.04271857197,-0.6816760755,-0.7250030085,0.08867631784
8.1050,-0.04218380863,-0.6816851148,-0.7249648786,0.08917317665
8.1100,-0.04164949681,-0.6816861963,-0.7249338474,0.08966697315
8.1150,-0.0411157336,-0.6816775022,-0.7249117215,0.09015694875
8.1200,-0.04058371577,-0.6816596685,-0.7248976863,0.09064437486
8.1250,-0.04005323888,-0.6816335153,-0.7248910336,0.09112890988
8.1300,-0.03952505279,-0.6815974426,-0.7248935712,0.09160789749
8.1350,-0.03900029709,-0.6815501024,-0.7249064314,0.09208203065
8.1400,-0.03847862495,-0.6814929266,-0.7249284702,0.09254998381
8.1450,-0.03796200195,-0.6814245825,-0.7249608571,0.09301172168
8.1500,-0.03744954822,-0.6813465615,-0.7250024331,0.09346585734
8.1550,-0.03694088738,-0.6812588227,-0.7250528242,0.09391586347
8.1600,-0.03643554881,-0.6811601684,-0.7251133736,0.09436032616
8.1650,-0.03593421553,-0.6810519853,-0.7251828722,0.09479835106
8.1700,-0.03543661678,-0.68093384,-0.725261565,0.09523137109
8.1750,-0.03494530969,-0.6808076075,-0.7253477829,0.09565783133
8.1800,-0.03446094224,-0.6806728652,-0.7254418328,0.09607830786
8.1850,-0.03398407275,-0.6805304304,-0.7255431409,0.09649127811
8.1900,-0.0335154385,-0.6803796393,-0.7256519716,0.09689931874
8.1950,-0.03305476674,-0.680220141,-0.725768772,0.09730175623
8.2000,-0.03260151862,-0.6800522186,-0.7258929074,0.09770162727
8.2050,-0.03215559423,-0.679875062,-0.7260254244,0.09809689574
8.2100,-0.03171556222,-0.6796885982,-0.7261663713,0.09848824185
8.2150,-0.03128151551,-0.6794925774,-0.7263157149,0.0988776328
8.2200,-0.03085248178,-0.6792869888,-0.7264736619,0.09926393984
8.2250,-0.03042893261,-0.6790720337,-0.7266398244,0.099648476
8.2300,-0.03001315196,-0.678846552,-0.7268154532,0.1000293281
8.2350,-0.02960284967,-0.6786113022,-0.7269999416,0.1004064575
8.2400,-0.02919738683,-0.6783649323,-0.7271946318,0.1007794559
8.2450,-0.02879921126,-0.6781077461,-0.727399439,0.1011461624
8.2500,-0.02840551233,-0.6778396512,-0.7276141562,0.1015094764
8.2550,-0.02801914155,-0.6775604767,-0.7278391842,0.1018668247
8.2600,-0.02763735043,-0.6772710076,-0.7280738902,0.1022182446
8.2650,-0.02726053271,-0.676970084,-0.7283194923,0.1025625948
8.2700,-0.0268891031,-0.6766581122,-0.7285756079,0.1028997515
8.2750,-0.02652024495,-0.6763344925,-0.7288428096,0.1032302749
8.2800,-0.02615571294,-0.6759993388,-0.7291209605,0.1035538389
8.2850,-0.02579612384,-0.6756533577,-0.7294094458,0.103869922
8.2900,-0.02544165501,-0.6752955975,-0.7297089086,0.1041800693
8.2950,-0.02509281998,-0.6749277965,-0.7300175927,0.1044850906
8.3000,-0.02474770925,-0.6745503413,-0.7303353341,0.1047840048
8.3050,-0.02440624179,-0.674163388,-0.7306618831,0.1050774677
8.3100,-0.02406934836,-0.6737680771,-0.7309959263,0.1053669802
8.3150,-0.02373942449,-0.6733647328,-0.731337243,0.1056513766
8.3200,-0.02341424654,-0.6729524464,-0.7316866599,0.105931155
8.3250,-0.02309448387,-0.6725324705,-0.7320430468,0.1062059254
8.3300,-0.02278067344,-0.6721042967,-0.7324067381,0.1064764071
8.3350,-0.02247461678,-0.6716681107,-0.7327776223,0.10674173
8.3400,-0.02217855312,-0.6712245857,-0.7331551681,0.1070007798
8.3450,-0.02189258579,-0.6707743352,-0.7335386948,0.1072543201
8.3500,-0.0216173656,-0.6703163713,-0.7339290262,0.1075027269
8.3550,-0.02135189909,-0.6698516219,-0.7343256564,0.1077438231
8.3600,-0.02109734553,-0.6693795297,-0.7347287719,0.1079795302
8.3650,-0.02085372981,-0.6689024083,-0.7351362528,0.1082098882
8.3700,-0.02062255452,-0.6684179458,-0.7355503996,0.1084332494
8.3750,-0.02040321293,-0.6679263408,-0.7359710799,0.108649352
8.3800,-0.02019229637,-0.6674292545,-0.736396549,0.1088603873
8.3850,-0.019989052,-0.6669262311,-0.7368270696,0.1090674546
8.3900,-0.0197911096,-0.6664160877,-0.737263349,0.1092733464
8.3950,-0.01959586668,-0.6658977482,-0.7377060228,0.1094806594
8.4000,-0.01940320141,-0.6653744871,-0.7381518984,0.1096908505
8.4050,-0.01921365797,-0.6648446908,-0.7386022287,0.1099050515
8.4100,-0.01902860357,-0.6643084892,-0.7390567176,0.1101240732
8.4150,-0.01884752467,-0.6637676449,-0.7395137524,0.1103480605
8.4200,-0.01866886938,-0.6632213399,-0.7399741333,0.1105767139
8.4250,-0.01849487092,-0.6626701298,-0.7404372165,0.1108105016
8.4300,-0.01832473133,-0.6621148182,-0.740901663,0.1110535795
8.4350,-0.01816190466,-0.6615576935,-0.7413655769,0.1113042894
8.4400,-0.0180057044,-0.6609967095,-0.7418308566,0.1115622016
8.4450,-0.01785770848,-0.6604322306,-0.7422970014,0.111828139
8.4500,-0.01772072626,-0.6598645816,-0.7427636589,0.1121019928
8.4550,-0.01759451928,-0.6592932021,-0.7432315523,0.1123822327
8.4600,-0.01748064031,-0.6587180734,-0.7437003084,0.1126711063
8.4650,-0.01737468755,-0.6581370305,-0.7441715922,0.1129708401
8.4700,-0.0172757564,-0.6575518133,-0.7446437472,0.1132821736
8.4750,-0.01717999609,-0.6569601603,-0.7451184144,0.113607852
8.4800,-0.01708553731,-0.6563614454,-0.7455958491,0.1139498452
8.4850,-0.01698935918,-0.6557545655,-0.7460767486,0.1143100901
8.4900,-0.01689080009,-0.6551385648,-0.7465618499,0.1146889972
8.4950,-0.01678767185,-0.6545134153,-0.7470509613,0.1150878988
8.5000,-0.01668055716,-0.653878959,-0.74754432,0.1155056523
8.5050,-0.01657170324,-0.653237514,-0.7480397798,0.1159422996
8.5100,-0.01646464455,-0.6525889433,-0.7485373494,0.1163976936
8.5150,-0.01636301382,-0.6519337823,-0.7490368372,0.1168692077
8.5200,-0.01626783642,-0.6512730988,-0.749536513,0.1173615097
8.5250,-0.01618114196,-0.6506060843,-0.7500375234,0.1178711463
8.5300,-0.01610398192,-0.6499325438,-0.7505397224,0.1183996428
8.5350,-0.0160358111,-0.649252737,-0.7510431859,0.1189448155
8.5400,-0.01597667727,-0.6485654556,-0.7515488342,0.1195070934
8.5450,-0.01592286968,-0.6478696547,-0.7520574964,0.1200870298
8.5500,-0.01587248209,-0.647164132,-0.7525708816,0.1206802332
8.5550,-0.0158202737,-0.6464476702,-0.7530898208,0.1212882949
8.5600,-0.01576466005,-0.6457203096,-0.7536142883,0.1219108761
8.5650,-0.01570373799,-0.6449834545,-0.7541428608,0.1225490987
8.5700,-0.01563754266,-0.6442385935,-0.7546748018,0.1231992101
8.5750,-0.01556630543,-0.6434870423,-0.7552085922,0.1238632261
8.5800,-0.01549092038,-0.6427297707,-0.7557433216,0.1245411784
8.5850,-0.01540933782,-0.6419677211,-0.7562779646,0.1252343311
8.5900,-0.01531944649,-0.6412024631,-0.7568113948,0.12594137
8.5950,-0.01521949577,-0.6404323545,-0.7573449373,0.1266625921
8.6000,-0.01510794746,-0.6396575736,-0.7578788494,0.1273954009
8.6050,-0.01498302377,-0.6388788955,-0.7584126072,0.1281389209
8.6100,-0.01484214722,-0.6380945266,-0.7589483311,0.1288895519
8.6150,-0.01468457479,-0.6373061493,-0.7594845547,0.129647393
8.6200,-0.01451282572,-0.6365146259,-0.7600214072,0.130406938
8.6250,-0.01432796091,-0.6357202213,-0.7605586677,0.1311679178
8.6300,-0.01413030542,-0.6349222501,-0.7610978346,0.1319248156
8.6350,-0.01392316426,-0.6341227512,-0.7616373817,0.132676225
8.6400,-0.01370722577,-0.6333220602,-0.762177607,0.1334187974
8.6450,-0.01348626319,-0.6325200965,-0.7627195314,0.1341468026
8.6500,-0.01326271821,-0.6317178948,-0.7632626525,0.1348581659
8.6550,-0.01304043687,-0.6309154235,-0.7638074433,0.1355502302
8.6600,-0.01281939006,-0.6301122771,-0.7643551596,0.1362181028
8.6650,-0.01260113406,-0.6293084374,-0.7649065019,0.1368581214
8.6700,-0.01238739399,-0.6285057622,-0.7654603922,0.1374679869
8.6750,-0.01218140589,-0.6277052612,-0.7660164369,0.1380454161
8.6800,-0.01198520431,-0.6269069502,-0.7665751367,0.1385878439
8.6850,-0.01180281516,-0.6261126234,-0.7671355446,0.1390925326
8.6900,-0.01163625891,-0.6253237508,-0.7676967788,0.139558088
8.6950,-0.01148999749,-0.6245428619,-0.7682568792,0.1399841461
8.7000,-0.0113682633,-0.6237699487,-0.7688158324,0.1403710426
8.7050,-0.01127503096,-0.623007816,-0.7693711578,0.1407201352
8.7100,-0.01121461464,-0.6222578939,-0.7699213543,0.1410335209
8.7150,-0.01118872615,-0.6215198294,-0.770466287,0.1413138871
8.7200,-0.01119991509,-0.6207934757,-0.771005558,0.1415643036
8.7250,-0.01124771155,-0.6200768966,-0.771540518,0.1417863195
8.7300,-0.01133268891,-0.6193670887,-0.7720731993,0.1419822329
8.7350,-0.0114502713,-0.6186608248,-0.7726053488,0.1421571319
8.7400,-0.01159969066,-0.6179578178,-0.7731367385,0.1423136191
8.7450,-0.01177662137,-0.6172571779,-0.7736673975,0.1424557669
8.7500,-0.01197960579,-0.6165571827,-0.7741984721,0.1425849056
8.7550,-0.01220992322,-0.61585868,-0.7747283234,0.1427060931
8.7600,-0.01246725111,-0.6151619322,-0.7752564129,0.1428210737
8.7650,-0.01275209237,-0.614465047,-0.7757834789,0.1429338446
8.7700,-0.01306363028,-0.6137647833,-0.7763117369,0.1430462142
8.7750,-0.01340037167,-0.6130606823,-0.7768410872,0.1431605921
8.7800,-0.01376169084,-0.6123526607,-0.7773713757,0.1432779783
8.7850,-0.01414764976,-0.6116394198,-0.777903307,0.1433998226
8.7900,-0.01455797794,-0.6109225445,-0.778435251,0.1435279413
8.7950,-0.01499509295,-0.6102023028,-0.7789664718,0.1436646536
8.8000,-0.01546003659,-0.6094776044,-0.7794972817,0.143812464
8.8050,-0.0159515753,-0.6087466483,-0.7800284902,0.1439743727
8.8100,-0.01646751601,-0.6080095065,-0.7805598832,0.1441510658
8.8150,-0.01700445984,-0.6072650914,-0.7810918427,0.1443450392
8.8200,-0.01756240732,-0.6065096313,-0.7816271689,0.1445565556
8.8250,-0.01813627163,-0.605743225,-0.7821654334,0.144787623
8.8300,-0.01872353251,-0.6049648908,-0.7827073158,0.1450385053
8.8350,-0.01932261422,-0.6041738165,-0.7832529887,0.1453113614
8.8400,-0.0199321133,-0.6033706031,-0.783801887,0.1456064153
8.8450,-0.02055255054,-0.6025561439,-0.784353292,0.1459232658
8.8500,-0.02118549846,-0.6017301655,-0.7849068497,0.1462642129
8.8550,-0.02183189903,-0.6008942514,-0.7854613487,0.1466285663
8.8600,-0.02249355614,-0.6000469952,-0.7860171706,0.1470192196
8.8650,-0.02316663739,-0.5991873802,-0.7865754133,0.1474344242
8.8700,-0.02384863009,-0.5983143142,-0.7871366076,0.1478755732
8.8750,-0.02453578862,-0.597428383,-0.7877009165,0.1483394364
8.8800,-0.02522440992,-0.5965292717,-0.7882689177,0.1488242944
8.8850,-0.02591340349,-0.5956190015,-0.7888398776,0.1493256444
8.8900,-0.02660314791,-0.5946995536,-0.7894122096,0.1498435081
8.8950,-0.02729309792,-0.5937735993,-0.7899842223,0.1503759558
8.9000,-0.02798516756,-0.5928428349,-0.7905543424,0.1509239385
8.9050,-0.02868205641,-0.5919106846,-0.7911200826,0.1514862902
8.9100,-0.02938692791,-0.5909818535,-0.7916779838,0.1520619191
8.9150,-0.03010221198,-0.5900565531,-0.7922279407,0.1526499618
8.9200,-0.03082891015,-0.5891358864,-0.7927684641,0.1532535414
8.9250,-0.0315662217,-0.5882204516,-0.7932995971,0.1538701507
8.9300,-0.03231368242,-0.5873112435,-0.7938205188,0.1545002045
8.9350,-0.0330678372,-0.5864063836,-0.7943329665,0.1551425465
8.9400,-0.03382834301,-0.5855045883,-0.7948380988,0.155796075
8.9450,-0.0345951848,-0.5846069614,-0.7953348647,0.156461902
8.9500,-0.03537064638,-0.5837150412,-0.7958227951,0.1571360773
8.9550,-0.03615399319,-0.5828284091,-0.7963022333,0.1578185274
8.9600,-0.03694324357,-0.5819467519,-0.7967732749,0.158510325
8.9650,-0.03773361468,-0.581068667,-0.7972373647,0.1592104358
8.9700,-0.03852404983,-0.5801939044,-0.7976945965,0.1599195469
8.9750,-0.0393112679,-0.5793225461,-0.7981449505,0.1606382574
8.9800,-0.04009216913,-0.5784529885,-0.7985897933,0.1613663538
8.9850,-0.04086002435,-0.5775846711,-0.7990297181,0.1621046442
8.9900,-0.04161078375,-0.5767187399,-0.7994646801,0.1628504314
8.9950,-0.0423451809,-0.5758565233,-0.7998946137,0.1635993799
9.0000,-0.04306143558,-0.5749993552,-0.8003189729,0.1643502231
9.0050,-0.04375686727,-0.5741485986,-0.8007371031,0.1651024381
9.0100,-0.04442796277,-0.5733044885,-0.8011494385,0.1658544444
9.0150,-0.04507610289,-0.572469382,-0.8015547821,0.1666039704
9.0200,-0.04570132392,-0.5716452735,-0.8019521317,0.1673494807
9.0250,-0.04630299385,-0.5708348419,-0.8023400103,0.1680896304
9.0300,-0.04688042357,-0.5700384376,-0.802719027,0.1688211163
9.0350,-0.04743306929,-0.5692593351,-0.8030874698,0.1695418212
9.0400,-0.04796089598,-0.5684980479,-0.8034458009,0.1702485447
9.0450,-0.04846509545,-0.5677543969,-0.803794864,0.170938281
9.0500,-0.04894310464,-0.5670282942,-0.804134919,0.1716115328
9.0550,-0.04939167133,-0.5663187218,-0.8044674958,0.1722661203
9.0600,-0.04980716389,-0.5656240792,-0.8047941838,0.1729016171
9.0650,-0.05018895591,-0.5649449664,-0.8051153558,0.1735151792
9.0700,-0.05053323503,-0.5642807959,-0.805432316,0.1741044509
9.0750,-0.05083715084,-0.563630905,-0.8057458847,0.1746692772
9.0800,-0.05110130158,-0.5629932128,-0.8060578838,0.1752084113
9.0850,-0.05132610685,-0.5623701676,-0.8063672273,0.1757194355
9.0900,-0.05151035818,-0.5617606395,-0.8066754886,0.1761996682
9.0950,-0.05165419479,-0.5611630044,-0.8069838725,0.1766492464
9.1000,-0.05175560076,-0.560578275,-0.8072922942,0.1770663918
9.1050,-0.05181754272,-0.5600064204,-0.8076011645,0.1774488957
9.1100,-0.05184363835,-0.5594476762,-0.8079099909,0.1777975852
9.1150,-0.05183843118,-0.5589029957,-0.8082185176,0.1781096466
9.1200,-0.05180557812,-0.5583759767,-0.8085246635,0.1783825084
9.1250,-0.05175414436,-0.5578661336,-0.8088282,0.1786164284
9.1300,-0.05169005426,-0.5573755376,-0.8091272357,0.1788120935
9.1350,-0.0516211501,-0.5569047251,-0.8094210614,0.1789690738
9.1400,-0.05155274927,-0.5564519475,-0.8097104338,0.1790881277
9.1450,-0.05148866825,-0.556016992,-0.8099946341,0.1791723037
9.1500,-0.05143041218,-0.5555971328,-0.8102754796,0.1792216112
9.1550,-0.05138330687,-0.5551907323,-0.810553659,0.1792366379
9.1600,-0.05134964135,-0.5547963766,-0.8108296122,0.179219237
9.1650,-0.05133408297,-0.5544120888,-0.8111039772,0.1791713867
9.1700,-0.05133975972,-0.554037013,-0.8113764041,0.1790964769
9.1750,-0.05137087862,-0.553668852,-0.8116477573,0.1789965173
9.1800,-0.05143189818,-0.5533085392,-0.8119159991,0.1788765795
9.1850,-0.05152381116,-0.5529527326,-0.8121820888,0.1787423482
9.1900,-0.0516466306,-0.5525979127,-0.8124472354,0.1785991659
9.1950,-0.05179853237,-0.5522415929,-0.8127121967,0.1784517314
9.2000,-0.0519759304,-0.5518848316,-0.8129759829,0.1783022338
9.2050,-0.05217915011,-0.5515249711,-0.813239574,0.1781542528
9.2100,-0.05240520473,-0.5511593789,-0.8135037265,0.1780132594
9.2150,-0.05265239341,-0.5507867168,-0.8137687248,0.1778824911
9.2200,-0.05292306894,-0.5504079065,-0.8140337832,0.1777618772
9.2250,-0.05321999949,-0.5500232319,-0.8142973526,0.1776566844
9.2300,-0.05354619725,-0.5496332197,-0.8145584203,0.1775688839
9.2350,-0.05390531313,-0.5492387234,-0.8148158027,0.1774999987
9.2400,-0.05429723072,-0.5488389211,-0.815069499,0.1774524197
9.2450,-0.05472289734,-0.548435098,-0.8153182008,0.1774276731
9.2500,-0.05518152573,-0.5480261934,-0.815562317,0.1774271619
9.2550,-0.05567507972,-0.5476116971,-0.8158017992,0.1774517936
9.2600,-0.05620595698,-0.5471928945,-0.8160351935,0.1775032102
9.2650,-0.05677619688,-0.5467688273,-0.8162627243,0.1775823132
9.2700,-0.05738299018,-0.5463375362,-0.8164858026,0.1776891194
9.2750,-0.05802608805,-0.5458967754,-0.8167061532,0.177822223
9.2800,-0.05870398165,-0.5454472741,-0.8169232445,0.1779818142
9.2850,-0.05942044322,-0.5449864018,-0.8171384503,0.1781678587
9.2900,-0.06017368314,-0.5445125789,-0.8173529905,0.1783795621
9.2950,-0.06096012449,-0.5440238253,-0.8175676425,0.1786199618
9.3000,-0.06177594592,-0.5435168143,-0.8177848441,0.1788886633
9.3050,-0.06261731071,-0.5429900511,-0.8180062959,0.1791830815
9.3100,-0.06348019627,-0.5424439451,-0.8182318737,0.1795032923
9.3150,-0.06436235751,-0.5418799027,-0.8184610486,0.1798476296
9.3200,-0.06526129857,-0.5412973628,-0.8186947166,0.1802140088
9.3250,-0.06617624344,-0.5406976501,-0.8189321834,0.1806013151
9.3300,-0.06710670631,-0.5400848968,-0.8191711901,0.1810070593
9.3350,-0.06805030553,-0.5394577108,-0.8194130634,0.1814297816
9.3400,-0.06900537372,-0.5388179332,-0.8196562981,0.1818709605
9.3450,-0.06997099413,-0.5381668149,-0.8199003353,0.1823293159
9.3500,-0.07094580344,-0.5375054174,-0.8201448591,0.1828032531
9.3550,-0.07192772389,-0.5368339238,-0.8203904129,0.1832902376
9.3600,-0.07291568791,-0.5361547988,-0.8206360215,0.1837875252
9.3650,-0.07390741785,-0.5354696219,-0.8208810134,0.1842941657
9.3700,-0.07490429804,-0.5347816362,-0.8211231851,0.1848098012
9.3750,-0.0759103417,-0.5340929453,-0.8213611707,0.1853326011
9.3800,-0.0769238164,-0.5334057582,-0.8215942494,0.1858599284
9.3850,-0.07794337011,-0.5327200656,-0.8218225114,0.1863918524
9.3900,-0.07896982065,-0.5320374569,-0.822044824,0.1869283798
9.3950,-0.08000060475,-0.5313601005,-0.8222604492,0.1874675984
9.4000,-0.0810376497,-0.5306896825,-0.8224684229,0.1880081208
9.4050,-0.08207608948,-0.5300275213,-0.8226685952,0.188548998
9.4100,-0.08311336637,-0.5293736411,-0.8228614053,0.1890894607
9.4150,-0.08414713385,-0.5287294371,-0.8230464979,0.1896283326
9.4200,-0.0851758408,-0.5280949024,-0.823223765,0.1901669871
9.4250,-0.08619757091,-0.527471946,-0.8233926065,0.1907038033
9.4300,-0.08721178986,-0.5268596147,-0.8235541363,0.1912371165
9.4350,-0.08821761606,-0.5262583917,-0.8237083801,0.1917661649
9.4400,-0.08921400993,-0.5256695941,-0.8238547048,0.1922908309
9.4450,-0.09020089093,-0.5250924644,-0.8239941759,0.192808976
9.4500,-0.09118009664,-0.5245310927,-0.8241241395,0.1933202669
9.4550,-0.09215176215,-0.5239857221,-0.8242445492,0.1938245054
9.4600,-0.09311619554,-0.523455542,-0.8243564639,0.1943195566
9.4650,-0.09407162862,-0.5229420745,-0.8244592112,0.1948053501
9.4700,-0.09501614995,-0.5224451647,-0.8245532053,0.1952818291
9.4750,-0.09594875718,-0.521963801,-0.8246388593,0.1957508061
9.4800,-0.09686636684,-0.5214968878,-0.8247175674,0.1962112051
9.4850,-0.09777054166,-0.5210455711,-0.8247883126,0.196663859
9.4900,-0.09866194456,-0.5206111048,-0.824850574,0.1971076583
9.4950,-0.09954208704,-0.5201935957,-0.8249036886,0.1975446794
9.5000,-0.1004115519,-0.519791251,-0.8249485428,0.1979759514
9.5050,-0.1012689602,-0.5194032193,-0.8249855493,0.1984029661
9.5100,-0.1021151197,-0.519029122,-0.8250150211,0.1988252694
9.5150,-0.1029524771,-0.5186713532,-0.8250355604,0.1992414085
9.5200,-0.1037800059,-0.518326702,-0.8250486304,0.1996544459
9.5250,-0.1045969799,-0.517995246,-0.8250547415,0.2000626665
9.5300,-0.1054036914,-0.5176757119,-0.8250543053,0.2004677343
9.5350,-0.1061994095,-0.5173676694,-0.8250476231,0.2008701066
9.5400,-0.1069846784,-0.5170720099,-0.8250338938,0.2012706865
9.5450,-0.1077578514,-0.5167864815,-0.8250147162,0.2016697697
9.5500,-0.1085191233,-0.5165101824,-0.8249904209,0.2020683961
9.5550,-0.1092678076,-0.5162424135,-0.8249615919,0.2024665123
9.5600,-0.1100035916,-0.5159810891,-0.8249299099,0.2028629323
