type,name,time_units,begin_time,frequency,count,units
signal,"Noraxon MyoMotion-Segments-Upper arm RT-Roll","s",0.0000,200,5068,"deg"

time,value
0.0000,14.31035711
0.0050,14.30360885
0.0100,14.29685941
0.0150,14.29010878
0.0200,14.28164568
0.0250,14.27128732
0.0300,14.25886169
0.0350,14.24421403
0.0400,14.22721363
0.0450,14.20776021
0.0500,14.18578809
0.0550,14.16126854
0.0600,14.1342113
0.0650,14.10466622
0.0700,14.07272426
0.0750,14.03851798
0.0800,14.00222161
0.0850,13.96405018
0.0900,13.9242571
0.0950,13.88312991
0.1000,13.8409854
0.1050,13.79816447
0.1100,13.75502655
0.1150,13.71194416
0.1200,13.6692969
0.1250,13.62746443
0.1300,13.58681876
0.1350,13.54771663
0.1400,13.5104918
0.1450,13.47544707
0.1500,13.44284641
0.1550,13.4007192
0.1600,13.36190209
0.1650,13.32670295
0.1700,13.29510213
0.1750,13.26724487
0.1800,13.24304659
0.1850,13.22243004
0.1900,13.20534099
0.1950,13.19188106
0.2000,13.18194985
0.2050,13.17551355
0.2100,13.17237505
0.2150,13.17240076
0.2200,13.17554372
0.2250,13.18161772
0.2300,13.19050683
0.2350,13.20204761
0.2400,13.21620592
0.2450,13.23283804
0.2500,13.25179121
0.2550,13.27322279
0.2600,13.29653066
0.2650,13.32173511
0.2700,13.34868959
0.2750,13.37731979
0.2800,13.40732973
0.2850,13.43850391
0.2900,13.47078481
0.2950,13.50371551
0.3000,13.53695374
0.3050,13.57048972
0.3100,13.60393695
0.3150,13.63700132
0.3200,13.6693563
0.3250,13.70081468
0.3300,13.73140106
0.3350,13.76087418
0.3400,13.78892253
0.3450,13.81559448
0.3500,13.84065831
0.3550,13.8643131
0.3600,13.88654835
0.3650,13.90742686
0.3700,13.92697382
0.3750,13.94532398
0.3800,13.96250908
0.3850,13.97863441
0.3900,13.99400878
0.3950,14.00853247
0.4000,14.0226101
0.4050,14.03611933
0.4100,14.04918477
0.4150,14.06184261
0.4200,14.07408176
0.4250,14.08609254
0.4300,14.09775464
0.4350,14.10910805
0.4400,14.11999295
0.4450,14.13051842
0.4500,14.14070101
0.4550,14.15044534
0.4600,14.15967934
0.4650,14.16855802
0.4700,14.17699483
0.4750,14.18508146
0.4800,14.19277455
0.4850,14.20021838
0.4900,14.20737538
0.4950,14.21427952
0.5000,14.22097175
0.5050,14.22747911
0.5100,14.23376626
0.5150,14.24010081
0.5200,14.24615348
0.5250,14.25195473
0.5300,14.25733828
0.5350,14.26241867
0.5400,14.26711444
0.5450,14.27143383
0.5500,14.27516477
0.5550,14.27816288
0.5600,14.2806162
0.5650,14.28252006
0.5700,14.2838833
0.5750,14.28435957
0.5800,14.28393641
0.5850,14.28257873
0.5900,14.28003483
0.5950,14.27627261
0.6000,14.27142394
0.6050,14.26516709
0.6100,14.25743737
0.6150,14.24823205
0.6200,14.23744544
0.6250,14.22505213
0.6300,14.21098216
0.6350,14.19523698
0.6400,14.17781612
0.6450,14.15864424
0.6500,14.13792925
0.6550,14.11558114
0.6600,14.09163982
0.6650,14.06617363
0.6700,14.03937749
0.6750,14.01138448
0.6800,13.98237085
0.6850,13.95231702
0.6900,13.92143992
0.6950,13.88999666
0.7000,13.85811105
0.7050,13.82604187
0.7100,13.79389305
0.7150,13.76181632
0.7200,13.73001457
0.7250,13.69850046
0.7300,13.66756669
0.7350,13.63720492
0.7400,13.60781336
0.7450,13.5791848
0.7500,13.55158546
0.7550,13.52513557
0.7600,13.49989681
0.7650,13.47572312
0.7700,13.45274808
0.7750,13.43094215
0.7800,13.41033149
0.7850,13.39078505
0.7900,13.37230863
0.7950,13.35482827
0.8000,13.33819157
0.8050,13.32231898
0.8100,13.3071075
0.8150,13.29233452
0.8200,13.27818348
0.8250,13.26467256
0.8300,13.25199357
0.8350,13.23998408
0.8400,13.22860862
0.8450,13.21790131
0.8500,13.20786593
0.8550,13.19861937
0.8600,13.19012791
0.8650,13.1823415
0.8700,13.17514731
0.8750,13.16881909
0.8800,13.1634065
0.8850,13.15873449
0.8900,13.15490014
0.8950,13.1520226
0.9000,13.14987573
0.9050,13.14827781
0.9100,13.14732455
0.9150,13.14681457
0.9200,13.14663014
0.9250,13.14647599
0.9300,13.14622768
0.9350,13.14567679
0.9400,13.1447473
0.9450,13.14308236
0.9500,13.14063708
0.9550,13.13751266
0.9600,13.13343043
0.9650,13.12844457
0.9700,13.12249133
0.9750,13.11582124
0.9800,13.1083454
0.9850,13.10047309
0.9900,13.09214586
0.9950,13.08345373
1.0000,13.0745794
1.0050,13.06562787
1.0100,13.05647939
1.0150,13.04745252
1.0200,13.03836012
1.0250,13.02931111
1.0300,13.02012785
1.0350,13.01091473
1.0400,13.00139652
1.0450,12.99172012
1.0500,12.98168483
1.0550,12.971213
1.0600,12.96008846
1.0650,12.94837573
1.0700,12.93576339
1.0750,12.92217571
1.0800,12.90755707
1.0850,12.89179695
1.0900,12.87494007
1.0950,12.8569658
1.1000,12.83803701
1.1050,12.8180764
1.1100,12.79720378
1.1150,12.77542235
1.1200,12.75266134
1.1250,12.72919102
1.1300,12.70488116
1.1350,12.67987899
1.1400,12.6542788
1.1450,12.62806417
1.1500,12.60122456
1.1550,12.57383739
1.1600,12.54581345
1.1650,12.51712892
1.1700,12.48769458
1.1750,12.4575301
1.1800,12.42660585
1.1850,12.39493822
1.1900,12.36258189
1.1950,12.32928606
1.2000,12.29513705
1.2050,12.26016232
1.2100,12.22415168
1.2150,12.1873018
1.2200,12.14963358
1.2250,12.11151407
1.2300,12.07265182
1.2350,12.03333169
1.2400,11.99355768
1.2450,11.9538028
1.2500,11.91398923
1.2550,11.87415493
1.2600,11.8345788
1.2650,11.79517559
1.2700,11.75627995
1.2750,11.71758951
1.2800,11.67907379
1.2850,11.64077407
1.2900,11.60259201
1.2950,11.56470043
1.3000,11.52691973
1.3050,11.48937193
1.3100,11.45220567
1.3150,11.41529173
1.3200,11.37883036
1.3250,11.34278557
1.3300,11.30727475
1.3350,11.27225439
1.3400,11.23779427
1.3450,11.2038218
1.3500,11.17030103
1.3550,11.13710477
1.3600,11.10427895
1.3650,11.0717022
1.3700,11.03941357
1.3750,11.00720362
1.3800,10.9752682
1.3850,10.94346613
1.3900,10.91177056
1.3950,10.88020955
1.4000,10.84874512
1.4050,10.81745406
1.4100,10.78640484
1.4150,10.75578826
1.4200,10.72581341
1.4250,10.69628208
1.4300,10.66734249
1.4350,10.63902333
1.4400,10.6115346
1.4450,10.58483246
1.4500,10.55909923
1.4550,10.53445621
1.4600,10.51080864
1.4650,10.4882512
1.4700,10.4668504
1.4750,10.44662148
1.4800,10.42768797
1.4850,10.40995251
1.4900,10.39340317
1.4950,10.37809583
1.5000,10.36382944
1.5050,10.35063689
1.5100,10.3386078
1.5150,10.32756018
1.5200,10.31756495
1.5250,10.30828195
1.5300,10.29991413
1.5350,10.29253522
1.5400,10.28613804
1.5450,10.28054316
1.5500,10.27562558
1.5550,10.27144729
1.5600,10.26785818
1.5650,10.2649442
1.5700,10.26255687
1.5750,10.26068123
1.5800,10.25956415
1.5850,10.25900825
1.5900,10.25913518
1.5950,10.25971119
1.6000,10.26051129
1.6050,10.26138183
1.6100,10.26232833
1.6150,10.2629272
1.6200,10.26324411
1.6250,10.26321935
1.6300,10.26267165
1.6350,10.26167531
1.6400,10.2601252
1.6450,10.25796412
1.6500,10.25524909
1.6550,10.2522044
1.6600,10.24865329
1.6650,10.2446959
1.6700,10.24049537
1.6750,10.23607973
1.6800,10.23128813
1.6850,10.22622618
1.6900,10.22091355
1.6950,10.2153663
1.7000,10.20969137
1.7050,10.20395746
1.7100,10.1982198
1.7150,10.19251625
1.7200,10.18672837
1.7250,10.1809245
1.7300,10.1750864
1.7350,10.16932988
1.7400,10.16345735
1.7450,10.15745961
1.7500,10.15124577
1.7550,10.14452352
1.7600,10.13761802
1.7650,10.13039876
1.7700,10.12304435
1.7750,10.11531341
1.7800,10.10694826
1.7850,10.09780871
1.7900,10.08791758
1.7950,10.0771396
1.8000,10.06552314
1.8050,10.05301545
1.8100,10.03947564
1.8150,10.02498394
1.8200,10.0095706
1.8250,9.993464145
1.8300,9.976860629
1.8350,9.959576238
1.8400,9.941895901
1.8450,9.923979948
1.8500,9.906248549
1.8550,9.888862035
1.8600,9.872159697
1.8650,9.856551905
1.8700,9.842152409
1.8750,9.829366258
1.8800,9.818104922
1.8850,9.808533688
1.8900,9.800754645
1.8950,9.794903021
1.9000,9.791371636
1.9050,9.790266003
1.9100,9.791364181
1.9150,9.794932073
1.9200,9.800767931
1.9250,9.808690063
1.9300,9.818850836
1.9350,9.831031627
1.9400,9.84519474
1.9450,9.861287445
1.9500,9.878976421
1.9550,9.897846086
1.9600,9.918064081
1.9650,9.939345283
1.9700,9.961732875
1.9750,9.985302849
1.9800,10.0100508
1.9850,10.03623477
1.9900,10.06380299
1.9950,10.0928154
2.0000,10.12299937
2.0050,10.15449497
2.0100,10.1871049
2.0150,10.22072944
2.0200,10.25533063
2.0250,10.29081787
2.0300,10.32699806
2.0350,10.36375171
2.0400,10.4012056
2.0450,10.43936128
2.0500,10.47855286
2.0550,10.51881165
2.0600,10.55997548
2.0650,10.6022231
2.0700,10.645357
2.0750,10.68944247
2.0800,10.73457127
2.0850,10.78080383
2.0900,10.82798056
2.0950,10.87600937
2.1000,10.92488031
2.1050,10.97451726
2.1100,11.02515739
2.1150,11.07679301
2.1200,11.12944188
2.1250,11.18336364
2.1300,11.23872947
2.1350,11.29592973
2.1400,11.35486168
2.1450,11.41566777
2.1500,11.47820061
2.1550,11.54246094
2.1600,11.60850791
2.1650,11.67614156
2.1700,11.74526338
2.1750,11.81586669
2.1800,11.88805002
2.1850,11.96172777
2.1900,12.03701917
2.1950,12.11378829
2.2000,12.19171953
2.2050,12.27076293
2.2100,12.35101924
2.2150,12.43226259
2.2200,12.51444181
2.2250,12.59760442
2.2300,12.68149606
2.2350,12.76620594
2.2400,12.85157834
2.2450,12.93785359
2.2500,13.02506034
2.2550,13.11350039
2.2600,13.20339168
2.2650,13.29487094
2.2700,13.38799439
2.2750,13.48252466
2.2800,13.57831492
2.2850,13.67502464
2.2900,13.77235563
2.2950,13.87022436
2.3000,13.96883961
2.3050,14.06791728
2.3100,14.16760477
2.3150,14.26784606
2.3200,14.36864466
2.3250,14.4698781
2.3300,14.57161027
2.3350,14.67415128
2.3400,14.77776352
2.3450,14.8829478
2.3500,14.98972679
2.3550,15.09831932
2.3600,15.2088678
2.3650,15.3214145
2.3700,15.43587779
2.3750,15.55261991
2.3800,15.67137232
2.3850,15.79220962
2.3900,15.91518479
2.3950,16.04039515
2.4000,16.16782912
2.4050,16.29732452
2.4100,16.42840348
2.4150,16.56082662
2.4200,16.69415176
2.4250,16.82824763
2.4300,16.96255376
2.4350,17.09667267
2.4400,17.23044754
2.4450,17.36374446
2.4500,17.49646793
2.4550,17.62827039
2.4600,17.75909858
2.4650,17.88869747
2.4700,18.017247
2.4750,18.14467531
2.4800,18.27080994
2.4850,18.39584996
2.4900,18.51971667
2.4950,18.6426349
2.5000,18.76459554
2.5050,18.88585409
2.5100,19.00633599
2.5150,19.12611599
2.5200,19.24519935
2.5250,19.36330232
2.5300,19.48038952
2.5350,19.59628586
2.5400,19.71087998
2.5450,19.82409203
2.5500,19.93601853
2.5550,20.04686613
2.5600,20.15652359
2.5650,20.26499746
2.5700,20.37222472
2.5750,20.47871061
2.5800,20.58460562
2.5850,20.69001367
2.5900,20.79517571
2.5950,20.90007948
2.6000,21.00467171
2.6050,21.1088846
2.6100,21.2127172
2.6150,21.31633967
2.6200,21.41991349
2.6250,21.52365401
2.6300,21.6279449
2.6350,21.73274272
2.6400,21.8377203
2.6450,21.94255561
2.6500,22.04713257
2.6550,22.151152
2.6600,22.25449973
2.6650,22.35702043
2.6700,22.45884101
2.6750,22.55973091
2.6800,22.66008608
2.6850,22.76012587
2.6900,22.85961402
2.6950,22.95889224
2.7000,23.05786321
2.7050,23.15666494
2.7100,23.25552772
2.7150,23.3545657
2.7200,23.4541853
2.7250,23.55413727
2.7300,23.65456315
2.7350,23.75554487
2.7400,23.85726136
2.7450,23.95958099
2.7500,24.06254914
2.7550,24.16622508
2.7600,24.27037935
2.7650,24.3755263
2.7700,24.48149187
2.7750,24.58828963
2.7800,24.69605758
2.7850,24.80474238
2.7900,24.91428384
2.7950,25.0245908
2.8000,25.1358308
2.8050,25.24759559
2.8100,25.35981695
2.8150,25.47260463
2.8200,25.58560805
2.8250,25.69892492
2.8300,25.81254175
2.8350,25.92625161
2.8400,26.04025843
2.8450,26.15448005
2.8500,26.26907568
2.8550,26.38390236
2.8600,26.49877145
2.8650,26.61388465
2.8700,26.72922048
2.8750,26.84447492
2.8800,26.95961293
2.8850,27.07463591
2.8900,27.18955867
2.8950,27.30444259
2.9000,27.41923133
2.9050,27.53407816
2.9100,27.64898146
2.9150,27.76380733
2.9200,27.87856473
2.9250,27.99337165
2.9300,28.10792029
2.9350,28.22208217
2.9400,28.33574513
2.9450,28.44884265
2.9500,28.56106731
2.9550,28.67246977
2.9600,28.78300892
2.9650,28.89265257
2.9700,29.00143618
2.9750,29.1092826
2.9800,29.21607327
2.9850,29.32147937
2.9900,29.42584041
2.9950,29.52897716
3.0000,29.63095919
3.0050,29.73210811
3.0100,29.83232505
3.0150,29.9316097
3.0200,30.02990895
3.0250,30.12717876
3.0300,30.22338119
3.0350,30.31868291
3.0400,30.41267829
3.0450,30.50546243
3.0500,30.59701346
3.0550,30.68753323
3.0600,30.77715504
3.0650,30.86554586
3.0700,30.95291626
3.0750,31.03921172
3.0800,31.12445154
3.0850,31.20842193
3.0900,31.29111293
3.0950,31.3722593
3.1000,31.45170386
3.1050,31.52932506
3.1100,31.60541958
3.1150,31.67962365
3.1200,31.75229499
3.1250,31.82339489
3.1300,31.89308404
3.1350,31.96163021
3.1400,32.02890145
3.1450,32.09496414
3.1500,32.15964866
3.1550,32.22283982
3.1600,32.28473549
3.1650,32.345021
3.1700,32.40369121
3.1750,32.46070957
3.1800,32.51611532
3.1850,32.57025151
3.1900,32.62297411
3.1950,32.67402019
3.2000,32.72338171
3.2050,32.77115687
3.2100,32.81731467
3.2150,32.8621454
3.2200,32.90571213
3.2250,32.9479121
3.2300,32.98891031
3.2350,33.02865944
3.2400,33.06737869
3.2450,33.10523901
3.2500,33.14242412
3.2550,33.17898611
3.2600,33.21495857
3.2650,33.25048101
3.2700,33.28537781
3.2750,33.31970601
3.2800,33.35363054
3.2850,33.38721174
3.2900,33.42032874
3.2950,33.45313161
3.3000,33.48566702
3.3050,33.51774582
3.3100,33.54952947
3.3150,33.58110038
3.3200,33.61244176
3.3250,33.64368047
3.3300,33.67471945
3.3350,33.70561527
3.3400,33.7367869
3.3450,33.76841779
3.3500,33.80043045
3.3550,33.83300257
3.3600,33.86614151
3.3650,33.9001646
3.3700,33.93507225
3.3750,33.97095006
3.3800,34.00798892
3.3850,34.04622591
3.3900,34.0856035
3.3950,34.12652556
3.4000,34.16892374
3.4050,34.21275154
3.4100,34.25800215
3.4150,34.30454782
3.4200,34.35243623
3.4250,34.40175446
3.4300,34.45266404
3.4350,34.50518822
3.4400,34.55982146
3.4450,34.61658166
3.4500,34.67561356
3.4550,34.7372107
3.4600,34.80164136
3.4650,34.86909735
3.4700,34.93980224
3.4750,35.0141717
3.4800,35.0922454
3.4850,35.17398231
3.4900,35.25964068
3.4950,35.34940042
3.5000,35.44346759
3.5050,35.54164091
3.5100,35.64406776
3.5150,35.7503454
3.5200,35.86020876
3.5250,35.97352786
3.5300,36.09010201
3.5350,36.20977376
3.5400,36.33221223
3.5450,36.4568235
3.5500,36.58325482
3.5550,36.71101681
3.5600,36.83959297
3.5650,36.96845424
3.5700,37.09752955
3.5750,37.22646671
3.5800,37.3550429
3.5850,37.48320142
3.5900,37.6108195
3.5950,37.73767791
3.6000,37.86379615
3.6050,37.98906538
3.6100,38.11343515
3.6150,38.23686365
3.6200,38.35932761
3.6250,38.48067141
3.6300,38.60123367
3.6350,38.72054275
3.6400,38.83855437
3.6450,38.95494089
3.6500,39.06997449
3.6550,39.18352177
3.6600,39.29561277
3.6650,39.40579989
3.6700,39.51405169
3.6750,39.62016315
3.6800,39.72402343
3.6850,39.82547405
3.6900,39.92434922
3.6950,40.02057824
3.7000,40.11411072
3.7050,40.2051319
3.7100,40.29337297
3.7150,40.37946461
3.7200,40.46328166
3.7250,40.54503783
3.7300,40.62456606
3.7350,40.7020637
3.7400,40.77730066
3.7450,40.85054551
3.7500,40.92183926
3.7550,40.99105463
3.7600,41.05823052
3.7650,41.12337852
3.7700,41.18642481
3.7750,41.24718459
3.7800,41.30583251
3.7850,41.36214903
3.7900,41.41610902
3.7950,41.46777498
3.8000,41.51702371
3.8050,41.56374883
3.8100,41.60785705
3.8150,41.64912055
3.8200,41.68785363
3.8250,41.7238818
3.8300,41.75698889
3.8350,41.78719957
3.8400,41.81433216
3.8450,41.83837386
3.8500,41.85942004
3.8550,41.87757629
3.8600,41.89292091
3.8650,41.90568664
3.8700,41.91576106
3.8750,41.92314944
3.8800,41.92773939
3.8850,41.92951417
3.8900,41.92842917
3.8950,41.92461676
3.9000,41.91771978
3.9050,41.90787129
3.9100,41.89515635
3.9150,41.87973451
3.9200,41.86151958
3.9250,41.84070883
3.9300,41.81703585
3.9350,41.79100371
3.9400,41.76276819
3.9450,41.73263095
3.9500,41.70044141
3.9550,41.66631724
3.9600,41.63066606
3.9650,41.59369362
3.9700,41.5553229
3.9750,41.5159155
3.9800,41.4753736
3.9850,41.43410112
3.9900,41.39216723
3.9950,41.34961473
4.0000,41.30664119
4.0050,41.26319921
4.0100,41.2194805
4.0150,41.1755104
4.0200,41.13127399
4.0250,41.08683309
4.0300,41.04241252
4.0350,40.99796751
4.0400,40.95363048
4.0450,40.90926928
4.0500,40.86493697
4.0550,40.82068472
4.0600,40.77645952
4.0650,40.7324033
4.0700,40.68850517
4.0750,40.64482567
4.0800,40.60122427
4.0850,40.55792406
4.0900,40.51492776
4.0950,40.47221435
4.1000,40.42981486
4.1050,40.38781992
4.1100,40.34620022
4.1150,40.30520614
4.1200,40.26461132
4.1250,40.22451289
4.1300,40.18504743
4.1350,40.14609871
4.1400,40.10769974
4.1450,40.07007806
4.1500,40.03299137
4.1550,39.99663695
4.1600,39.96117306
4.1650,39.92636057
4.1700,39.89233813
4.1750,39.8592492
4.1800,39.82701161
4.1850,39.79566972
4.1900,39.76516949
4.1950,39.73546651
4.2000,39.70659883
4.2050,39.6785138
4.2100,39.65123032
4.2150,39.62451381
4.2200,39.59835159
4.2250,39.57271055
4.2300,39.54773809
4.2350,39.52338535
4.2400,39.49952594
4.2450,39.47613837
4.2500,39.45323721
4.2550,39.43076374
4.2600,39.40812254
4.2650,39.38563322
4.2700,39.3634192
4.2750,39.34130726
4.2800,39.31928569
4.2850,39.29716315
4.2900,39.2748531
4.2950,39.25195034
4.3000,39.22841661
4.3050,39.20406945
4.3100,39.17874628
4.3150,39.15214308
4.3200,39.12414469
4.3250,39.09456993
4.3300,39.06316311
4.3350,39.02981724
4.3400,38.99429016
4.3450,38.9562261
4.3500,38.91560583
4.3550,38.87236431
4.3600,38.8263618
4.3650,38.77745572
4.3700,38.7256503
4.3750,38.67072457
4.3800,38.61260863
4.3850,38.55140735
4.3900,38.48690936
4.3950,38.41921547
4.4000,38.3481627
4.4050,38.27396398
4.4100,38.19660754
4.4150,38.11575892
4.4200,38.03152743
4.4250,37.94391095
4.4300,37.85292622
4.4350,37.75850657
4.4400,37.66084378
4.4450,37.55974665
4.4500,37.45546942
4.4550,37.34806154
4.4600,37.2374339
4.4650,37.12380144
4.4700,37.00696601
4.4750,36.88697539
4.4800,36.76382627
4.4850,36.63765108
4.4900,36.50879335
4.4950,36.3772032
4.5000,36.24338207
4.5050,36.1074505
4.5100,35.96944328
4.5150,35.82962493
4.5200,35.6884066
4.5250,35.54612126
4.5300,35.4028463
4.5350,35.25887429
4.5400,35.11419945
4.5450,34.96925367
4.5500,34.82409627
4.5550,34.67894669
4.5600,34.5341715
4.5650,34.38941549
4.5700,34.24471333
4.5750,34.10029224
4.5800,33.95610721
4.5850,33.8121158
4.5900,33.66828985
4.5950,33.52483212
4.6000,33.38152277
4.6050,33.23861576
4.6100,33.09596937
4.6150,32.95354487
4.6200,32.81131678
4.6250,32.669238
4.6300,32.5273821
4.6350,32.38567724
4.6400,32.24425987
4.6450,32.10307837
4.6500,31.9621756
4.6550,31.82160401
4.6600,31.68141504
4.6650,31.54147628
4.6700,31.40181247
4.6750,31.26242077
4.6800,31.12347618
4.6850,30.98434456
4.6900,30.8450875
4.6950,30.70570756
4.7000,30.56619436
4.7050,30.42612953
4.7100,30.28550455
4.7150,30.1443775
4.7200,30.00262171
4.7250,29.8601619
4.7300,29.71708789
4.7350,29.57336761
4.7400,29.42910775
4.7450,29.28428459
4.7500,29.1388255
4.7550,28.99259144
4.7600,28.84587858
4.7650,28.69893944
4.7700,28.55204028
4.7750,28.4052103
4.7800,28.25881665
4.7850,28.11292799
4.7900,27.96745812
4.7950,27.82276925
4.8000,27.678789
4.8050,27.53577819
4.8100,27.39383603
4.8150,27.2532274
4.8200,27.1140024
4.8250,26.97609594
4.8300,26.83986414
4.8350,26.70496744
4.8400,26.57190255
4.8450,26.44050159
4.8500,26.31077649
4.8550,26.18266088
4.8600,26.05597105
4.8650,25.93103723
4.8700,25.80763235
4.8750,25.68558124
4.8800,25.56476659
4.8850,25.44509907
4.8900,25.32648002
4.8950,25.20861389
4.9000,25.09145941
4.9050,24.97456714
4.9100,24.8581692
4.9150,24.74203975
4.9200,24.62606279
4.9250,24.51015891
4.9300,24.39428361
4.9350,24.2785866
4.9400,24.16295945
4.9450,24.04757153
4.9500,23.93254147
4.9550,23.81768862
4.9600,23.70288274
4.9650,23.58848229
4.9700,23.47430933
4.9750,23.36034767
4.9800,23.24644061
4.9850,23.13274184
4.9900,23.0193016
4.9950,22.90598408
5.0000,22.79277914
5.0050,22.67975709
5.0100,22.5669742
5.0150,22.45458949
5.0200,22.34234001
5.0250,22.23015447
5.0300,22.11782122
5.0350,22.00521122
5.0400,21.89218109
5.0450,21.77880164
5.0500,21.66529179
5.0550,21.55163835
5.0600,21.43774021
5.0650,21.32347653
5.0700,21.20884801
5.0750,21.0939215
5.0800,20.97865201
5.0850,20.86336673
5.0900,20.74808563
5.0950,20.63276809
5.1000,20.51725929
5.1050,20.40160541
5.1100,20.28574449
5.1150,20.16975233
5.1200,20.05357075
5.1250,19.93718806
5.1300,19.82044556
5.1350,19.70354237
5.1400,19.58645883
5.1450,19.46906949
5.1500,19.35166106
5.1550,19.23442895
5.1600,19.11738841
5.1650,19.00067577
5.1700,18.88407234
5.1750,18.76751984
5.1800,18.65103259
5.1850,18.53445095
5.1900,18.41779974
5.1950,18.30088138
5.2000,18.183752
5.2050,18.06627454
5.2100,17.94798912
5.2150,17.82904169
5.2200,17.70955979
5.2250,17.58963375
5.2300,17.46933701
5.2350,17.34844269
5.2400,17.2269401
5.2450,17.10483133
5.2500,16.98224519
5.2550,16.85925486
5.2600,16.73598456
5.2650,16.61223159
5.2700,16.48820643
5.2750,16.36411302
5.2800,16.24022658
5.2850,16.11692471
5.2900,15.99446107
5.2950,15.87313291
5.3000,15.75320833
5.3050,15.63506219
5.3100,15.51881362
5.3150,15.40443051
5.3200,15.29210152
5.3250,15.18186385
5.3300,15.07382945
5.3350,14.96808018
5.3400,14.86453531
5.3450,14.76328843
5.3500,14.66423964
5.3550,14.56783127
5.3600,14.47413839
5.3650,14.38332584
5.3700,14.29554704
5.3750,14.21103548
5.3800,14.12994879
5.3850,14.05222942
5.3900,13.97815855
5.3950,13.90769989
5.4000,13.84126086
5.4050,13.77877018
5.4100,13.72065945
5.4150,13.66682151
5.4200,13.61726447
5.4250,13.57191522
5.4300,13.53068321
5.4350,13.49331653
5.4400,13.45947671
5.4450,13.42892286
5.4500,13.40118911
5.4550,13.37573618
5.4600,13.35243979
5.4650,13.33073563
5.4700,13.31020067
5.4750,13.29036229
5.4800,13.27082425
5.4850,13.25138455
5.4900,13.23177069
5.4950,13.21206445
5.5000,13.1921412
5.5050,13.17218595
5.5100,13.15241069
5.5150,13.13276545
5.5200,13.11366799
5.5250,13.0951568
5.5300,13.07723115
5.5350,13.0601122
5.5400,13.04393012
5.5450,13.02885677
5.5500,13.01438651
5.5550,13.00079713
5.5600,12.9882329
5.5650,12.97681619
5.5700,12.96654455
5.5750,12.95751858
5.5800,12.94958367
5.5850,12.94270386
5.5900,12.93688079
5.5950,12.93192878
5.6000,12.92762702
5.6050,12.92393922
5.6100,12.92066808
5.6150,12.91769376
5.6200,12.91492744
5.6250,12.91258206
5.6300,12.91060806
5.6350,12.909187
5.6400,12.90843074
5.6450,12.9083883
5.6500,12.90894985
5.6550,12.91014001
5.6600,12.91209206
5.6650,12.91493601
5.6700,12.91852228
5.6750,12.92284082
5.6800,12.92783817
5.6850,12.93352059
5.6900,12.93973701
5.6950,12.94637952
5.7000,12.95342083
5.7050,12.96088054
5.7100,12.96860147
5.7150,12.97654282
5.7200,12.98479486
5.7250,12.99335614
5.7300,13.00234984
5.7350,13.01175646
5.7400,13.02128756
5.7450,13.03103108
5.7500,13.0408578
5.7550,13.05073049
5.7600,13.06015816
5.7650,13.0688619
5.7700,13.07695376
5.7750,13.08414742
5.7800,13.09036798
5.7850,13.09532427
5.7900,13.09920479
5.7950,13.10169677
5.8000,13.10275513
5.8050,13.1022283
5.8100,13.10016158
5.8150,13.09640633
5.8200,13.09065452
5.8250,13.08296697
5.8300,13.07337275
5.8350,13.06194447
5.8400,13.04875069
5.8450,13.03394139
5.8500,13.01802673
5.8550,13.00093435
5.8600,12.98273599
5.8650,12.96356529
5.8700,12.94362916
5.8750,12.92295637
5.8800,12.90182065
5.8850,12.88020717
5.8900,12.85823935
5.8950,12.83605199
5.9000,12.81376062
5.9050,12.79131853
5.9100,12.76884104
5.9150,12.74659487
5.9200,12.72467433
5.9250,12.70312965
5.9300,12.68212907
5.9350,12.66166702
5.9400,12.64191957
5.9450,12.62313824
5.9500,12.6055211
5.9550,12.58896122
5.9600,12.57342416
5.9650,12.55900844
5.9700,12.54608333
5.9750,12.53464182
5.9800,12.52484113
5.9850,12.51657089
5.9900,12.50989449
5.9950,12.50501956
6.0000,12.50192302
6.0050,12.50048785
6.0100,12.50057278
6.0150,12.50214174
6.0200,12.50522141
6.0250,12.50970502
6.0300,12.51551841
6.0350,12.52264047
6.0400,12.53090714
6.0450,12.54009824
6.0500,12.5503045
6.0550,12.56113283
6.0600,12.57277927
6.0650,12.58494164
6.0700,12.59773385
6.0750,12.61112552
6.0800,12.62526249
6.0850,12.640224
6.0900,12.65575774
6.0950,12.67202103
6.1000,12.6887849
6.1050,12.70603345
6.1100,12.72360491
6.1150,12.7415598
6.1200,12.75989645
6.1250,12.77846665
6.1300,12.79696316
6.1350,12.81530482
6.1400,12.83361965
6.1450,12.85167248
6.1500,12.86926521
6.1550,12.886409
6.1600,12.90303962
6.1650,12.91892737
6.1700,12.9340301
6.1750,12.94841944
6.1800,12.96202371
6.1850,12.97477891
6.1900,12.98662639
6.1950,12.99744715
6.2000,13.00740473
6.2050,13.01645959
6.2100,13.02466854
6.2150,13.03202933
6.2200,13.038603
6.2250,13.04433782
6.2300,13.04926877
6.2350,13.05352883
6.2400,13.05703113
6.2450,13.05996345
6.2500,13.06233968
6.2550,13.06426698
6.2600,13.06597914
6.2650,13.06725515
6.2700,13.06799594
6.2750,13.06813645
6.2800,13.06756681
6.2850,13.06634597
6.2900,13.06435823
6.2950,13.06149774
6.3000,13.05751102
6.3050,13.05260326
6.3100,13.0469539
6.3150,13.04041754
6.3200,13.03286355
6.3250,13.02461713
6.3300,13.01554825
6.3350,13.00584828
6.3400,12.99566209
6.3450,12.98504717
6.3500,12.97393355
6.3550,12.96242737
6.3600,12.95062838
6.3650,12.93870044
6.3700,12.92663403
6.3750,12.91459349
6.3800,12.90253244
6.3850,12.89053985
6.3900,12.87875649
6.3950,12.86728139
6.4000,12.85622496
6.4050,12.84586254
6.4100,12.83633397
6.4150,12.82791887
6.4200,12.82048691
6.4250,12.81423027
6.4300,12.80936733
6.4350,12.80604572
6.4400,12.8041706
6.4450,12.80394422
6.4500,12.80541232
6.4550,12.8086292
6.4600,12.81358985
6.4650,12.82053418
6.4700,12.82942663
6.4750,12.84012127
6.4800,12.85275949
6.4850,12.86726299
6.4900,12.88358506
6.4950,12.9016289
6.5000,12.9213303
6.5050,12.94264901
6.5100,12.96533479
6.5150,12.98930633
6.5200,13.01454053
6.5250,13.0407561
6.5300,13.06778826
6.5350,13.09550939
6.5400,13.12374812
6.5450,13.1521599
6.5500,13.18064628
6.5550,13.2088868
6.5600,13.23659857
6.5650,13.26380361
6.5700,13.29048063
6.5750,13.31645588
6.5800,13.3415684
6.5850,13.36572682
6.5900,13.38905986
6.5950,13.41156568
6.6000,13.43345762
6.6050,13.45446415
6.6100,13.4743547
6.6150,13.49349171
6.6200,13.51187695
6.6250,13.52934158
6.6300,13.54600897
6.6350,13.56191776
6.6400,13.57710378
6.6450,13.59154794
6.6500,13.60532577
6.6550,13.61853657
6.6600,13.63127385
6.6650,13.64357075
6.6700,13.65553436
6.6750,13.66714022
6.6800,13.67837902
6.6850,13.68916279
6.6900,13.69979996
6.6950,13.71008677
6.7000,13.72015221
6.7050,13.72972261
6.7100,13.73870817
6.7150,13.7469817
6.7200,13.75454803
6.7250,13.76119754
6.7300,13.76701196
6.7350,13.77176589
6.7400,13.77549327
6.7450,13.77806793
6.7500,13.77954562
6.7550,13.7800734
6.7600,13.77965919
6.7650,13.77842179
6.7700,13.77629972
6.7750,13.77340101
6.7800,13.76955535
6.7850,13.76499064
6.7900,13.75970582
6.7950,13.75373895
6.8000,13.74708309
6.8050,13.7397836
6.8100,13.73187204
6.8150,13.72336141
6.8200,13.71424812
6.8250,13.70467025
6.8300,13.69441795
6.8350,13.6834964
6.8400,13.67191155
6.8450,13.65956382
6.8500,13.6464661
6.8550,13.63255724
6.8600,13.61790284
6.8650,13.60216567
6.8700,13.58540581
6.8750,13.56751274
6.8800,13.54858864
6.8850,13.52856221
6.8900,13.50740435
6.8950,13.4851148
6.9000,13.46158983
6.9050,13.4373237
6.9100,13.4124197
6.9150,13.38690699
6.9200,13.36092011
6.9250,13.33449605
6.9300,13.30781529
6.9350,13.28073542
6.9400,13.25361024
6.9450,13.22656939
6.9500,13.19969241
6.9550,13.17319375
6.9600,13.14706876
6.9650,13.12162955
6.9700,13.09695579
6.9750,13.07325584
6.9800,13.05075509
6.9850,13.02963897
6.9900,13.00968223
6.9950,12.9912297
7.0000,12.97435284
7.0050,12.95924577
7.0100,12.94598034
7.0150,12.93466532
7.0200,12.92535091
7.0250,12.91804071
7.0300,12.91260816
7.0350,12.90913001
7.0400,12.90750843
7.0450,12.90781261
7.0500,12.90991522
7.0550,12.91360403
7.0600,12.91890902
7.0650,12.92565965
7.0700,12.93377743
7.0750,12.94317916
7.0800,12.95395283
7.0850,12.9657945
7.0900,12.9787781
7.0950,12.99293581
7.1000,13.00830831
7.1050,13.02473894
7.1100,13.04206773
7.1150,13.06039926
7.1200,13.07935782
7.1250,13.09877657
7.1300,13.11859637
7.1350,13.13857018
7.1400,13.15846281
7.1450,13.17832901
7.1500,13.1978848
7.1550,13.21722337
7.1600,13.23623006
7.1650,13.25499535
7.1700,13.27320274
7.1750,13.29095568
7.1800,13.30801604
7.1850,13.32434509
7.1900,13.33996056
7.1950,13.35478846
7.2000,13.36883899
7.2050,13.3818268
7.2100,13.39395325
7.2150,13.40500617
7.2200,13.41511322
7.2250,13.42443809
7.2300,13.43314848
7.2350,13.44142588
7.2400,13.44940996
7.2450,13.45745638
7.2500,13.46565573
7.2550,13.47431943
7.2600,13.48351305
7.2650,13.49360576
7.2700,13.50454394
7.2750,13.51661524
7.2800,13.52987885
7.2850,13.5443741
7.2900,13.56027701
7.2950,13.57741817
7.3000,13.5956483
7.3050,13.61489028
7.3100,13.63484096
7.3150,13.65524373
7.3200,13.67576415
7.3250,13.69613807
7.3300,13.7161153
7.3350,13.73521062
7.3400,13.7530298
7.3450,13.76912134
7.3500,13.78322715
7.3550,13.79497744
7.3600,13.8040654
7.3650,13.81009631
7.3700,13.81307543
7.3750,13.81293214
7.3800,13.80950605
7.3850,13.8029662
7.3900,13.79336446
7.3950,13.78092389
7.4000,13.76564276
7.4050,13.74803789
7.4100,13.72861096
7.4150,13.7074797
7.4200,13.68528792
7.4250,13.66241029
7.4300,13.63941123
7.4350,13.61649853
7.4400,13.59418815
7.4450,13.57236708
7.4500,13.55141628
7.4550,13.53130495
7.4600,13.51205914
7.4650,13.49362331
7.4700,13.47627506
7.4750,13.45980184
7.4800,13.4443608
7.4850,13.42983751
7.4900,13.41589923
7.4950,13.40261669
7.5000,13.38979919
7.5050,13.37747104
7.5100,13.36537136
7.5150,13.35352252
7.5200,13.34174388
7.5250,13.33004316
7.5300,13.31841687
7.5350,13.30681395
7.5400,13.29535429
7.5450,13.28384295
7.5500,13.27235057
7.5550,13.26082171
7.5600,13.24941999
7.5650,13.23800826
7.5700,13.2266244
7.5750,13.2152675
7.5800,13.20384179
7.5850,13.19225178
7.5900,13.1802722
7.5950,13.167555
7.6000,13.15388646
7.6050,13.13894776
7.6100,13.12272088
7.6150,13.10488337
7.6200,13.0851243
7.6250,13.06327691
7.6300,13.0389381
7.6350,13.01212946
7.6400,12.9823797
7.6450,12.94966005
7.6500,12.91383014
7.6550,12.87475252
7.6600,12.83234235
7.6650,12.78665169
7.6700,12.73768595
7.6750,12.68549552
7.6800,12.63007185
7.6850,12.5717911
7.6900,12.51081538
7.6950,12.44724799
7.7000,12.38153377
7.7050,12.31378649
7.7100,12.24432316
7.7150,12.17352608
7.7200,12.10163606
7.7250,12.02910081
7.7300,11.95595794
7.7350,11.88274319
7.7400,11.80964637
7.7450,11.73695989
7.7500,11.66492866
7.7550,11.59355361
7.7600,11.52320956
7.7650,11.45412151
7.7700,11.38619476
7.7750,11.31932401
7.7800,11.25364449
7.7850,11.18934486
7.7900,11.12650872
7.7950,11.06507061
7.8000,11.00527379
7.8050,10.94706589
7.8100,10.89064109
7.8150,10.83630468
7.8200,10.7842235
7.8250,10.73462492
7.8300,10.68754638
7.8350,10.64319529
7.8400,10.60176956
7.8450,10.5634015
7.8500,10.52839373
7.8550,10.49668994
7.8600,10.46835722
7.8650,10.44344771
7.8700,10.42207809
7.8750,10.4039954
7.8800,10.38905518
7.8850,10.37740726
7.8900,10.36870106
7.8950,10.36304057
7.9000,10.36006536
7.9050,10.35977054
7.9100,10.36177253
7.9150,10.36579231
7.9200,10.37170084
7.9250,10.37912951
7.9300,10.3878143
7.9350,10.39755356
7.9400,10.4081938
7.9450,10.41938434
7.9500,10.43090562
7.9550,10.44261311
7.9600,10.45436798
7.9650,10.46618736
7.9700,10.47789175
7.9750,10.48945035
7.9800,10.50085351
7.9850,10.51199845
7.9900,10.52268396
7.9950,10.53284261
8.0000,10.54263112
8.0050,10.55194497
8.0100,10.56063364
8.0150,10.56845355
8.0200,10.57544565
8.0250,10.581321
8.0300,10.58638201
8.0350,10.59029081
8.0400,10.59312848
8.0450,10.59488063
8.0500,10.59547306
8.0550,10.59525202
8.0600,10.59397229
8.0650,10.59169148
8.0700,10.58841363
8.0750,10.58454546
8.0800,10.58017514
8.0850,10.57525562
8.0900,10.57010837
8.0950,10.56472793
8.1000,10.55916893
8.1050,10.55339725
8.1100,10.54739177
8.1150,10.54109071
8.1200,10.53469488
8.1250,10.52816061
8.1300,10.52133153
8.1350,10.51434933
8.1400,10.50708315
8.1450,10.49968681
8.1500,10.49198047
8.1550,10.48420397
8.1600,10.47619722
8.1650,10.46795136
8.1700,10.45955209
8.1750,10.45109993
8.1800,10.44269113
8.1850,10.43425535
8.1900,10.42605328
8.1950,10.41800521
8.2000,10.41030543
8.2050,10.40277856
8.2100,10.39535526
8.2150,10.38819545
8.2200,10.38112605
8.2250,10.37429012
8.2300,10.36772144
8.2350,10.36122628
8.2400,10.35470834
8.2450,10.3482052
8.2500,10.34170514
8.2550,10.33524487
8.2600,10.32859831
8.2650,10.32170033
8.2700,10.31457819
8.2750,10.30703173
8.2800,10.29918417
8.2850,10.29105113
8.2900,10.28276196
8.2950,10.27443557
8.3000,10.2658348
8.3050,10.25700502
8.3100,10.24815117
8.3150,10.23938863
8.3200,10.23056049
8.3250,10.22170261
8.3300,10.21291393
8.3350,10.20428234
8.3400,10.1959184
8.3450,10.18789677
8.3500,10.18029686
8.3550,10.1728723
8.3600,10.16587024
8.3650,10.15931542
8.3700,10.15319338
8.3750,10.14743572
8.3800,10.14193492
8.3850,10.13671006
8.3900,10.13176651
8.3950,10.12707404
8.4000,10.12276028
8.4050,10.11894755
8.4100,10.11581769
8.4150,10.11335101
8.4200,10.11138352
8.4250,10.11014893
8.4300,10.10990566
8.4350,10.11084247
8.4400,10.11285103
8.4450,10.11613517
8.4500,10.12093405
8.4550,10.12710574
8.4600,10.13496002
8.4650,10.14426874
8.4700,10.15502349
8.4750,10.16708091
8.4800,10.18042243
8.4850,10.19492134
8.4900,10.21054031
8.4950,10.22718569
8.5000,10.24481538
8.5050,10.26364425
8.5100,10.28396738
8.5150,10.30590544
8.5200,10.32991285
8.5250,10.35589687
8.5300,10.38406472
8.5350,10.41420316
8.5400,10.4463392
8.5450,10.48017737
8.5500,10.51520303
8.5550,10.55106046
8.5600,10.58758009
8.5650,10.62468539
8.5700,10.66210227
8.5750,10.70001124
8.5800,10.73849853
8.5850,10.77748063
8.5900,10.81667742
8.5950,10.85593595
8.6000,10.89491769
8.6050,10.9333974
8.6100,10.97085012
8.6150,11.00722384
8.6200,11.04233115
8.6250,11.07624474
8.6300,11.10856811
8.6350,11.1395084
8.6400,11.16887687
8.6450,11.19658337
8.6500,11.22270376
8.6550,11.24739035
8.6600,11.27027382
8.6650,11.29122602
8.6700,11.31025447
8.6750,11.32750001
8.6800,11.34296558
8.6850,11.35684119
8.6900,11.3692327
8.6950,11.38055792
8.7000,11.39124486
8.7050,11.40180083
8.7100,11.41280828
8.7150,11.42463821
8.7200,11.43776913
8.7250,11.45227122
8.7300,11.46835674
8.7350,11.48596515
8.7400,11.50522874
8.7450,11.5260517
8.7500,11.54839251
8.7550,11.57276215
8.7600,11.59927155
8.7650,11.62825629
8.7700,11.65975564
8.7750,11.6938134
8.7800,11.7304531
8.7850,11.76978567
8.7900,11.81194141
8.7950,11.85732908
8.8000,11.90623145
8.8050,11.95874815
8.8100,12.01473238
8.8150,12.07404635
8.8200,12.13668897
8.8250,12.20233491
8.8300,12.27076424
8.8350,12.34198597
8.8400,12.4158932
8.8450,12.49251786
8.8500,12.57218167
8.8550,12.65494085
8.8600,12.74117603
8.8650,12.83039312
8.8700,12.92245184
8.8750,13.0167663
8.8800,13.11285746
8.8850,13.21030815
8.8900,13.3091706
8.8950,13.40926924
8.9000,13.51086898
8.9050,13.61416703
8.9100,13.71941785
8.9150,13.82679801
8.9200,13.9366388
8.9250,14.04868588
8.9300,14.16293024
8.9350,14.27894265
8.9400,14.39660491
8.9450,14.51600141
8.9500,14.63707927
8.9550,14.75976046
8.9600,14.88392649
8.9650,15.00902539
8.9700,15.13499992
8.9750,15.26156661
8.9800,15.38839416
8.9850,15.51486614
8.9900,15.64038309
8.9950,15.76470317
9.0000,15.88755366
9.0050,16.00862367
9.0100,16.12743844
9.0150,16.24396777
9.0200,16.35809832
9.0250,16.4696641
9.0300,16.57834778
9.0350,16.68393699
9.0400,16.78618746
9.0450,16.88499208
9.0500,16.98011532
9.0550,17.0710584
9.0600,17.1574075
9.0650,17.23888406
9.0700,17.31491916
9.0750,17.38519724
9.0800,17.44967421
9.0850,17.50821077
9.0900,17.56047927
9.0950,17.60648984
9.1000,17.6458994
9.1050,17.67884322
9.1100,17.70574063
9.1150,17.7268502
9.1200,17.74236124
9.1250,17.75321766
9.1300,17.76007641
9.1350,17.76371369
9.1400,17.76473052
9.1450,17.76373807
9.1500,17.76089294
9.1550,17.75678846
9.1600,17.75179517
9.1650,17.74653836
9.1700,17.74158554
9.1750,17.737518
9.1800,17.73516199
9.1850,17.73502573
9.1900,17.73749179
9.1950,17.74270727
9.2000,17.75046031
9.2050,17.76104117
9.2100,17.7745295
9.2150,17.79098129
9.2200,17.8106415
9.2250,17.83417439
9.2300,17.86203809
9.2350,17.89472623
9.2400,17.9324016
9.2450,17.97527647
9.2500,18.02337433
9.2550,18.07697139
9.2600,18.13644009
9.2650,18.20206565
9.2700,18.27356549
9.2750,18.35082656
9.2800,18.43371289
9.2850,18.52263177
9.2900,18.61735428
9.2950,18.71773389
9.3000,18.82336129
9.3050,18.93366963
9.3100,19.04825466
9.3150,19.1667738
9.3200,19.28883298
9.3250,19.41428196
9.3300,19.5428949
9.3350,19.67433354
9.3400,19.80852931
9.3450,19.94530063
9.3500,20.08439618
9.3550,20.22542582
9.3600,20.36808106
9.3650,20.51205192
9.3700,20.65744907
9.3750,20.80456419
9.3800,20.95301928
9.3850,21.10267564
9.3900,21.25361207
9.3950,21.40540739
9.4000,21.55815773
9.4050,21.71126383
9.4100,21.86439223
9.4150,22.01719334
9.4200,22.16958859
9.4250,22.32123698
9.4300,22.47196292
9.4350,22.62160578
9.4400,22.77002541
9.4450,22.91706041
9.4500,23.06284081
9.4550,23.20735348
9.4600,23.35047878
9.4650,23.491996
9.4700,23.63168422
9.4750,23.76955886
9.4800,23.90521144
9.4850,24.03884642
9.4900,24.17043456
9.4950,24.30027105
9.5000,24.42849837
9.5050,24.55507036
9.5100,24.68003787
9.5150,24.80352956
9.5200,24.92567373
9.5250,25.04626403
9.5300,25.16545488
9.5350,25.28319718
9.5400,25.39959556
9.5450,25.5145128
9.5500,25.6280479
9.5550,25.74012665
9.5600,25.85065458
9.5650,25.9597633
9.5700,26.06774648
9.5750,26.17451892
9.5800,26.28019884
9.5850,26.38444373
9.5900,26.48749065
9.5950,26.58912128
9.6000,26.68949333
9.6050,26.78866139
9.6100,26.88690209
9.6150,26.98438684
9.6200,27.08141169
9.6250,27.1781144
9.6300,27.27455441
9.6350,27.37124469
9.6400,27.46841952
9.6450,27.56591882
9.6500,27.66391607
9.6550,27.76270995
9.6600,27.86231042
9.6650,27.96314893
9.6700,28.06532698
9.6750,28.16874681
9.6800,28.27360083
9.6850,28.37983549
9.6900,28.48732026
9.6950,28.59609422
9.7000,28.70631825
9.7050,28.81772772
9.7100,28.93040785
9.7150,29.04435301
9.7200,29.15945616
9.7250,29.27529196
9.7300,29.39153953
9.7350,29.50782133
9.7400,29.62409304
9.7450,29.74026221
9.7500,29.85624348
9.7550,29.9715328
9.7600,30.08590008
9.7650,30.19932821
9.7700,30.31166144
9.7750,30.42283366
9.7800,30.53245352
9.7850,30.64014712
9.7900,30.74575906
9.7950,30.84904515
9.8000,30.95028504
9.8050,31.04915394
9.8100,31.14539677
9.8150,31.23884004
9.8200,31.3288962
9.8250,31.41556921
9.8300,31.49876963
9.8350,31.57842637
9.8400,31.65436136
9.8450,31.72693663
9.8500,31.79613324
9.8550,31.86205257
9.8600,31.92482136
9.8650,31.98472717
9.8700,32.04171774
9.8750,32.09596489
9.8800,32.14745399
9.8850,32.19657677
9.8900,32.24357761
9.8950,32.28879213
9.9000,32.33223204
9.9050,32.37448209
9.9100,32.41574578
9.9150,32.45612433
9.9200,32.49553196
9.9250,32.53409751
9.9300,32.57208508
9.9350,32.60946168
9.9400,32.64608778
9.9450,32.68234828
9.9500,32.71812662
9.9550,32.75350982
9.9600,32.78869741
9.9650,32.82336977
9.9700,32.85751162
9.9750,32.89122706
9.9800,32.92456182
9.9850,32.95750523
9.9900,32.99008852
9.9950,33.02232709
10.0000,33.0539939
10.0050,33.08543687
10.0100,33.11638178
10.0150,33.14667008
10.0200,33.17598065
10.0250,33.20424066
10.0300,33.23125843
10.0350,33.25709724
10.0400,33.2816763
10.0450,33.30468702
10.0500,33.32605011
10.0550,33.34624565
10.0600,33.36501597
10.0650,33.38230686
10.0700,33.39821398
10.0750,33.41244825
10.0800,33.42507457
10.0850,33.43598039
10.0900,33.44482547
10.0950,33.45161103
10.1000,33.45594523
10.1050,33.45793955
10.1100,33.45789134
10.1150,33.45570704
10.1200,33.45162599
10.1250,33.44563346
10.1300,33.43750762
10.1350,33.42748809
10.1400,33.41573736
10.1450,33.40207212
10.1500,33.38667904
10.1550,33.36932601
10.1600,33.35008201
10.1650,33.32911938
10.1700,33.30641074
10.1750,33.28202212
10.1800,33.25629278
10.1850,33.2289875
10.1900,33.20054917
10.1950,33.17095596
10.2000,33.14045324
10.2050,33.10905909
10.2100,33.07664824
10.2150,33.04348714
10.2200,33.00964475
10.2250,32.97526105
10.2300,32.94040226
10.2350,32.90512451
10.2400,32.86966149
10.2450,32.8336877
10.2500,32.79730023
10.2550,32.76045726
10.2600,32.72330134
10.2650,32.68593514
10.2700,32.64847412
10.2750,32.61082722
10.2800,32.57294175
10.2850,32.53487104
10.2900,32.49672023
10.2950,32.45843543
10.3000,32.42004106
10.3050,32.38129649
10.3100,32.34214118
10.3150,32.30249684
10.3200,32.26245897
10.3250,32.22208791
10.3300,32.18135956
10.3350,32.14017708
10.3400,32.09828414
10.3450,32.05580383
10.3500,32.01261862
10.3550,31.96840545
10.3600,31.92326456
10.3650,31.87725284
10.3700,31.83019859
10.3750,31.7822581
10.3800,31.73334799
10.3850,31.68357613
10.3900,31.63291534
10.3950,31.58139048
10.4000,31.52913822
10.4050,31.47596979
10.4100,31.42175115
10.4150,31.36665682
10.4200,31.31063769
10.4250,31.2537488
10.4300,31.19610068
10.4350,31.13763616
10.4400,31.07845665
10.4450,31.01856548
10.4500,30.95785068
10.4550,30.89635014
10.4600,30.8342281
10.4650,30.77113544
10.4700,30.70720648
10.4750,30.64278402
10.4800,30.57769536
10.4850,30.5123193
10.4900,30.4464544
10.4950,30.38047815
10.5000,30.31442802
10.5050,30.24853736
10.5100,30.18296248
10.5150,30.11756168
10.5200,30.05253044
10.5250,29.98780584
10.5300,29.92352399
10.5350,29.85965502
10.5400,29.79606016
10.5450,29.73308723
10.5500,29.67082927
10.5550,29.60916613
10.5600,29.54799827
10.5650,29.48743605
10.5700,29.42726534
10.5750,29.3675975
10.5800,29.30830735
10.5850,29.24941975
10.5900,29.1908348
10.5950,29.13248413
10.6000,29.07421802
10.6050,29.01617302
10.6100,28.95827266
10.6150,28.90050727
10.6200,28.84242562
10.6250,28.78410951
10.6300,28.72553206
10.6350,28.66653055
10.6400,28.60721954
10.6450,28.54755615
10.6500,28.48761207
10.6550,28.42737738
10.6600,28.36660892
10.6650,28.30527271
10.6700,28.24325296
10.6750,28.18057815
10.6800,28.11732863
10.6850,28.05328919
10.6900,27.98848179
10.6950,27.92266283
10.7000,27.85595013
10.7050,27.78843475
10.7100,27.72026063
10.7150,27.65135162
10.7200,27.58193801
10.7250,27.51189161
10.7300,27.44124804
10.7350,27.37019335
10.7400,27.29869468
10.7450,27.22673769
10.7500,27.15441288
10.7550,27.08185792
10.7600,27.0087951
10.7650,26.93547927
10.7700,26.86193694
10.7750,26.78803913
10.7800,26.71408967
10.7850,26.63994908
10.7900,26.56583409
10.7950,26.49159621
10.8000,26.4173611
10.8050,26.34311943
10.8100,26.26902221
10.8150,26.19500838
10.8200,26.12104785
10.8250,26.04707144
10.8300,25.97309936
10.8350,25.89926533
10.8400,25.82553561
10.8450,25.75175355
10.8500,25.67805548
10.8550,25.60451603
10.8600,25.53153461
10.8650,25.45903971
10.8700,25.38741459
10.8750,25.31623369
10.8800,25.24558865
10.8850,25.17513574
10.8900,25.10487672
10.8950,25.03490007
10.9000,24.96534062
10.9050,24.89609687
10.9100,24.82718831
10.9150,24.75861627
10.9200,24.69052135
10.9250,24.62300601
10.9300,24.55605117
10.9350,24.48954067
10.9400,24.42342265
10.9450,24.35739308
10.9500,24.29135946
10.9550,24.22509819
10.9600,24.15883701
10.9650,24.09244598
10.9700,24.02595108
10.9750,23.95900764
10.9800,23.89147498
10.9850,23.82345746
10.9900,23.75497327
10.9950,23.6859226
11.0000,23.61617533
11.0050,23.54574962
11.0100,23.47438301
11.0150,23.40219864
11.0200,23.32913832
11.0250,23.25544565
11.0300,23.18108366
11.0350,23.10586058
11.0400,23.02977178
11.0450,22.95287196
11.0500,22.87520352
11.0550,22.79673984
11.0600,22.71763894
11.0650,22.63767999
11.0700,22.55693105
11.0750,22.47536114
11.0800,22.39290047
11.0850,22.30976944
11.0900,22.22552764
11.0950,22.14029269
11.1000,22.05398884
11.1050,21.96665482
11.1100,21.87821952
11.1150,21.78883145
11.1200,21.69847181
11.1250,21.6071968
11.1300,21.51481269
11.1350,21.42123355
11.1400,21.32659618
11.1450,21.23101685
11.1500,21.13442226
11.1550,21.03678642
11.1600,20.93769111
11.1650,20.83719012
11.1700,20.73496248
11.1750,20.63131143
11.1800,20.52606567
11.1850,20.41947465
11.1900,20.31128503
11.1950,20.20127518
11.2000,20.08911263
11.2050,19.97472933
11.2100,19.85796264
11.2150,19.73868922
11.2200,19.61685501
11.2250,19.49217141
11.2300,19.36469522
11.2350,19.23477238
11.2400,19.102404
11.2450,18.96785764
11.2500,18.83142548
11.2550,18.69332329
11.2600,18.55366026
11.2650,18.41255319
11.2700,18.27046739
11.2750,18.12773643
11.2800,17.98463187
11.2850,17.84129331
11.2900,17.6979297
11.2950,17.55488643
11.3000,17.41258789
11.3050,17.2714212
11.3100,17.13172794
11.3150,16.99385765
11.3200,16.85762128
11.3250,16.72290431
11.3300,16.58974246
11.3350,16.45808283
11.3400,16.32799002
11.3450,16.19927382
11.3500,16.0716607
11.3550,15.94492955
11.3600,15.81893494
11.3650,15.69380708
11.3700,15.56948479
11.3750,15.44632166
11.3800,15.32432229
11.3850,15.20332631
11.3900,15.0839524
11.3950,14.96636035
11.4000,14.85093552
11.4050,14.73759294
11.4100,14.62633343
11.4150,14.5169446
11.4200,14.40959976
11.4250,14.30419885
11.4300,14.20074321
11.4350,14.09919741
11.4400,13.99949616
11.4450,13.90150354
11.4500,13.8050809
11.4550,13.71013283
11.4600,13.61643542
11.4650,13.52393179
11.4700,13.43260686
11.4750,13.34206849
11.4800,13.2521837
11.4850,13.16273342
11.4900,13.07374608
11.4950,12.98504197
11.5000,12.8968737
11.5050,12.80945712
11.5100,12.72301356
11.5150,12.63794327
11.5200,12.55494531
11.5250,12.47427472
11.5300,12.3959742
11.5350,12.32039424
11.5400,12.24776008
11.5450,12.17848034
11.5500,12.11239808
11.5550,12.04953975
11.5600,11.98995662
11.5650,11.93347994
11.5700,11.87987981
11.5750,11.82906104
11.5800,11.78090239
11.5850,11.73525256
11.5900,11.6924294
11.5950,11.65224038
11.6000,11.61448732
11.6050,11.57876425
11.6100,11.54479747
11.6150,11.51193343
11.6200,11.48025081
11.6250,11.44967211
11.6300,11.41980215
11.6350,11.390525
11.6400,11.36148689
11.6450,11.33269324
11.6500,11.30415673
11.6550,11.27583399
11.6600,11.24777539
11.6650,11.21990216
11.6700,11.19211683
11.6750,11.16391804
11.6800,11.13533316
11.6850,11.10640351
11.6900,11.07691087
11.6950,11.04676611
11.7000,11.01562549
11.7050,10.98362357
11.7100,10.9508275
11.7150,10.91747257
11.7200,10.88331159
11.7250,10.84867326
11.7300,10.81358498
11.7350,10.77804871
11.7400,10.74202566
11.7450,10.70547434
11.7500,10.66859642
11.7550,10.63131375
11.7600,10.5935847
11.7650,10.55542123
11.7700,10.51666712
11.7750,10.47738819
11.7800,10.43779195
11.7850,10.39796138
11.7900,10.35793239
11.7950,10.31801427
11.8000,10.27826382
11.8050,10.23861962
11.8100,10.19948206
11.8150,10.16087064
11.8200,10.1227015
11.8250,10.08524277
11.8300,10.04887993
11.8350,10.01354806
11.8400,9.979538404
11.8450,9.946661707
11.8500,9.914861841
11.8550,9.884274362
11.8600,9.85494129
11.8650,9.827139658
11.8700,9.800903452
11.8750,9.776198689
11.8800,9.752988874
11.8850,9.731378427
11.8900,9.711047737
11.8950,9.692094932
11.9000,9.674382704
11.9050,9.657913677
11.9100,9.642863069
11.9150,9.629242127
11.9200,9.617066891
11.9250,9.606145689
11.9300,9.59674621
11.9350,9.588889468
11.9400,9.582701188
11.9450,9.578015167
11.9500,9.57461726
11.9550,9.572459038
11.9600,9.571414301
11.9650,9.571137181
11.9700,9.571411994
11.9750,9.572037844
11.9800,9.572791985
11.9850,9.573335184
11.9900,9.573452516
11.9950,9.572932123
12.0000,9.571639053
12.0050,9.569395801
12.0100,9.566190406
12.0150,9.561843039
12.0200,9.556615189
12.0250,9.550324891
12.0300,9.543198328
12.0350,9.535259619
12.0400,9.526877499
12.0450,9.518213801
12.0500,9.509430475
12.0550,9.500722047
12.0600,9.492455453
12.0650,9.484653269
12.0700,9.477767733
12.0750,9.471980504
12.0800,9.467365963
12.0850,9.464076412
12.0900,9.46212028
12.0950,9.46143071
12.1000,9.462228244
12.1050,9.464731401
12.1100,9.468880753
12.1150,9.474683108
12.1200,9.482013853
12.1250,9.491000834
12.1300,9.501511996
12.1350,9.513607095
12.1400,9.527372239
12.1450,9.543014823
12.1500,9.560827534
12.1550,9.58087012
12.1600,9.602998542
12.1650,9.627371041
12.1700,9.653993035
12.1750,9.683047904
12.1800,9.714603769
12.1850,9.748749471
12.1900,9.785308424
12.1950,9.824217386
12.2000,9.865327195
12.2050,9.908470336
12.2100,9.953380811
12.2150,9.999700497
12.2200,10.04669914
12.2250,10.09403248
12.2300,10.14090842
12.2350,10.186667
12.2400,10.23072623
12.2450,10.2725349
12.2500,10.31157445
12.2550,10.34752573
12.2600,10.37992025
12.2650,10.40881089
12.2700,10.4341748
12.2750,10.45608463
12.2800,10.47453736
12.2850,10.48971631
12.2900,10.50196892
12.2950,10.51159068
12.3000,10.51903879
12.3050,10.52470326
12.3100,10.52889529
12.3150,10.53228843
12.3200,10.53513723
12.3250,10.53780207
12.3300,10.54075362
12.3350,10.54438176
12.3400,10.54875574
12.3450,10.55427789
12.3500,10.56117942
12.3550,10.56945912
12.3600,10.57930582
12.3650,10.59058805
12.3700,10.60290666
12.3750,10.61623081
12.3800,10.63032908
12.3850,10.64506806
12.3900,10.66043487
12.3950,10.67645567
12.4000,10.69292419
12.4050,10.70973818
12.4100,10.72692678
12.4150,10.74471844
12.4200,10.7631974
12.4250,10.7824577
12.4300,10.80260592
12.4350,10.82380397
12.4400,10.84588617
12.4450,10.86881133
12.4500,10.89243418
12.4550,10.91668033
12.4600,10.94171903
12.4650,10.96719727
12.4700,10.99315454
12.4750,11.0192369
12.4800,11.04529643
12.4850,11.07118423
12.4900,11.09678818
12.4950,11.1220432
12.5000,11.14666863
12.5050,11.17075045
12.5100,11.19400787
12.5150,11.21664636
12.5200,11.23881677
12.5250,11.26061887
12.5300,11.28207574
12.5350,11.30351603
12.5400,11.32506681
12.5450,11.34689334
12.5500,11.36928446
12.5550,11.39235365
12.5600,11.41629208
12.5650,11.44136945
12.5700,11.46777412
12.5750,11.49531587
12.5800,11.52384746
12.5850,11.55338206
12.5900,11.58372295
12.5950,11.61491266
12.6000,11.64692687
12.6050,11.67968709
12.6100,11.71320082
12.6150,11.74706977
12.6200,11.78120694
12.6250,11.81521208
12.6300,11.84850955
12.6350,11.88085985
12.6400,11.91213369
12.6450,11.94194779
12.6500,11.97011347
12.6550,11.99667566
12.6600,12.0215528
12.6650,12.04482378
12.6700,12.06659969
12.6750,12.08677408
12.6800,12.10532128
12.6850,12.12232808
12.6900,12.13800556
12.6950,12.15262898
12.7000,12.16635241
12.7050,12.17930305
12.7100,12.19153025
12.7150,12.20288823
12.7200,12.21332621
12.7250,12.2226621
12.7300,12.23076829
12.7350,12.23736569
12.7400,12.24222393
12.7450,12.2451571
12.7500,12.2461334
12.7550,12.24500874
12.7600,12.24156277
12.7650,12.23576068
12.7700,12.2274399
12.7750,12.21671479
12.7800,12.20379226
12.7850,12.18862105
12.7900,12.17146795
12.7950,12.15237013
12.8000,12.13190898
12.8050,12.11017352
12.8100,12.08738992
12.8150,12.06357082
12.8200,12.03917636
12.8250,12.01427058
12.8300,11.98912092
12.8350,11.96386774
12.8400,11.93856474
12.8450,11.91358705
12.8500,11.88873617
12.8550,11.86427167
12.8600,11.84015185
12.8650,11.81595893
12.8700,11.79149914
12.8750,11.76700992
12.8800,11.74285595
12.8850,11.71910934
12.8900,11.69583589
12.8950,11.67299516
12.9000,11.65058628
12.9050,11.62854002
12.9100,11.60699588
12.9150,11.58633054
12.9200,11.56663272
12.9250,11.54840842
12.9300,11.53216597
12.9350,11.51820186
12.9400,11.5068099
12.9450,11.49825128
12.9500,11.49274214
12.9550,11.49032744
12.9600,11.49095854
12.9650,11.49493968
12.9700,11.50237747
12.9750,11.5134591
12.9800,11.52846896
12.9850,11.54729111
12.9900,11.56997667
12.9950,11.59622666
13.0000,11.62594192
13.0050,11.65890622
13.0100,11.69495867
13.0150,11.73386394
13.0200,11.77570021
13.0250,11.82005885
13.0300,11.86682704
13.0350,11.91579881
13.0400,11.96672045
13.0450,12.01934228
13.0500,12.07340424
13.0550,12.12856942
13.0600,12.18479882
13.0650,12.24194797
13.0700,12.29955725
13.0750,12.3570765
13.0800,12.41385634
13.0850,12.46934528
13.0900,12.52299043
13.0950,12.57451942
13.1000,12.62355693
13.1050,12.66983197
13.1100,12.71333828
13.1150,12.754083
13.1200,12.7917574
13.1250,12.82629797
13.1300,12.85773959
13.1350,12.88609943
13.1400,12.91151526
13.1450,12.93391998
13.1500,12.95350772
13.1550,12.97038732
13.1600,12.98490656
13.1650,12.99745335
13.1700,13.00846424
13.1750,13.01854963
13.1800,13.02782398
13.1850,13.03674117
13.1900,13.04578907
13.1950,13.05536604
13.2000,13.06567243
13.2050,13.07728658
13.2100,13.09017313
13.2150,13.10458002
13.2200,13.12064642
13.2250,13.13825058
13.2300,13.15746275
13.2350,13.17806868
13.2400,13.19991459
13.2450,13.22307234
13.2500,13.24725105
13.2550,13.27245279
13.2600,13.29849882
13.2650,13.32503083
13.2700,13.35175866
13.2750,13.37854024
13.2800,13.40502122
13.2850,13.43108354
13.2900,13.45659899
13.2950,13.48159599
13.3000,13.50601124
13.3050,13.52987914
13.3100,13.55318792
13.3150,13.57605637
13.3200,13.59833415
13.3250,13.62026215
13.3300,13.64188726
13.3350,13.66318035
13.3400,13.68423577
13.3450,13.70490355
13.3500,13.7249003
13.3550,13.74414798
13.3600,13.76200666
13.3650,13.77815465
13.3700,13.79244314
13.3750,13.80460755
13.3800,13.81440319
13.3850,13.82144347
13.3900,13.82546806
13.3950,13.82618229
13.4000,13.82298041
13.4050,13.81543118
13.4100,13.80321531
13.4150,13.78604632
13.4200,13.76393726
13.4250,13.73655957
13.4300,13.70397195
13.4350,13.6658614
13.4400,13.62222026
13.4450,13.57286214
13.4500,13.51798373
13.4550,13.45735982
13.4600,13.39082646
13.4650,13.31846084
13.4700,13.2398409
13.4750,13.15481724
13.4800,13.0634238
13.4850,12.96571627
13.4900,12.86158998
13.4950,12.75083231
13.5000,12.63350451
13.5050,12.50928933
13.5100,12.37856738
13.5150,12.24111543
13.5200,12.09710465
13.5250,11.947063
13.5300,11.79135766
13.5350,11.63087914
13.5400,11.46643632
13.5450,11.29871433
13.5500,11.12879842
13.5550,10.95768847
13.5600,10.78673119
13.5650,10.61713761
13.5700,10.450116
13.5750,10.28692532
13.5800,10.12866205
13.5850,9.976471535
13.5900,9.831218636
13.5950,9.693485529
13.6000,9.56373219
13.6050,9.442763568
13.6100,9.330845436
13.6150,9.228403795
13.6200,9.135569877
13.6250,9.052304434
13.6300,8.978351929
13.6350,8.913310568
13.6400,8.856725761
13.6450,8.808017806
13.6500,8.766480338
13.6550,8.731461254
13.6600,8.702426446
13.6650,8.678604109
13.6700,8.659136198
13.6750,8.643613154
13.6800,8.63163362
13.6850,8.622969105
13.6900,8.617166664
13.6950,8.613783319
13.7000,8.612500115
13.7050,8.613139433
13.7100,8.615205223
13.7150,8.618288276
13.7200,8.621875912
13.7250,8.625696587
13.7300,8.629519356
13.7350,8.633019978
13.7400,8.636007702
13.7450,8.638336835
13.7500,8.639869493
13.7550,8.64073254
13.7600,8.640957581
13.7650,8.640228267
13.7700,8.638728249
13.7750,8.636132595
13.7800,8.63240105
13.7850,8.627546323
13.7900,8.621506308
13.7950,8.614571621
13.8000,8.606901726
13.8050,8.598708889
13.8100,8.590402476
13.8150,8.582282781
13.8200,8.574814538
13.8250,8.568332526
13.8300,8.562861433
13.8350,8.558720681
13.8400,8.556150113
13.8450,8.555349875
13.8500,8.556717693
13.8550,8.560721723
13.8600,8.567417739
13.8650,8.576897928
13.8700,8.589482886
13.8750,8.605015842
13.8800,8.623316986
13.8850,8.644404198
13.8900,8.668212807
13.8950,8.694882252
13.9000,8.724264998
13.9050,8.756138658
13.9100,8.790500435
13.9150,8.827197498
13.9200,8.866104675
13.9250,8.907138906
13.9300,8.950319845
13.9350,8.995309795
13.9400,9.042042572
13.9450,9.090013143
13.9500,9.139318737
13.9550,9.189353571
13.9600,9.239820119
13.9650,9.290583607
13.9700,9.341591826
13.9750,9.39273333
13.9800,9.443840119
13.9850,9.494701748
13.9900,9.545253838
13.9950,9.595298651
14.0000,9.644861012
14.0050,9.694084856
14.0100,9.742900496
14.0150,9.791129305
14.0200,9.838542579
14.0250,9.885031151
14.0300,9.930384716
14.0350,9.97477024
14.0400,10.01819299
14.0450,10.0607178
14.0500,10.10252385
14.0550,10.14350747
14.0600,10.18374506
14.0650,10.2236513
14.0700,10.26320933
14.0750,10.30272661
14.0800,10.3421858
14.0850,10.38125749
14.0900,10.41972284
14.0950,10.45729962
14.1000,10.49352788
14.1050,10.52832795
14.1100,10.56093658
14.1150,10.59110905
14.1200,10.61830609
14.1250,10.64222145
14.1300,10.66281998
14.1350,10.68004829
14.1400,10.6938157
14.1450,10.70410346
14.1500,10.71097198
14.1550,10.71448812
14.1600,10.71492938
14.1650,10.71272498
14.1700,10.70846791
14.1750,10.70279886
14.1800,10.69684437
14.1850,10.69123469
14.1900,10.68669912
14.1950,10.68367392
14.2000,10.68306285
14.2050,10.68514998
14.2100,10.69000564
14.2150,10.69741489
14.2200,10.70721751
14.2250,10.71921717
14.2300,10.7332175
14.2350,10.74939887
14.2400,10.76724435
14.2450,10.78712697
14.2500,10.80871594
14.2550,10.83219687
14.2600,10.85763453
14.2650,10.88502056
14.2700,10.91429858
14.2750,10.94534533
14.2800,10.9783355
14.2850,11.01347479
14.2900,11.05114683
14.2950,11.09171388
14.3000,11.1357292
14.3050,11.18326761
14.3100,11.23488667
14.3150,11.29106183
14.3200,11.35231069
14.3250,11.41924981
14.3300,11.49216891
14.3350,11.57097137
14.3400,11.65542582
14.3450,11.74526628
14.3500,11.83993532
14.3550,11.93909277
14.3600,12.04252407
14.3650,12.14966497
14.3700,12.26035321
14.3750,12.37375165
14.3800,12.48916126
14.3850,12.6063307
14.3900,12.72490912
14.3950,12.84451233
14.4000,12.96503542
14.4050,13.08622419
14.4100,13.20811653
14.4150,13.33056524
14.4200,13.45374034
14.4250,13.57757929
14.4300,13.70172838
14.4350,13.82567426
14.4400,13.94927881
14.4450,14.07234423
14.4500,14.19442303
14.4550,14.315226
14.4600,14.43447938
14.4650,14.55161448
14.4700,14.66622413
14.4750,14.77797768
14.4800,14.88632041
14.4850,14.99073886
14.4900,15.0906192
14.4950,15.18599837
14.5000,15.27660959
14.5050,15.36278223
14.5100,15.44460025
14.5150,15.52272396
14.5200,15.59748344
14.5250,15.66947241
14.5300,15.73900216
14.5350,15.8064159
14.5400,15.8724045
14.5450,15.93708706
14.5500,16.00090178
14.5550,16.06440546
14.5600,16.12793115
14.5650,16.19180001
14.5700,16.25621042
14.5750,16.32130135
14.5800,16.38728307
14.5850,16.45463237
14.5900,16.52342597
14.5950,16.59379425
14.6000,16.66552962
14.6050,16.73873788
14.6100,16.8135211
14.6150,16.88996618
14.6200,16.96783241
14.6250,17.04693216
14.6300,17.12733941
14.6350,17.20918927
14.6400,17.29258139
14.6450,17.37802695
14.6500,17.46583229
14.6550,17.55617617
14.6600,17.64857369
14.6650,17.74287656
14.6700,17.83874734
14.6750,17.93611697
14.6800,18.03501652
14.6850,18.13523711
14.6900,18.23679758
14.6950,18.33977159
14.7000,18.44378446
14.7050,18.54882529
14.7100,18.65481075
14.7150,18.76161591
14.7200,18.86875701
14.7250,18.97611677
14.7300,19.08361548
14.7350,19.19120473
14.7400,19.29883804
14.7450,19.40650387
14.7500,19.51425364
14.7550,19.62217691
14.7600,19.7303675
14.7650,19.83909391
14.7700,19.94804224
14.7750,20.05718522
14.7800,20.16644912
14.7850,20.27577188
14.7900,20.38526403
14.7950,20.49479425
14.8000,20.60434319
14.8050,20.71341641
14.8100,20.82212328
14.8150,20.92990789
14.8200,21.03689455
14.8250,21.1427092
14.8300,21.24727695
14.8350,21.35052738
14.8400,21.45250528
14.8450,21.55325161
14.8500,21.65280934
14.8550,21.75099966
14.8600,21.84786764
14.8650,21.9433812
14.8700,22.03776651
14.8750,22.13115523
14.8800,22.22352905
14.8850,22.31467084
14.8900,22.40482377
14.8950,22.49396637
14.9000,22.58216602
14.9050,22.66974905
14.9100,22.75654869
14.9150,22.84272534
14.9200,22.92856506
14.9250,23.01393978
14.9300,23.09877096
14.9350,23.18291879
14.9400,23.26632368
14.9450,23.34887434
14.9500,23.43052712
14.9550,23.51106589
14.9600,23.5909254
14.9650,23.6700587
14.9700,23.74852567
14.9750,23.82677207
14.9800,23.90510258
14.9850,23.98347401
14.9900,24.06214492
14.9950,24.141154
15.0000,24.22085984
15.0050,24.30105898
15.0100,24.38162222
15.0150,24.46269694
15.0200,24.54452965
15.0250,24.62705805
15.0300,24.71063998
15.0350,24.79557963
15.0400,24.88192852
15.0450,24.96992919
15.0500,25.05974031
15.0550,25.15120093
15.0600,25.24378266
15.0650,25.33709839
15.0700,25.43108075
15.0750,25.52573943
15.0800,25.62065567
15.0850,25.7157542
15.0900,25.81071607
15.0950,25.90554726
15.1000,25.99996322
15.1050,26.09379359
15.1100,26.18668121
15.1150,26.2787757
15.1200,26.36986103
15.1250,26.45975991
15.1300,26.54844983
15.1350,26.63586856
15.1400,26.7220223
15.1450,26.80671595
15.1500,26.89004839
15.1550,26.97174845
15.1600,27.0515426
15.1650,27.12934509
15.1700,27.20526133
15.1750,27.27939287
15.1800,27.35157528
15.1850,27.42185171
15.1900,27.48996043
15.1950,27.55623241
15.2000,27.62067592
15.2050,27.68305
15.2100,27.74345924
15.2150,27.80207299
15.2200,27.85887557
15.2250,27.9142949
15.2300,27.96829227
15.2350,28.02107895
15.2400,28.07297624
15.2450,28.12385754
15.2500,28.17363761
15.2550,28.22258046
15.2600,28.27045372
15.2650,28.3174017
15.2700,28.36364095
15.2750,28.40903516
15.2800,28.45342815
15.2850,28.4970843
15.2900,28.53991829
15.2950,28.58199504
15.3000,28.62358866
15.3050,28.66499515
15.3100,28.70649296
15.3150,28.7483933
15.3200,28.79083776
15.3250,28.83441237
15.3300,28.87916044
15.3350,28.92559456
15.3400,28.97432107
15.3450,29.02570636
15.3500,29.07951437
15.3550,29.13610946
15.3600,29.19592313
15.3650,29.25908218
15.3700,29.32582271
15.3750,29.39598127
15.3800,29.4696084
15.3850,29.54652206
15.3900,29.62673618
15.3950,29.70988321
15.4000,29.79556434
15.4050,29.88379184
15.4100,29.97418135
15.4150,30.06629048
15.4200,30.16003914
15.4250,30.25537873
15.4300,30.35190159
15.4350,30.44953703
15.4400,30.54806265
15.4450,30.64752551
15.4500,30.74760752
15.4550,30.8483746
15.4600,30.94980092
15.4650,31.05172234
15.4700,31.15378608
15.4750,31.25595506
15.4800,31.35824214
15.4850,31.46076876
15.4900,31.56343287
15.4950,31.66609429
15.5000,31.76871524
15.5050,31.87104903
15.5100,31.97295511
15.5150,32.07389707
15.5200,32.17392933
15.5250,32.27283838
15.5300,32.37039269
15.5350,32.46663414
15.5400,32.56144073
15.5450,32.65464233
15.5500,32.7462386
15.5550,32.83628537
15.5600,32.92504078
15.5650,33.01252993
15.5700,33.09889484
15.5750,33.18429762
15.5800,33.26879643
15.5850,33.35235169
15.5900,33.4349693
15.5950,33.51636406
15.6000,33.59663954
15.6050,33.67582599
15.6100,33.75411366
15.6150,33.83156656
15.6200,33.90844586
15.6250,33.98456734
15.6300,34.06029063
15.6350,34.13518145
15.6400,34.20897911
15.6450,34.28169158
15.6500,34.35336009
15.6550,34.42385628
15.6600,34.49319738
15.6650,34.56123443
15.6700,34.62767897
15.6750,34.69233033
15.6800,34.75483323
15.6850,34.81497892
15.6900,34.87262242
15.6950,34.92751025
15.7000,34.97962131
15.7050,35.02844865
15.7100,35.07415557
15.7150,35.11657716
15.7200,35.15546422
15.7250,35.19067449
15.7300,35.2221664
15.7350,35.24968174
15.7400,35.27315365
15.7450,35.29264047
15.7500,35.30807968
15.7550,35.31953997
15.7600,35.32689114
15.7650,35.33042288
15.7700,35.33023182
15.7750,35.32650467
15.7800,35.31936021
15.7850,35.30862613
15.7900,35.29452819
15.7950,35.27721726
15.8000,35.25668571
15.8050,35.23317793
15.8100,35.2068042
15.8150,35.17773282
15.8200,35.14598305
15.8250,35.11174982
15.8300,35.07514683
15.8350,35.03625038
15.8400,34.99510454
15.8450,34.95220232
15.8500,34.90752993
15.8550,34.86121884
15.8600,34.81328113
15.8650,34.76392912
15.8700,34.71316071
15.8750,34.66095909
15.8800,34.60752605
15.8850,34.5526847
15.8900,34.49675962
15.8950,34.43985569
15.9000,34.38211373
15.9050,34.32337031
15.9100,34.26385226
15.9150,34.20368159
15.9200,34.14274032
15.9250,34.0811737
15.9300,34.01880073
15.9350,33.955878
15.9400,33.89246793
15.9450,33.8283152
15.9500,33.76362387
15.9550,33.69831194
15.9600,33.632402
15.9650,33.56603385
15.9700,33.49933069
15.9750,33.43225174
15.9800,33.36503713
15.9850,33.29785408
15.9900,33.23053021
15.9950,33.16306117
16.0000,33.09523823
16.0050,33.02710798
16.0100,32.95867091
16.0150,32.88994531
16.0200,32.82093922
16.0250,32.75141195
16.0300,32.6817872
16.0350,32.61196764
16.0400,32.54191897
16.0450,32.47173751
16.0500,32.40127715
16.0550,32.33062925
16.0600,32.25990844
16.0650,32.18905813
16.0700,32.11811231
16.0750,32.04680981
16.0800,31.97548907
16.0850,31.9041092
16.0900,31.83254893
16.0950,31.76076279
16.1000,31.68878823
16.1050,31.61640316
16.1100,31.54355571
16.1150,31.47043444
16.1200,31.39687436
16.1250,31.3225653
16.1300,31.24771334
16.1350,31.17232088
16.1400,31.0961774
16.1450,31.01939542
16.1500,30.94213072
16.1550,30.8641324
16.1600,30.78548886
16.1650,30.7059349
16.1700,30.62544962
16.1750,30.54407163
16.1800,30.46183797
16.1850,30.37910976
16.1900,30.29554531
16.1950,30.21151312
16.2000,30.12682169
16.2050,30.04159187
16.2100,29.95570734
16.2150,29.8689732
16.2200,29.78156517
16.2250,29.69294393
16.2300,29.60342645
16.2350,29.51288399
16.2400,29.42127229
16.2450,29.32862095
16.2500,29.23492281
16.2550,29.14031225
16.2600,29.04492013
16.2650,28.94863432
16.2700,28.85155407
16.2750,28.75364795
16.2800,28.65485541
16.2850,28.55503097
16.2900,28.45431982
16.2950,28.35264317
16.3000,28.25003752
16.3050,28.14648778
16.3100,28.0421248
16.3150,27.93698546
16.3200,27.83118232
16.3250,27.72484685
16.3300,27.61776905
16.3350,27.5100957
16.3400,27.40188722
16.3450,27.29315208
16.3500,27.18403031
16.3550,27.07452101
16.3600,26.96457399
16.3650,26.85412131
16.3700,26.74311935
16.3750,26.63179978
16.3800,26.5198526
16.3850,26.4072617
16.3900,26.29402615
16.3950,26.17993293
16.4000,26.06494765
16.4050,25.94934201
16.4100,25.8332567
16.4150,25.7165045
16.4200,25.59902459
16.4250,25.48094409
16.4300,25.36214068
16.4350,25.24266107
16.4400,25.12260085
16.4450,25.00177312
16.4500,24.8802038
16.4550,24.75800196
16.4600,24.63499659
16.4650,24.51170592
16.4700,24.38804016
16.4750,24.26418242
16.4800,24.14027945
16.4850,24.01628182
16.4900,23.89244514
16.4950,23.76859779
16.5000,23.64494812
16.5050,23.52173507
16.5100,23.39905276
16.5150,23.27693292
16.5200,23.15538382
16.5250,23.0345799
16.5300,22.91442417
16.5350,22.79479962
16.5400,22.675582
16.5450,22.55695424
16.5500,22.43879629
16.5550,22.32089911
16.5600,22.20328783
16.5650,22.0860547
16.5700,21.96899322
16.5750,21.85224947
16.5800,21.73590386
16.5850,21.61998646
16.5900,21.50441449
16.5950,21.38921171
16.6000,21.27442894
16.6050,21.16027047
16.6100,21.04644222
16.6150,20.93299621
16.6200,20.81963653
16.6250,20.70656834
16.6300,20.59344471
16.6350,20.4802724
16.6400,20.3667773
16.6450,20.2527632
16.6500,20.13822378
16.6550,20.02306603
16.6600,19.9074983
16.6650,19.79155389
16.6700,19.67551082
16.6750,19.55922887
16.6800,19.44280882
16.6850,19.32662806
16.6900,19.21088798
16.6950,19.09575581
16.7000,18.98143986
16.7050,18.86801716
16.7100,18.75550548
16.7150,18.64409197
16.7200,18.53407371
16.7250,18.42557841
16.7300,18.3188388
16.7350,18.21377534
16.7400,18.11046192
16.7450,18.00879855
16.7500,17.9087068
16.7550,17.81054922
16.7600,17.71435289
16.7650,17.61983614
16.7700,17.52724661
16.7750,17.4362655
16.7800,17.34699621
16.7850,17.25945706
16.7900,17.17364344
16.7950,17.08970565
16.8000,17.00738665
16.8050,16.92646179
16.8100,16.84648966
16.8150,16.76752989
16.8200,16.68923757
16.8250,16.61166703
16.8300,16.53449619
16.8350,16.45756564
16.8400,16.38086775
16.8450,16.30398447
16.8500,16.22657039
16.8550,16.1483683
16.8600,16.06889878
16.8650,15.98804537
16.8700,15.90555267
16.8750,15.82115373
16.8800,15.73468378
16.8850,15.64612303
16.8900,15.55531036
16.8950,15.46233475
16.9000,15.36750843
16.9050,15.2707902
16.9100,15.17240442
16.9150,15.0726348
16.9200,14.97169659
16.9250,14.86979369
16.9300,14.7671165
16.9350,14.66399927
16.9400,14.5607457
16.9450,14.45764301
16.9500,14.35516707
16.9550,14.25363318
16.9600,14.15313153
16.9650,14.05390183
16.9700,13.95600832
16.9750,13.85976899
16.9800,13.76539515
16.9850,13.67266053
16.9900,13.58144497
16.9950,13.49173618
17.0000,13.40373292
17.0050,13.31742654
17.0100,13.23289098
17.0150,13.15018886
17.0200,13.06916848
17.0250,12.98989349
17.0300,12.91244206
17.0350,12.83674908
17.0400,12.76292885
17.0450,12.69101268
17.0500,12.62099592
17.0550,12.55258787
17.0600,12.48589534
17.0650,12.42080471
17.0700,12.35718271
17.0750,12.29520592
17.0800,12.23468441
17.0850,12.17551179
17.0900,12.1176915
17.0950,12.06107144
17.1000,12.00607268
17.1050,11.9525816
17.1100,11.90100221
17.1150,11.85092679
17.1200,11.80250074
17.1250,11.75559705
17.1300,11.71034823
17.1350,11.66692703
17.1400,11.62517703
17.1450,11.5850264
17.1500,11.54671177
17.1550,11.51040061
17.1600,11.47616968
17.1650,11.44408603
17.1700,11.41423497
17.1750,11.38665646
17.1800,11.36137598
17.1850,11.33822982
17.1900,11.31730577
17.1950,11.29882522
17.2000,11.28236686
17.2050,11.26796046
17.2100,11.25554593
17.2150,11.24491212
17.2200,11.23602213
17.2250,11.22880301
17.2300,11.22343726
17.2350,11.21986071
17.2400,11.21835534
17.2450,11.21879093
17.2500,11.22113674
17.2550,11.2249809
17.2600,11.23031917
17.2650,11.23687471
17.2700,11.24442685
17.2750,11.25270524
17.2800,11.26137612
17.2850,11.27050839
17.2900,11.28024656
17.2950,11.29051384
17.3000,11.30136766
17.3050,11.3125901
17.3100,11.3242845
17.3150,11.33632188
17.3200,11.34878697
17.3250,11.36142371
17.3300,11.37407544
17.3350,11.38678388
17.3400,11.39958635
17.3450,11.41245117
17.3500,11.42546185
17.3550,11.43854801
17.3600,11.45186808
17.3650,11.46551723
17.3700,11.47964973
17.3750,11.49431938
17.3800,11.5096853
17.3850,11.52578666
17.3900,11.54259169
17.3950,11.56014126
17.4000,11.57795772
17.4050,11.59634784
17.4100,11.61509157
17.4150,11.63445943
17.4200,11.65436625
17.4250,11.6749353
17.4300,11.69614255
17.4350,11.71778014
17.4400,11.74006227
17.4450,11.76327776
17.4500,11.78744656
17.4550,11.81267845
17.4600,11.83900643
17.4650,11.86620338
17.4700,11.8944491
17.4750,11.92363641
17.4800,11.95392277
17.4850,11.98535018
17.4900,12.01782471
17.4950,12.05094924
17.5000,12.08488984
17.5050,12.11953275
17.5100,12.15459805
17.5150,12.19009422
17.5200,12.22613781
17.5250,12.26254704
17.5300,12.29919295
17.5350,12.33606389
17.5400,12.37309974
17.5450,12.41023515
17.5500,12.44743276
17.5550,12.48497601
17.5600,12.5227522
17.5650,12.56089973
17.5700,12.59955986
17.5750,12.63873356
17.5800,12.67837653
17.5850,12.7185626
17.5900,12.75909621
17.5950,12.79975371
17.6000,12.84014281
17.6050,12.88038178
17.6100,12.91994187
17.6150,12.95864814
17.6200,12.99616021
17.6250,13.03253351
17.6300,13.06763851
17.6350,13.10133531
17.6400,13.13329628
17.6450,13.16345163
17.6500,13.19171231
17.6550,13.2180083
17.6600,13.24217662
17.6650,13.26443468
17.6700,13.28471934
17.6750,13.30303354
17.6800,13.31916333
17.6850,13.33338252
17.6900,13.34569794
17.6950,13.356281
17.7000,13.36531068
17.7050,13.37278931
17.7100,13.37873085
17.7150,13.38310153
17.7200,13.38602114
17.7250,13.38738722
17.7300,13.3872929
17.7350,13.38580833
17.7400,13.38300768
17.7450,13.37902276
17.7500,13.37411221
17.7550,13.36856812
17.7600,13.36263726
17.7650,13.35689735
17.7700,13.35140251
17.7750,13.34633006
17.7800,13.34163306
17.7850,13.33777546
17.7900,13.33498431
17.7950,13.33375449
17.8000,13.33421192
17.8050,13.33641855
17.8100,13.34069355
17.8150,13.34707488
17.8200,13.35546492
17.8250,13.36581618
17.8300,13.3782445
17.8350,13.39271933
17.8400,13.40909524
17.8450,13.42735313
17.8500,13.44731163
17.8550,13.46886053
17.8600,13.49179561
17.8650,13.5157545
17.8700,13.54046866
17.8750,13.56545888
17.8800,13.5904974
17.8850,13.61551861
17.8900,13.64025385
17.8950,13.66458438
17.9000,13.68810647
17.9050,13.71056444
17.9100,13.73185539
17.9150,13.75197997
17.9200,13.77107291
17.9250,13.78899112
17.9300,13.80567027
17.9350,13.82107561
17.9400,13.83508345
17.9450,13.84752595
17.9500,13.85831917
17.9550,13.86734455
17.9600,13.87431928
17.9650,13.87936908
17.9700,13.88239713
17.9750,13.88323337
17.9800,13.8818427
17.9850,13.87810729
17.9900,13.87164934
17.9950,13.86198117
18.0000,13.84856226
18.0050,13.83093526
18.0100,13.8085518
18.0150,13.78086121
18.0200,13.74747677
18.0250,13.70825495
18.0300,13.66271055
18.0350,13.61102995
18.0400,13.55304635
18.0450,13.48888655
18.0500,13.41870491
18.0550,13.34277514
18.0600,13.26170071
18.0650,13.17588731
18.0700,13.08609115
18.0750,12.99313249
18.0800,12.89799692
18.0850,12.80106295
18.0900,12.70320961
18.0950,12.60494195
18.1000,12.50715265
18.1050,12.41082246
18.1100,12.31663309
18.1150,12.22543039
18.1200,12.13782191
18.1250,12.05429915
18.1300,11.97517668
18.1350,11.9004601
18.1400,11.8301422
18.1450,11.76431876
18.1500,11.70271288
18.1550,11.64503671
18.1600,11.59107328
18.1650,11.54077249
18.1700,11.49380969
18.1750,11.45024015
18.1800,11.41003616
18.1850,11.37260552
18.1900,11.3380645
18.1950,11.30633928
18.2000,11.27763408
18.2050,11.25174793
18.2100,11.22874874
18.2150,11.20850606
18.2200,11.19077585
18.2250,11.17543297
18.2300,11.16233897
18.2350,11.15146706
18.2400,11.14305761
18.2450,11.13723197
18.2500,11.1339177
18.2550,11.1333686
18.2600,11.13563173
18.2650,11.14045869
18.2700,11.14769828
18.2750,11.15747049
18.2800,11.16977561
18.2850,11.18431407
18.2900,11.20121017
18.2950,11.22071122
18.3000,11.24300475
18.3050,11.26793484
18.3100,11.2958012
18.3150,11.32674779
18.3200,11.36087764
18.3250,11.39816906
18.3300,11.43873576
18.3350,11.48266902
18.3400,11.53011491
18.3450,11.58092145
18.3500,11.63531073
18.3550,11.69312734
18.3600,11.75430668
18.3650,11.81881515
18.3700,11.88658255
18.3750,11.95744066
18.3800,12.03108531
18.3850,12.10754755
18.3900,12.1864096
18.3950,12.2675067
18.4000,12.35019506
18.4050,12.43397007
18.4100,12.51834275
18.4150,12.60266535
18.4200,12.6863221
18.4250,12.76898699
18.4300,12.85004321
18.4350,12.92927548
18.4400,13.00605485
18.4450,13.0797868
18.4500,13.15024658
18.4550,13.21687152
18.4600,13.27945756
18.4650,13.33768745
18.4700,13.39145185
18.4750,13.44060576
18.4800,13.48515974
18.4850,13.5254646
18.4900,13.56131145
18.4950,13.59316625
18.5000,13.62110029
18.5050,13.6454891
18.5100,13.66646695
18.5150,13.68432578
18.5200,13.69931771
18.5250,13.7118667
18.5300,13.72218452
18.5350,13.73053312
18.5400,13.73694152
18.5450,13.74173338
18.5500,13.7451676
18.5550,13.7474554
18.5600,13.74886002
18.5650,13.7496185
18.5700,13.74979927
18.5750,13.74963028
18.5800,13.74931539
18.5850,13.74903664
18.5900,13.74902417
18.5950,13.74938132
18.6000,13.75024701
18.6050,13.75206816
18.6100,13.75485684
18.6150,13.75903138
18.6200,13.76468535
18.6250,13.77217992
18.6300,13.78178889
18.6350,13.79342748
18.6400,13.80730261
18.6450,13.82323458
18.6500,13.84125938
18.6550,13.86127661
18.6600,13.88305862
18.6650,13.90626438
18.6700,13.93050761
18.6750,13.95569816
18.6800,13.98148945
18.6850,14.00748145
18.6900,14.03345044
18.6950,14.05897091
18.7000,14.08380634
18.7050,14.10744488
18.7100,14.12952187
18.7150,14.14988897
18.7200,14.16830844
18.7250,14.18445749
18.7300,14.19827629
18.7350,14.2093137
18.7400,14.21766108
18.7450,14.22313416
18.7500,14.22541528
18.7550,14.2246525
18.7600,14.22048152
18.7650,14.21288349
18.7700,14.20155742
18.7750,14.18669413
18.7800,14.16807853
18.7850,14.14549492
18.7900,14.1191131
18.7950,14.08879564
18.8000,14.05489503
18.8050,14.0173737
18.8100,13.97667144
18.8150,13.93286828
18.8200,13.88647639
18.8250,13.83769004
18.8300,13.78692281
18.8350,13.73471049
18.8400,13.68149357
18.8450,13.62758839
18.8500,13.57359057
18.8550,13.51986482
18.8600,13.46686447
18.8650,13.41482741
18.8700,13.3640439
18.8750,13.31461473
18.8800,13.26671872
18.8850,13.22060658
18.8900,13.17621825
18.8950,13.13356293
18.9000,13.09269758
18.9050,13.05333416
18.9100,13.01558
18.9150,12.97927848
18.9200,12.94450731
18.9250,12.91098231
18.9300,12.87862211
18.9350,12.84750152
18.9400,12.81741103
18.9450,12.78867374
18.9500,12.76093894
18.9550,12.7341024
18.9600,12.70800685
18.9650,12.68275881
18.9700,12.65835224
18.9750,12.63446731
18.9800,12.61113382
18.9850,12.58831905
18.9900,12.56607298
18.9950,12.54429513
19.0000,12.52286186
19.0050,12.50188425
19.0100,12.48130699
19.0150,12.46092665
19.0200,12.44060883
19.0250,12.42024288
19.0300,12.39984114
19.0350,12.37954756
19.0400,12.35907308
19.0450,12.33860161
19.0500,12.31804146
19.0550,12.29767141
19.0600,12.27766779
19.0650,12.25802071
19.0700,12.23914276
19.0750,12.22079611
19.0800,12.20322915
19.0850,12.1863565
19.0900,12.17029586
19.0950,12.1549235
19.1000,12.14008364
19.1050,12.12606318
19.1100,12.11288827
19.1150,12.10056215
19.1200,12.08925692
19.1250,12.07880093
19.1300,12.06926903
19.1350,12.06046181
19.1400,12.05266827
19.1450,12.04576126
19.1500,12.03969411
19.1550,12.03443001
19.1600,12.03001311
19.1650,12.02639471
19.1700,12.02391322
19.1750,12.02248795
19.1800,12.02200577
19.1850,12.02235845
19.1900,12.02332158
19.1950,12.02488566
19.2000,12.02701085
19.2050,12.02988014
19.2100,12.03338415
19.2150,12.03756533
19.2200,12.04263056
19.2250,12.0486569
19.2300,12.05563331
19.2350,12.06357418
19.2400,12.07252133
19.2450,12.0825695
19.2500,12.09377627
19.2550,12.10641844
19.2600,12.12061083
19.2650,12.13631787
19.2700,12.15343072
19.2750,12.17224007
19.2800,12.19269305
19.2850,12.21504404
19.2900,12.23930533
19.2950,12.26549331
19.3000,12.29373717
19.3050,12.32412123
19.3100,12.35673378
19.3150,12.3916312
19.3200,12.42886697
19.3250,12.4684874
19.3300,12.51034916
19.3350,12.55449781
19.3400,12.6009604
19.3450,12.64982935
19.3500,12.70118944
19.3550,12.75496147
19.3600,12.811036
19.3650,12.86944308
19.3700,12.92999903
19.3750,12.99253563
19.3800,13.0567767
19.3850,13.12285756
19.3900,13.1904299
19.3950,13.25955755
19.4000,13.33007177
19.4050,13.40165422
19.4100,13.4739257
19.4150,13.54667224
19.4200,13.61936689
19.4250,13.69235646
19.4300,13.76539772
19.4350,13.83846884
19.4400,13.91120858
19.4450,13.98366288
19.4500,14.05564297
19.4550,14.12688638
19.4600,14.19714252
19.4650,14.26619672
19.4700,14.33404857
19.4750,14.4006567
19.4800,14.46650619
19.4850,14.53161206
19.4900,14.59658032
19.4950,14.66166021
19.5000,14.72685936
19.5050,14.79238641
19.5100,14.85807746
19.5150,14.92391735
19.5200,14.9894872
19.5250,15.05487635
19.5300,15.12022359
19.5350,15.18561745
19.5400,15.25118403
19.5450,15.3168877
19.5500,15.38323908
19.5550,15.45038774
19.5600,15.51848625
19.5650,15.58783491
19.5700,15.65869264
19.5750,15.73095011
19.5800,15.80464768
19.5850,15.87969748
19.5900,15.95582993
19.5950,16.03295072
19.6000,16.1112764
19.6050,16.19071187
19.6100,16.27119629
19.6150,16.35280283
19.6200,16.43579132
19.6250,16.52007763
19.6300,16.60585935
19.6350,16.69302713
19.6400,16.78146262
19.6450,16.87107313
19.6500,16.96168847
19.6550,17.05297965
19.6600,17.14492869
19.6650,17.23746589
19.6700,17.33058674
19.6750,17.42453324
19.6800,17.519472
19.6850,17.6154228
19.6900,17.71260968
19.6950,17.81095926
19.7000,17.91026474
19.7050,18.01052638
19.7100,18.11123652
19.7150,18.21253661
19.7200,18.31399294
19.7250,18.41507328
19.7300,18.51554521
19.7350,18.61518014
19.7400,18.71401056
19.7450,18.81185914
19.7500,18.90872506
19.7550,19.00467496
19.7600,19.09976299
19.7650,19.19424446
19.7700,19.28800377
19.7750,19.38121494
19.7800,19.47355571
19.7850,19.56535338
19.7900,19.6563718
19.7950,19.74642087
19.8000,19.83592097
19.8050,19.92476261
19.8100,20.01350045
19.8150,20.10215375
19.8200,20.19127375
19.8250,20.28108845
19.8300,20.37182198
19.8350,20.46344326
19.8400,20.55597414
19.8450,20.64960873
19.8500,20.74383587
19.8550,20.838631
19.8600,20.93392277
19.8650,21.02967753
19.8700,21.12592495
19.8750,21.22309324
19.8800,21.32112275
19.8850,21.42018119
19.8900,21.5203607
19.8950,21.62178758
19.9000,21.72443559
19.9050,21.82828083
19.9100,21.93329217
19.9150,22.03900098
19.9200,22.14520997
19.9250,22.25194886
19.9300,22.35876066
19.9350,22.46544858
19.9400,22.57195888
19.9450,22.67780633
19.9500,22.78290664
19.9550,22.88694217
19.9600,22.98987764
19.9650,23.09164811
19.9700,23.19232132
19.9750,23.29165497
19.9800,23.38937085
19.9850,23.48527981
19.9900,23.57902444
19.9950,23.67047364
20.0000,23.75988338
20.0050,23.84706484
20.0100,23.93244235
20.0150,24.01609637
20.0200,24.09844035
20.0250,24.17933524
20.0300,24.25893235
20.0350,24.33722781
20.0400,24.4141102
20.0450,24.48938612
20.0500,24.56309276
20.0550,24.63509809
20.0600,24.70559925
20.0650,24.77463066
20.0700,24.84202695
20.0750,24.90785513
20.0800,24.97215886
20.0850,25.03458972
20.0900,25.09541773
20.0950,25.15499198
20.1000,25.21325843
20.1050,25.27078636
20.1100,25.32758686
20.1150,25.38405273
20.1200,25.44032005
20.1250,25.49658623
20.1300,25.5530543
20.1350,25.60997009
20.1400,25.66757812
20.1450,25.72618598
20.1500,25.78603093
20.1550,25.8472503
20.1600,25.91020346
20.1650,25.97484056
20.1700,26.04150287
20.1750,26.11010053
20.1800,26.18090552
20.1850,26.25395394
20.1900,26.32945398
20.1950,26.40723594
20.2000,26.48714908
20.2050,26.5690732
20.2100,26.65298173
20.2150,26.73916056
20.2200,26.82746925
20.2250,26.91760114
20.2300,27.00984822
20.2350,27.10397857
20.2400,27.20010626
20.2450,27.2980567
20.2500,27.39761182
20.2550,27.49879957
20.2600,27.60134086
20.2650,27.70511091
20.2700,27.80968726
20.2750,27.91491554
20.2800,28.0206138
20.2850,28.12670672
20.2900,28.23330012
20.2950,28.34008071
20.3000,28.44688004
20.3050,28.5535388
20.3100,28.66011413
20.3150,28.76641077
20.3200,28.87223325
20.3250,28.9778163
20.3300,29.08297476
20.3350,29.18765661
20.3400,29.29168511
20.3450,29.39519397
20.3500,29.49796944
20.3550,29.59991894
20.3600,29.70074337
20.3650,29.80032853
20.3700,29.89854266
20.3750,29.9951864
20.3800,30.09015302
20.3850,30.18361952
20.3900,30.27559795
20.3950,30.36598804
20.4000,30.4548944
20.4050,30.542187
20.4100,30.62809226
20.4150,30.71265626
20.4200,30.79599283
20.4250,30.87791371
20.4300,30.95845481
20.4350,31.03784986
20.4400,31.11595916
20.4450,31.192824
20.4500,31.2687654
20.4550,31.34388563
20.4600,31.41811665
20.4650,31.4919552
20.4700,31.56527651
20.4750,31.63792547
20.4800,31.70999228
20.4850,31.78129045
20.4900,31.85197773
20.4950,31.92226205
20.5000,31.99232548
20.5050,32.06210874
20.5100,32.13155615
20.5150,32.20074851
20.5200,32.2697474
20.5250,32.33854275
20.5300,32.40691726
20.5350,32.47509392
20.5400,32.54306153
20.5450,32.61109957
20.5500,32.67941161
20.5550,32.74783357
20.5600,32.8164719
20.5650,32.88511834
20.5700,32.95383758
20.5750,33.02261217
20.5800,33.09157968
20.5850,33.16055171
20.5900,33.22931541
20.5950,33.29786001
20.6000,33.36610659
20.6050,33.43418411
20.6100,33.501723
20.6150,33.56860958
20.6200,33.63478791
20.6250,33.7001023
20.6300,33.7646176
20.6350,33.82794416
20.6400,33.89032507
20.6450,33.95158358
20.6500,34.01170103
20.6550,34.07051267
20.6600,34.12801963
20.6650,34.18399405
20.6700,34.23880916
20.6750,34.29268323
20.6800,34.34573383
20.6850,34.39790791
20.6900,34.44944703
20.6950,34.50013544
20.7000,34.55001004
20.7050,34.59886978
20.7100,34.64651793
20.7150,34.69313892
20.7200,34.73855179
20.7250,34.78325649
20.7300,34.8271757
20.7350,34.87034204
20.7400,34.91293636
20.7450,34.95482445
20.7500,34.9959892
20.7550,35.03656109
20.7600,35.0767669
20.7650,35.11624334
20.7700,35.15533099
20.7750,35.19393391
20.7800,35.23218274
20.7850,35.27011382
20.7900,35.30756184
20.7950,35.34447349
20.8000,35.38080155
20.8050,35.41677469
20.8100,35.45242669
20.8150,35.48760835
20.8200,35.52244521
20.8250,35.55718136
20.8300,35.59198162
20.8350,35.62667103
20.8400,35.66122578
20.8450,35.69551341
20.8500,35.72964077
20.8550,35.76375231
20.8600,35.79771644
20.8650,35.83149137
20.8700,35.86509074
20.8750,35.89842122
20.8800,35.93136473
20.8850,35.96390622
20.8900,35.9960045
20.8950,36.0278763
20.9000,36.05935827
20.9050,36.09024512
20.9100,36.12077743
20.9150,36.15088614
20.9200,36.18034909
20.9250,36.20904518
20.9300,36.23685757
20.9350,36.2642181
20.9400,36.29075391
20.9450,36.31660163
20.9500,36.34173397
20.9550,36.3661242
20.9600,36.38990529
20.9650,36.41312051
20.9700,36.43578772
20.9750,36.45757903
20.9800,36.47840192
20.9850,36.49833534
20.9900,36.51687001
20.9950,36.5341675
21.0000,36.55019926
21.0050,36.56524059
21.0100,36.57931067
21.0150,36.59216307
21.0200,36.60402942
21.0250,36.61440971
21.0300,36.62326935
21.0350,36.63033869
21.0400,36.63581796
21.0450,36.63955322
21.0500,36.64163624
21.0550,36.64182478
21.0600,36.640131
21.0650,36.63682508
21.0700,36.63167674
21.0750,36.6250933
21.0800,36.61697646
21.0850,36.6075029
21.0900,36.59666379
21.0950,36.58487103
21.1000,36.57215872
21.1050,36.55868682
21.1100,36.54486567
21.1150,36.5307995
21.1200,36.5165703
21.1250,36.50240849
21.1300,36.48835375
21.1350,36.47446381
21.1400,36.46094749
21.1450,36.44812249
21.1500,36.43586674
21.1550,36.42429743
21.1600,36.41359768
21.1650,36.40377095
21.1700,36.39475356
21.1750,36.38665083
21.1800,36.37915277
21.1850,36.37229072
21.1900,36.36611138
21.1950,36.36025872
21.2000,36.35466397
21.2050,36.34940154
21.2100,36.34420204
21.2150,36.33913037
21.2200,36.33407179
21.2250,36.32891196
21.2300,36.32336612
21.2350,36.31716194
21.2400,36.3104502
21.2450,36.30315326
21.2500,36.29509658
21.2550,36.28638895
21.2600,36.27686803
21.2650,36.26638954
21.2700,36.25491629
21.2750,36.24242448
21.2800,36.22895896
21.2850,36.21436317
21.2900,36.19879629
21.2950,36.18226158
21.3000,36.16460485
21.3050,36.14553155
21.3100,36.12508247
21.3150,36.10331859
21.3200,36.07992699
21.3250,36.05522619
21.3300,36.02916853
21.3350,36.00199814
21.3400,35.97362433
21.3450,35.94422855
21.3500,35.91367635
21.3550,35.88211997
21.3600,35.84962397
21.3650,35.8161194
21.3700,35.78180434
21.3750,35.74654224
21.3800,35.71032242
21.3850,35.67306227
21.3900,35.63520007
21.3950,35.5967133
21.4000,35.55762528
21.4050,35.5180286
21.4100,35.47769803
21.4150,35.43668894
21.4200,35.39494047
21.4250,35.35246458
21.4300,35.309269
21.4350,35.26559586
21.4400,35.22127711
21.4450,35.17630517
21.4500,35.13056378
21.4550,35.0841889
21.4600,35.03695506
21.4650,34.98899084
21.4700,34.94014114
21.4750,34.89036688
21.4800,34.83968133
21.4850,34.78820051
21.4900,34.7357673
21.4950,34.68259157
21.5000,34.62857643
21.5050,34.57364451
21.5100,34.51782139
21.5150,34.46088372
21.5200,34.40298345
21.5250,34.34416865
21.5300,34.28453111
21.5350,34.22413466
21.5400,34.1628837
21.5450,34.10054086
21.5500,34.03716346
21.5550,33.97297478
21.5600,33.90779272
21.5650,33.84178514
21.5700,33.77492294
21.5750,33.70719005
21.5800,33.63886472
21.5850,33.57001141
21.5900,33.50061496
21.5950,33.43070934
21.6000,33.36026552
21.6050,33.28938153
21.6100,33.21808051
21.6150,33.14646166
21.6200,33.07467294
21.6250,33.00265133
21.6300,32.93043704
21.6350,32.85817006
21.6400,32.78573198
21.6450,32.71316592
21.6500,32.64061792
21.6550,32.56810406
21.6600,32.4954493
21.6650,32.4228332
21.6700,32.35013031
21.6750,32.27740119
21.6800,32.2046885
21.6850,32.13219009
21.6900,32.05975681
21.6950,31.98727486
21.7000,31.9146717
21.7050,31.84190431
21.7100,31.76890456
21.7150,31.69577362
21.7200,31.62250517
21.7250,31.54882718
21.7300,31.47478761
21.7350,31.40036562
21.7400,31.32552839
21.7450,31.25008963
21.7500,31.17411204
21.7550,31.09738138
21.7600,31.01994183
21.7650,30.94161037
21.7700,30.86226646
21.7750,30.78194821
21.7800,30.70072255
21.7850,30.61865681
21.7900,30.53581819
21.7950,30.45199785
21.8000,30.36732779
21.8050,30.28171949
21.8100,30.19537526
21.8150,30.10828414
21.8200,30.02054544
21.8250,29.93190217
21.8300,29.84240017
21.8350,29.75193338
21.8400,29.66035274
21.8450,29.56798681
21.8500,29.47485817
21.8550,29.38081319
21.8600,29.28584545
21.8650,29.18980914
21.8700,29.09264777
21.8750,28.99473163
21.8800,28.89568572
21.8850,28.79563453
21.8900,28.6946746
21.8950,28.59300602
21.9000,28.49079347
21.9050,28.38798253
21.9100,28.28447553
21.9150,28.18049027
21.9200,28.07569441
21.9250,27.97021142
21.9300,27.86399893
21.9350,27.75671303
21.9400,27.64849725
21.9450,27.53945835
21.9500,27.42940274
21.9550,27.31834461
21.9600,27.2062942
21.9650,27.09298068
21.9700,26.97835506
21.9750,26.86228746
21.9800,26.74474558
21.9850,26.62558173
21.9900,26.50458655
21.9950,26.38188207
22.0000,26.25756822
22.0050,26.13180196
22.0100,26.00467947
22.0150,25.87625795
22.0200,25.74678766
22.0250,25.61636277
22.0300,25.48510255
22.0350,25.3532092
22.0400,25.22069453
22.0450,25.08774335
22.0500,24.95437255
22.0550,24.82055367
22.0600,24.68631429
22.0650,24.55164219
22.0700,24.41674434
22.0750,24.28168608
22.0800,24.14649448
22.0850,24.01106322
22.0900,23.87561634
22.0950,23.74020972
22.1000,23.60503097
22.1050,23.47019672
22.1100,23.33555794
22.1150,23.20137038
22.1200,23.0676414
22.1250,22.93462731
22.1300,22.80231987
22.1350,22.6707861
22.1400,22.54046415
22.1450,22.41103857
22.1500,22.28245703
22.1550,22.15492878
22.1600,22.02828472
22.1650,21.9027155
22.1700,21.77806941
22.1750,21.65392152
22.1800,21.53035391
22.1850,21.40717315
22.1900,21.28436844
22.1950,21.16163283
22.2000,21.0389097
22.2050,20.91615215
22.2100,20.79340282
22.2150,20.67050256
22.2200,20.54757354
22.2250,20.42456862
22.2300,20.30158403
22.2350,20.17872751
22.2400,20.05592102
22.2450,19.93287622
22.2500,19.80979356
22.2550,19.68646285
22.2600,19.56304158
22.2650,19.43962147
22.2700,19.31623148
22.2750,19.19311026
22.2800,19.07030503
22.2850,18.9480792
22.2900,18.8265346
22.2950,18.70580267
22.3000,18.58599962
22.3050,18.46721742
22.3100,18.34973917
22.3150,18.23358378
22.3200,18.11866844
22.3250,18.00517867
22.3300,17.8931256
22.3350,17.78228481
22.3400,17.67272086
22.3450,17.56437462
22.3500,17.45742952
22.3550,17.35173562
22.3600,17.24726734
22.3650,17.14422442
22.3700,17.04270084
22.3750,16.94252126
22.3800,16.84355804
22.3850,16.74556154
22.3900,16.64831238
22.3950,16.55199117
22.4000,16.45637197
22.4050,16.36149955
22.4100,16.26738208
22.4150,16.17392185
22.4200,16.08113589
22.4250,15.98896807
22.4300,15.89749699
22.4350,15.80685445
22.4400,15.71679032
22.4450,15.62747095
22.4500,15.53892666
22.4550,15.45108644
22.4600,15.36425642
22.4650,15.27858439
22.4700,15.19415169
22.4750,15.11110281
22.4800,15.02912152
22.4850,14.94813262
22.4900,14.868147
22.4950,14.78909459
22.5000,14.7107622
22.5050,14.63313272
22.5100,14.55618378
22.5150,14.47986913
22.5200,14.40430433
22.5250,14.32943421
22.5300,14.25531366
22.5350,14.1819813
22.5400,14.10952092
22.5450,14.03819766
22.5500,13.968071
22.5550,13.89939751
22.5600,13.8322547
22.5650,13.76676793
22.5700,13.70306919
22.5750,13.64114523
22.5800,13.58121617
22.5850,13.52322679
22.5900,13.46729984
22.5950,13.41317624
22.6000,13.36100543
22.6050,13.31021412
22.6100,13.26060294
22.6150,13.21228877
22.6200,13.16533605
22.6250,13.11986596
22.6300,13.07566443
22.6350,13.03267786
22.6400,12.99056322
22.6450,12.94934964
22.6500,12.90900874
22.6550,12.86962306
22.6600,12.83112058
22.6650,12.79345851
22.6700,12.75663344
22.6750,12.72100587
22.6800,12.68689511
22.6850,12.65439736
22.6900,12.6235972
22.6950,12.5942514
22.7000,12.56640497
22.7050,12.53995083
22.7100,12.51487869
22.7150,12.49111021
22.7200,12.46833164
22.7250,12.44677074
22.7300,12.42613768
22.7350,12.40615544
22.7400,12.38678253
22.7450,12.36764049
22.7500,12.34870538
22.7550,12.32950229
22.7600,12.30983921
22.7650,12.28926248
22.7700,12.26728201
22.7750,12.24374887
22.7800,12.21851929
22.7850,12.19150952
22.7900,12.16239304
22.7950,12.13087839
22.8000,12.09691226
22.8050,12.06019876
22.8100,12.0204659
22.8150,11.97751726
22.8200,11.93117481
22.8250,11.88143513
22.8300,11.82806644
22.8350,11.77072189
22.8400,11.70943484
22.8450,11.64410843
22.8500,11.57469203
22.8550,11.5011536
22.8600,11.42379731
22.8650,11.34269065
22.8700,11.25836863
22.8750,11.17110149
22.8800,11.08131272
22.8850,10.98945573
22.8900,10.89592083
22.8950,10.80128763
22.9000,10.7059019
22.9050,10.6106217
22.9100,10.5158763
22.9150,10.42211103
22.9200,10.32963213
22.9250,10.23866218
22.9300,10.14951154
22.9350,10.06242659
22.9400,9.977965831
22.9450,9.896339429
22.9500,9.817567917
22.9550,9.741815904
22.9600,9.669369415
22.9650,9.60006927
22.9700,9.53398132
22.9750,9.470732531
22.9800,9.41039564
22.9850,9.352857654
22.9900,9.298191408
22.9950,9.246378885
23.0000,9.197326275
23.0050,9.150939495
23.0100,9.107047889
23.0150,9.065429793
23.0200,9.026166756
23.0250,8.988733078
23.0300,8.953188789
23.0350,8.919074121
23.0400,8.886143898
23.0450,8.854178249
23.0500,8.823077825
23.0550,8.792555549
23.0600,8.762420386
23.0650,8.732447263
23.0700,8.70267578
23.0750,8.672706875
23.0800,8.642618749
23.0850,8.612362613
23.0900,8.581823452
23.0950,8.551109845
23.1000,8.520272696
23.1050,8.489401952
23.1100,8.458603274
23.1150,8.428010849
23.1200,8.398013982
23.1250,8.368610293
23.1300,8.340125167
23.1350,8.31303075
23.1400,8.28724048
23.1450,8.262982993
23.1500,8.240503002
23.1550,8.219988968
23.1600,8.201326977
23.1650,8.184705321
23.1700,8.16993295
23.1750,8.156879661
23.1800,8.145469378
23.1850,8.135497712
23.1900,8.126927798
23.1950,8.119764357
23.2000,8.113927004
23.2050,8.109296861
23.2100,8.105930064
23.2150,8.103470689
23.2200,8.101869161
23.2250,8.100928404
23.2300,8.100837241
23.2350,8.101553458
23.2400,8.103013593
23.2450,8.105144585
23.2500,8.107806967
23.2550,8.111215539
23.2600,8.115244995
23.2650,8.119996712
23.2700,8.125160815
23.2750,8.130829037
23.2800,8.13673137
23.2850,8.142960084
23.2900,8.149175953
23.2950,8.15536773
23.3000,8.161474736
23.3050,8.167427186
23.3100,8.173000526
23.3150,8.178240095
23.3200,8.182894879
23.3250,8.186898289
23.3300,8.19013519
23.3350,8.192834945
23.3400,8.194704209
23.3450,8.196103776
23.3500,8.196669316
23.3550,8.196775257
23.3600,8.196413435
23.3650,8.195650318
23.3700,8.194648168
23.3750,8.193465881
23.3800,8.192133439
23.3850,8.190848278
23.3900,8.189541498
23.3950,8.188351273
23.4000,8.18742157
23.4050,8.187027113
23.4100,8.187393065
23.4150,8.188313582
23.4200,8.18965355
23.4250,8.191320672
23.4300,8.193131761
23.4350,8.194737792
23.4400,8.196153874
23.4450,8.197228217
23.4500,8.197476824
23.4550,8.196808983
23.4600,8.194969289
23.4650,8.191956921
23.4700,8.187406554
23.4750,8.181420682
23.4800,8.173894272
23.4850,8.164765048
23.4900,8.15414018
23.4950,8.142081821
23.5000,8.128345077
23.5050,8.11304414
23.5100,8.096179372
23.5150,8.077959879
23.5200,8.058501248
23.5250,8.038088338
23.5300,8.01687254
23.5350,7.995048338
23.5400,7.972792244
23.5450,7.949983625
23.5500,7.926640944
23.5550,7.902686718
23.5600,7.878063446
23.5650,7.852492066
23.5700,7.826165239
23.5750,7.798858813
23.5800,7.770716967
23.5850,7.74152103
23.5900,7.711459404
23.5950,7.680750188
23.6000,7.649453376
23.6050,7.617503425
23.6100,7.58506508
23.6150,7.552042032
23.6200,7.51834534
23.6250,7.484274417
23.6300,7.449864474
23.6350,7.415206905
23.6400,7.380711879
23.6450,7.346239798
23.6500,7.312340757
23.6550,7.278978498
23.6600,7.246429028
23.6650,7.214981829
23.6700,7.184715098
23.6750,7.156137216
23.6800,7.129361342
23.6850,7.104204981
23.6900,7.080816111
23.6950,7.059251632
23.7000,7.039246944
23.7050,7.020645309
23.7100,7.003064521
23.7150,6.986323493
23.7200,6.970311214
23.7250,6.954956618
23.7300,6.940576051
23.7350,6.927234153
23.7400,6.914973159
23.7450,6.903336883
23.7500,6.892031678
23.7550,6.880636165
23.7600,6.868904849
23.7650,6.856430133
23.7700,6.843056271
23.7750,6.82856869
23.7800,6.812585008
23.7850,6.79491321
23.7900,6.775289258
23.7950,6.75358822
23.8000,6.730155544
23.8050,6.704878575
23.8100,6.677562891
23.8150,6.648017889
23.8200,6.615948725
23.8250,6.58138615
23.8300,6.544174662
23.8350,6.50424465
23.8400,6.461533707
23.8450,6.416438564
23.8500,6.369243261
23.8550,6.320075446
23.8600,6.269138922
23.8650,6.217038616
23.8700,6.163959212
23.8750,6.110412039
23.8800,6.056343417
23.8850,6.001957342
23.8900,5.947206475
23.8950,5.892095854
23.9000,5.83663599
23.9050,5.781101262
23.9100,5.725868211
23.9150,5.671163376
23.9200,5.617555377
23.9250,5.564988716
23.9300,5.513851345
23.9350,5.46435079
23.9400,5.416481375
23.9450,5.370396258
23.9500,5.326007739
23.9550,5.283373818
23.9600,5.242542138
23.9650,5.203455497
23.9700,5.165991735
23.9750,5.129851103
23.9800,5.094996895
23.9850,5.061324514
23.9900,5.029106511
23.9950,4.998246597
24.0000,4.968917099
24.0050,4.941074766
24.0100,4.91501895
24.0150,4.890949974
24.0200,4.86891416
24.0250,4.848779814
24.0300,4.830180607
24.0350,4.812921002
24.0400,4.796809849
24.0450,4.782090105
24.0500,4.768942051
24.0550,4.757264965
24.0600,4.747140589
24.0650,4.738241552
24.0700,4.730485601
24.0750,4.723577393
24.0800,4.717609506
24.0850,4.712500506
24.0900,4.707978512
24.0950,4.703717413
24.1000,4.699293895
24.1050,4.694709365
24.1100,4.689889601
24.1150,4.684837545
24.1200,4.679713011
24.1250,4.674230877
24.1300,4.668337278
24.1350,4.662147595
24.1400,4.656012771
24.1450,4.64967254
24.1500,4.643353774
24.1550,4.63718214
24.1600,4.631350796
24.1650,4.625951145
24.1700,4.620994001
24.1750,4.616496352
24.1800,4.612905056
24.1850,4.610261173
24.1900,4.609052638
24.1950,4.609170989
24.2000,4.611111279
24.2050,4.614847903
24.2100,4.620456323
24.2150,4.628040402
24.2200,4.637438934
24.2250,4.648750509
24.2300,4.661978258
24.2350,4.6771923
24.2400,4.694484299
24.2450,4.71416447
24.2500,4.736426875
24.2550,4.761368097
24.2600,4.789057515
24.2650,4.819585298
24.2700,4.853251558
24.2750,4.890423102
24.2800,4.931126928
24.2850,4.975797391
24.2900,5.024097773
24.2950,5.076094713
24.3000,5.131778723
24.3050,5.191093701
24.3100,5.25376403
24.3150,5.319584273
24.3200,5.388215579
24.3250,5.459379485
24.3300,5.532712392
24.3350,5.607787827
24.3400,5.684230322
24.3450,5.761409351
24.3500,5.839187371
24.3550,5.917338344
24.3600,5.995461279
24.3650,6.073345179
24.3700,6.15070723
24.3750,6.227402429
24.3800,6.302950333
24.3850,6.377156228
24.3900,6.449822456
24.3950,6.521006771
24.4000,6.590526005
24.4050,6.658039406
24.4100,6.72351986
24.4150,6.787059391
24.4200,6.848593676
24.4250,6.908105864
24.4300,6.965373469
24.4350,7.020336904
24.4400,7.072554959
24.4450,7.121840565
24.4500,7.16787259
24.4550,7.21022681
24.4600,7.248697133
24.4650,7.282993772
24.4700,7.313169663
24.4750,7.338990537
24.4800,7.360278417
24.4850,7.377121244
24.4900,7.389401943
24.4950,7.39720549
24.5000,7.400159455
24.5050,7.398723889
24.5100,7.392858034
24.5150,7.38258121
24.5200,7.368289214
24.5250,7.350090696
24.5300,7.328238849
24.5350,7.302811004
24.5400,7.274014249
24.5450,7.242064982
24.5500,7.20671901
24.5550,7.168367459
24.5600,7.127015326
24.5650,7.082798185
24.5700,7.035902269
24.5750,6.986582227
24.5800,6.934969904
24.5850,6.88119076
24.5900,6.826020305
24.5950,6.769885822
24.6000,6.713474182
24.6050,6.657329649
24.6100,6.602493104
24.6150,6.549593593
24.6200,6.499506266
24.6250,6.453099336
24.6300,6.411164536
24.6350,6.374587581
24.6400,6.343943755
24.6450,6.319709348
24.6500,6.302127334
24.6550,6.291605949
24.6600,6.288112611
24.6650,6.291599131
24.6700,6.302105068
24.6750,6.319319211
24.6800,6.343231364
24.6850,6.373338178
24.6900,6.40936091
24.6950,6.450727261
24.7000,6.496893685
24.7050,6.547368127
24.7100,6.601652288
24.7150,6.659107061
24.7200,6.719171635
24.7250,6.781232721
24.7300,6.845207362
24.7350,6.910550823
24.7400,6.976823437
24.7450,7.04392424
24.7500,7.111558444
24.7550,7.179486179
24.7600,7.247514442
24.7650,7.315594876
24.7700,7.38334586
24.7750,7.450527819
24.7800,7.516519591
24.7850,7.581104679
24.7900,7.64386385
24.7950,7.704531881
24.8000,7.762800378
24.8050,7.818050849
24.8100,7.870110382
24.8150,7.918669068
24.8200,7.963418825
24.8250,8.003965311
24.8300,8.039962248
24.8350,8.071301398
24.8400,8.097906054
24.8450,8.11941021
24.8500,8.136080563
24.8550,8.147886306
24.8600,8.155014663
24.8650,8.157854414
24.8700,8.156585175
24.8750,8.151406961
24.8800,8.143044437
24.8850,8.131901516
24.8900,8.118243956
24.8950,8.102587207
24.9000,8.085113476
24.9050,8.066310771
24.9100,8.046294537
24.9150,8.025501523
24.9200,8.004248763
24.9250,7.982737764
24.9300,7.960974828
24.9350,7.939337192
24.9400,7.917743444
24.9450,7.89659513
24.9500,7.875845991
24.9550,7.855520877
24.9600,7.835684142
24.9650,7.816562516
24.9700,7.798058465
24.9750,7.780290587
24.9800,7.763079564
24.9850,7.746492539
24.9900,7.730693796
24.9950,7.715570397
25.0000,7.701560116
25.0050,7.688812308
25.0100,7.677396707
25.0150,7.667446051
25.0200,7.659031977
25.0250,7.652479336
25.0300,7.64765999
25.0350,7.644866339
25.0400,7.644306317
25.0450,7.645965171
25.0500,7.649767901
25.0550,7.656028263
25.0600,7.664646515
25.0650,7.675227077
25.0700,7.687615272
25.0750,7.701574407
25.0800,7.717163676
25.0850,7.734203845
25.0900,7.752471679
25.0950,7.771912426
25.1000,7.792312325
25.1050,7.813385109
25.1100,7.834613894
25.1150,7.855883299
25.1200,7.876796474
25.1250,7.897622023
25.1300,7.918198527
25.1350,7.938508406
25.1400,7.958364819
25.1450,7.978014904
25.1500,7.997216368
25.1550,8.015906421
25.1600,8.034220984
25.1650,8.051738241
25.1700,8.068654647
25.1750,8.084833967
25.1800,8.100222014
25.1850,8.114684899
25.1900,8.128305476
25.1950,8.136030394
25.2000,8.142702067
25.2050,8.148239958
25.2100,8.152566657
25.2150,8.155615212
25.2200,8.157335156
25.2250,8.15769633
25.2300,8.156690839
25.2350,8.154334202
25.2400,8.150666949
25.2450,8.145757269
25.2500,8.139704163
25.2550,8.132639065
25.2600,8.124724067
25.2650,8.116146484
25.2700,8.107110836
25.2750,8.097830186
25.2800,8.088518823
25.2850,8.079386682
25.2900,8.070634593
25.2950,8.062449721
25.3000,8.055000545
25.3050,8.048430623
25.3100,8.042851203
25.3150,8.038332685
25.3200,8.034895155
25.3250,8.032499625
25.3300,8.031041211
25.3350,8.030344445
