type,name,time_units,begin_time,frequency,count,units
signal_3d,"Noraxon MyoMotion-Segments-Forearm RT-Sensor Acceleration","s",0.0000,200,5068,"mG"

time,x,y,z
0.0000,-999.0234375,170.4101563,133.7890625
0.0050,-993.1640625,168.4570313,127.9296875
0.0100,-993.6523438,164.5507813,123.046875
0.0150,-992.6757813,162.5976563,128.4179688
0.0200,-1003.90625,158.203125,126.4648438
0.0250,-999.5117188,166.015625,129.3945313
0.0300,-1004.394531,164.5507813,139.6484375
0.0350,-1002.441406,170.4101563,121.5820313
0.0400,-1010.253906,167.4804688,149.4140625
0.0450,-1003.90625,181.1523438,145.5078125
0.0500,-1006.835938,177.734375,145.9960938
0.0550,-1005.371094,188.9648438,159.6679688
0.0600,-1011.71875,188.9648438,154.7851563
0.0650,-1003.90625,195.8007813,156.25
0.0700,-1002.441406,196.7773438,156.25
0.0750,-979.0039063,209.9609375,159.1796875
0.0800,-985.3515625,199.7070313,167.4804688
0.0850,-969.7265625,210.4492188,167.4804688
0.0900,-962.4023438,217.7734375,169.921875
0.0950,-966.3085938,214.3554688,165.0390625
0.1000,-961.4257813,227.5390625,168.9453125
0.1050,-955.078125,231.4453125,171.3867188
0.1100,-947.7539063,234.8632813,170.8984375
0.1150,-936.5234375,243.1640625,166.9921875
0.1200,-933.59375,237.3046875,166.5039063
0.1250,-924.3164063,234.8632813,165.0390625
0.1300,-913.0859375,242.1875,169.4335938
0.1350,-915.5273438,228.515625,162.5976563
0.1400,-911.6210938,221.6796875,166.9921875
0.1450,-904.296875,216.3085938,162.5976563
0.1500,-903.3203125,211.4257813,168.9453125
0.1550,-900.390625,200.6835938,162.5976563
0.1600,-905.7617188,194.3359375,163.5742188
0.1650,-914.5507813,186.0351563,156.7382813
0.1700,-916.015625,183.1054688,159.6679688
0.1750,-922.8515625,176.2695313,166.5039063
0.1800,-927.2460938,173.3398438,157.2265625
0.1850,-936.5234375,164.5507813,159.6679688
0.1900,-947.265625,159.1796875,159.1796875
0.1950,-946.2890625,158.6914063,152.34375
0.2000,-942.8710938,157.7148438,141.1132813
0.2050,-943.8476563,150.390625,158.203125
0.2100,-949.21875,143.0664063,125.4882813
0.2150,-947.265625,136.2304688,128.90625
0.2200,-959.9609375,122.0703125,119.6289063
0.2250,-971.1914063,113.28125,99.609375
0.2300,-967.7734375,111.328125,103.0273438
0.2350,-976.0742188,112.3046875,76.66015625
0.2400,-978.0273438,110.3515625,87.40234375
0.2450,-974.1210938,115.234375,86.9140625
0.2500,-976.0742188,121.5820313,90.33203125
0.2550,-968.75,125.9765625,83.49609375
0.2600,-975.0976563,126.953125,86.9140625
0.2650,-968.2617188,132.8125,82.51953125
0.2700,-963.3789063,132.3242188,98.14453125
0.2750,-970.2148438,130.3710938,106.4453125
0.2800,-969.7265625,134.2773438,100.5859375
0.2850,-961.9140625,144.0429688,115.234375
0.2900,-973.6328125,135.2539063,116.2109375
0.2950,-967.2851563,138.1835938,123.046875
0.3000,-967.7734375,140.625,119.140625
0.3050,-968.2617188,147.4609375,136.71875
0.3100,-965.8203125,149.4140625,128.4179688
0.3150,-958.984375,152.8320313,125
0.3200,-960.4492188,159.6679688,140.625
0.3250,-957.03125,164.5507813,132.3242188
0.3300,-954.1015625,180.1757813,126.4648438
0.3350,-959.4726563,188.9648438,128.4179688
0.3400,-962.4023438,205.5664063,144.53125
0.3450,-969.7265625,218.2617188,153.3203125
0.3500,-975.0976563,225.0976563,167.4804688
0.3550,-968.75,235.3515625,167.96875
0.3600,-966.3085938,251.4648438,180.6640625
0.3650,-970.703125,245.1171875,191.40625
0.3700,-967.2851563,251.953125,186.0351563
0.3750,-962.890625,252.9296875,200.6835938
0.3800,-971.1914063,256.8359375,188.9648438
0.3850,-973.6328125,254.3945313,187.0117188
0.3900,-971.6796875,256.3476563,186.5234375
0.3950,-974.1210938,247.5585938,184.0820313
0.4000,-980.9570313,243.6523438,168.9453125
0.4050,-985.8398438,235.8398438,170.8984375
0.4100,-983.8867188,236.8164063,173.3398438
0.4150,-992.1875,220.703125,164.5507813
0.4200,-991.2109375,217.2851563,166.015625
0.4250,-981.4453125,216.796875,146.9726563
0.4300,-983.8867188,203.125,151.8554688
0.4350,-976.5625,202.6367188,146.484375
0.4400,-978.0273438,192.8710938,130.3710938
0.4450,-976.5625,175.2929688,133.7890625
0.4500,-973.1445313,164.0625,126.4648438
0.4550,-973.6328125,152.34375,127.9296875
0.4600,-967.7734375,155.2734375,111.328125
0.4650,-970.703125,150.390625,113.7695313
0.4700,-969.2382813,148.4375,122.0703125
0.4750,-974.609375,144.53125,119.140625
0.4800,-963.3789063,156.7382813,117.6757813
0.4850,-968.75,150.8789063,102.5390625
0.4900,-966.3085938,160.15625,121.5820313
0.4950,-971.1914063,162.5976563,126.953125
0.5000,-970.703125,169.4335938,119.140625
0.5050,-968.2617188,171.3867188,124.5117188
0.5100,-968.2617188,171.875,125.9765625
0.5150,-963.8671875,171.875,110.8398438
0.5200,-962.4023438,175.78125,116.6992188
0.5250,-961.4257813,181.1523438,118.6523438
0.5300,-966.796875,187.9882813,125.4882813
0.5350,-965.3320313,193.359375,118.1640625
0.5400,-958.984375,203.125,138.671875
0.5450,-965.8203125,190.4296875,132.8125
0.5500,-960.4492188,195.3125,143.0664063
0.5550,-959.9609375,195.8007813,127.9296875
0.5600,-962.890625,203.125,139.6484375
0.5650,-976.0742188,197.7539063,137.2070313
0.5700,-972.1679688,208.4960938,142.578125
0.5750,-975.0976563,208.4960938,145.0195313
0.5800,-969.7265625,218.2617188,140.625
0.5850,-978.0273438,212.890625,156.7382813
0.5900,-972.1679688,216.3085938,145.5078125
0.5950,-977.0507813,213.8671875,154.7851563
0.6000,-976.0742188,215.8203125,145.0195313
0.6050,-973.1445313,219.7265625,142.0898438
0.6100,-974.609375,216.796875,150.8789063
0.6150,-967.7734375,214.84375,136.71875
0.6200,-970.2148438,214.3554688,131.8359375
0.6250,-968.75,210.9375,132.8125
0.6300,-975.0976563,209.4726563,127.4414063
0.6350,-972.65625,205.5664063,122.0703125
0.6400,-974.609375,197.265625,123.5351563
0.6450,-969.7265625,180.6640625,131.3476563
0.6500,-962.890625,169.4335938,127.4414063
0.6550,-961.4257813,151.3671875,141.6015625
0.6600,-970.2148438,134.765625,140.1367188
0.6650,-966.796875,124.0234375,133.7890625
0.6700,-967.7734375,118.6523438,135.2539063
0.6750,-973.1445313,116.2109375,134.765625
0.6800,-965.3320313,127.4414063,117.1875
0.6850,-963.8671875,136.2304688,120.1171875
0.6900,-955.5664063,169.921875,111.8164063
0.6950,-963.3789063,171.3867188,110.3515625
0.7000,-961.9140625,189.9414063,106.9335938
0.7050,-960.4492188,203.125,105.9570313
0.7100,-960.4492188,217.7734375,95.703125
0.7150,-958.4960938,225.0976563,94.23828125
0.7200,-966.796875,223.1445313,90.33203125
0.7250,-966.3085938,230.46875,99.12109375
0.7300,-974.1210938,228.515625,104.9804688
0.7350,-977.5390625,231.4453125,101.5625
0.7400,-975.5859375,239.2578125,110.8398438
0.7450,-978.0273438,239.7460938,112.7929688
0.7500,-979.0039063,237.7929688,115.234375
0.7550,-979.0039063,237.7929688,115.7226563
0.7600,-983.3984375,227.0507813,124.5117188
0.7650,-975.0976563,229.9804688,123.046875
0.7700,-977.5390625,229.9804688,125.4882813
0.7750,-973.6328125,242.1875,124.5117188
0.7800,-976.5625,252.4414063,116.6992188
0.7850,-979.9804688,260.2539063,124.0234375
0.7900,-967.7734375,283.203125,129.3945313
0.7950,-974.609375,277.34375,111.8164063
0.8000,-972.1679688,280.7617188,104.9804688
0.8050,-978.515625,272.9492188,101.0742188
0.8100,-980.9570313,270.5078125,100.0976563
0.8150,-977.0507813,266.1132813,108.3984375
0.8200,-977.5390625,261.71875,117.1875
0.8250,-990.234375,247.0703125,122.0703125
0.8300,-988.28125,244.6289063,145.9960938
0.8350,-986.328125,247.0703125,142.578125
0.8400,-980.9570313,248.046875,146.484375
0.8450,-980.46875,250.9765625,142.0898438
0.8500,-971.6796875,246.5820313,145.5078125
0.8550,-967.2851563,243.1640625,138.671875
0.8600,-972.65625,236.8164063,139.6484375
0.8650,-974.1210938,236.328125,127.4414063
0.8700,-982.9101563,234.375,131.3476563
0.8750,-996.09375,229.0039063,125
0.8800,-974.609375,250.9765625,128.4179688
0.8850,-980.46875,247.0703125,134.765625
0.8900,-975.0976563,248.5351563,132.3242188
0.8950,-972.65625,244.6289063,133.7890625
0.9000,-970.2148438,241.2109375,127.4414063
0.9050,-966.796875,244.6289063,115.234375
0.9100,-977.5390625,242.6757813,130.3710938
0.9150,-973.6328125,255.3710938,132.3242188
0.9200,-958.984375,271.484375,141.6015625
0.9250,-968.2617188,270.5078125,145.9960938
0.9300,-963.3789063,276.3671875,155.2734375
0.9350,-958.0078125,275.390625,159.6679688
0.9400,-960.9375,268.0664063,161.6210938
0.9450,-967.2851563,249.0234375,155.2734375
0.9500,-968.2617188,229.9804688,140.1367188
0.9550,-965.3320313,220.703125,136.71875
0.9600,-964.84375,227.0507813,128.4179688
0.9650,-968.75,240.234375,130.3710938
0.9700,-968.2617188,257.8125,129.8828125
0.9750,-964.3554688,271.9726563,139.1601563
0.9800,-961.4257813,291.5039063,136.71875
0.9850,-957.03125,302.734375,121.5820313
0.9900,-943.359375,307.6171875,134.2773438
0.9950,-946.2890625,293.9453125,118.1640625
1.0000,-956.0546875,278.8085938,107.9101563
1.0050,-951.171875,279.7851563,100.0976563
1.0100,-949.21875,275.8789063,104.0039063
1.0150,-950.6835938,282.2265625,95.21484375
1.0200,-956.5429688,292.4804688,100.0976563
1.0250,-955.5664063,290.5273438,110.8398438
1.0300,-956.5429688,288.5742188,109.375
1.0350,-950.6835938,298.828125,115.7226563
1.0400,-956.5429688,278.8085938,123.046875
1.0450,-964.84375,265.625,118.6523438
1.0500,-967.7734375,255.3710938,113.7695313
1.0550,-958.4960938,246.09375,127.4414063
1.0600,-957.03125,230.46875,112.7929688
1.0650,-949.7070313,226.0742188,111.328125
1.0700,-964.84375,213.3789063,122.0703125
1.0750,-961.9140625,225.0976563,114.7460938
1.0800,-955.078125,229.0039063,113.28125
1.0850,-962.4023438,220.703125,108.3984375
1.0900,-957.03125,223.1445313,97.65625
1.0950,-953.125,220.703125,80.078125
1.1000,-958.0078125,229.0039063,84.47265625
1.1050,-963.3789063,238.28125,77.1484375
1.1100,-971.1914063,240.234375,86.9140625
1.1150,-974.609375,257.3242188,79.58984375
1.1200,-975.5859375,269.0429688,90.8203125
1.1250,-976.5625,270.9960938,105.46875
1.1300,-962.890625,284.6679688,121.5820313
1.1350,-956.0546875,290.0390625,112.7929688
1.1400,-958.0078125,291.9921875,118.6523438
1.1450,-957.5195313,291.5039063,117.6757813
1.1500,-958.0078125,303.7109375,104.9804688
1.1550,-962.4023438,304.1992188,110.8398438
1.1600,-967.7734375,303.2226563,104.4921875
1.1650,-968.75,300.78125,91.30859375
1.1700,-959.4726563,304.1992188,94.7265625
1.1750,-947.7539063,309.5703125,102.0507813
1.1800,-938.9648438,321.2890625,87.40234375
1.1850,-944.3359375,320.8007813,89.84375
1.1900,-956.0546875,317.8710938,96.6796875
1.1950,-942.3828125,320.3125,96.6796875
1.2000,-957.03125,310.546875,99.609375
1.2050,-960.9375,327.1484375,90.33203125
1.2100,-958.984375,346.1914063,100.0976563
1.2150,-962.4023438,361.8164063,106.4453125
1.2200,-953.6132813,388.1835938,130.859375
1.2250,-957.03125,405.2734375,128.4179688
1.2300,-950.1953125,412.109375,149.4140625
1.2350,-950.1953125,400.390625,145.0195313
1.2400,-950.6835938,396.9726563,132.8125
1.2450,-948.2421875,390.625,127.9296875
1.2500,-944.3359375,381.3476563,122.5585938
1.2550,-940.9179688,375.9765625,105.46875
1.2600,-948.7304688,375.9765625,98.6328125
1.2650,-947.265625,385.2539063,106.9335938
1.2700,-941.40625,386.71875,106.4453125
1.2750,-934.5703125,390.625,112.3046875
1.2800,-928.2226563,398.9257813,110.3515625
1.2850,-924.8046875,414.0625,122.0703125
1.2900,-918.9453125,421.3867188,133.7890625
1.2950,-910.6445313,425.78125,122.0703125
1.3000,-915.0390625,419.921875,117.6757813
1.3050,-919.921875,437.9882813,104.9804688
1.3100,-921.875,463.3789063,111.328125
1.3150,-927.734375,471.1914063,115.7226563
1.3200,-932.6171875,467.2851563,128.4179688
1.3250,-938.4765625,461.4257813,126.953125
1.3300,-931.640625,469.7265625,125
1.3350,-916.015625,473.1445313,117.6757813
1.3400,-909.1796875,479.9804688,109.8632813
1.3450,-900.8789063,488.28125,107.421875
1.3500,-912.109375,481.9335938,116.2109375
1.3550,-894.0429688,494.6289063,119.140625
1.3600,-885.7421875,496.5820313,126.4648438
1.3650,-896.9726563,488.28125,133.7890625
1.3700,-897.9492188,497.5585938,125.9765625
1.3750,-901.8554688,491.2109375,125
1.3800,-894.0429688,487.3046875,122.0703125
1.3850,-881.3476563,479.9804688,139.6484375
1.3900,-883.7890625,480.46875,145.9960938
1.3950,-885.2539063,490.234375,146.484375
1.4000,-876.4648438,508.7890625,144.53125
1.4050,-873.5351563,528.3203125,147.9492188
1.4100,-857.421875,550.2929688,142.578125
1.4150,-861.8164063,567.3828125,145.9960938
1.4200,-870.1171875,568.359375,137.6953125
1.4250,-879.8828125,565.4296875,148.4375
1.4300,-870.1171875,574.21875,126.953125
1.4350,-864.7460938,571.7773438,129.3945313
1.4400,-856.9335938,581.5429688,122.5585938
1.4450,-848.1445313,582.5195313,132.3242188
1.4500,-860.8398438,567.3828125,121.5820313
1.4550,-850.5859375,565.4296875,120.1171875
1.4600,-840.3320313,572.265625,123.046875
1.4650,-838.8671875,571.2890625,129.3945313
1.4700,-838.3789063,577.1484375,129.8828125
1.4750,-841.3085938,582.03125,143.0664063
1.4800,-831.0546875,614.2578125,117.6757813
1.4850,-829.1015625,626.4648438,131.8359375
1.4900,-831.5429688,628.90625,126.953125
1.4950,-829.5898438,634.2773438,141.1132813
1.5000,-835.9375,637.2070313,137.2070313
1.5050,-826.6601563,635.7421875,135.2539063
1.5100,-813.9648438,644.0429688,139.6484375
1.5150,-802.734375,652.34375,144.53125
1.5200,-801.2695313,645.5078125,153.3203125
1.5250,-800.78125,653.3203125,152.8320313
1.5300,-809.0820313,652.8320313,144.0429688
1.5350,-812.5,655.7617188,142.578125
1.5400,-805.6640625,662.109375,134.765625
1.5450,-787.109375,673.3398438,121.5820313
1.5500,-781.25,684.5703125,128.90625
1.5550,-773.9257813,691.40625,139.1601563
1.5600,-770.9960938,685.546875,136.71875
1.5650,-769.0429688,679.6875,140.625
1.5700,-770.5078125,680.6640625,145.9960938
1.5750,-776.3671875,697.7539063,128.90625
1.5800,-766.1132813,718.75,145.9960938
1.5850,-762.2070313,719.2382813,150.390625
1.5900,-753.4179688,723.1445313,163.0859375
1.5950,-751.953125,710.4492188,159.1796875
1.6000,-760.2539063,712.890625,143.5546875
1.6050,-757.3242188,715.3320313,140.625
1.6100,-742.1875,734.375,144.53125
1.6150,-732.421875,747.5585938,158.6914063
1.6200,-721.1914063,740.234375,166.9921875
1.6250,-730.46875,720.2148438,162.5976563
1.6300,-748.5351563,716.796875,155.7617188
1.6350,-742.6757813,729.0039063,166.015625
1.6400,-727.0507813,739.7460938,153.8085938
1.6450,-709.4726563,743.1640625,152.8320313
1.6500,-706.5429688,740.234375,150.8789063
1.6550,-702.1484375,755.859375,146.484375
1.6600,-708.0078125,778.3203125,126.4648438
1.6650,-698.2421875,798.828125,132.8125
1.6700,-680.1757813,798.3398438,135.2539063
1.6750,-673.828125,777.8320313,153.8085938
1.6800,-683.1054688,765.625,164.0625
1.6850,-681.640625,770.0195313,145.9960938
1.6900,-678.7109375,781.7382813,158.6914063
1.6950,-667.4804688,791.015625,154.7851563
1.7000,-656.25,805.1757813,172.8515625
1.7050,-658.6914063,788.0859375,164.0625
1.7100,-656.7382813,779.296875,163.0859375
1.7150,-652.34375,768.5546875,157.2265625
1.7200,-645.5078125,769.53125,149.9023438
1.7250,-616.2109375,788.5742188,140.625
1.7300,-613.28125,798.828125,147.4609375
1.7350,-609.8632813,809.0820313,151.3671875
1.7400,-612.3046875,823.7304688,151.8554688
1.7450,-601.0742188,838.8671875,164.0625
1.7500,-592.7734375,845.703125,149.4140625
1.7550,-583.4960938,847.65625,148.4375
1.7600,-585.4492188,843.2617188,166.5039063
1.7650,-586.4257813,840.8203125,168.9453125
1.7700,-587.4023438,835.4492188,168.9453125
1.7750,-582.5195313,840.8203125,164.5507813
1.7800,-566.40625,841.796875,164.0625
1.7850,-562.0117188,826.171875,161.6210938
1.7900,-567.8710938,811.5234375,166.015625
1.7950,-563.4765625,814.453125,161.6210938
1.8000,-564.9414063,833.4960938,163.5742188
1.8050,-546.3867188,870.1171875,150.8789063
1.8100,-520.9960938,900.390625,157.2265625
1.8150,-518.0664063,906.25,166.9921875
1.8200,-527.34375,901.3671875,156.7382813
1.8250,-529.7851563,894.0429688,166.9921875
1.8300,-520.9960938,888.671875,152.8320313
1.8350,-515.1367188,873.5351563,134.2773438
1.8400,-503.90625,875,145.5078125
1.8450,-514.6484375,880.3710938,153.8085938
1.8500,-514.6484375,890.1367188,154.7851563
1.8550,-498.046875,895.0195313,151.8554688
1.8600,-477.5390625,893.0664063,166.5039063
1.8650,-466.3085938,876.4648438,152.34375
1.8700,-459.4726563,874.5117188,163.0859375
1.8750,-437.5,895.9960938,156.7382813
1.8800,-420.4101563,919.921875,162.5976563
1.8850,-408.203125,919.4335938,178.2226563
1.8900,-396.484375,916.9921875,170.8984375
1.8950,-390.625,909.6679688,174.8046875
1.9000,-378.4179688,918.4570313,174.3164063
1.9050,-376.4648438,918.9453125,164.0625
1.9100,-360.8398438,931.640625,176.2695313
1.9150,-354.4921875,940.9179688,174.3164063
1.9200,-346.1914063,939.453125,173.828125
1.9250,-334.9609375,941.40625,166.5039063
1.9300,-328.125,929.1992188,161.1328125
1.9350,-320.8007813,933.1054688,146.9726563
1.9400,-316.8945313,930.6640625,175.2929688
1.9450,-314.9414063,937.0117188,173.3398438
1.9500,-302.734375,971.6796875,184.0820313
1.9550,-298.828125,978.0273438,201.171875
1.9600,-298.828125,956.0546875,197.265625
1.9650,-283.203125,944.8242188,228.515625
1.9700,-278.8085938,932.6171875,192.3828125
1.9750,-256.3476563,940.9179688,196.2890625
1.9800,-261.2304688,935.0585938,201.171875
1.9850,-249.5117188,949.21875,208.0078125
1.9900,-241.2109375,955.078125,209.9609375
1.9950,-236.328125,957.5195313,203.6132813
2.0000,-217.7734375,969.7265625,211.4257813
2.0050,-214.84375,962.4023438,206.0546875
2.0100,-214.3554688,959.4726563,194.8242188
2.0150,-202.1484375,963.8671875,198.7304688
2.0200,-185.546875,987.7929688,203.125
2.0250,-173.828125,998.5351563,202.6367188
2.0300,-173.3398438,998.5351563,215.3320313
2.0350,-168.4570313,992.1875,224.1210938
2.0400,-159.6679688,991.2109375,206.5429688
2.0450,-149.9023438,997.0703125,228.0273438
2.0500,-137.6953125,983.3984375,232.421875
2.0550,-129.8828125,956.0546875,228.0273438
2.0600,-144.0429688,942.3828125,241.2109375
2.0650,-139.6484375,968.2617188,231.9335938
2.0700,-144.53125,980.46875,224.609375
2.0750,-130.859375,989.2578125,226.5625
2.0800,-114.7460938,984.8632813,223.1445313
2.0850,-104.9804688,978.515625,228.515625
2.0900,-108.3984375,975.0976563,210.9375
2.0950,-107.421875,976.5625,210.9375
2.1000,-101.0742188,983.8867188,199.21875
2.1050,-93.26171875,981.9335938,209.4726563
2.1100,-83.0078125,980.46875,210.9375
2.1150,-73.73046875,975.5859375,212.4023438
2.1200,-80.078125,959.9609375,228.515625
2.1250,-79.1015625,947.265625,229.4921875
2.1300,-60.05859375,949.21875,225.5859375
2.1350,-43.45703125,958.4960938,220.2148438
2.1400,-23.4375,992.1875,229.9804688
2.1450,-13.18359375,1011.71875,236.328125
2.1500,-12.20703125,1002.441406,236.328125
2.1550,-8.30078125,973.6328125,233.8867188
2.1600,-0.9765625,955.078125,224.1210938
2.1650,9.765625,951.6601563,224.1210938
2.1700,19.53125,967.2851563,220.703125
2.1750,32.71484375,979.4921875,242.6757813
2.1800,36.62109375,957.5195313,238.28125
2.1850,53.7109375,926.7578125,247.0703125
2.1900,66.40625,903.3203125,244.6289063
2.1950,86.42578125,913.0859375,239.7460938
2.2000,94.7265625,938.9648438,244.140625
2.2050,115.234375,955.5664063,252.4414063
2.2100,123.046875,957.5195313,254.3945313
2.2150,139.6484375,969.7265625,247.0703125
2.2200,132.3242188,980.9570313,245.6054688
2.2250,122.5585938,1004.882813,250.4882813
2.2300,116.6992188,1032.226563,244.6289063
2.2350,131.3476563,1038.085938,229.9804688
2.2400,142.578125,1000.976563,233.3984375
2.2450,133.7890625,959.4726563,225.5859375
2.2500,122.0703125,957.5195313,220.703125
2.2550,125.9765625,954.1015625,229.4921875
2.2600,128.4179688,934.0820313,217.2851563
2.2650,137.2070313,906.7382813,242.6757813
2.2700,140.1367188,909.6679688,235.8398438
2.2750,147.4609375,935.546875,246.5820313
2.2800,154.296875,953.125,251.953125
2.2850,171.3867188,940.9179688,251.953125
2.2900,204.5898438,934.0820313,238.28125
2.2950,212.890625,919.4335938,244.140625
2.3000,197.7539063,910.6445313,247.0703125
2.3050,210.4492188,948.7304688,254.3945313
2.3100,228.515625,982.9101563,264.6484375
2.3150,244.140625,973.1445313,250
2.3200,255.3710938,947.7539063,260.7421875
2.3250,239.2578125,930.1757813,252.9296875
2.3300,229.0039063,939.453125,241.2109375
2.3350,233.8867188,941.8945313,256.8359375
2.3400,245.6054688,937.5,249.5117188
2.3450,263.671875,916.9921875,242.6757813
2.3500,266.1132813,891.6015625,229.0039063
2.3550,263.671875,888.671875,208.4960938
2.3600,264.6484375,900.390625,247.0703125
2.3650,266.1132813,884.765625,250.4882813
2.3700,275.390625,883.3007813,244.6289063
2.3750,278.3203125,880.3710938,228.0273438
2.3800,299.3164063,869.140625,228.515625
2.3850,317.3828125,846.1914063,213.3789063
2.3900,333.984375,828.6132813,220.703125
2.3950,333.984375,809.5703125,239.2578125
2.4000,329.5898438,822.265625,246.09375
2.4050,345.2148438,876.953125,251.953125
2.4100,354.4921875,909.6679688,262.2070313
2.4150,362.3046875,901.8554688,284.1796875
2.4200,377.4414063,888.671875,279.7851563
2.4250,384.2773438,869.6289063,285.6445313
2.4300,372.0703125,850.0976563,271.484375
2.4350,375,862.7929688,269.0429688
2.4400,359.8632813,881.3476563,284.1796875
2.4450,343.2617188,903.8085938,260.2539063
2.4500,356.9335938,927.2460938,278.8085938
2.4550,378.4179688,908.6914063,252.4414063
2.4600,376.953125,883.7890625,247.5585938
2.4650,361.328125,873.5351563,238.28125
2.4700,336.9140625,870.6054688,241.2109375
2.4750,339.84375,861.8164063,251.953125
2.4800,359.8632813,845.2148438,238.7695313
2.4850,381.8359375,824.7070313,251.953125
2.4900,392.0898438,816.40625,257.3242188
2.4950,387.6953125,824.7070313,262.6953125
2.5000,379.8828125,849.609375,267.0898438
2.5050,394.53125,864.2578125,280.2734375
2.5100,419.921875,848.1445313,291.015625
2.5150,430.1757813,829.1015625,267.578125
2.5200,431.1523438,853.515625,267.0898438
2.5250,434.0820313,869.6289063,266.6015625
2.5300,442.3828125,860.3515625,278.3203125
2.5350,449.21875,848.6328125,252.4414063
2.5400,444.8242188,855.46875,248.046875
2.5450,455.078125,864.7460938,241.6992188
2.5500,452.6367188,817.8710938,254.3945313
2.5550,451.6601563,757.8125,248.046875
2.5600,459.4726563,765.1367188,236.328125
2.5650,464.84375,778.8085938,248.5351563
2.5700,473.6328125,785.6445313,253.4179688
2.5750,471.1914063,772.4609375,269.53125
2.5800,479.0039063,781.7382813,273.9257813
2.5850,476.0742188,784.6679688,279.7851563
2.5900,504.8828125,799.3164063,265.1367188
2.5950,511.2304688,791.9921875,272.9492188
2.6000,514.1601563,789.0625,267.0898438
2.6050,520.0195313,790.5273438,251.4648438
2.6100,526.8554688,790.5273438,260.2539063
2.6150,534.6679688,793.4570313,248.5351563
2.6200,539.5507813,798.3398438,271.484375
2.6250,529.296875,787.5976563,247.5585938
2.6300,528.8085938,786.1328125,255.859375
2.6350,541.015625,767.0898438,246.5820313
2.6400,548.828125,747.5585938,241.6992188
2.6450,555.6640625,730.46875,257.3242188
2.6500,555.1757813,726.0742188,253.4179688
2.6550,561.0351563,736.8164063,268.0664063
2.6600,572.265625,766.1132813,267.0898438
2.6650,569.3359375,803.7109375,277.34375
2.6700,589.84375,846.1914063,287.109375
2.6750,586.4257813,811.0351563,280.7617188
2.6800,583.4960938,769.0429688,281.7382813
2.6850,579.1015625,744.140625,270.0195313
2.6900,581.0546875,739.2578125,253.90625
2.6950,585.9375,718.75,250
2.7000,581.5429688,730.46875,248.5351563
2.7050,588.3789063,769.53125,238.7695313
2.7100,595.703125,767.578125,260.7421875
2.7150,607.421875,722.1679688,256.8359375
2.7200,615.234375,706.0546875,262.2070313
2.7250,615.7226563,727.5390625,251.4648438
2.7300,597.1679688,724.1210938,259.765625
2.7350,605.46875,717.7734375,274.4140625
2.7400,629.3945313,731.4453125,267.0898438
2.7450,639.1601563,702.6367188,259.765625
2.7500,639.6484375,679.1992188,264.6484375
2.7550,641.1132813,681.640625,250.9765625
2.7600,650.390625,698.2421875,253.90625
2.7650,661.1328125,683.1054688,247.5585938
2.7700,678.2226563,663.0859375,252.9296875
2.7750,674.3164063,650.390625,245.1171875
2.7800,674.3164063,655.7617188,250.4882813
2.7850,680.6640625,672.3632813,251.4648438
2.7900,677.734375,674.8046875,260.7421875
2.7950,695.8007813,670.4101563,262.6953125
2.8000,685.546875,656.25,252.4414063
2.8050,691.40625,686.5234375,252.4414063
2.8100,687.5,695.3125,271.484375
2.8150,695.8007813,672.3632813,264.1601563
2.8200,700.1953125,633.3007813,252.9296875
2.8250,697.265625,609.8632813,250
2.8300,706.5429688,612.7929688,245.6054688
2.8350,708.984375,619.6289063,254.3945313
2.8400,702.1484375,643.5546875,269.0429688
2.8450,707.5195313,680.6640625,268.0664063
2.8500,708.0078125,662.5976563,295.8984375
2.8550,708.4960938,611.328125,277.8320313
2.8600,719.2382813,596.1914063,260.7421875
2.8650,730.46875,613.7695313,260.7421875
2.8700,734.375,607.9101563,252.4414063
2.8750,723.1445313,589.3554688,258.3007813
2.8800,720.703125,583.4960938,258.3007813
2.8850,729.4921875,594.2382813,258.3007813
2.8900,730.9570313,616.6992188,248.5351563
2.8950,743.6523438,630.859375,255.859375
2.9000,742.6757813,619.6289063,276.8554688
2.9050,737.3046875,603.0273438,253.4179688
2.9100,736.8164063,590.8203125,253.90625
2.9150,733.3984375,570.8007813,248.046875
2.9200,739.2578125,575.6835938,241.2109375
2.9250,747.0703125,584.4726563,249.5117188
2.9300,752.4414063,579.5898438,251.953125
2.9350,757.8125,550.78125,245.6054688
2.9400,758.7890625,534.1796875,250.4882813
2.9450,772.4609375,541.9921875,258.3007813
2.9500,774.9023438,533.203125,255.859375
2.9550,780.2734375,518.5546875,270.0195313
2.9600,779.296875,522.9492188,264.6484375
2.9650,783.6914063,545.8984375,261.2304688
2.9700,785.6445313,564.453125,269.53125
2.9750,781.7382813,557.6171875,255.859375
2.9800,775.8789063,534.6679688,270.0195313
2.9850,773.4375,510.2539063,257.3242188
2.9900,782.2265625,514.1601563,244.140625
2.9950,803.2226563,527.8320313,225.0976563
3.0000,789.5507813,520.5078125,255.3710938
3.0050,786.1328125,507.8125,253.90625
3.0100,772.9492188,491.2109375,255.859375
3.0150,784.1796875,492.6757813,233.8867188
3.0200,791.5039063,517.0898438,240.7226563
3.0250,789.0625,514.6484375,240.7226563
3.0300,796.3867188,512.6953125,229.9804688
3.0350,798.3398438,504.8828125,236.328125
3.0400,798.828125,494.140625,240.7226563
3.0450,793.4570313,484.375,243.1640625
3.0500,797.3632813,479.0039063,239.2578125
3.0550,802.734375,475.5859375,250.9765625
3.0600,816.8945313,495.6054688,241.6992188
3.0650,812.9882813,484.375,252.9296875
3.0700,799.8046875,456.0546875,250
3.0750,812.9882813,446.2890625,233.8867188
3.0800,814.453125,442.8710938,243.6523438
3.0850,825.6835938,448.7304688,242.1875
3.0900,833.984375,458.4960938,249.0234375
3.0950,830.5664063,464.84375,224.609375
3.1000,828.6132813,483.3984375,238.7695313
3.1050,812.0117188,466.3085938,248.046875
3.1100,815.9179688,431.640625,242.1875
3.1150,822.265625,408.6914063,227.0507813
3.1200,824.21875,414.0625,223.6328125
3.1250,828.6132813,435.546875,208.984375
3.1300,826.171875,456.0546875,222.65625
3.1350,818.359375,446.2890625,233.3984375
3.1400,829.1015625,434.0820313,246.5820313
3.1450,831.0546875,402.8320313,236.328125
3.1500,843.75,382.8125,241.2109375
3.1550,849.609375,386.71875,234.8632813
3.1600,843.2617188,395.0195313,238.7695313
3.1650,844.7265625,407.2265625,220.2148438
3.1700,841.796875,424.3164063,234.375
3.1750,847.1679688,442.8710938,227.5390625
3.1800,846.6796875,449.21875,234.8632813
3.1850,843.75,437.9882813,247.0703125
3.1900,837.890625,416.015625,248.046875
3.1950,840.3320313,400.8789063,237.3046875
3.2000,852.5390625,397.4609375,218.75
3.2050,842.2851563,384.2773438,229.9804688
3.2100,839.3554688,388.1835938,222.1679688
3.2150,852.5390625,415.5273438,211.4257813
3.2200,846.1914063,410.6445313,231.9335938
3.2250,850.0976563,393.0664063,226.5625
3.2300,849.609375,369.140625,233.8867188
3.2350,853.0273438,373.046875,227.5390625
3.2400,847.1679688,379.8828125,221.1914063
3.2450,854.0039063,406.7382813,230.46875
3.2500,853.0273438,415.0390625,238.28125
3.2550,853.0273438,403.3203125,233.8867188
3.2600,870.1171875,395.0195313,219.7265625
3.2650,872.5585938,372.0703125,212.890625
3.2700,875,354.9804688,211.9140625
3.2750,877.9296875,353.0273438,217.2851563
3.2800,874.0234375,366.6992188,216.796875
3.2850,867.6757813,383.3007813,235.3515625
3.2900,872.5585938,393.5546875,247.0703125
3.2950,886.71875,386.2304688,247.5585938
3.3000,885.2539063,369.140625,240.7226563
3.3050,887.6953125,359.375,245.6054688
3.3100,888.1835938,355.46875,230.46875
3.3150,900.8789063,362.3046875,232.9101563
3.3200,907.2265625,365.234375,250.9765625
3.3250,900.8789063,354.0039063,253.4179688
3.3300,905.7617188,357.421875,233.3984375
3.3350,907.2265625,366.2109375,231.9335938
3.3400,902.34375,367.6757813,243.1640625
3.3450,898.4375,355.46875,252.4414063
3.3500,902.34375,345.2148438,233.3984375
3.3550,904.7851563,326.171875,235.8398438
3.3600,916.5039063,330.5664063,230.46875
3.3650,920.8984375,327.1484375,235.3515625
3.3700,925.2929688,336.4257813,220.703125
3.3750,920.8984375,354.4921875,233.3984375
3.3800,922.8515625,354.9804688,252.9296875
3.3850,930.6640625,319.3359375,247.5585938
3.3900,928.2226563,305.6640625,232.9101563
3.3950,940.4296875,316.40625,226.5625
3.4000,929.1992188,332.5195313,245.1171875
3.4050,920.4101563,340.8203125,250.9765625
3.4100,919.4335938,335.4492188,225.5859375
3.4150,922.8515625,309.5703125,235.8398438
3.4200,930.1757813,300.2929688,218.75
3.4250,929.6875,295.4101563,222.1679688
3.4300,933.1054688,300.2929688,229.0039063
3.4350,926.7578125,301.2695313,245.6054688
3.4400,922.3632813,308.59375,260.2539063
3.4450,933.59375,329.5898438,245.1171875
3.4500,928.2226563,307.6171875,261.71875
3.4550,940.9179688,278.3203125,252.9296875
3.4600,953.6132813,269.53125,262.2070313
3.4650,960.9375,271.484375,251.953125
3.4700,950.1953125,289.0625,250.4882813
3.4750,944.3359375,300.2929688,255.3710938
3.4800,958.984375,280.2734375,247.0703125
3.4850,982.9101563,234.375,245.6054688
3.4900,986.8164063,226.5625,209.4726563
3.4950,1000,250.4882813,201.171875
3.5000,989.2578125,250.9765625,214.3554688
3.5050,988.28125,227.5390625,242.1875
3.5100,997.5585938,218.75,221.1914063
3.5150,1012.695313,229.9804688,223.6328125
3.5200,1002.441406,230.46875,250
3.5250,997.5585938,221.1914063,230.9570313
3.5300,993.6523438,221.1914063,241.2109375
3.5350,994.6289063,229.9804688,236.328125
3.5400,997.5585938,236.8164063,250.9765625
3.5450,987.7929688,235.3515625,235.8398438
3.5500,979.0039063,239.2578125,240.234375
3.5550,970.2148438,245.6054688,224.1210938
3.5600,965.8203125,270.9960938,220.703125
3.5650,966.796875,271.484375,209.4726563
3.5700,955.078125,248.046875,220.2148438
3.5750,954.1015625,234.375,219.2382813
3.5800,953.125,236.8164063,211.4257813
3.5850,955.5664063,236.328125,212.890625
3.5900,952.1484375,232.9101563,224.609375
3.5950,956.5429688,239.2578125,234.375
3.6000,941.8945313,235.8398438,233.8867188
3.6050,935.0585938,233.8867188,227.0507813
3.6100,919.4335938,228.515625,230.9570313
3.6150,921.3867188,236.328125,206.5429688
3.6200,931.640625,241.6992188,209.4726563
3.6250,931.640625,226.5625,188.9648438
3.6300,940.4296875,224.1210938,177.734375
3.6350,935.546875,229.9804688,166.5039063
3.6400,911.6210938,222.65625,181.1523438
3.6450,905.7617188,221.1914063,193.8476563
3.6500,904.296875,230.9570313,183.59375
3.6550,920.4101563,244.140625,191.40625
3.6600,913.0859375,240.234375,187.9882813
3.6650,910.6445313,224.1210938,196.7773438
3.6700,918.4570313,196.2890625,183.1054688
3.6750,911.1328125,170.4101563,192.8710938
3.6800,912.109375,194.8242188,195.8007813
3.6850,910.15625,213.8671875,189.453125
3.6900,902.8320313,227.5390625,204.5898438
3.6950,899.4140625,211.9140625,199.7070313
3.7000,898.4375,209.4726563,181.1523438
3.7050,909.6679688,218.2617188,162.109375
3.7100,901.8554688,206.5429688,170.4101563
3.7150,906.7382813,178.7109375,172.3632813
3.7200,915.5273438,166.9921875,168.9453125
3.7250,916.015625,156.7382813,163.0859375
3.7300,915.5273438,175.2929688,167.96875
3.7350,918.4570313,190.4296875,179.1992188
3.7400,918.9453125,207.5195313,186.5234375
3.7450,911.6210938,204.1015625,208.4960938
3.7500,916.9921875,189.9414063,223.1445313
3.7550,925.2929688,189.453125,198.2421875
3.7600,918.4570313,179.6875,214.84375
3.7650,921.875,177.2460938,205.078125
3.7700,930.6640625,164.0625,204.5898438
3.7750,936.0351563,168.9453125,207.5195313
3.7800,939.9414063,162.5976563,227.0507813
3.7850,946.2890625,148.4375,224.1210938
3.7900,945.8007813,119.6289063,231.9335938
3.7950,940.4296875,88.8671875,231.4453125
3.8000,950.6835938,114.7460938,209.9609375
3.8050,957.03125,146.484375,239.2578125
3.8100,953.125,163.0859375,259.2773438
3.8150,934.0820313,143.5546875,262.2070313
3.8200,927.734375,133.3007813,250.9765625
3.8250,944.3359375,130.859375,223.6328125
3.8300,939.453125,118.6523438,236.8164063
3.8350,937.0117188,116.2109375,212.890625
3.8400,941.8945313,120.1171875,200.1953125
3.8450,958.984375,131.8359375,179.6875
3.8500,963.8671875,143.0664063,197.265625
3.8550,959.4726563,139.1601563,177.2460938
3.8600,957.5195313,145.0195313,179.1992188
3.8650,955.5664063,144.53125,200.6835938
3.8700,948.2421875,135.7421875,214.3554688
3.8750,958.4960938,145.0195313,222.1679688
3.8800,952.1484375,144.53125,217.2851563
3.8850,954.1015625,130.3710938,243.6523438
3.8900,944.8242188,120.6054688,238.7695313
3.8950,956.5429688,119.140625,230.46875
3.9000,967.7734375,125,229.4921875
3.9050,962.890625,104.4921875,223.6328125
3.9100,958.0078125,91.796875,209.4726563
3.9150,965.8203125,94.7265625,197.265625
3.9200,965.8203125,112.7929688,174.3164063
3.9250,977.5390625,119.140625,184.0820313
3.9300,977.5390625,120.1171875,175.2929688
3.9350,981.4453125,132.8125,164.5507813
3.9400,981.9335938,142.0898438,167.96875
3.9450,973.6328125,138.1835938,175.2929688
3.9500,966.796875,138.671875,201.6601563
3.9550,969.7265625,134.765625,197.265625
3.9600,974.1210938,146.9726563,207.5195313
3.9650,979.4921875,137.6953125,199.21875
3.9700,978.515625,116.6992188,191.40625
3.9750,978.0273438,103.0273438,185.0585938
3.9800,969.7265625,103.0273438,179.1992188
3.9850,975.5859375,119.6289063,167.4804688
3.9900,976.0742188,138.1835938,170.8984375
3.9950,983.8867188,142.0898438,148.4375
4.0000,973.1445313,133.3007813,139.6484375
4.0050,984.8632813,137.6953125,141.6015625
4.0100,985.8398438,138.671875,140.625
4.0150,976.5625,141.6015625,142.0898438
4.0200,972.65625,143.5546875,154.296875
4.0250,972.1679688,142.578125,182.6171875
4.0300,977.0507813,158.6914063,185.0585938
4.0350,982.421875,168.4570313,210.4492188
4.0400,965.3320313,156.7382813,192.8710938
4.0450,965.8203125,156.25,205.078125
4.0500,971.6796875,154.296875,179.1992188
4.0550,978.0273438,146.484375,176.7578125
4.0600,968.75,148.4375,160.15625
4.0650,965.8203125,157.7148438,157.7148438
4.0700,965.3320313,171.3867188,167.4804688
4.0750,970.703125,179.1992188,155.2734375
4.0800,975.5859375,171.3867188,172.8515625
4.0850,979.0039063,166.015625,171.875
4.0900,978.515625,163.0859375,181.1523438
4.0950,978.515625,162.5976563,187.0117188
4.1000,975.5859375,159.1796875,198.2421875
4.1050,971.1914063,156.7382813,212.4023438
4.1100,970.2148438,161.1328125,214.84375
4.1150,976.5625,169.4335938,209.9609375
4.1200,971.1914063,158.203125,199.21875
4.1250,975.0976563,152.8320313,198.2421875
4.1300,974.1210938,154.296875,186.5234375
4.1350,983.8867188,173.828125,181.1523438
4.1400,973.1445313,185.546875,188.4765625
4.1450,976.0742188,201.171875,194.3359375
4.1500,973.1445313,201.171875,191.8945313
4.1550,977.5390625,189.9414063,198.7304688
4.1600,984.375,192.3828125,197.265625
4.1650,973.1445313,174.8046875,204.5898438
4.1700,972.1679688,184.0820313,208.4960938
4.1750,970.703125,187.5,221.1914063
4.1800,975.0976563,194.8242188,230.46875
4.1850,977.0507813,192.3828125,237.7929688
4.1900,979.9804688,191.8945313,230.9570313
4.1950,977.5390625,182.6171875,229.0039063
4.2000,971.1914063,168.4570313,214.84375
4.2050,974.609375,172.3632813,205.078125
4.2100,971.6796875,188.9648438,203.125
4.2150,969.2382813,199.7070313,192.8710938
4.2200,963.8671875,217.2851563,191.40625
4.2250,966.796875,219.2382813,193.359375
4.2300,967.7734375,217.7734375,208.4960938
4.2350,963.3789063,205.078125,215.8203125
4.2400,953.6132813,198.2421875,210.9375
4.2450,963.3789063,204.5898438,216.796875
4.2500,967.2851563,210.9375,221.6796875
4.2550,958.984375,196.2890625,233.3984375
4.2600,955.5664063,199.7070313,231.4453125
4.2650,946.7773438,198.7304688,228.0273438
4.2700,948.2421875,207.03125,223.1445313
4.2750,954.5898438,203.125,228.0273438
4.2800,952.6367188,189.9414063,213.8671875
4.2850,942.8710938,180.1757813,215.3320313
4.2900,938.9648438,192.3828125,204.1015625
4.2950,947.265625,219.7265625,207.03125
4.3000,936.5234375,225.0976563,225.0976563
4.3050,917.4804688,224.1210938,212.890625
4.3100,908.203125,216.796875,208.4960938
4.3150,921.875,218.2617188,209.4726563
4.3200,933.1054688,223.6328125,214.3554688
4.3250,928.2226563,216.796875,220.2148438
4.3300,908.6914063,208.4960938,220.703125
4.3350,917.96875,233.3984375,229.4921875
4.3400,893.5546875,232.421875,227.0507813
4.3450,895.5078125,243.6523438,234.375
4.3500,892.578125,232.9101563,238.28125
4.3550,900.390625,229.4921875,224.609375
4.3600,896.484375,234.375,207.5195313
4.3650,883.7890625,228.515625,215.8203125
4.3700,882.3242188,237.3046875,219.7265625
4.3750,885.2539063,245.1171875,214.84375
4.3800,896.484375,259.2773438,211.4257813
4.3850,886.2304688,258.7890625,211.9140625
4.3900,884.765625,256.3476563,211.9140625
4.3950,882.3242188,260.2539063,208.984375
4.4000,870.1171875,264.6484375,209.4726563
4.4050,876.953125,263.1835938,214.84375
4.4100,876.4648438,253.90625,222.1679688
4.4150,884.765625,246.5820313,234.375
4.4200,882.8125,247.5585938,243.1640625
4.4250,882.8125,258.7890625,230.9570313
4.4300,876.953125,276.3671875,219.2382813
4.4350,878.90625,289.5507813,215.3320313
4.4400,878.90625,293.9453125,212.890625
4.4450,882.8125,290.5273438,195.8007813
4.4500,876.953125,281.7382813,208.984375
4.4550,876.4648438,291.9921875,192.8710938
4.4600,878.4179688,309.5703125,200.6835938
4.4650,879.3945313,308.59375,215.8203125
4.4700,879.3945313,298.3398438,219.2382813
4.4750,880.3710938,291.015625,233.3984375
4.4800,878.90625,292.4804688,243.1640625
4.4850,880.3710938,298.828125,220.2148438
4.4900,878.4179688,310.0585938,219.2382813
4.4950,879.3945313,303.2226563,215.8203125
4.5000,889.1601563,309.5703125,202.1484375
4.5050,888.1835938,301.7578125,187.0117188
4.5100,893.5546875,307.1289063,187.5
4.5150,898.9257813,320.8007813,169.4335938
4.5200,894.0429688,333.0078125,166.5039063
4.5250,901.8554688,340.3320313,169.921875
4.5300,903.8085938,344.2382813,182.6171875
4.5350,901.8554688,338.8671875,185.546875
4.5400,899.4140625,333.984375,207.03125
4.5450,901.3671875,340.8203125,209.4726563
4.5500,913.0859375,355.46875,225.0976563
4.5550,913.0859375,338.3789063,224.609375
4.5600,914.0625,330.5664063,236.328125
4.5650,908.6914063,324.7070313,216.3085938
4.5700,896.9726563,322.265625,219.7265625
4.5750,898.9257813,325.6835938,208.984375
4.5800,892.0898438,326.6601563,210.4492188
4.5850,895.9960938,340.3320313,208.0078125
4.5900,895.5078125,366.6992188,210.4492188
4.5950,889.1601563,380.859375,221.6796875
4.6000,893.0664063,390.625,212.4023438
4.6050,882.8125,387.2070313,217.2851563
4.6100,883.7890625,389.1601563,218.75
4.6150,884.2773438,399.4140625,209.4726563
4.6200,865.7226563,396.9726563,230.9570313
4.6250,863.7695313,409.1796875,215.8203125
4.6300,851.5625,409.1796875,239.2578125
4.6350,847.65625,410.15625,236.328125
4.6400,850.0976563,421.875,220.703125
4.6450,846.1914063,412.109375,210.4492188
4.6500,857.9101563,409.6679688,195.8007813
4.6550,858.8867188,412.5976563,181.640625
4.6600,847.1679688,435.546875,176.7578125
4.6650,830.078125,448.7304688,199.21875
4.6700,827.1484375,455.078125,193.359375
4.6750,838.8671875,452.6367188,202.6367188
4.6800,849.1210938,439.9414063,208.984375
4.6850,859.375,436.5234375,219.2382813
4.6900,846.6796875,432.6171875,243.6523438
4.6950,852.5390625,451.171875,240.234375
4.7000,844.2382813,470.703125,247.5585938
4.7050,838.8671875,489.2578125,250.9765625
4.7100,814.9414063,474.1210938,280.7617188
4.7150,808.1054688,449.21875,259.2773438
4.7200,831.5429688,450.1953125,248.046875
4.7250,841.796875,452.1484375,222.1679688
4.7300,839.3554688,465.8203125,227.0507813
4.7350,822.265625,483.8867188,225.0976563
4.7400,802.2460938,497.5585938,219.7265625
4.7450,803.2226563,506.3476563,227.0507813
4.7500,804.1992188,512.6953125,218.2617188
4.7550,806.640625,515.625,221.1914063
4.7600,791.9921875,518.0664063,236.328125
4.7650,791.5039063,523.4375,220.2148438
4.7700,784.1796875,518.0664063,221.6796875
4.7750,778.8085938,519.0429688,227.5390625
4.7800,776.3671875,529.7851563,229.4921875
4.7850,768.0664063,539.5507813,221.1914063
4.7900,765.1367188,537.109375,226.0742188
4.7950,776.3671875,517.0898438,237.3046875
4.8000,779.296875,508.7890625,204.1015625
4.8050,789.5507813,533.203125,197.7539063
4.8100,780.2734375,549.8046875,196.2890625
4.8150,765.625,560.546875,209.4726563
4.8200,770.0195313,586.4257813,227.5390625
4.8250,769.53125,589.3554688,220.2148438
4.8300,765.625,588.8671875,221.1914063
4.8350,783.6914063,599.609375,226.5625
4.8400,779.7851563,592.7734375,236.8164063
4.8450,767.0898438,575.6835938,232.9101563
4.8500,753.90625,568.359375,237.3046875
4.8550,750.4882813,576.171875,210.4492188
4.8600,764.6484375,596.6796875,203.125
4.8650,766.6015625,601.5625,214.3554688
4.8700,763.1835938,600.5859375,215.3320313
4.8750,753.90625,602.5390625,209.4726563
4.8800,741.2109375,612.3046875,205.5664063
4.8850,740.234375,630.3710938,216.796875
4.8900,744.140625,664.0625,207.03125
4.8950,734.8632813,674.8046875,209.9609375
4.9000,729.4921875,670.8984375,238.7695313
4.9050,724.1210938,637.2070313,253.4179688
4.9100,733.3984375,614.7460938,268.0664063
4.9150,736.8164063,601.0742188,262.6953125
4.9200,721.6796875,622.5585938,264.1601563
4.9250,698.7304688,639.6484375,250
4.9300,692.3828125,647.9492188,244.140625
4.9350,681.1523438,640.625,229.0039063
4.9400,672.8515625,644.0429688,226.5625
4.9450,666.9921875,641.1132813,225.5859375
4.9500,662.5976563,645.0195313,225.5859375
4.9550,674.8046875,657.7148438,219.2382813
4.9600,659.1796875,666.5039063,216.3085938
4.9650,652.8320313,684.0820313,210.9375
4.9700,630.3710938,688.9648438,220.703125
4.9750,615.7226563,670.8984375,228.0273438
4.9800,628.90625,673.828125,228.515625
4.9850,632.8125,669.4335938,216.3085938
4.9900,620.6054688,671.3867188,234.8632813
4.9950,607.421875,680.1757813,236.328125
5.0000,591.3085938,685.546875,246.5820313
5.0050,585.9375,685.0585938,246.09375
5.0100,590.8203125,696.2890625,235.8398438
5.0150,598.1445313,723.6328125,213.8671875
5.0200,576.6601563,738.7695313,220.2148438
5.0250,559.0820313,750.9765625,226.5625
5.0300,542.96875,760.7421875,228.0273438
5.0350,543.9453125,772.9492188,227.5390625
5.0400,551.2695313,768.0664063,226.0742188
5.0450,550.78125,740.7226563,239.7460938
5.0500,541.5039063,704.5898438,232.9101563
5.0550,541.9921875,722.1679688,231.4453125
5.0600,536.6210938,754.8828125,232.9101563
5.0650,520.0195313,785.6445313,228.0273438
5.0700,498.5351563,791.9921875,247.0703125
5.0750,494.6289063,781.7382813,241.6992188
5.0800,498.046875,775.8789063,237.7929688
5.0850,501.953125,788.5742188,219.7265625
5.0900,501.953125,814.453125,227.5390625
5.0950,488.28125,818.8476563,233.8867188
5.1000,475.0976563,815.9179688,237.3046875
5.1050,471.1914063,810.0585938,224.1210938
5.1100,471.1914063,812.5,203.6132813
5.1150,469.2382813,830.078125,211.4257813
5.1200,444.3359375,852.5390625,228.0273438
5.1250,430.6640625,879.3945313,228.515625
5.1300,417.96875,886.2304688,227.0507813
5.1350,417.4804688,858.8867188,225.0976563
5.1400,421.3867188,833.0078125,224.1210938
5.1450,417.96875,805.6640625,230.9570313
5.1500,414.5507813,796.875,206.0546875
5.1550,415.5273438,805.6640625,218.75
5.1600,411.6210938,846.1914063,192.3828125
5.1650,399.4140625,903.3203125,189.9414063
5.1700,370.6054688,937.9882813,191.8945313
5.1750,361.328125,940.9179688,210.4492188
5.1800,372.5585938,919.4335938,243.1640625
5.1850,386.71875,886.2304688,247.5585938
5.1900,389.1601563,856.9335938,252.4414063
5.1950,372.5585938,850.5859375,263.1835938
5.2000,350.5859375,857.421875,256.8359375
5.2050,324.7070313,848.6328125,241.6992188
5.2100,315.9179688,851.0742188,210.9375
5.2150,318.359375,845.703125,213.8671875
5.2200,316.8945313,826.6601563,224.1210938
5.2250,318.359375,831.5429688,216.796875
5.2300,313.9648438,869.140625,203.6132813
5.2350,304.6875,907.7148438,214.3554688
5.2400,285.15625,925.2929688,236.8164063
5.2450,267.578125,908.203125,253.90625
5.2500,244.6289063,892.0898438,268.5546875
5.2550,248.046875,900.8789063,266.1132813
5.2600,244.140625,915.5273438,258.3007813
5.2650,237.7929688,919.4335938,248.5351563
5.2700,222.1679688,882.3242188,230.46875
5.2750,214.84375,839.84375,230.9570313
5.2800,215.3320313,836.4257813,192.3828125
5.2850,219.2382813,861.328125,187.9882813
5.2900,205.078125,865.234375,212.4023438
5.2950,181.1523438,847.65625,221.1914063
5.3000,162.5976563,863.7695313,212.890625
5.3050,151.3671875,918.9453125,194.3359375
5.3100,123.046875,958.0078125,222.1679688
5.3150,117.6757813,957.03125,236.328125
5.3200,118.6523438,926.7578125,240.234375
5.3250,132.8125,928.2226563,223.6328125
5.3300,135.2539063,947.7539063,219.7265625
5.3350,108.8867188,945.8007813,239.2578125
5.3400,80.56640625,934.0820313,238.7695313
5.3450,75.68359375,932.1289063,237.3046875
5.3500,76.171875,939.453125,225.5859375
5.3550,59.08203125,920.8984375,225.0976563
5.3600,45.41015625,905.2734375,230.46875
5.3650,36.1328125,895.5078125,218.2617188
5.3700,29.296875,892.0898438,211.4257813
5.3750,32.71484375,922.3632813,207.03125
5.3800,8.7890625,942.8710938,191.8945313
5.3850,3.90625,969.2382813,174.3164063
5.3900,2.44140625,958.984375,173.828125
5.3950,11.71875,954.5898438,151.3671875
5.4000,0.48828125,1012.695313,167.4804688
5.4050,-42.48046875,1090.820313,169.4335938
5.4100,-73.73046875,1140.625,187.9882813
5.4150,-82.51953125,1128.90625,190.9179688
5.4200,-62.01171875,1091.308594,184.5703125
5.4250,-49.8046875,1012.207031,168.9453125
5.4300,-51.7578125,944.3359375,164.5507813
5.4350,-72.75390625,906.25,165.5273438
5.4400,-86.42578125,912.109375,168.4570313
5.4450,-118.1640625,917.96875,173.828125
5.4500,-127.9296875,955.078125,194.8242188
5.4550,-126.953125,986.8164063,198.7304688
5.4600,-109.375,1020.507813,204.5898438
5.4650,-114.2578125,1034.179688,235.3515625
5.4700,-127.9296875,1035.644531,217.7734375
5.4750,-148.4375,1060.546875,195.8007813
5.4800,-181.1523438,1093.261719,191.40625
5.4850,-194.3359375,1099.121094,187.9882813
5.4900,-179.6875,1055.664063,218.75
5.4950,-159.6679688,977.0507813,208.984375
5.5000,-145.0195313,952.1484375,192.3828125
5.5050,-156.25,967.7734375,186.5234375
5.5100,-181.640625,975.0976563,196.7773438
5.5150,-201.171875,942.3828125,212.890625
5.5200,-206.5429688,936.0351563,191.8945313
5.5250,-212.4023438,962.4023438,174.3164063
5.5300,-231.4453125,1000.976563,194.8242188
5.5350,-248.5351563,1012.695313,203.6132813
5.5400,-244.140625,1014.648438,211.9140625
5.5450,-239.7460938,1003.90625,200.6835938
5.5500,-237.7929688,987.3046875,199.21875
5.5550,-257.3242188,948.2421875,217.2851563
5.5600,-274.4140625,941.40625,196.2890625
5.5650,-287.5976563,955.078125,194.3359375
5.5700,-290.0390625,992.1875,182.1289063
5.5750,-286.6210938,1011.230469,182.6171875
5.5800,-303.2226563,1001.953125,194.8242188
5.5850,-325.1953125,990.7226563,187.9882813
5.5900,-339.84375,991.6992188,171.875
5.5950,-333.0078125,952.1484375,218.2617188
5.6000,-336.9140625,885.2539063,236.8164063
5.6050,-334.9609375,863.7695313,229.4921875
5.6100,-347.65625,888.671875,229.4921875
5.6150,-362.7929688,958.984375,212.890625
5.6200,-397.9492188,1013.671875,223.1445313
5.6250,-413.5742188,1056.640625,212.4023438
5.6300,-420.8984375,1069.335938,212.890625
5.6350,-417.96875,1063.476563,193.359375
5.6400,-416.015625,1024.902344,170.4101563
5.6450,-418.4570313,966.796875,146.484375
5.6500,-426.2695313,902.34375,110.3515625
5.6550,-432.6171875,873.5351563,102.0507813
5.6600,-449.21875,869.140625,118.6523438
5.6650,-459.4726563,889.6484375,142.0898438
5.6700,-496.5820313,893.0664063,191.8945313
5.6750,-505.3710938,914.5507813,215.3320313
5.6800,-504.8828125,928.7109375,236.328125
5.6850,-493.1640625,928.7109375,213.3789063
5.6900,-471.1914063,932.1289063,197.7539063
5.6950,-455.078125,939.453125,177.734375
5.7000,-465.3320313,937.5,171.3867188
5.7050,-485.3515625,935.546875,138.671875
5.7100,-507.8125,951.171875,106.4453125
5.7150,-521.484375,989.7460938,103.515625
5.7200,-540.0390625,992.6757813,103.0273438
5.7250,-552.734375,941.8945313,108.8867188
5.7300,-565.4296875,884.2773438,111.8164063
5.7350,-562.0117188,860.3515625,117.6757813
5.7400,-562.9882813,843.75,121.09375
5.7450,-576.6601563,808.59375,148.4375
5.7500,-578.125,772.4609375,157.2265625
5.7550,-588.3789063,763.671875,139.1601563
5.7600,-583.0078125,798.3398438,149.4140625
5.7650,-598.1445313,827.6367188,154.7851563
5.7700,-603.515625,843.75,152.34375
5.7750,-614.7460938,858.3984375,132.3242188
5.7800,-628.4179688,898.4375,118.6523438
5.7850,-637.2070313,931.1523438,124.0234375
5.7900,-637.2070313,924.8046875,132.3242188
5.7950,-632.3242188,875.4882813,135.2539063
5.8000,-645.0195313,833.984375,122.0703125
5.8050,-637.2070313,795.8984375,132.3242188
5.8100,-640.1367188,797.8515625,121.09375
5.8150,-669.4335938,782.7148438,120.1171875
5.8200,-687.9882813,776.8554688,136.71875
5.8250,-697.265625,779.296875,141.6015625
5.8300,-698.2421875,783.203125,147.9492188
5.8350,-696.2890625,795.4101563,160.6445313
5.8400,-707.5195313,787.5976563,167.4804688
5.8450,-721.6796875,768.0664063,159.1796875
5.8500,-701.6601563,749.5117188,143.5546875
5.8550,-676.7578125,787.5976563,108.3984375
5.8600,-686.5234375,812.0117188,127.4414063
5.8650,-702.6367188,821.2890625,115.234375
5.8700,-718.2617188,824.21875,103.515625
5.8750,-712.890625,833.4960938,100.0976563
5.8800,-710.4492188,822.7539063,90.8203125
5.8850,-711.9140625,798.3398438,119.6289063
5.8900,-720.703125,764.1601563,128.4179688
5.8950,-729.0039063,734.8632813,122.0703125
5.9000,-732.9101563,729.4921875,130.3710938
5.9050,-732.421875,726.0742188,123.5351563
5.9100,-744.6289063,717.7734375,125.4882813
5.9150,-753.90625,717.2851563,123.5351563
5.9200,-750.9765625,730.9570313,142.0898438
5.9250,-747.0703125,741.6992188,129.8828125
5.9300,-752.4414063,747.0703125,125.4882813
5.9350,-749.0234375,749.5117188,101.0742188
5.9400,-754.3945313,755.859375,75.68359375
5.9450,-746.5820313,770.0195313,72.75390625
5.9500,-743.1640625,782.2265625,56.640625
5.9550,-744.140625,784.6679688,78.125
5.9600,-725.0976563,797.3632813,83.984375
5.9650,-740.7226563,775.8789063,97.65625
5.9700,-746.5820313,757.8125,113.28125
5.9750,-753.4179688,723.6328125,121.5820313
5.9800,-750.9765625,708.0078125,120.1171875
5.9850,-752.4414063,698.7304688,111.8164063
5.9900,-738.7695313,703.125,119.140625
5.9950,-734.375,673.828125,122.5585938
6.0000,-737.3046875,658.6914063,119.6289063
6.0050,-735.3515625,670.4101563,121.5820313
6.0100,-739.2578125,689.453125,103.0273438
6.0150,-722.65625,725.0976563,71.77734375
6.0200,-718.75,756.8359375,72.265625
6.0250,-732.9101563,769.0429688,90.33203125
6.0300,-748.046875,760.7421875,95.21484375
6.0350,-752.9296875,738.7695313,96.6796875
6.0400,-749.5117188,713.8671875,99.12109375
6.0450,-745.1171875,700.1953125,106.9335938
6.0500,-740.234375,688.9648438,116.2109375
6.0550,-754.3945313,654.296875,121.09375
6.0600,-758.7890625,636.71875,122.5585938
6.0650,-762.2070313,626.4648438,124.0234375
6.0700,-765.625,631.3476563,111.8164063
6.0750,-774.4140625,632.3242188,111.328125
6.0800,-780.2734375,635.2539063,102.5390625
6.0850,-791.5039063,631.8359375,102.5390625
6.0900,-789.5507813,638.1835938,87.890625
6.0950,-792.4804688,651.3671875,78.61328125
6.1000,-785.15625,674.8046875,83.0078125
6.1050,-782.7148438,674.8046875,75.68359375
6.1100,-787.109375,671.3867188,78.125
6.1150,-797.3632813,663.0859375,86.42578125
6.1200,-805.1757813,657.2265625,81.0546875
6.1250,-805.6640625,642.0898438,91.30859375
6.1300,-798.3398438,637.6953125,102.0507813
6.1350,-808.1054688,623.5351563,110.3515625
6.1400,-814.453125,617.6757813,115.7226563
6.1450,-820.3125,612.3046875,118.6523438
6.1500,-818.359375,599.609375,126.4648438
6.1550,-817.3828125,592.2851563,108.3984375
6.1600,-819.3359375,594.7265625,120.6054688
6.1650,-819.8242188,594.2382813,111.328125
6.1700,-812.5,594.2382813,100.5859375
6.1750,-805.6640625,605.46875,73.73046875
6.1800,-807.1289063,605.9570313,77.63671875
6.1850,-808.59375,588.8671875,90.33203125
6.1900,-825.6835938,566.8945313,84.47265625
6.1950,-832.03125,563.4765625,107.9101563
6.2000,-839.3554688,555.6640625,98.14453125
6.2050,-829.1015625,569.3359375,102.5390625
6.2100,-833.984375,565.9179688,92.28515625
6.2150,-828.6132813,575.6835938,100.0976563
6.2200,-832.03125,572.265625,110.3515625
6.2250,-838.3789063,548.828125,119.6289063
6.2300,-839.3554688,541.015625,110.3515625
6.2350,-832.03125,549.3164063,120.1171875
6.2400,-839.3554688,557.1289063,110.8398438
6.2450,-831.0546875,575.6835938,98.6328125
6.2500,-827.1484375,574.21875,108.3984375
6.2550,-840.8203125,559.0820313,106.4453125
6.2600,-845.2148438,558.1054688,99.609375
6.2650,-849.609375,556.640625,90.8203125
6.2700,-839.84375,557.6171875,94.23828125
6.2750,-842.7734375,548.828125,92.7734375
6.2800,-852.0507813,535.6445313,85.44921875
6.2850,-853.515625,522.4609375,94.23828125
6.2900,-857.421875,526.3671875,70.80078125
6.2950,-859.375,526.8554688,89.35546875
6.3000,-862.3046875,523.4375,96.19140625
6.3050,-864.7460938,513.1835938,90.8203125
6.3100,-861.328125,499.5117188,108.3984375
6.3150,-854.9804688,486.8164063,103.515625
6.3200,-867.6757813,481.4453125,102.0507813
6.3250,-849.1210938,502.4414063,105.9570313
6.3300,-844.7265625,513.671875,90.8203125
6.3350,-846.1914063,523.4375,106.9335938
6.3400,-861.328125,519.0429688,86.9140625
6.3450,-871.09375,514.6484375,99.609375
6.3500,-873.5351563,511.71875,74.70703125
6.3550,-872.5585938,505.859375,72.75390625
6.3600,-863.28125,498.5351563,71.77734375
6.3650,-869.140625,478.515625,65.91796875
6.3700,-868.6523438,490.7226563,54.19921875
6.3750,-871.09375,490.234375,73.73046875
6.3800,-871.09375,489.2578125,76.171875
6.3850,-874.0234375,490.7226563,80.078125
6.3900,-871.5820313,497.0703125,95.21484375
6.3950,-871.5820313,489.2578125,105.46875
6.4000,-874.5117188,489.7460938,90.8203125
6.4050,-876.953125,501.953125,103.0273438
6.4100,-880.3710938,506.8359375,102.5390625
6.4150,-864.7460938,508.7890625,101.5625
6.4200,-873.046875,495.6054688,96.6796875
6.4250,-868.1640625,490.7226563,90.8203125
6.4300,-876.953125,481.4453125,83.984375
6.4350,-879.3945313,478.0273438,76.171875
6.4400,-882.8125,483.3984375,73.73046875
6.4450,-879.3945313,490.7226563,73.2421875
6.4500,-879.3945313,489.2578125,70.80078125
6.4550,-875.4882813,485.8398438,69.3359375
6.4600,-883.3007813,483.3984375,85.9375
6.4650,-880.3710938,484.8632813,76.171875
6.4700,-870.1171875,493.6523438,69.82421875
6.4750,-874.0234375,478.515625,81.54296875
6.4800,-883.3007813,467.2851563,86.42578125
6.4850,-878.90625,465.3320313,100.0976563
6.4900,-877.4414063,466.796875,88.8671875
6.4950,-879.8828125,470.703125,86.9140625
6.5000,-874.5117188,479.4921875,81.54296875
6.5050,-876.4648438,472.1679688,76.171875
6.5100,-881.3476563,464.84375,92.28515625
6.5150,-876.953125,458.4960938,77.1484375
6.5200,-881.3476563,440.4296875,87.890625
6.5250,-881.3476563,423.828125,82.03125
6.5300,-885.2539063,423.3398438,73.73046875
6.5350,-885.2539063,435.0585938,62.5
6.5400,-886.2304688,447.265625,76.171875
6.5450,-899.9023438,452.1484375,72.265625
6.5500,-896.9726563,441.40625,76.171875
6.5550,-895.0195313,428.7109375,73.2421875
6.5600,-895.5078125,424.3164063,72.265625
6.5650,-898.4375,414.0625,77.1484375
6.5700,-904.7851563,414.5507813,62.98828125
6.5750,-904.296875,425.2929688,82.03125
6.5800,-903.8085938,418.4570313,77.63671875
6.5850,-907.7148438,408.203125,82.03125
6.5900,-916.9921875,402.8320313,69.82421875
6.5950,-910.15625,397.9492188,84.47265625
6.6000,-909.1796875,400.8789063,71.77734375
6.6050,-911.1328125,400.8789063,77.1484375
6.6100,-911.6210938,409.1796875,78.125
6.6150,-907.2265625,408.203125,77.63671875
6.6200,-920.8984375,387.6953125,86.42578125
6.6250,-916.015625,383.3007813,72.75390625
6.6300,-900.8789063,388.671875,73.73046875
6.6350,-902.8320313,385.2539063,55.6640625
6.6400,-910.15625,383.3007813,69.82421875
6.6450,-906.25,380.859375,71.77734375
6.6500,-900.390625,390.625,77.1484375
6.6550,-911.6210938,382.8125,69.3359375
6.6600,-910.15625,389.1601563,74.70703125
6.6650,-907.7148438,395.9960938,74.70703125
6.6700,-904.296875,402.8320313,86.42578125
6.6750,-909.1796875,398.4375,79.1015625
6.6800,-918.4570313,387.2070313,79.58984375
6.6850,-902.8320313,390.625,79.58984375
6.6900,-910.15625,373.5351563,78.61328125
6.6950,-910.6445313,372.0703125,70.80078125
6.7000,-921.875,369.140625,78.125
6.7050,-912.5976563,379.3945313,69.82421875
6.7100,-906.7382813,377.4414063,90.8203125
6.7150,-911.1328125,376.953125,83.49609375
6.7200,-913.0859375,381.3476563,86.42578125
6.7250,-923.828125,377.9296875,85.44921875
6.7300,-924.8046875,379.8828125,92.28515625
6.7350,-926.2695313,379.8828125,78.61328125
6.7400,-923.3398438,382.8125,75.68359375
6.7450,-933.59375,359.8632813,75.68359375
6.7500,-931.640625,349.609375,94.7265625
6.7550,-925.78125,341.796875,89.35546875
6.7600,-930.1757813,342.2851563,80.56640625
6.7650,-926.7578125,345.703125,85.9375
6.7700,-929.6875,352.0507813,94.7265625
6.7750,-928.2226563,362.3046875,77.1484375
6.7800,-936.5234375,367.6757813,71.2890625
6.7850,-937.0117188,369.6289063,75.68359375
6.7900,-937.0117188,364.2578125,78.125
6.7950,-937.0117188,366.2109375,75.1953125
6.8000,-929.1992188,365.234375,69.3359375
6.8050,-930.6640625,354.0039063,66.40625
6.8100,-936.0351563,353.515625,74.70703125
6.8150,-935.0585938,350.5859375,72.75390625
6.8200,-935.0585938,349.609375,81.0546875
6.8250,-937.9882813,347.1679688,83.49609375
6.8300,-935.546875,350.5859375,94.23828125
6.8350,-942.3828125,348.6328125,86.42578125
6.8400,-939.453125,365.7226563,85.9375
6.8450,-942.8710938,364.2578125,85.9375
6.8500,-934.5703125,368.1640625,98.14453125
6.8550,-939.453125,347.1679688,87.40234375
6.8600,-943.359375,328.125,104.9804688
6.8650,-941.40625,322.265625,80.56640625
6.8700,-945.8007813,319.8242188,78.61328125
6.8750,-948.7304688,318.8476563,87.40234375
6.8800,-937.9882813,324.21875,77.1484375
6.8850,-950.1953125,304.1992188,77.1484375
6.8900,-960.4492188,296.3867188,76.66015625
6.8950,-954.5898438,294.4335938,70.3125
6.9000,-963.3789063,306.1523438,79.1015625
6.9050,-962.4023438,318.359375,87.890625
6.9100,-951.6601563,346.1914063,89.84375
6.9150,-957.5195313,353.0273438,79.1015625
6.9200,-958.984375,358.3984375,90.33203125
6.9250,-962.890625,353.515625,92.28515625
6.9300,-957.5195313,358.3984375,88.37890625
6.9350,-958.4960938,342.7734375,81.54296875
6.9400,-958.984375,325.1953125,93.26171875
6.9450,-957.03125,312.5,82.03125
6.9500,-963.3789063,306.1523438,72.75390625
6.9550,-954.1015625,313.9648438,78.61328125
6.9600,-943.359375,327.1484375,77.63671875
6.9650,-944.8242188,326.171875,85.9375
6.9700,-944.8242188,327.1484375,76.171875
6.9750,-942.3828125,335.9375,90.8203125
6.9800,-944.8242188,342.7734375,92.28515625
6.9850,-934.5703125,368.6523438,101.5625
6.9900,-938.9648438,373.046875,105.9570313
6.9950,-937.9882813,380.859375,85.9375
7.0000,-944.3359375,379.8828125,91.30859375
7.0050,-941.40625,379.3945313,88.8671875
7.0100,-938.9648438,376.953125,90.33203125
7.0150,-935.546875,367.6757813,82.03125
7.0200,-943.359375,349.609375,67.87109375
7.0250,-948.7304688,334.9609375,75.68359375
7.0300,-950.6835938,325.6835938,73.2421875
7.0350,-946.7773438,332.03125,77.1484375
7.0400,-946.2890625,330.5664063,80.078125
7.0450,-944.3359375,336.4257813,98.14453125
7.0500,-954.1015625,315.4296875,103.0273438
7.0550,-963.3789063,297.3632813,94.23828125
7.0600,-956.0546875,301.7578125,111.8164063
7.0650,-953.125,306.1523438,102.0507813
7.0700,-958.4960938,310.0585938,102.0507813
7.0750,-948.7304688,318.359375,87.40234375
7.0800,-940.9179688,329.1015625,80.078125
7.0850,-943.8476563,326.6601563,71.77734375
7.0900,-949.7070313,320.8007813,67.3828125
7.0950,-955.078125,308.59375,69.82421875
7.1000,-960.9375,300.78125,82.51953125
7.1050,-957.03125,301.2695313,62.5
7.1100,-950.1953125,315.9179688,62.5
7.1150,-957.03125,310.0585938,71.77734375
7.1200,-959.9609375,318.8476563,74.21875
7.1250,-958.4960938,320.8007813,69.82421875
7.1300,-952.6367188,323.7304688,69.82421875
7.1350,-958.984375,316.8945313,70.3125
7.1400,-962.890625,308.59375,80.56640625
7.1450,-963.3789063,296.875,80.56640625
7.1500,-962.4023438,291.015625,83.49609375
7.1550,-956.0546875,288.0859375,78.125
7.1600,-963.8671875,281.25,81.0546875
7.1650,-956.5429688,285.15625,82.03125
7.1700,-955.5664063,282.2265625,85.44921875
7.1750,-971.1914063,268.5546875,93.26171875
7.1800,-960.4492188,267.578125,81.54296875
7.1850,-965.8203125,250.9765625,85.9375
7.1900,-964.84375,238.28125,69.3359375
7.1950,-959.4726563,239.2578125,59.5703125
7.2000,-956.0546875,243.1640625,64.94140625
7.2050,-949.7070313,258.3007813,68.84765625
7.2100,-950.6835938,271.9726563,64.94140625
7.2150,-954.1015625,275.8789063,74.21875
7.2200,-958.984375,261.71875,60.546875
7.2250,-953.6132813,250.9765625,58.10546875
7.2300,-949.21875,260.7421875,64.453125
7.2350,-950.6835938,254.8828125,63.4765625
7.2400,-958.0078125,261.2304688,59.08203125
7.2450,-957.03125,268.0664063,68.84765625
7.2500,-958.0078125,276.3671875,59.5703125
7.2550,-956.0546875,283.203125,48.828125
7.2600,-950.6835938,296.3867188,54.19921875
7.2650,-938.4765625,307.1289063,44.43359375
7.2700,-951.171875,302.734375,43.45703125
7.2750,-950.1953125,297.3632813,54.19921875
7.2800,-948.7304688,294.4335938,39.0625
7.2850,-947.265625,292.4804688,35.15625
7.2900,-941.40625,300.78125,31.73828125
7.2950,-940.9179688,298.828125,45.8984375
7.3000,-953.125,297.8515625,62.98828125
7.3050,-956.5429688,299.8046875,58.59375
7.3100,-959.9609375,291.5039063,84.47265625
7.3150,-961.9140625,278.8085938,67.87109375
7.3200,-953.125,277.34375,87.40234375
7.3250,-966.3085938,257.3242188,86.9140625
7.3300,-978.0273438,235.3515625,89.35546875
7.3350,-976.0742188,229.4921875,90.33203125
7.3400,-984.8632813,221.1914063,100.5859375
7.3450,-984.375,211.4257813,94.7265625
7.3500,-981.9335938,195.8007813,104.4921875
7.3550,-979.4921875,187.9882813,112.7929688
7.3600,-974.1210938,186.0351563,105.46875
7.3650,-980.46875,179.6875,110.8398438
7.3700,-978.515625,191.40625,108.3984375
7.3750,-967.2851563,200.6835938,111.328125
7.3800,-969.2382813,206.5429688,105.46875
7.3850,-967.7734375,213.3789063,100.5859375
7.3900,-964.3554688,221.6796875,86.9140625
7.3950,-961.9140625,227.5390625,94.7265625
7.4000,-954.1015625,240.7226563,94.23828125
7.4050,-953.6132813,251.953125,93.75
7.4100,-951.6601563,251.953125,83.49609375
7.4150,-945.8007813,253.4179688,78.61328125
7.4200,-954.5898438,252.9296875,60.546875
7.4250,-952.6367188,258.3007813,46.38671875
7.4300,-945.3125,268.5546875,46.38671875
7.4350,-937.5,286.6210938,49.8046875
7.4400,-953.125,283.6914063,41.50390625
7.4450,-945.3125,296.3867188,43.45703125
7.4500,-950.6835938,292.96875,55.17578125
7.4550,-954.1015625,285.6445313,47.8515625
7.4600,-953.125,278.3203125,50.78125
7.4650,-958.4960938,265.625,49.8046875
7.4700,-965.8203125,257.3242188,62.5
7.4750,-970.2148438,255.859375,64.94140625
7.4800,-971.6796875,260.7421875,77.1484375
7.4850,-977.5390625,259.765625,82.51953125
7.4900,-981.4453125,260.2539063,87.890625
7.4950,-978.0273438,254.3945313,100.5859375
7.5000,-976.0742188,250.4882813,99.609375
7.5050,-973.6328125,241.6992188,106.9335938
7.5100,-970.2148438,249.0234375,95.703125
7.5150,-975.0976563,236.328125,99.12109375
7.5200,-973.1445313,227.5390625,115.7226563
7.5250,-977.5390625,218.75,106.9335938
7.5300,-968.75,219.7265625,96.19140625
7.5350,-970.703125,208.984375,96.19140625
7.5400,-967.7734375,203.125,95.21484375
7.5450,-965.8203125,208.984375,78.61328125
7.5500,-961.4257813,221.6796875,86.9140625
7.5550,-960.9375,229.0039063,84.47265625
7.5600,-958.4960938,243.1640625,86.42578125
7.5650,-957.03125,247.0703125,79.1015625
7.5700,-964.3554688,246.5820313,89.35546875
7.5750,-961.4257813,247.0703125,84.9609375
7.5800,-962.890625,247.5585938,77.1484375
7.5850,-965.3320313,241.2109375,78.61328125
7.5900,-977.5390625,247.5585938,58.59375
7.5950,-977.5390625,244.6289063,72.75390625
7.6000,-974.1210938,239.7460938,59.08203125
7.6050,-964.84375,235.8398438,54.6875
7.6100,-973.1445313,230.46875,63.4765625
7.6150,-987.3046875,228.0273438,56.15234375
7.6200,-992.1875,230.9570313,59.08203125
7.6250,-988.28125,223.1445313,71.77734375
7.6300,-983.8867188,215.8203125,69.82421875
7.6350,-979.4921875,209.4726563,81.54296875
7.6400,-990.234375,205.078125,87.40234375
7.6450,-990.7226563,209.4726563,89.84375
7.6500,-987.3046875,225.5859375,95.21484375
7.6550,-992.1875,230.46875,95.703125
7.6600,-992.6757813,247.0703125,96.19140625
7.6650,-994.140625,261.71875,103.515625
7.6700,-994.140625,266.6015625,104.4921875
7.6750,-975.5859375,271.484375,85.9375
7.6800,-958.4960938,255.859375,80.56640625
7.6850,-941.8945313,239.7460938,75.68359375
7.6900,-968.75,207.03125,67.87109375
7.6950,-980.46875,192.8710938,55.6640625
7.7000,-983.3984375,192.3828125,59.5703125
7.7050,-978.515625,214.3554688,79.58984375
7.7100,-983.8867188,248.5351563,93.75
7.7150,-994.140625,291.5039063,103.515625
7.7200,-1000.488281,329.5898438,114.2578125
7.7250,-972.1679688,360.8398438,134.765625
7.7300,-968.2617188,345.2148438,119.6289063
7.7350,-958.4960938,317.3828125,101.0742188
7.7400,-965.3320313,291.015625,95.21484375
7.7450,-965.8203125,269.53125,80.078125
7.7500,-973.1445313,263.1835938,69.82421875
7.7550,-981.9335938,269.0429688,56.15234375
7.7600,-981.4453125,301.7578125,67.87109375
7.7650,-965.3320313,331.0546875,59.5703125
7.7700,-957.03125,333.0078125,96.19140625
7.7750,-946.2890625,326.171875,89.35546875
7.7800,-948.2421875,321.2890625,77.1484375
7.7850,-945.3125,313.4765625,85.9375
7.7900,-946.2890625,308.59375,100.0976563
7.7950,-958.4960938,297.8515625,78.61328125
7.8000,-961.9140625,310.546875,94.23828125
7.8050,-974.1210938,313.9648438,94.23828125
7.8100,-966.3085938,344.2382813,86.42578125
7.8150,-967.7734375,366.6992188,93.26171875
7.8200,-959.4726563,391.1132813,97.65625
7.8250,-948.7304688,404.296875,97.16796875
7.8300,-935.546875,419.921875,96.6796875
7.8350,-946.2890625,426.7578125,97.65625
7.8400,-950.6835938,428.2226563,83.49609375
7.8450,-936.5234375,445.8007813,85.44921875
7.8500,-922.3632813,453.125,64.94140625
7.8550,-912.5976563,459.4726563,63.96484375
7.8600,-910.6445313,452.1484375,72.265625
7.8650,-906.25,457.5195313,58.59375
7.8700,-912.109375,452.6367188,61.03515625
7.8750,-902.8320313,466.796875,62.5
7.8800,-901.3671875,468.75,52.734375
7.8850,-902.8320313,470.2148438,75.68359375
7.8900,-906.25,471.1914063,67.87109375
7.8950,-910.6445313,475.0976563,67.3828125
7.9000,-911.1328125,483.8867188,93.75
7.9050,-917.4804688,477.0507813,81.54296875
7.9100,-922.3632813,458.984375,92.7734375
7.9150,-915.5273438,453.6132813,82.51953125
7.9200,-908.203125,466.796875,67.3828125
7.9250,-892.578125,485.8398438,75.68359375
7.9300,-903.8085938,491.6992188,70.80078125
7.9350,-902.8320313,500.9765625,89.35546875
7.9400,-917.4804688,501.4648438,70.80078125
7.9450,-904.7851563,513.671875,75.1953125
7.9500,-901.8554688,507.3242188,71.77734375
7.9550,-892.0898438,510.2539063,77.1484375
7.9600,-890.625,520.9960938,82.03125
7.9650,-899.4140625,522.9492188,85.44921875
7.9700,-901.3671875,527.8320313,79.58984375
7.9750,-895.0195313,529.7851563,64.453125
7.9800,-886.2304688,541.9921875,75.1953125
7.9850,-888.1835938,537.109375,86.9140625
7.9900,-886.2304688,540.5273438,94.7265625
7.9950,-895.5078125,537.109375,91.796875
8.0000,-897.9492188,554.1992188,90.8203125
8.0050,-882.8125,573.7304688,102.0507813
8.0100,-884.2773438,586.4257813,90.33203125
8.0150,-877.4414063,592.7734375,103.0273438
8.0200,-868.1640625,592.2851563,110.3515625
8.0250,-871.5820313,591.3085938,88.8671875
8.0300,-865.7226563,603.515625,104.4921875
8.0350,-861.328125,606.4453125,96.6796875
8.0400,-853.515625,614.2578125,93.75
8.0450,-837.4023438,620.1171875,98.6328125
8.0500,-836.4257813,619.140625,109.375
8.0550,-840.3320313,618.1640625,103.515625
8.0600,-844.2382813,618.1640625,113.7695313
8.0650,-836.9140625,628.90625,117.6757813
8.0700,-831.5429688,633.3007813,117.6757813
8.0750,-828.6132813,638.1835938,101.5625
8.0800,-812.9882813,660.6445313,111.8164063
8.0850,-821.2890625,652.8320313,121.5820313
8.0900,-819.8242188,659.6679688,111.328125
8.0950,-812.5,687.9882813,104.0039063
8.1000,-808.1054688,703.125,121.5820313
8.1050,-809.5703125,708.0078125,122.5585938
8.1100,-803.7109375,702.6367188,121.09375
8.1150,-799.8046875,690.4296875,120.1171875
8.1200,-791.015625,697.7539063,105.9570313
8.1250,-782.2265625,699.21875,112.7929688
8.1300,-771.484375,703.6132813,99.12109375
8.1350,-774.4140625,687.9882813,110.8398438
8.1400,-767.0898438,704.1015625,114.2578125
8.1450,-770.9960938,710.9375,119.140625
8.1500,-784.6679688,726.0742188,112.7929688
8.1550,-777.8320313,757.3242188,120.1171875
8.1600,-770.5078125,771.484375,130.3710938
8.1650,-760.2539063,770.9960938,127.9296875
8.1700,-749.5117188,762.2070313,120.6054688
8.1750,-727.5390625,754.8828125,125.4882813
8.1800,-724.609375,755.859375,119.140625
8.1850,-721.6796875,776.8554688,123.046875
8.1900,-728.0273438,794.4335938,124.5117188
8.1950,-725.0976563,799.3164063,127.9296875
8.2000,-714.84375,791.9921875,109.8632813
8.2050,-703.6132813,774.9023438,104.4921875
8.2100,-706.0546875,770.5078125,104.9804688
8.2150,-697.7539063,770.9960938,91.30859375
8.2200,-696.7773438,774.4140625,110.8398438
8.2250,-689.9414063,787.5976563,108.8867188
8.2300,-679.6875,790.5273438,108.8867188
8.2350,-671.3867188,806.1523438,108.3984375
8.2400,-664.5507813,825.6835938,116.2109375
8.2450,-653.3203125,845.703125,115.7226563
8.2500,-645.5078125,852.0507813,121.09375
8.2550,-634.765625,842.2851563,134.2773438
8.2600,-638.671875,826.171875,119.6289063
8.2650,-632.3242188,824.21875,119.6289063
8.2700,-632.8125,828.6132813,107.421875
8.2750,-623.046875,846.1914063,120.6054688
8.2800,-613.28125,855.9570313,116.6992188
8.2850,-601.5625,864.2578125,120.1171875
8.2900,-590.8203125,883.3007813,121.09375
8.2950,-585.9375,874.5117188,132.3242188
8.3000,-573.7304688,859.375,143.5546875
8.3050,-580.5664063,833.984375,124.0234375
8.3100,-578.6132813,836.4257813,110.3515625
8.3150,-565.4296875,861.328125,106.9335938
8.3200,-534.6679688,898.4375,120.6054688
8.3250,-529.7851563,896.9726563,116.6992188
8.3300,-523.4375,905.2734375,132.3242188
8.3350,-518.0664063,914.0625,129.3945313
8.3400,-521.484375,912.109375,128.90625
8.3450,-523.9257813,904.296875,136.71875
8.3500,-516.6015625,908.203125,143.0664063
8.3550,-503.90625,900.390625,139.6484375
8.3600,-479.4921875,912.5976563,135.2539063
8.3650,-468.2617188,906.25,143.5546875
8.3700,-472.1679688,907.7148438,143.5546875
8.3750,-469.7265625,923.3398438,141.1132813
8.3800,-464.3554688,941.40625,145.5078125
8.3850,-450.1953125,928.7109375,149.4140625
8.3900,-438.4765625,895.5078125,150.390625
8.3950,-433.1054688,883.7890625,140.625
8.4000,-424.8046875,905.7617188,127.4414063
8.4050,-420.8984375,937.0117188,141.6015625
8.4100,-408.203125,970.2148438,149.4140625
8.4150,-403.8085938,973.1445313,142.578125
8.4200,-390.625,971.1914063,135.7421875
8.4250,-383.3007813,950.1953125,140.625
8.4300,-374.5117188,932.1289063,146.9726563
8.4350,-364.2578125,933.1054688,132.8125
8.4400,-358.3984375,945.8007813,141.1132813
8.4450,-342.2851563,969.2382813,136.2304688
8.4500,-343.75,968.75,152.34375
8.4550,-333.4960938,969.7265625,154.296875
8.4600,-331.0546875,964.3554688,157.7148438
8.4650,-312.5,959.9609375,155.7617188
8.4700,-308.59375,940.4296875,157.2265625
8.4750,-288.5742188,921.875,147.9492188
8.4800,-277.34375,914.0625,160.15625
8.4850,-260.2539063,921.3867188,168.9453125
8.4900,-266.1132813,945.8007813,174.8046875
8.4950,-263.671875,969.2382813,183.59375
8.5000,-252.4414063,979.0039063,179.1992188
8.5050,-240.234375,973.6328125,181.640625
8.5100,-216.3085938,978.0273438,168.9453125
8.5150,-202.6367188,979.9804688,160.6445313
8.5200,-187.0117188,998.046875,177.734375
8.5250,-186.5234375,1001.953125,185.0585938
8.5300,-183.59375,988.28125,187.0117188
8.5350,-176.2695313,958.4960938,183.1054688
8.5400,-158.203125,935.0585938,157.7148438
8.5450,-153.8085938,919.4335938,159.1796875
8.5500,-153.3203125,940.9179688,157.2265625
8.5550,-150.390625,966.3085938,172.3632813
8.5600,-148.4375,979.9804688,200.6835938
8.5650,-144.0429688,971.6796875,208.984375
8.5700,-122.0703125,969.2382813,191.40625
8.5750,-109.375,947.7539063,184.0820313
8.5800,-107.9101563,927.734375,192.3828125
8.5850,-106.4453125,929.6875,175.2929688
8.5900,-99.12109375,958.4960938,184.0820313
8.5950,-102.5390625,980.46875,195.8007813
8.6000,-99.12109375,1006.347656,196.7773438
8.6050,-86.9140625,1009.277344,204.5898438
8.6100,-66.40625,1005.371094,192.8710938
8.6150,-63.4765625,990.7226563,183.59375
8.6200,-69.3359375,1011.230469,192.8710938
8.6250,-92.7734375,1006.835938,202.1484375
8.6300,-95.21484375,1008.300781,204.5898438
8.6350,-70.80078125,1002.929688,201.6601563
8.6400,-47.36328125,978.0273438,200.6835938
8.6450,-25.390625,943.359375,212.890625
8.6500,-22.94921875,911.6210938,205.5664063
8.6550,-48.828125,888.671875,209.9609375
8.6600,-28.80859375,913.5742188,220.703125
8.6650,-4.8828125,920.8984375,224.1210938
8.6700,4.8828125,930.1757813,230.46875
8.6750,0,970.2148438,247.5585938
8.6800,-6.34765625,1039.550781,261.2304688
8.6850,-0.9765625,1095.214844,287.5976563
8.6900,0,1092.773438,291.9921875
8.6950,13.671875,1063.964844,289.0625
8.7000,31.73828125,1010.742188,266.1132813
8.7050,40.0390625,950.6835938,234.375
8.7100,4.8828125,884.2773438,244.6289063
8.7150,-16.11328125,865.7226563,226.5625
8.7200,22.4609375,877.4414063,209.9609375
8.7250,75.1953125,875.9765625,205.5664063
8.7300,95.21484375,881.8359375,195.8007813
8.7350,95.703125,923.828125,223.1445313
8.7400,89.84375,969.2382813,245.1171875
8.7450,111.8164063,982.9101563,264.6484375
8.7500,141.6015625,944.3359375,274.4140625
8.7550,167.4804688,899.9023438,275.390625
8.7600,175.78125,893.0664063,250.9765625
8.7650,185.0585938,924.8046875,242.6757813
8.7700,183.59375,954.1015625,272.9492188
8.7750,209.4726563,956.0546875,282.2265625
8.7800,224.1210938,902.8320313,280.2734375
8.7850,223.1445313,855.46875,274.9023438
8.7900,220.2148438,883.7890625,269.53125
8.7950,217.2851563,935.546875,264.1601563
8.8000,244.140625,957.5195313,288.0859375
8.8050,271.484375,935.0585938,282.2265625
8.8100,284.6679688,909.6679688,272.9492188
8.8150,291.9921875,904.7851563,259.765625
8.8200,274.9023438,900.8789063,287.109375
8.8250,258.3007813,908.6914063,291.015625
8.8300,271.484375,922.8515625,279.7851563
8.8350,306.1523438,890.1367188,281.7382813
8.8400,323.2421875,819.8242188,286.6210938
8.8450,338.8671875,767.578125,284.6679688
8.8500,351.5625,780.2734375,272.4609375
8.8550,338.8671875,788.5742188,270.9960938
8.8600,355.46875,825.6835938,280.2734375
8.8650,357.9101563,864.2578125,294.4335938
8.8700,357.421875,916.5039063,306.1523438
8.8750,356.9335938,973.1445313,306.1523438
8.8800,358.8867188,1007.8125,307.6171875
8.8850,381.8359375,990.234375,316.40625
8.8900,387.6953125,911.6210938,300.78125
8.8950,347.1679688,819.8242188,282.2265625
8.9000,335.9375,812.9882813,242.1875
8.9050,331.5429688,864.2578125,244.6289063
8.9100,347.65625,896.9726563,249.5117188
8.9150,372.0703125,881.8359375,281.7382813
8.9200,378.4179688,836.9140625,284.1796875
8.9250,378.4179688,794.4335938,268.5546875
8.9300,364.7460938,774.9023438,272.9492188
8.9350,371.09375,798.3398438,269.53125
8.9400,390.625,796.875,279.7851563
8.9450,406.7382813,735.3515625,301.7578125
8.9500,428.7109375,688.9648438,291.015625
8.9550,436.0351563,698.2421875,265.1367188
8.9600,437.0117188,798.828125,245.1171875
8.9650,447.265625,870.6054688,291.5039063
8.9700,458.984375,869.6289063,321.2890625
8.9750,462.890625,817.8710938,320.8007813
8.9800,458.4960938,799.8046875,296.3867188
8.9850,456.5429688,819.8242188,288.0859375
8.9900,449.21875,832.5195313,291.5039063
8.9950,450.6835938,804.6875,286.1328125
9.0000,445.3125,754.8828125,288.0859375
9.0050,430.1757813,741.6992188,270.9960938
9.0100,429.1992188,784.6679688,253.4179688
9.0150,448.7304688,798.3398438,289.5507813
9.0200,459.4726563,760.2539063,308.59375
9.0250,461.4257813,726.5625,308.59375
9.0300,449.7070313,733.3984375,295.4101563
9.0350,437.9882813,769.53125,287.5976563
9.0400,437.9882813,803.2226563,302.734375
9.0450,446.7773438,786.1328125,303.2226563
9.0500,464.3554688,739.2578125,296.3867188
9.0550,483.3984375,712.4023438,278.3203125
9.0600,487.7929688,711.9140625,261.71875
9.0650,486.328125,755.3710938,277.8320313
9.0700,484.375,818.359375,297.8515625
9.0750,483.8867188,891.6015625,290.0390625
9.0800,490.234375,921.875,310.0585938
9.0850,489.2578125,862.3046875,328.6132813
9.0900,477.5390625,765.1367188,325.6835938
9.0950,486.328125,750,297.8515625
9.1000,486.328125,812.0117188,259.2773438
9.1050,484.8632813,852.0507813,288.0859375
9.1100,454.1015625,831.5429688,341.796875
9.1150,451.171875,814.9414063,339.84375
9.1200,464.3554688,852.5390625,322.265625
9.1250,481.9335938,880.3710938,317.3828125
9.1300,486.8164063,859.375,346.1914063
9.1350,492.1875,782.2265625,350.0976563
9.1400,500.4882813,716.796875,338.3789063
9.1450,506.3476563,687.5,298.828125
9.1500,505.3710938,702.6367188,292.96875
9.1550,527.34375,713.3789063,293.4570313
9.1600,562.0117188,685.0585938,341.796875
9.1650,584.9609375,628.90625,291.5039063
9.1700,598.1445313,650.8789063,291.9921875
9.1750,605.9570313,715.8203125,308.59375
9.1800,611.8164063,749.0234375,337.4023438
9.1850,610.3515625,719.2382813,339.84375
9.1900,627.4414063,708.984375,311.5234375
9.1950,630.859375,696.2890625,294.921875
9.2000,645.9960938,673.828125,291.5039063
9.2050,656.25,646.484375,309.5703125
9.2100,641.6015625,648.9257813,287.5976563
9.2150,655.2734375,708.984375,270.0195313
9.2200,671.875,745.1171875,296.875
9.2250,684.0820313,736.8164063,321.2890625
9.2300,671.875,693.359375,303.2226563
9.2350,664.5507813,647.4609375,307.6171875
9.2400,663.5742188,600.5859375,310.546875
9.2450,674.8046875,578.125,294.4335938
9.2500,701.171875,584.9609375,292.4804688
9.2550,711.4257813,569.3359375,296.3867188
9.2600,713.3789063,561.5234375,301.2695313
9.2650,718.2617188,604.9804688,283.203125
9.2700,739.7460938,682.1289063,281.7382813
9.2750,737.3046875,693.8476563,321.2890625
9.2800,729.4921875,687.0117188,335.9375
9.2850,733.8867188,701.171875,324.7070313
9.2900,737.3046875,680.1757813,336.9140625
9.2950,754.8828125,628.4179688,355.9570313
9.3000,751.4648438,567.8710938,337.890625
9.3050,754.8828125,562.5,297.3632813
9.3100,757.8125,579.1015625,297.8515625
9.3150,771.484375,596.1914063,304.6875
9.3200,777.8320313,602.5390625,328.125
9.3250,765.625,592.2851563,315.9179688
9.3300,749.0234375,603.0273438,314.9414063
9.3350,757.3242188,645.5078125,313.4765625
9.3400,770.5078125,657.2265625,336.4257813
9.3450,764.1601563,612.3046875,353.515625
9.3500,738.28125,561.0351563,331.0546875
9.3550,736.8164063,571.2890625,298.828125
9.3600,754.8828125,609.375,307.6171875
9.3650,763.1835938,597.65625,334.9609375
9.3700,756.8359375,560.546875,317.8710938
9.3750,757.3242188,540.0390625,300.78125
9.3800,748.046875,542.4804688,291.5039063
9.3850,751.4648438,558.59375,281.7382813
9.3900,755.3710938,547.3632813,306.1523438
9.3950,765.1367188,540.5273438,291.5039063
9.4000,744.6289063,533.203125,279.296875
9.4050,746.5820313,562.9882813,272.4609375
9.4100,745.1171875,570.3125,302.2460938
9.4150,756.8359375,551.7578125,326.171875
9.4200,768.0664063,526.3671875,315.4296875
9.4250,765.1367188,512.6953125,292.4804688
9.4300,762.2070313,526.3671875,286.1328125
9.4350,755.3710938,537.109375,300.2929688
9.4400,750.9765625,533.6914063,292.4804688
9.4450,734.375,536.1328125,291.9921875
9.4500,749.0234375,562.0117188,273.9257813
9.4550,747.5585938,538.0859375,294.4335938
9.4600,738.7695313,496.09375,313.4765625
9.4650,757.3242188,487.3046875,297.3632813
9.4700,765.625,498.5351563,280.2734375
9.4750,767.578125,499.0234375,277.8320313
9.4800,758.3007813,480.46875,286.1328125
9.4850,754.8828125,445.3125,287.5976563
9.4900,763.671875,436.0351563,282.7148438
9.4950,774.9023438,454.1015625,268.5546875
9.5000,781.7382813,495.6054688,293.4570313
9.5050,780.2734375,516.6015625,291.5039063
9.5100,781.25,507.8125,303.7109375
9.5150,793.4570313,470.2148438,302.734375
9.5200,800.2929688,441.40625,289.5507813
9.5250,803.7109375,441.40625,278.8085938
9.5300,794.921875,439.453125,288.0859375
9.5350,794.921875,452.1484375,289.5507813
9.5400,807.1289063,486.8164063,279.296875
9.5450,818.359375,492.6757813,273.9257813
9.5500,813.9648438,463.3789063,292.96875
9.5550,805.6640625,413.5742188,286.1328125
9.5600,814.9414063,396.484375,273.9257813
9.5650,834.4726563,402.8320313,258.3007813
9.5700,842.7734375,402.34375,269.53125
9.5750,835.4492188,392.578125,277.8320313
9.5800,819.8242188,414.0625,278.8085938
9.5850,828.6132813,437.0117188,292.4804688
9.5900,841.3085938,437.0117188,295.8984375
9.5950,849.1210938,410.6445313,293.4570313
9.6000,839.3554688,385.2539063,313.4765625
9.6050,833.0078125,400.8789063,282.7148438
9.6100,835.9375,447.265625,260.7421875
9.6150,833.4960938,441.8945313,283.203125
9.6200,832.5195313,403.8085938,285.15625
9.6250,828.6132813,350.0976563,263.671875
9.6300,849.1210938,353.515625,259.2773438
9.6350,861.328125,384.765625,257.8125
9.6400,840.8203125,411.6210938,269.53125
9.6450,833.0078125,439.9414063,273.4375
9.6500,828.6132813,447.265625,292.96875
9.6550,852.5390625,419.4335938,285.15625
9.6600,851.5625,354.9804688,281.25
9.6650,855.46875,304.6875,271.9726563
9.6700,860.8398438,315.9179688,242.6757813
9.6750,867.1875,360.8398438,243.1640625
9.6800,869.140625,390.625,256.3476563
9.6850,872.0703125,387.2070313,267.578125
9.6900,869.140625,353.515625,274.9023438
9.6950,879.3945313,326.171875,243.1640625
9.7000,887.6953125,309.0820313,239.2578125
9.7050,907.2265625,321.7773438,242.6757813
9.7100,893.5546875,322.7539063,242.6757813
9.7150,879.3945313,343.75,255.859375
9.7200,886.2304688,364.7460938,260.7421875
9.7250,883.7890625,346.6796875,274.9023438
9.7300,881.3476563,338.3789063,273.9257813
9.7350,878.4179688,345.2148438,275.8789063
9.7400,863.7695313,346.6796875,263.1835938
9.7450,862.3046875,340.3320313,263.1835938
9.7500,857.421875,329.5898438,254.8828125
9.7550,869.140625,325.1953125,267.578125
9.7600,871.09375,300.2929688,258.3007813
9.7650,881.8359375,288.5742188,254.8828125
9.7700,887.6953125,318.359375,224.1210938
9.7750,885.7421875,342.7734375,237.3046875
9.7800,879.3945313,320.8007813,253.90625
9.7850,873.5351563,289.5507813,263.671875
9.7900,886.71875,327.1484375,253.4179688
9.7950,903.8085938,363.28125,262.6953125
9.8000,895.0195313,348.6328125,294.4335938
9.8050,877.4414063,307.6171875,296.875
9.8100,880.859375,318.8476563,261.2304688
9.8150,886.2304688,354.4921875,274.4140625
9.8200,880.3710938,369.6289063,278.3203125
9.8250,878.4179688,335.9375,299.8046875
9.8300,885.7421875,311.0351563,298.3398438
9.8350,909.6679688,311.5234375,281.25
9.8400,909.6679688,295.8984375,276.8554688
9.8450,904.7851563,284.6679688,272.9492188
9.8500,904.296875,312.0117188,277.8320313
9.8550,907.7148438,312.9882813,295.4101563
9.8600,911.6210938,308.59375,283.6914063
9.8650,928.2226563,314.453125,267.578125
9.8700,929.6875,323.7304688,278.8085938
9.8750,916.9921875,332.5195313,293.4570313
9.8800,904.296875,322.7539063,296.875
9.8850,914.5507813,293.9453125,311.0351563
9.8900,915.5273438,278.3203125,288.5742188
9.8950,928.7109375,292.4804688,285.6445313
9.9000,918.4570313,300.2929688,288.0859375
9.9050,925.78125,325.1953125,270.9960938
9.9100,923.828125,306.1523438,292.4804688
9.9150,923.828125,264.6484375,284.6679688
9.9200,922.8515625,256.3476563,269.0429688
9.9250,937.0117188,276.8554688,267.0898438
9.9300,939.453125,267.0898438,280.2734375
9.9350,936.0351563,243.6523438,276.3671875
9.9400,945.3125,271.9726563,261.2304688
9.9450,926.2695313,287.109375,275.390625
9.9500,922.3632813,295.4101563,267.578125
9.9550,915.5273438,287.109375,281.25
9.9600,910.6445313,302.734375,272.9492188
9.9650,917.96875,309.5703125,285.15625
9.9700,915.0390625,270.9960938,279.7851563
9.9750,927.2460938,247.5585938,271.9726563
9.9800,921.875,243.6523438,255.3710938
9.9850,926.7578125,275.8789063,247.5585938
9.9900,925.78125,289.5507813,261.2304688
9.9950,912.5976563,273.4375,259.2773438
10.0000,910.15625,272.9492188,272.9492188
10.0050,921.875,277.34375,273.4375
10.0100,913.5742188,262.2070313,269.0429688
10.0150,915.0390625,253.4179688,260.7421875
10.0200,918.4570313,264.1601563,262.2070313
10.0250,922.3632813,258.7890625,267.0898438
10.0300,910.6445313,247.0703125,276.3671875
10.0350,901.8554688,262.6953125,250.9765625
10.0400,910.6445313,293.9453125,260.7421875
10.0450,910.15625,279.7851563,257.3242188
10.0500,911.1328125,258.3007813,261.2304688
10.0550,902.34375,233.8867188,252.4414063
10.0600,902.34375,238.28125,255.859375
10.0650,895.5078125,251.953125,258.7890625
10.0700,893.0664063,266.6015625,265.625
10.0750,902.34375,263.671875,243.6523438
10.0800,913.5742188,276.3671875,256.3476563
10.0850,902.8320313,258.3007813,253.4179688
10.0900,881.8359375,250.4882813,243.6523438
10.0950,890.1367188,256.8359375,248.5351563
10.1000,904.7851563,273.9257813,256.8359375
10.1050,903.8085938,281.25,258.7890625
10.1100,903.8085938,289.5507813,274.4140625
10.1150,893.5546875,271.484375,286.6210938
10.1200,895.5078125,263.1835938,289.5507813
10.1250,902.34375,265.625,290.5273438
10.1300,895.5078125,271.9726563,291.5039063
10.1350,890.625,261.2304688,293.4570313
10.1400,894.53125,270.9960938,277.34375
10.1450,883.7890625,267.0898438,284.6679688
10.1500,878.90625,272.9492188,293.4570313
10.1550,893.0664063,286.1328125,293.4570313
10.1600,899.9023438,288.5742188,288.0859375
10.1650,905.2734375,287.5976563,281.25
10.1700,900.8789063,281.7382813,276.8554688
10.1750,895.0195313,274.4140625,280.2734375
10.1800,898.9257813,284.1796875,257.3242188
10.1850,899.4140625,281.25,271.484375
10.1900,900.8789063,290.0390625,271.484375
10.1950,909.1796875,298.3398438,272.4609375
10.2000,900.390625,284.6679688,281.7382813
10.2050,902.34375,283.6914063,291.015625
10.2100,903.8085938,291.015625,296.3867188
10.2150,908.6914063,296.3867188,293.4570313
10.2200,901.3671875,308.1054688,298.828125
10.2250,886.71875,315.4296875,285.15625
10.2300,893.0664063,329.5898438,285.15625
10.2350,895.9960938,319.3359375,276.3671875
10.2400,896.9726563,302.734375,270.5078125
10.2450,898.4375,298.3398438,260.2539063
10.2500,895.5078125,303.7109375,261.71875
10.2550,889.6484375,313.4765625,259.765625
10.2600,882.8125,320.3125,254.8828125
10.2650,887.2070313,329.5898438,265.625
10.2700,891.6015625,333.984375,257.3242188
10.2750,888.671875,330.078125,265.1367188
10.2800,885.2539063,335.9375,265.625
10.2850,875.4882813,334.9609375,270.0195313
10.2900,882.3242188,337.890625,271.484375
10.2950,878.4179688,317.8710938,267.578125
10.3000,884.765625,304.1992188,260.2539063
10.3050,896.9726563,301.7578125,253.90625
10.3100,896.9726563,294.4335938,253.4179688
10.3150,893.0664063,298.828125,234.375
10.3200,895.5078125,312.5,239.7460938
10.3250,896.9726563,320.8007813,252.9296875
10.3300,899.9023438,333.4960938,254.8828125
10.3350,890.1367188,319.8242188,261.71875
10.3400,885.2539063,336.4257813,250.4882813
10.3450,879.3945313,342.7734375,256.3476563
10.3500,869.6289063,354.4921875,270.0195313
10.3550,862.7929688,340.8203125,270.9960938
10.3600,864.7460938,343.75,264.6484375
10.3650,869.140625,342.7734375,269.0429688
10.3700,874.5117188,335.9375,256.3476563
10.3750,871.09375,312.5,251.953125
10.3800,868.6523438,320.3125,244.140625
10.3850,866.2109375,343.75,235.3515625
10.3900,858.8867188,373.046875,241.6992188
10.3950,858.3984375,397.4609375,247.5585938
10.4000,849.609375,380.3710938,257.8125
10.4050,867.1875,369.6289063,264.6484375
10.4100,863.7695313,359.375,257.3242188
10.4150,860.3515625,375.9765625,246.5820313
10.4200,851.0742188,404.296875,266.6015625
10.4250,853.515625,411.6210938,282.7148438
10.4300,847.1679688,398.9257813,288.5742188
10.4350,857.421875,389.1601563,292.4804688
10.4400,858.8867188,384.765625,288.5742188
10.4450,866.2109375,394.0429688,282.7148438
10.4500,859.8632813,401.3671875,293.4570313
10.4550,854.9804688,390.625,284.1796875
10.4600,854.4921875,376.953125,289.0625
10.4650,856.9335938,365.7226563,273.4375
10.4700,862.7929688,382.8125,260.7421875
10.4750,857.421875,420.4101563,243.6523438
10.4800,849.609375,458.4960938,258.7890625
10.4850,843.75,473.6328125,269.53125
10.4900,840.3320313,470.2148438,287.109375
10.4950,846.1914063,453.125,289.5507813
10.5000,845.703125,439.453125,294.921875
10.5050,844.2382813,419.4335938,295.8984375
10.5100,852.0507813,414.5507813,283.6914063
10.5150,854.4921875,395.9960938,273.9257813
10.5200,852.5390625,395.9960938,284.6679688
10.5250,847.65625,402.8320313,270.9960938
10.5300,839.84375,421.875,269.0429688
10.5350,835.4492188,455.078125,246.09375
10.5400,834.4726563,484.8632813,273.9257813
10.5450,830.5664063,480.9570313,277.8320313
10.5500,816.8945313,458.0078125,291.5039063
10.5550,829.5898438,451.171875,276.8554688
10.5600,836.9140625,448.2421875,250
10.5650,833.4960938,434.0820313,274.4140625
10.5700,829.1015625,430.1757813,273.4375
10.5750,827.6367188,435.0585938,264.6484375
10.5800,819.3359375,454.1015625,260.2539063
10.5850,824.21875,476.5625,266.6015625
10.5900,815.9179688,495.6054688,266.6015625
10.5950,812.5,504.8828125,265.1367188
10.6000,799.8046875,509.2773438,274.9023438
10.6050,809.0820313,512.6953125,271.484375
10.6100,809.5703125,513.1835938,274.9023438
10.6150,799.8046875,503.90625,264.6484375
10.6200,798.3398438,497.5585938,276.8554688
10.6250,785.6445313,483.3984375,278.8085938
10.6300,785.15625,483.3984375,268.5546875
10.6350,792.96875,496.09375,270.0195313
10.6400,788.0859375,507.8125,269.53125
10.6450,784.1796875,508.7890625,287.109375
10.6500,774.9023438,511.2304688,279.7851563
10.6550,781.7382813,520.5078125,280.7617188
10.6600,789.5507813,537.5976563,275.390625
10.6650,786.6210938,537.109375,284.1796875
10.6700,780.7617188,539.5507813,272.9492188
10.6750,775.8789063,540.5273438,283.203125
10.6800,767.578125,542.4804688,275.390625
10.6850,760.7421875,536.1328125,273.4375
10.6900,765.1367188,546.875,272.4609375
10.6950,758.3007813,553.7109375,278.3203125
10.7000,762.2070313,566.40625,284.6679688
10.7050,758.7890625,563.4765625,270.5078125
10.7100,753.90625,557.6171875,299.8046875
10.7150,760.7421875,573.2421875,279.7851563
10.7200,748.5351563,581.5429688,273.4375
10.7250,747.5585938,580.078125,270.9960938
10.7300,753.4179688,563.4765625,281.25
10.7350,753.4179688,551.2695313,278.8085938
10.7400,748.5351563,553.7109375,261.2304688
10.7450,742.1875,574.7070313,268.5546875
10.7500,739.7460938,602.0507813,251.4648438
10.7550,743.1640625,614.7460938,279.7851563
10.7600,723.6328125,597.65625,289.5507813
10.7650,728.0273438,590.3320313,269.0429688
10.7700,740.234375,598.6328125,298.3398438
10.7750,739.7460938,607.421875,272.9492188
10.7800,734.375,610.3515625,283.203125
10.7850,726.0742188,600.0976563,274.4140625
10.7900,714.3554688,592.7734375,275.8789063
10.7950,720.703125,598.6328125,265.1367188
10.8000,717.7734375,595.703125,268.0664063
10.8050,729.9804688,603.515625,267.0898438
10.8100,731.9335938,602.0507813,278.3203125
10.8150,722.65625,597.65625,280.2734375
10.8200,708.984375,609.8632813,280.7617188
10.8250,711.4257813,639.1601563,286.6210938
10.8300,708.4960938,654.296875,278.8085938
10.8350,705.078125,660.15625,280.7617188
10.8400,696.2890625,643.0664063,282.2265625
10.8450,682.1289063,619.6289063,282.7148438
10.8500,696.2890625,622.0703125,272.4609375
10.8550,698.2421875,625,251.953125
10.8600,694.3359375,645.9960938,265.625
10.8650,676.7578125,649.9023438,263.1835938
10.8700,680.1757813,644.0429688,275.8789063
10.8750,677.734375,637.2070313,285.6445313
10.8800,684.0820313,648.4375,283.203125
10.8850,686.5234375,654.7851563,292.4804688
10.8900,679.1992188,666.015625,291.5039063
10.8950,671.875,673.828125,289.0625
10.9000,652.8320313,675.2929688,289.0625
10.9050,658.203125,681.640625,294.921875
10.9100,652.8320313,669.4335938,286.1328125
10.9150,670.8984375,688.4765625,276.8554688
10.9200,659.1796875,693.359375,276.3671875
10.9250,644.53125,695.8007813,280.2734375
10.9300,628.90625,686.0351563,278.8085938
10.9350,636.71875,669.921875,264.1601563
10.9400,638.1835938,660.15625,275.390625
10.9450,641.6015625,666.9921875,261.71875
10.9500,622.0703125,697.265625,276.8554688
10.9550,618.6523438,729.0039063,300.78125
10.9600,601.5625,744.6289063,286.6210938
10.9650,591.796875,739.7460938,302.734375
10.9700,599.609375,725.0976563,289.0625
10.9750,611.8164063,716.796875,287.109375
10.9800,612.3046875,723.6328125,255.3710938
10.9850,602.0507813,728.0273438,274.4140625
10.9900,571.7773438,706.5429688,286.6210938
10.9950,575.6835938,711.4257813,277.34375
11.0000,568.8476563,705.5664063,268.5546875
11.0050,578.125,728.0273438,263.671875
11.0100,573.2421875,756.3476563,269.53125
11.0150,559.5703125,772.4609375,284.6679688
11.0200,545.8984375,781.7382813,268.5546875
11.0250,540.0390625,765.625,272.4609375
11.0300,548.828125,759.2773438,272.9492188
11.0350,552.734375,745.1171875,279.296875
11.0400,553.2226563,752.9296875,288.5742188
11.0450,547.8515625,759.765625,266.1132813
11.0500,536.6210938,757.3242188,266.6015625
11.0550,534.6679688,747.5585938,255.3710938
11.0600,526.3671875,745.1171875,254.3945313
11.0650,529.7851563,771.484375,250.9765625
11.0700,509.2773438,790.5273438,257.8125
11.0750,512.2070313,813.4765625,265.1367188
11.0800,499.0234375,809.0820313,274.9023438
11.0850,506.3476563,794.4335938,286.1328125
11.0900,510.7421875,782.2265625,270.5078125
11.0950,502.4414063,779.296875,268.5546875
11.1000,495.6054688,792.96875,274.4140625
11.1050,482.9101563,798.828125,287.109375
11.1100,463.3789063,779.296875,272.9492188
11.1150,479.9804688,778.3203125,279.7851563
11.1200,486.328125,770.9960938,266.1132813
11.1250,483.8867188,768.5546875,255.3710938
11.1300,484.375,801.2695313,258.7890625
11.1350,468.2617188,831.0546875,252.4414063
11.1400,456.5429688,862.3046875,264.6484375
11.1450,441.8945313,858.3984375,265.1367188
11.1500,434.0820313,831.0546875,276.3671875
11.1550,441.40625,794.4335938,272.9492188
11.1600,455.5664063,774.9023438,269.53125
11.1650,455.078125,763.671875,278.3203125
11.1700,445.8007813,783.203125,277.34375
11.1750,435.0585938,822.7539063,283.203125
11.1800,399.4140625,840.8203125,283.6914063
11.1850,398.9257813,825.1953125,302.734375
11.1900,400.8789063,804.6875,287.109375
11.1950,416.015625,825.6835938,263.671875
11.2000,407.7148438,880.859375,246.5820313
11.2050,385.2539063,914.5507813,253.4179688
11.2100,349.1210938,897.9492188,268.5546875
11.2150,338.3789063,861.8164063,271.9726563
11.2200,350.0976563,854.4921875,274.9023438
11.2250,357.9101563,863.7695313,263.1835938
11.2300,348.1445313,891.1132813,273.4375
11.2350,329.1015625,912.109375,287.5976563
11.2400,297.8515625,884.765625,300.78125
11.2450,292.96875,858.8867188,283.203125
11.2500,298.828125,841.3085938,271.484375
11.2550,289.0625,832.03125,264.6484375
11.2600,279.296875,862.7929688,257.8125
11.2650,262.2070313,888.671875,254.8828125
11.2700,254.3945313,899.4140625,250
11.2750,258.3007813,883.3007813,259.2773438
11.2800,266.1132813,878.4179688,268.0664063
11.2850,283.203125,907.7148438,230.9570313
11.2900,272.9492188,919.4335938,238.7695313
11.2950,249.0234375,908.203125,258.7890625
11.3000,225.0976563,912.109375,237.7929688
11.3050,222.1679688,927.2460938,258.7890625
11.3100,231.9335938,919.921875,272.9492188
11.3150,223.6328125,879.8828125,273.9257813
11.3200,230.9570313,854.4921875,271.484375
11.3250,236.328125,870.6054688,263.671875
11.3300,235.8398438,902.8320313,268.0664063
11.3350,220.703125,920.8984375,267.578125
11.3400,201.6601563,928.2226563,282.2265625
11.3450,207.03125,930.6640625,282.2265625
11.3500,201.6601563,923.828125,277.8320313
11.3550,197.7539063,928.2226563,285.15625
11.3600,196.2890625,974.1210938,278.3203125
11.3650,184.0820313,977.5390625,304.6875
11.3700,169.921875,952.1484375,290.5273438
11.3750,154.296875,927.734375,278.3203125
11.3800,154.296875,937.0117188,285.15625
11.3850,160.6445313,945.8007813,281.25
11.3900,148.9257813,921.3867188,284.1796875
11.3950,148.4375,910.6445313,266.1132813
11.4000,149.4140625,905.2734375,277.8320313
11.4050,129.3945313,901.8554688,289.0625
11.4100,116.6992188,925.2929688,298.3398438
11.4150,123.046875,948.2421875,296.875
11.4200,128.4179688,960.9375,282.7148438
11.4250,128.90625,967.2851563,299.3164063
11.4300,117.1875,996.5820313,256.8359375
11.4350,107.421875,995.1171875,274.4140625
11.4400,98.14453125,950.1953125,291.015625
11.4450,106.4453125,910.15625,286.1328125
11.4500,107.9101563,917.4804688,286.6210938
11.4550,93.75,961.4257813,275.390625
11.4600,70.3125,983.3984375,299.8046875
11.4650,50.29296875,969.7265625,299.3164063
11.4700,45.8984375,951.6601563,289.0625
11.4750,57.12890625,957.03125,284.1796875
11.4800,62.01171875,979.0039063,273.9257813
11.4850,57.12890625,1013.183594,279.7851563
11.4900,34.66796875,1030.761719,291.015625
11.4950,10.7421875,1021.484375,282.7148438
11.5000,-7.32421875,988.7695313,286.6210938
11.5050,-0.48828125,955.078125,280.7617188
11.5100,0,908.6914063,267.578125
11.5150,-6.8359375,878.4179688,232.9101563
11.5200,-24.90234375,919.4335938,214.3554688
11.5250,-52.734375,956.0546875,225.5859375
11.5300,-72.265625,940.4296875,255.859375
11.5350,-67.87109375,877.9296875,262.2070313
11.5400,-57.6171875,859.8632813,259.2773438
11.5450,-41.9921875,922.8515625,234.375
11.5500,-70.80078125,982.421875,247.5585938
11.5550,-100.5859375,989.7460938,260.7421875
11.5600,-120.6054688,959.4726563,250.9765625
11.5650,-122.5585938,973.6328125,239.7460938
11.5700,-108.3984375,995.6054688,228.515625
11.5750,-115.7226563,958.0078125,267.578125
11.5800,-116.6992188,906.25,250.4882813
11.5850,-129.3945313,904.7851563,221.1914063
11.5900,-149.9023438,934.0820313,214.84375
11.5950,-176.7578125,953.6132813,232.421875
11.6000,-208.4960938,932.1289063,253.4179688
11.6050,-230.46875,894.53125,265.625
11.6100,-220.2148438,890.625,264.6484375
11.6150,-215.3320313,923.3398438,246.5820313
11.6200,-229.4921875,959.9609375,274.9023438
11.6250,-242.6757813,970.2148438,260.7421875
11.6300,-253.4179688,949.7070313,250
11.6350,-252.9296875,944.8242188,222.65625
11.6400,-265.625,945.8007813,218.2617188
11.6450,-275.8789063,934.0820313,230.9570313
11.6500,-274.4140625,932.1289063,223.6328125
11.6550,-268.5546875,946.2890625,234.375
11.6600,-290.5273438,955.078125,239.2578125
11.6650,-309.0820313,970.703125,251.4648438
11.6700,-329.5898438,976.5625,255.859375
11.6750,-339.3554688,960.4492188,260.7421875
11.6800,-339.84375,928.7109375,266.6015625
11.6850,-341.3085938,908.203125,255.859375
11.6900,-333.0078125,923.828125,250
11.6950,-343.75,939.453125,249.5117188
11.7000,-333.984375,959.9609375,247.5585938
11.7050,-338.3789063,960.4492188,232.9101563
11.7100,-351.5625,978.0273438,229.4921875
11.7150,-362.7929688,1001.953125,215.3320313
11.7200,-379.8828125,1008.300781,212.890625
11.7250,-385.2539063,987.7929688,213.3789063
11.7300,-381.8359375,948.7304688,217.7734375
11.7350,-374.5117188,902.8320313,203.125
11.7400,-389.1601563,869.6289063,208.984375
11.7450,-409.1796875,862.3046875,209.9609375
11.7500,-434.0820313,874.5117188,239.2578125
11.7550,-445.3125,880.859375,242.6757813
11.7600,-461.9140625,879.3945313,276.8554688
11.7650,-449.21875,905.7617188,275.8789063
11.7700,-451.6601563,907.7148438,285.15625
11.7750,-434.0820313,923.828125,264.6484375
11.7800,-438.9648438,913.0859375,260.2539063
11.7850,-448.2421875,919.921875,230.9570313
11.7900,-474.1210938,933.1054688,223.6328125
11.7950,-489.7460938,950.1953125,232.421875
11.8000,-499.0234375,940.9179688,211.4257813
11.8050,-488.7695313,932.1289063,199.21875
11.8100,-475.0976563,929.6875,189.9414063
11.8150,-481.9335938,898.9257813,179.1992188
11.8200,-494.140625,871.5820313,198.2421875
11.8250,-512.6953125,846.1914063,194.8242188
11.8300,-520.5078125,837.4023438,202.1484375
11.8350,-522.4609375,848.1445313,219.7265625
11.8400,-529.296875,861.328125,241.2109375
11.8450,-533.6914063,862.7929688,259.2773438
11.8500,-535.6445313,851.0742188,259.2773438
11.8550,-535.6445313,845.2148438,255.859375
11.8600,-541.9921875,854.9804688,263.1835938
11.8650,-539.5507813,864.2578125,223.1445313
11.8700,-543.4570313,875.9765625,208.4960938
11.8750,-526.3671875,897.4609375,201.6601563
11.8800,-540.5273438,894.53125,199.7070313
11.8850,-550.78125,897.4609375,201.171875
11.8900,-565.9179688,866.2109375,200.6835938
11.8950,-565.9179688,840.8203125,202.6367188
11.9000,-579.1015625,821.2890625,201.6601563
11.9050,-581.5429688,828.6132813,216.3085938
11.9100,-587.4023438,837.890625,236.8164063
11.9150,-593.2617188,834.4726563,233.8867188
11.9200,-595.2148438,812.0117188,251.4648438
11.9250,-598.6328125,800.2929688,238.28125
11.9300,-603.0273438,820.8007813,221.1914063
11.9350,-614.2578125,836.9140625,216.796875
11.9400,-621.09375,827.1484375,223.1445313
11.9450,-627.9296875,805.6640625,202.1484375
11.9500,-622.0703125,796.875,175.2929688
11.9550,-619.6289063,791.5039063,169.921875
11.9600,-615.7226563,799.3164063,155.7617188
11.9650,-625.9765625,797.8515625,170.8984375
11.9700,-645.5078125,799.3164063,183.59375
11.9750,-656.7382813,796.3867188,191.8945313
11.9800,-657.2265625,814.453125,198.2421875
11.9850,-661.1328125,807.1289063,212.890625
11.9900,-654.296875,808.1054688,216.796875
11.9950,-661.6210938,776.3671875,247.5585938
12.0000,-671.3867188,742.1875,241.6992188
12.0050,-677.734375,712.890625,232.421875
12.0100,-678.2226563,714.84375,214.3554688
12.0150,-675.2929688,735.3515625,185.0585938
12.0200,-680.1757813,768.5546875,190.9179688
12.0250,-697.7539063,760.7421875,188.9648438
12.0300,-697.7539063,752.9296875,174.3164063
12.0350,-705.078125,730.9570313,157.7148438
12.0400,-708.984375,731.4453125,143.5546875
12.0450,-710.4492188,736.8164063,147.4609375
12.0500,-720.703125,730.46875,148.9257813
12.0550,-728.515625,730.46875,152.8320313
12.0600,-729.9804688,729.4921875,172.3632813
12.0650,-736.328125,718.2617188,172.3632813
12.0700,-724.1210938,711.4257813,191.8945313
12.0750,-726.5625,690.9179688,187.9882813
12.0800,-729.0039063,691.8945313,195.8007813
12.0850,-740.7226563,684.0820313,197.265625
12.0900,-737.3046875,679.6875,195.3125
12.0950,-732.9101563,671.3867188,179.1992188
12.1000,-739.2578125,649.4140625,173.3398438
12.1050,-735.3515625,656.7382813,162.109375
12.1100,-765.625,653.8085938,155.7617188
12.1150,-774.9023438,667.96875,161.6210938
12.1200,-775.8789063,671.3867188,144.0429688
12.1250,-771.9726563,674.8046875,131.3476563
12.1300,-759.765625,679.6875,131.8359375
12.1350,-768.5546875,654.7851563,134.2773438
12.1400,-778.3203125,642.578125,136.2304688
12.1450,-787.109375,642.578125,126.4648438
12.1500,-793.9453125,654.296875,138.671875
12.1550,-800.2929688,652.34375,141.1132813
12.1600,-794.921875,647.4609375,161.6210938
12.1650,-803.7109375,621.5820313,158.203125
12.1700,-808.1054688,608.8867188,153.3203125
12.1750,-807.6171875,613.28125,155.2734375
12.1800,-801.2695313,621.09375,153.3203125
12.1850,-805.6640625,605.46875,141.1132813
12.1900,-807.1289063,618.6523438,130.3710938
12.1950,-818.8476563,614.7460938,104.9804688
12.2000,-823.2421875,613.7695313,98.6328125
12.2050,-808.59375,604.9804688,117.6757813
12.2100,-823.7304688,580.078125,101.5625
12.2150,-833.0078125,571.2890625,105.9570313
12.2200,-854.9804688,569.3359375,95.21484375
12.2250,-858.8867188,580.078125,92.7734375
12.2300,-858.3984375,598.6328125,116.6992188
12.2350,-846.1914063,608.8867188,113.7695313
12.2400,-842.2851563,615.7226563,138.671875
12.2450,-839.3554688,617.6757813,168.9453125
12.2500,-845.703125,611.328125,183.59375
12.2550,-841.3085938,604.4921875,185.0585938
12.2600,-834.9609375,595.2148438,188.9648438
12.2650,-831.0546875,567.8710938,197.265625
12.2700,-836.4257813,541.015625,181.640625
12.2750,-839.3554688,506.8359375,171.3867188
12.2800,-853.515625,486.8164063,146.484375
12.2850,-857.9101563,501.953125,148.9257813
12.2900,-878.4179688,507.3242188,122.5585938
12.2950,-902.34375,567.8710938,127.4414063
12.3000,-842.7734375,534.1796875,144.53125
12.3050,-844.7265625,555.1757813,94.23828125
12.3100,-855.46875,582.5195313,105.9570313
12.3150,-855.46875,571.7773438,118.1640625
12.3200,-864.7460938,541.015625,140.1367188
12.3250,-873.046875,517.0898438,135.2539063
12.3300,-884.765625,492.1875,131.8359375
12.3350,-890.625,490.7226563,117.1875
12.3400,-893.0664063,496.5820313,119.6289063
12.3450,-881.8359375,501.953125,123.5351563
12.3500,-878.90625,499.0234375,132.3242188
12.3550,-877.4414063,490.7226563,138.671875
12.3600,-878.4179688,495.6054688,135.7421875
12.3650,-890.625,484.8632813,134.2773438
12.3700,-892.0898438,493.1640625,136.71875
12.3750,-886.71875,494.140625,133.3007813
12.3800,-883.3007813,496.5820313,129.3945313
12.3850,-884.765625,500.4882813,119.6289063
12.3900,-892.0898438,504.8828125,112.7929688
12.3950,-888.671875,505.3710938,97.16796875
12.4000,-895.9960938,483.3984375,125.9765625
12.4050,-899.4140625,456.5429688,132.8125
12.4100,-913.0859375,437.0117188,140.1367188
12.4150,-919.4335938,437.5,138.1835938
12.4200,-917.4804688,453.6132813,132.3242188
12.4250,-913.5742188,474.1210938,137.2070313
12.4300,-910.15625,480.46875,139.6484375
12.4350,-914.5507813,464.84375,153.3203125
12.4400,-916.9921875,451.171875,158.203125
12.4450,-909.1796875,437.5,144.0429688
12.4500,-912.109375,439.453125,138.1835938
12.4550,-906.25,437.9882813,124.5117188
12.4600,-903.3203125,444.3359375,122.0703125
12.4650,-906.7382813,449.7070313,117.6757813
12.4700,-924.3164063,442.3828125,115.234375
12.4750,-928.7109375,439.9414063,93.75
12.4800,-933.59375,440.9179688,87.40234375
12.4850,-927.734375,435.546875,78.125
12.4900,-913.0859375,434.5703125,93.75
12.4950,-920.8984375,415.5273438,116.6992188
12.5000,-930.6640625,401.3671875,119.6289063
12.5050,-934.5703125,388.671875,134.2773438
12.5100,-940.9179688,360.8398438,137.6953125
12.5150,-928.7109375,356.4453125,138.1835938
12.5200,-931.1523438,351.0742188,125
12.5250,-928.2226563,349.609375,121.5820313
12.5300,-933.59375,338.3789063,130.859375
12.5350,-935.546875,341.3085938,103.0273438
12.5400,-934.5703125,343.2617188,101.5625
12.5450,-929.1992188,339.84375,99.12109375
12.5500,-921.875,356.4453125,91.30859375
12.5550,-927.2460938,363.7695313,77.63671875
12.5600,-937.0117188,382.3242188,84.47265625
12.5650,-943.359375,397.9492188,92.28515625
12.5700,-934.5703125,407.7148438,70.3125
12.5750,-921.875,401.8554688,101.0742188
12.5800,-921.875,378.90625,99.609375
12.5850,-932.1289063,342.7734375,105.9570313
12.5900,-938.4765625,324.7070313,96.6796875
12.5950,-929.1992188,321.7773438,94.7265625
12.6000,-937.0117188,315.9179688,98.14453125
12.6050,-933.1054688,319.3359375,112.3046875
12.6100,-934.5703125,318.359375,119.6289063
12.6150,-948.7304688,294.921875,113.7695313
12.6200,-940.9179688,286.6210938,126.953125
12.6250,-946.7773438,276.3671875,102.5390625
12.6300,-945.8007813,279.296875,111.8164063
12.6350,-950.6835938,278.3203125,102.5390625
12.6400,-950.6835938,297.3632813,94.7265625
12.6450,-949.21875,299.8046875,106.4453125
12.6500,-944.3359375,299.8046875,95.21484375
12.6550,-941.8945313,293.4570313,85.9375
12.6600,-948.2421875,285.6445313,89.84375
12.6650,-943.8476563,295.4101563,88.8671875
12.6700,-955.5664063,299.8046875,89.35546875
12.6750,-950.1953125,311.0351563,91.796875
12.6800,-961.4257813,300.2929688,96.19140625
12.6850,-961.9140625,296.3867188,100.0976563
12.6900,-949.21875,296.3867188,109.8632813
12.6950,-959.4726563,280.7617188,93.26171875
12.7000,-959.9609375,282.7148438,87.890625
12.7050,-971.1914063,279.296875,105.9570313
12.7100,-975.0976563,291.015625,99.12109375
12.7150,-983.8867188,291.9921875,102.0507813
12.7200,-982.421875,303.7109375,96.6796875
12.7250,-997.0703125,303.7109375,91.796875
12.7300,-989.2578125,330.5664063,99.12109375
12.7350,-979.0039063,334.4726563,105.46875
12.7400,-965.3320313,334.4726563,121.09375
12.7450,-970.2148438,297.8515625,112.7929688
12.7500,-967.2851563,259.765625,94.23828125
12.7550,-965.3320313,233.3984375,70.3125
12.7600,-965.3320313,214.3554688,77.1484375
12.7650,-956.0546875,224.609375,69.3359375
12.7700,-968.2617188,227.5390625,87.890625
12.7750,-979.9804688,243.1640625,90.33203125
12.7800,-988.28125,249.0234375,126.953125
12.7850,-979.9804688,270.0195313,121.09375
12.7900,-979.0039063,276.8554688,141.1132813
12.7950,-980.9570313,285.15625,141.1132813
12.8000,-985.3515625,283.203125,149.9023438
12.8050,-991.2109375,275.8789063,140.625
12.8100,-992.1875,275.390625,150.390625
12.8150,-994.140625,267.578125,147.9492188
12.8200,-999.5117188,265.1367188,139.6484375
12.8250,-984.8632813,261.2304688,119.140625
12.8300,-968.2617188,265.1367188,105.46875
12.8350,-966.796875,261.71875,110.3515625
12.8400,-979.9804688,253.90625,104.0039063
12.8450,-974.1210938,251.953125,89.35546875
12.8500,-972.1679688,248.5351563,104.0039063
12.8550,-970.703125,234.8632813,92.7734375
12.8600,-966.796875,232.421875,97.16796875
12.8650,-973.1445313,212.4023438,99.609375
12.8700,-964.3554688,213.8671875,104.9804688
12.8750,-964.84375,209.4726563,103.515625
12.8800,-974.609375,211.9140625,113.28125
12.8850,-980.46875,212.4023438,127.4414063
12.8900,-987.7929688,210.4492188,125.9765625
12.8950,-988.28125,205.078125,125
12.9000,-983.8867188,201.6601563,120.6054688
12.9050,-973.1445313,192.3828125,110.8398438
12.9100,-975.0976563,201.171875,87.40234375
12.9150,-975.0976563,206.0546875,84.9609375
12.9200,-976.0742188,205.5664063,83.984375
12.9250,-969.7265625,211.4257813,66.89453125
12.9300,-972.1679688,210.4492188,72.265625
12.9350,-965.8203125,221.1914063,73.2421875
12.9400,-962.890625,230.46875,83.49609375
12.9450,-967.7734375,226.5625,85.9375
12.9500,-960.4492188,231.4453125,71.2890625
12.9550,-954.1015625,230.9570313,62.5
12.9600,-949.7070313,227.5390625,63.96484375
12.9650,-959.9609375,220.2148438,74.21875
12.9700,-971.6796875,216.3085938,62.5
12.9750,-961.9140625,221.1914063,66.89453125
12.9800,-976.5625,206.5429688,72.265625
12.9850,-965.3320313,214.3554688,63.4765625
12.9900,-968.75,219.7265625,68.359375
12.9950,-969.2382813,225.0976563,62.98828125
13.0000,-975.5859375,230.9570313,66.89453125
13.0050,-975.5859375,233.3984375,68.359375
13.0100,-969.2382813,241.2109375,60.05859375
13.0150,-964.3554688,245.6054688,64.453125
13.0200,-969.2382813,245.1171875,67.3828125
13.0250,-966.796875,246.5820313,79.1015625
13.0300,-968.75,242.1875,82.51953125
13.0350,-981.4453125,222.65625,90.8203125
13.0400,-979.4921875,217.7734375,87.890625
13.0450,-980.9570313,219.7265625,91.796875
13.0500,-991.6992188,219.7265625,86.9140625
13.0550,-984.375,221.6796875,87.40234375
13.0600,-982.421875,219.7265625,76.171875
13.0650,-975.0976563,213.3789063,85.9375
13.0700,-969.7265625,210.4492188,90.8203125
13.0750,-977.5390625,191.8945313,89.84375
13.0800,-975.0976563,204.5898438,83.984375
13.0850,-977.0507813,212.890625,87.890625
13.0900,-967.2851563,211.4257813,98.6328125
13.0950,-964.3554688,210.9375,83.984375
13.1000,-965.8203125,207.5195313,79.1015625
13.1050,-974.609375,198.7304688,92.28515625
13.1100,-975.0976563,214.3554688,84.47265625
13.1150,-977.0507813,218.75,86.9140625
13.1200,-977.5390625,225.0976563,94.7265625
13.1250,-971.6796875,229.0039063,98.6328125
13.1300,-977.0507813,231.9335938,90.33203125
13.1350,-979.4921875,236.8164063,90.33203125
13.1400,-969.7265625,250.9765625,88.37890625
13.1450,-964.84375,244.6289063,83.0078125
13.1500,-978.0273438,243.6523438,81.0546875
13.1550,-978.515625,253.4179688,84.47265625
13.1600,-969.7265625,267.0898438,75.1953125
13.1650,-964.3554688,279.296875,71.77734375
13.1700,-964.84375,283.203125,83.984375
13.1750,-963.8671875,295.8984375,90.33203125
13.1800,-972.1679688,311.5234375,95.703125
13.1850,-966.796875,325.1953125,97.16796875
13.1900,-960.4492188,335.4492188,106.4453125
13.1950,-961.9140625,343.75,111.328125
13.2000,-965.3320313,364.2578125,120.6054688
13.2050,-983.3984375,394.0429688,137.6953125
13.2100,-993.1640625,417.4804688,147.4609375
13.2150,-995.6054688,401.8554688,126.953125
13.2200,-991.6992188,361.328125,119.140625
13.2250,-970.703125,323.2421875,78.125
13.2300,-967.2851563,299.3164063,65.91796875
13.2350,-965.8203125,279.296875,54.6875
13.2400,-975.0976563,261.2304688,61.03515625
13.2450,-962.890625,258.3007813,51.26953125
13.2500,-955.5664063,262.2070313,63.4765625
13.2550,-946.2890625,267.0898438,74.21875
13.2600,-950.6835938,270.5078125,89.35546875
13.2650,-943.8476563,264.1601563,100.0976563
13.2700,-945.3125,247.0703125,110.8398438
13.2750,-944.3359375,221.6796875,101.5625
13.2800,-946.2890625,222.65625,101.5625
13.2850,-954.1015625,240.234375,90.33203125
13.2900,-957.03125,263.671875,104.4921875
13.2950,-951.171875,284.6679688,108.3984375
13.3000,-952.6367188,294.921875,104.0039063
13.3050,-961.4257813,301.2695313,108.8867188
13.3100,-946.2890625,318.359375,99.609375
13.3150,-931.640625,322.7539063,98.14453125
13.3200,-929.1992188,329.5898438,98.6328125
13.3250,-938.4765625,325.6835938,84.9609375
13.3300,-957.5195313,309.5703125,98.6328125
13.3350,-952.6367188,312.9882813,95.21484375
13.3400,-937.5,323.2421875,85.44921875
13.3450,-935.0585938,327.1484375,80.078125
13.3500,-936.5234375,330.5664063,89.35546875
13.3550,-944.8242188,333.0078125,88.37890625
13.3600,-934.5703125,339.3554688,98.14453125
13.3650,-936.0351563,331.5429688,88.8671875
13.3700,-935.0585938,336.4257813,104.4921875
13.3750,-939.453125,343.2617188,107.421875
13.3800,-944.3359375,356.9335938,120.1171875
13.3850,-949.21875,354.9804688,119.140625
13.3900,-955.078125,347.1679688,125
13.3950,-948.7304688,336.9140625,109.8632813
13.4000,-937.0117188,349.609375,114.7460938
13.4050,-947.265625,344.7265625,106.9335938
13.4100,-953.6132813,355.46875,108.8867188
13.4150,-946.2890625,368.6523438,115.7226563
13.4200,-945.8007813,372.5585938,88.8671875
13.4250,-939.9414063,376.953125,107.421875
13.4300,-934.0820313,375.9765625,106.4453125
13.4350,-941.40625,361.328125,111.8164063
13.4400,-951.171875,350.5859375,111.8164063
13.4450,-945.8007813,358.8867188,105.9570313
13.4500,-941.8945313,384.765625,109.8632813
13.4550,-941.8945313,402.8320313,107.9101563
13.4600,-944.8242188,414.5507813,119.6289063
13.4650,-955.078125,415.0390625,122.5585938
13.4700,-956.5429688,431.1523438,129.3945313
13.4750,-948.2421875,442.3828125,131.3476563
13.4800,-947.7539063,443.8476563,124.0234375
13.4850,-937.9882813,439.9414063,122.5585938
13.4900,-926.2695313,435.546875,126.4648438
13.4950,-929.1992188,439.9414063,129.3945313
13.5000,-951.171875,451.6601563,123.046875
13.5050,-954.1015625,486.328125,143.0664063
13.5100,-945.8007813,538.5742188,145.9960938
13.5150,-917.4804688,585.9375,169.4335938
13.5200,-899.4140625,581.5429688,188.9648438
13.5250,-893.5546875,520.9960938,197.7539063
13.5300,-904.296875,437.0117188,187.0117188
13.5350,-913.5742188,354.4921875,160.6445313
13.5400,-950.1953125,294.4335938,152.8320313
13.5450,-958.984375,305.6640625,132.8125
13.5500,-962.4023438,355.9570313,119.140625
13.5550,-960.9375,412.5976563,124.5117188
13.5600,-951.171875,471.6796875,106.9335938
13.5650,-940.9179688,530.7617188,88.37890625
13.5700,-922.3632813,604.9804688,66.89453125
13.5750,-894.53125,695.3125,63.4765625
13.5800,-871.09375,772.4609375,65.91796875
13.5850,-860.3515625,814.453125,85.9375
13.5900,-844.7265625,821.2890625,79.58984375
13.5950,-840.8203125,801.2695313,74.70703125
13.6000,-827.6367188,799.3164063,74.70703125
13.6050,-823.7304688,792.4804688,83.0078125
13.6100,-821.2890625,777.8320313,100.5859375
13.6150,-797.3632813,762.2070313,110.3515625
13.6200,-782.7148438,745.1171875,110.8398438
13.6250,-762.6953125,742.6757813,104.9804688
13.6300,-751.4648438,740.7226563,115.7226563
13.6350,-735.8398438,745.6054688,111.328125
13.6400,-711.4257813,770.0195313,121.09375
13.6450,-703.6132813,778.3203125,141.6015625
13.6500,-702.1484375,790.5273438,147.4609375
13.6550,-694.3359375,795.4101563,150.8789063
13.6600,-692.3828125,793.9453125,149.9023438
13.6650,-684.5703125,787.109375,161.6210938
13.6700,-687.5,775.8789063,152.34375
13.6750,-688.9648438,761.71875,166.015625
13.6800,-695.8007813,754.3945313,174.3164063
13.6850,-686.0351563,756.8359375,166.015625
13.6900,-689.9414063,755.3710938,155.7617188
13.6950,-676.2695313,779.296875,152.34375
13.7000,-671.3867188,796.3867188,171.3867188
13.7050,-675.78125,800.2929688,166.5039063
13.7100,-683.1054688,814.9414063,164.0625
13.7150,-693.359375,819.3359375,152.34375
13.7200,-679.1992188,836.4257813,133.3007813
13.7250,-659.6679688,841.3085938,136.71875
13.7300,-662.109375,836.9140625,137.2070313
13.7350,-680.6640625,833.984375,143.0664063
13.7400,-693.359375,836.9140625,136.71875
13.7450,-703.125,828.125,144.0429688
13.7500,-699.21875,812.9882813,149.9023438
13.7550,-689.453125,798.3398438,141.6015625
13.7600,-674.8046875,801.7578125,146.484375
13.7650,-669.4335938,802.734375,144.0429688
13.7700,-660.15625,814.453125,158.6914063
13.7750,-648.9257813,827.6367188,144.0429688
13.7800,-643.0664063,842.7734375,147.9492188
13.7850,-635.7421875,851.0742188,136.2304688
13.7900,-620.6054688,872.0703125,144.53125
13.7950,-615.7226563,856.9335938,143.5546875
13.8000,-596.6796875,864.7460938,123.5351563
13.8050,-589.3554688,854.0039063,114.2578125
13.8100,-577.6367188,845.703125,109.8632813
13.8150,-563.9648438,840.3320313,102.0507813
13.8200,-544.4335938,838.8671875,126.4648438
13.8250,-531.7382813,845.703125,142.578125
13.8300,-542.4804688,860.8398438,136.71875
13.8350,-540.5273438,881.8359375,138.1835938
13.8400,-527.34375,885.2539063,165.5273438
13.8450,-518.0664063,856.4453125,165.5273438
13.8500,-515.625,829.5898438,151.8554688
13.8550,-486.328125,846.1914063,131.8359375
13.8600,-470.2148438,867.1875,123.046875
13.8650,-442.3828125,887.6953125,126.4648438
13.8700,-451.6601563,875.9765625,122.0703125
13.8750,-455.078125,877.4414063,114.2578125
13.8800,-454.5898438,884.2773438,116.2109375
13.8850,-436.5234375,897.9492188,114.7460938
13.8900,-422.3632813,892.0898438,132.8125
13.8950,-408.203125,893.5546875,142.578125
13.9000,-411.1328125,898.9257813,164.0625
13.9050,-407.7148438,926.2695313,173.828125
13.9100,-402.8320313,946.2890625,180.1757813
13.9150,-384.2773438,950.6835938,196.2890625
13.9200,-370.1171875,937.5,205.078125
13.9250,-369.140625,916.015625,185.546875
13.9300,-362.7929688,907.2265625,171.875
13.9350,-354.9804688,925.2929688,166.9921875
13.9400,-345.703125,952.1484375,161.1328125
13.9450,-338.3789063,969.7265625,180.6640625
13.9500,-342.7734375,958.0078125,198.7304688
13.9550,-338.3789063,947.265625,201.6601563
13.9600,-326.171875,972.1679688,205.078125
13.9650,-320.8007813,985.3515625,211.4257813
13.9700,-319.8242188,979.0039063,221.6796875
13.9750,-316.8945313,955.078125,207.03125
13.9800,-313.9648438,957.03125,207.5195313
13.9850,-291.015625,980.9570313,195.8007813
13.9900,-269.0429688,988.28125,206.5429688
13.9950,-256.3476563,970.2148438,218.75
14.0000,-247.5585938,960.9375,224.609375
14.0050,-263.671875,957.5195313,237.7929688
14.0100,-269.53125,975.5859375,243.1640625
14.0150,-250.9765625,976.5625,224.1210938
14.0200,-238.7695313,949.7070313,220.703125
14.0250,-226.0742188,935.0585938,209.9609375
14.0300,-221.6796875,954.5898438,177.2460938
14.0350,-206.0546875,1006.347656,171.3867188
14.0400,-215.8203125,1018.066406,184.5703125
14.0450,-210.9375,1000,187.0117188
14.0500,-208.4960938,962.890625,187.0117188
14.0550,-209.9609375,944.3359375,171.3867188
14.0600,-197.7539063,951.171875,183.59375
14.0650,-176.2695313,936.0351563,188.9648438
14.0700,-161.6210938,898.9257813,215.3320313
14.0750,-148.4375,894.53125,207.03125
14.0800,-140.1367188,915.5273438,206.5429688
14.0850,-130.859375,930.6640625,222.1679688
14.0900,-129.3945313,935.0585938,243.6523438
14.0950,-119.140625,941.40625,238.7695313
14.1000,-119.6289063,964.3554688,231.9335938
14.1050,-112.3046875,968.75,217.2851563
14.1100,-84.47265625,965.8203125,214.3554688
14.1150,-69.82421875,954.1015625,231.4453125
14.1200,-76.66015625,944.8242188,226.5625
14.1250,-86.42578125,964.84375,212.4023438
14.1300,-82.03125,991.2109375,220.2148438
14.1350,-60.546875,987.3046875,212.890625
14.1400,-52.734375,964.84375,249.5117188
14.1450,-72.265625,943.8476563,278.8085938
14.1500,-94.7265625,979.4921875,284.1796875
14.1550,-117.1875,1007.324219,283.203125
14.1600,-107.421875,1029.785156,272.4609375
14.1650,-78.125,1012.207031,254.3945313
14.1700,-65.91796875,995.6054688,232.421875
14.1750,-74.21875,1009.277344,213.8671875
