type,name,time_units,begin_time,frequency,count,units
signal,"Noraxon MyoMotion-Segments-Forearm RT-Course","s",0.0000,200,5068,"deg"

time,value
0.0000,-21.82088644
0.0050,-21.82330799
0.0100,-21.82572945
0.0150,-21.82815082
0.0200,-21.83171014
0.0250,-21.83658015
0.0300,-21.84293728
0.0350,-21.85095912
0.0400,-21.86082078
0.0450,-21.87269095
0.0500,-21.88672844
0.0550,-21.90307934
0.0600,-21.92187415
0.0650,-21.9432242
0.0700,-21.9672169
0.0750,-21.99391093
0.0800,-22.02333177
0.0850,-22.05546785
0.0900,-22.09026758
0.0950,-22.12763744
0.1000,-22.16744075
0.1050,-22.2094975
0.1100,-22.25358576
0.1150,-22.29944482
0.1200,-22.34677946
0.1250,-22.3952651
0.1300,-22.44455304
0.1350,-22.49427607
0.1400,-22.54405452
0.1450,-22.59350402
0.1500,-22.64224558
0.1550,-22.70874982
0.1600,-22.77285682
0.1650,-22.83430877
0.1700,-22.89264443
0.1750,-22.94762146
0.1800,-22.99890285
0.1850,-23.04638163
0.1900,-23.08978201
0.1950,-23.12907545
0.2000,-23.16407825
0.2050,-23.19483159
0.2100,-23.22113284
0.2150,-23.24312195
0.2200,-23.26086628
0.2250,-23.27409434
0.2300,-23.28296757
0.2350,-23.28736945
0.2400,-23.28715003
0.2450,-23.28240641
0.2500,-23.27313613
0.2550,-23.25922677
0.2600,-23.24084266
0.2650,-23.21826534
0.2700,-23.19140949
0.2750,-23.16063524
0.2800,-23.12607465
0.2850,-23.08805015
0.2900,-23.04680561
0.2950,-23.00281642
0.3000,-22.95614228
0.3050,-22.90772213
0.3100,-22.85766312
0.3150,-22.80654474
0.3200,-22.75479082
0.3250,-22.70291144
0.3300,-22.65129325
0.3350,-22.60031371
0.3400,-22.5503903
0.3450,-22.50203707
0.3500,-22.45550155
0.3550,-22.41112009
0.3600,-22.36914311
0.3650,-22.32965029
0.3700,-22.29266661
0.3750,-22.25829279
0.3800,-22.22631605
0.3850,-22.19665627
0.3900,-22.16935759
0.3950,-22.14412455
0.4000,-22.12092489
0.4050,-22.09957224
0.4100,-22.07984453
0.4150,-22.061679
0.4200,-22.04465576
0.4250,-22.02862825
0.4300,-22.01345801
0.4350,-21.99899377
0.4400,-21.98514192
0.4450,-21.97168152
0.4500,-21.95847964
0.4550,-21.94554824
0.4600,-21.93274143
0.4650,-21.91993544
0.4700,-21.90690158
0.4750,-21.89359852
0.4800,-21.88005423
0.4850,-21.8662869
0.4900,-21.85221333
0.4950,-21.83786291
0.5000,-21.82326218
0.5050,-21.80833091
0.5100,-21.79324332
0.5150,-21.7779072
0.5200,-21.76228998
0.5250,-21.74653067
0.5300,-21.73056154
0.5350,-21.71437943
0.5400,-21.69809919
0.5450,-21.68178187
0.5500,-21.66573589
0.5550,-21.64999373
0.5600,-21.63481675
0.5650,-21.62012373
0.5700,-21.60617454
0.5750,-21.59302394
0.5800,-21.58092685
0.5850,-21.5700203
0.5900,-21.56024784
0.5950,-21.55162753
0.6000,-21.54422586
0.6050,-21.53792497
0.6100,-21.53259273
0.6150,-21.52826791
0.6200,-21.52474775
0.6250,-21.52179021
0.6300,-21.51939338
0.6350,-21.51740304
0.6400,-21.51543421
0.6450,-21.51328509
0.6500,-21.51072449
0.6550,-21.50737852
0.6600,-21.50301036
0.6650,-21.49735202
0.6700,-21.49015184
0.6750,-21.48109896
0.6800,-21.47008344
0.6850,-21.4570959
0.6900,-21.44198837
0.6950,-21.42504987
0.7000,-21.40605536
0.7050,-21.38525717
0.7100,-21.3627198
0.7150,-21.33844054
0.7200,-21.31260498
0.7250,-21.28522
0.7300,-21.2564358
0.7350,-21.22627552
0.7400,-21.19489041
0.7450,-21.16249782
0.7500,-21.12941755
0.7550,-21.09576961
0.7600,-21.06187288
0.7650,-21.02784036
0.7700,-20.99405959
0.7750,-20.96074085
0.7800,-20.92813161
0.7850,-20.89662236
0.7900,-20.86645851
0.7950,-20.83811679
0.8000,-20.81181745
0.8050,-20.78791525
0.8100,-20.76650587
0.8150,-20.74770965
0.8200,-20.7313832
0.8250,-20.71742381
0.8300,-20.70601209
0.8350,-20.69727091
0.8400,-20.69118657
0.8450,-20.68782707
0.8500,-20.68706208
0.8550,-20.68894075
0.8600,-20.69325318
0.8650,-20.69965244
0.8700,-20.70820804
0.8750,-20.71854326
0.8800,-20.73063211
0.8850,-20.74443877
0.8900,-20.76000233
0.8950,-20.77752159
0.9000,-20.7970509
0.9050,-20.8185846
0.9100,-20.84229766
0.9150,-20.86838927
0.9200,-20.89703808
0.9250,-20.9283992
0.9300,-20.96255412
0.9350,-20.99962655
0.9400,-21.03980788
0.9450,-21.08341023
0.9500,-21.13020443
0.9550,-21.18024127
0.9600,-21.23346154
0.9650,-21.28980605
0.9700,-21.34923443
0.9750,-21.41174955
0.9800,-21.47716961
0.9850,-21.54538118
0.9900,-21.61660568
0.9950,-21.69054859
1.0000,-21.76721522
1.0050,-21.84637954
1.0100,-21.92777877
1.0150,-22.01149585
1.0200,-22.09716328
1.0250,-22.18455882
1.0300,-22.27336678
1.0350,-22.36343404
1.0400,-22.45441815
1.0450,-22.54585624
1.0500,-22.63726099
1.0550,-22.72838864
1.0600,-22.8186132
1.0650,-22.9076397
1.0700,-22.99512535
1.0750,-23.08092953
1.0800,-23.1649824
1.0850,-23.24694609
1.0900,-23.32669767
1.0950,-23.40386865
1.1000,-23.47821936
1.1050,-23.54942978
1.1100,-23.61753003
1.1150,-23.68232378
1.1200,-23.74397507
1.1250,-23.80253414
1.1300,-23.8579963
1.1350,-23.91044932
1.1400,-23.95996238
1.1450,-24.00662479
1.1500,-24.05044
1.1550,-24.09157026
1.1600,-24.13002878
1.1650,-24.16617169
1.1700,-24.20000836
1.1750,-24.23214387
1.1800,-24.26266517
1.1850,-24.29168101
1.1900,-24.31934072
1.1950,-24.34567545
1.2000,-24.37084228
1.2050,-24.39511688
1.2100,-24.41868408
1.2150,-24.44144675
1.2200,-24.46367812
1.2250,-24.48568062
1.2300,-24.50742843
1.2350,-24.5290926
1.2400,-24.55039804
1.2450,-24.57109768
1.2500,-24.59130903
1.2550,-24.61077977
1.2600,-24.62939204
1.2650,-24.64732491
1.2700,-24.66433061
1.2750,-24.68070962
1.2800,-24.69650816
1.2850,-24.71173226
1.2900,-24.72609529
1.2950,-24.73947243
1.3000,-24.75187258
1.3050,-24.76323251
1.3100,-24.77348118
1.3150,-24.78246305
1.3200,-24.79036563
1.3250,-24.79733882
1.3300,-24.80325375
1.3350,-24.80831813
1.3400,-24.81251164
1.3450,-24.81610916
1.3500,-24.81916888
1.3550,-24.82172142
1.3600,-24.82418098
1.3650,-24.82642379
1.3700,-24.82851169
1.3750,-24.8303923
1.3800,-24.83185516
1.3850,-24.83257464
1.3900,-24.83262795
1.3950,-24.83171406
1.4000,-24.82967143
1.4050,-24.82640238
1.4100,-24.82145994
1.4150,-24.8147455
1.4200,-24.80647507
1.4250,-24.79622068
1.4300,-24.7837113
1.4350,-24.76868355
1.4400,-24.7508746
1.4450,-24.72999021
1.4500,-24.70602758
1.4550,-24.67873797
1.4600,-24.64795922
1.4650,-24.61346013
1.4700,-24.57521957
1.4750,-24.53328911
1.4800,-24.48752731
1.4850,-24.43817383
1.4900,-24.38527102
1.4950,-24.32896353
1.5000,-24.26920218
1.5050,-24.20598697
1.5100,-24.13969424
1.5150,-24.07023843
1.5200,-23.99762254
1.5250,-23.92157337
1.5300,-23.84229447
1.5350,-23.75946275
1.5400,-23.67337932
1.5450,-23.5838915
1.5500,-23.49103556
1.5550,-23.39516656
1.5600,-23.29654643
1.5650,-23.1952578
1.5700,-23.09145369
1.5750,-22.98485537
1.5800,-22.87547808
1.5850,-22.76339127
1.5900,-22.64879478
1.5950,-22.53168407
1.6000,-22.41222624
1.6050,-22.2904507
1.6100,-22.16653409
1.6150,-22.04043364
1.6200,-21.91239837
1.6250,-21.7825497
1.6300,-21.65096687
1.6350,-21.51778193
1.6400,-21.38284254
1.6450,-21.24586249
1.6500,-21.10673051
1.6550,-20.96507792
1.6600,-20.82075216
1.6650,-20.67383906
1.6700,-20.52435613
1.6750,-20.37213302
1.6800,-20.21734629
1.6850,-20.06008507
1.6900,-19.899993
1.6950,-19.73685266
1.7000,-19.57091107
1.7050,-19.40178379
1.7100,-19.22962814
1.7150,-19.05432388
1.7200,-18.87573692
1.7250,-18.69395077
1.7300,-18.50887256
1.7350,-18.32069508
1.7400,-18.12936592
1.7450,-17.93513674
1.7500,-17.73774021
1.7550,-17.53726251
1.7600,-17.3336588
1.7650,-17.12728581
1.7700,-16.91823872
1.7750,-16.70601979
1.7800,-16.49080341
1.7850,-16.27229994
1.7900,-16.05044892
1.7950,-15.82479261
1.8000,-15.59537642
1.8050,-15.36219368
1.8100,-15.12475601
1.8150,-14.88351454
1.8200,-14.63872436
1.8250,-14.39000099
1.8300,-14.13745899
1.8350,-13.88085754
1.8400,-13.61994913
1.8450,-13.35444243
1.8500,-13.0843274
1.8550,-12.80940128
1.8600,-12.52962277
1.8650,-12.24447407
1.8700,-11.95386633
1.8750,-11.65786658
1.8800,-11.35651477
1.8850,-11.05013187
1.8900,-10.73846792
1.8950,-10.42154422
1.9000,-10.0994231
1.9050,-9.772194125
1.9100,-9.439771894
1.9150,-9.102714858
1.9200,-8.760620816
1.9250,-8.413517554
1.9300,-8.061241159
1.9350,-7.703429959
1.9400,-7.340560159
1.9450,-6.97283882
1.9500,-6.600351947
1.9550,-6.223199713
1.9600,-5.841058746
1.9650,-5.453830533
1.9700,-5.061419274
1.9750,-4.663672782
1.9800,-4.260610166
1.9850,-3.852655187
1.9900,-3.439493944
1.9950,-3.021590857
2.0000,-2.598797005
2.0050,-2.171531672
2.0100,-1.739695012
2.0150,-1.303627078
2.0200,-0.8628002414
2.0250,-0.4172599168
2.0300,0.03274590512
2.0350,0.4876393963
2.0400,0.9470525081
2.0450,1.411305834
2.0500,1.880312197
2.0550,2.354143638
2.0600,2.832507866
2.0650,3.315674316
2.0700,3.803806384
2.0750,4.296985879
2.0800,4.79495954
2.0850,5.298016716
2.0900,5.806341459
2.0950,6.319836373
2.1000,6.838290488
2.1050,7.362121279
2.1100,7.890835902
2.1150,8.424538734
2.1200,8.963670894
2.1250,9.507801244
2.1300,10.0568735
2.1350,10.61017629
2.1400,11.16742219
2.1450,11.72807845
2.1500,12.29205543
2.1550,12.85875701
2.1600,13.4280312
2.1650,13.99927115
2.1700,14.57176313
2.1750,15.14519435
2.1800,15.71928553
2.1850,16.29377628
2.1900,16.86824171
2.1950,17.44205386
2.2000,18.01574369
2.2050,18.58909272
2.2100,19.16157635
2.2150,19.73374683
2.2200,20.30548126
2.2250,20.87707881
2.2300,21.44824238
2.2350,22.01922546
2.2400,22.58989171
2.2450,23.16034262
2.2500,23.73043749
2.2550,24.29946377
2.2600,24.86699639
2.2650,25.43258195
2.2700,25.99607692
2.2750,26.55691519
2.2800,27.11500633
2.2850,27.66995246
2.2900,28.22121102
2.2950,28.76846438
2.3000,29.31125051
2.3050,29.84921763
2.3100,30.38241068
2.3150,30.91067129
2.3200,31.4339526
2.3250,31.95199942
2.3300,32.46509106
2.3350,32.97279799
2.3400,33.47512279
2.3450,33.97179472
2.3500,34.46296704
2.3550,34.94825382
2.3600,35.42794891
2.3650,35.90164217
2.3700,36.36954705
2.3750,36.83113722
2.3800,37.28671763
2.3850,37.73573222
2.3900,38.17799529
2.3950,38.61332083
2.4000,39.04175848
2.4050,39.46325607
2.4100,39.87827559
2.4150,40.28654799
2.4200,40.68804368
2.4250,41.08281275
2.4300,41.47150607
2.4350,41.85455317
2.4400,42.23195209
2.4450,42.60388982
2.4500,42.97075109
2.4550,43.33292626
2.4600,43.69070994
2.4650,44.04432193
2.4700,44.39356294
2.4750,44.73854057
2.4800,45.07886262
2.4850,45.41480041
2.4900,45.74653065
2.4950,46.07395646
2.5000,46.39663658
2.5050,46.71483067
2.5100,47.02833909
2.5150,47.336815
2.5200,47.6404797
2.5250,47.93900398
2.5300,48.23242545
2.5350,48.52106521
2.5400,48.80474126
2.5450,49.08381901
2.5500,49.35832531
2.5550,49.6283846
2.5600,49.89399641
2.5650,50.15522583
2.5700,50.41185775
2.5750,50.66412677
2.5800,50.9115318
2.5850,51.15440286
2.5900,51.39267055
2.5950,51.62656931
2.6000,51.85660439
2.6050,52.08281664
2.6100,52.30506174
2.6150,52.52319759
2.6200,52.73725565
2.6250,52.9476018
2.6300,53.15441679
2.6350,53.35760525
2.6400,53.55723642
2.6450,53.75405446
2.6500,53.94841802
2.6550,54.14067791
2.6600,54.33100861
2.6650,54.51945189
2.6700,54.70638178
2.6750,54.89219439
2.6800,55.07682703
2.6850,55.26016672
2.6900,55.44183595
2.6950,55.62165579
2.7000,55.79978559
2.7050,55.97638744
2.7100,56.15172767
2.7150,56.32614426
2.7200,56.49962881
2.7250,56.67192587
2.7300,56.84313304
2.7350,57.01254699
2.7400,57.18006147
2.7450,57.34541606
2.7500,57.50815819
2.7550,57.6685261
2.7600,57.82614456
2.7650,57.98139043
2.7700,58.13431352
2.7750,58.28479331
2.7800,58.43290941
2.7850,58.578692
2.7900,58.72213709
2.7950,58.86358198
2.8000,59.0028698
2.8050,59.14027224
2.8100,59.27615043
2.8150,59.41076955
2.8200,59.54397415
2.8250,59.67597327
2.8300,59.80657539
2.8350,59.93533194
2.8400,60.06308136
2.8450,60.18941795
2.8500,60.31443354
2.8550,60.43835901
2.8600,60.56149906
2.8650,60.68385103
2.8700,60.80543606
2.8750,60.92564197
2.8800,61.04491345
2.8850,61.1631171
2.8900,61.28020078
2.8950,61.39622437
2.9000,61.51103475
2.9050,61.62452391
2.9100,61.73677979
2.9150,61.84833375
2.9200,61.9591545
2.9250,62.06910119
2.9300,62.17837586
2.9350,62.28682747
2.9400,62.39461648
2.9450,62.50118356
2.9500,62.60654222
2.9550,62.71055737
2.9600,62.81316905
2.9650,62.9146166
2.9700,63.01468095
2.9750,63.11311168
2.9800,63.20964712
2.9850,63.30475588
2.9900,63.39850746
2.9950,63.49131034
3.0000,63.58326807
3.0050,63.67406966
3.0100,63.7631998
3.0150,63.85071733
3.0200,63.93649301
3.0250,64.02078065
3.0300,64.10321708
3.0350,64.18429236
3.0400,64.264343
3.0450,64.34387543
3.0500,64.42294086
3.0550,64.50124155
3.0600,64.57892404
3.0650,64.65561144
3.0700,64.73129028
3.0750,64.80589677
3.0800,64.87963242
3.0850,64.95223317
3.0900,65.02371765
3.0950,65.09360045
3.1000,65.16207196
3.1050,65.22923605
3.1100,65.29519573
3.1150,65.36021481
3.1200,65.4245359
3.1250,65.48800637
3.1300,65.55057776
3.1350,65.61191265
3.1400,65.6715997
3.1450,65.73003895
3.1500,65.78752164
3.1550,65.84433798
3.1600,65.90053703
3.1650,65.95611452
3.1700,66.01080969
3.1750,66.06513495
3.1800,66.11876746
3.1850,66.17196393
3.1900,66.22435603
3.1950,66.27609506
3.2000,66.32690074
3.2050,66.37702834
3.2100,66.42611622
3.2150,66.47393749
3.2200,66.52043387
3.2250,66.56538871
3.2300,66.60829867
3.2350,66.64972821
3.2400,66.68975939
3.2450,66.72854299
3.2500,66.76584671
3.2550,66.80179636
3.2600,66.83622138
3.2650,66.86906228
3.2700,66.90032135
3.2750,66.9300159
3.2800,66.95834658
3.2850,66.98518371
3.2900,67.01066902
3.2950,67.03455311
3.3000,67.05703869
3.3050,67.07822019
3.3100,67.09858144
3.3150,67.11830575
3.3200,67.1375281
3.3250,67.15637791
3.3300,67.17513857
3.3350,67.19389048
3.3400,67.21271348
3.3450,67.23123651
3.3500,67.24926921
3.3550,67.2667218
3.3600,67.28393068
3.3650,67.30102799
3.3700,67.31809392
3.3750,67.33510324
3.3800,67.35216305
3.3850,67.36947489
3.3900,67.38668777
3.3950,67.40436946
3.4000,67.42254492
3.4050,67.44109044
3.4100,67.45973941
3.4150,67.47808674
3.4200,67.49622174
3.4250,67.51419463
3.4300,67.53242332
3.4350,67.5511794
3.4400,67.570459
3.4450,67.59025898
3.4500,67.61037016
3.4550,67.63082567
3.4600,67.65139532
3.4650,67.67237262
3.4700,67.69392847
3.4750,67.71595504
3.4800,67.73855616
3.4850,67.76138155
3.4900,67.78462586
3.4950,67.80781562
3.5000,67.83091036
3.5050,67.85367456
3.5100,67.87627288
3.5150,67.89861597
3.5200,67.92085815
3.5250,67.94309567
3.5300,67.9654286
3.5350,67.98724735
3.5400,68.00832361
3.5450,68.02846566
3.5500,68.048167
3.5550,68.06716247
3.5600,68.08533568
3.5650,68.10253798
3.5700,68.11875878
3.5750,68.13417264
3.5800,68.14869755
3.5850,68.16210863
3.5900,68.17435415
3.5950,68.18531839
3.6000,68.19491167
3.6050,68.20350157
3.6100,68.21084176
3.6150,68.21676127
3.6200,68.22156589
3.6250,68.22509772
3.6300,68.22731546
3.6350,68.22809564
3.6400,68.22719005
3.6450,68.22494324
3.6500,68.22138053
3.6550,68.21645995
3.6600,68.209724
3.6650,68.20104352
3.6700,68.19073754
3.6750,68.17918452
3.6800,68.16607712
3.6850,68.15132017
3.6900,68.13520185
3.6950,68.11742799
3.7000,68.09798715
3.7050,68.07686059
3.7100,68.05431514
3.7150,68.03075587
3.7200,68.00615155
3.7250,67.98068073
3.7300,67.95423951
3.7350,67.92731982
3.7400,67.9002819
3.7450,67.87359318
3.7500,67.84765276
3.7550,67.82245488
3.7600,67.79843737
3.7650,67.77532929
3.7700,67.7532744
3.7750,67.73214239
3.7800,67.71216973
3.7850,67.69338345
3.7900,67.67589994
3.7950,67.65985785
3.8000,67.6454695
3.8050,67.63268929
3.8100,67.621392
3.8150,67.611744
3.8200,67.60354367
3.8250,67.59676567
3.8300,67.59135717
3.8350,67.58754219
3.8400,67.58505466
3.8450,67.58415804
3.8500,67.58423601
3.8550,67.58561524
3.8600,67.5882315
3.8650,67.59222187
3.8700,67.59740331
3.8750,67.60357794
3.8800,67.6109147
3.8850,67.61970586
3.8900,67.62973988
3.8950,67.64164435
3.9000,67.65517915
3.9050,67.66984044
3.9100,67.68545571
3.9150,67.70177262
3.9200,67.71832575
3.9250,67.73496505
3.9300,67.75163084
3.9350,67.76821446
3.9400,67.78482882
3.9450,67.8011221
3.9500,67.81709991
3.9550,67.83305217
3.9600,67.84905953
3.9650,67.86492013
3.9700,67.88020449
3.9750,67.89452606
3.9800,67.90804817
3.9850,67.92054258
3.9900,67.93174791
3.9950,67.94156943
4.0000,67.95010156
4.0050,67.95745422
4.0100,67.96367573
4.0150,67.9687095
4.0200,67.97254642
4.0250,67.97524974
4.0300,67.97683235
4.0350,67.97735951
4.0400,67.97685063
4.0450,67.97514208
4.0500,67.97232004
4.0550,67.96839167
4.0600,67.96325047
4.0650,67.95693696
4.0700,67.94935018
4.0750,67.9406109
4.0800,67.93085376
4.0850,67.92015998
4.0900,67.90861464
4.0950,67.89633874
4.1000,67.88317231
4.1050,67.86929012
4.1100,67.85479941
4.1150,67.839441
4.1200,67.82328027
4.1250,67.80625543
4.1300,67.78851095
4.1350,67.77007528
4.1400,67.75136951
4.1450,67.73195616
4.1500,67.71232791
4.1550,67.69222947
4.1600,67.67203139
4.1650,67.65193156
4.1700,67.63187794
4.1750,67.61222556
4.1800,67.59286395
4.1850,67.57368214
4.1900,67.55497347
4.1950,67.53625834
4.2000,67.51744019
4.2050,67.49880401
4.2100,67.48029715
4.2150,67.46210339
4.2200,67.44429211
4.2250,67.42698502
4.2300,67.41015182
4.2350,67.39370888
4.2400,67.37766465
4.2450,67.36209671
4.2500,67.34700381
4.2550,67.33231411
4.2600,67.31790422
4.2650,67.30383411
4.2700,67.2902031
4.2750,67.27684476
4.2800,67.2635181
4.2850,67.25038952
4.2900,67.23748998
4.2950,67.22510873
4.3000,67.21311828
4.3050,67.20156526
4.3100,67.19009955
4.3150,67.17858152
4.3200,67.16719349
4.3250,67.15612064
4.3300,67.14532625
4.3350,67.13472603
4.3400,67.12428685
4.3450,67.1139772
4.3500,67.10380318
4.3550,67.09383467
4.3600,67.08395771
4.3650,67.07412367
4.3700,67.06434514
4.3750,67.05473065
4.3800,67.0450758
4.3850,67.03551597
4.3900,67.0259437
4.3950,67.01624616
4.4000,67.0065369
4.4050,66.99683351
4.4100,66.98705895
4.4150,66.97740917
4.4200,66.96781949
4.4250,66.95812025
4.4300,66.94815896
4.4350,66.93780337
4.4400,66.92683458
4.4450,66.91544924
4.4500,66.90328692
4.4550,66.89064921
4.4600,66.8773023
4.4650,66.86320869
4.4700,66.84857753
4.4750,66.8332093
4.4800,66.81709711
4.4850,66.80036623
4.4900,66.78266787
4.4950,66.76418311
4.5000,66.74500907
4.5050,66.72476965
4.5100,66.70343838
4.5150,66.68077574
4.5200,66.65690024
4.5250,66.63194336
4.5300,66.60598928
4.5350,66.57912244
4.5400,66.5512738
4.5450,66.52241166
4.5500,66.49273641
4.5550,66.46192982
4.5600,66.43004657
4.5650,66.3972813
4.5700,66.3634671
4.5750,66.32864755
4.5800,66.29263863
4.5850,66.25526204
4.5900,66.21670356
4.5950,66.17662379
4.6000,66.13543427
4.6050,66.09290164
4.6100,66.0494276
4.6150,66.00495559
4.6200,65.95952125
4.6250,65.91291
4.6300,65.86518904
4.6350,65.8162244
4.6400,65.76592593
4.6450,65.71411076
4.6500,65.66093805
4.6550,65.60638987
4.6600,65.55041564
4.6650,65.49304815
4.6700,65.43455188
4.6750,65.37489229
4.6800,65.31420881
4.6850,65.2524532
4.6900,65.18975499
4.6950,65.12619344
4.7000,65.06157565
4.7050,64.99579438
4.7100,64.92871428
4.7150,64.85980432
4.7200,64.78899215
4.7250,64.71622062
4.7300,64.64171046
4.7350,64.56539944
4.7400,64.48729654
4.7450,64.4074242
4.7500,64.32610008
4.7550,64.24306672
4.7600,64.15870892
4.7650,64.07302902
4.7700,63.98572597
4.7750,63.89679198
4.7800,63.80627899
4.7850,63.7139604
4.7900,63.61980886
4.7950,63.52359806
4.8000,63.42526874
4.8050,63.32477193
4.8100,63.2225094
4.8150,63.11861141
4.8200,63.01327493
4.8250,62.90642726
4.8300,62.79796763
4.8350,62.68804662
4.8400,62.57652007
4.8450,62.46338937
4.8500,62.34842824
4.8550,62.2317437
4.8600,62.11336382
4.8650,61.99308555
4.8700,61.87091064
4.8750,61.74695536
4.8800,61.62158316
4.8850,61.49517917
4.8900,61.36797833
4.8950,61.24036568
4.9000,61.11204114
4.9050,60.9834412
4.9100,60.85410613
4.9150,60.72378495
4.9200,60.59193402
4.9250,60.4584265
4.9300,60.3229598
4.9350,60.18556413
4.9400,60.04581898
4.9450,59.90362452
4.9500,59.75849513
4.9550,59.61027428
4.9600,59.45896725
4.9650,59.30460111
4.9700,59.14656969
4.9750,58.98478959
4.9800,58.81881045
4.9850,58.6482956
4.9900,58.47298132
4.9950,58.29272731
5.0000,58.10737048
5.0050,57.91650341
5.0100,57.72002211
5.0150,57.5178942
5.0200,57.30993855
5.0250,57.09603536
5.0300,56.87602249
5.0350,56.65046642
5.0400,56.41957202
5.0450,56.18338095
5.0500,55.94170216
5.0550,55.69448671
5.0600,55.44101271
5.0650,55.18099213
5.0700,54.91437752
5.0750,54.64094941
5.0800,54.36016441
5.0850,54.07192733
5.0900,53.77646196
5.0950,53.47359197
5.1000,53.16364392
5.1050,52.84679871
5.1100,52.52292914
5.1150,52.19207116
5.1200,51.85426243
5.1250,51.50927792
5.1300,51.15723736
5.1350,50.79780132
5.1400,50.43078181
5.1450,50.05571482
5.1500,49.67271954
5.1550,49.28162668
5.1600,48.88208044
5.1650,48.47435895
5.1700,48.05843549
5.1750,47.63435641
5.1800,47.20203094
5.1850,46.76098075
5.1900,46.31093009
5.1950,45.85152196
5.2000,45.38247331
5.2050,44.90317848
5.2100,44.41346362
5.2150,43.91335335
5.2200,43.40270593
5.2250,42.88096733
5.2300,42.34786619
5.2350,41.8027651
5.2400,41.24598018
5.2450,40.67695493
5.2500,40.09537389
5.2550,39.5010583
5.2600,38.89387666
5.2650,38.27398589
5.2700,37.64186072
5.2750,36.99785414
5.2800,36.34233418
5.2850,35.67545681
5.2900,34.9972327
5.2950,34.30791942
5.3000,33.6078716
5.3050,32.89770483
5.3100,32.1778888
5.3150,31.44909523
5.3200,30.71199752
5.3250,29.96718261
5.3300,29.21510703
5.3350,28.45603694
5.3400,27.69083981
5.3450,26.92031406
5.3500,26.14535674
5.3550,25.36662576
5.3600,24.5853484
5.3650,23.80243269
5.3700,23.01853938
5.3750,22.2349162
5.3800,21.45298828
5.3850,20.67419986
5.3900,19.89934865
5.3950,19.12961349
5.4000,18.36571025
5.4050,17.60895488
5.4100,16.86008157
5.4150,16.11995038
5.4200,15.38935092
5.4250,14.66883524
5.4300,13.95907798
5.4350,13.2605351
5.4400,12.57324171
5.4450,11.89770617
5.4500,11.2340612
5.4550,10.58259059
5.4600,9.942812737
5.4650,9.313956772
5.4700,8.695966813
5.4750,8.088489485
5.4800,7.491377329
5.4850,6.904081341
5.4900,6.326496003
5.4950,5.757766433
5.5000,5.197856911
5.5050,4.646519623
5.5100,4.10425995
5.5150,3.571344768
5.5200,3.048180259
5.5250,2.53510017
5.5300,2.031983147
5.5350,1.538406278
5.5400,1.053590106
5.5450,0.5774605748
5.5500,0.1094829411
5.5550,-0.3509882209
5.5600,-0.8042555008
5.5650,-1.25052526
5.5700,-1.689066497
5.5750,-2.119917582
5.5800,-2.542788415
5.5850,-2.957739912
5.5900,-3.364665822
5.5950,-3.764141597
5.6000,-4.156524053
5.6050,-4.542155774
5.6100,-4.921569327
5.6150,-5.294779366
5.6200,-5.661670184
5.6250,-6.022527743
5.6300,-6.377332767
5.6350,-6.726063317
5.6400,-7.068541341
5.6450,-7.404835076
5.6500,-7.735194372
5.6550,-8.059374047
5.6600,-8.377897966
5.6650,-8.690784065
5.6700,-8.997913477
5.6750,-9.299641097
5.6800,-9.596202804
5.6850,-9.88829832
5.6900,-10.17625381
5.6950,-10.4601111
5.7000,-10.7400002
5.7050,-11.01603713
5.7100,-11.28800135
5.7150,-11.55588678
5.7200,-11.81945815
5.7250,-12.07892309
5.7300,-12.33400897
5.7350,-12.58467951
5.7400,-12.83079178
5.7450,-13.07237446
5.7500,-13.30980067
5.7550,-13.54310739
5.7600,-13.77217109
5.7650,-13.99730969
5.7700,-14.21880951
5.7750,-14.43651363
5.7800,-14.65059883
5.7850,-14.86057386
5.7900,-15.06624338
5.7950,-15.26664203
5.8000,-15.46178376
5.8050,-15.65164054
5.8100,-15.83659267
5.8150,-16.01710415
5.8200,-16.1934541
5.8250,-16.36602971
5.8300,-16.53495805
5.8350,-16.69982986
5.8400,-16.8601597
5.8450,-17.01531061
5.8500,-17.16525442
5.8550,-17.30925669
5.8600,-17.4473319
5.8650,-17.5788656
5.8700,-17.70386648
5.8750,-17.82227681
5.8800,-17.93401986
5.8850,-18.03909572
5.8900,-18.1379411
5.8950,-18.23050226
5.9000,-18.31695895
5.9050,-18.39762842
5.9100,-18.47248206
5.9150,-18.54192472
5.9200,-18.606252
5.9250,-18.66540098
5.9300,-18.71953977
5.9350,-18.76906055
5.9400,-18.81419669
5.9450,-18.8549862
5.9500,-18.89148424
5.9550,-18.92394098
5.9600,-18.95280226
5.9650,-18.97845184
5.9700,-19.00138595
5.9750,-19.02221869
5.9800,-19.04140476
5.9850,-19.05908391
5.9900,-19.07548483
5.9950,-19.09083572
6.0000,-19.10521884
6.0050,-19.11879439
6.0100,-19.13180255
6.0150,-19.14465891
6.0200,-19.15762375
6.0250,-19.17088652
6.0300,-19.18443821
6.0350,-19.19849803
6.0400,-19.21289435
6.0450,-19.22782445
6.0500,-19.24315445
6.0550,-19.25914423
6.0600,-19.2758881
6.0650,-19.29321554
6.0700,-19.31100894
6.0750,-19.32921186
6.0800,-19.3476385
6.0850,-19.36632635
6.0900,-19.38522628
6.0950,-19.40470305
6.1000,-19.42437723
6.1050,-19.44444347
6.1100,-19.46522454
6.1150,-19.48642626
6.1200,-19.50849149
6.1250,-19.53114803
6.1300,-19.55448646
6.1350,-19.57853532
6.1400,-19.60342172
6.1450,-19.62910084
6.1500,-19.65542856
6.1550,-19.6824005
6.1600,-19.70993624
6.1650,-19.73825074
6.1700,-19.76726907
6.1750,-19.79688253
6.1800,-19.82709575
6.1850,-19.8575825
6.1900,-19.88851401
6.1950,-19.91981887
6.2000,-19.95150447
6.2050,-19.98349785
6.2100,-20.01587125
6.2150,-20.04830063
6.2200,-20.08086046
6.2250,-20.11319485
6.2300,-20.145251
6.2350,-20.17689469
6.2400,-20.20815349
6.2450,-20.23913126
6.2500,-20.26980419
6.2550,-20.30013235
6.2600,-20.32996592
6.2650,-20.35936249
6.2700,-20.38827667
6.2750,-20.41669829
6.2800,-20.44452441
6.2850,-20.47199829
6.2900,-20.49876314
6.2950,-20.52466242
6.3000,-20.54964486
6.3050,-20.57352623
6.3100,-20.59635277
6.3150,-20.61791238
6.3200,-20.63844098
6.3250,-20.65756804
6.3300,-20.67551315
6.3350,-20.69231039
6.3400,-20.7081401
6.3450,-20.72295035
6.3500,-20.73667496
6.3550,-20.74935668
6.3600,-20.76085015
6.3650,-20.77124359
6.3700,-20.78054105
6.3750,-20.78886652
6.3800,-20.79616355
6.3850,-20.80237227
6.3900,-20.80765096
6.3950,-20.81161447
6.4000,-20.81476415
6.4050,-20.81687726
6.4100,-20.81781088
6.4150,-20.81784715
6.4200,-20.81666136
6.4250,-20.81438563
6.4300,-20.81072063
6.4350,-20.80562756
6.4400,-20.79918313
6.4450,-20.79145953
6.4500,-20.78231984
6.4550,-20.77194357
6.4600,-20.76010599
6.4650,-20.74694083
6.4700,-20.7325864
6.4750,-20.71699369
6.4800,-20.70031719
6.4850,-20.68259157
6.4900,-20.66349348
6.4950,-20.64326601
6.5000,-20.62172984
6.5050,-20.59885901
6.5100,-20.57474006
6.5150,-20.54937118
6.5200,-20.5228599
6.5250,-20.49563594
6.5300,-20.46790145
6.5350,-20.4397795
6.5400,-20.41147395
6.5450,-20.38299241
6.5500,-20.35421661
6.5550,-20.32530322
6.5600,-20.29629061
6.5650,-20.26724596
6.5700,-20.23817223
6.5750,-20.20889662
6.5800,-20.1795829
6.5850,-20.15015355
6.5900,-20.12076439
6.5950,-20.09163777
6.6000,-20.06292786
6.6050,-20.03472541
6.6100,-20.006843
6.6150,-19.97949165
6.6200,-19.95231784
6.6250,-19.9257182
6.6300,-19.8996042
6.6350,-19.87406305
6.6400,-19.84918863
6.6450,-19.8250115
6.6500,-19.80166804
6.6550,-19.77909001
6.6600,-19.7574191
6.6650,-19.73662428
6.6700,-19.71672433
6.6750,-19.69765206
6.6800,-19.67948596
6.6850,-19.66217548
6.6900,-19.64571533
6.6950,-19.63045157
6.7000,-19.61606285
6.7050,-19.602864
6.7100,-19.59081973
6.7150,-19.58003179
6.7200,-19.57080138
6.7250,-19.56288154
6.7300,-19.5564814
6.7350,-19.55155933
6.7400,-19.54805664
6.7450,-19.54602746
6.7500,-19.54507993
6.7550,-19.54523552
6.7600,-19.54633007
6.7650,-19.5484195
6.7700,-19.55124264
6.7750,-19.55491405
6.7800,-19.55933054
6.7850,-19.56466629
6.7900,-19.57105097
6.7950,-19.57846664
6.8000,-19.58680302
6.8050,-19.59595016
6.8100,-19.60549349
6.8150,-19.61549703
6.8200,-19.62552757
6.8250,-19.63550555
6.8300,-19.64518523
6.8350,-19.65449956
6.8400,-19.66342233
6.8450,-19.67185038
6.8500,-19.68014853
6.8550,-19.68812524
6.8600,-19.69594691
6.8650,-19.70352544
6.8700,-19.71073175
6.8750,-19.71753145
6.8800,-19.72372688
6.8850,-19.72904408
6.8900,-19.73350994
6.8950,-19.73689516
6.9000,-19.73905537
6.9050,-19.73999863
6.9100,-19.73991585
6.9150,-19.73866499
6.9200,-19.73643503
6.9250,-19.73297192
6.9300,-19.7286615
6.9350,-19.72304178
6.9400,-19.71621792
6.9450,-19.70803702
6.9500,-19.69856702
6.9550,-19.68787368
6.9600,-19.67577763
6.9650,-19.66220408
6.9700,-19.64737248
6.9750,-19.6310685
6.9800,-19.61362829
6.9850,-19.59511026
6.9900,-19.57560506
6.9950,-19.5551797
7.0000,-19.5339265
7.0050,-19.51164875
7.0100,-19.48817802
7.0150,-19.46350661
7.0200,-19.43733809
7.0250,-19.41003731
7.0300,-19.38141359
7.0350,-19.35152377
7.0400,-19.32022131
7.0450,-19.28767265
7.0500,-19.25411743
7.0550,-19.21955367
7.0600,-19.18430838
7.0650,-19.14845144
7.0700,-19.11234844
7.0750,-19.07629207
7.0800,-19.04033465
7.0850,-19.00442483
7.0900,-18.96884262
7.0950,-18.93355822
7.1000,-18.89897224
7.1050,-18.86527891
7.1100,-18.83275662
7.1150,-18.80176617
7.1200,-18.77255558
7.1250,-18.74536871
7.1300,-18.72014019
7.1350,-18.69699657
7.1400,-18.6760294
7.1450,-18.65727324
7.1500,-18.64041327
7.1550,-18.62554229
7.1600,-18.61243036
7.1650,-18.60110768
7.1700,-18.59179195
7.1750,-18.58438647
7.1800,-18.57907561
7.1850,-18.57595
7.1900,-18.57510274
7.1950,-18.57628967
7.2000,-18.57960046
7.2050,-18.58463998
7.2100,-18.5914886
7.2150,-18.59975415
7.2200,-18.60924057
7.2250,-18.61971536
7.2300,-18.63052052
7.2350,-18.64178262
7.2400,-18.65280313
7.2450,-18.66344967
7.2500,-18.67339725
7.2550,-18.68204183
7.2600,-18.68924261
7.2650,-18.69503997
7.2700,-18.69899154
7.2750,-18.70109422
7.2800,-18.70105092
7.2850,-18.69900327
7.2900,-18.69476796
7.2950,-18.6885391
7.3000,-18.6805129
7.3050,-18.67093037
7.3100,-18.66021602
7.3150,-18.648689
7.3200,-18.6369376
7.3250,-18.62504056
7.3300,-18.61332766
7.3350,-18.60229651
7.3400,-18.59246293
7.3450,-18.5838676
7.3500,-18.57721025
7.3550,-18.57277854
7.3600,-18.57097583
7.3650,-18.57197174
7.3700,-18.57598642
7.3750,-18.58313313
7.3800,-18.59346579
7.3850,-18.60713241
7.3900,-18.6237443
7.3950,-18.64346864
7.4000,-18.66590675
7.4050,-18.69092598
7.4100,-18.7184895
7.4150,-18.74803936
7.4200,-18.77949984
7.4250,-18.81248727
7.4300,-18.84697618
7.4350,-18.8827907
7.4400,-18.9196568
7.4450,-18.95737906
7.4500,-18.99571729
7.4550,-19.0346083
7.4600,-19.073766
7.4650,-19.11289509
7.4700,-19.15149693
7.4750,-19.189431
7.4800,-19.22631388
7.4850,-19.26196424
7.4900,-19.29608481
7.4950,-19.32876295
7.5000,-19.35976449
7.5050,-19.38941363
7.5100,-19.41744206
7.5150,-19.44411519
7.5200,-19.46949588
7.5250,-19.49389348
7.5300,-19.51743506
7.5350,-19.54020384
7.5400,-19.56203913
7.5450,-19.58282144
7.5500,-19.6024436
7.5550,-19.62067656
7.5600,-19.63731751
7.5650,-19.65212323
7.5700,-19.66525273
7.5750,-19.67698418
7.5800,-19.68779369
7.5850,-19.69794528
7.5900,-19.70819431
7.5950,-19.71839312
7.6000,-19.72888306
7.6050,-19.73943535
7.6100,-19.74981772
7.6150,-19.76013841
7.6200,-19.77001771
7.6250,-19.77999346
7.6300,-19.7903676
7.6350,-19.80154425
7.6400,-19.81376761
7.6450,-19.82751823
7.6500,-19.84318226
7.6550,-19.86094418
7.6600,-19.88100054
7.6650,-19.90353639
7.6700,-19.92844017
7.6750,-19.95562964
7.6800,-19.98510334
7.6850,-20.01680938
7.6900,-20.05080979
7.6950,-20.0866716
7.7000,-20.12426385
7.7050,-20.163392
7.7100,-20.20360338
7.7150,-20.24476402
7.7200,-20.28624096
7.7250,-20.32768184
7.7300,-20.36842652
7.7350,-20.40771758
7.7400,-20.44510299
7.7450,-20.48002592
7.7500,-20.51186862
7.7550,-20.54032228
7.7600,-20.56514911
7.7650,-20.58646384
7.7700,-20.60424703
7.7750,-20.61853135
7.7800,-20.62947008
7.7850,-20.6370852
7.7900,-20.64165432
7.7950,-20.64338471
7.8000,-20.64263704
7.8050,-20.63961771
7.8100,-20.63464547
7.8150,-20.62791492
7.8200,-20.61943975
7.8250,-20.60923953
7.8300,-20.59730605
7.8350,-20.58332283
7.8400,-20.56787727
7.8450,-20.55076144
7.8500,-20.53221667
7.8550,-20.51252842
7.8600,-20.49190738
7.8650,-20.47031595
7.8700,-20.4478591
7.8750,-20.42440403
7.8800,-20.39946504
7.8850,-20.37276895
7.8900,-20.34375005
7.8950,-20.31238305
7.9000,-20.27851168
7.9050,-20.2425137
7.9100,-20.20484744
7.9150,-20.1654362
7.9200,-20.1246327
7.9250,-20.08253733
7.9300,-20.03899289
7.9350,-19.99375403
7.9400,-19.94668496
7.9450,-19.89773928
7.9500,-19.84673484
7.9550,-19.7937478
7.9600,-19.73858493
7.9650,-19.68136447
7.9700,-19.62215648
7.9750,-19.56076171
7.9800,-19.49720681
7.9850,-19.43135127
7.9900,-19.36303295
7.9950,-19.29219188
8.0000,-19.21873043
8.0050,-19.14245969
8.0100,-19.06341397
8.0150,-18.98163989
8.0200,-18.8973191
8.0250,-18.81055987
8.0300,-18.72139994
8.0350,-18.63005607
8.0400,-18.536405
8.0450,-18.44040001
8.0500,-18.3424113
8.0550,-18.24225138
8.0600,-18.14028888
8.0650,-18.03622638
8.0700,-17.92993127
8.0750,-17.82151548
8.0800,-17.71095436
8.0850,-17.59840218
8.0900,-17.48395285
8.0950,-17.36771344
8.1000,-17.24955777
8.1050,-17.12953188
8.1100,-17.00764365
8.1150,-16.88412352
8.1200,-16.75911854
8.1250,-16.63255152
8.1300,-16.50436084
8.1350,-16.37477314
8.1400,-16.24331293
8.1450,-16.11037229
8.1500,-15.97566008
8.1550,-15.83949277
8.1600,-15.7017487
8.1650,-15.56257653
8.1700,-15.42156984
8.1750,-15.27859505
8.1800,-15.13351323
8.1850,-14.98615129
8.1900,-14.83635987
8.1950,-14.68442835
8.2000,-14.52995304
8.2050,-14.37273592
8.2100,-14.2125279
8.2150,-14.04920997
8.2200,-13.88290622
8.2250,-13.71324899
8.2300,-13.54042042
8.2350,-13.36434982
8.2400,-13.18534545
8.2450,-13.00340818
8.2500,-12.81851085
8.2550,-12.63035468
8.2600,-12.43888831
8.2650,-12.24366597
8.2700,-12.04469781
8.2750,-11.84223248
8.2800,-11.63602533
8.2850,-11.42600798
8.2900,-11.21223346
8.2950,-10.9944961
8.3000,-10.77289057
8.3050,-10.54731761
8.3100,-10.31791809
8.3150,-10.08433665
8.3200,-9.84685679
8.3250,-9.605190487
8.3300,-9.359339979
8.3350,-9.109435665
8.3400,-8.855132341
8.3450,-8.596531141
8.3500,-8.333475239
8.3550,-8.066274598
8.3600,-7.794426056
8.3650,-7.518155375
8.3700,-7.237566022
8.3750,-6.952498755
8.3800,-6.663025597
8.3850,-6.369424594
8.3900,-6.071704167
8.3950,-5.769768527
8.4000,-5.463191047
8.4050,-5.151662641
8.4100,-4.834717343
8.4150,-4.51199065
8.4200,-4.183386621
8.4250,-3.84902646
8.4300,-3.508850428
8.4350,-3.162786383
8.4400,-2.81105645
8.4450,-2.453522798
8.4500,-2.089855305
8.4550,-1.719908761
8.4600,-1.343953261
8.4650,-0.9619534432
8.4700,-0.5741720541
8.4750,-0.1806909552
8.4800,0.2182052414
8.4850,0.6223638605
8.4900,1.031676262
8.4950,1.446268258
8.5000,1.865574038
8.5050,2.28953704
8.5100,2.718349515
8.5150,3.151848992
8.5200,3.590674743
8.5250,4.034526538
8.5300,4.483835003
8.5350,4.938132426
8.5400,5.397776087
8.5450,5.862526693
8.5500,6.332273661
8.5550,6.806708434
8.5600,7.285573002
8.5650,7.768438327
8.5700,8.255737447
8.5750,8.747495092
8.5800,9.244170651
8.5850,9.745552218
8.5900,10.25223362
8.5950,10.76371531
8.6000,11.28010719
8.6050,11.80094807
8.6100,12.32596118
8.6150,12.85508311
8.6200,13.38820728
8.6250,13.92523352
8.6300,14.46607061
8.6350,15.01083286
8.6400,15.55922096
8.6450,16.11112766
8.6500,16.66639352
8.6550,17.22522805
8.6600,17.78756536
8.6650,18.35351465
8.6700,18.92272754
8.6750,19.49511078
8.6800,20.07063187
8.6850,20.64926666
8.6900,21.23107989
8.6950,21.81626654
8.7000,22.40427278
8.7050,22.99469238
8.7100,23.5867192
8.7150,24.18020217
8.7200,24.77426627
8.7250,25.3688508
8.7300,25.96310152
8.7350,26.55669584
8.7400,27.14947638
8.7450,27.74171956
8.7500,28.33253916
8.7550,28.92192902
8.7600,29.50934166
8.7650,30.09456124
8.7700,30.67727749
8.7750,31.25728743
8.7800,31.83464183
8.7850,32.40903029
8.7900,32.98035567
8.7950,33.54818902
8.8000,34.11237721
8.8050,34.67259397
8.8100,35.22822316
8.8150,35.77868642
8.8200,36.32372796
8.8250,36.86369399
8.8300,37.39855115
8.8350,37.92867628
8.8400,38.45344535
8.8450,38.97260896
8.8500,39.48552481
8.8550,39.99162604
8.8600,40.49070593
8.8650,40.98233296
8.8700,41.46635186
8.8750,41.94356669
8.8800,42.41414914
8.8850,42.87877726
8.8900,43.33713037
8.8950,43.78948198
8.9000,44.23570358
8.9050,44.67557336
8.9100,45.10890564
8.9150,45.53455066
8.9200,45.95228221
8.9250,46.3615184
8.9300,46.76153433
8.9350,47.1522622
8.9400,47.53371479
8.9450,47.90651296
8.9500,48.2707567
8.9550,48.62579563
8.9600,48.97119975
8.9650,49.30653679
8.9700,49.63268344
8.9750,49.9500388
8.9800,50.25901735
8.9850,50.56053804
8.9900,50.85533052
8.9950,51.14393094
9.0000,51.42665849
9.0050,51.70371404
9.0100,51.97548732
9.0150,52.24252791
9.0200,52.50556279
9.0250,52.76467173
9.0300,53.01942298
9.0350,53.26971067
9.0400,53.51544232
9.0450,53.75639864
9.0500,53.9924549
9.0550,54.22400774
9.0600,54.45170569
9.0650,54.67600118
9.0700,54.89659214
9.0750,55.11406393
9.0800,55.32880737
9.0850,55.54148336
9.0900,55.75283726
9.0950,55.96352668
9.1000,56.17326929
9.1050,56.38211587
9.1100,56.5902097
9.1150,56.79829915
9.1200,57.00603723
9.1250,57.21240977
9.1300,57.41675311
9.1350,57.61872141
9.1400,57.81747484
9.1450,58.01276269
9.1500,58.20441634
9.1550,58.39203096
9.1600,58.57534228
9.1650,58.75419464
9.1700,58.92828917
9.1750,59.09745756
9.1800,59.26125638
9.1850,59.41961006
9.1900,59.5727225
9.1950,59.72109788
9.2000,59.86487547
9.2050,60.00478603
9.2100,60.14088364
9.2150,60.27368808
9.2200,60.40401161
9.2250,60.53284064
9.2300,60.66043903
9.2350,60.78694325
9.2400,60.91178412
9.2450,61.03458377
9.2500,61.15544173
9.2550,61.27528587
9.2600,61.39407765
9.2650,61.51200734
9.2700,61.62929648
9.2750,61.74649754
9.2800,61.86346995
9.2850,61.98011426
9.2900,62.09579876
9.2950,62.21033395
9.3000,62.32393087
9.3050,62.43707636
9.3100,62.55018748
9.3150,62.66325936
9.3200,62.77641576
9.3250,62.89014337
9.3300,63.0050054
9.3350,63.12091766
9.3400,63.23763811
9.3450,63.35493898
9.3500,63.47248872
9.3550,63.59010384
9.3600,63.70740168
9.3650,63.82496112
9.3700,63.94336281
9.3750,64.06253977
9.3800,64.18186235
9.3850,64.30086474
9.3900,64.41929737
9.3950,64.5365473
9.4000,64.65320038
9.4050,64.76958752
9.4100,64.88628641
9.4150,65.00318121
9.4200,65.12047169
9.4250,65.23839145
9.4300,65.35657073
9.4350,65.47451862
9.4400,65.59237854
9.4450,65.7097898
9.4500,65.82589053
9.4550,65.94091853
9.4600,66.05420509
9.4650,66.16600073
9.4700,66.27656333
9.4750,66.38590737
9.4800,66.49417571
9.4850,66.60118066
9.4900,66.70677424
9.4950,66.81063262
9.5000,66.91266077
9.5050,67.01245285
9.5100,67.11061161
9.5150,67.20782365
9.5200,67.30423614
9.5250,67.39920069
9.5300,67.49262418
9.5350,67.58434429
9.5400,67.67466861
9.5450,67.76410219
9.5500,67.85261568
9.5550,67.93995682
9.5600,68.02633273
9.5650,68.11156288
9.5700,68.19528976
9.5750,68.27724598
9.5800,68.35754655
9.5850,68.43629295
9.5900,68.51352169
9.5950,68.58921635
9.6000,68.66343538
9.6050,68.73610205
9.6100,68.80709323
9.6150,68.8764168
9.6200,68.94406564
9.6250,69.00960227
9.6300,69.07289355
9.6350,69.13396561
9.6400,69.19289075
9.6450,69.24933801
9.6500,69.30353403
9.6550,69.35584433
9.6600,69.40655916
9.6650,69.45498863
9.6700,69.50078962
9.6750,69.54358534
9.6800,69.58357792
9.6850,69.62082666
9.6900,69.6551649
9.6950,69.68699692
9.7000,69.71599489
9.7050,69.74181529
9.7100,69.76440755
9.7150,69.78395616
9.7200,69.80072884
9.7250,69.81509706
9.7300,69.82729887
9.7350,69.83787006
9.7400,69.84693704
9.7450,69.85458379
9.7500,69.86093158
9.7550,69.86561123
9.7600,69.8690374
9.7650,69.87149874
9.7700,69.87327484
9.7750,69.87431845
9.7800,69.87438273
9.7850,69.87407905
9.7900,69.8738366
9.7950,69.87391701
9.8000,69.8744275
9.8050,69.87551221
9.8100,69.8771071
9.8150,69.87893846
9.8200,69.88100357
9.8250,69.88399133
9.8300,69.88811931
9.8350,69.8938055
9.8400,69.9008101
9.8450,69.90882034
9.8500,69.91788679
9.8550,69.92832894
9.8600,69.94026965
9.8650,69.95416885
9.8700,69.97020705
9.8750,69.9881143
9.8800,70.00774167
9.8850,70.02911777
9.8900,70.0519031
9.8950,70.0760935
9.9000,70.1016257
9.9050,70.12868496
9.9100,70.15700326
9.9150,70.18612543
9.9200,70.21568335
9.9250,70.24577177
9.9300,70.27648811
9.9350,70.30794104
9.9400,70.33960432
9.9450,70.37187027
9.9500,70.40467207
9.9550,70.43744355
9.9600,70.469801
9.9650,70.50186428
9.9700,70.53388942
9.9750,70.56605369
9.9800,70.59841861
9.9850,70.63071251
9.9900,70.66275626
9.9950,70.69448925
10.0000,70.72613551
10.0050,70.75747566
10.0100,70.78859923
10.0150,70.81933277
10.0200,70.8497148
10.0250,70.87961164
10.0300,70.90879794
10.0350,70.93713276
10.0400,70.96418425
10.0450,70.98993453
10.0500,71.01444048
10.0550,71.03764122
10.0600,71.05975289
10.0650,71.08051323
10.0700,71.0998617
10.0750,71.11776738
10.0800,71.13458424
10.0850,71.15020402
10.0900,71.16499376
10.0950,71.17886072
10.1000,71.19195232
10.1050,71.20438924
10.1100,71.21597669
10.1150,71.22696682
10.1200,71.23730196
10.1250,71.24688086
10.1300,71.25580473
10.1350,71.26407002
10.1400,71.27185652
10.1450,71.27936074
10.1500,71.28668643
10.1550,71.29366318
10.1600,71.30055836
10.1650,71.30713025
10.1700,71.31311366
10.1750,71.31864262
10.1800,71.32376781
10.1850,71.32839015
10.1900,71.332942
10.1950,71.33745156
10.2000,71.34178051
10.2050,71.34604439
10.2100,71.35055591
10.2150,71.35574189
10.2200,71.36197747
10.2250,71.36925297
10.2300,71.3775822
10.2350,71.38685181
10.2400,71.39687013
10.2450,71.40731901
10.2500,71.41826038
10.2550,71.42987226
10.2600,71.44242053
10.2650,71.45579127
10.2700,71.46940451
10.2750,71.4829384
10.2800,71.49593661
10.2850,71.50846351
10.2900,71.52051706
10.2950,71.53196334
10.3000,71.54237455
10.3050,71.55181869
10.3100,71.55976928
10.3150,71.56623277
10.3200,71.57088759
10.3250,71.5733219
10.3300,71.57343328
10.3350,71.57067321
10.3400,71.5653065
10.3450,71.55738327
10.3500,71.5472784
10.3550,71.53508678
10.3600,71.52092588
10.3650,71.50471592
10.3700,71.48661855
10.3750,71.46665304
10.3800,71.44462675
10.3850,71.42057036
10.3900,71.39400317
10.3950,71.36542477
10.4000,71.33506041
10.4050,71.30328349
10.4100,71.27062748
10.4150,71.23721209
10.4200,71.20329573
10.4250,71.1689141
10.4300,71.13393942
10.4350,71.09814959
10.4400,71.06154892
10.4450,71.02385669
10.4500,70.98525812
10.4550,70.94587546
10.4600,70.9057028
10.4650,70.86505055
10.4700,70.82421165
10.4750,70.7835383
10.4800,70.74293801
10.4850,70.70245163
10.4900,70.66196196
10.4950,70.62136776
10.5000,70.58052886
10.5050,70.53906023
10.5100,70.49711224
10.5150,70.45433279
10.5200,70.41046877
10.5250,70.36545572
10.5300,70.3193272
10.5350,70.27173317
10.5400,70.22303806
10.5450,70.17298304
10.5500,70.12143684
10.5550,70.06826349
10.5600,70.01313168
10.5650,69.95608382
10.5700,69.89731074
10.5750,69.83675136
10.5800,69.77454307
10.5850,69.71056883
10.5900,69.64477012
10.5950,69.57721603
10.6000,69.50769547
10.6050,69.43616316
10.6100,69.36263661
10.6150,69.28743359
10.6200,69.21051826
10.6250,69.13218334
10.6300,69.05273202
10.6350,68.97254895
10.6400,68.89160297
10.6450,68.81000706
10.6500,68.72729172
10.6550,68.64321474
10.6600,68.55760682
10.6650,68.47062137
10.6700,68.38220284
10.6750,68.29231979
10.6800,68.20123929
10.6850,68.10916672
10.6900,68.01676887
10.6950,67.92408935
10.7000,67.83118445
10.7050,67.73794195
10.7100,67.64429294
10.7150,67.55000936
10.7200,67.45497903
10.7250,67.35930724
10.7300,67.26324085
10.7350,67.16686537
10.7400,67.07034614
10.7450,66.97385365
10.7500,66.87717886
10.7550,66.78011566
10.7600,66.68245163
10.7650,66.58403483
10.7700,66.48465712
10.7750,66.38396549
10.7800,66.2823052
10.7850,66.17942782
10.7900,66.07534083
10.7950,65.96968009
10.8000,65.86258313
10.8050,65.75391991
10.8100,65.64329085
10.8150,65.53092539
10.8200,65.41694836
10.8250,65.30165172
10.8300,65.18468724
10.8350,65.0661332
10.8400,64.94602072
10.8450,64.82460874
10.8500,64.70165685
10.8550,64.57709581
10.8600,64.45079526
10.8650,64.32231211
10.8700,64.19155972
10.8750,64.05845787
10.8800,63.92334527
10.8850,63.78604104
10.8900,63.64681933
10.8950,63.50540071
10.9000,63.36210238
10.9050,63.21726894
10.9100,63.07062521
10.9150,62.92182857
10.9200,62.77049591
10.9250,62.6166734
10.9300,62.46014253
10.9350,62.30094411
10.9400,62.13926328
10.9450,61.97484226
10.9500,61.80806176
10.9550,61.63912191
10.9600,61.46807226
10.9650,61.29511306
10.9700,61.12006707
10.9750,60.94296532
10.9800,60.76372364
10.9850,60.58200421
10.9900,60.3973203
10.9950,60.20953916
11.0000,60.01851405
11.0050,59.82427531
11.0100,59.62683702
11.0150,59.42644171
11.0200,59.2226365
11.0250,59.01523594
11.0300,58.80383343
11.0350,58.58845261
11.0400,58.36895273
11.0450,58.14534049
11.0500,57.91736571
11.0550,57.68451705
11.0600,57.44693435
11.0650,57.20449111
11.0700,56.95727361
11.0750,56.7051962
11.0800,56.44815605
11.0850,56.18593885
11.0900,55.91828803
11.0950,55.64581747
11.1000,55.36842261
11.1050,55.08621754
11.1100,54.79883611
11.1150,54.50563622
11.1200,54.2062152
11.1250,53.9000359
11.1300,53.58706252
11.1350,53.26732369
11.1400,52.94059953
11.1450,52.60677023
11.1500,52.26606717
11.1550,51.91831508
11.1600,51.56389169
11.1650,51.20257299
11.1700,50.83503924
11.1750,50.46095055
11.1800,50.07976862
11.1850,49.69193628
11.1900,49.29700007
11.1950,48.8956111
11.2000,48.48762234
11.2050,48.07292145
11.2100,47.65199493
11.2150,47.22439592
11.2200,46.79101889
11.2250,46.35193473
11.2300,45.90715506
11.2350,45.45676518
11.2400,45.0003341
11.2450,44.53792375
11.2500,44.06928687
11.2550,43.59458851
11.2600,43.11338426
11.2650,42.62557831
11.2700,42.13098283
11.2750,41.62991626
11.2800,41.12243114
11.2850,40.60865315
11.2900,40.08894726
11.2950,39.56342727
11.3000,39.03209283
11.3050,38.49465204
11.3100,37.95082874
11.3150,37.40080696
11.3200,36.84509383
11.3250,36.28389755
11.3300,35.71780121
11.3350,35.14660827
11.3400,34.57037003
11.3450,33.98924154
11.3500,33.40386349
11.3550,32.81457346
11.3600,32.22157459
11.3650,31.62426411
11.3700,31.02310798
11.3750,30.4176037
11.3800,29.80794158
11.3850,29.1942053
11.3900,28.57686489
11.3950,27.95530605
11.4000,27.32952049
11.4050,26.6994311
11.4100,26.06525176
11.4150,25.42737103
11.4200,24.78634642
11.4250,24.1418883
11.4300,23.49463875
11.4350,22.84432458
11.4400,22.1910718
11.4450,21.53493776
11.4500,20.87566128
11.4550,20.2135368
11.4600,19.54805883
11.4650,18.87964542
11.4700,18.20766275
11.4750,17.53233912
11.4800,16.85386856
11.4850,16.17180853
11.4900,15.48653878
11.4950,14.79794766
11.5000,14.10660256
11.5050,13.41252495
11.5100,12.71617918
11.5150,12.01834457
11.5200,11.31908489
11.5250,10.61880298
11.5300,9.918249971
11.5350,9.217728664
11.5400,8.51798093
11.5450,7.819852931
11.5500,7.123763068
11.5550,6.43008188
11.5600,5.739458093
11.5650,5.052971185
11.5700,4.37120194
11.5750,3.694750029
11.5800,3.024353453
11.5850,2.360470567
11.5900,1.703553032
11.5950,1.054136504
11.6000,0.4130843969
11.6050,-0.2187609982
11.6100,-0.8409023672
11.6150,-1.453056483
11.6200,-2.055000223
11.6250,-2.64654702
11.6300,-3.228244308
11.6350,-3.799871795
11.6400,-4.361123737
11.6450,-4.91194401
11.6500,-5.452013987
11.6550,-5.980996428
11.6600,-6.499040671
11.6650,-7.005925057
11.6700,-7.502116673
11.6750,-7.987697197
11.6800,-8.46324381
11.6850,-8.928760364
11.6900,-9.384746643
11.6950,-9.831101357
11.7000,-10.26793091
11.7050,-10.695948
11.7100,-11.11542025
11.7150,-11.5266116
11.7200,-11.92977047
11.7250,-12.32504147
11.7300,-12.71239407
11.7350,-13.0915902
11.7400,-13.46270158
11.7450,-13.82632389
11.7500,-14.18250062
11.7550,-14.53131193
11.7600,-14.87284427
11.7650,-15.20715665
11.7700,-15.53467739
11.7750,-15.8551726
11.7800,-16.16932753
11.7850,-16.47651108
11.7900,-16.77732805
11.7950,-17.0719825
11.8000,-17.36061516
11.8050,-17.64304033
11.8100,-17.91943027
11.8150,-18.18967193
11.8200,-18.45356004
11.8250,-18.71082736
11.8300,-18.96135032
11.8350,-19.20516978
11.8400,-19.44263663
11.8450,-19.67410434
11.8500,-19.89967909
11.8550,-20.12003881
11.8600,-20.33514956
11.8650,-20.54546257
11.8700,-20.75080908
11.8750,-20.95120754
11.8800,-21.14675748
11.8850,-21.33727675
11.8900,-21.5230561
11.8950,-21.70466137
11.9000,-21.8824375
11.9050,-22.05675649
11.9100,-22.22770938
11.9150,-22.39551504
11.9200,-22.55997724
11.9250,-22.72134172
11.9300,-22.87938909
11.9350,-23.03409229
11.9400,-23.18563957
11.9450,-23.3340579
11.9500,-23.47985703
11.9550,-23.62314831
11.9600,-23.76378663
11.9650,-23.90194609
11.9700,-24.03770955
11.9750,-24.17151847
11.9800,-24.30362896
11.9850,-24.43451356
11.9900,-24.56438485
11.9950,-24.6936199
12.0000,-24.8221992
12.0050,-24.95022131
12.0100,-25.07713689
12.0150,-25.20302941
12.0200,-25.32795537
12.0250,-25.45196221
12.0300,-25.57497085
12.0350,-25.69702718
12.0400,-25.81786798
12.0450,-25.93733185
12.0500,-26.05521009
12.0550,-26.17162207
12.0600,-26.28641708
12.0650,-26.39968467
12.0700,-26.51074631
12.0750,-26.61937201
12.0800,-26.72467372
12.0850,-26.82659599
12.0900,-26.9244839
12.0950,-27.01799174
12.1000,-27.10696913
12.1050,-27.19133783
12.1100,-27.27112846
12.1150,-27.34665452
12.1200,-27.41803955
12.1250,-27.48526798
12.1300,-27.54829101
12.1350,-27.60673299
12.1400,-27.66030916
12.1450,-27.7085008
12.1500,-27.75090584
12.1550,-27.78694518
12.1600,-27.81640374
12.1650,-27.83905748
12.1700,-27.85486935
12.1750,-27.86375011
12.1800,-27.86585344
12.1850,-27.86138829
12.1900,-27.85016541
12.1950,-27.83260046
12.2000,-27.80898883
12.2050,-27.77980732
12.2100,-27.7457187
12.2150,-27.70738949
12.2200,-27.66577364
12.2250,-27.62150686
12.2300,-27.57549965
12.2350,-27.52867639
12.2400,-27.48210158
12.2450,-27.43650396
12.2500,-27.39259228
12.2550,-27.35104114
12.2600,-27.31246354
12.2650,-27.27731111
12.2700,-27.24570184
12.2750,-27.21758336
12.2800,-27.19288533
12.2850,-27.17162361
12.2900,-27.15375617
12.2950,-27.13907249
12.3000,-27.12734587
12.3050,-27.11812377
12.3100,-27.111158
12.3150,-27.10620293
12.3200,-27.10281646
12.3250,-27.10037124
12.3300,-27.09863286
12.3350,-27.0969935
12.3400,-27.09531858
12.3450,-27.0930885
12.3500,-27.0904089
12.3550,-27.08698891
12.3600,-27.08281286
12.3650,-27.07785289
12.3700,-27.07220107
12.3750,-27.06612196
12.3800,-27.05981984
12.3850,-27.05347794
12.3900,-27.04720419
12.3950,-27.04091881
12.4000,-27.03457482
12.4050,-27.02781518
12.4100,-27.02047053
12.4150,-27.01224454
12.4200,-27.00299783
12.4250,-26.99267428
12.4300,-26.98143466
12.4350,-26.96937418
12.4400,-26.95663155
12.4450,-26.94344536
12.4500,-26.9298108
12.4550,-26.91554239
12.4600,-26.90062706
12.4650,-26.88497733
12.4700,-26.86874989
12.4750,-26.85187538
12.4800,-26.83427282
12.4850,-26.81569872
12.4900,-26.79619337
12.4950,-26.7756838
12.5000,-26.75420832
12.5050,-26.73194344
12.5100,-26.70893057
12.5150,-26.68506571
12.5200,-26.66020615
12.5250,-26.63448208
12.5300,-26.60768377
12.5350,-26.58003344
12.5400,-26.55122331
12.5450,-26.52127347
12.5500,-26.49027804
12.5550,-26.45800065
12.5600,-26.42443427
12.5650,-26.38936483
12.5700,-26.35292961
12.5750,-26.31525512
12.5800,-26.27641294
12.5850,-26.23611291
12.5900,-26.19415459
12.5950,-26.15059356
12.6000,-26.10556887
12.6050,-26.05889059
12.6100,-26.01066868
12.6150,-25.96029265
12.6200,-25.90751714
12.6250,-25.85220564
12.6300,-25.79421827
12.6350,-25.73351279
12.6400,-25.67010835
12.6450,-25.60425483
12.6500,-25.53598767
12.6550,-25.46551132
12.6600,-25.3928549
12.6650,-25.31784049
12.6700,-25.24063572
12.6750,-25.16126755
12.6800,-25.07988517
12.6850,-24.99618474
12.6900,-24.90986402
12.6950,-24.82096141
12.7000,-24.72926062
12.7050,-24.63505288
12.7100,-24.53813841
12.7150,-24.43860251
12.7200,-24.33654488
12.7250,-24.23188506
12.7300,-24.12477794
12.7350,-24.01539991
12.7400,-23.90388657
12.7450,-23.79055656
12.7500,-23.67596832
12.7550,-23.56082919
12.7600,-23.44549571
12.7650,-23.33066026
12.7700,-23.21663013
12.7750,-23.1038553
12.7800,-22.99282051
12.7850,-22.88437856
12.7900,-22.77930166
12.7950,-22.67818267
12.8000,-22.58163459
12.8050,-22.49001929
12.8100,-22.40393099
12.8150,-22.32367143
12.8200,-22.24966534
12.8250,-22.18183952
12.8300,-22.12040367
12.8350,-22.06511408
12.8400,-22.01589904
12.8450,-21.97263137
12.8500,-21.93508547
12.8550,-21.90315296
12.8600,-21.87666557
12.8650,-21.85564507
12.8700,-21.83961944
12.8750,-21.82835523
12.8800,-21.82166575
12.8850,-21.81916941
12.8900,-21.82081955
12.8950,-21.82603633
12.9000,-21.83418813
12.9050,-21.84504956
12.9100,-21.85806758
12.9150,-21.87312333
12.9200,-21.89000501
12.9250,-21.90852999
12.9300,-21.92830004
12.9350,-21.94907631
12.9400,-21.97047917
12.9450,-21.99208598
12.9500,-22.01330574
12.9550,-22.03379005
12.9600,-22.05301085
12.9650,-22.07067156
12.9700,-22.08642227
12.9750,-22.0998673
12.9800,-22.11073341
12.9850,-22.11915309
12.9900,-22.1250872
12.9950,-22.12840346
13.0000,-22.12937897
13.0050,-22.12793216
13.0100,-22.12445483
13.0150,-22.11900171
13.0200,-22.1117619
13.0250,-22.10319184
13.0300,-22.09351877
13.0350,-22.08304356
13.0400,-22.07218706
13.0450,-22.06153318
13.0500,-22.05135325
13.0550,-22.04181155
13.0600,-22.033582
13.0650,-22.02716978
13.0700,-22.02347096
13.0750,-22.02302537
13.0800,-22.02630427
13.0850,-22.03324994
13.0900,-22.0436981
13.0950,-22.05748546
13.1000,-22.07458757
13.1050,-22.09483272
13.1100,-22.11813999
13.1150,-22.14472496
13.1200,-22.17455192
13.1250,-22.20815749
13.1300,-22.24573211
13.1350,-22.28726665
13.1400,-22.3328555
13.1450,-22.38249859
13.1500,-22.43637493
13.1550,-22.49464504
13.1600,-22.55754787
13.1650,-22.62512144
13.1700,-22.69776527
13.1750,-22.77581585
13.1800,-22.859293
13.1850,-22.94826893
13.1900,-23.04248971
13.1950,-23.14191896
13.2000,-23.24625301
13.2050,-23.35505555
13.2100,-23.46787715
13.2150,-23.58427254
13.2200,-23.70369006
13.2250,-23.82526081
13.2300,-23.94874582
13.2350,-24.0732654
13.2400,-24.19817304
13.2450,-24.32283115
13.2500,-24.44675556
13.2550,-24.56919078
13.2600,-24.68962413
13.2650,-24.80766698
13.2700,-24.92276641
13.2750,-25.03458123
13.2800,-25.14254476
13.2850,-25.24614944
13.2900,-25.34541021
13.2950,-25.44014956
13.3000,-25.53005142
13.3050,-25.61521186
13.3100,-25.69538825
13.3150,-25.77075
13.3200,-25.8415791
13.3250,-25.90782743
13.3300,-25.9695474
13.3350,-26.027113
13.3400,-26.08053146
13.3450,-26.1299429
13.3500,-26.17551053
13.3550,-26.21750029
13.3600,-26.25585762
13.3650,-26.29054507
13.3700,-26.32133658
13.3750,-26.34882167
13.3800,-26.37348096
13.3850,-26.39612534
13.3900,-26.4176612
13.3950,-26.43849319
13.4000,-26.45868006
13.4050,-26.47854674
13.4100,-26.4981531
13.4150,-26.51714253
13.4200,-26.53547943
13.4250,-26.55294987
13.4300,-26.56929691
13.4350,-26.58487153
13.4400,-26.60001815
13.4450,-26.61534264
13.4500,-26.63108762
13.4550,-26.64748873
13.4600,-26.66477845
13.4650,-26.6831592
13.4700,-26.70290815
13.4750,-26.72363713
13.4800,-26.74552871
13.4850,-26.76855928
13.4900,-26.79252807
13.4950,-26.81712851
13.5000,-26.84218952
13.5050,-26.86750886
13.5100,-26.89304194
13.5150,-26.91833542
13.5200,-26.94304964
13.5250,-26.96682839
13.5300,-26.98876922
13.5350,-27.00832953
13.5400,-27.02454045
13.5450,-27.03644328
13.5500,-27.0428761
13.5550,-27.04282569
13.5600,-27.03567246
13.5650,-27.02067232
13.5700,-26.99734492
13.5750,-26.96537093
13.5800,-26.9245016
13.5850,-26.87448836
13.5900,-26.81504693
13.5950,-26.74594228
13.6000,-26.66717803
13.6050,-26.57884122
13.6100,-26.481103
13.6150,-26.37403045
13.6200,-26.25744975
13.6250,-26.13195922
13.6300,-25.99790599
13.6350,-25.85565852
13.6400,-25.7061036
13.6450,-25.54976778
13.6500,-25.38732831
13.6550,-25.21953105
13.6600,-25.04726229
13.6650,-24.87109282
13.6700,-24.6917249
13.6750,-24.50909054
13.6800,-24.32344913
13.6850,-24.1347293
13.6900,-23.94287381
13.6950,-23.74832081
13.7000,-23.55191448
13.7050,-23.3543223
13.7100,-23.15583654
13.7150,-22.95695022
13.7200,-22.75777912
13.7250,-22.55839562
13.7300,-22.35893394
13.7350,-22.15921718
13.7400,-21.9588369
13.7450,-21.75731969
13.7500,-21.55445851
13.7550,-21.35015742
13.7600,-21.14400913
13.7650,-20.93595407
13.7700,-20.72599737
13.7750,-20.51434395
13.7800,-20.30107708
13.7850,-20.08629547
13.7900,-19.86979592
13.7950,-19.65168264
13.8000,-19.43152015
13.8050,-19.20906471
13.8100,-18.98404113
13.8150,-18.75597404
13.8200,-18.52458493
13.8250,-18.28957346
13.8300,-18.05059571
13.8350,-17.80705479
13.8400,-17.55857764
13.8450,-17.30476656
13.8500,-17.04591063
13.8550,-16.78195255
13.8600,-16.51268152
13.8650,-16.23802897
13.8700,-15.95821315
13.8750,-15.67288891
13.8800,-15.38206088
13.8850,-15.08555347
13.8900,-14.78330878
13.8950,-14.47549314
13.9000,-14.1621594
13.9050,-13.84355526
13.9100,-13.51953738
13.9150,-13.19008734
13.9200,-12.85576286
13.9250,-12.51626093
13.9300,-12.17191003
13.9350,-11.82296269
13.9400,-11.46910041
13.9450,-11.11056292
13.9500,-10.74781341
13.9550,-10.3809774
13.9600,-10.01014009
13.9650,-9.635951984
13.9700,-9.258300275
13.9750,-8.877716525
13.9800,-8.494248899
13.9850,-8.107726661
13.9900,-7.718114966
13.9950,-7.325661306
14.0000,-6.929823054
14.0050,-6.530499355
14.0100,-6.127720871
14.0150,-5.721783534
14.0200,-5.312956665
14.0250,-4.90119696
14.0300,-4.486656699
14.0350,-4.06918866
14.0400,-3.648696944
14.0450,-3.225031944
14.0500,-2.797952354
14.0550,-2.367323498
14.0600,-1.932939366
14.0650,-1.494558805
14.0700,-1.051491744
14.0750,-0.603769842
14.0800,-0.1512286638
14.0850,0.3060104408
14.0900,0.767886611
14.0950,1.234027049
14.1000,1.703604479
14.1050,2.176402094
14.1100,2.652844009
14.1150,3.132394119
14.1200,3.615357689
14.1250,4.101894352
14.1300,4.592160323
14.1350,5.086357754
14.1400,5.5844619
14.1450,6.086767524
14.1500,6.593839897
14.1550,7.106230842
14.1600,7.624283145
14.1650,8.148746798
14.1700,8.68017308
14.1750,9.218783775
14.1800,9.765251243
14.1850,10.31926329
14.1900,10.8807474
14.1950,11.44977299
14.2000,12.02557399
14.2050,12.60827935
14.2100,13.19690483
14.2150,13.79060196
14.2200,14.38868582
14.2250,14.99033539
14.2300,15.59480401
14.2350,16.20162116
14.2400,16.81001793
14.2450,17.41905149
14.2500,18.02826052
14.2550,18.63746866
14.2600,19.24600766
14.2650,19.85360406
14.2700,20.45982618
14.2750,21.0647279
14.2800,21.66858936
14.2850,22.27050232
14.2900,22.86977166
14.2950,23.46619162
14.3000,24.05937895
14.3050,24.6492046
14.3100,25.23561971
14.3150,25.81832027
14.3200,26.3968041
14.3250,26.97025202
14.3300,27.53826414
14.3350,28.10072231
14.3400,28.65702107
14.3450,29.2067444
14.3500,29.74956779
14.3550,30.28448257
14.3600,30.81105466
14.3650,31.32900236
14.3700,31.83792797
14.3750,32.33832617
14.3800,32.83093594
14.3850,33.31617252
14.3900,33.79411398
14.3950,34.26477105
14.4000,34.72818944
14.4050,35.18413116
14.4100,35.6325901
14.4150,36.07395766
14.4200,36.50821944
14.4250,36.93577776
14.4300,37.35684773
14.4350,37.77134614
14.4400,38.17963191
14.4450,38.58152659
14.4500,38.97769035
14.4550,39.36864208
14.4600,39.75550353
14.4650,40.13863715
14.4700,40.51838784
14.4750,40.89496129
14.4800,41.26807866
14.4850,41.63786014
14.4900,42.00475917
14.4950,42.36866491
14.5000,42.72965886
14.5050,43.08754165
14.5100,43.44232086
14.5150,43.79366299
14.5200,44.14067972
14.5250,44.4826933
14.5300,44.81931914
14.5350,45.15018856
14.5400,45.4754504
14.5450,45.79571015
14.5500,46.11041618
14.5550,46.41922945
14.5600,46.72220736
14.5650,47.01877674
14.5700,47.30915533
14.5750,47.59295607
14.5800,47.87005027
14.5850,48.14076629
14.5900,48.4058447
14.5950,48.66578346
14.6000,48.9203605
14.6050,49.1695398
14.6100,49.41300649
14.6150,49.65094702
14.6200,49.88312809
14.6250,50.1096789
14.6300,50.33071776
14.6350,50.54613423
14.6400,50.75597151
14.6450,50.96027709
14.6500,51.15901428
14.6550,51.35347306
14.6600,51.54403923
14.6650,51.73138873
14.6700,51.91596635
14.6750,52.09794805
14.6800,52.27727415
14.6850,52.45353143
14.6900,52.62638825
14.6950,52.79626199
14.7000,52.96364884
14.7050,53.12945428
14.7100,53.29386558
14.7150,53.45749988
14.7200,53.62015426
14.7250,53.78204805
14.7300,53.94310868
14.7350,54.1036588
14.7400,54.26367449
14.7450,54.423516
14.7500,54.58297209
14.7550,54.74194335
14.7600,54.89944743
14.7650,55.05542408
14.7700,55.20993578
14.7750,55.36284798
14.7800,55.51466743
14.7850,55.66545866
14.7900,55.81506293
14.7950,55.96376326
14.8000,56.1117556
14.8050,56.25896101
14.8100,56.40525705
14.8150,56.55053773
14.8200,56.69536168
14.8250,56.83978188
14.8300,56.98391412
14.8350,57.12818258
14.8400,57.27204529
14.8450,57.4151014
14.8500,57.55716932
14.8550,57.69795787
14.8600,57.83728321
14.8650,57.97539726
14.8700,58.11178124
14.8750,58.24613985
14.8800,58.37855821
14.8850,58.50935234
14.8900,58.63803961
14.8950,58.76493312
14.9000,58.88996886
14.9050,59.01333739
14.9100,59.13498368
14.9150,59.25456377
14.9200,59.3722742
14.9250,59.48844552
14.9300,59.60327776
14.9350,59.71705652
14.9400,59.82976273
14.9450,59.94130679
14.9500,60.05171672
14.9550,60.1604624
14.9600,60.2674034
14.9650,60.37289019
14.9700,60.47702713
14.9750,60.57988207
14.9800,60.68130252
14.9850,60.78141371
14.9900,60.88019271
14.9950,60.97737069
15.0000,61.07279344
15.0050,61.16624791
15.0100,61.25782234
15.0150,61.34756125
15.0200,61.43558835
15.0250,61.52193105
15.0300,61.60649157
15.0350,61.68881704
15.0400,61.76864474
15.0450,61.84573067
15.0500,61.9198724
15.0550,61.99128765
15.0600,62.06044788
15.0650,62.12764346
15.0700,62.19308912
15.0750,62.25677788
15.0800,62.31850884
15.0850,62.37844637
15.0900,62.43685009
15.0950,62.49362416
15.1000,62.54867123
15.1050,62.60221722
15.1100,62.65440592
15.1150,62.70593483
15.1200,62.75662601
15.1250,62.80647718
15.1300,62.85546243
15.1350,62.90346315
15.1400,62.95052922
15.1450,62.99653377
15.1500,63.04157552
15.1550,63.08636413
15.1600,63.13115541
15.1650,63.17617735
15.1700,63.22158547
15.1750,63.26739351
15.1800,63.31290327
15.1850,63.35796183
15.1900,63.40307168
15.1950,63.44785356
15.2000,63.49224804
15.2050,63.5363298
15.2100,63.58029286
15.2150,63.62440521
15.2200,63.66883159
15.2250,63.71349077
15.2300,63.75848533
15.2350,63.8035966
15.2400,63.84893068
15.2450,63.89481711
15.2500,63.94115275
15.2550,63.98795402
15.2600,64.03566921
15.2650,64.08436964
15.2700,64.13421527
15.2750,64.18508535
15.2800,64.23671598
15.2850,64.28893745
15.2900,64.34253564
15.2950,64.39796709
15.3000,64.45546084
15.3050,64.51508229
15.3100,64.57673563
15.3150,64.64043964
15.3200,64.7067071
15.3250,64.77524936
15.3300,64.84615852
15.3350,64.91976602
15.3400,64.99605407
15.3450,65.07472965
15.3500,65.1559789
15.3550,65.23940122
15.3600,65.32476745
15.3650,65.41203632
15.3700,65.50073408
15.3750,65.59098054
15.3800,65.68247484
15.3850,65.77541626
15.3900,65.86947245
15.3950,65.96446196
15.4000,66.06048887
15.4050,66.15723638
15.4100,66.25417364
15.4150,66.35059462
15.4200,66.44645197
15.4250,66.54134916
15.4300,66.63505725
15.4350,66.72747548
15.4400,66.81872753
15.4450,66.90881237
15.4500,66.99745133
15.4550,67.08395379
15.4600,67.16810393
15.4650,67.24970412
15.4700,67.32872379
15.4750,67.40483746
15.4800,67.47867937
15.4850,67.55024666
15.4900,67.61920948
15.4950,67.68535553
15.5000,67.74880355
15.5050,67.80938572
15.5100,67.86735278
15.5150,67.92256372
15.5200,67.97516188
15.5250,68.02538986
15.5300,68.07314111
15.5350,68.11878609
15.5400,68.16224641
15.5450,68.20313133
15.5500,68.24180336
15.5550,68.27879556
15.5600,68.31376737
15.5650,68.34646862
15.5700,68.37650879
15.5750,68.40409848
15.5800,68.42983711
15.5850,68.45399894
15.5900,68.47631373
15.5950,68.49706732
15.6000,68.51636643
15.6050,68.53443628
15.6100,68.55158356
15.6150,68.56794188
15.6200,68.58343543
15.6250,68.59831468
15.6300,68.61267916
15.6350,68.62646909
15.6400,68.63971353
15.6450,68.65262529
15.6500,68.66534621
15.6550,68.67814237
15.6600,68.6913778
15.6650,68.70488765
15.6700,68.71872349
15.6750,68.73293896
15.6800,68.74787445
15.6850,68.76305693
15.6900,68.7787975
15.6950,68.79504078
15.7000,68.81157632
15.7050,68.8284221
15.7100,68.84567723
15.7150,68.86358728
15.7200,68.8818243
15.7250,68.90035749
15.7300,68.91959673
15.7350,68.93921844
15.7400,68.95917152
15.7450,68.97946296
15.7500,69.00018207
15.7550,69.02125976
15.7600,69.0428255
15.7650,69.06471234
15.7700,69.08669016
15.7750,69.10865817
15.7800,69.13011339
15.7850,69.15099837
15.7900,69.17126281
15.7950,69.19086235
15.8000,69.20968822
15.8050,69.22779616
15.8100,69.24507911
15.8150,69.26153336
15.8200,69.27675097
15.8250,69.2906724
15.8300,69.30336847
15.8350,69.31485146
15.8400,69.32488171
15.8450,69.33364118
15.8500,69.3409302
15.8550,69.34631733
15.8600,69.34987477
15.8650,69.35162423
15.8700,69.35178605
15.8750,69.35035382
15.8800,69.34717013
15.8850,69.34219246
15.8900,69.33548226
15.8950,69.32701866
15.9000,69.31682195
15.9050,69.30498156
15.9100,69.29160206
15.9150,69.2765528
15.9200,69.25986029
15.9250,69.24167757
15.9300,69.22195471
15.9350,69.20089829
15.9400,69.17886212
15.9450,69.15606756
15.9500,69.13247306
15.9550,69.10832148
15.9600,69.0832558
15.9650,69.05737732
15.9700,69.03088017
15.9750,69.0036432
15.9800,68.97571293
15.9850,68.9475189
15.9900,68.91869079
15.9950,68.88943651
16.0000,68.85976219
16.0050,68.82961895
16.0100,68.7991541
16.0150,68.76796068
16.0200,68.7360763
16.0250,68.70337794
16.0300,68.66979585
16.0350,68.63540043
16.0400,68.60017007
16.0450,68.56387541
16.0500,68.52654768
16.0550,68.48827376
16.0600,68.44890169
16.0650,68.40833167
16.0700,68.36646707
16.0750,68.32355663
16.0800,68.27952064
16.0850,68.23400118
16.0900,68.18685272
16.0950,68.13842847
16.1000,68.08869123
16.1050,68.03745126
16.1100,67.98452692
16.1150,67.93025317
16.1200,67.87483956
16.1250,67.81809818
16.1300,67.75994708
16.1350,67.7001703
16.1400,67.6389225
16.1450,67.57608852
16.1500,67.51146544
16.1550,67.44468232
16.1600,67.37545097
16.1650,67.30376543
16.1700,67.22967908
16.1750,67.15306899
16.1800,67.07436466
16.1850,66.99358342
16.1900,66.910607
16.1950,66.82535667
16.2000,66.7379426
16.2050,66.64817759
16.2100,66.5560069
16.2150,66.46158321
16.2200,66.36512892
16.2250,66.26649651
16.2300,66.16564216
16.2350,66.06227816
16.2400,65.95637694
16.2450,65.8480995
16.2500,65.7375015
16.2550,65.62462071
16.2600,65.50933495
16.2650,65.39116635
16.2700,65.27023536
16.2750,65.14669059
16.2800,65.02023621
16.2850,64.89062014
16.2900,64.75804361
16.2950,64.62232245
16.3000,64.48372119
16.3050,64.3421778
16.3100,64.19742582
16.3150,64.0495881
16.3200,63.89882262
16.3250,63.74528068
16.3300,63.58853172
16.3350,63.42847994
16.3400,63.26497912
16.3450,63.09785101
16.3500,62.92666059
16.3550,62.75134431
16.3600,62.57167341
16.3650,62.38762617
16.3700,62.19916544
16.3750,62.00615341
16.3800,61.80876816
16.3850,61.60743592
16.3900,61.40217474
16.3950,61.19259826
16.4000,60.97873768
16.4050,60.76057375
16.4100,60.5384807
16.4150,60.31202173
16.4200,60.08132894
16.4250,59.8463197
16.4300,59.60704352
16.4350,59.36347248
16.4400,59.11552925
16.4450,58.86306041
16.4500,58.60610236
16.4550,58.34498218
16.4600,58.0800302
16.4650,57.81111345
16.4700,57.53816658
16.4750,57.26105398
16.4800,56.97902141
16.4850,56.69216384
16.4900,56.40041395
16.4950,56.10345287
16.5000,55.80093552
16.5050,55.49274401
16.5100,55.17897681
16.5150,54.85956904
16.5200,54.53438555
16.5250,54.2038168
16.5300,53.86814818
16.5350,53.52791854
16.5400,53.18345206
16.5450,52.83473242
16.5500,52.48224304
16.5550,52.12533091
16.5600,51.76434761
16.5650,51.39956327
16.5700,51.03034055
16.5750,50.65627103
16.5800,50.27721481
16.5850,49.89271233
16.5900,49.50258205
16.5950,49.1066157
16.6000,48.70437528
16.6050,48.29589817
16.6100,47.88142137
16.6150,47.4606759
16.6200,47.03371288
16.6250,46.60077552
16.6300,46.16165091
16.6350,45.71625962
16.6400,45.26437437
16.6450,44.80616222
16.6500,44.34180288
16.6550,43.87070681
16.6600,43.39238711
16.6650,42.90637409
16.6700,42.41238946
16.6750,41.91015341
16.6800,41.39925892
16.6850,40.87924051
16.6900,40.35034014
16.6950,39.81281258
16.7000,39.26663499
16.7050,38.71202888
16.7100,38.14844968
16.7150,37.5757856
16.7200,36.99338031
16.7250,36.40128786
16.7300,35.7993681
16.7350,35.18780035
16.7400,34.56708769
16.7450,33.93736341
16.7500,33.29904672
16.7550,32.65208024
16.7600,31.99663212
16.7650,31.3328766
16.7700,30.66120702
16.7750,29.98239244
16.7800,29.29689342
16.7850,28.60505939
16.7900,27.90763211
16.7950,27.20547239
16.8000,26.49915963
16.8050,25.78963642
16.8100,25.07767893
16.8150,24.36440508
16.8200,23.65062492
16.8250,22.9369631
16.8300,22.22430344
16.8350,21.51346537
16.8400,20.80467283
16.8450,20.09862254
16.8500,19.3957404
16.8550,18.69687003
16.8600,18.0021096
16.8650,17.31165978
16.8700,16.6259645
16.8750,15.94544277
16.8800,15.26994938
16.8850,14.59977351
16.8900,13.93469409
16.8950,13.27467239
16.9000,12.61962675
16.9050,11.9698452
16.9100,11.3250467
16.9150,10.68533512
16.9200,10.05081665
16.9250,9.421196688
16.9300,8.796438349
16.9350,8.176662117
16.9400,7.561619079
16.9450,6.951527799
16.9500,6.346616523
16.9550,5.747167653
16.9600,5.153170522
16.9650,4.565071267
16.9700,3.982385852
16.9750,3.405301888
16.9800,2.833827272
16.9850,2.267859302
16.9900,1.707030148
16.9950,1.151515363
17.0000,0.6014444851
17.0050,0.05691626446
17.0100,-0.4823032966
17.0150,-1.016041743
17.0200,-1.544293934
17.0250,-2.067347178
17.0300,-2.584820323
17.0350,-3.096732439
17.0400,-3.603269682
17.0450,-4.10441724
17.0500,-4.599704478
17.0550,-5.089034112
17.0600,-5.572202313
17.0650,-6.048848275
17.0700,-6.518928927
17.0750,-6.982946271
17.0800,-7.440523191
17.0850,-7.891511937
17.0900,-8.335724313
17.0950,-8.772836947
17.1000,-9.202797075
17.1050,-9.625493409
17.1100,-10.04058852
17.1150,-10.44825282
17.1200,-10.84891896
17.1250,-11.24256003
17.1300,-11.62916941
17.1350,-12.00889628
17.1400,-12.38109218
17.1450,-12.7457349
17.1500,-13.10327999
17.1550,-13.45356979
17.1600,-13.79723077
17.1650,-14.13416624
17.1700,-14.46429896
17.1750,-14.78785682
17.1800,-15.10453456
17.1850,-15.4142748
17.1900,-15.71715876
17.1950,-16.01316375
17.2000,-16.30245984
17.2050,-16.58555657
17.2100,-16.86276268
17.2150,-17.13438738
17.2200,-17.40035529
17.2250,-17.66091527
17.2300,-17.91645111
17.2350,-18.16723389
17.2400,-18.41333148
17.2450,-18.65504533
17.2500,-18.89295996
17.2550,-19.12727944
17.2600,-19.35868699
17.2650,-19.58748842
17.2700,-19.8131879
17.2750,-20.03559496
17.2800,-20.2546428
17.2850,-20.46990383
17.2900,-20.68080359
17.2950,-20.88724835
17.3000,-21.08914632
17.3050,-21.28631701
17.3100,-21.47854657
17.3150,-21.66600986
17.3200,-21.84844263
17.3250,-22.02583208
17.3300,-22.19824343
17.3350,-22.36568384
17.3400,-22.52778118
17.3450,-22.68418779
17.3500,-22.83487991
17.3550,-22.97955421
17.3600,-23.11860802
17.3650,-23.25227196
17.3700,-23.38064862
17.3750,-23.50356046
17.3800,-23.6213033
17.3850,-23.73380363
17.3900,-23.84070383
17.3950,-23.9419645
17.4000,-24.03745982
17.4050,-24.12701339
17.4100,-24.21087711
17.4150,-24.28877554
17.4200,-24.36052816
17.4250,-24.42644634
17.4300,-24.48663948
17.4350,-24.54132502
17.4400,-24.59108079
17.4450,-24.63631684
17.4500,-24.67687879
17.4550,-24.71317428
17.4600,-24.74503303
17.4650,-24.77292682
17.4700,-24.79723245
17.4750,-24.81850599
17.4800,-24.83743804
17.4850,-24.85448971
17.4900,-24.87013557
17.4950,-24.88478987
17.5000,-24.89881405
17.5050,-24.91261401
17.5100,-24.92678138
17.5150,-24.94134284
17.5200,-24.95667712
17.5250,-24.97240209
17.5300,-24.98820465
17.5350,-25.00400007
17.5400,-25.01930897
17.5450,-25.03372549
17.5500,-25.04705697
17.5550,-25.0589607
17.5600,-25.06932202
17.5650,-25.07795729
17.5700,-25.08511152
17.5750,-25.09123627
17.5800,-25.09627587
17.5850,-25.10017834
17.5900,-25.10285671
17.5950,-25.10422906
17.6000,-25.10427207
17.6050,-25.10273894
17.6100,-25.09972331
17.6150,-25.095041
17.6200,-25.0889599
17.6250,-25.08162007
17.6300,-25.07308518
17.6350,-25.06377457
17.6400,-25.05388437
17.6450,-25.04361132
17.6500,-25.03308191
17.6550,-25.02227775
17.6600,-25.01102784
17.6650,-24.99896564
17.6700,-24.9858814
17.6750,-24.97124785
17.6800,-24.95454745
17.6850,-24.93585341
17.6900,-24.91548176
17.6950,-24.89369148
17.7000,-24.87056252
17.7050,-24.84678961
17.7100,-24.82276585
17.7150,-24.79897367
17.7200,-24.77577645
17.7250,-24.75326905
17.7300,-24.73171543
17.7350,-24.71102866
17.7400,-24.69134607
17.7450,-24.67247158
17.7500,-24.65475408
17.7550,-24.63811224
17.7600,-24.62279768
17.7650,-24.60908374
17.7700,-24.59711687
17.7750,-24.58693335
17.7800,-24.57847585
17.7850,-24.5716112
17.7900,-24.56638016
17.7950,-24.5624893
17.8000,-24.5597343
17.8050,-24.55770244
17.8100,-24.55620584
17.8150,-24.55500961
17.8200,-24.55381553
17.8250,-24.55269752
17.8300,-24.55151545
17.8350,-24.55035991
17.8400,-24.54932573
17.8450,-24.54854154
17.8500,-24.54786654
17.8550,-24.5474097
17.8600,-24.54683677
17.8650,-24.54608359
17.8700,-24.54471932
17.8750,-24.54245652
17.8800,-24.53897313
17.8850,-24.53388628
17.8900,-24.52699669
17.8950,-24.51790742
17.9000,-24.50649516
17.9050,-24.49263493
17.9100,-24.4761115
17.9150,-24.4567379
17.9200,-24.43404029
17.9250,-24.40771278
17.9300,-24.37729895
17.9350,-24.3422307
17.9400,-24.30218835
17.9450,-24.2568163
17.9500,-24.20636025
17.9550,-24.15105259
17.9600,-24.09116948
17.9650,-24.02706081
17.9700,-23.95911037
17.9750,-23.88791654
17.9800,-23.81417789
17.9850,-23.73850956
17.9900,-23.66155694
17.9950,-23.58384911
18.0000,-23.50624976
18.0050,-23.4292046
18.0100,-23.35319583
18.0150,-23.2789422
18.0200,-23.20716129
18.0250,-23.1385831
18.0300,-23.07369377
18.0350,-23.01325951
18.0400,-22.95733557
18.0450,-22.90662916
18.0500,-22.86096886
18.0550,-22.82037316
18.0600,-22.784714
18.0650,-22.75371582
18.0700,-22.72714297
18.0750,-22.704817
18.0800,-22.68644915
18.0850,-22.67175175
18.0900,-22.66023991
18.0950,-22.65151053
18.1000,-22.64509844
18.1050,-22.64059433
18.1100,-22.63724187
18.1150,-22.63467377
18.1200,-22.63267426
18.1250,-22.63123482
18.1300,-22.63035173
18.1350,-22.6298188
18.1400,-22.62951752
18.1450,-22.62917179
18.1500,-22.62883512
18.1550,-22.62850286
18.1600,-22.62804314
18.1650,-22.6274154
18.1700,-22.62663647
18.1750,-22.62537248
18.1800,-22.62366861
18.1850,-22.62134851
18.1900,-22.61830311
18.1950,-22.61444984
18.2000,-22.60945433
18.2050,-22.6031772
18.2100,-22.59533804
18.2150,-22.58596178
18.2200,-22.57510985
18.2250,-22.56298006
18.2300,-22.54957814
18.2350,-22.53507712
18.2400,-22.51960224
18.2450,-22.50328759
18.2500,-22.48601822
18.2550,-22.46796511
18.2600,-22.4489672
18.2650,-22.42910363
18.2700,-22.4084508
18.2750,-22.38711865
18.2800,-22.36496128
18.2850,-22.34206654
18.2900,-22.3183373
18.2950,-22.29374825
18.3000,-22.26828534
18.3050,-22.24214266
18.3100,-22.21530923
18.3150,-22.18773683
18.3200,-22.15924394
18.3250,-22.12943707
18.3300,-22.09847817
18.3350,-22.065972
18.3400,-22.03213851
18.3450,-21.99673828
18.3500,-21.96011105
18.3550,-21.92234835
18.3600,-21.88360766
18.3650,-21.84426664
18.3700,-21.80439962
18.3750,-21.76412471
18.3800,-21.72361516
18.3850,-21.6830957
18.3900,-21.64298732
18.3950,-21.60370444
18.4000,-21.56562436
18.4050,-21.52911302
18.4100,-21.49430848
18.4150,-21.46177984
18.4200,-21.43184912
18.4250,-21.40437145
18.4300,-21.37951155
18.4350,-21.35719165
18.4400,-21.33768358
18.4450,-21.32140989
18.4500,-21.30833343
18.4550,-21.29840433
18.4600,-21.2914842
18.4650,-21.28741705
18.4700,-21.28584767
18.4750,-21.28682314
18.4800,-21.28993696
18.4850,-21.29514731
18.4900,-21.30227669
18.4950,-21.31120252
18.5000,-21.32179974
18.5050,-21.33411442
18.5100,-21.34812014
18.5150,-21.36367653
18.5200,-21.38037234
18.5250,-21.39786238
18.5300,-21.41596209
18.5350,-21.43440305
18.5400,-21.45307346
18.5450,-21.47188627
18.5500,-21.49066574
18.5550,-21.50942587
18.5600,-21.52820223
18.5650,-21.54710627
18.5700,-21.56627613
18.5750,-21.58543573
18.5800,-21.60472428
18.5850,-21.62379554
18.5900,-21.64254212
18.5950,-21.66070013
18.6000,-21.67808236
18.6050,-21.69407718
18.6100,-21.70851329
18.6150,-21.7209655
18.6200,-21.73139902
18.6250,-21.73971339
18.6300,-21.74572841
18.6350,-21.74934204
18.6400,-21.75061693
18.6450,-21.74941682
18.6500,-21.74560504
18.6550,-21.73926779
18.6600,-21.73046802
18.6650,-21.71906116
18.6700,-21.70531422
18.6750,-21.6898501
18.6800,-21.67293822
18.6850,-21.6551499
18.6900,-21.63675447
18.6950,-21.61794906
18.7000,-21.59903397
18.7050,-21.58034895
18.7100,-21.56227968
18.7150,-21.54481648
18.7200,-21.52785558
18.7250,-21.51162565
18.7300,-21.49597871
18.7350,-21.48098666
18.7400,-21.46632559
18.7450,-21.45180468
18.7500,-21.43725017
18.7550,-21.42258457
18.7600,-21.40775019
18.7650,-21.39255862
18.7700,-21.37683289
18.7750,-21.36047102
18.7800,-21.34345412
18.7850,-21.32571291
18.7900,-21.30708055
18.7950,-21.28722292
18.8000,-21.26584345
18.8050,-21.24271497
18.8100,-21.21763348
18.8150,-21.19031359
18.8200,-21.16071495
18.8250,-21.12875828
18.8300,-21.0946222
18.8350,-21.05833886
18.8400,-21.01993946
18.8450,-20.97926327
18.8500,-20.93642538
18.8550,-20.89103736
18.8600,-20.84291005
18.8650,-20.79174747
18.8700,-20.73720909
18.8750,-20.67935352
18.8800,-20.61837292
18.8850,-20.55440835
18.8900,-20.48760043
18.8950,-20.41804517
18.9000,-20.3456985
18.9050,-20.27083502
18.9100,-20.19341547
18.9150,-20.11350903
18.9200,-20.0311097
18.9250,-19.94611707
18.9300,-19.85850804
18.9350,-19.76806357
18.9400,-19.67474718
18.9450,-19.57865966
18.9500,-19.47978736
18.9550,-19.37828679
18.9600,-19.27404166
18.9650,-19.1672559
18.9700,-19.0583575
18.9750,-18.94668116
18.9800,-18.83236234
18.9850,-18.71509185
18.9900,-18.59464818
18.9950,-18.47142088
19.0000,-18.34523033
19.0050,-18.21607334
19.0100,-18.08393943
19.0150,-17.94879745
19.0200,-17.81057204
19.0250,-17.66916888
19.0300,-17.52472402
19.0350,-17.37708507
19.0400,-17.22597493
19.0450,-17.07136101
19.0500,-16.91295735
19.0550,-16.7504855
19.0600,-16.58362466
19.0650,-16.4121705
19.0700,-16.23632416
19.0750,-16.05550562
19.0800,-15.86949456
19.0850,-15.67821833
19.0900,-15.48137843
19.0950,-15.27936873
19.1000,-15.0723194
19.1050,-14.8604698
19.1100,-14.64374263
19.1150,-14.42235755
19.1200,-14.19637948
19.1250,-13.96574572
19.1300,-13.73017028
19.1350,-13.49009562
19.1400,-13.24539048
19.1450,-12.9961499
19.1500,-12.74226713
19.1550,-12.48360272
19.1600,-12.22039569
19.1650,-11.95274069
19.1700,-11.68049187
19.1750,-11.40393016
19.1800,-11.12252585
19.1850,-10.83630157
19.1900,-10.54539796
19.1950,-10.24970697
19.2000,-9.949424211
19.2050,-9.644569124
19.2100,-9.334941654
19.2150,-9.020909652
19.2200,-8.702201189
19.2250,-8.378955784
19.2300,-8.050923861
19.2350,-7.71827278
19.2400,-7.380824286
19.2450,-7.038350282
19.2500,-6.690816114
19.2550,-6.338170218
19.2600,-5.980282312
19.2650,-5.617267547
19.2700,-5.248629256
19.2750,-4.874447325
19.2800,-4.494496163
19.2850,-4.108983047
19.2900,-3.717977343
19.2950,-3.320971024
19.3000,-2.918169267
19.3050,-2.509181362
19.3100,-2.093956583
19.3150,-1.672518786
19.3200,-1.244836993
19.3250,-0.8110232902
19.3300,-0.3706145703
19.3350,0.07601469983
19.3400,0.5285180966
19.3450,0.9872976994
19.3500,1.451974957
19.3550,1.922480994
19.3600,2.398643826
19.3650,2.880400804
19.3700,3.367742092
19.3750,3.86026095
19.3800,4.357700774
19.3850,4.860041401
19.3900,5.366633823
19.3950,5.877638831
19.4000,6.392255497
19.4050,6.910842501
19.4100,7.432990035
19.4150,7.958623064
19.4200,8.487387546
19.4250,9.019093379
19.4300,9.553186421
19.4350,10.09011393
19.4400,10.62993226
19.4450,11.1725692
19.4500,11.71774708
19.4550,12.26522463
19.4600,12.81521936
19.4650,13.36750639
19.4700,13.92195868
19.4750,14.47877163
19.4800,15.03766738
19.4850,15.59867023
19.4900,16.16175649
19.4950,16.72661648
19.5000,17.29316002
19.5050,17.86147126
19.5100,18.43103539
19.5150,19.00196443
19.5200,19.57444658
19.5250,20.14811469
19.5300,20.72315266
19.5350,21.29914642
19.5400,21.87600436
19.5450,22.45333075
19.5500,23.03086603
19.5550,23.60854864
19.5600,24.18531669
19.5650,24.76166998
19.5700,25.33676196
19.5750,25.90989896
19.5800,26.48082476
19.5850,27.0493935
19.5900,27.61520767
19.5950,28.17801367
19.6000,28.73755198
19.6050,29.29345831
19.6100,29.84546325
19.6150,30.39361731
19.6200,30.93745689
19.6250,31.47663192
19.6300,32.01077044
19.6350,32.54000315
19.6400,33.06391622
19.6450,33.58222625
19.6500,34.09510414
19.6550,34.60308747
19.6600,35.10624303
19.6650,35.60478046
19.6700,36.09816804
19.6750,36.58662908
19.6800,37.07006531
19.6850,37.54805756
19.6900,38.02072084
19.6950,38.48754729
19.7000,38.94896985
19.7050,39.40439151
19.7100,39.85422185
19.7150,40.29861319
19.7200,40.737412
19.7250,41.17042045
19.7300,41.59796085
19.7350,42.02016783
19.7400,42.43729812
19.7450,42.84896145
19.7500,43.25529142
19.7550,43.65583038
19.7600,44.05036569
19.7650,44.43926119
19.7700,44.82248573
19.7750,45.20029765
19.7800,45.57291716
19.7850,45.94035475
19.7900,46.30220341
19.7950,46.65878892
19.8000,47.01017249
19.8050,47.35599643
19.8100,47.69645663
19.8150,48.03173958
19.8200,48.3612427
19.8250,48.68517899
19.8300,49.00329135
19.8350,49.31569987
19.8400,49.62192777
19.8450,49.92228992
19.8500,50.21706488
19.8550,50.50676962
19.8600,50.79225015
19.8650,51.07374832
19.8700,51.35174621
19.8750,51.62603963
19.8800,51.89674497
19.8850,52.16414115
19.8900,52.42858743
19.8950,52.69051958
19.9000,52.9501181
19.9050,53.20814612
19.9100,53.46455227
19.9150,53.71917164
19.9200,53.97262109
19.9250,54.22489352
19.9300,54.47588873
19.9350,54.72608481
19.9400,54.9755981
19.9450,55.2247582
19.9500,55.47325516
19.9550,55.72090552
19.9600,55.96713358
19.9650,56.21162948
19.9700,56.4546707
19.9750,56.69589894
19.9800,56.93461496
19.9850,57.17103615
19.9900,57.40522579
19.9950,57.63746257
20.0000,57.86736833
20.0050,58.09460489
20.0100,58.3188915
20.0150,58.53991587
20.0200,58.75783815
20.0250,58.97292146
20.0300,59.18566386
20.0350,59.39574367
20.0400,59.60331323
20.0450,59.80887365
20.0500,60.01199419
20.0550,60.21260809
20.0600,60.41086651
20.0650,60.60678322
20.0700,60.80015467
20.0750,60.99077351
20.0800,61.17853125
20.0850,61.36353409
20.0900,61.54590095
20.0950,61.72543488
20.1000,61.90244942
20.1050,62.07716387
20.1100,62.24922828
20.1150,62.41829087
20.1200,62.58465739
20.1250,62.74806015
20.1300,62.90862656
20.1350,63.06636657
20.1400,63.22139689
20.1450,63.37378253
20.1500,63.52384899
20.1550,63.67155782
20.1600,63.81677203
20.1650,63.95932091
20.1700,64.09925492
20.1750,64.23752674
20.1800,64.37400566
20.1850,64.50852372
20.1900,64.64087495
20.1950,64.77110888
20.2000,64.89945088
20.2050,65.02608911
20.2100,65.15094195
20.2150,65.27435691
20.2200,65.39586505
20.2250,65.51583393
20.2300,65.63449081
20.2350,65.75127106
20.2400,65.86589815
20.2450,65.97810491
20.2500,66.08840422
20.2550,66.19677732
20.2600,66.30353037
20.2650,66.40855762
20.2700,66.5120547
20.2750,66.61427813
20.2800,66.7157307
20.2850,66.81663943
20.2900,66.91699189
20.2950,67.01683904
20.3000,67.11668152
20.3050,67.21715306
20.3100,67.31792118
20.3150,67.41916678
20.3200,67.52081647
20.3250,67.62283439
20.3300,67.72485071
20.3350,67.82661429
20.3400,67.92800514
20.3450,68.02879446
20.3500,68.12950371
20.3550,68.23018485
20.3600,68.33075851
20.3650,68.43142002
20.3700,68.53223086
20.3750,68.63327295
20.3800,68.7344626
20.3850,68.83551291
20.3900,68.9364563
20.3950,69.03742739
20.4000,69.13806181
20.4050,69.23835036
20.4100,69.33778259
20.4150,69.43653586
20.4200,69.53463191
20.4250,69.63193384
20.4300,69.72821536
20.4350,69.82336861
20.4400,69.91734652
20.4450,70.00977911
20.4500,70.10031746
20.4550,70.18859227
20.4600,70.27423957
20.4650,70.35699527
20.4700,70.43680143
20.4750,70.51340463
20.4800,70.58693054
20.4850,70.65763336
20.4900,70.72562834
20.4950,70.79079065
20.5000,70.8531867
20.5050,70.91265792
20.5100,70.96928851
20.5150,71.02312279
20.5200,71.07434539
20.5250,71.12242789
20.5300,71.16730789
20.5350,71.20938625
20.5400,71.24883185
20.5450,71.28588338
20.5500,71.32024391
20.5550,71.35212651
20.5600,71.38158166
20.5650,71.4089359
20.5700,71.43404608
20.5750,71.45688535
20.5800,71.4770722
20.5850,71.49449728
20.5900,71.50892311
20.5950,71.52039413
20.6000,71.52880829
20.6050,71.53430393
20.6100,71.537349
20.6150,71.53822764
20.6200,71.53737555
20.6250,71.53482531
20.6300,71.53105839
20.6350,71.52654675
20.6400,71.52154407
20.6450,71.51638746
20.6500,71.51104624
20.6550,71.50581849
20.6600,71.50088813
20.6650,71.49626693
20.6700,71.4918531
20.6750,71.48748371
20.6800,71.48278162
20.6850,71.47775815
20.6900,71.47215114
20.6950,71.46587876
20.7000,71.45913355
20.7050,71.45182945
20.7100,71.4443569
20.7150,71.43673903
20.7200,71.42853497
20.7250,71.4198759
20.7300,71.41059581
20.7350,71.40049957
20.7400,71.3894171
20.7450,71.37764407
20.7500,71.36522891
20.7550,71.35233463
20.7600,71.33913647
20.7650,71.325396
20.7700,71.31118976
20.7750,71.29624105
20.7800,71.28052032
20.7850,71.2639481
20.7900,71.24651896
20.7950,71.22855617
20.8000,71.20996523
20.8050,71.19036061
20.8100,71.16973329
20.8150,71.14808845
20.8200,71.125265
20.8250,71.10152525
20.8300,71.07685207
20.8350,71.05091607
20.8400,71.02373127
20.8450,70.99519651
20.8500,70.96571757
20.8550,70.93540663
20.8600,70.90430801
20.8650,70.87275103
20.8700,70.84074777
20.8750,70.80830403
20.8800,70.77574065
20.8850,70.74308278
20.8900,70.71062405
20.8950,70.678673
20.9000,70.64715924
20.9050,70.61625821
20.9100,70.58584383
20.9150,70.55575143
20.9200,70.52602158
20.9250,70.49681616
20.9300,70.46796131
20.9350,70.43947879
20.9400,70.41121045
20.9450,70.38294137
20.9500,70.35464955
20.9550,70.32628976
20.9600,70.29771851
20.9650,70.26855844
20.9700,70.2390087
20.9750,70.20927678
20.9800,70.17959978
20.9850,70.15009096
20.9900,70.12105131
20.9950,70.09248936
21.0000,70.06449333
21.0050,70.03704443
21.0100,70.00984912
21.0150,69.98252754
21.0200,69.95517087
21.0250,69.92769283
21.0300,69.90000647
21.0350,69.87238838
21.0400,69.84494107
21.0450,69.81746041
21.0500,69.78963807
21.0550,69.76146349
21.0600,69.73294296
21.0650,69.70424704
21.0700,69.67524419
21.0750,69.64612702
21.0800,69.61690747
21.0850,69.58753867
21.0900,69.55821344
21.0950,69.5290689
21.1000,69.50012669
21.1050,69.47173868
21.1100,69.44390673
21.1150,69.4164772
21.1200,69.38972268
21.1250,69.36349545
21.1300,69.33810692
21.1350,69.31388491
21.1400,69.29099357
21.1450,69.26957298
21.1500,69.24927343
21.1550,69.23018553
21.1600,69.21201832
21.1650,69.19437328
21.1700,69.17768482
21.1750,69.16203744
21.1800,69.14742958
21.1850,69.13401999
21.1900,69.12174499
21.1950,69.11024856
21.2000,69.09965744
21.2050,69.08953131
21.2100,69.07983849
21.2150,69.07082763
21.2200,69.062625
21.2250,69.05542341
21.2300,69.0495544
21.2350,69.04497406
21.2400,69.04176936
21.2450,69.03985885
21.2500,69.03916188
21.2550,69.03947779
21.2600,69.04074711
21.2650,69.04305236
21.2700,69.04635541
21.2750,69.05049295
21.2800,69.05537461
21.2850,69.06108602
21.2900,69.06745989
21.2950,69.07443239
21.3000,69.08158234
21.3050,69.08886015
21.3100,69.09635483
21.3150,69.1042435
21.3200,69.11233664
21.3250,69.12063952
21.3300,69.12912648
21.3350,69.1374363
21.3400,69.14527575
21.3450,69.15247817
21.3500,69.15922646
21.3550,69.1653815
21.3600,69.17060818
21.3650,69.17495862
21.3700,69.17854801
21.3750,69.18133462
21.3800,69.18352709
21.3850,69.18509146
21.3900,69.18606089
21.3950,69.18607206
21.4000,69.18526459
21.4050,69.18324395
21.4100,69.18010904
21.4150,69.17595761
21.4200,69.17087062
21.4250,69.16508221
21.4300,69.15824625
21.4350,69.15045174
21.4400,69.14178795
21.4450,69.13227773
21.4500,69.121887
21.4550,69.11020799
21.4600,69.09740851
21.4650,69.08372197
21.4700,69.06888532
21.4750,69.05303309
21.4800,69.03629326
21.4850,69.01867501
21.4900,69.00028788
21.4950,68.98134686
21.5000,68.96194079
21.5050,68.94215875
21.5100,68.92195824
21.5150,68.90149224
21.5200,68.88046518
21.5250,68.85906349
21.5300,68.8371521
21.5350,68.8149279
21.5400,68.79247444
21.5450,68.76999504
21.5500,68.7475297
21.5550,68.7252626
21.5600,68.70324813
21.5650,68.68127713
21.5700,68.65897031
21.5750,68.63598099
21.5800,68.61259464
21.5850,68.58818957
21.5900,68.56298463
21.5950,68.53696138
21.6000,68.5102059
21.6050,68.48276866
21.6100,68.45446852
21.6150,68.42502357
21.6200,68.39422838
21.6250,68.36158166
21.6300,68.32711599
21.6350,68.29080888
21.6400,68.25268284
21.6450,68.21251087
21.6500,68.17032183
21.6550,68.12608996
21.6600,68.07998663
21.6650,68.03207738
21.6700,67.98250798
21.6750,67.93122891
21.6800,67.87813641
21.6850,67.82320642
21.6900,67.76629929
21.6950,67.70731138
21.7000,67.64602479
21.7050,67.58271088
21.7100,67.51714718
21.7150,67.44938919
21.7200,67.37933426
21.7250,67.30705826
21.7300,67.2330366
21.7350,67.15708407
21.7400,67.07907457
21.7450,66.99892485
21.7500,66.9169048
21.7550,66.83321694
21.7600,66.74781343
21.7650,66.66036725
21.7700,66.57116551
21.7750,66.48032326
21.7800,66.38782538
21.7850,66.29377137
21.7900,66.19815991
21.7950,66.1009164
21.8000,66.00217947
21.8050,65.9020169
21.8100,65.80046509
21.8150,65.69685048
21.8200,65.59128663
21.8250,65.48373264
21.8300,65.37448442
21.8350,65.2638839
21.8400,65.15168547
21.8450,65.03778673
21.8500,64.92193475
21.8550,64.80386643
21.8600,64.68348812
21.8650,64.5609455
21.8700,64.43591352
21.8750,64.30824399
21.8800,64.17733788
21.8850,64.04296218
21.8900,63.90468769
21.8950,63.76237538
21.9000,63.61604102
21.9050,63.46544798
21.9100,63.31052768
21.9150,63.15130445
21.9200,62.98786939
21.9250,62.82030575
21.9300,62.64808288
21.9350,62.47089102
21.9400,62.28882382
21.9450,62.10202334
21.9500,61.91048966
21.9550,61.71381458
21.9600,61.51205506
21.9650,61.30525622
21.9700,61.09338176
21.9750,60.87641531
21.9800,60.65448966
21.9850,60.42738813
21.9900,60.19542045
21.9950,59.95836665
22.0000,59.71639947
22.0050,59.46914553
22.0100,59.21674388
22.0150,58.95876819
22.0200,58.69506355
22.0250,58.4255674
22.0300,58.1497069
22.0350,57.8677382
22.0400,57.5795313
22.0450,57.2850966
22.0500,56.98440836
22.0550,56.67732675
22.0600,56.36382388
22.0650,56.04424269
22.0700,55.7180367
22.0750,55.38483
22.0800,55.04454113
22.0850,54.69704511
22.0900,54.34229783
22.0950,53.98016677
22.1000,53.61008562
22.1050,53.23199262
22.1100,52.84582959
22.1150,52.45199584
22.1200,52.05035428
22.1250,51.64022912
22.1300,51.22136929
22.1350,50.79318539
22.1400,50.35562455
22.1450,49.9083707
22.1500,49.45142387
22.1550,48.98511438
22.1600,48.50983001
22.1650,48.02547828
22.1700,47.53254304
22.1750,47.03125155
22.1800,46.52196712
22.1850,46.00515656
22.1900,45.48092281
22.1950,44.94941068
22.2000,44.41081079
22.2050,43.86500583
22.2100,43.31245649
22.2150,42.75315982
22.2200,42.18735259
22.2250,41.61551299
22.2300,41.03805694
22.2350,40.45571811
22.2400,39.86895667
22.2450,39.27800893
22.2500,38.68322774
22.2550,38.08486387
22.2600,37.48333706
22.2650,36.87905459
22.2700,36.27242971
22.2750,35.66359191
22.2800,35.05239433
22.2850,34.43922854
22.2900,33.82380517
22.2950,33.20673333
22.3000,32.58767877
22.3050,31.96720014
22.3100,31.34537427
22.3150,30.72285107
22.3200,30.10002654
22.3250,29.47702916
22.3300,28.85433323
22.3350,28.23203196
22.3400,27.6105263
22.3450,26.98999782
22.3500,26.37107257
22.3550,25.75378172
22.3600,25.13866538
22.3650,24.52593039
22.3700,23.91572344
22.3750,23.3080441
22.3800,22.703124
22.3850,22.10096764
22.3900,21.50156501
22.3950,20.90480044
22.4000,20.31104433
22.4050,19.72024293
22.4100,19.13225902
22.4150,18.54719922
22.4200,17.96457508
22.4250,17.38467678
22.4300,16.80699161
22.4350,16.23181396
22.4400,15.65927994
22.4450,15.08959789
22.4500,14.52294517
22.4550,13.9595797
22.4600,13.39886067
22.4650,12.84097535
22.4700,12.28597354
22.4750,11.73391819
22.4800,11.18453108
22.4850,10.63811692
22.4900,10.09457935
22.4950,9.553803804
22.5000,9.016168772
22.5050,8.481822735
22.5100,7.950495137
22.5150,7.422319738
22.5200,6.897466141
22.5250,6.376480706
22.5300,5.859129239
22.5350,5.345776566
22.5400,4.836492966
22.5450,4.331914438
22.5500,3.831783539
22.5550,3.336476386
22.5600,2.846001065
22.5650,2.360347628
22.5700,1.879735086
22.5750,1.404452112
22.5800,0.9345221897
22.5850,0.4695962493
22.5900,0.00955402982
22.5950,-0.4454803496
22.6000,-0.8952996281
22.6050,-1.340449157
22.6100,-1.780638333
22.6150,-2.216075388
22.6200,-2.646591934
22.6250,-3.072327659
22.6300,-3.493615643
22.6350,-3.910123504
22.6400,-4.322513532
22.6450,-4.730718312
22.6500,-5.135425549
22.6550,-5.536281181
22.6600,-5.933378791
22.6650,-6.326506176
22.6700,-6.71510189
22.6750,-7.098960878
22.6800,-7.477803957
22.6850,-7.851863729
22.6900,-8.221012195
22.6950,-8.585551902
22.7000,-8.945679379
22.7050,-9.300839635
22.7100,-9.65093485
22.7150,-9.996049344
22.7200,-10.33557345
22.7250,-10.66932204
22.7300,-10.99694384
22.7350,-11.31855776
22.7400,-11.63404762
22.7450,-11.94376949
22.7500,-12.24797088
22.7550,-12.54684045
22.7600,-12.84049517
22.7650,-13.12897682
22.7700,-13.41251147
22.7750,-13.69092464
22.7800,-13.9640922
22.7850,-14.23235281
22.7900,-14.49582748
22.7950,-14.75468313
22.8000,-15.00955448
22.8050,-15.26001295
22.8100,-15.50587605
22.8150,-15.7471486
22.8200,-15.98437759
22.8250,-16.21776546
22.8300,-16.447044
22.8350,-16.67251958
22.8400,-16.89440397
22.8450,-17.11307763
22.8500,-17.32821312
22.8550,-17.53988259
22.8600,-17.74768395
22.8650,-17.95123221
22.8700,-18.15048272
22.8750,-18.34528492
22.8800,-18.53505308
22.8850,-18.71982017
22.8900,-18.89989139
22.8950,-19.07529931
22.9000,-19.24638824
22.9050,-19.41282792
22.9100,-19.57472479
22.9150,-19.73152903
22.9200,-19.88340792
22.9250,-20.03047621
22.9300,-20.17252339
22.9350,-20.30937973
22.9400,-20.44046386
22.9450,-20.56576008
22.9500,-20.68528223
22.9550,-20.79936853
22.9600,-20.90777083
22.9650,-21.01078402
22.9700,-21.10872061
22.9750,-21.20173767
22.9800,-21.29022289
22.9850,-21.37380168
22.9900,-21.45271182
22.9950,-21.52665905
23.0000,-21.59596618
23.0050,-21.66096572
23.0100,-21.72191101
23.0150,-21.77888519
23.0200,-21.83230932
23.0250,-21.8828504
23.0300,-21.93071074
23.0350,-21.97650353
23.0400,-22.02043929
23.0450,-22.06252
23.0500,-22.10296175
23.0550,-22.14198
23.0600,-22.17953237
23.0650,-22.21586673
23.0700,-22.25114455
23.0750,-22.2858396
23.0800,-22.32010069
23.0850,-22.35380478
23.0900,-22.38693775
23.0950,-22.4195994
23.1000,-22.45154605
23.1050,-22.48297337
23.1100,-22.51414697
23.1150,-22.54468615
23.1200,-22.57430391
23.1250,-22.60296429
23.1300,-22.6305488
23.1350,-22.65682973
23.1400,-22.68183456
23.1450,-22.70524513
23.1500,-22.72711999
23.1550,-22.74713286
23.1600,-22.7652074
23.1650,-22.78140293
23.1700,-22.79534557
23.1750,-22.80659176
23.1800,-22.81519008
23.1850,-22.82063647
23.1900,-22.82257082
23.1950,-22.82079747
23.2000,-22.81501719
23.2050,-22.80508746
23.2100,-22.79079732
23.2150,-22.77231636
23.2200,-22.74942935
23.2250,-22.72198358
23.2300,-22.68977733
23.2350,-22.65288415
23.2400,-22.61114475
23.2450,-22.5645913
23.2500,-22.51281909
23.2550,-22.45567437
23.2600,-22.39346295
23.2650,-22.32620924
23.2700,-22.25421584
23.2750,-22.17739353
23.2800,-22.09606669
23.2850,-22.01043582
23.2900,-21.92089273
23.2950,-21.82797914
23.3000,-21.73167834
23.3050,-21.63253398
23.3100,-21.53101671
23.3150,-21.4274489
23.3200,-21.32234719
23.3250,-21.21590136
23.3300,-21.10864553
23.3350,-21.00076467
23.3400,-20.89265376
23.3450,-20.78466993
23.3500,-20.67696003
23.3550,-20.56964894
23.3600,-20.46282867
23.3650,-20.35659752
23.3700,-20.25111749
23.3750,-20.14630182
23.3800,-20.04223587
23.3850,-19.93874622
23.3900,-19.83610988
23.3950,-19.73418831
23.4000,-19.63314159
23.4050,-19.53287867
23.4100,-19.43336757
23.4150,-19.33495856
23.4200,-19.23766294
23.4250,-19.14144553
23.4300,-19.04645722
23.4350,-18.95291717
23.4400,-18.86099126
23.4450,-18.77085954
23.4500,-18.68256801
23.4550,-18.59606843
23.4600,-18.5111773
23.4650,-18.42754236
23.4700,-18.34502469
23.4750,-18.2638859
23.4800,-18.1842411
23.4850,-18.10602963
23.4900,-18.0291284
23.4950,-17.95373824
23.5000,-17.87960452
23.5050,-17.8067836
23.5100,-17.73519558
23.5150,-17.6643797
23.5200,-17.59451361
23.5250,-17.52534098
23.5300,-17.45684653
23.5350,-17.38926259
23.5400,-17.32256221
23.5450,-17.25665297
23.5500,-17.1914961
23.5550,-17.12714246
23.5600,-17.06331816
23.5650,-17.00014558
23.5700,-16.93737766
23.5750,-16.8749891
23.5800,-16.81283541
23.5850,-16.75099405
23.5900,-16.68941308
23.5950,-16.62785285
23.6000,-16.5666691
23.6050,-16.50567806
23.6100,-16.44477014
23.6150,-16.38392106
23.6200,-16.32323848
23.6250,-16.2630131
23.6300,-16.20337719
23.6350,-16.14447907
23.6400,-16.08622353
23.6450,-16.02853129
23.6500,-15.97148209
23.6550,-15.91509855
23.6600,-15.85954328
23.6650,-15.80499848
23.6700,-15.75148848
23.6750,-15.69914526
23.6800,-15.6482249
23.6850,-15.59891191
23.6900,-15.55115748
23.6950,-15.50502614
23.7000,-15.46024896
23.7050,-15.41666543
23.7100,-15.3739924
23.7150,-15.33209108
23.7200,-15.29095035
23.7250,-15.25051353
23.7300,-15.21110039
23.7350,-15.17288195
23.7400,-15.13594163
23.7450,-15.10037171
23.7500,-15.06648078
23.7550,-15.0344368
23.7600,-15.00460119
23.7650,-14.97699131
23.7700,-14.95178402
23.7750,-14.92889457
23.7800,-14.90798774
23.7850,-14.88918676
23.7900,-14.87264063
23.7950,-14.85810766
23.8000,-14.8458591
23.8050,-14.83590691
23.8100,-14.82842322
23.8150,-14.82357935
23.8200,-14.82119232
23.8250,-14.82140244
23.8300,-14.82415161
23.8350,-14.82869145
23.8400,-14.83481641
23.8450,-14.84195649
23.8500,-14.85002289
23.8550,-14.85873675
23.8600,-14.86833845
23.8650,-14.878784
23.8700,-14.88997798
23.8750,-14.90235392
23.8800,-14.91613594
23.8850,-14.93142161
23.8900,-14.94813639
23.8950,-14.96625289
23.9000,-14.98546212
23.9050,-15.00566991
23.9100,-15.02645167
23.9150,-15.04762505
23.9200,-15.06861063
23.9250,-15.08904557
23.9300,-15.10848382
23.9350,-15.12678182
23.9400,-15.14392479
23.9450,-15.15970297
23.9500,-15.17391659
23.9550,-15.1864283
23.9600,-15.19656778
23.9650,-15.20426517
23.9700,-15.20919716
23.9750,-15.21120309
23.9800,-15.20993971
23.9850,-15.20546583
23.9900,-15.19766698
23.9950,-15.18653538
24.0000,-15.17222752
24.0050,-15.1550068
24.0100,-15.1354538
24.0150,-15.11382051
24.0200,-15.09050887
24.0250,-15.06604807
24.0300,-15.04029568
24.0350,-15.01336527
24.0400,-14.98551788
24.0450,-14.95694934
24.0500,-14.92759273
24.0550,-14.89757796
24.0600,-14.86689019
24.0650,-14.83597573
24.0700,-14.80525703
24.0750,-14.77486774
24.0800,-14.74546068
24.0850,-14.71712145
24.0900,-14.68985212
24.0950,-14.66375605
24.1000,-14.63872322
24.1050,-14.61481862
24.1100,-14.59191738
24.1150,-14.57015109
24.1200,-14.54951599
24.1250,-14.52985866
24.1300,-14.51124207
24.1350,-14.49377202
24.1400,-14.47762694
24.1450,-14.46327878
24.1500,-14.45057558
24.1550,-14.43974758
24.1600,-14.43076072
24.1650,-14.42345553
24.1700,-14.41790462
24.1750,-14.41378208
24.1800,-14.41052282
24.1850,-14.40800856
24.1900,-14.40583334
24.1950,-14.40374591
24.2000,-14.40134275
24.2050,-14.39845238
24.2100,-14.39520803
24.2150,-14.3914523
24.2200,-14.38727494
24.2250,-14.38251858
24.2300,-14.37716638
24.2350,-14.37113969
24.2400,-14.36417491
24.2450,-14.35638801
24.2500,-14.34747793
24.2550,-14.33724901
24.2600,-14.32602318
24.2650,-14.31357347
24.2700,-14.29991206
24.2750,-14.28499081
24.2800,-14.26878941
24.2850,-14.25132147
24.2900,-14.23265422
24.2950,-14.21305425
24.3000,-14.19270178
24.3050,-14.17189595
24.3100,-14.15060266
24.3150,-14.12921141
24.3200,-14.10774001
24.3250,-14.08609249
24.3300,-14.06455624
24.3350,-14.04306884
24.3400,-14.02160449
24.3450,-14.00017438
24.3500,-13.97884643
24.3550,-13.95785436
24.3600,-13.93765007
24.3650,-13.91837924
24.3700,-13.90001341
24.3750,-13.882758
24.3800,-13.86679246
24.3850,-13.85226298
24.3900,-13.83955615
24.3950,-13.82895403
24.4000,-13.82054151
24.4050,-13.81419796
24.4100,-13.80965257
24.4150,-13.80681834
24.4200,-13.80563879
24.4250,-13.80601244
24.4300,-13.80834844
24.4350,-13.81305566
24.4400,-13.82061913
24.4450,-13.83128282
24.4500,-13.84545604
24.4550,-13.86304544
24.4600,-13.88378098
24.4650,-13.90748957
24.4700,-13.93373415
24.4750,-13.96244462
24.4800,-13.99371514
24.4850,-14.02746994
24.4900,-14.06378431
24.4950,-14.10295356
24.5000,-14.14536041
24.5050,-14.19113435
24.5100,-14.24002059
24.5150,-14.29191931
24.5200,-14.34642338
24.5250,-14.40304704
24.5300,-14.46142046
24.5350,-14.52092059
24.5400,-14.58134829
24.5450,-14.64221601
24.5500,-14.70324971
24.5550,-14.76414887
24.5600,-14.82442142
24.5650,-14.88354398
24.5700,-14.94119379
24.5750,-14.99684028
24.5800,-15.04989706
24.5850,-15.09974357
24.5900,-15.14596438
24.5950,-15.18780903
24.6000,-15.22484319
24.6050,-15.25643674
24.6100,-15.28203371
24.6150,-15.30122686
24.6200,-15.31363216
24.6250,-15.31921234
24.6300,-15.31774645
24.6350,-15.30944763
24.6400,-15.29432283
24.6450,-15.27261839
24.6500,-15.24459579
24.6550,-15.21037915
24.6600,-15.17004425
24.6650,-15.12375897
24.6700,-15.07170936
24.6750,-15.0143991
24.6800,-14.95174191
24.6850,-14.88413951
24.6900,-14.81185647
24.6950,-14.73524457
24.7000,-14.65477305
24.7050,-14.57108551
24.7100,-14.48505181
24.7150,-14.39712103
24.7200,-14.30777981
24.7250,-14.21773496
24.7300,-14.12705828
24.7350,-14.03609612
24.7400,-13.94460996
24.7450,-13.85251251
24.7500,-13.75958184
24.7550,-13.66602027
24.7600,-13.57229681
24.7650,-13.47876375
24.7700,-13.38599511
24.7750,-13.29416131
24.7800,-13.20348543
24.7850,-13.11416612
24.7900,-13.02638055
24.7950,-12.94019679
24.8000,-12.85553526
24.8050,-12.77224718
24.8100,-12.69053395
24.8150,-12.61022119
24.8200,-12.53152982
24.8250,-12.4548013
24.8300,-12.38007764
24.8350,-12.30757807
24.8400,-12.2371364
24.8450,-12.16846831
24.8500,-12.10152429
24.8550,-12.03576329
24.8600,-11.97114572
24.8650,-11.90757631
24.8700,-11.84465141
24.8750,-11.78227545
24.8800,-11.72027266
24.8850,-11.65823101
24.8900,-11.59583533
24.8950,-11.53275484
24.9000,-11.46865296
24.9050,-11.40317112
24.9100,-11.33596465
24.9150,-11.26690636
24.9200,-11.19579661
24.9250,-11.12233034
24.9300,-11.04654133
24.9350,-10.96817874
24.9400,-10.88722338
24.9450,-10.80355416
24.9500,-10.71722658
24.9550,-10.62832865
24.9600,-10.53672757
24.9650,-10.44255543
24.9700,-10.34582444
24.9750,-10.24655069
24.9800,-10.14504429
24.9850,-10.04144984
24.9900,-9.935844096
24.9950,-9.828203895
25.0000,-9.718727504
25.0050,-9.607280854
25.0100,-9.494001971
25.0150,-9.378918972
25.0200,-9.262036993
25.0250,-9.143316001
25.0300,-9.022744782
25.0350,-8.900095094
25.0400,-8.775589617
25.0450,-8.649332897
25.0500,-8.521334449
25.0550,-8.391515178
25.0600,-8.259934836
25.0650,-8.126560975
25.0700,-7.991581964
25.0750,-7.854749585
25.0800,-7.716212289
25.0850,-7.575840976
25.0900,-7.433404095
25.0950,-7.288663849
25.1000,-7.141346008
25.1050,-6.991352773
25.1100,-6.838388516
25.1150,-6.6820339
25.1200,-6.52200446
25.1250,-6.357421778
25.1300,-6.187483642
25.1350,-6.010861913
25.1400,-5.826471731
25.1450,-5.633390972
25.1500,-5.430236931
25.1550,-5.216218139
25.1600,-4.989422338
25.1650,-4.748131067
25.1700,-4.490563783
25.1750,-4.214396083
25.1800,-3.917953759
25.1850,-3.599491148
25.1900,-3.256867383
25.1950,-3.133511164
25.2000,-2.994335627
25.2050,-2.839342914
25.2100,-2.668801758
25.2150,-2.48322208
25.2200,-2.283338865
25.2250,-2.070102417
25.2300,-1.844671987
25.2350,-1.60841162
25.2400,-1.362887003
25.2450,-1.109861885
25.2500,-0.851294267
25.2550,-0.5893328368
25.2600,-0.3263125498
25.2650,-0.06474643692
25.2700,0.1926900505
25.2750,0.4431858981
25.2800,0.6838377151
25.2850,0.9117143616
25.2900,1.123944514
25.2950,1.317824274
25.3000,1.490939939
25.3050,1.641302287
25.3100,1.767491906
25.3150,1.868816479
25.3200,1.945478852
25.3250,1.998752489
25.3300,2.031159265
25.3350,2.046645264
