type,name,time_units,begin_time,frequency,count,units
signal_3d,"Noraxon MyoMotion-Segments-Forearm RT-Acceleration","s",0.0000,200,5068,"mG"

time,x,y,z
0.0000,25.75993571,-22.84455059,21.66604891
0.0050,24.76210368,-27.71303794,14.75980267
0.0100,26.67060488,-33.4856543,13.7701234
0.0150,30.20367334,-28.85898566,13.20742016
0.0200,35.04234831,-34.41042022,22.95518038
0.0250,28.27005211,-28.12748419,20.65540569
0.0300,34.08060754,-20.25224532,26.55510269
0.0350,21.75915805,-34.43454348,23.25528872
0.0400,35.57636206,-11.25406155,34.21220895
0.0450,20.61217588,-9.029597369,30.1990383
0.0500,24.19823909,-10.30635544,32.43943975
0.0550,18.45186519,6.422974739,35.1767398
0.0600,17.42175673,0.5854161955,40.64265027
0.0650,10.33321135,5.719148428,34.62084036
0.0700,8.933645251,6.236282076,33.39511187
0.0750,-5.568791825,18.01008651,13.66416627
0.0800,7.311961383,20.86126207,19.00031915
0.0850,-5.132174395,27.4135783,5.947485515
0.0900,-12.53523725,33.52378241,0.617813543
0.0950,-11.179151,26.82753799,3.042255978
0.1000,-23.37823611,35.56977306,1.421153038
0.1050,-27.66953792,40.20922466,-3.640536845
0.1100,-32.75209008,42.25073786,-10.17846084
0.1150,-44.27036163,43.51383954,-20.08266583
0.1200,-40.26335873,41.5319802,-24.14739222
0.1250,-40.76171527,41.0450271,-33.86685172
0.1300,-48.36682404,49.6233167,-42.77137847
0.1350,-38.93039376,38.18689331,-44.0324841
0.1400,-32.52041305,40.52386629,-48.48461279
0.1450,-31.11789113,36.03972899,-57.28421119
0.1500,-25.54823251,40.27539452,-58.21650738
0.1550,-19.27638402,31.27210149,-64.01620906
0.1600,-13.46003097,28.77615615,-59.83084862
0.1650,-8.115593177,17.69299045,-53.84980321
0.1700,-5.134544418,19.00798141,-52.51995732
0.1750,3.626117023,21.41212833,-46.07239431
0.1800,2.831540421,10.85387837,-43.7435556
0.1850,12.1882406,8.185132533,-35.92976436
0.1900,17.70942405,3.644272805,-26.52087557
0.1950,15.17790411,-2.885471955,-28.60107285
0.2000,11.32265375,-13.01165716,-33.82438252
0.2050,23.90254692,0.1307587697,-31.53594893
0.2100,19.81562332,-33.68278728,-32.68187674
0.2150,27.10554649,-32.2828199,-35.26644347
0.2200,38.54780586,-48.0719398,-26.89137647
0.2250,41.22570673,-71.65961864,-20.64676601
0.2300,43.88760616,-68.37237063,-23.78634087
0.2350,35.09155101,-94.16989731,-19.63750766
0.2400,41.12923984,-85.23046805,-16.43593238
0.2450,36.27676202,-83.21282017,-19.43661917
0.2500,32.0178459,-78.36530164,-15.87770895
0.2550,25.28572031,-81.72963735,-23.27119772
0.2600,26.72675346,-79.55871305,-16.41335854
0.2650,19.40018351,-80.27151945,-22.67737914
0.2700,25.34657003,-64.7532295,-25.11255237
0.2750,31.43348788,-58.86104692,-17.5584584
0.2800,26.38619184,-62.81281654,-18.22820328
0.2850,22.14154491,-44.35306992,-21.81363798
0.2900,32.89009888,-48.37550863,-11.90207657
0.2950,32.55764915,-39.67575024,-16.51555841
0.3000,29.80529302,-42.47508881,-16.19980849
0.3050,30.66720937,-23.83053957,-11.84053496
0.3100,26.57683285,-30.38217515,-15.11665249
0.3150,22.24250558,-30.84806335,-21.64049082
0.3200,22.33301939,-14.39386738,-16.62519582
0.3250,15.34018426,-19.71032489,-20.26960148
0.3300,-0.7662402272,-19.40716643,-21.02643795
0.3350,-6.529437632,-15.75192752,-13.84792847
0.3400,-14.98520428,3.877230692,-5.452106937
0.3450,-21.94471148,14.72688749,5.39367938
0.3500,-21.78921505,28.99711332,14.01109413
0.3550,-31.39698036,34.04544242,9.918590245
0.3600,-41.41557799,51.55910418,12.5476671
0.3650,-30.67392168,58.4524148,17.16555721
0.3700,-39.16443783,56.48173358,14.39932504
0.3750,-35.05976322,71.19129248,12.47632081
0.3800,-41.62497663,60.00725161,19.58405716
0.3850,-39.44663618,56.89055746,21.20430934
0.3900,-41.53920814,57.69120094,19.61401924
0.3950,-33.74501549,52.08897887,19.91733443
0.4000,-34.64418877,35.61919093,23.58035044
0.4050,-26.02105729,33.96406182,27.07168808
0.4100,-26.32113825,37.14243129,25.71410467
0.4150,-13.61530834,22.16903281,29.34251905
0.4200,-10.12319279,22.85991735,27.93389604
0.4250,-17.99311931,7.395764767,15.60735447
0.4300,-3.292168604,7.046771559,16.01792749
0.4350,-5.885938644,3.666037927,8.040447702
0.4400,-2.668956033,-14.50811005,5.244128274
0.4450,14.60077023,-16.59517406,0.906025684
0.4500,21.8989255,-26.15240528,-5.637577101
0.4550,33.23809328,-28.5468651,-7.218159749
0.4600,23.81187791,-41.30696651,-14.7000725
0.4650,29.57318093,-41.08990114,-12.44622921
0.4700,34.24070175,-33.55106748,-13.0554227
0.4750,37.59349779,-38.46197813,-9.013315048
0.4800,24.40542665,-33.21851339,-17.75038772
0.4850,25.12117959,-49.88922325,-15.80730651
0.4900,23.3713293,-28.54311879,-13.68180366
0.4950,23.76437443,-23.62158324,-7.70714169
0.5000,14.67820183,-28.12569328,-7.951471011
0.5050,14.67482324,-21.92363534,-9.186528532
0.5100,14.87721748,-20.22955524,-8.883811344
0.5150,8.878839751,-33.09435173,-15.27040675
0.5200,7.358445391,-25.78351617,-15.10554355
0.5250,3.183814842,-21.75874136,-14.73328298
0.5300,0.2877188569,-13.99161409,-7.232528695
0.5350,-7.362708045,-18.50392886,-8.62725513
0.5400,-9.308994501,5.269952226,-10.03724501
0.5450,1.249779666,-5.591603311,-6.682994156
0.5500,-0.02540014049,6.875326608,-9.530212329
0.5550,-5.921901705,-6.533465752,-11.99635764
0.5600,-7.75909409,6.393783823,-6.109300063
0.5650,-1.884510806,-0.0315288915,5.310750462
0.5700,-10.10175954,9.5869194,4.34841949
0.5750,-8.682595075,11.44264635,7.526874661
0.5800,-19.91018015,12.06343517,3.614085579
0.5850,-7.834582846,23.65970713,12.82063057
0.5900,-15.84461925,15.92874594,6.264236563
0.5950,-9.585779722,22.82148065,11.78710235
0.6000,-15.19444112,14.9850892,9.888374179
0.6050,-20.32291071,14.48214876,7.401018133
0.6100,-14.27353971,21.40866337,9.43880369
0.6150,-18.60197141,9.204277293,0.5021378215
0.6200,-19.80914867,4.176333295,2.115751948
0.6250,-16.42845907,4.226958679,0.1612820518
0.6300,-16.15149664,-2.288035211,5.320565302
0.6350,-14.80539502,-8.04534132,1.466405826
0.6400,-6.153712994,-9.970895418,1.94850593
0.6450,11.74039764,-7.682530661,-4.980172014
0.6500,20.15909533,-13.87539214,-14.34869513
0.6550,42.19513795,-6.900070611,-17.41437006
0.6600,58.58621753,-15.79783498,-12.35887075
0.6650,66.34201942,-24.75696327,-18.69303832
0.6700,72.64195545,-25.56195728,-18.66052927
0.6750,76.14620894,-28.03817224,-14.05241004
0.6800,59.01749187,-39.04221942,-21.82169647
0.6850,52.70189255,-33.28644002,-21.15304673
0.6900,18.50740298,-27.86512001,-23.59612855
0.6950,18.59402127,-30.46844574,-15.93916453
0.7000,1.185036044,-27.18908273,-14.07376321
0.7050,-10.4004739,-23.48931962,-12.93898775
0.7100,-26.45986476,-27.93487588,-11.28033383
0.7150,-32.83111602,-26.51261357,-11.82806689
0.7200,-30.01862315,-32.67237187,-4.670429663
0.7250,-32.16537682,-22.09458045,-2.417746571
0.7300,-25.67849706,-19.15887303,5.547486372
0.7350,-27.73096984,-22.06824961,9.063168721
0.7400,-30.11995379,-10.55477587,10.08864875
0.7450,-27.95945889,-9.316624665,12.85211041
0.7500,-23.515865,-8.011617971,13.7336552
0.7550,-21.79044537,-7.66737343,13.83049149
0.7600,-6.573067724,-4.273905191,16.89047629
0.7650,-9.560858415,-3.05989402,9.329587257
0.7700,-6.952880666,-1.374425002,12.01319747
0.7750,-17.77489008,2.663117593,10.83914048
0.7800,-28.39168392,-1.32576341,14.99351835
0.7850,-30.96386204,7.496661547,21.0096313
0.7900,-50.71954953,22.91925748,15.10325386
0.7950,-49.7614999,3.502816706,18.2324988
0.8000,-54.77316251,-0.746399409,15.85330858
0.8050,-47.11921828,-8.274667182,19.76537068
0.8100,-43.62397488,-10.39022861,21.49875503
0.8150,-36.09063431,-3.578369608,17.78160243
0.8200,-27.58610223,3.040542783,18.35258876
0.8250,-9.143124048,-0.02884920732,27.82557878
0.8300,2.911786069,21.48135149,28.29376314
0.8350,-0.03399810625,19.65944016,26.56170612
0.8400,0.3957460901,24.72607241,22.08125225
0.8450,-3.207729219,21.92859021,21.7663998
0.8500,1.201515143,25.29895027,12.66734726
0.8550,1.67739947,18.70120934,6.800215936
0.8600,9.470198649,16.3827597,10.58685799
0.8650,6.187565375,4.852677451,10.41692659
0.8700,11.65555723,6.03227986,18.88369418
0.8750,17.2045837,-4.202709827,29.54207655
0.8800,-4.534888869,10.84089095,14.4977838
0.8850,3.154418908,14.30802875,19.95578957
0.8900,0.6077249623,13.65125173,14.84389735
0.8950,4.877974469,14.22585223,11.71973697
0.9000,5.675517166,7.758688938,7.793859219
0.9050,-1.953705439,-1.661765082,3.898342481
0.9100,8.174467839,9.466590851,15.5364776
0.9150,-2.727198045,16.35350109,15.09116505
0.9200,-15.95778217,33.25427963,6.00462322
0.9250,-10.93687981,34.99341419,15.22211246
0.9300,-12.93564721,46.34587962,13.05098993
0.9350,-10.63590433,51.0888922,8.161508899
0.9400,-2.077649125,49.72328508,9.408308518
0.9450,14.69122118,35.99596493,10.07501942
0.9500,27.01687102,15.17527559,4.53963169
0.9550,34.20812668,9.269876156,-0.9946496595
0.9600,25.69758356,3.722361194,-0.8541287157
0.9650,15.89024971,8.999604137,6.4056074
0.9700,0.2381030365,14.50340174,10.27579441
0.9750,-9.507111593,28.3992414,11.14748818
0.9800,-28.25453326,32.97842719,12.97590371
0.9850,-44.50829353,23.48853793,9.854645976
0.9900,-46.58136384,39.18488311,-0.5599712998
0.9950,-39.14795894,18.93970652,-3.035453468
1.0000,-26.81634062,2.229740198,1.346748832
1.0050,-31.06358492,-4.030609473,-3.984930779
1.0100,-26.08458474,-1.643195238,-6.390865013
1.0150,-34.30286085,-8.336286573,-4.374159365
1.0200,-40.19620482,-1.932632029,4.449773012
1.0250,-34.33141654,7.254803602,4.274607289
1.0300,-32.51202694,4.691801639,4.556308287
1.0350,-40.30641353,14.68706786,2.321784634
1.0400,-17.95826575,13.49509956,3.665581476
1.0450,-5.332116745,3.120357032,7.730277961
1.0500,3.531551405,-5.597425252,7.322949738
1.0550,15.45886839,5.584589975,-2.378807717
1.0600,25.02044924,-13.00207666,-9.569873679
1.0650,27.79919953,-14.69053731,-17.93160033
1.0700,47.02065533,-12.05883665,-5.515800441
1.0750,34.10741208,-15.07274803,-6.157064108
1.0800,29.55580023,-14.40994884,-11.8864116
1.0850,38.16573204,-23.41715221,-7.692902488
1.0900,32.2365888,-32.31057261,-13.51337175
1.0950,29.00347134,-49.21631956,-20.04786155
1.1000,25.34039281,-44.27387112,-12.70314678
1.1050,17.26569487,-50.04255219,-6.004833377
1.1100,22.18282106,-42.62754886,3.080341395
1.1150,6.912104778,-46.088706,10.07018796
1.1200,2.182458032,-33.13593797,15.52824487
1.1250,7.649214128,-19.79456657,18.71807735
1.1300,-0.4594902057,1.007152507,11.42235143
1.1350,-7.613211739,-5.152372937,5.385980172
1.1400,-4.78919468,-0.3454577735,8.510649087
1.1450,-2.384863061,-2.224387033,7.797169131
1.1500,-15.27038734,-11.74181625,10.28171626
1.1550,-10.39292202,-7.868410838,15.31816796
1.1600,-7.814414392,-16.16419009,19.37514033
1.1650,-7.148704523,-30.48856773,17.9894525
1.1700,-8.90981939,-25.49825807,10.62778429
1.1750,-11.69248657,-15.58221421,2.050940574
1.1800,-26.52137283,-25.30631837,-4.421265691
1.1850,-21.10410944,-25.42690068,0.831400789
1.1900,-10.21862311,-23.2906683,11.82146855
1.1950,-12.95648398,-20.7650646,-0.2833568747
1.2000,3.919251297,-24.84293197,10.76093654
1.2050,-9.752975405,-31.10626661,18.58928651
1.2100,-20.93312647,-17.60036137,24.09525609
1.2150,-28.77218578,-9.280464726,33.22118733
1.2200,-44.10503526,21.34815741,36.71981302
1.2250,-55.93801578,21.46021801,45.49363688
1.2300,-54.07028299,43.19733711,44.1456917
1.2350,-41.68392812,34.7299652,39.84168438
1.2400,-39.02610536,21.09029869,37.81400443
1.2450,-32.28310302,13.93204913,32.89924048
1.2500,-23.39400551,6.103217041,25.49133489
1.2550,-21.41791011,-11.91019257,18.43412999
1.2600,-17.53946366,-21.48175265,24.89375601
1.2650,-20.07180716,-12.23649168,27.91775979
1.2700,-19.52504156,-12.37886769,23.03140718
1.2750,-19.51293983,-5.638799491,18.92558687
1.2800,-25.57451429,-5.345983031,15.98912915
1.2850,-32.63502998,8.988512909,20.03273799
1.2900,-33.48265702,21.89399805,18.982989
1.2950,-39.57121429,12.2285664,11.80476254
1.3000,-30.1621204,4.345894517,13.18794712
1.3050,-44.22734435,-5.768341778,23.28957665
1.3100,-59.71774802,4.399446115,36.04146309
1.3150,-58.74295085,7.557379543,45.27331201
1.3200,-45.27202091,15.97663848,49.91266376
1.3250,-33.8852578,10.51008415,52.85822091
1.3300,-39.77654632,10.55141708,50.01371021
1.3350,-46.00339568,6.469034727,36.64834991
1.3400,-52.11484631,0.4878898283,32.63870733
1.3450,-58.50637076,0.2914180291,28.64851223
1.3500,-41.41557383,2.885967234,37.2969219
1.3550,-53.55502321,11.08685117,27.2166347
1.3600,-51.40886265,18.67599038,21.82906076
1.3650,-32.64286571,19.50826862,29.28708783
1.3700,-37.54899798,12.09368544,33.5333877
1.3750,-25.62384575,7.172361854,34.18975405
1.3800,-21.24552928,3.635139033,25.28789268
1.3850,-9.759293927,20.04583885,12.99533473
1.3900,-2.221439458,23.72764289,16.20876314
1.3950,-4.774092984,24.0314912,22.18471352
1.4000,-19.57192174,26.21407841,23.16957375
1.4050,-31.1985986,32.17642241,30.56601847
1.4100,-53.01958127,33.31066371,26.84101428
1.4150,-59.08844687,36.75939945,39.77061672
1.4200,-52.98288884,24.84734605,46.74338837
1.4250,-37.41255481,30.07196644,55.28866393
1.4300,-49.68214728,11.51504501,48.97439281
1.4350,-43.67366165,12.50515131,43.74053992
1.4400,-51.75376835,7.625257504,41.54280777
1.4450,-48.0671109,17.12878596,36.13898999
1.4500,-26.59528278,-1.010967878,37.80650976
1.4550,-24.55174534,-2.224070406,28.11846235
1.4600,-28.61438568,2.352526874,23.70019258
1.4650,-21.1023591,6.64997044,22.89919555
1.4700,-20.30451371,6.339385854,25.86382783
1.4750,-13.43411774,17.15544713,32.74088599
1.4800,-46.03177867,-1.126001556,39.08226373
1.4850,-47.06895081,12.94011377,46.35815242
1.4900,-43.03750989,5.931944508,49.3886129
1.4950,-38.30663525,18.84942025,52.90897842
1.5000,-32.2869985,11.89916887,59.46497512
1.5050,-30.36578571,10.13783012,51.09652531
1.5100,-36.33128549,16.91929072,46.53025463
1.5150,-41.43955425,23.77946674,43.33188751
1.5200,-28.32773076,29.43199044,39.49584585
1.5250,-28.62417282,28.13803588,43.94663586
1.5300,-19.80040326,15.38232685,49.24882617
1.5350,-14.35753545,11.29404143,53.64819048
1.5400,-19.08927996,4.420839075,51.31405171
1.5450,-35.60219584,-3.90239308,42.31816577
1.5500,-39.48045477,3.902590897,45.95934912
1.5550,-39.76990773,14.42962527,46.22149035
1.5600,-31.29175047,9.865028461,40.20431578
1.5650,-20.54374625,11.06212363,35.68004711
1.5700,-12.57006434,13.75521114,38.24539592
1.5750,-19.96503631,-4.247472962,51.57344066
1.5800,-30.56141207,15.28197821,60.03700069
1.5850,-25.22645933,18.42289881,58.25555814
1.5900,-23.2552703,31.02474918,56.25296642
1.5950,-9.219569588,23.9746943,46.35079257
1.6000,-3.237027502,4.668669662,52.03361099
1.6050,-0.7806154266,0.5925483124,51.19661215
1.6100,-16.19970916,8.268325001,53.9010448
1.6150,-21.23861995,23.46847307,58.04856613
1.6200,-14.29977001,31.3102732,46.31044554
1.6250,11.55856452,19.90664928,38.36512779
1.6300,30.74724755,5.37314577,47.56388314
1.6350,27.73423129,15.24560502,53.36298733
1.6400,13.15697156,6.508073622,48.46017775
1.6450,5.506573369,8.2753515,38.70260409
1.6500,11.67535637,4.37073216,34.2915081
1.6550,3.448036574,0.1019296389,42.00844326
1.6600,-6.166746875,-21.54960649,59.50389986
1.6650,-18.08903891,-13.8099053,69.01345129
1.6700,-22.42728242,-8.966303577,57.21135119
1.6750,-1.205441658,6.412157195,40.51983429
1.6800,23.20134058,10.0414433,38.79357583
1.6850,21.70099281,-8.989221109,38.42531766
1.6900,22.53501007,2.106874118,47.10743187
1.6950,14.63624759,-0.2973678718,46.4129355
1.7000,9.344267068,18.40543941,52.8170251
1.7050,26.67282085,5.385799129,39.773952
1.7100,37.3043298,1.53634668,31.41254553
1.7150,46.10513717,-6.215805383,19.20780408
1.7200,45.26858115,-14.02144069,14.43755261
1.7250,16.04746065,-16.07742671,10.35865115
1.7300,16.30811441,-11.1406675,17.64184462
1.7350,15.45619379,-8.692031217,24.27756747
1.7400,15.66083159,-11.05157358,37.37244996
1.7450,8.423274549,1.753466774,44.90710229
1.7500,1.39597381,-12.26287933,43.43967672
1.7550,0.1539354183,-13.00560116,39.64096285
1.7600,16.29856429,0.7912663069,39.85498775
1.7650,26.30958981,0.08532877242,38.61653734
1.7700,37.07674693,-3.260324464,34.49220117
1.7750,36.30397225,-8.810952314,35.36908903
1.7800,29.78663625,-7.296566536,27.33346053
1.7850,41.11773421,-11.4688093,11.29437621
1.7900,61.69290584,-12.00435425,2.32676175
1.7950,62.15642076,-17.64040254,1.39228218
1.8000,60.73147979,-18.99875972,18.1266082
1.8050,30.27545406,-28.17159324,37.63990333
1.8100,2.764375308,-17.27605304,51.92884525
1.8150,7.221658506,-10.13501736,57.07775662
1.8200,21.9445844,-25.77471685,55.4502477
1.8250,37.53969182,-19.83720321,51.69805046
1.8300,36.5297501,-33.74809013,40.22060385
1.8350,41.43796847,-52.37118281,20.78404535
1.8400,41.57234737,-41.21112879,18.47553485
1.8450,57.52414177,-39.85445769,28.91980045
1.8500,60.66961386,-42.33232777,37.15573029
1.8550,51.00552529,-43.0605821,33.30293577
1.8600,45.75022508,-25.6455614,24.97996813
1.8650,47.29053885,-37.92903816,2.5806392
1.8700,52.21333832,-28.24991022,-0.5208351561
1.8750,29.60222439,-31.34089682,8.426296425
1.8800,13.33519191,-24.66088753,24.0375807
1.8850,14.40960103,-8.902592662,21.50102644
1.8900,10.6004922,-15.11420053,13.38048037
1.8950,16.80134776,-12.02797932,5.093739506
1.9000,9.706099983,-12.19857428,8.41790604
1.9050,12.54109437,-24.28969584,6.158785421
1.9100,4.294757603,-11.72737404,14.43315127
1.9150,1.860582896,-15.24801263,20.36345522
1.9200,2.331480616,-15.99964277,16.05878595
1.9250,-2.97798078,-22.79628766,12.73864787
1.9300,1.295515647,-27.76343329,-1.867493553
1.9350,-2.957349018,-42.12974844,-3.297307553
1.9400,8.938219432,-16.67410181,-1.537457578
1.9450,11.84735823,-21.11837198,3.314211175
1.9500,-0.6069116739,-13.46368656,34.17313441
1.9550,5.823194527,0.4716183003,42.24360141
1.9600,19.38017378,-3.9311783,20.71616784
1.9650,23.62543017,28.51333832,11.80286311
1.9700,21.44905555,-5.979581615,-8.019970194
1.9750,6.366749718,0.6084895025,-5.249159298
1.9800,21.05290524,1.494944298,-8.737877672
1.9850,15.17373071,6.824653523,3.126495118
1.9900,13.69896978,7.637037073,7.072266717
1.9950,14.15679883,-0.1991838924,6.952108626
2.0000,2.869072199,8.005613879,16.08238625
2.0050,7.749374575,1.659375956,7.358841762
2.0100,12.34209072,-11.44265216,2.102419813
2.0150,8.048402545,-7.773454648,4.625572913
2.0200,-4.77200894,-5.139730394,25.36489537
2.0250,-11.06111966,-6.838066731,33.52852286
2.0300,-1.081135674,2.199202538,36.08930022
2.0350,5.113413454,9.756938713,30.98143841
2.0400,-0.03252077012,-7.252226385,24.98799259
2.0450,2.227411039,11.85627793,33.66864011
2.0500,1.601413486,18.7689127,19.65561703
2.0550,5.379565745,18.38238656,-8.768579943
2.0600,31.4461851,26.10485243,-17.4797037
2.0650,27.26995123,11.07191419,4.967360902
2.0700,34.90362308,-2.438185924,15.59510418
2.0750,28.05067823,-1.516998798,22.88641607
2.0800,19.5669776,-2.635395967,16.13287452
2.0850,19.42093139,2.907431748,10.12251352
2.0900,25.56545591,-17.13810995,3.051834171
2.0950,31.1785192,-20.31270962,4.153224518
2.1000,28.01444897,-34.15948044,7.961062703
2.1050,30.40439709,-24.96024337,7.582593798
2.1100,28.15767348,-23.48797902,5.663639511
2.1150,27.25387329,-21.43137391,0.5582350386
2.1200,46.04672984,-7.505953423,-11.07115633
2.1250,53.38270645,-6.454211922,-23.60637271
2.1300,40.62720761,-8.34369241,-23.37719767
2.1350,29.38008701,-13.84214548,-16.10820808
2.1400,17.21981502,-9.692942031,18.57051421
2.1450,14.8719492,-8.556064892,38.89616314
2.1500,21.5742483,-9.486040979,29.72488271
2.1550,25.53736232,-7.448821314,1.012043854
2.1600,23.43957284,-13.60810108,-19.3518219
2.1650,19.96871011,-12.96216208,-22.54620669
2.1700,16.06146392,-20.42566164,-8.003662136
2.1750,15.58412734,-2.166863913,9.514329198
2.1800,17.86867244,-2.844427016,-12.76379163
2.1850,10.46802639,14.36977026,-39.53522851
2.1900,4.004503813,18.27716658,-61.97516668
2.1950,-10.21786033,13.74944972,-52.17085804
2.2000,-10.26753644,10.74300193,-25.31445593
2.2050,-21.03005456,16.66609552,-5.317759488
2.2100,-21.43807405,17.23190007,-2.029943183
2.2150,-32.41603786,8.639039399,9.846324408
2.2200,-18.64262106,-0.1321854258,19.68665653
2.2250,-0.1640103943,-7.015925512,42.83517619
2.2300,12.33678989,-23.90919967,66.87854958
2.2350,1.720847417,-38.57124343,70.64229989
2.2400,-3.693704787,-25.43799734,37.35080656
2.2450,6.125396081,-26.23513541,-5.690941545
2.2500,22.51519623,-35.81286621,-10.724918
2.2550,27.31109604,-28.46296979,-11.41995095
2.2600,26.2253186,-36.29658801,-33.45561649
2.2650,28.16443777,-5.585329036,-51.80846689
2.2700,30.21369142,-14.81206002,-50.46206977
2.2750,35.42373622,-13.24560225,-22.06079203
2.2800,38.98517445,-14.45238153,-3.001277183
2.2850,27.68271762,-9.61910039,-11.40425424
2.2900,-2.198969098,-15.53619093,-14.65843959
2.2950,-4.006735862,-6.492243177,-25.20412744
2.3000,16.19079607,-6.894272752,-36.09433232
2.3050,18.36243028,-11.53768988,4.303069996
2.3100,16.25434439,-11.04243037,43.06491774
2.3150,2.470426662,-20.74318713,33.76909446
2.3200,-3.102867998,-3.212110296,15.5877142
2.3250,13.04322265,-11.08222477,-6.948253955
2.3300,27.32932077,-29.78800859,-4.22720348
2.3350,33.76157014,-17.81374056,3.182850245
2.3400,25.8798199,-23.49481531,0.1313027044
2.3450,8.960550075,-22.25903118,-15.76765524
2.3500,3.669180013,-28.7206031,-42.20353004
2.3550,5.377245188,-49.74070227,-51.19647557
2.3600,23.73122041,-20.37519383,-30.04768518
2.3650,25.60814174,-14.29246749,-43.17670538
2.3700,20.69769781,-20.03721796,-43.40516232
2.3750,18.23745905,-36.47807147,-49.81650512
2.3800,1.79473433,-30.87737602,-53.29070221
2.3850,-19.4028852,-36.10453935,-72.3026929
2.3900,-31.71865538,-22.43961742,-80.57311739
2.3950,-26.0088214,-0.779550906,-92.52168732
2.4000,-11.24962081,-1.441102466,-80.66125601
2.4050,-3.425037165,-13.9801208,-24.55483274
2.4100,5.94122374,-15.95815129,10.75372415
2.4150,8.781047062,6.616950242,12.54391365
2.4200,-4.353079751,7.984733567,5.184930723
2.4250,-8.904269778,19.26313822,-7.495110731
2.4300,-2.375612879,9.191407878,-33.19289258
2.4350,3.432109582,0.760429171,-21.52748208
2.4400,32.59538509,3.3935025,-7.045120779
2.4450,53.13999827,-31.42908393,-0.6907232085
2.4500,59.13765609,-22.56700921,30.00709143
2.4550,31.73857996,-38.60260508,14.96275591
2.4600,28.78450742,-36.32580491,-8.882493943
2.4650,42.04985992,-45.61732762,-27.0917279
2.4700,69.01604346,-47.63009313,-39.47106026
2.4750,71.70441572,-35.88077248,-43.30113587
2.4800,49.41456903,-40.56443449,-52.99771417
2.4850,31.78095848,-19.14865339,-57.63910973
2.4900,26.54619048,-11.14867318,-58.91532208
2.4950,40.33835567,-11.41980919,-52.52938043
2.5000,63.06634841,-19.27006158,-34.01070069
2.5050,65.04662026,-12.08895806,-11.6820007
2.5100,45.11256291,5.795763545,-10.90703835
2.5150,27.07158868,-8.62689166,-28.78871376
2.5200,40.79274093,-19.90589073,-8.204679343
2.5250,49.82754179,-27.92053658,6.228451836
2.5300,47.55696171,-14.22090039,5.438044649
2.5350,34.30067857,-34.41307955,-8.364480871
2.5400,44.6962585,-43.52934569,-6.355163778
2.5450,43.02627288,-53.35627313,4.291923105
2.5500,34.49599741,-25.86745938,-32.19288937
2.5550,12.84308678,-10.28320212,-83.73953213
2.5600,10.44717207,-24.44625248,-77.12756016
2.5650,20.43589123,-19.41622744,-60.00125215
2.5700,22.38081895,-18.01167126,-48.70576787
2.5750,28.41131083,0.08110775124,-56.30665635
2.5800,32.08779032,-0.1775531755,-43.67099887
2.5850,42.47368597,2.246193377,-41.4484066
2.5900,25.45370242,-14.9685852,-18.55264951
2.5950,24.14391219,-5.777500687,-18.93262961
2.6000,23.22622568,-11.23629497,-21.40326593
2.6050,19.03756716,-26.99552095,-21.48215416
2.6100,20.96171744,-19.71274943,-15.41162113
2.6150,17.23248282,-32.16763126,-12.13264748
2.6200,27.67024051,-14.15426921,0.5994863024
2.6250,28.38320073,-34.09715687,-20.31521132
2.6300,35.43457685,-27.41427998,-19.64282249
2.6350,18.05099813,-28.35638822,-30.05283148
2.6400,5.208689078,-25.59486322,-41.98515316
2.6450,0.543059233,-5.206357793,-46.82871552
2.6500,2.252862401,-8.277511074,-51.55337866
2.6550,12.25557702,0.1315267804,-35.96252938
2.6600,22.80026681,-12.63733881,-7.490586745
2.6650,53.01707451,-19.79415029,21.67099297
2.6700,67.20115316,-27.32209407,68.23445312
2.6750,54.56721497,-20.63139173,37.83290034
2.6800,39.8730528,-4.792073199,4.817602364
2.6850,31.13573948,-7.332008236,-19.69839126
2.6900,26.68481605,-21.43678108,-26.64321443
2.6950,15.22713286,-17.90831737,-39.85847762
2.7000,29.30521643,-25.75939131,-34.58599494
2.7050,47.51034247,-51.300495,-4.766360259
2.7100,52.8550205,-31.36207905,4.115355057
2.7150,22.24587913,-16.87075955,-22.41465516
2.7200,13.83897889,-6.304294105,-27.60716596
2.7250,27.26358474,-26.21449956,-14.99667945
2.7300,46.90370329,-19.96910751,-27.4567369
2.7350,46.61736779,-4.870581541,-22.81153764
2.7400,39.14652752,-17.03043802,0.332054542
2.7450,17.78940048,-12.88364295,-15.5103897
2.7500,10.05077702,-0.4008425897,-30.25811732
2.7550,10.87298817,-15.23593223,-31.34161828
2.7600,19.77548298,-20.33381698,-12.9772204
2.7650,5.658349751,-20.68311916,-17.88232569
2.7700,-12.30117762,-7.97082404,-18.45656959
2.7750,-14.73058516,-11.41120538,-31.78214709
2.7800,-4.87988661,-10.02884585,-26.68297276
2.7850,5.980462436,-16.83560873,-10.91390064
2.7900,17.60693584,-10.96684849,-8.919043813
2.7950,7.549531518,-7.683791394,1.239879312
2.8000,7.357545395,-12.8532334,-18.09068401
2.8050,27.08522909,-26.54273815,5.805930477
2.8100,46.34305789,-14.35571793,13.63983884
2.8150,28.33688301,-12.61680925,2.511613148
2.8200,1.370352155,-7.779429254,-22.62883989
2.8250,-8.151290102,-2.169287756,-40.55149993
2.8300,-9.543028787,-8.300145846,-33.10793069
2.8350,0.5659995902,-4.288193157,-24.65560235
2.8400,30.18028633,-2.280544675,-10.73606527
2.8450,55.42307483,-19.61111086,16.0170955
2.8500,57.1388547,11.93400523,12.15578482
2.8550,21.3112465,15.48436417,-24.20007476
2.8600,2.824804114,5.108559845,-30.10293869
2.8650,11.57004139,-3.468749785,-10.99129302
2.8700,6.705639185,-9.851776353,-13.87321343
2.8750,7.944486238,1.593497508,-32.04776919
2.8800,9.732165958,2.798639862,-37.45263391
2.8850,15.6291749,-2.802797348,-24.42573151
2.8900,31.25268977,-22.25717739,-12.62280801
2.8950,39.53836865,-22.47812361,7.173187952
2.9000,43.82582924,-0.01142668623,5.104743126
2.9050,32.24455871,-15.53088404,-15.01272776
2.9100,28.49440308,-11.23629408,-22.50460019
2.9150,18.98328272,-9.174790957,-38.35063023
2.9200,20.63904286,-18.61163706,-32.87846333
2.9250,28.9466824,-15.81700946,-19.74985473
2.9300,27.28498411,-12.58108197,-17.82380398
2.9350,5.624026182,-7.223938857,-31.55898382
2.9400,-0.9182984886,3.144412933,-38.83277816
2.9450,3.090406801,5.825960924,-21.67120433
2.9500,-1.390951215,6.299051119,-25.21714118
2.9550,-6.259758792,24.3415091,-25.31828025
2.9600,-0.4816858887,16.36021875,-25.03825128
2.9650,16.26492873,2.294070948,-9.975317767
2.9700,35.33774847,0.6615306897,3.614747023
2.9750,31.94994816,-9.857345054,-6.824425641
2.9800,27.3571263,11.61982312,-20.26277575
2.9850,10.25444922,9.381838896,-38.44542735
2.9900,7.074636471,-5.461340122,-32.65113355
2.9950,2.126082646,-29.78701411,-13.31339467
3.0000,18.84154726,-0.3480240443,-20.62362212
3.0050,14.55781105,2.637165147,-30.39810575
3.0100,14.00405868,10.5549323,-49.26597862
3.0150,4.47920139,-11.09806928,-44.89426002
3.0200,24.3828428,-16.5892156,-24.83949411
3.0250,27.36185893,-16.54958771,-28.19370233
3.0300,21.44561293,-26.53338732,-25.92845729
3.0350,20.15672458,-18.5065289,-26.67818375
3.0400,16.71734343,-10.99890345,-30.54227408
3.0450,16.40154516,-5.637509804,-39.26009235
3.0500,12.04731689,-7.914323201,-39.6513805
3.0550,13.83167924,2.982257134,-33.89778674
3.0600,21.33382405,-15.53772305,-14.7774793
3.0650,22.07236542,-1.553040586,-20.68753115
3.0700,9.613864255,7.287395442,-46.04618371
3.0750,-7.600104886,-4.450287692,-43.57472675
3.0800,-4.502385196,4.668532776,-41.46304378
3.0850,-3.406650535,-0.5739604064,-29.55923363
3.0900,5.187224481,0.03795674794,-16.2650919
3.0950,6.013779917,-25.56425791,-22.41115922
3.1000,29.55528628,-22.007408,-12.10978983
3.1050,31.29952267,-6.787295047,-31.85318226
3.1100,3.114481404,1.960632916,-45.70601911
3.1150,-20.88996398,-2.816095354,-54.34828828
3.1200,-16.20820661,-9.269433863,-51.0809791
3.1250,-4.404309445,-32.9131202,-41.42144414
3.1300,20.51399763,-30.51652517,-31.09878301
3.1350,23.2582052,-17.19407822,-39.51874347
3.1400,15.81058135,-1.113173987,-32.32851892
3.1450,-10.92279308,2.465615841,-46.76805812
3.1500,-28.75274981,14.22239223,-43.12320962
3.1550,-28.44691154,5.726688582,-37.86372024
3.1600,-14.91843186,4.899935695,-38.80539096
3.1650,-10.42589065,-18.03470992,-36.95427624
3.1700,12.16077466,-13.6543876,-28.78235948
3.1750,23.96328027,-29.05675685,-18.07135494
3.1800,34.45884567,-26.19477206,-14.12416536
3.1850,33.812383,-11.18832244,-18.40788485
3.1900,21.84744368,-1.452075667,-32.43732369
3.1950,6.91356039,-5.482089748,-39.22037683
3.2000,-6.183523101,-22.21604501,-34.53750782
3.2050,-5.560671638,-6.812764207,-46.09903945
3.2100,-1.893283482,-16.30346303,-49.05661352
3.2150,11.93376626,-39.72833347,-29.19315401
3.2200,20.85991631,-19.82635717,-31.68507271
3.2250,5.170421424,-17.81730076,-36.59271239
3.2300,-8.833014249,-1.356250571,-44.6340875
3.2350,-7.467086792,-9.86918255,-41.64699252
3.2400,0.5329732649,-19.10119467,-45.76469516
3.2450,24.65351158,-23.89892603,-27.0171678
3.2500,36.91057299,-21.36147267,-22.82431274
3.2550,27.99807444,-20.73936101,-28.50017622
3.2600,10.46594924,-31.58319926,-20.04230818
3.2650,-9.567464457,-28.30853185,-28.28794088
3.2700,-22.70570098,-22.40686137,-32.77402496
3.2750,-21.37126435,-17.62315045,-29.51848323
3.2800,-6.36788922,-24.4834644,-28.01945426
3.2850,19.22377834,-15.5359313,-22.98403829
3.2900,32.14609243,-10.52958603,-12.0003606
3.2950,22.44799036,-8.242824387,-1.923090385
3.3000,8.659930255,-7.267258482,-11.18309614
3.3050,3.752792872,0.6370483595,-11.33376944
3.3100,-3.106354396,-11.91592462,-16.03235091
3.3150,0.1197646603,-14.1593978,-1.554143528
3.3200,9.101197545,-0.5549378284,9.634725809
3.3250,5.848439982,6.399849806,0.5233999883
3.3300,1.231346028,-14.13276651,1.213397437
3.3350,9.632268512,-20.04736605,5.220871688
3.3400,19.49751534,-11.14706213,4.009001192
3.3450,16.71743057,2.048631941,-1.505649568
3.3500,1.604087094,-11.45515969,-6.149624763
3.3550,-12.01654966,-1.633651763,-9.799193786
3.3600,-13.08984464,-10.10299543,1.047446073
3.3650,-13.57220146,-5.320522213,5.11585288
3.3700,-10.9562339,-23.5352148,8.655197922
3.3750,12.94122724,-20.54637457,13.70796828
3.3800,22.31776951,-4.361682407,20.35408526
3.3850,-10.21259632,5.234100218,14.52678753
3.3900,-23.95018648,-2.467232454,4.33822037
3.3950,-19.91077849,-14.66564942,17.46742366
3.4000,7.476136726,-5.106927923,16.84850841
3.4050,22.36211221,-3.668638845,12.81244714
3.4100,10.88676609,-24.69067304,4.014529707
3.4150,-5.871546844,-5.184655567,1.522771071
3.4200,-20.78290668,-17.62616286,1.255113734
3.4250,-20.91048875,-13.10077884,0.1678536449
3.4300,-13.17199324,-10.10168856,6.493381226
3.4350,-1.335629248,4.141963441,4.960934565
3.4400,14.33188423,13.8953827,6.636844294
3.4450,24.3433329,-10.47628808,19.61112209
3.4500,16.30908293,14.02457297,12.05714408
3.4550,-14.34604328,17.37916579,13.04215249
3.4600,-20.69826961,27.78693952,24.48883828
3.4650,-23.52054303,16.58895635,29.44480792
3.4700,-3.17361457,7.711243421,24.25734303
3.4750,12.44229551,7.058043307,23.20867801
3.4800,-10.97010997,6.466290641,29.11895054
3.4850,-57.05438884,22.5436372,38.07641496
3.4900,-76.90237974,-7.225779029,31.04306015
3.4950,-62.17420565,-27.29503579,48.14304916
3.5000,-50.711651,-15.36034417,41.5185595
3.5050,-57.23678656,19.28747833,40.90373362
3.5100,-73.73996434,2.935219305,42.33111381
3.5150,-65.90021655,-1.904462853,60.23958673
3.5200,-49.22218574,21.90587555,57.16693419
3.5250,-60.31496343,8.898031042,45.78815574
3.5300,-52.3529924,18.02417942,44.69499279
3.5350,-44.51410589,9.267582829,46.88168678
3.5400,-31.14434213,18.58034078,54.93089539
3.5450,-32.44291111,6.339584055,41.94673865
3.5500,-21.87801633,8.908403662,35.78351839
3.5550,-17.25602759,-7.721507038,25.4324755
3.5600,7.298261629,-21.9778826,26.85020149
3.5650,5.50153616,-32.685426,25.27077064
3.5700,-4.219496805,-11.97953826,10.95733885
3.5750,-13.70944405,-7.156659374,6.512637539
3.5800,-11.68207999,-15.53507581,4.416411305
3.5850,-9.797035333,-14.7142241,6.959814164
3.5900,-4.529905023,-2.802695387,5.611646768
3.5950,5.963252445,2.212373235,13.46432476
3.6000,9.642317121,4.412181863,-1.31271387
3.6050,9.806476588,-0.3885183549,-9.801378364
3.6100,13.67279635,6.58367499,-24.96749576
3.6150,12.56342923,-19.13600582,-26.89135261
3.6200,17.62219798,-20.35912423,-15.35461997
3.6250,-1.316991366,-32.26527937,-23.29648817
3.6300,-8.057287092,-42.70380262,-17.99224279
3.6350,-3.480837344,-55.14632933,-23.88049489
3.6400,5.201073084,-36.64200734,-44.97366109
3.6450,12.93648603,-24.34050082,-48.08244552
3.6500,20.28329508,-37.99737241,-49.76558624
3.6550,32.69277345,-39.02634575,-30.04949614
3.6600,32.34762219,-39.91710033,-38.67885984
3.6650,24.82638666,-25.10618648,-42.41011915
3.6700,-4.744138899,-26.40684729,-43.49568817
3.6750,-19.2632214,-5.957519043,-53.42970761
3.6800,5.381395019,-14.34063013,-47.10791743
3.6850,22.26524409,-28.30252871,-46.73231165
3.6900,44.46572878,-20.11369702,-47.97324411
3.6950,31.91385588,-17.52983221,-55.32527565
3.7000,24.82864053,-33.19407302,-60.76275686
3.7050,24.29361806,-55.51626559,-52.5079393
3.7100,21.3476168,-42.29587528,-60.42656274
3.7150,-1.567318919,-29.25633592,-60.33909259
3.7200,-13.39561399,-28.42240419,-54.67891649
3.7250,-22.88143813,-29.36899815,-57.2049858
3.7300,-2.369160966,-32.99467828,-53.40759495
3.7350,16.68446182,-29.81716949,-45.65639874
3.7400,36.49049801,-30.53580239,-40.80667002
3.7450,45.93042611,-8.556549718,-43.96743313
3.7500,39.69013718,10.04708996,-38.19459319
3.7550,29.46868606,-13.06219243,-35.46876403
3.7600,30.92630135,6.752334532,-40.30904835
3.7650,26.08400952,-1.419559652,-39.45622691
3.7700,14.02406044,2.712903494,-33.1985358
3.7750,20.14898081,2.587364015,-26.67784762
3.7800,23.15918653,22.22519502,-19.97469673
3.7850,9.75278714,24.75593096,-16.62877157
3.7900,-11.04597762,43.98587736,-19.90479345
3.7950,-35.78708449,57.29054041,-29.78899955
3.8000,-21.79897574,25.75552771,-20.24951432
3.8050,18.19422273,37.73850158,-3.578622171
3.8100,43.19377893,49.14186885,-1.006304422
3.8150,32.17889824,62.26483204,-21.7580433
3.8200,21.12266416,57.01387197,-31.62370164
3.8250,5.851925646,31.10585857,-21.27411691
3.8300,2.015831118,48.38725631,-25.12197026
3.8350,-8.11916078,28.01537743,-32.54582582
3.8400,-9.837329595,14.09480635,-29.75458091
3.8450,-10.22417145,-11.4941843,-15.58002173
3.8500,6.394524564,-0.9657346965,-5.827049274
3.8550,-3.571894148,-16.85716008,-14.56984892
3.8600,3.305680837,-17.24142202,-15.27745887
3.8650,12.20545817,2.647428323,-13.02767937
3.8700,11.4513024,19.60748341,-18.66322352
3.8750,20.93627598,21.61265428,-5.918213606
3.8800,19.95702315,18.43499306,-13.11062593
3.8850,17.25191428,48.06913769,-7.999693689
3.8900,8.466328431,48.95544946,-19.29563184
3.8950,1.289345047,40.88351812,-9.741619651
3.9000,3.705062328,36.41875096,1.766957703
3.9050,-16.37151576,40.57219167,-6.936820478
3.9100,-32.83942333,34.0180229,-16.20694494
3.9150,-37.16733014,21.09298389,-10.62171032
3.9200,-30.65515915,-6.678618679,-12.61304617
3.9250,-24.19461061,-1.63678277,1.536441288
3.9300,-27.62363604,-9.593265784,-0.05835854139
3.9350,-22.15318285,-24.62681703,3.421037036
3.9400,-13.53511584,-25.25378057,5.870595263
3.9450,-13.17396975,-15.78094774,-1.32057583
3.9500,-1.816047128,8.834244378,-2.747994164
3.9550,-8.577037994,6.504252287,-1.336275002
3.9600,4.562560008,10.07590087,6.704962783
3.9650,-9.19378369,5.948105899,8.926731328
3.9700,-31.89111819,8.078189264,3.327258677
3.9750,-47.60515193,8.246363819,-0.4678350361
3.9800,-49.2821687,3.879477056,-9.720838811
3.9850,-41.64442804,-14.28915963,-3.91252111
3.9900,-25.1707875,-19.28395862,0.008211179738
3.9950,-33.54427245,-41.74267346,3.687511845
4.0000,-43.80447838,-44.46689935,-9.856108631
4.0050,-43.0851424,-45.79903336,2.503268518
4.0100,-44.07557522,-46.89071636,3.366374489
4.0150,-40.06968121,-45.37927198,-4.88694867
4.0200,-33.74856124,-34.65646721,-5.949891355
4.0250,-24.42578326,-8.442384125,-0.9403292971
4.0300,-11.35782613,-13.31796894,6.852276239
4.0350,4.928338736,4.886152868,18.71056857
4.0400,-9.668467394,-3.669699609,-3.242691417
4.0450,-6.569000587,7.528358936,-0.4100100871
4.0500,-21.09332405,-15.30654387,-0.2990036361
4.0550,-31.73384122,-14.83356336,3.997714261
4.0600,-35.36122124,-29.60304938,-8.015362105
4.0650,-28.69334098,-35.3489999,-9.806099643
4.0700,-13.76591746,-32.34519243,-5.991281036
4.0750,-14.19859135,-47.08813457,-1.968004088
4.0800,-16.50637835,-28.32779488,4.95973401
4.0850,-23.65000064,-27.09137004,7.103563176
4.0900,-23.67406368,-17.20042412,7.992910265
4.0950,-22.95882531,-11.53861239,9.080750932
4.1000,-21.9173794,0.5473193212,7.931241795
4.1050,-18.53465406,15.06136753,6.143137839
4.1100,-14.52126695,15.71395685,6.469407174
4.1150,-11.90467757,7.331882661,13.04993782
4.1200,-25.84039363,3.25375904,3.6188389
4.1250,-33.07832844,4.359747091,6.160946717
4.1300,-37.36934265,-6.506787264,3.031214674
4.1350,-25.84251211,-20.65560998,14.8748565
4.1400,-10.94338633,-17.73470604,8.229665618
4.1450,3.358773338,-19.29846909,15.17178257
4.1500,2.064347907,-21.07638532,11.85741958
4.1550,-7.378490003,-10.41912412,15.37734634
4.1600,-8.586856755,-13.42070943,22.08862846
4.1650,-19.396939,2.102034155,9.476746562
4.1700,-10.48594693,1.929330012,11.11507624
4.1750,-3.154663527,12.14663757,13.00984811
4.1800,4.741840095,16.9658255,20.57701124
4.1850,3.975488631,24.52360617,23.50752802
4.1900,-0.8308500116,18.43335824,24.78578324
4.1950,-10.21899607,20.94827674,20.21134417
4.2000,-27.54806413,14.96012038,8.347983003
4.2050,-29.69978755,4.11012074,10.3121307
4.2100,-16.04312589,-4.313975975,10.37265433
4.2150,-10.88667813,-17.71117651,8.004363801
4.2200,4.475489824,-25.80828998,6.083022898
4.2250,5.282872049,-25.11365056,9.698403086
4.2300,8.600299819,-10.95326132,13.55186272
4.2350,0.416100574,1.622350596,8.33107484
4.2400,-5.736293669,1.362421746,-3.436844586
4.2450,-1.435397767,3.060367148,8.437097676
4.2500,4.112435608,4.516536476,14.51455141
4.2550,-2.881533982,22.24673149,6.057671249
4.2600,-0.6408093423,19.42981587,3.084771782
4.2650,-1.393130716,17.88671828,-6.241612945
4.2700,2.760527584,9.874393427,-4.15184777
4.2750,-1.609880744,15.3990221,2.126879849
4.2800,-19.01044639,8.624065503,-5.566564304
4.2850,-25.26033321,15.22658161,-16.65511542
4.2900,-18.74790093,0.54558854,-20.21849849
4.2950,3.105163584,-9.140135211,-5.836693023
4.3000,16.60767471,6.065299217,-11.00988075
4.3050,15.35524606,-2.193930695,-31.96978534
4.3100,8.822057143,-1.77218762,-43.32688287
4.3150,5.519840475,-2.634503908,-29.77678962
4.3200,7.750627204,-1.453290808,-16.85019791
4.3250,4.171611471,7.550726349,-21.72685502
4.3300,1.512137961,13.97321227,-42.03182461
4.3350,22.72787898,10.66949232,-25.74247441
4.3400,26.81741731,11.78797867,-49.65593889
4.3450,37.55119527,13.73712924,-43.63524401
4.3500,29.07162754,22.44212863,-47.96428872
4.3550,17.08051711,11.09744232,-44.27806567
4.3600,14.52082903,-5.482234606,-50.55841585
4.3650,14.74407736,6.17451425,-62.11653565
4.3700,22.74344806,6.588735612,-60.57005152
4.3750,25.06872383,-0.8447975529,-56.98059593
4.3800,30.9626578,-10.37389908,-43.6823056
4.3850,32.0076072,-8.010905612,-53.32416796
4.3900,28.47059851,-6.139473967,-55.23355595
4.3950,29.57273173,-9.47963209,-57.16481726
4.4000,35.46767259,-9.041431894,-67.43268024
4.4050,32.0353447,-3.433557225,-60.08927458
4.4100,24.83539289,7.88964483,-61.20365935
4.4150,18.36003474,22.08808456,-52.51935345
4.4200,21.04286034,30.72276043,-52.1681379
4.4250,23.93354919,15.76872518,-51.92333019
4.4300,34.15116354,-0.9068660886,-55.37102238
4.4350,40.9452522,-9.192074397,-50.83050671
4.4400,41.44989517,-12.43876885,-50.08966504
4.4450,27.99806369,-25.78836371,-50.97257032
4.4500,24.57028897,-8.753626588,-55.85097231
4.4550,24.76247834,-26.50113639,-56.95502327
4.4600,39.367783,-26.02404652,-48.42302588
4.4650,41.00230332,-10.90651973,-44.31013903
4.4700,30.52797848,-2.337960017,-46.3389468
4.4750,26.26602536,14.64513363,-44.32547209
4.4800,28.55086326,24.05652617,-43.04863554
4.4850,21.58374316,1.823725677,-44.81577459
4.4900,28.20754425,-2.465966331,-43.4341963
4.4950,17.44622114,-1.408257639,-45.24831798
4.5000,10.61876125,-15.97106363,-37.22499011
4.5050,-4.957021762,-24.89140867,-43.83207423
4.5100,-5.755226067,-25.7243776,-37.0724179
4.5150,-6.601324377,-46.78230465,-31.77673927
4.5200,0.7676749032,-53.0011817,-32.98352167
4.5250,1.508262315,-51.94156774,-22.58380395
4.5300,5.128983349,-40.75240246,-16.622178
4.5350,-1.153438556,-33.95552798,-19.46566006
4.5400,0.2583798359,-10.60723673,-18.55179616
4.5450,2.430262801,-9.889744666,-13.89839641
4.5500,12.22779125,-1.094834753,5.287122565
4.5550,-5.939161387,7.654284908,-0.7093900783
4.5600,-12.20325278,23.23277857,-0.02664828766
4.5650,-26.24335622,9.508259743,-11.48342709
4.5700,-25.86851846,15.79234034,-22.36189563
4.5750,-31.72899752,6.053637567,-21.85458309
4.5800,-31.21444928,8.683245432,-27.49278662
4.5850,-26.44276719,1.853392388,-19.59218354
4.5900,-7.358701177,-5.841856079,-9.745913824
4.5950,7.270832802,-0.1256945111,-7.654974301
4.6000,6.051946385,-11.46928605,-2.451965242
4.6050,5.711433499,-3.774852053,-11.84355269
4.6100,3.581490063,-2.002085743,-9.866947684
4.6150,4.145312973,-13.52331022,-7.449374505
4.6200,14.70716862,8.703484417,-20.14689561
4.6250,15.68451949,-8.926416075,-20.31712171
4.6300,26.06696312,13.65356072,-25.85160133
4.6350,23.57692972,11.98162312,-29.48425086
4.6400,21.95706415,-6.099539031,-25.91833344
4.6450,7.955582532,-9.862820353,-35.6337106
4.6500,-9.262504191,-20.92370245,-29.61243235
4.6550,-16.83864505,-33.73847376,-30.72464508
4.6600,0.9626555011,-46.42223632,-32.27998825
4.6650,23.7929833,-30.21445834,-36.36219564
4.6700,23.94415378,-36.60846813,-37.3240509
4.6750,15.39008539,-25.78655609,-25.96817505
4.6800,-1.493757195,-12.98567818,-21.1952786
4.6850,-9.900144589,-0.7029521588,-11.54412386
4.6900,-1.666654989,24.79007901,-18.78989864
4.6950,4.119447522,15.3520717,-6.099193653
4.7000,21.81425377,15.21338054,-2.564460159
4.7050,35.7042075,11.89877989,2.319424577
4.7100,43.11909139,46.81228395,-18.31939822
4.7150,15.24599829,39.64685367,-40.70215184
4.7200,-4.923497169,30.55137016,-22.9078071
4.7250,-23.00012896,7.966599498,-19.27255469
4.7300,-14.31714757,7.900870339,-13.69841364
4.7350,3.124906712,-0.3276710376,-19.73156887
4.7400,17.57365869,-9.687930167,-30.95901947
4.7450,21.6348611,-5.454131234,-23.98318303
4.7500,17.75847638,-14.6038925,-21.88834604
4.7550,14.77112913,-11.55994502,-17.59883034
4.7600,25.44913015,2.328304231,-24.8885552
4.7650,18.85663314,-13.02028102,-26.1238646
4.7700,14.70969761,-7.857174384,-34.49787311
4.7750,15.79223091,-1.465750849,-36.94708812
4.7800,20.80857329,-2.792387087,-32.71297353
4.7850,24.77099234,-13.0407273,-36.0585985
4.7900,21.55516738,-5.81328509,-38.4742271
4.7950,-0.4063916051,15.03836504,-37.59929683
4.8000,-25.27998738,-9.343104446,-47.58149642
4.8050,-21.29487504,-23.39398922,-27.47654749
4.8100,-9.772583626,-30.11964446,-26.01923461
4.8150,6.361930539,-21.3690409,-28.51859341
4.8200,23.20302374,-13.82554714,-6.083618044
4.8250,17.36900421,-19.59172789,-6.356566684
4.8300,14.37652369,-16.43692663,-9.346182389
4.8350,6.944728956,-13.03936424,12.33192923
4.8400,2.910091971,1.087987476,7.728929837
4.8450,-7.87750524,6.500398108,-13.09511141
4.8500,-8.419947977,15.00929381,-26.64274122
4.8550,-16.17411746,-10.41702042,-30.91514968
4.8600,-19.80614616,-22.54299627,-9.508617925
4.8650,-19.46429481,-11.94214699,-2.512060038
4.8700,-23.11407603,-8.303982333,-5.556772289
4.8750,-23.67360723,-12.60720638,-12.78808353
4.8800,-16.03882386,-18.72880941,-17.16724749
4.8850,-5.290058528,-13.76773025,-3.95883837
4.8900,4.431004116,-33.93919836,18.04455167
4.8950,12.57207414,-33.99068206,18.8992002
4.9000,18.27250287,-4.236399495,19.27553815
4.9050,0.03831805159,25.03784581,-3.015581474
4.9100,-21.0380568,50.77912907,-7.717526969
4.9150,-39.71789031,54.35637134,-15.79202693
4.9200,-21.35458948,47.23796564,-12.32904353
4.9250,-6.043044317,27.02923007,-20.65976602
4.9300,-4.655727909,19.57826203,-21.0046937
4.9350,-12.81360663,9.843580256,-37.42501045
4.9400,-11.6102867,7.308395334,-41.53094689
4.9450,-15.33503019,9.017933566,-47.90896102
4.9500,-15.84394406,8.834801257,-48.34576621
4.9550,-25.54029342,1.263305199,-32.85900542
4.9600,-16.41278119,-4.929213962,-38.10548985
4.9650,-9.897634273,-15.70470061,-31.33704797
4.9700,6.716523897,-9.760966404,-40.51589227
4.9750,3.919021419,4.632163804,-61.28877886
4.9800,-10.23519404,7.716315371,-50.46195259
4.9850,-26.29681201,1.442715305,-54.12009188
4.9900,-15.25817126,17.89969525,-56.32695071
4.9950,-6.056428263,16.00980249,-58.10912724
5.0000,6.819069267,22.87710736,-61.9950921
5.0050,4.4397543,24.20581717,-65.87766777
5.0100,-3.489416559,13.59310837,-56.9673476
5.0150,-9.452836898,-13.82569788,-37.25392993
5.0200,10.93139989,-15.2595179,-37.47229384
5.0250,26.79064606,-14.9334101,-37.22882467
5.0300,38.38801834,-17.77004748,-38.88044746
5.0350,36.92720432,-20.62661387,-28.75752404
5.0400,21.70090514,-16.23017406,-28.30081556
5.0450,7.381921982,9.563320969,-46.39511409
5.0500,-11.36982054,18.8235583,-81.61180859
5.0550,-10.47853834,12.93693081,-68.0279644
5.0600,2.975378837,2.480166973,-44.99089238
5.0650,21.77862502,-14.80655848,-31.0002223
5.0700,42.57335265,-1.833554926,-33.03732538
5.0750,32.46861022,-0.5533688083,-44.41824486
5.0800,19.15596636,1.590585442,-48.04685943
5.0850,7.843633577,-16.20063127,-39.91561965
5.0900,14.97354776,-16.7108217,-16.86145494
5.0950,23.7595761,-12.88549275,-18.72404132
5.1000,27.84048962,-8.908040926,-26.91265379
5.1050,16.75474652,-16.71648572,-36.73141395
5.1100,2.941535217,-33.4585047,-39.52728542
5.1150,7.332981017,-31.19412321,-23.84003706
5.1200,36.14078266,-28.08090884,-13.00503835
5.1250,50.74491905,-38.5749254,3.475259043
5.1300,56.10817475,-42.7457171,3.333969015
5.1350,38.58503503,-31.49459808,-20.12012081
5.1400,18.48801538,-19.15672547,-40.31762533
5.1450,7.493762925,-0.9229147524,-63.47632192
5.1500,-8.914895675,-18.14607065,-78.63585111
5.1550,-8.68381857,-7.237370002,-67.54017283
5.1600,-8.916457586,-44.08522025,-40.59395587
5.1650,11.75825461,-67.6877693,3.432622273
5.1700,41.15624849,-82.84953674,22.46567562
5.1750,49.71217432,-66.45246427,26.29736491
5.1800,38.24958784,-23.70903679,20.42229052
5.1850,10.16724058,-1.455381807,-1.93406943
5.1900,-5.976238804,16.73054909,-25.73522685
5.1950,3.564432591,26.5554989,-35.19740508
5.2000,15.1814563,14.82888114,-38.96040781
5.2050,22.73564998,-0.2773880065,-60.04583505
5.2100,12.31672858,-28.82043767,-68.52600773
5.2150,2.689985999,-21.10886542,-71.63971382
5.2200,-3.8432959,-3.165801443,-86.76693593
5.2250,-13.8751023,-8.265964437,-83.72687429
5.2300,-13.53831645,-31.4429598,-54.34373491
5.2350,-0.07057790909,-34.69946898,-19.42622966
5.2400,21.85639453,-23.02800182,-3.729361894
5.2450,32.84948406,-3.939214095,-20.30374757
5.2500,48.04548575,10.80198362,-38.04149792
5.2550,37.82222937,9.204751173,-29.22140222
5.2600,33.0711363,-1.150690859,-18.46078459
5.2650,27.60129253,-10.67178338,-18.77747942
5.2700,21.07297507,-16.77154434,-61.78620609
5.2750,13.38383677,-2.340947082,-102.9760848
5.2800,-9.172487861,-33.32858292,-115.8098684
5.2850,-18.5486832,-41.52168535,-92.68359832
5.2900,-3.887152882,-22.34441919,-86.05911918
5.2950,11.65737649,-13.27182946,-105.6002616
5.3000,20.05487362,-28.49440477,-96.31637722
5.3050,21.72600639,-62.36479698,-50.90696865
5.3100,53.64528379,-54.60551764,-11.8610778
5.3150,55.17533314,-39.55709791,-9.546414892
5.3200,44.80473724,-23.21092845,-36.60767859
5.3250,17.46775493,-30.68278381,-36.67163497
5.3300,6.431752794,-35.58329161,-18.41795547
5.3350,29.13775309,-22.49741393,-19.03894375
5.3400,46.3039783,-25.41259801,-33.96624416
5.3450,41.64263666,-24.54034041,-36.37689866
5.3500,28.80110772,-33.6911379,-31.85809551
5.3550,35.78848068,-31.31770783,-51.34202197
5.3600,42.08680905,-23.36468645,-65.98676905
5.3650,38.34548997,-31.51878698,-78.90598215
5.3700,34.38821008,-35.63703058,-84.06828298
5.3750,21.05340419,-42.68984728,-55.31986726
5.3800,29.52429443,-65.72922779,-40.46123433
5.3850,18.93335258,-85.75028103,-19.1265466
5.3900,12.03819193,-79.60467635,-28.71662918
5.3950,-12.35063682,-91.0187959,-37.78684019
5.4000,-8.399183257,-89.14272251,22.53839563
5.4050,18.20471761,-114.9156957,98.57373818
5.4100,40.31641486,-114.5589339,151.977432
5.4150,40.39195957,-107.0704848,142.1877543
5.4200,12.66097181,-92.7235227,104.5850571
5.4250,-5.386803467,-81.25609052,24.18481229
5.4300,-6.14089394,-67.61942512,-42.44264068
5.4350,10.23345407,-62.16253411,-78.03872604
5.4400,15.65698315,-61.18037438,-70.59023048
5.4450,38.92241075,-64.00765821,-61.25953836
5.4500,42.46260104,-50.27604088,-19.09941725
5.4550,30.67010803,-46.83526784,13.05642338
5.4600,3.417938672,-35.50832468,45.93669347
5.4650,8.085465639,-5.704746319,66.71219776
5.4700,6.748438588,-21.4259412,65.76088207
5.4750,5.692760993,-47.73538766,87.57539355
5.4800,19.98019119,-63.36972157,122.61248
5.4850,21.43525551,-66.79395624,129.7133824
5.4900,18.51244291,-21.64593472,92.59073581
5.4950,5.61008358,-7.212037774,11.78706844
5.5000,-15.50707046,-9.507633069,-18.01344525
5.5050,-17.99603392,-16.6324498,-2.407906034
5.5100,-0.40823596,-12.78356349,11.12140356
5.5150,23.16389384,3.734265343,-13.42643656
5.5200,15.7148125,-12.30208553,-22.63260431
5.5250,1.601600127,-29.06754828,0.435779492
5.5300,8.419868792,-16.42302602,45.5318635
5.5350,16.3000267,-10.59189141,62.26268367
5.5400,6.978597128,3.494668048,64.87687216
5.5450,-5.092172902,0.5688195142,51.45308943
5.5500,-10.02011002,6.015104169,34.82731323
5.5550,17.5030408,23.65822156,5.845798794
5.5600,21.01703575,2.939584676,-0.1860951436
5.5650,20.59140997,-0.3492369934,15.98669539
5.5700,-0.2610418733,-10.85750983,49.57690417
5.5750,-16.97938787,-5.895715955,66.66053194
5.5800,-3.075369327,4.78091035,64.79021651
5.5850,10.25453983,-4.08749689,59.48152582
5.5900,10.17245625,-19.8710028,62.07523033
5.5950,25.23450211,32.52460178,31.22470794
5.6000,51.60015722,56.30976473,-26.63767872
5.6050,48.75419242,55.28973952,-48.40693029
5.6100,43.81921386,54.11664115,-21.01047025
5.6150,18.39703826,35.22744501,46.42857567
5.6200,23.52377331,35.40926478,110.8017594
5.6250,9.041562779,23.45201937,154.1299985
5.6300,1.936635472,25.72973595,168.4568842
5.6350,-12.66075608,12.82396992,158.7680415
5.6400,-14.49631791,-3.796001793,119.0660762
5.6450,-3.917745143,-22.80257479,63.35546761
5.6500,10.95152747,-55.52231,2.449380728
5.6550,18.82202618,-62.00110074,-22.02389757
5.6600,33.07876114,-48.7546787,-16.22661811
5.6650,33.03515538,-26.40675346,10.44067108
5.6700,71.36410125,11.82864498,37.18468899
5.6750,69.45959654,35.33130479,64.00094968
5.6800,62.03998138,59.724552,79.7433311
5.6850,37.92260478,46.42814085,71.28505048
5.6900,5.896309407,43.17611676,62.11736786
5.6950,-24.54847302,33.91641366,58.06655336
5.7000,-25.04726634,27.90942846,59.90907861
5.7050,-25.82972856,-6.193566615,62.70336798
5.7100,-33.53047253,-40.11184497,82.2193968
5.7150,-50.97263727,-42.60027165,121.5372375
5.7200,-46.02053758,-45.59247881,132.9013484
5.7250,-15.86163155,-43.24877386,96.54679199
5.7300,17.55652751,-44.32030228,54.46078165
5.7350,22.08128963,-35.94026926,33.5038879
5.7400,25.90441422,-30.81085802,20.74150301
5.7450,57.36925338,-8.629660398,2.511235588
5.7500,74.58528695,-0.03223214386,-25.27868523
5.7550,75.30243226,-18.09401165,-29.04574283
5.7600,48.58386692,-1.472832672,-1.397668606
5.7650,38.65834552,3.780270518,32.08967874
5.7700,25.92141488,4.090806665,48.17228347
5.7750,12.54999413,-14.0444772,63.91521582
5.7800,-11.98350666,-25.0564108,102.4545503
5.7850,-30.2589306,-16.86467714,134.5744933
5.7900,-31.37809175,-6.099144755,130.3912709
5.7950,-12.17443755,-3.064158719,88.3242446
5.8000,11.07078186,-20.64421852,61.09968837
5.8050,24.78965669,-9.37129812,27.76187614
5.8100,15.77763576,-18.24581013,29.76889999
5.8150,39.72397117,-27.38281435,35.80123064
5.8200,55.85214908,-15.76386672,45.06284453
5.8250,56.53207596,-11.19460261,53.66635087
5.8300,50.81471514,-2.400060142,58.4188033
5.8350,39.60828473,14.10001929,68.4263259
5.8400,48.7619696,18.79561334,70.61321582
5.8450,62.61655906,6.907292703,64.00996448
5.8500,49.71064575,-1.154560776,35.4855182
5.8550,-9.042411029,-19.87621573,43.83168998
5.8600,-18.31393448,0.4456246366,70.78624145
5.8650,-22.89293672,-12.40295624,86.65317559
5.8700,-23.72835806,-25.27485228,97.61107682
5.8750,-40.35749167,-23.19480512,100.3552136
5.8800,-43.25294491,-30.03054778,89.55851646
5.8850,-22.30130689,-4.013211721,76.08817462
5.8900,4.424369106,-0.6264664666,58.21781594
5.8950,22.99005188,-10.77097012,41.98240982
5.9000,27.24450518,-2.69447844,41.9036652
5.9050,22.73318258,-7.292897431,38.42020637
5.9100,32.72944103,-8.0813621,41.28848049
5.9150,34.25569714,-10.65382119,47.30444824
5.9200,24.22057016,11.85520995,57.22576616
5.9250,6.090396321,5.293764954,60.67724168
5.9300,0.2255017365,2.550528218,67.71853704
5.9350,-15.6348273,-16.7085147,64.18809516
5.9400,-28.79177907,-38.82122266,69.49822629
5.9450,-48.78422165,-34.67362507,73.32463785
5.9500,-68.89477253,-44.41855785,77.33926008
5.9550,-67.31433052,-21.61172333,81.92158723
5.9600,-90.47030771,-5.995123338,77.21277868
5.9650,-64.73904993,1.367400726,75.17526917
5.9700,-46.78306395,13.60020967,68.70179909
5.9750,-18.92790018,15.86785753,51.40630537
5.9800,-13.01911467,14.29888499,38.89125671
5.9850,-11.48667633,6.398134393,32.82252427
5.9900,-23.76372383,19.99705111,26.35036797
5.9950,-7.136898635,21.01996549,3.931679596
6.0000,1.686918553,16.50755612,-4.244858921
6.0050,-10.67289221,22.70021647,2.169984554
6.0100,-31.56258931,9.457628605,15.56718866
6.0150,-80.99950415,-6.842149426,23.00680308
6.0200,-109.916446,2.626860223,40.44989973
6.0250,-107.9759075,20.0386855,60.51115754
6.0300,-94.74003782,20.71423492,66.75391502
6.0350,-78.48512255,18.50312995,56.18569216
6.0400,-64.29996415,18.76100528,37.64768031
6.0450,-57.22366886,26.27307034,26.13014268
6.0500,-51.61704707,35.78766644,15.96229814
6.0550,-18.83935409,30.88875089,5.271192022
6.0600,-5.563813238,28.96017302,-2.341456592
6.0650,1.721029168,28.52966271,-6.026827125
6.0700,-6.876720995,18.40077876,-1.551937038
6.0750,-5.576084262,16.9956052,5.795737672
6.0800,-10.24874954,8.95541155,11.2878847
6.0850,-4.270275924,6.517089381,17.91386529
6.0900,-17.81806797,-4.014366649,18.8522458
6.0950,-32.2943509,-9.296263591,28.2777877
6.1000,-55.67257116,3.140470297,37.11749691
6.1050,-62.36930278,-1.500634922,34.33056487
6.1100,-59.44118543,0.342954507,35.7950752
6.1150,-47.47666179,5.122235311,39.54812671
6.1200,-43.50506326,-1.861985852,41.59901018
6.1250,-31.09587282,5.72870152,33.78500522
6.1300,-30.99538183,18.26118163,26.21732358
6.1350,-14.87651376,21.71579296,26.31141508
6.1400,-8.005552713,25.2422926,28.37139912
6.1450,-2.50607711,26.5799508,30.14330676
6.1500,6.101608094,32.92381136,21.81975855
6.1550,2.31345805,15.94954355,15.08957718
6.1600,2.501052754,28.61926921,19.18174232
6.1650,-3.016888442,21.00889617,18.41757675
6.1700,-13.56044003,14.12262202,11.43936138
6.1750,-38.08694876,-5.404554464,9.773908347
6.1800,-39.34569406,-0.8269973772,11.49379017
6.1850,-23.67123158,7.893566709,4.054608736
6.1900,-2.550204202,-5.991142306,5.095039723
6.1950,8.627732018,14.53312017,10.51511119
6.2000,12.31660725,2.755811934,11.31261684
6.2050,-4.967851607,13.81747448,10.86669144
6.2100,-5.980826802,3.076977845,12.05948298
6.2150,-16.56241953,15.10687407,13.67084371
6.2200,-11.08896122,23.90425875,15.50334083
6.2250,11.38202457,26.2070219,8.754785846
6.2300,12.40308916,16.19183045,4.478454108
6.2350,2.847778767,30.06650784,3.76319376
6.2400,-5.730094716,22.32483165,13.24452131
6.2450,-31.52427705,18.56986359,15.11245956
6.2500,-31.4718425,29.24691643,11.83302613
6.2550,-16.14518896,21.06697642,14.97666747
6.2600,-18.21943586,14.20418818,17.47637178
6.2650,-20.76112047,5.360179766,19.54570717
6.2700,-27.5644229,12.1000162,12.05192459
6.2750,-22.29775065,8.536476364,9.710962275
6.2800,-12.2586749,-3.250885203,9.97342703
6.2850,-0.414382976,2.134247948,5.151968738
6.2900,-12.23840548,-19.10073481,8.331702265
6.2950,-7.920754492,-1.528530502,11.93942537
6.3000,-3.931370883,3.885423292,13.30075739
6.3050,1.42869829,-3.68932074,9.641463316
6.3100,14.96086096,10.95666805,1.401238965
6.3150,18.55593761,5.385998393,-10.8973925
6.3200,26.15914328,0.06478161486,-2.813504265
6.3250,-0.3099200975,14.40436646,-7.793716401
6.3300,-18.74886676,4.98656849,-7.380383102
6.3350,-22.6905199,22.79877745,0.2134082003
6.3400,-21.42517009,-0.03814348103,9.151503599
6.3450,-11.30399082,8.994713156,16.5533326
6.3500,-18.42220909,-15.02866014,14.85745325
6.3550,-16.70818153,-17.64198651,10.91786741
6.3600,-16.90452991,-17.49788759,-0.8244065766
6.3650,-1.669940568,-29.11006082,-6.079669362
6.3700,-17.84494412,-36.15759751,-1.662701746
6.3750,-11.35623707,-18.18018619,2.053273261
6.3800,-11.3609407,-15.6117642,1.801819108
6.3850,-11.58444288,-11.81702804,5.417504966
6.3900,-14.20204145,5.218839377,7.755458914
6.3950,-5.582770319,13.16504617,4.961499636
6.4000,-11.41853988,-0.6797317938,6.349574774
6.4050,-17.89820404,13.85622059,15.43390536
6.4100,-22.17554613,14.37607478,20.66241393
6.4150,-32.1865157,18.34429976,7.767122432
6.4200,-20.82160905,8.698776093,8.30222675
6.4250,-22.32929376,3.501814202,1.126882005
6.4300,-14.80497296,-6.993043838,3.803595198
6.4350,-15.14816838,-15.34700096,3.584595369
6.4400,-20.6252877,-16.5712081,8.844950488
6.4450,-29.75870701,-13.59861102,9.17658619
6.4500,-30.89125263,-15.90491691,8.222923484
6.4550,-31.57146033,-16.64796353,3.022255393
6.4600,-21.91381929,-3.214296667,10.34104453
6.4650,-29.2958598,-10.6706171,7.460028629
6.4700,-44.58048882,-11.09786616,1.779115065
6.4750,-27.47492609,-4.830768953,-0.6175804386
6.4800,-14.01280084,-5.121393785,2.907032487
6.4850,-10.74719783,8.69576009,-0.5809097889
6.4900,-18.03462883,-0.416172689,-2.315330433
6.4950,-22.60665491,-1.169846442,1.397433835
6.5000,-35.51003825,-1.761893874,0.03434579561
6.5050,-32.07539596,-8.554316537,-2.08549453
6.5100,-19.62500195,3.831071176,0.4849500855
6.5150,-22.80548854,-10.35923259,-7.734950312
6.5200,-3.381194554,-5.981661562,-10.84402139
6.5250,7.184676423,-15.43432941,-18.7542313
6.5300,4.752992894,-23.66206656,-16.25979063
6.5350,-10.73138363,-30.03514634,-12.15414365
6.5400,-17.11533051,-13.35195471,-4.619706667
6.5450,-18.84345983,-18.15220024,9.356319654
6.5500,-10.7316231,-16.20442067,2.409011909
6.5550,-3.181701571,-21.42341773,-5.13902417
6.5600,-0.9021502129,-23.12715539,-6.689728118
6.5650,9.254753812,-21.60120322,-8.013450559
6.5700,4.685126449,-35.41621517,-3.415937277
6.5750,0.9000340976,-13.87053712,2.578112427
6.5800,3.67595554,-19.09985157,-1.188003547
6.5850,14.26380234,-18.25060172,-1.617000205
6.5900,16.35045625,-32.61076968,3.340888802
6.5950,22.27226148,-18.22451017,-3.478337732
6.6000,13.40419623,-28.10274039,-4.262006238
6.6050,14.90606497,-22.8422325,-1.964518396
6.6100,7.083408377,-18.72980945,2.089601992
6.6150,4.934209421,-17.69130236,-2.312695048
6.6200,29.40738908,-18.17549364,2.315249853
6.6250,25.04662554,-30.19426351,-5.134070326
6.6300,14.11593831,-23.37510895,-16.46598598
6.6350,9.744000444,-40.74330732,-17.72215023
6.6400,18.0836097,-29.2420481,-10.55712872
6.6450,18.42665964,-26.38176632,-14.88103575
6.6500,8.769778291,-16.24434921,-15.67166975
6.6550,15.15723461,-27.71566679,-9.339613687
6.6600,10.07688088,-19.46600766,-7.563252312
6.6650,2.050119665,-15.88791783,-6.982550292
6.6700,-1.977836341,-1.136518492,-6.2743358
6.6750,-0.7191251484,-9.49171907,-4.245716611
6.6800,11.03531491,-13.90966363,-0.2440849824
6.6850,1.364982915,-8.468784694,-13.10865491
6.6900,16.84683919,-15.39887978,-13.3024684
6.6950,13.94578724,-22.36044477,-14.08516803
6.7000,21.6492253,-18.09774101,-4.296422076
6.7050,5.168935435,-19.44327947,-9.421706754
6.7100,11.43503142,1.65457977,-13.71852019
6.7150,9.077671838,-5.273516019,-10.49606164
6.7200,5.765977235,-0.6226769008,-6.728765325
6.7250,10.45570151,-4.120768601,1.730762127
6.7300,10.27803264,3.570846216,3.978496992
6.7350,4.128766706,-8.200953253,4.182225194
6.7400,-1.941035633,-8.449991808,2.374537583
6.7450,19.7082011,-17.25071412,3.065739254
6.7500,33.76035826,-1.81864736,-0.9949841902
6.7550,35.27426684,-7.1079526,-9.754762942
6.7600,31.45640819,-15.05546512,-6.188707358
6.7650,28.21949869,-7.26785388,-7.56522342
6.7700,25.72384292,3.299420754,-1.721922706
6.7750,8.164296118,-8.340780347,-0.6613971125
6.7800,2.450707443,-12.86271445,8.549604207
6.7850,1.249260161,-7.372532713,10.09335256
6.7900,5.463793159,-6.101981925,8.320952598
6.7950,1.219268174,-7.276551698,8.811831821
6.8000,-3.940070041,-10.44113131,0.7448564251
6.8050,3.688405487,-16.36080813,-2.211008013
6.8100,7.647994639,-9.184963079,3.28131449
6.8150,7.739063272,-10.88314514,1.17923882
6.8200,10.30017213,-2.766259263,1.507566353
6.8250,12.84203509,-1.070587494,3.570200802
6.8300,11.72423602,11.36557915,3.380622918
6.8350,10.95797653,3.036583758,8.449463692
6.8400,-6.48956282,9.855666485,11.71697657
6.8450,-5.663513582,9.52831964,14.37273378
6.8500,-8.268010996,24.63147948,8.922060989
6.8550,5.93066186,7.51953798,5.308522838
6.8600,29.05504479,17.23119325,3.729403373
6.8650,22.78042705,-6.115297031,-1.984237751
6.8700,24.03841253,-8.749955826,1.175454003
6.8750,27.84416995,-0.9523176627,4.298907305
6.8800,14.72313049,-5.778564991,-4.690232823
6.8850,34.53082493,-14.33550685,-0.0188534942
6.8900,42.86020582,-18.82566111,6.972276503
6.8950,39.30203996,-23.45265977,0.3909640635
6.9000,33.66541388,-12.53383775,13.30882489
6.9050,24.98319221,0.4825511359,17.18795319
6.9100,-2.93012138,14.58323123,16.54128589
6.9150,-12.48758187,6.508479576,23.48947984
6.9200,-13.41907965,18.96522256,27.48264998
6.9250,-8.191855391,18.96732282,29.67049927
6.9300,-16.44947331,18.62722088,25.90758125
6.9350,-6.056351224,7.328379827,21.15976341
6.9400,13.05648473,12.37087813,16.74837621
6.9450,18.38899008,-1.41172876,9.927740741
6.9500,21.25382792,-12.96347537,13.16411729
6.9550,13.19573692,-2.631982989,7.413871186
6.9600,-2.617578058,3.542249585,1.479441332
6.9650,1.145550053,10.97340579,3.167195618
6.9700,-4.296464377,2.767375589,2.743706568
6.9750,-7.837690232,20.19228057,4.349809967
6.9800,-13.30545054,24.00338506,8.934976273
6.9850,-35.98748819,43.96267956,8.173271053
6.9900,-37.67671853,49.03656656,14.01268298
6.9950,-53.4477007,34.01106417,14.02550461
7.0000,-49.57541141,37.7857951,20.06523598
7.0050,-51.73735875,36.23493056,16.90392388
7.0100,-50.51791907,37.49194469,13.87908848
7.0150,-47.34007515,27.6074044,7.054770071
7.0200,-35.61210547,7.204912452,7.690417755
7.0250,-19.06604507,8.526129865,8.75176797
7.0300,-12.08080541,2.84682707,7.511521725
7.0350,-17.9499277,9.664598536,6.065786445
7.0400,-16.41528627,12.19166497,5.351454236
7.0450,-15.69675739,31.38609757,6.654629376
7.0500,6.557717895,26.90577071,9.778881102
7.0550,20.54446181,10.78483546,12.35680672
7.0600,21.09636489,30.05299914,8.093751708
7.0650,11.79024633,23.449829,5.933387841
7.0700,8.866696594,23.95560073,12.23167612
7.0750,-7.593011139,15.59045024,4.38072847
7.0800,-22.64364625,14.4578931,-0.3374554023
7.0850,-23.81891896,5.72492722,1.053009222
7.0900,-19.71359276,-1.19462673,4.493393211
7.0950,-7.476339292,-4.144241596,6.084826706
7.1000,5.086017257,3.738338006,10.2672268
7.1050,-5.191702312,-13.38962879,5.172700586
7.1100,-20.80742071,-6.42511079,3.049008808
7.1150,-11.27733163,-1.16837868,8.498184824
7.1200,-18.42975048,3.912969953,14.07213019
7.1250,-23.39376837,1.187071356,12.89419337
7.1300,-28.5293937,3.731978332,8.149642595
7.1350,-21.98224453,0.9054456137,12.19216761
7.1400,-10.80148309,6.741258682,14.25701253
7.1450,-1.847365354,2.861881897,11.29274956
7.1500,2.81451493,3.872145719,8.889016649
7.1550,0.3291854984,-0.5285971713,1.567372034
7.1600,7.84856914,-1.466064772,7.297190814
7.1650,1.488650085,2.774428286,1.502746089
7.1700,3.747894859,5.467114553,0.008311096305
7.1750,20.92706579,4.970596829,11.71610001
7.1800,13.01571302,-3.67562298,0.2635110504
7.1850,29.05186856,-6.490378669,1.147955492
7.1900,31.66809183,-25.72802711,-4.588482674
7.1950,24.10961499,-32.76594834,-10.18899776
7.2000,20.54936232,-25.24313685,-11.90728128
7.2050,5.815603253,-14.29228171,-13.50892147
7.2100,-9.191887783,-12.4180498,-9.168476149
7.2150,-9.719733431,-2.724876765,-4.095643569
7.2200,-3.281669653,-20.93992834,-4.327157288
7.2250,2.566635884,-25.80204856,-12.54294409
7.2300,-6.047164462,-15.30156426,-13.65005046
7.2350,-2.41761681,-18.21101336,-13.86799482
7.2400,-9.932394244,-20.65111365,-5.522301869
7.2450,-13.76817081,-8.815518238,-3.886986573
7.2500,-26.24899828,-13.98747572,-1.590387726
7.2550,-38.50293366,-20.50310055,-2.640532075
7.2600,-50.48925981,-9.479684678,-4.036693441
7.2650,-67.5731015,-11.9628055,-13.93127273
7.2700,-62.58912334,-16.45381319,-2.966186715
7.2750,-54.50357151,-8.262001239,-4.412380413
7.2800,-59.05031883,-22.69344273,-7.878742354
7.2850,-59.86162909,-26.43286936,-10.14605138
7.2900,-70.43639334,-25.1309452,-14.03369405
7.2950,-63.56083924,-12.57393047,-13.82889174
7.3000,-53.66949196,0.7876212186,-0.8757295666
7.3050,-56.88867803,-2.818595729,2.519956451
7.3100,-38.55116219,17.3204231,5.907038138
7.3150,-34.05502964,-2.603665953,3.221240221
7.3200,-26.95518224,16.45591079,-4.003708776
7.3250,-7.226189235,6.447778159,3.707285276
7.3300,15.07804977,-1.460352651,9.793425743
7.3350,19.65888988,-2.157025463,6.556653046
7.3400,32.32188001,2.872806049,13.87666648
7.3450,37.88486042,-5.860888145,10.5436708
7.3500,54.7981287,-2.21413692,5.207644425
7.3550,64.07164282,2.973840206,1.674984175
7.3600,61.19156086,-3.155467333,-4.565282009
7.3650,69.67033668,-1.680953944,0.5174945628
7.3700,57.23098201,1.138569011,1.300514591
7.3750,47.56137983,9.497944497,-7.046761465
7.3800,39.78833705,6.19240451,-4.216367192
7.3850,30.96871618,4.669580571,-4.383282372
7.3900,16.83748222,-3.94538522,-6.834182351
7.3950,14.07482607,5.706170695,-7.127828405
7.4000,0.4255921922,11.61730729,-11.56542984
7.4050,-10.12647298,15.47427857,-9.391232059
7.4100,-15.05127339,6.351382831,-12.15277144
7.4150,-19.73065631,3.270037058,-17.8901076
7.4200,-25.20702728,-14.99310782,-11.0505912
7.4250,-36.34864383,-25.68432206,-12.87952565
7.4300,-47.11465,-20.67296742,-17.53274422
7.4350,-63.54061524,-9.695164237,-20.50676251
7.4400,-61.50688234,-21.3177967,-6.816679154
7.4450,-73.50800191,-13.48454423,-11.18046945
7.4500,-64.88507536,-5.132447892,-5.797839616
7.4550,-60.73241118,-15.37706857,-4.878157296
7.4600,-53.33492165,-15.36853757,-7.323118274
7.4650,-41.54118666,-22.02779248,-5.24323806
7.4700,-27.85421281,-14.79566044,0.9675873143
7.4750,-24.94619739,-13.83569605,5.079354979
7.4800,-24.49278949,-1.066003045,8.711431358
7.4850,-20.64972073,2.567389418,14.61188108
7.4900,-18.61402002,7.022957665,18.96808362
7.4950,-9.289928917,17.05020175,15.37903333
7.5000,-6.838919356,15.26586321,12.4759107
7.5050,3.157137594,19.27440863,8.678684739
7.5100,-9.050558516,12.39041942,6.107930835
7.5150,4.271716225,10.05790739,8.152768213
7.5200,18.03133593,22.44655904,5.657526073
7.5250,22.73150393,10.60159356,7.094761991
7.5300,15.59060617,2.693445457,-2.122858386
7.5350,25.26323785,-1.611997648,-2.728230224
7.5400,29.18726282,-4.046362653,-7.003127364
7.5450,16.84045003,-16.71864247,-8.990272874
7.5500,7.664845103,-3.561512495,-9.563713942
7.5550,-0.2360945401,-2.996549061,-8.551432201
7.5600,-12.7834075,4.416872382,-7.462839778
7.5650,-19.64389492,-0.5192134167,-8.625470473
7.5700,-13.92934092,7.36087248,-0.7400943414
7.5750,-16.57881547,4.050829771,-3.852236499
7.5800,-19.91337769,-3.128278268,-3.009947028
7.5850,-13.21238106,-4.566668378,-1.985334054
7.5900,-24.77106075,-22.66416971,9.541397642
7.5950,-16.55556326,-10.68246723,10.11427551
7.6000,-18.10005726,-24.39643197,4.469005598
7.6050,-17.79915007,-28.27396966,-5.807669831
7.6100,-7.782457799,-23.67804558,1.76553191
7.6150,-5.589983269,-33.69691831,14.27480051
7.6200,-5.772798677,-30.80622051,19.94388249
7.6250,6.236082749,-21.43486185,15.45406394
7.6300,12.08979718,-25.24492913,9.30839415
7.6350,22.51334004,-16.30640106,4.569681828
7.6400,31.76314469,-14.45764051,14.41727299
7.6450,29.90918842,-10.83666905,16.10534975
7.6500,17.73677267,0.3625893007,17.05983258
7.6550,15.48627425,1.598480397,22.97047278
7.6600,1.84169885,7.718558309,27.44282792
7.6650,-7.225500122,19.2566003,33.0076217
7.6700,-10.07581859,21.58905813,34.28380201
7.6750,-24.29319902,9.109372906,15.96446839
7.6800,-14.46220837,1.008997904,-4.781655224
7.6850,-3.68753142,-6.878133117,-25.16124552
7.6900,29.45569393,-31.0299052,-7.974550013
7.6950,41.41667175,-49.9241403,-1.296362327
7.7000,45.80463847,-47.69845351,1.628198575
7.7050,34.71737222,-21.27557911,4.050642338
7.7100,12.64172343,2.118869186,19.03265843
7.7150,-18.11082677,23.68209558,40.72895153
7.7200,-44.70507935,44.9011416,57.66084219
7.7250,-68.79030648,78.61866155,40.46370709
7.7300,-59.37574633,58.74860716,31.52229324
7.7350,-41.67778186,32.35083232,13.35038128
7.7400,-16.69104189,15.40114242,12.47523671
7.7450,-0.9626552162,-7.327940449,5.889582137
7.7500,4.57482013,-21.49012024,10.28142119
7.7550,-1.534947551,-34.85288219,19.07492748
7.7600,-24.17837426,-14.02903168,28.64850979
7.7650,-54.64260673,-10.11545631,20.74660023
7.7700,-41.66147539,24.60531427,16.71761236
7.7750,-37.73332563,16.7021348,4.058124052
7.7800,-34.28314986,2.07119361,3.574693303
7.7850,-21.45309285,6.69505637,-0.6184548298
7.7900,-8.154275531,16.33003,0.1897175254
7.7950,0.08732205919,-11.05209533,6.72151391
7.8000,-0.6312686411,5.203980186,15.17062554
7.8050,3.220605204,2.250153749,27.78949526
7.8100,-24.48966271,4.642383602,29.1260433
7.8150,-37.29053546,16.25490382,38.31434817
7.8200,-55.30986265,28.00996798,38.86976124
7.8250,-65.81836712,32.28145362,33.25356516
7.8300,-79.24721756,37.70339132,26.26879091
7.8350,-77.89803939,36.74161899,39.08801956
7.8400,-79.12389003,21.13903269,42.80299565
7.8450,-93.76660475,29.5625491,36.07428984
7.8500,-107.854796,13.9181868,23.9469232
7.8550,-112.5561566,15.12379571,17.42001537
7.8600,-99.40771134,18.83135883,14.24724759
7.8650,-106.3970964,6.961031324,11.27524118
7.8700,-95.1736478,4.339242402,15.61407491
7.8750,-105.6718381,10.10336833,12.74016102
7.8800,-107.1359525,0.08058195638,11.67789573
7.8850,-95.03221142,19.35640932,16.1347797
7.8900,-93.1569975,9.595372956,19.38539906
7.8950,-90.7275084,7.349864322,25.30297347
7.9000,-83.63220014,32.09808562,32.02412234
7.9050,-75.28897463,15.10687746,34.45660457
7.9100,-49.15806576,16.48507979,33.12115287
7.9150,-45.96514844,4.78343222,24.02593865
7.9200,-60.72000558,-5.597469575,21.54511963
7.9250,-74.45195489,9.270102718,16.28492116
7.9300,-72.286496,1.674647892,28.79672654
7.9350,-68.579607,19.66605341,33.91376646
7.9400,-65.22823393,-3.033919018,45.93796351
7.9450,-73.27310564,5.49849867,40.55279907
7.9500,-64.64539373,-1.236830436,35.22585934
7.9550,-63.2952725,4.748250527,28.64298091
7.9600,-65.55076169,10.31697655,32.94511178
7.9650,-56.77656754,9.462040966,42.30993536
7.9700,-56.39880652,2.490989983,46.04826501
7.9750,-60.21845008,-11.89892619,40.24931254
7.9800,-63.93325726,1.217364309,39.57941818
7.9850,-48.43236617,7.382616171,40.43761661
7.9900,-42.73153815,13.47088323,41.41246664
7.9950,-30.64980451,4.820913833,47.79995109
8.0000,-37.59879369,5.383085337,58.42111458
8.0050,-49.31295001,22.43635914,56.41079398
8.0100,-56.60164825,12.07637826,63.32116877
8.0150,-53.32523227,24.53739257,62.28656169
8.0200,-47.68818422,30.7590972,55.20980288
8.0250,-46.46301272,6.938643629,55.9315844
8.0300,-46.2116475,23.34823049,59.21895195
8.0350,-46.6489621,15.18881004,56.69399181
8.0400,-50.61287049,13.82292666,54.43724748
8.0450,-54.13418947,21.38581033,45.04955859
8.0500,-42.86101621,28.43776305,45.11258657
8.0550,-35.28154041,18.61416628,47.57288112
8.0600,-22.50118214,24.0160386,52.01022648
8.0650,-26.0485176,29.32452869,52.73802797
8.0700,-24.94215951,28.947907,51.1522655
8.0750,-28.94456399,13.09708728,50.325611
8.0800,-43.21388988,29.59682311,52.21701118
8.0850,-21.79135055,31.18280383,55.48109662
8.0900,-24.14977181,20.65004386,57.666249
8.0950,-44.65266819,19.71434268,68.60583078
8.1000,-44.36222996,37.63580382,76.48360108
8.1050,-39.09486418,35.85273203,81.15028352
8.1100,-31.1399639,31.53793621,73.47519166
8.1150,-17.01056222,25.50231887,62.95301061
8.1200,-25.02044356,13.25618054,59.71287443
8.1250,-21.09906637,18.96432758,54.84723676
8.1300,-27.96296532,6.99778712,48.45309156
8.1350,-3.034986363,9.981460142,41.73972066
8.1400,-10.22570858,15.41427804,47.32923254
8.1450,-3.404809217,16.60137484,55.35510405
8.1500,-0.431030693,6.068906126,74.97573401
8.1550,-15.99378059,17.83105082,91.97849452
8.1600,-18.67496401,28.83914084,97.58216173
8.1650,-17.43408235,25.88137326,89.8684282
8.1700,-12.71467719,16.98521994,75.55701542
8.1750,-11.85856719,23.36370765,55.56713114
8.1800,-8.717006066,14.74908449,53.69972381
8.1850,-15.48110407,19.45724038,67.16834442
8.1900,-14.55179058,18.04682938,84.48802371
8.1950,-10.24699257,18.99520066,86.54199865
8.2000,-10.50009454,0.2660009665,72.47975729
8.2050,-0.7654704974,-8.202854013,51.85361928
8.2100,11.86057221,-13.46574642,50.18779758
8.2150,8.957274334,-27.30746045,43.45906455
8.2200,21.02789401,-12.49395106,47.33137391
8.2250,15.35624864,-14.02066736,52.49852077
8.2300,14.50183864,-14.07575539,48.02503128
8.2350,6.88144033,-13.40121197,54.59233925
8.2400,0.9274372219,-5.064806186,66.23618746
8.2450,-11.07366041,-2.914773012,74.84967213
8.2500,-10.17090558,1.469307986,75.74576919
8.2550,1.042435749,11.96126393,63.13589426
8.2600,16.46553483,-9.30210068,50.91158679
8.2650,21.08855286,-11.60604733,45.41958719
8.2700,22.5983329,-26.74172907,47.55204383
8.2750,18.06244591,-13.27192151,57.48313826
8.2800,12.03656634,-16.57503251,59.23341525
8.2850,8.027283115,-12.59937501,59.72825058
8.2900,-2.057912553,-10.23955122,69.50620601
8.2950,11.41865196,-3.319447812,60.87784153
8.3000,22.26769918,5.744472743,42.96267446
8.3050,42.40984182,-21.3588574,22.60173449
8.3100,42.71675956,-37.62479127,21.43944395
8.3150,26.13807256,-38.278643,34.83487115
8.3200,-4.366198383,-16.00375138,52.29761644
8.3250,-0.5613066743,-22.42217689,48.02094274
8.3300,3.912681396,-9.316978671,53.99923944
8.3350,2.536668191,-13.85273536,58.51200605
8.3400,14.31796342,-20.156074,58.25092262
8.3450,30.98011734,-18.60505431,53.39316652
8.3500,33.63447942,-14.24636284,53.96577277
8.3550,34.02563706,-17.58964117,40.50917008
8.3600,15.04419653,-16.75544869,39.48727088
8.3650,19.48358734,-9.493897928,29.90111359
8.3700,29.9888965,-15.32584468,32.64832404
8.3750,28.08934646,-20.76971499,44.9363982
8.3800,25.22646205,-19.00110716,59.26712209
8.3850,28.31017833,-15.10281315,42.3410314
8.3900,40.74476042,-14.89565477,7.437969388
8.3950,45.36302802,-26.51037088,-7.186704055
8.4000,32.54451504,-40.10405557,7.192704982
8.4050,29.10842048,-29.96087775,36.07553003
8.4100,15.87653087,-22.75826322,62.77993658
8.4150,16.86634693,-31.95556588,62.58860758
8.4200,12.08358758,-38.07987643,54.81301167
8.4250,23.26058979,-34.99753571,33.34414833
8.4300,32.1885875,-29.90181117,14.29486026
8.4350,25.79023019,-43.85069456,9.168326172
8.4400,26.61771692,-38.84963974,20.13906826
8.4450,10.63817715,-43.00571339,35.94307394
8.4500,25.41686763,-33.10663068,38.31940029
8.4550,24.54563565,-32.08754482,36.22617099
8.4600,33.19682969,-32.17712628,30.68678618
8.4650,25.27721455,-31.67110842,20.68651792
8.4700,36.03162188,-32.0591381,1.015597039
8.4750,28.32815718,-36.54647743,-23.844563
8.4800,31.86480257,-24.69333541,-32.29410071
8.4850,24.5236454,-15.00758881,-28.19679826
8.4900,32.32488301,-17.79726831,-2.72850526
8.4950,34.22193176,-14.91154207,20.42092974
8.5000,27.62379505,-20.12254283,26.21619616
8.5050,26.41175182,-17.19126112,18.66265518
8.5100,6.964085004,-25.33593514,15.46984366
8.5150,-1.109544121,-32.73422858,12.99420706
8.5200,-6.738692663,-17.87848733,30.67715868
8.5250,1.912975853,-15.76446389,35.71017315
8.5300,10.31348031,-15.71948909,22.26533096
8.5350,15.90491408,-17.65874872,-8.663263886
8.5400,2.969369231,-36.20316763,-39.31415752
8.5450,9.378588585,-35.25035395,-55.00114055
8.5500,11.00752746,-43.84058715,-34.8519433
8.5550,15.6180324,-36.27678096,-7.770786868
8.5600,27.63715759,-15.21546444,10.77890387
8.5650,34.98010162,-8.715997603,3.635733131
8.5700,16.42104612,-21.16875788,-4.890663039
8.5750,12.62605251,-24.20996258,-28.74256133
8.5800,23.68048978,-16.6817537,-46.84325926
8.5850,23.37596221,-36.17643771,-48.93643385
8.5900,21.99963123,-34.39578194,-19.81690812
8.5950,33.13133812,-32.24183563,4.008940933
8.6000,34.23217427,-38.71361141,28.88839726
8.6050,32.07725768,-31.98913779,32.47254667
8.6100,16.67245482,-39.33389899,24.96583291
8.6150,19.50406349,-48.17947364,8.248803848
8.6200,33.07871693,-49.74047546,30.06090866
8.6250,65.60431122,-52.00138224,27.70688288
8.6300,75.62570061,-55.00130148,29.00386119
8.6350,59.02934774,-52.92122243,22.38075473
8.6400,44.93658805,-45.14455369,-2.504464842
8.6450,36.40843924,-23.54697554,-33.55601407
8.6500,39.72156605,-26.53216504,-66.42864547
8.6550,72.79912228,-29.19410024,-88.92729446
8.6600,62.14493695,-22.64230615,-62.03252167
8.6650,46.57628542,-17.3428474,-53.51285588
8.6700,45.43143388,-14.1439424,-42.86750953
8.6750,61.37042826,-13.14285269,-0.6687054182
8.6800,77.94134397,-23.04636789,68.80376551
8.6850,88.41856828,-14.9891199,128.7897956
8.6900,96.55164233,-14.19553529,126.8937352
8.6950,89.83829249,-10.27554323,98.90342261
8.7000,71.76697222,-17.31644317,43.05944655
8.7050,59.16121195,-33.05163827,-22.37962236
8.7100,99.85878771,-20.67862825,-88.18083967
8.7150,119.2287658,-42.47107733,-113.9714278
8.7200,83.63395695,-54.08851716,-103.0210125
8.7250,38.33323366,-46.65336019,-99.11107919
8.7300,22.86445616,-55.12812085,-93.64657003
8.7350,40.30866772,-45.79547935,-46.748218
8.7400,62.9280568,-44.14086153,0.8340646046
8.7450,56.50340255,-27.79920469,22.10011699
8.7500,35.12615478,-2.445352433,-7.08277457
8.7550,13.35912675,15.63871905,-44.33745693
8.7600,3.669102077,-5.816492421,-55.85562817
8.7650,2.149506139,-24.39609422,-26.44869773
8.7700,22.98192123,-9.808103688,8.907015051
8.7750,8.646299086,1.2395345,18.57493433
8.7800,-5.922566331,17.02538778,-28.62767156
8.7850,-6.758253403,24.04113599,-74.49045794
8.7900,4.637791481,5.98957296,-50.17507138
8.7950,20.09619581,-19.79580826,-4.2863607
8.8000,12.59033085,-1.865627975,29.21319846
8.8050,-11.44445541,3.653923693,13.67936029
8.8100,-24.23307411,3.3232809,-8.821582286
8.8150,-29.44574515,-8.759673373,-14.89593815
8.8200,0.7818353104,9.885884388,-15.37440945
8.8250,25.41331778,3.274917152,-11.83356788
8.8300,18.81352143,-12.48769691,1.563085768
8.8350,-12.9726283,5.11830746,-17.52628095
8.8400,-35.88247696,35.00091855,-74.66962853
8.8450,-56.48118108,52.30801216,-117.3240973
8.8500,-63.46941205,36.28519843,-104.8392272
8.8550,-44.6352624,26.499238,-101.431897
8.8600,-42.27246031,22.07072588,-59.57958809
8.8650,-24.36943305,18.78374095,-19.80323947
8.8700,-0.5430784921,7.470742263,30.24412522
8.8750,21.49844768,-16.12021909,80.47169418
8.8800,36.58655081,-30.09456739,112.1464775
8.8850,20.77373995,-14.27348742,107.1767858
8.8900,-4.448062976,-1.222332226,35.28196879
8.8950,6.361301649,5.641894113,-66.0744764
8.9000,7.493547894,-33.35456103,-88.24890759
8.9050,32.83386848,-55.02593995,-44.69916184
8.9100,35.60442401,-63.33439397,-8.838059877
8.9150,25.255685,-26.89947051,-2.961401904
8.9200,12.25647357,-8.722095288,-38.66909663
8.9250,-0.5093193934,-8.943981158,-80.01833718
8.9300,12.08696501,-2.459750307,-101.1882921
8.9350,18.38263728,-16.51447789,-79.62316261
8.9400,9.225665103,-5.935541552,-69.53933648
8.9450,-13.6451924,39.02432388,-108.0769999
8.9500,-47.44904147,49.46909481,-140.6647249
8.9550,-54.02747254,21.54553184,-137.1077056
8.9600,-20.29774253,-39.13851038,-58.0635744
8.9650,17.07286296,-26.82099143,20.76642806
8.9700,21.73497554,0.3962209112,34.25102688
8.9750,4.359508398,19.68618648,-7.182067696
8.9800,-1.324966408,2.327513031,-31.62810846
8.9850,10.22857375,-16.07255348,-18.58582206
8.9900,27.47047958,-21.69404086,-10.73991086
8.9950,18.34250903,-17.20010975,-34.66204399
9.0000,8.490990692,2.291812511,-77.46683457
9.0050,15.17968677,-11.80656014,-100.9794224
9.0100,32.30370995,-47.63863072,-72.19426137
9.0150,37.38623116,-19.99681983,-40.44406544
9.0200,23.09802048,12.7596731,-59.98143713
9.0250,11.68848187,25.3790611,-86.07647847
9.0300,24.36397207,7.276266815,-90.75289645
9.0350,51.25087763,-18.23564686,-70.61025407
9.0400,74.7132311,-20.80854173,-39.46191667
9.0450,64.31000369,-13.73856119,-48.56201022
9.0500,30.81548207,0.507435476,-78.57536916
9.0550,1.091512631,-3.713725894,-95.2136374
9.0600,-4.326921637,-19.40675879,-98.40975365
9.0650,25.59645493,-25.32237658,-60.32198559
9.0700,66.39083499,-36.11387532,-6.352776083
9.0750,102.2928436,-76.08631793,47.36307314
9.0800,122.331657,-71.9026246,79.9002583
9.0850,106.1012683,-31.09865017,38.60707903
9.0900,73.67014865,5.65958528,-43.92038191
9.0950,54.24643275,-13.45118839,-59.46452033
9.1000,75.30954148,-76.52062068,-24.51248849
9.1050,109.648518,-69.78358935,13.50081198
9.1100,146.7175903,-16.89094225,-3.663868736
9.1150,144.8005898,-12.76307795,-19.15892018
9.1200,151.302918,-45.18230149,10.62850451
9.1250,153.9691211,-61.78760243,39.48107395
9.1300,153.5781384,-28.34411914,34.87895915
9.1350,116.1012193,7.629278729,-18.59406965
9.1400,76.49431455,24.53111386,-66.01209421
9.1450,47.65101583,0.7002949715,-96.63333161
9.1500,58.07306169,-13.31132813,-88.19995752
9.1550,50.47674021,-17.51309132,-67.12095421
9.1600,28.86672387,39.19288499,-51.5179587
9.1650,-31.20999252,19.97584338,-93.7418695
9.1700,-25.59943548,9.848951215,-69.44783301
9.1750,12.63243983,-5.636354403,-12.77084777
9.1800,39.99083585,3.989589339,23.51384098
9.1850,30.34326108,17.8874221,2.040835552
9.1900,6.525514394,-3.190312851,-3.337743291
9.1950,-4.280773344,-13.71219442,-15.33022153
9.2000,-24.96529121,-7.435076641,-22.42582051
9.2050,-37.6563333,19.88744127,-29.11052213
9.2100,-28.33284571,-3.462918561,-43.62407783
9.2150,-6.649238233,-46.98471197,1.349536184
9.2200,14.64555892,-40.2744727,45.42521436
9.2250,13.47764938,-16.01705446,55.29858837
9.2300,-3.75165497,-14.96510005,11.86421453
9.2350,-18.83157135,7.521679683,-22.73312921
9.2400,-40.05806324,29.3709244,-53.95228764
9.2450,-62.85593147,24.0006625,-66.3222595
9.2500,-74.81795609,18.41313512,-44.26502042
9.2550,-85.96761606,27.78898499,-46.08570599
9.2600,-86.05214496,34.25465853,-47.94799936
9.2650,-65.45454324,-2.970057648,-21.32121933
9.2700,-30.33647447,-40.18291328,43.72679322
9.2750,-3.157414063,-11.71758773,62.13095372
9.2800,8.314506102,2.896521837,56.84456586
9.2850,15.17964719,-14.83665515,65.46507327
9.2900,9.056505649,4.164077023,58.14414013
9.2950,-24.08946417,43.25222909,43.55716401
9.3000,-60.69014947,52.8922509,-2.570212735
9.3050,-75.48670069,17.46621643,-15.78664866
9.3100,-62.33769193,8.57490227,-2.806718161
9.3150,-53.97690502,5.444331117,20.06061555
9.3200,-41.44578473,21.71054727,36.12398166
9.3250,-38.80937154,13.71853965,17.39527435
9.3300,-16.00178777,6.287733322,11.71665194
9.3350,10.21830796,-15.98852668,43.13365238
9.3400,21.72583537,-2.496159202,66.92694555
9.3450,7.23116259,31.55029018,40.56876819
9.3500,-12.05078893,33.33990611,-16.04873804
9.3550,-10.72548882,-1.654563068,-20.99536056
9.3600,10.11352968,-13.07504964,17.61537178
9.3650,10.84672333,14.80695482,25.42875095
9.3700,-11.00523003,14.9329183,-6.163312979
9.3750,-26.53713371,7.554666653,-22.81515094
9.3800,-17.57594053,-3.536000722,-31.2315568
9.3850,-7.818622362,-21.34095717,-22.45906441
9.3900,-5.110679241,3.804249738,-18.22573004
9.3950,-16.64389714,-7.716505273,-19.06066889
9.4000,-8.584853141,-16.34462151,-42.68935107
9.4050,12.81116045,-37.52749807,-26.85917888
9.4100,33.59739459,-15.84693141,-14.89657305
9.4150,25.94476158,12.35027799,-8.637426585
9.4200,1.827466074,12.83028544,-16.98608739
9.4250,-10.00075652,-2.455472486,-33.70322263
9.4300,3.337310298,-15.78281933,-30.65293835
9.4350,24.21710362,-9.404808503,-26.052918
9.4400,25.65810997,-16.03474971,-33.86249047
9.4450,41.33119544,-18.4168767,-46.08332557
9.4500,48.66783675,-48.41404042,-26.74970438
9.4550,43.89397855,-20.24821229,-34.21803863
9.4600,29.80934168,15.30389775,-57.11391028
9.4650,10.47577787,3.126486149,-51.67978248
9.4700,11.42429765,-18.97126816,-44.60389428
9.4750,13.52606235,-22.79404208,-43.60641783
9.4800,12.2334534,-7.381410902,-57.90757441
9.4850,-7.224656354,9.538000846,-77.65487694
9.4900,-17.11698248,8.196533303,-76.48015788
9.4950,-11.85734487,-14.20173951,-62.73738709
9.5000,27.569725,-13.18033533,-29.47295801
9.5050,46.73750507,-25.57013099,-21.30693625
9.5100,47.9172794,-11.70497732,-21.20872549
9.5150,16.47048088,3.711398217,-29.41300734
9.5200,-10.03580681,4.376352971,-41.34046794
9.5250,-12.34350629,-6.129965969,-41.70200777
9.5300,-2.089234852,2.425299242,-47.10803507
9.5350,11.38098421,-3.237192525,-40.81355014
9.5400,30.31906478,-30.21662613,-17.84841348
9.5450,30.06792628,-39.12632624,-7.507241277
9.5500,20.99665627,-9.186628466,-18.89643137
9.5550,-11.31906789,8.02490213,-50.35918261
9.5600,-30.64403767,4.160423516,-53.73982293
9.5650,-39.02592272,-14.4317879,-38.95564417
9.5700,-36.28430623,-5.659315661,-28.68847628
9.5750,-33.47986422,5.986723163,-36.60658256
9.5800,-5.407920314,-3.194813678,-40.18007779
9.5850,15.87307375,-3.580874072,-18.74607789
9.5900,13.86382506,-1.990953442,-6.954629427
9.5950,-8.135755655,7.440028784,-12.25962544
9.6000,-11.66107014,36.90285692,-25.47040628
9.6050,-5.581786403,2.206356203,-33.30585411
9.6100,22.92487744,-40.40683689,-17.82574403
9.6150,31.72492514,-18.67642422,-15.70571202
9.6200,6.576055066,0.6744216001,-31.79519839
9.6250,-38.6030445,7.338850204,-63.43866048
9.6300,-45.1469627,-0.135203004,-45.44963285
9.6350,-24.6899828,-17.96512328,-22.52075759
9.6400,13.7889588,-20.09862282,-26.10897559
9.6450,43.95183868,-30.47661338,-20.53181014
9.6500,62.40871867,-17.36622243,-15.98741685
9.6550,28.92523061,-12.75898176,-8.505159374
9.6600,-19.48369628,14.38789864,-35.79838153
9.6650,-61.5676633,29.6627918,-54.50546154
9.6700,-64.37254178,-2.309698372,-53.64289218
9.6750,-29.30600811,-24.89517403,-30.53122666
9.6800,1.351212684,-28.80884776,-13.65540401
9.6850,4.75044983,-18.10861085,-9.200585683
9.6900,-14.62458218,3.986120595,-22.39054107
9.6950,-50.8712646,-11.75422901,-32.46418802
9.7000,-67.01695405,-8.294834906,-32.41594975
9.7050,-61.63442896,-13.74636862,-9.290928689
9.7100,-51.80565672,-13.99956373,-20.90767315
9.7150,-20.55662383,-12.51807966,-22.05135781
9.7200,-1.992944378,-19.88441008,-7.008920786
9.7250,-6.72208776,0.5845257869,-11.67025584
9.7300,-9.727157099,2.975729688,-17.0423018
9.7350,0.5779735846,0.7107408518,-16.689394
9.7400,5.816192837,-10.79920787,-32.83932986
9.7450,4.057464619,-8.487982479,-36.37540467
9.7500,-3.316253415,-10.80140002,-46.77425698
9.7550,-4.244631,0.8985076365,-34.21708129
9.7600,-26.52117199,4.097002371,-43.45448411
9.7650,-39.56129588,5.336486843,-38.60446523
9.7700,-28.03421924,-36.87392212,-31.78498227
9.7750,0.4721055432,-37.43351486,-21.76440672
9.7800,-5.471044935,-12.33312146,-30.18856038
9.7850,-22.08159359,11.25804512,-43.01941428
9.7900,1.313109314,-17.49018696,-21.62927387
9.7950,29.8231186,-28.73638106,8.036145159
9.8000,36.84499386,6.279411873,3.94170937
9.8050,13.7316781,29.24798252,-24.48858663
9.8100,9.203394278,-8.093841841,-27.54526507
9.8150,43.60546817,-14.46888554,-7.900485367
9.8200,62.01816259,-18.28929349,-7.548370625
9.8250,45.79242534,16.41903694,-14.10525339
9.8300,23.63818493,25.94330918,-15.59310525
9.8350,9.252810881,8.066859212,1.745246684
9.8400,-3.733237896,11.2390011,-4.228742607
9.8450,-11.17223796,13.31351019,-13.15085299
9.8500,14.87972608,4.212991315,-3.980104206
9.8550,22.85657879,18.39439809,4.148537371
9.8600,14.17675943,9.573036069,3.230437916
9.8650,7.174686438,-9.384098502,15.84279441
9.8700,20.11278897,-4.629894595,22.95089608
9.8750,39.40332925,4.776919425,17.8337283
9.8800,38.7730342,13.03770581,4.183428366
9.8850,17.81197626,37.47051725,8.874888422
9.8900,-3.794768793,24.62701528,-0.8470071708
9.8950,2.548576671,13.32329906,14.62191122
9.9000,14.70792167,12.16184243,8.15101019
9.9050,26.36578933,-15.95787061,17.50281988
9.9100,20.96833066,11.4048405,15.95410597
9.9150,-15.8626286,23.98385057,1.851388366
9.9200,-28.06008645,13.9048915,-5.629580162
9.9250,-16.65293527,0.3540880505,12.76821171
9.9300,-19.53343617,15.77821264,15.79124398
9.9350,-38.73877514,23.65792078,4.911294972
9.9400,-24.47833297,-4.39446243,17.45157434
9.9450,1.737499445,2.241881023,8.086796431
9.9500,7.378380586,-8.494211693,4.735111291
9.9550,9.213534499,7.645878456,-0.2098599248
9.9600,20.98834009,-6.986575457,-2.536458079
9.9650,29.37131448,-1.011697475,9.430925634
9.9700,-3.390022055,12.8902126,-5.596936571
9.9750,-30.26850898,15.67955162,-3.065864519
9.9800,-38.08754601,3.219237868,-13.60588449
9.9850,-16.30112697,-20.08672793,-2.199785577
9.9900,1.405044653,-15.1452388,4.450388605
9.9950,-7.659240227,-7.841693212,-12.72742696
10.0000,-1.311716912,4.107461094,-11.38057898
10.0050,-1.712081064,0.8332547086,0.7684608142
10.0100,-12.96652314,4.919079235,-12.29449158
10.0150,-24.17299901,1.509739486,-15.66416913
10.0200,-15.90834575,-3.097646807,-9.124749144
10.0250,-19.89737011,3.167820163,-5.687752424
10.0300,-21.25920839,17.92862898,-17.1863685
10.0350,-15.86569508,-10.77972418,-27.90256357
10.0400,10.66665925,-18.84608884,-8.438179086
10.0450,-2.341934701,-14.96583694,-13.76958793
10.0500,-19.06557998,-1.467065079,-17.77904482
10.0550,-39.84201727,3.76449217,-35.08946206
10.0600,-35.03041399,4.431618398,-32.93255256
10.0650,-20.23012965,0.9732686903,-34.61085933
10.0700,-4.678924598,-0.02758629415,-30.88765015
10.0750,-20.20405662,-18.53989458,-29.24687286
10.0800,-8.971681652,-15.05997916,-11.86868165
10.0850,-21.55426988,-7.467124256,-27.6187514
10.0900,-24.59751878,-9.595955834,-51.81840135
10.0950,-20.91917407,-9.286747346,-41.06624565
10.1000,-9.445624549,-11.9292696,-20.50794587
10.1050,-2.755992984,-13.39433386,-18.79853657
10.1100,10.14575373,-3.650380933,-12.12528873
10.1150,3.769225986,17.18676348,-23.27803091
10.1200,-3.197805682,23.9856832,-23.03840289
10.1250,-4.13810615,23.25054208,-15.81032843
10.1300,3.273160803,22.02511794,-20.00914496
10.1350,-3.640943974,30.02969219,-27.03739089
10.1400,-4.940373177,11.10853623,-25.11703838
10.1450,-1.840443876,20.84575281,-34.0714253
10.1500,7.554896667,26.40605238,-34.42237732
10.1550,11.70530686,18.75703369,-17.62136575
10.1600,7.663086958,12.66358902,-12.1367878
10.1650,0.5196303269,7.009216721,-9.40191203
10.1700,-5.615634691,6.869450457,-16.36923151
10.1750,-9.236668579,14.52851733,-22.95350933
10.1800,-13.86543758,-10.06677992,-22.88802171
10.1850,-11.80919621,4.149252399,-19.39084708
10.1900,-6.547602677,0.2708010215,-15.43599348
10.1950,-4.094761421,-3.229243603,-5.101947982
10.2000,-9.149644299,13.05416886,-14.6769759
10.2050,-8.186076082,22.00216021,-10.63452443
10.2100,-2.044464541,23.55731553,-5.592624609
10.2150,-2.412538212,18.69633508,-0.3366492923
10.2200,10.71615464,18.8886405,-1.892581855
10.2250,15.2654367,5.577960371,-16.7319953
10.2300,22.54978171,-1.466024655,-6.521003691
10.2350,7.783858755,-3.581603368,-9.500203442
10.2400,-10.11332376,0.2025441218,-15.47970862
10.2450,-20.15232601,-5.909093333,-18.42592441
10.2500,-15.65631916,-6.429889146,-18.98786139
10.2550,-7.801025035,-11.59406462,-21.72355687
10.2600,-3.244392074,-17.90891975,-27.07040315
10.2650,5.192795859,-12.93614193,-17.08183803
10.2700,1.691962504,-21.96842963,-13.98317057
10.2750,1.475822693,-12.21757142,-15.70568297
10.2800,6.080003832,-13.6380878,-16.70850752
10.2850,9.584185512,-7.661908516,-24.58288612
10.2900,7.945273538,-7.617325887,-17.0204904
10.2950,-9.778461587,0.3189946089,-28.31975786
10.3000,-28.39127085,1.304081959,-29.29319221
10.3050,-40.05525084,-3.088005263,-20.98409188
10.3100,-48.0422077,1.119786873,-23.6996126
10.3150,-53.04071014,-16.17381509,-31.12302862
10.3200,-42.91715402,-17.7856929,-22.80479497
10.3250,-33.22298495,-9.579571379,-14.98681267
10.3300,-25.747636,-13.60751862,-7.447222754
10.3350,-31.19426584,0.996756321,-19.10574611
10.3400,-22.89391154,-15.71030874,-20.80123628
10.3450,-14.73400297,-12.32707099,-22.15878365
10.3500,2.610811002,-4.87784213,-22.86178912
10.3550,-6.778181671,4.515026277,-33.59286739
10.3600,-10.25825788,-1.408475362,-32.59034067
10.3650,-13.39671762,3.654506445,-27.84242684
10.3700,-28.89136774,-2.92373795,-29.17786818
10.3750,-49.70467734,6.671874332,-42.17648827
10.3800,-48.18919036,-2.624510519,-43.74033306
10.3850,-35.1163854,-20.5583916,-39.67713725
10.3900,-8.774258527,-28.34970646,-33.36243324
10.3950,10.35007588,-34.40915287,-22.8525097
10.4000,3.254155667,-15.09653353,-34.21169537
10.4050,-12.78350361,-3.146323713,-20.96722902
10.4100,-24.61681603,-2.677296674,-30.02536541
10.4150,-17.47853461,-18.64140027,-29.58107819
10.4200,14.74050704,-14.08187073,-20.99841652
10.4250,23.56726604,-2.641922098,-11.42216592
10.4300,17.00666964,10.66002409,-20.35334787
10.4350,3.694500092,19.96539305,-14.22596033
10.4400,-4.638177752,20.02976557,-15.83367394
10.4450,-6.477443462,11.25568297,-7.351882755
10.4500,4.043129114,18.22229416,-6.909313337
10.4550,-8.379191992,17.15533044,-18.17869694
10.4600,-19.10699155,29.55461173,-22.97946099
10.4650,-38.23275658,23.10981951,-30.02035879
10.4700,-36.74828502,4.593486201,-21.44388569
10.4750,-16.16920622,-27.65151972,-14.98356052
10.4800,19.65102288,-32.35721702,-1.204032473
10.4850,35.64386896,-29.22560034,3.376587924
10.4900,39.47147833,-10.78597126,4.000687481
10.4950,21.81557159,1.262158821,2.359368864
10.5000,11.29895099,14.13295984,-2.510987422
10.5050,-5.337338525,26.33421996,-12.32762412
10.5100,-21.23333156,19.48362831,-11.31742612
10.5150,-43.27939639,21.72179009,-20.3775237
10.5200,-40.6386226,32.25111837,-19.19421928
10.5250,-42.01260994,18.47166455,-24.22985052
10.5300,-27.86646244,8.495604963,-22.83499651
10.5350,-14.24968331,-26.60637317,-17.79702801
10.5400,16.78266173,-16.51808529,2.95455744
10.5450,14.67802214,-9.656828141,-0.9793995995
10.5500,8.332690778,15.17967061,-19.30509193
10.5550,-12.74030805,7.441431435,-16.02508677
10.5600,-33.2846123,-12.92305223,-18.89280098
10.5650,-34.10329048,16.63649314,-21.73305355
10.5700,-37.90154068,19.17108201,-27.67052243
10.5750,-40.23536456,10.5438964,-29.14097039
10.5800,-26.92550736,-1.491588313,-28.13349915
10.5850,-13.87830554,-5.740773976,-11.41556075
10.5900,1.300343594,-13.90927651,-8.925761285
10.5950,6.306461427,-18.33454632,-7.536168446
10.6000,17.82488904,-10.73632282,-12.98973951
10.6050,10.58333834,-13.76419901,-4.574200457
10.6100,9.002658098,-9.645514897,-2.924924309
10.6150,0.7750821632,-12.56328466,-18.42503825
10.6200,-0.6065352532,2.600522063,-19.41197218
10.6250,-5.302138549,12.61599097,-36.43457155
10.6300,-12.38727136,5.219596528,-39.74726359
10.6350,-10.63373061,1.781014224,-26.4997451
10.6400,-2.827837575,-3.216454327,-24.50949132
10.6450,4.40209696,12.97878771,-22.22289952
10.6500,5.5406533,6.771588516,-30.44679623
10.6550,5.196438897,4.612514954,-19.7847238
10.6600,6.832966539,-6.841126635,-5.943571989
10.6650,8.691819089,2.320148134,-6.050106984
10.6700,5.908048014,-7.318522225,-12.5200168
10.6750,10.57712677,2.159202774,-12.96131852
10.6800,10.42726727,-4.393161998,-20.62611556
10.6850,6.207510891,-1.659387791,-30.00317107
10.6900,6.913740912,-6.047933552,-20.88966446
10.6950,14.8641711,-3.018125376,-20.79214625
10.7000,20.04100904,-2.060681866,-8.836258479
10.7050,11.05577063,-11.35921134,-17.05041191
10.7100,18.75223585,18.28799733,-15.87179949
10.7150,13.04865654,-4.949355443,-7.31664088
10.7200,20.18747162,-13.56817434,-13.75786863
10.7250,15.24984757,-13.57365498,-15.94890221
10.7300,1.468800623,5.295395251,-18.05507485
10.7350,-10.98814309,10.69243914,-25.81526591
10.7400,-16.9325775,-4.532971346,-33.13145659
10.7450,0.3894658177,-7.238906388,-23.68062415
10.7500,9.081584259,-33.9277194,-14.25640821
10.7550,22.98429184,-13.62282357,3.878208866
10.7600,25.20766774,3.559844211,-18.15021698
10.7650,5.74374021,-8.78992314,-24.91560052
10.7700,11.21830302,15.05812313,-2.522060842
10.7750,3.171443574,-9.793803584,-4.720684019
10.7800,8.888412087,-1.137399639,-4.028422628
10.7850,0.7776480106,-2.761528237,-18.8803258
10.7900,0.9511118749,2.721843099,-31.60703131
10.7950,-7.816920403,-7.473827502,-26.37031892
10.8000,-10.19250926,-2.062717143,-29.52981662
10.8050,-17.79848784,-4.108006522,-16.07626458
10.8100,-19.17374793,8.231647042,-12.46836375
10.8150,-18.50528857,13.09379544,-21.49892416
10.8200,-5.404263894,8.170263844,-23.61726293
10.8250,9.16869928,1.076772401,-1.641960787
10.8300,13.21278886,-11.52580806,3.741961563
10.8350,15.84558603,-11.39003373,5.67776351
10.8400,8.438698056,-1.156884866,-11.09548288
10.8450,0.7335256726,10.88449829,-36.12838058
10.8500,-15.75344946,3.691946879,-27.49648172
10.8550,-27.50063188,-13.78094841,-30.10241246
10.8600,-11.02379136,-10.46333241,-15.24674026
10.8650,-1.257952459,-14.41323879,-25.61277035
10.8700,-5.956080389,1.678549778,-23.52607946
10.8750,-8.218935121,15.13148845,-27.03907112
10.8800,-11.2613761,10.18996957,-15.92034224
10.8850,-9.758658804,17.47473802,-7.426447163
10.8900,-2.48025854,12.41512479,-5.162007235
10.8950,2.096232019,7.549081491,-5.537278852
10.9000,12.76449718,6.507719659,-17.36980467
10.9050,10.47512873,11.0296297,-7.723412193
10.9100,0.1400621966,10.29991932,-22.19793624
10.9150,-10.53167555,-2.742919911,0.3175502455
10.9200,-3.696341498,-4.991487503,-4.206182108
10.9250,5.758149465,-2.64778047,-11.0246251
10.9300,7.449673989,0.5651735997,-28.48277329
10.9350,-16.98925371,-1.878775284,-38.9097291
10.9400,-22.97241361,14.6586729,-41.78188203
10.9450,-31.50856363,1.900479368,-38.7344561
10.9500,0.8108999536,0.7044013035,-25.42387556
10.9550,24.95288529,8.701234542,1.972265155
10.9600,36.26096472,-11.18948848,-1.470461831
10.9650,43.17415012,5.859460959,-6.42182705
10.9700,19.9802338,3.450685321,-15.90446316
10.9750,1.183537498,9.081730457,-14.87818541
10.9800,-12.59057406,-19.90220031,-18.56164073
10.9850,0.5624337338,-4.946240788,-16.24837864
10.9900,13.86043743,12.89804264,-47.14876415
10.9950,5.32111854,5.008424622,-43.75505262
11.0000,0.1971757515,0.7941503342,-54.73148774
11.0050,-2.472874513,-10.4299104,-33.73901641
11.0100,12.78505884,-16.76205622,-13.65774038
11.0150,32.5193419,-10.77378256,-5.174836949
11.0200,36.91857724,-29.14316855,-10.5409766
11.0250,30.98302837,-17.55397324,-24.91502827
11.0300,16.47042105,-10.91990228,-24.38473131
11.0350,4.630061797,3.666822038,-31.14150995
11.0400,6.48669756,10.34932476,-22.20435895
11.0450,0.2899464283,-11.50203683,-26.3116325
11.0500,3.678417085,-10.19361666,-34.35973411
11.0550,-8.271412395,-14.14638837,-46.23926121
11.0600,-7.64100097,-13.43964999,-53.03663871
11.0650,-5.031020223,-25.27980445,-31.40033662
11.0700,17.72037866,-29.16243198,-25.52592648
11.0750,23.05992368,-30.04260313,-3.524550154
11.0800,30.90935896,-19.66922532,-11.12834191
11.0850,18.07764778,-0.04207376354,-15.59263151
11.0900,-1.456297954,-5.652016599,-27.43823451
11.0950,-1.471520045,-5.623294151,-34.68201122
11.1000,6.825175775,-5.703851813,-25.50106215
11.1050,19.35648485,2.520167126,-23.58852897
11.1100,17.61423407,-3.486039536,-53.3202799
11.1150,0.8572889013,8.211029992,-43.77024888
11.1200,-17.61049359,2.516339819,-50.55287733
11.1250,-25.54249542,-4.407139586,-56.93838068
11.1300,-17.54336123,-13.00805385,-28.8425451
11.1350,-0.525144607,-32.19418338,-13.78965062
11.1400,20.06902165,-34.65262246,10.16636353
11.1450,26.02591819,-33.34007169,0.3135633801
11.1500,21.77405425,-11.3762963,-22.83348592
11.1550,-3.711687715,4.569890338,-51.08966287
11.1600,-29.01376143,14.71224432,-62.12834615
11.1650,-34.26922352,29.30191725,-69.55921906
11.1700,-25.18552414,20.85458215,-57.66470775
11.1750,-5.799432281,10.13634471,-27.23712995
11.1800,26.06623793,-1.967014016,-27.21642319
11.1850,23.15668452,23.65937121,-35.30254139
11.1900,3.811907758,20.74698752,-56.48916529
11.1950,-16.84786065,-2.73900183,-38.72277549
11.2000,-4.433010118,-39.18497595,0.6958661631
11.2050,22.21354677,-49.03956565,22.81281278
11.2100,49.16394272,-34.76034312,-1.654076477
11.2150,43.7804636,-17.71092023,-36.17090605
11.2200,26.71753845,-7.353024386,-36.91710005
11.2250,12.60895527,-17.59364806,-28.92092759
11.2300,26.73381429,-19.23188223,-5.529789815
11.2350,48.42469264,-16.90394402,10.11537366
11.2400,68.03488721,-0.1276969261,-21.54899835
11.2450,53.78820238,-5.336485341,-50.89545079
11.2500,34.22882388,-6.077877874,-67.47996746
11.2550,32.79315797,-9.073240056,-80.91664662
11.2600,40.95697965,-27.26915868,-58.47748021
11.2650,55.56385712,-41.73247799,-41.54993097
11.2700,57.47561615,-49.89897492,-35.4436879
11.2750,47.49320396,-32.46960725,-45.61306331
11.2800,36.26296472,-18.6887189,-44.68343801
11.2850,8.033695513,-56.40635899,-23.14526143
11.2900,16.22571965,-54.04347854,-13.24454558
11.2950,36.53621222,-35.7450499,-24.70273036
11.3000,46.24311912,-59.74744139,-33.84795194
11.3050,52.87678788,-44.80439178,-14.44821782
11.3100,41.0457288,-24.50334406,-13.96472766
11.3150,36.13274421,-9.22115166,-52.4504618
11.3200,18.28601086,1.72745662,-74.33026821
11.3250,7.527088569,-7.214097431,-60.20266957
11.3300,8.607699782,-12.03356623,-29.2442081
11.3350,19.16685182,-19.88125431,-16.33378523
11.3400,36.52453143,-11.60207671,-9.824610892
11.3450,25.38701724,-8.391841675,-6.0510855
11.3500,21.73294486,-8.844220044,-14.72576425
11.3550,21.97182265,-2.135254244,-9.277701056
11.3600,20.19955973,-21.21280845,31.52580784
11.3650,33.81963384,1.002163486,39.78772528
11.3700,33.37772799,-4.642607777,9.32185232
11.3750,35.1509457,-9.510361956,-19.88023356
11.3800,31.84454134,-4.014010591,-8.999300439
11.3850,18.92351268,-6.263972004,-0.4751083359
11.3900,22.4006713,3.409187643,-24.61440652
11.3950,10.02937153,-7.322308326,-39.80771318
11.4000,6.19411128,7.701441987,-41.38771285
11.4050,22.15975759,16.12062849,-44.54595578
11.4100,32.05766325,16.38667547,-21.48263626
11.4150,20.09243721,12.58443284,0.9377958914
11.4200,4.424953064,0.04618264364,9.851550545
11.4250,2.286572773,16.19253402,20.57840427
11.4300,-5.552678573,-31.8928492,35.28999217
11.4350,1.971802826,-15.2263507,37.72107236
11.4400,8.148853315,13.40085487,-1.527372341
11.4450,-8.337411996,25.70592891,-40.38722229
11.4500,-16.20289955,27.26592905,-33.27320359
11.4550,-12.88077037,3.37843793,4.386013245
11.4600,9.583107686,15.81851557,30.31894275
11.4650,21.59280219,16.37788651,15.75332414
11.4700,16.05409507,13.61732777,-4.571608361
11.4750,-3.190497054,13.61767311,-0.1325088288
11.4800,-18.82474839,2.401425824,18.31689437
11.4850,-21.50988349,-0.1155907807,52.43610342
11.4900,-5.587583385,1.535738976,71.6007201
11.4950,7.552922156,-8.400966615,59.88007952
11.5000,20.19902026,0.4423657765,29.30184367
11.5050,6.696020306,7.441668108,-4.559699994
11.5100,-1.450627438,9.163035259,-52.77665821
11.5150,-9.294646849,-15.37186674,-91.380545
11.5200,-8.517493158,-46.39580544,-56.76015321
11.5250,10.06144878,-51.44443332,-17.67483361
11.5300,31.50371098,-23.09043877,-23.49158463
11.5350,29.38064979,2.169103064,-81.71266958
11.5400,14.10894122,9.381805768,-100.2098782
11.5450,-23.38815522,-21.74933771,-47.46131241
11.5500,-8.614790664,-29.75446169,15.13112741
11.5550,13.98078619,-25.46018608,28.03582905
11.5600,26.8908188,-30.69765613,-1.772956748
11.5650,15.20019204,-42.37712351,9.174308785
11.5700,-13.34005265,-50.75863635,25.88764753
11.5750,2.778307838,-5.819264679,1.362657644
11.5800,1.004546224,-8.002045668,-52.58926154
11.5850,-2.206889227,-36.43717492,-60.33398284
11.5900,1.715440729,-52.5340804,-31.30241131
11.5950,19.59875902,-46.00808394,-3.937407945
11.6000,51.94580408,-28.96634325,-13.58316607
11.6050,76.7706,-13.87544966,-41.99562138
11.6100,60.36090004,-8.096306043,-47.09010128
11.6150,35.49406724,-27.35666845,-21.36889853
11.6200,38.72748738,-10.06210103,23.79778281
11.6250,36.54933712,-26.46593065,32.54954683
11.6300,41.00270191,-33.17465655,12.85849589
11.6350,26.865667,-54.82141356,1.256653097
11.6400,29.18856703,-60.32134028,4.113190717
11.6450,37.52655009,-46.62977649,-0.8118373977
11.6500,27.13491546,-49.74450063,-4.526147299
11.6550,12.65762282,-37.41733362,10.4236628
11.6600,23.81227245,-38.12637564,25.57496963
11.6650,31.15639958,-32.05619272,48.34751196
11.6700,41.29543125,-32.20736601,60.67203895
11.6750,48.99604512,-24.87904174,50.04368726
11.6800,54.16194146,-11.29338376,22.74782647
11.6850,52.60728864,-15.45278786,1.889303632
11.6900,30.93285919,-17.64733152,12.71137924
11.6950,27.5073486,-20.71619228,30.43996405
11.7000,3.275861021,-19.27339818,45.9319416
11.7050,-4.196681582,-31.27998443,44.1331703
11.7100,-7.392556408,-38.06437578,63.62436699
11.7150,-17.8201922,-55.07446931,85.6085529
11.7200,-13.53176895,-60.62799195,96.56051941
11.7250,-8.164602354,-56.25042814,80.02560508
11.7300,-1.858653512,-43.18920184,44.72230465
11.7350,0.1317705246,-46.16788913,-2.757312182
11.7400,21.5132325,-38.3983614,-25.60927885
11.7450,35.89427645,-40.19129866,-24.20430086
11.7500,52.85234953,-18.99300368,3.637460385
11.7550,54.37321605,-16.94852698,14.82229814
11.7600,71.05899152,13.43134044,28.64887698
11.7650,41.59041523,16.65728817,47.0452328
11.7700,38.43998478,27.64821201,52.14788179
11.7750,4.377746522,15.18502242,54.35983435
11.7800,5.736435172,13.60298613,45.91118701
11.7850,-2.980339083,-14.69303406,48.94885355
11.7900,4.112997566,-27.9469421,69.90201133
11.7950,4.145643897,-22.95246424,93.70850515
11.8000,4.885493942,-41.66999062,85.03069998
11.8050,-8.901085869,-46.42094036,70.14668614
11.8100,-27.83882411,-48.11133993,59.72858189
11.8150,-15.39448675,-55.03166008,34.00891444
11.8200,6.691852251,-35.85299478,20.68601502
11.8250,28.47724729,-40.01953475,7.194290546
11.8300,35.38629301,-32.01044934,5.36471013
11.8350,29.37129794,-13.84548681,19.57832888
11.8400,26.99384702,6.61008385,38.96663863
11.8450,28.10861603,25.29250439,46.43832113
11.8500,30.14959659,28.2847706,37.66955445
11.8550,26.57316339,28.02988828,32.12179905
11.8600,21.77348393,35.21848224,45.13076272
11.8650,-0.1255195318,-0.1234474378,43.00050951
11.8700,-12.8561475,-13.13629147,51.57655988
11.8750,-46.08065562,-13.02625397,58.71254782
11.8800,-39.60702771,-16.00155792,63.20933894
11.8850,-38.86385473,-14.9725938,71.22904423
11.8900,-14.99806481,-15.68364212,53.74926895
11.8950,-5.489099769,-9.947384771,33.52527999
11.9000,10.56192033,-11.10296463,24.84454065
11.9050,5.643682577,4.729003403,35.1460706
11.9100,3.567177748,25.22693659,50.01671419
11.9150,4.007986461,23.70374416,49.9662598
11.9200,17.26610394,43.44957417,36.67368319
11.9250,18.5752091,32.84255781,26.73480614
11.9300,0.05578234269,17.32282958,42.10433953
11.9350,-8.316496035,11.98934357,60.43660101
11.9400,-1.808864304,18.83391954,58.00164332
11.9450,6.358611613,-0.5553448652,41.25574403
11.9500,-4.014068382,-22.10377313,25.77003986
11.9550,-9.477768106,-24.35631085,19.12158289
11.9600,-26.02183377,-34.58921195,20.00454427
11.9650,-20.03093259,-20.32183776,28.01061919
11.9700,-9.604602179,-11.1747267,43.58832661
11.9750,-3.46189552,-3.704512735,49.92132031
11.9800,-19.22330047,4.666968086,64.98323757
11.9850,-14.20649063,20.18934595,64.54997591
11.9900,-24.433659,28.28516038,61.48136125
11.9950,2.975046299,57.98436508,48.04708929
12.0000,26.17241434,51.56660288,27.94786532
12.0050,43.17338313,42.58522877,8.900099875
12.0100,33.0555262,27.00441136,7.528619595
12.0150,5.432738427,1.946210392,15.36983157
12.0200,-18.21084548,8.988269981,43.72057946
12.0250,-6.511263813,4.296058582,49.39794598
12.0300,-9.601403773,-7.749041173,41.15205561
12.0350,2.020549379,-24.11680852,27.48314475
12.0400,-3.936901531,-36.7874739,28.06138924
12.0450,-11.45666107,-31.3262164,33.57082491
12.0500,-5.14872595,-30.79225983,36.43707228
12.0550,-4.516172303,-26.98348507,42.55874467
12.0600,-4.086394951,-6.410985075,46.2703464
12.0650,2.962328164,-6.327027922,42.94740919
12.0700,-1.261133729,17.45339168,32.95464587
12.0750,9.214264237,14.22157215,19.95742267
12.0800,6.564157364,23.05127289,23.68365929
12.0850,14.87519451,23.01542559,27.0350649
12.0900,10.24344329,23.72081637,21.3092907
12.0950,5.064237328,10.76110059,9.89521014
12.1000,19.12113628,4.197303156,-1.048447551
12.1050,3.615214857,-3.643695399,-0.8502646256
12.1100,18.23860518,-15.97271359,18.48969392
12.1150,9.138289897,-10.16766794,35.65939452
12.1200,-1.777367838,-25.44258852,35.782842
12.1250,-14.7261255,-34.52247184,33.02792568
12.1300,-31.06268183,-28.64536248,27.0414646
12.1350,-11.07271501,-27.9928131,18.10810377
12.1400,-0.3938467301,-27.40812019,18.08473912
12.1450,-1.992583396,-37.03645269,23.26218655
12.1500,-9.680321346,-24.35347759,37.7844903
12.1550,-8.760064849,-21.77286288,41.81733804
12.1600,-8.8095402,1.125078774,37.85786941
12.1650,11.21137751,-4.212688947,28.20245071
12.1700,17.89705459,-8.989350978,23.17324541
12.1750,9.697708686,-4.57072931,25.84322214
12.1800,-5.409752006,-2.340566985,25.31101747
12.1850,2.335632108,-14.2768971,17.54147926
12.1900,-14.32705502,-21.936836,24.93801107
12.1950,-14.69129373,-47.46740902,28.09345573
12.2000,-17.54100599,-52.60758381,30.09413342
12.2050,-18.7969312,-29.11442989,16.10621244
12.2100,1.774120127,-48.41823239,11.42967374
12.2150,10.59548566,-45.04537934,14.57318641
12.2200,17.32029183,-58.56943648,29.79148702
12.2250,5.957863508,-58.44821116,38.9091625
12.2300,-8.527739656,-30.66800383,52.52771011
12.2350,-28.286607,-26.66908792,47.95756886
12.2400,-34.39786329,1.673000829,51.95178162
12.2450,-34.69134633,34.49154638,54.60435045
12.2500,-26.91790873,48.98630001,58.07291133
12.2550,-27.46544105,53.16359192,50.65547152
12.2600,-26.28759211,59.51135786,40.63228392
12.2650,-7.835328438,67.0390111,23.46840604
12.2700,9.278691264,49.0004197,11.34176985
12.2750,32.73354158,35.65001607,-5.801192198
12.2800,46.36571514,7.327623103,-7.662691404
12.2850,32.30253612,12.50776632,4.462924232
12.2900,27.24599926,-15.12153159,21.29603664
12.2950,-15.0956612,-5.462730736,73.63188007
12.3000,-15.00247674,21.64603386,7.874328788
12.3050,-48.05025525,-22.35159587,13.83210951
12.3100,-67.41957916,-7.619601236,38.16146192
12.3150,-59.21815589,4.143962641,34.01880849
12.3200,-27.3297824,20.22949722,29.06067048
12.3250,-8.195944046,11.56142225,23.56510864
12.3300,13.74542917,3.249426651,20.90154528
12.3350,10.11475885,-10.85128384,23.49131283
12.3400,2.778271917,-6.598066609,28.79596698
12.3450,-9.844753765,2.087095401,22.13072552
12.3500,-10.34451722,12.42592694,19.19030295
12.3550,-6.016107454,18.97892141,14.66528603
12.3600,-14.281568,18.46965137,17.41031975
12.3650,-3.80255469,14.26089464,22.79903433
12.3700,-13.5721075,19.17468551,28.19026829
12.3750,-21.31936447,18.8459634,23.42782429
12.3800,-29.65744189,17.76826283,20.96114207
12.3850,-38.76993601,10.28166435,22.74189584
12.3900,-45.21648324,4.528135963,30.23694513
12.3950,-54.83318071,-8.14684612,25.42976803
12.4000,-28.93294284,15.44839002,25.31818269
12.4050,-6.084207973,17.70341991,17.1852681
12.4100,14.68812783,19.77596283,21.63429941
12.4150,12.56745942,18.0016524,27.31547656
12.4200,-7.660579814,17.07083863,31.84059831
12.4250,-29.73245379,28.05049698,37.5758213
12.4300,-39.73290669,33.77710447,37.31225221
12.4350,-24.30028601,44.48581157,36.06007079
12.4400,-13.62303767,47.22656272,32.97774715
12.4450,-11.7505328,33.81882196,18.56788839
12.4500,-17.56825621,29.256599,21.27012803
12.4550,-25.65431889,18.27750701,13.72272036
12.4600,-36.78638528,19.08629147,13.21549971
12.4650,-45.24321944,16.46180649,17.81156122
12.4700,-36.73610387,10.19701554,30.47989422
12.4750,-42.65370873,-10.41807822,30.97702867
12.4800,-47.27662586,-16.07427997,34.96456609
12.4850,-50.7459795,-23.61007106,26.33477804
12.4900,-54.38541437,-4.785790244,14.09352191
12.4950,-31.93296933,12.77616753,16.44117797
12.5000,-18.51013704,11.82985665,20.32334138
12.5050,-5.17506863,23.47537057,20.7546356
12.5100,19.73787071,20.58353263,16.69993139
12.5150,16.61105004,23.48073082,3.904726612
12.5200,15.5141398,10.19944915,2.785159965
12.5250,11.90645577,8.340517251,-0.8028837764
12.5300,23.25200122,14.7099209,1.231598046
12.5350,10.45543564,-10.71371002,1.064456133
12.5400,4.988834353,-10.47136822,0.7150843028
12.5450,2.798202331,-11.49375811,-5.721358293
12.5500,-19.60774155,-12.77880944,-7.68136457
12.5550,-31.42525296,-24.12242652,-1.715665577
12.5600,-46.52128554,-14.1487203,14.36383151
12.5650,-59.8449056,-3.176404072,26.2628995
12.5700,-80.6544984,-18.84705091,18.69355109
12.5750,-73.38741588,12.65414655,7.973953458
12.5800,-55.79713528,6.937504242,0.0920158824
12.5850,-20.91190075,3.50400692,-1.433410264
12.5900,-8.032313948,-9.810418286,-2.32314144
12.5950,-11.48207112,-9.598186466,-12.2242129
12.6000,-5.712683643,-8.128425807,-6.355814686
12.6050,-8.677189501,8.025757355,-7.460885795
12.6100,-8.029173237,15.56076764,-5.626412884
12.6150,12.931903,2.615592894,-0.08108054323
12.6200,19.51349025,15.54554873,-8.55008656
12.6250,20.63492132,-10.36425984,-8.663930625
12.6300,17.62594123,0.3987113216,-7.660371582
12.6350,14.38406771,-8.654187559,-4.262105397
12.6400,-8.003401234,-10.0947194,0.5155572569
12.6450,-9.637534759,2.911082507,1.063601413
12.6500,-16.66707033,-5.875296994,-4.808174459
12.6550,-16.59891308,-14.83723632,-9.963675617
12.6600,-9.041173991,-13.24569878,-5.731046226
12.6650,-21.58222485,-9.934761703,-7.302440962
12.6700,-24.83871785,-9.391697044,5.121505748
12.6750,-37.79177376,-2.211035775,3.298340344
12.6800,-26.00966216,-1.964726119,11.47803925
12.6850,-22.98111913,1.488808525,11.24326603
12.6900,-24.80000985,13.86398106,0.06200433304
12.6950,-15.05761553,-6.918960132,3.911383139
12.7000,-20.18495911,-10.66249887,4.318836281
12.7050,-10.59567424,4.396486371,16.02893021
12.7100,-24.31769612,1.54192648,22.1236699
12.7150,-23.93935534,4.005624162,31.07600937
12.7200,-38.34482836,3.512858671,32.11306065
12.7250,-38.39138817,-2.543480436,45.62700802
12.7300,-63.87391129,14.41749304,45.67797104
12.7350,-69.01338545,24.63083837,37.34022282
12.7400,-68.17271103,42.80017974,25.63259051
12.7450,-37.37087765,24.58747558,20.17328119
12.7500,-10.21662764,-2.639414988,5.92656844
12.7550,4.491385519,-31.71567841,-4.882644087
12.7600,23.20908687,-29.98753872,-8.875303124
12.7650,8.212827241,-31.9007541,-16.02220532
12.7700,13.24275555,-14.69286363,-1.682268961
12.7750,1.14551107,-8.742719162,13.69256136
12.7800,9.176721412,26.90402859,26.65552086
12.7850,-14.42133553,30.29785291,23.13734555
12.7900,-14.74905437,52.23845812,25.70179198
12.7950,-22.79550872,55.33571577,29.52516509
12.8000,-17.92007161,62.92847044,34.07509545
12.8050,-14.21201089,51.67003524,37.06890338
12.8100,-11.22055376,61.13523505,38.76366599
12.8150,-5.67225559,56.65533833,38.53772427
12.8200,-6.671010722,47.8901204,42.34585221
12.8250,-14.51633194,30.58149565,25.30267595
12.8300,-27.2518073,22.43807006,8.814038792
12.8350,-23.96033074,26.62131335,7.019154328
12.8400,-18.03920734,16.42495462,17.37491777
12.8450,-23.68988711,3.60664175,9.852694043
12.8500,-17.02097125,16.74942728,8.527064136
12.8550,-10.19378837,2.366334755,2.956985921
12.8600,-8.288291758,6.514702287,-0.9771761801
12.8650,10.67989143,1.262439042,0.965238201
12.8700,8.466621956,8.362556618,-6.722633513
12.8750,10.60988522,5.619606881,-7.340143552
12.8800,12.30293172,13.93655396,3.622466697
12.8850,16.70851818,26.43172657,10.79039698
12.8900,17.88380149,23.26655023,17.36559524
12.8950,21.25824852,20.45086774,16.61778232
12.9000,20.78950042,16.0463074,11.21505415
12.9050,22.72502328,5.620205896,-2.122811759
12.9100,5.177240197,-13.46314508,-0.6418699402
12.9150,-1.218301492,-14.18133323,0.1448594554
12.9200,-1.942125808,-15.55337265,0.8926635148
12.9250,-15.44310325,-28.41678546,-5.766957815
12.9300,-13.11991814,-24.27116441,-3.074460143
12.9350,-24.54824487,-18.82005411,-6.953112132
12.9400,-30.64054676,-5.861059761,-6.887416763
12.9450,-26.33474442,-5.952972871,-2.717547536
12.9500,-37.9181514,-16.97693378,-10.36079179
12.9550,-42.36803843,-24.2796196,-17.56799663
12.9600,-39.98095302,-23.57057007,-22.42395537
12.9650,-28.53889827,-18.41593084,-12.89595961
12.9700,-27.79385638,-32.69910948,-3.498448262
12.9750,-32.69930004,-25.49311755,-11.58711214
12.9800,-15.29235948,-28.10524917,0.266401322
12.9850,-27.60571659,-31.88749797,-10.01788733
12.9900,-30.43671592,-26.24493448,-5.105966117
12.9950,-37.31127665,-29.69941431,-4.115901478
13.0000,-40.31270911,-25.36794412,3.650986617
13.0050,-41.93124439,-23.3083506,4.297887961
13.0100,-52.87952889,-27.42715385,-1.168631074
13.0150,-55.99661311,-21.26338069,-4.575482685
13.0200,-53.46079331,-19.70560246,0.399599
13.0250,-50.66025998,-7.997904318,-0.4373334199
13.0300,-44.59102492,-6.767839582,0.9528747838
13.0350,-21.33607239,-8.01130169,10.21761384
13.0400,-17.84016373,-12.18360616,7.019496195
13.0450,-17.62078756,-8.205966202,9.259776099
13.0500,-17.41390815,-14.67209264,19.20686933
13.0550,-19.81043197,-12.50380079,12.53463937
13.0600,-21.98871758,-23.28782565,9.063343286
13.0650,-13.30599432,-15.32123457,1.658355453
13.0700,-9.035285212,-10.91863573,-3.653696816
13.0750,9.568376041,-19.53444455,0.002440450689
13.0800,-3.940348221,-20.37466808,-0.3524795257
13.0850,-9.022452422,-14.50385915,3.68503164
13.0900,-4.59343067,-3.478362711,-4.994136918
13.0950,-9.002016206,-16.85345743,-9.462570654
13.1000,-6.522349889,-23.04881168,-9.264666871
13.1050,8.814618046,-15.42947603,-1.221737877
13.1100,-7.225636834,-17.84244948,1.762832725
13.1150,-8.913871756,-14.75293685,4.856576655
13.1200,-10.69459884,-5.988972965,7.509033689
13.1250,-12.57232283,-0.4750087607,3.082422807
13.1300,-16.13702954,-8.551970875,8.091145181
13.1350,-18.76856089,-7.821177759,11.54999966
13.1400,-32.74705114,-3.904551066,5.028386233
13.1450,-28.23695687,-10.57326779,-1.627353691
13.1500,-24.14410687,-15.33893031,10.7698014
13.1550,-30.30675442,-9.698844929,13.82274484
13.1600,-46.0617597,-12.86031056,7.508735635
13.1650,-57.83050059,-11.78336715,4.816892289
13.1700,-55.46121803,0.2920858017,7.524101522
13.1750,-63.52713983,9.810639136,10.2592589
13.1800,-72.9493781,17.90545459,22.58216425
13.1850,-84.56839327,23.88993514,20.86593674
13.1900,-90.58020636,36.31437408,18.23178951
13.1950,-94.85999744,42.60712292,22.26361156
13.2000,-108.7118801,56.51735472,31.54392993
13.2050,-125.8230044,77.90417138,58.01789154
13.2100,-141.3217388,91.85398798,74.24416962
13.2150,-132.7203972,66.62937081,70.8786048
13.2200,-98.07836018,46.98306753,56.59503574
13.2250,-79.92478557,0.04290229824,22.96901766
13.2300,-61.61841008,-18.49508523,12.6387147
13.2350,-46.22610415,-35.11999053,5.204494936
13.2400,-24.42466685,-36.37211723,10.37745029
13.2450,-26.02141275,-44.77808337,-3.092770881
13.2500,-25.87500442,-31.16127217,-7.907052117
13.2550,-27.50771538,-18.25200063,-14.49576999
13.2600,-23.58517099,-4.170152164,-7.838460035
13.2650,-14.3561738,4.922456994,-14.90193542
13.2700,6.685708948,9.541945007,-16.7354448
13.2750,28.59808309,-6.623281952,-25.13310145
13.2800,29.92384758,-7.305314509,-23.06349613
13.2850,13.97060167,-15.03200597,-12.19380269
13.2900,-0.674659279,3.400498253,-1.83254419
13.2950,-18.05900504,12.97033578,-1.491285866
13.3000,-26.19853765,10.37332871,2.256690402
13.3050,-26.1224644,14.35661995,12.95147226
13.3100,-45.57200575,11.81894061,2.258057578
13.3150,-51.00832253,13.34679234,-10.56748521
13.3200,-55.08598909,15.0097748,-10.80369724
13.3250,-50.42728756,-1.388111798,-4.268317108
13.3300,-24.08656746,3.355949879,10.84837522
13.3350,-26.52367437,0.9152196675,6.896174217
13.3400,-39.6886245,-4.065782251,-5.464121681
13.3450,-42.35011152,-8.642523008,-7.072532932
13.3500,-39.34333976,-0.1261393509,-3.61313566
13.3550,-36.49064559,-2.890470441,5.016376263
13.3600,-39.00637467,8.842378997,-1.693199833
13.3650,-30.65491381,-3.079906383,-3.490731948
13.3700,-27.39328289,12.20422646,-1.232678652
13.3750,-28.07974562,14.82971665,5.451067059
13.3800,-32.05162981,28.23070325,15.76365969
13.3850,-25.37352847,24.81450479,19.78540952
13.3900,-10.91607611,26.27257361,23.48200499
13.3950,-3.657919549,9.438056221,12.70334804
13.4000,-13.19238019,17.9082107,6.424164698
13.4050,-3.670414029,6.192985832,13.67230191
13.4100,-6.645119927,8.181414079,23.46545949
13.4150,-14.57155011,17.72604193,21.87706251
13.4200,-20.87196648,-8.537511759,20.16070916
13.4250,-16.79317246,9.877505917,18.20596595
