type,name,time_units,begin_time,frequency,count,units
signal,"Noraxon MyoMotion-Joints-Elbow RT-Flexion","s",0.0000,200,5068,"deg"

time,value
0.0000,0.9654224609
0.0050,0.9595927443
0.0100,0.9537632328
0.0150,0.9479339267
0.0200,0.9421161236
0.0250,0.9364315515
0.0300,0.9310033725
0.0350,0.9259515126
0.0400,0.9213888178
0.0450,0.9174167773
0.0500,0.9141206588
0.0550,0.9115661306
0.0600,0.9097980756
0.0650,0.9088401476
0.0700,0.9086944261
0.0750,0.9093420391
0.0800,0.9107445966
0.0850,0.9128450293
0.0900,0.9155684551
0.0950,0.9188248632
0.1000,0.9225132818
0.1050,0.9265262154
0.1100,0.9307536607
0.1150,0.9350858824
0.1200,0.9394147372
0.1250,0.9436345464
0.1300,0.9476434237
0.1350,0.9513447726
0.1400,0.95464853
0.1450,0.9574723513
0.1500,0.9597421805
0.1550,0.9615513844
0.1600,0.9627273295
0.1650,0.9637433493
0.1700,0.9644924564
0.1750,0.9647587618
0.1800,0.964839217
0.1850,0.9645839029
0.1900,0.9639979956
0.1950,0.9636050156
0.2000,0.9630701181
0.2050,0.9624951177
0.2100,0.9621078513
0.2150,0.9618826908
0.2200,0.9620117782
0.2250,0.9624220096
0.2300,0.9632896709
0.2350,0.9648153233
0.2400,0.9667997022
0.2450,0.9691046035
0.2500,0.9719540569
0.2550,0.9753802121
0.2600,0.9792686636
0.2650,0.9838104175
0.2700,0.9890832944
0.2750,0.9948528017
0.2800,1.001317962
0.2850,1.008470135
0.2900,1.016265776
0.2950,1.024575483
0.3000,1.033553476
0.3050,1.043099367
0.3100,1.052961087
0.3150,1.063051526
0.3200,1.073551087
0.3250,1.084396827
0.3300,1.095541079
0.3350,1.106767454
0.3400,1.118012229
0.3450,1.129052408
0.3500,1.139619314
0.3550,1.149737359
0.3600,1.15941609
0.3650,1.168325779
0.3700,1.176456776
0.3750,1.183351178
0.3800,1.189221137
0.3850,1.193816387
0.3900,1.197204572
0.3950,1.199240804
0.4000,1.200046149
0.4050,1.199527887
0.4100,1.197841406
0.4150,1.19491701
0.4200,1.190830304
0.4250,1.185901503
0.4300,1.180430045
0.4350,1.174171706
0.4400,1.167584228
0.4450,1.160863437
0.4500,1.153973386
0.4550,1.146923046
0.4600,1.140306303
0.4650,1.133966546
0.4700,1.128046933
0.4750,1.122770568
0.4800,1.118043156
0.4850,1.113635456
0.4900,1.109798463
0.4950,1.106199918
0.5000,1.10324065
0.5050,1.100642875
0.5100,1.098432736
0.5150,1.096745197
0.5200,1.095411383
0.5250,1.094472693
0.5300,1.093855599
0.5350,1.093590806
0.5400,1.093578057
0.5450,1.093997559
0.5500,1.094869366
0.5550,1.096004212
0.5600,1.09766332
0.5650,1.099681573
0.5700,1.10210241
0.5750,1.105276349
0.5800,1.108827726
0.5850,1.113133269
0.5900,1.118092425
0.5950,1.123699712
0.6000,1.130231014
0.6050,1.137543387
0.6100,1.145867297
0.6150,1.155371709
0.6200,1.166004564
0.6250,1.17781345
0.6300,1.190874966
0.6350,1.204932202
0.6400,1.220265652
0.6450,1.236842455
0.6500,1.254816458
0.6550,1.273729957
0.6600,1.29388872
0.6650,1.315196082
0.6700,1.337874425
0.6750,1.361722269
0.6800,1.386710814
0.6850,1.412931524
0.6900,1.440111934
0.6950,1.468452232
0.7000,1.497630687
0.7050,1.527613686
0.7100,1.5584444
0.7150,1.589809523
0.7200,1.62171235
0.7250,1.654069122
0.7300,1.686491879
0.7350,1.719091495
0.7400,1.751568803
0.7450,1.783928198
0.7500,1.815952713
0.7550,1.847648995
0.7600,1.878839309
0.7650,1.909225218
0.7700,1.93879387
0.7750,1.96727168
0.7800,1.994717325
0.7850,2.02126974
0.7900,2.046679056
0.7950,2.070975139
0.8000,2.09413446
0.8050,2.116236275
0.8100,2.137157801
0.8150,2.156766877
0.8200,2.17526543
0.8250,2.192417627
0.8300,2.208467475
0.8350,2.223472911
0.8400,2.237442594
0.8450,2.250602654
0.8500,2.262905402
0.8550,2.27440344
0.8600,2.285129991
0.8650,2.295301336
0.8700,2.304736201
0.8750,2.313340756
0.8800,2.321210275
0.8850,2.328252875
0.8900,2.334514036
0.8950,2.340334053
0.9000,2.345672058
0.9050,2.350604142
0.9100,2.355236263
0.9150,2.35941451
0.9200,2.362997374
0.9250,2.366164342
0.9300,2.368459705
0.9350,2.370560951
0.9400,2.372092831
0.9450,2.373158806
0.9500,2.37356511
0.9550,2.373853673
0.9600,2.373334763
0.9650,2.372423
0.9700,2.371015895
0.9750,2.369309115
0.9800,2.367202662
0.9850,2.364744134
0.9900,2.361850644
0.9950,2.358503416
1.0000,2.354988505
1.0050,2.351171602
1.0100,2.347067829
1.0150,2.342972968
1.0200,2.339041857
1.0250,2.335417191
1.0300,2.332469958
1.0350,2.330332565
1.0400,2.329564599
1.0450,2.330328533
1.0500,2.332857875
1.0550,2.337634216
1.0600,2.344616485
1.0650,2.354314675
1.0700,2.366628019
1.0750,2.38186356
1.0800,2.400192461
1.0850,2.421712846
1.0900,2.446679425
1.0950,2.474953427
1.1000,2.506749006
1.1050,2.54206487
1.1100,2.580888126
1.1150,2.623369733
1.1200,2.669256273
1.1250,2.718936044
1.1300,2.772170626
1.1350,2.828845328
1.1400,2.888879738
1.1450,2.95216193
1.1500,3.018855004
1.1550,3.088919319
1.1600,3.162174791
1.1650,3.238366747
1.1700,3.317713871
1.1750,3.400186297
1.1800,3.48568894
1.1850,3.574164436
1.1900,3.665671772
1.1950,3.759920326
1.2000,3.856910361
1.2050,3.956464826
1.2100,4.058184986
1.2150,4.162259097
1.2200,4.268508463
1.2250,4.376762055
1.2300,4.486931756
1.2350,4.598894882
1.2400,4.712719952
1.2450,4.828269309
1.2500,4.945363775
1.2550,5.064009051
1.2600,5.184410625
1.2650,5.306123415
1.2700,5.429150531
1.2750,5.553468784
1.2800,5.678935565
1.2850,5.805547294
1.2900,5.933704329
1.2950,6.063382539
1.3000,6.194643215
1.3050,6.327659746
1.3100,6.462639238
1.3150,6.599673906
1.3200,6.738605113
1.3250,6.879372934
1.3300,7.021969303
1.3350,7.166626127
1.3400,7.312939416
1.3450,7.461106043
1.3500,7.611113822
1.3550,7.762450525
1.3600,7.915380336
1.3650,8.069457718
1.3700,8.224849068
1.3750,8.381426689
1.3800,8.538834416
1.3850,8.697291971
1.3900,8.856674972
1.3950,9.017016127
1.4000,9.178074283
1.4050,9.340012729
1.4100,9.50249762
1.4150,9.665849408
1.4200,9.829942425
1.4250,9.994474484
1.4300,10.15973245
1.4350,10.32541194
1.4400,10.49185668
1.4450,10.65916769
1.4500,10.82676248
1.4550,10.99488082
1.4600,11.16375231
1.4650,11.33369144
1.4700,11.50465361
1.4750,11.6766195
1.4800,11.84989686
1.4850,12.0243638
1.4900,12.20028457
1.4950,12.37751444
1.5000,12.55618803
1.5050,12.73643575
1.5100,12.91822939
1.5150,13.10141516
1.5200,13.28623965
1.5250,13.47257772
1.5300,13.66081698
1.5350,13.8507062
1.5400,14.04203919
1.5450,14.23487726
1.5500,14.42946743
1.5550,14.62525532
1.5600,14.82248742
1.5650,15.02127305
1.5700,15.2215537
1.5750,15.42353519
1.5800,15.62725414
1.5850,15.83270179
1.5900,16.03922287
1.5950,16.24715734
1.6000,16.45624684
1.6050,16.66679853
1.6100,16.87839104
1.6150,17.09121849
1.6200,17.30543962
1.6250,17.52117518
1.6300,17.73853976
1.6350,17.95729018
1.6400,18.1777515
1.6450,18.3995408
1.6500,18.62273394
1.6550,18.84726731
1.6600,19.0728411
1.6650,19.2994414
1.6700,19.52684583
1.6750,19.75522304
1.6800,19.98443794
1.6850,20.21442145
1.6900,20.44541766
1.6950,20.67758959
1.7000,20.91078073
1.7050,21.14536529
1.7100,21.381451
1.7150,21.61883721
1.7200,21.85804157
1.7250,22.0990266
1.7300,22.3420103
1.7350,22.58743324
1.7400,22.83520678
1.7450,23.08524864
1.7500,23.33802907
1.7550,23.59370596
1.7600,23.85208247
1.7650,24.11286047
1.7700,24.37581632
1.7750,24.6416257
1.7800,24.91052904
1.7850,25.18269512
1.7900,25.45822877
1.7950,25.73768087
1.8000,26.02069461
1.8050,26.30770589
1.8100,26.59914165
1.8150,26.89521947
1.8200,27.19588427
1.8250,27.50158639
1.8300,27.81205948
1.8350,28.12774666
1.8400,28.44860716
1.8450,28.7743996
1.8500,29.10491327
1.8550,29.44030664
1.8600,29.77998108
1.8650,30.12377712
1.8700,30.47164841
1.8750,30.82298245
1.8800,31.17775842
1.8850,31.53542328
1.8900,31.89645153
1.8950,32.26057282
1.9000,32.62757469
1.9050,32.99680259
1.9100,33.36874257
1.9150,33.74255604
1.9200,34.11840311
1.9250,34.49611409
1.9300,34.87591279
1.9350,35.25826169
1.9400,35.642799
1.9450,36.02942815
1.9500,36.41852428
1.9550,36.81042067
1.9600,37.20527808
1.9650,37.60375866
1.9700,38.00561787
1.9750,38.41075626
1.9800,38.81936418
1.9850,39.23088752
1.9900,39.64558518
1.9950,40.06329605
2.0000,40.48432687
2.0050,40.90804245
2.0100,41.33507691
2.0150,41.76525655
2.0200,42.1987184
2.0250,42.63559712
2.0300,43.07577933
2.0350,43.51954492
2.0400,43.96664351
2.0450,44.41739145
2.0500,44.87088443
2.0550,45.327284
2.0600,45.7864772
2.0650,46.24852046
2.0700,46.71383489
2.0750,47.18220267
2.0800,47.65315026
2.0850,48.12724534
2.0900,48.60495436
2.0950,49.08628098
2.1000,49.5715575
2.1050,50.061154
2.1100,50.55476647
2.1150,51.05243594
2.1200,51.55476868
2.1250,52.06127955
2.1300,52.57116183
2.1350,53.08350422
2.1400,53.59817604
2.1450,54.11458983
2.1500,54.6330209
2.1550,55.15268539
2.1600,55.6732259
2.1650,56.19415849
2.1700,56.71486597
2.1750,57.23502093
2.1800,57.75413749
2.1850,58.27237434
2.1900,58.78914546
2.1950,59.30392887
2.2000,59.81770836
2.2050,60.33084568
2.2100,60.84273185
2.2150,61.35447516
2.2200,61.8666709
2.2250,62.3797196
2.2300,62.89363954
2.2350,63.40878263
2.2400,63.92591181
2.2450,64.44482405
2.2500,64.96556695
2.2550,65.48740192
2.2600,66.0096283
2.2650,66.53157039
2.2700,67.05300255
2.2750,67.57381969
2.2800,68.09396972
2.2850,68.61346971
2.2900,69.13240144
2.2950,69.65041511
2.3000,70.16703163
2.3050,70.68237595
2.3100,71.19608089
2.3150,71.7080597
2.3200,72.21824844
2.3250,72.72678746
2.3300,73.23369668
2.3350,73.73831636
2.3400,74.24041975
2.3450,74.73892171
2.3500,75.23418605
2.3550,75.72541106
2.3600,76.21244519
2.3650,76.69482673
2.3700,77.17270462
2.3750,77.6449201
2.3800,78.1124272
2.3850,78.57409406
2.3900,79.03003488
2.3950,79.4798473
2.4000,79.92365928
2.4050,80.36108144
2.4100,80.79307593
2.4150,81.21936683
2.4200,81.64112185
2.4250,82.05800788
2.4300,82.47147478
2.4350,82.88222232
2.4400,83.29074371
2.4450,83.69770204
2.4500,84.10313676
2.4550,84.50775179
2.4600,84.91208399
2.4650,85.31696771
2.4700,85.72244127
2.4750,86.12913026
2.4800,86.53740306
2.4850,86.9466451
2.4900,87.3573207
2.4950,87.76922806
2.5000,88.18194581
2.5050,88.59485204
2.5100,89.00813253
2.5150,89.42152605
2.5200,89.83527123
2.5250,90.24919199
2.5300,90.66337842
2.5350,91.07803376
2.5400,91.49291361
2.5450,91.90816746
2.5500,92.32379585
2.5550,92.73918722
2.5600,93.15452463
2.5650,93.56990216
2.5700,93.98532453
2.5750,94.3998062
2.5800,94.81350656
2.5850,95.22676594
2.5900,95.6392598
2.5950,96.05072199
2.6000,96.46190755
2.6050,96.87310078
2.6100,97.28425801
2.6150,97.69546743
2.6200,98.10623652
2.6250,98.51622019
2.6300,98.9251013
2.6350,99.33259576
2.6400,99.73922021
2.6450,100.1457644
2.6500,100.5522486
2.6550,100.9588173
2.6600,101.366243
2.6650,101.7747354
2.6700,102.1846199
2.6750,102.596271
2.6800,103.0088258
2.6850,103.4229279
2.6900,103.8380417
2.6950,104.2537812
2.7000,104.6710706
2.7050,105.0896974
2.7100,105.5088528
2.7150,105.9288674
2.7200,106.348486
2.7250,106.7678853
2.7300,107.1869059
2.7350,107.605045
2.7400,108.0224448
2.7450,108.4393321
2.7500,108.8546426
2.7550,109.268403
2.7600,109.6807331
2.7650,110.0906355
2.7700,110.4976298
2.7750,110.9014519
2.7800,111.3012964
2.7850,111.6976432
2.7900,112.0900554
2.7950,112.4781033
2.8000,112.8619477
2.8050,113.2412595
2.8100,113.6162925
2.8150,113.9864131
2.8200,114.3520864
2.8250,114.7133659
2.8300,115.0696987
2.8350,115.4213999
2.8400,115.7679016
2.8450,116.1099694
2.8500,116.4468721
2.8550,116.7790905
2.8600,117.1070103
2.8650,117.4303416
2.8700,117.7491251
2.8750,118.0637658
2.8800,118.3743662
2.8850,118.6811207
2.8900,118.9839328
2.8950,119.2830206
2.9000,119.5782614
2.9050,119.8697365
2.9100,120.1577755
2.9150,120.4422742
2.9200,120.7228072
2.9250,120.9994354
2.9300,121.2723051
2.9350,121.541702
2.9400,121.8076477
2.9450,122.0701364
2.9500,122.3297452
2.9550,122.5871237
2.9600,122.8417768
2.9650,123.0940559
2.9700,123.3431756
2.9750,123.5896112
2.9800,123.8334522
2.9850,124.0747368
2.9900,124.3135
2.9950,124.5499745
3.0000,124.783792
3.0050,125.0149192
3.0100,125.2441456
3.0150,125.4715474
3.0200,125.6971372
3.0250,125.9213421
3.0300,126.1437555
3.0350,126.3649404
3.0400,126.5843596
3.0450,126.8018107
3.0500,127.017354
3.0550,127.2313327
3.0600,127.4427832
3.0650,127.6519895
3.0700,127.8590992
3.0750,128.0638273
3.0800,128.2666866
3.0850,128.4674595
3.0900,128.6663515
3.0950,128.8639129
3.1000,129.0594643
3.1050,129.253311
3.1100,129.4453374
3.1150,129.6359905
3.1200,129.824248
3.1250,130.0108091
3.1300,130.1960146
3.1350,130.3796633
3.1400,130.5623723
3.1450,130.7437568
3.1500,130.9238502
3.1550,131.103066
3.1600,131.281043
3.1650,131.4586937
3.1700,131.6354229
3.1750,131.8123321
3.1800,131.9891645
3.1850,132.165093
3.1900,132.3405048
3.1950,132.5157809
3.2000,132.6908189
3.2050,132.865634
3.2100,133.0405528
3.2150,133.215794
3.2200,133.3916548
3.2250,133.5682603
3.2300,133.7453791
3.2350,133.9231199
3.2400,134.1016516
3.2450,134.2805869
3.2500,134.4602438
3.2550,134.6400564
3.2600,134.8203026
3.2650,135.0010027
3.2700,135.182491
3.2750,135.3644406
3.2800,135.5473722
3.2850,135.731218
3.2900,135.9159513
3.2950,136.1013954
3.3000,136.2873218
3.3050,136.4737778
3.3100,136.6606163
3.3150,136.847525
3.3200,137.0347622
3.3250,137.2223031
3.3300,137.409719
3.3350,137.5966204
3.3400,137.7831088
3.3450,137.9690389
3.3500,138.1550353
3.3550,138.3398684
3.3600,138.5237911
3.3650,138.7062972
3.3700,138.8870933
3.3750,139.0656794
3.3800,139.2419809
3.3850,139.4159772
3.3900,139.5871759
3.3950,139.7552521
3.4000,139.9201735
3.4050,140.0821051
3.4100,140.2401472
3.4150,140.3944455
3.4200,140.5447467
3.4250,140.6909884
3.4300,140.8328344
3.4350,140.9703169
3.4400,141.1030794
3.4450,141.2308463
3.4500,141.3539201
3.4550,141.4715024
3.4600,141.5833412
3.4650,141.6893518
3.4700,141.789521
3.4750,141.8829767
3.4800,141.9696158
3.4850,142.050676
3.4900,142.1257454
3.4950,142.1945834
3.5000,142.2572998
3.5050,142.3143788
3.5100,142.3656345
3.5150,142.4115965
3.5200,142.4525263
3.5250,142.4890681
3.5300,142.5218706
3.5350,142.5509576
3.5400,142.5765262
3.5450,142.5992936
3.5500,142.6196321
3.5550,142.6381182
3.5600,142.6549959
3.5650,142.6708468
3.5700,142.6861016
3.5750,142.7013582
3.5800,142.7165843
3.5850,142.7320898
3.5900,142.7483171
3.5950,142.7657164
3.6000,142.7849579
3.6050,142.8059524
3.6100,142.8291849
3.6150,142.8549534
3.6200,142.8831526
3.6250,142.9137252
3.6300,142.9474946
3.6350,142.98447
3.6400,143.0245767
3.6450,143.0676103
3.6500,143.1132126
3.6550,143.1623653
3.6600,143.2150201
3.6650,143.2714388
3.6700,143.3310617
3.6750,143.394598
3.6800,143.4616687
3.6850,143.5321632
3.6900,143.6062168
3.6950,143.6835349
3.7000,143.7641768
3.7050,143.8475376
3.7100,143.9345287
3.7150,144.0242004
3.7200,144.1169018
3.7250,144.2118231
3.7300,144.3090439
3.7350,144.407937
3.7400,144.5080268
3.7450,144.6092647
3.7500,144.7109277
3.7550,144.8131454
3.7600,144.9158878
3.7650,145.0180628
3.7700,145.1198343
3.7750,145.2202479
3.7800,145.3193446
3.7850,145.4160366
3.7900,145.5100268
3.7950,145.6013109
3.8000,145.6896508
3.8050,145.7744435
3.8100,145.8557656
3.8150,145.9332931
3.8200,146.0068048
3.8250,146.0756987
3.8300,146.140195
3.8350,146.2004423
3.8400,146.2565248
3.8450,146.3083406
3.8500,146.3554263
3.8550,146.397645
3.8600,146.4354194
3.8650,146.4682196
3.8700,146.4960341
3.8750,146.5193673
3.8800,146.5379873
3.8850,146.5519372
3.8900,146.5615819
3.8950,146.5668609
3.9000,146.567824
3.9050,146.5649472
3.9100,146.5581487
3.9150,146.5484029
3.9200,146.5355885
3.9250,146.5201557
3.9300,146.502044
3.9350,146.4813987
3.9400,146.4584615
3.9450,146.4335276
3.9500,146.4071628
3.9550,146.3793684
3.9600,146.3501019
3.9650,146.3194511
3.9700,146.2880461
3.9750,146.2557166
3.9800,146.2226296
3.9850,146.1887289
3.9900,146.154147
3.9950,146.1191347
4.0000,146.0835373
4.0050,146.0476063
4.0100,146.0109304
4.0150,145.973742
4.0200,145.9361185
4.0250,145.8984514
4.0300,145.8606384
4.0350,145.8227642
4.0400,145.7850886
4.0450,145.7475499
4.0500,145.7105023
4.0550,145.6736648
4.0600,145.6369987
4.0650,145.6004328
4.0700,145.5639288
4.0750,145.528102
4.0800,145.49262
4.0850,145.4571844
4.0900,145.4221297
4.0950,145.3872236
4.1000,145.3523842
4.1050,145.3179341
4.1100,145.2836599
4.1150,145.249792
4.1200,145.2159687
4.1250,145.1827412
4.1300,145.1495452
4.1350,145.1165048
4.1400,145.083782
4.1450,145.0510187
4.1500,145.0185275
4.1550,144.9864041
4.1600,144.9537268
4.1650,144.9207733
4.1700,144.8878862
4.1750,144.8546038
4.1800,144.8211716
4.1850,144.7876185
4.1900,144.7534969
4.1950,144.7189983
4.2000,144.6840771
4.2050,144.6484438
4.2100,144.6124571
4.2150,144.575219
4.2200,144.5374547
4.2250,144.498759
4.2300,144.4594492
4.2350,144.4193215
4.2400,144.3784286
4.2450,144.3372764
4.2500,144.2954956
4.2550,144.253165
4.2600,144.210433
4.2650,144.1675073
4.2700,144.1242673
4.2750,144.080628
4.2800,144.0367022
4.2850,143.9925794
4.2900,143.9476767
4.2950,143.9024094
4.3000,143.8567802
4.3050,143.8107663
4.3100,143.7641696
4.3150,143.7172593
4.3200,143.6695028
4.3250,143.6208853
4.3300,143.5714472
4.3350,143.5211128
4.3400,143.4700541
4.3450,143.4183225
4.3500,143.3658691
4.3550,143.3133497
4.3600,143.2602405
4.3650,143.2068359
4.3700,143.1529393
4.3750,143.0983275
4.3800,143.0424302
4.3850,142.9852204
4.3900,142.9268043
4.3950,142.8667004
4.4000,142.805066
4.4050,142.7414097
4.4100,142.6755858
4.4150,142.6073425
4.4200,142.5372605
4.4250,142.4651222
4.4300,142.391184
4.4350,142.3153502
4.4400,142.2370125
4.4450,142.1562712
4.4500,142.0725693
4.4550,141.9855696
4.4600,141.8957516
4.4650,141.803036
4.4700,141.7069422
4.4750,141.6074293
4.4800,141.5042966
4.4850,141.3978844
4.4900,141.2882485
4.4950,141.1757767
4.5000,141.059947
4.5050,140.9409158
4.5100,140.8186524
4.5150,140.6930188
4.5200,140.5638167
4.5250,140.4307425
4.5300,140.294055
4.5350,140.1541859
4.5400,140.011792
4.5450,139.8667716
4.5500,139.7196293
4.5550,139.5707695
4.5600,139.4207909
4.5650,139.2702984
4.5700,139.120086
4.5750,138.969984
4.5800,138.8202305
4.5850,138.6709996
4.5900,138.5225797
4.5950,138.3743067
4.6000,138.2263137
4.6050,138.0783923
4.6100,137.9301809
4.6150,137.7817527
4.6200,137.6330843
4.6250,137.4840149
4.6300,137.3343959
4.6350,137.1845289
4.6400,137.0344536
4.6450,136.8841307
4.6500,136.7332633
4.6550,136.5811388
4.6600,136.4283717
4.6650,136.274082
4.6700,136.1183328
4.6750,135.9610285
4.6800,135.8023836
4.6850,135.642851
4.6900,135.4819434
4.6950,135.3201171
4.7000,135.1568828
4.7050,134.9929019
4.7100,134.8282993
4.7150,134.6632515
4.7200,134.4971312
4.7250,134.3298051
4.7300,134.1605825
4.7350,133.9886724
4.7400,133.81344
4.7450,133.6343598
4.7500,133.4509591
4.7550,133.2635637
4.7600,133.0714927
4.7650,132.8742348
4.7700,132.6716362
4.7750,132.4636216
4.7800,132.2500913
4.7850,132.031078
4.7900,131.8064096
4.7950,131.5755392
4.8000,131.3382034
4.8050,131.0938098
4.8100,130.840657
4.8150,130.5784013
4.8200,130.3062609
4.8250,130.0243935
4.8300,129.7321767
4.8350,129.4295896
4.8400,129.1157712
4.8450,128.7908301
4.8500,128.4556409
4.8550,128.1103137
4.8600,127.7546625
4.8650,127.387491
4.8700,127.0088112
4.8750,126.6188314
4.8800,126.2171134
4.8850,125.8031727
4.8900,125.3764725
4.8950,124.9371737
4.9000,124.4848804
4.9050,124.0201711
4.9100,123.5430803
4.9150,123.0538319
4.9200,122.5532308
4.9250,122.0415452
4.9300,121.5188686
4.9350,120.9852543
4.9400,120.440458
4.9450,119.8839036
4.9500,119.3159409
4.9550,118.7365134
4.9600,118.1449451
4.9650,117.5414325
4.9700,116.926632
4.9750,116.3010652
4.9800,115.6656532
4.9850,115.0207174
4.9900,114.3673633
4.9950,113.7064818
5.0000,113.0390799
5.0050,112.3649779
5.0100,111.6843617
5.0150,110.9962931
5.0200,110.3013933
5.0250,109.6000271
5.0300,108.8928673
5.0350,108.1807363
5.0400,107.4644638
5.0450,106.7439217
5.0500,106.0197079
5.0550,105.2922353
5.0600,104.5620788
5.0650,103.8304455
5.0700,103.0975958
5.0750,102.3642033
5.0800,101.6297817
5.0850,100.8933217
5.0900,100.1553805
5.0950,99.41500922
5.1000,98.67267959
5.1050,97.92839401
5.1100,97.18261547
5.1150,96.43550164
5.1200,95.68720042
5.1250,94.93806556
5.1300,94.18862724
5.1350,93.43931014
5.1400,92.69026174
5.1450,91.94165445
5.1500,91.19237236
5.1550,90.44192309
5.1600,89.68995322
5.1650,88.93695152
5.1700,88.18278905
5.1750,87.42709888
5.1800,86.6697889
5.1850,85.9109929
5.1900,85.15103886
5.1950,84.39015533
5.2000,83.62874185
5.2050,82.86699847
5.2100,82.10589241
5.2150,81.34528881
5.2200,80.58496976
5.2250,79.82470727
5.2300,79.06453727
5.2350,78.30458764
