type,name,time_units,begin_time,frequency,count,units
signal,"Noraxon Ultium-RT BRACHIORAD.","s",0.00000,2000,50680,"uV"

time,value
0.00000,19.54540637
0.00050,17.40904552
0.00100,15.27268467
0.00150,10.99996296
0.00200,4.896074803
0.00250,0.3181586879
0.00300,-0.5974245352
0.00350,0.3181586879
0.00400,-0.2922301275
0.00450,-1.818202166
0.00500,-3.95456302
0.00550,-6.701312689
0.00600,-9.753256766
0.00650,-10.36364558
0.00700,-8.532479135
0.00750,-6.396118282
0.00800,-6.701312689
0.00850,-7.92209032
0.00900,-7.92209032
0.00950,-6.396118282
0.01000,-5.480535058
0.01050,-5.175340651
0.01100,-3.95456302
0.01150,-1.818202166
0.01200,-0.5974245352
0.01250,0.01296428019
0.01300,0.01296428019
0.01350,0.3181586879
0.01400,1.233741911
0.01450,3.675297173
0.01500,6.116852434
0.01550,4.896074803
0.01600,-2.123396574
0.01650,-11.88961762
0.01700,-17.99350577
0.01750,-18.29870018
0.01800,-15.2467561
0.01850,-12.50000644
0.01900,-10.9740344
0.01950,-9.753256766
0.02000,-8.532479135
0.02050,-8.837673543
0.02100,-10.66883999
0.02150,-13.11039525
0.02200,-14.02597847
0.02250,-11.88961762
0.02300,-7.311701505
0.02350,-1.818202166
0.02400,1.538936319
0.02450,2.75971395
0.02500,1.538936319
0.02550,0.3181586879
0.02600,0.3181586879
0.02650,3.98049158
0.02700,10.69476855
0.02750,18.32462874
0.02800,26.25968334
0.02850,33.58434913
0.02900,38.77265406
0.02950,39.38304287
0.03000,32.3635715
0.03050,18.62982315
0.03100,3.370102765
0.03150,-6.701312689
0.03200,-8.837673543
0.03250,-6.396118282
0.03300,-4.870146243
0.03350,-5.175340651
0.03400,-4.564951835
0.03450,-2.428590981
0.03500,-2.123396574
0.03550,-4.564951835
0.03600,-4.870146243
0.03650,0.9285475033
0.03700,10.99996296
0.03750,17.40904552
0.03800,16.7986567
0.03850,11.61035177
0.03900,6.116852434
0.03950,1.233741911
0.04000,-2.123396574
0.04050,-3.95456302
0.04100,-3.95456302
0.04150,-3.95456302
0.04200,-6.090923874
0.04250,-8.532479135
0.04300,-7.92209032
0.04350,-3.649368612
0.04400,2.454519542
0.04450,7.032435657
0.04500,6.116852434
0.04550,0.01296428019
0.04600,-9.142867951
0.04650,-15.2467561
0.04700,-14.9415617
0.04750,-10.66883999
0.04800,-8.837673543
0.04850,-13.41558966
0.04900,-22.8766163
0.04950,-32.03244853
0.05000,-36.30517024
0.05050,-34.47400379
0.05100,-27.75972682
0.05150,-19.21428341
0.05200,-12.50000644
0.05250,-8.532479135
0.05300,-6.396118282
0.05350,-6.396118282
0.05400,-8.837673543
0.05450,-10.66883999
0.05500,-7.311701505
0.05550,0.9285475033
0.05600,9.473990919
0.05650,15.27268467
0.05700,20.766184
0.05750,27.17526657
0.05800,30.22721064
0.05850,26.56487775
0.05900,19.85060078
0.05950,16.18826789
0.06000,16.4934623
0.06050,15.27268467
0.06100,12.525935
0.06150,10.38957414
0.06200,10.38957414
0.06250,10.38957414
0.06300,9.168796511
0.06350,7.642824473
0.06400,6.116852434
0.06450,4.590880396
0.06500,4.590880396
0.06550,6.72724125
0.06600,8.558407696
0.06650,8.253213288
0.06700,5.506463619
0.06750,2.454519542
0.06800,-1.818202166
0.06850,-7.311701505
0.06900,-9.448062359
0.06950,-7.92209032
0.07000,-11.58442321
0.07050,-28.98050445
0.07100,-54.92202911
0.07150,-75.06486001
0.07200,-82.3895258
0.07250,-81.16874817
0.07300,-75.98044324
0.07350,-64.68825015
0.07400,-47.59736332
0.07450,-30.20128208
0.07500,-17.99350577
0.07550,-9.448062359
0.07600,0.3181586879
0.07650,14.66229585
0.07700,32.97396031
0.07750,53.72718004
0.07800,71.42845568
0.07850,79.66870469
0.07900,77.83753824
0.07950,69.59728924
0.08000,58.30509615
0.08050,43.65576458
0.08100,27.48046097
0.08150,14.66229585
0.08200,8.558407696
0.08250,7.032435657
0.08300,4.590880396
0.08350,-0.2922301275
0.08400,-6.396118282
0.08450,-11.58442321
0.08500,-13.72078407
0.08550,-13.11039525
0.08600,-10.66883999
0.08650,-8.837673543
0.08700,-8.227284728
0.08750,-7.311701505
0.08800,-2.733785389
0.08850,5.811658027
0.08900,18.01943433
0.08950,30.53240505
0.09000,37.85707084
0.09050,37.85707084
0.09100,32.6687659
0.09150,25.95448893
0.09200,21.07137841
0.09250,18.32462874
0.09300,16.7986567
0.09350,14.66229585
0.09400,10.38957414
0.09450,4.590880396
0.09500,0.6233530956
0.09550,-0.5974245352
0.09600,-0.5974245352
0.09650,-0.5974245352
0.09700,-0.2922301275
0.09750,-0.5974245352
0.09800,-3.95456302
0.09850,-10.36364558
0.09900,-15.55195051
0.09950,-14.63636729
0.10000,-8.837673543
0.10050,-3.649368612
0.10100,-1.513007758
0.10150,-0.2922301275
0.10200,2.454519542
0.10250,6.116852434
0.10300,8.558407696
0.10350,9.473990919
0.10400,10.08437973
0.10450,10.99996296
0.10500,11.61035177
0.10550,11.61035177
0.10600,11.91554618
0.10650,12.525935
0.10700,12.8311294
0.10750,10.69476855
0.10800,7.94801888
0.10850,6.116852434
0.10900,5.506463619
0.10950,4.285685988
0.11000,1.538936319
0.11050,0.3181586879
0.11100,1.538936319
0.11150,4.285685988
0.11200,5.811658027
0.11250,5.811658027
0.11300,4.285685988
0.11350,0.9285475033
0.11400,-3.95456302
0.11450,-8.837673543
0.11500,-11.2792288
0.11550,-12.80520084
0.11600,-15.2467561
0.11650,-16.77272814
0.11700,-15.55195051
0.11750,-12.50000644
0.11800,-9.753256766
0.11850,-9.142867951
0.11900,-9.753256766
0.11950,-11.58442321
0.12000,-12.50000644
0.12050,-9.753256766
0.12100,-2.428590981
0.12150,3.370102765
0.12200,3.675297173
0.12250,0.01296428019
0.12300,-2.428590981
0.12350,-2.123396574
0.12400,-2.733785389
0.12450,-6.396118282
0.12500,-10.05845117
0.12550,-11.88961762
0.12600,-12.50000644
0.12650,-12.50000644
0.12700,-10.9740344
0.12750,-8.227284728
0.12800,-7.311701505
0.12850,-10.36364558
0.12900,-14.63636729
0.12950,-17.38311696
0.13000,-18.909089
0.13050,-20.74025544
0.13100,-22.57142189
0.13150,-22.26622748
0.13200,-19.82467222
0.13250,-16.46753374
0.13300,-11.88961762
0.13350,-4.564951835
0.13400,5.201269211
0.13450,14.66229585
0.13500,21.37657282
0.13550,26.87007216
0.13600,32.3635715
0.13650,36.3310988
0.13700,35.41551557
0.13750,29.00643301
0.13800,20.4609896
0.13850,11.91554618
0.13900,4.285685988
0.13950,-3.038979797
0.14000,-9.142867951
0.14050,-11.58442321
0.14100,-9.753256766
0.14150,-6.090923874
0.14200,-1.513007758
0.14250,2.454519542
0.14300,6.116852434
0.14350,7.337630065
0.14400,5.811658027
0.14450,3.98049158
0.14500,3.98049158
0.14550,5.201269211
0.14600,5.201269211
0.14650,4.285685988
0.14700,3.370102765
0.14750,1.233741911
0.14800,-2.428590981
0.14850,-6.701312689
0.14900,-9.448062359
0.14950,-10.05845117
0.15000,-10.36364558
0.15050,-11.58442321
0.15100,-12.50000644
0.15150,-13.41558966
0.15200,-15.2467561
0.15250,-17.07792255
0.15300,-16.46753374
0.15350,-12.50000644
0.15400,-9.142867951
0.15450,-10.66883999
0.15500,-17.68831137
0.15550,-27.14933801
0.15600,-34.16880938
0.15650,-34.47400379
0.15700,-29.28569886
0.15750,-21.65583867
0.15800,-16.46753374
0.15850,-14.02597847
0.15900,-13.41558966
0.15950,-14.33117288
0.16000,-14.02597847
0.16050,-7.616895912
0.16100,4.285685988
0.16150,11.91554618
0.16200,6.422046842
0.16250,-6.701312689
0.16300,-13.41558966
0.16350,-9.753256766
0.16400,-4.870146243
0.16450,-4.564951835
0.16500,-2.123396574
0.16550,9.779185327
0.16600,23.51293367
0.16650,25.03890571
0.16700,14.66229585
0.16750,5.811658027
0.16800,7.032435657
0.16850,13.74671263
0.16900,20.15579519
0.16950,25.34410012
0.17000,30.83759946
0.17050,32.3635715
0.17100,26.87007216
0.17150,17.40904552
0.17200,10.99996296
0.17250,9.473990919
0.17300,10.08437973
0.17350,9.779185327
0.17400,6.72724125
0.17450,2.75971395
0.17500,0.3181586879
0.17550,0.6233530956
0.17600,2.75971395
0.17650,3.675297173
0.17700,1.233741911
0.17750,-0.9026189429
0.17800,-0.5974245352
0.17850,3.675297173
0.17900,10.69476855
0.17950,15.88307348
0.18000,16.18826789
0.18050,11.91554618
0.18100,6.72724125
0.18150,3.98049158
0.18200,3.370102765
0.18250,0.9285475033
0.18300,-3.038979797
0.18350,-6.090923874
0.18400,-5.785729466
0.18450,-4.870146243
0.18500,-7.311701505
0.18550,-11.58442321
0.18600,-14.02597847
0.18650,-13.11039525
0.18700,-13.41558966
0.18750,-19.51947781
0.18800,-31.11686531
0.18850,-42.10386398
0.18900,-45.15580806
0.18950,-38.7467255
0.19000,-28.98050445
0.19050,-23.18181071
0.19100,-21.04544985
0.19150,-16.77272814
0.19200,-7.006507097
0.19250,3.370102765
0.19300,10.99996296
0.19350,17.10385111
0.19400,25.95448893
0.19450,36.94148761
0.19500,45.48693103
0.19550,48.2336807
0.19600,47.31809747
0.19650,45.79212544
0.19700,42.43498695
0.19750,35.11032117
0.19800,25.03890571
0.19850,16.18826789
0.19900,10.99996296
0.19950,8.253213288
0.20000,4.896074803
0.20050,0.9285475033
0.20100,-1.818202166
0.20150,-4.259757428
0.20200,-7.311701505
0.20250,-12.80520084
0.20300,-20.12986663
0.20350,-28.67531004
0.20400,-35.69478142
0.20450,-38.7467255
0.20500,-37.83114227
0.20550,-35.38958701
0.20600,-33.25322616
0.20650,-29.89608767
0.20700,-22.26622748
0.20750,-11.88961762
0.20800,-2.733785389
0.20850,5.201269211
0.20900,15.88307348
0.20950,29.61682183
0.21000,39.68823728
0.21050,40.6038205
0.21100,32.6687659
0.21150,22.59735045
0.21200,14.05190703
0.21250,8.253213288
0.21300,5.201269211
0.21350,5.506463619
0.21400,7.642824473
0.21450,8.558407696
0.21500,6.422046842
0.21550,3.675297173
0.21600,4.285685988
0.21650,9.168796511
0.21700,12.525935
0.21750,9.779185327
0.21800,0.9285475033
0.21850,-9.448062359
0.21900,-18.29870018
0.21950,-24.70778274
0.22000,-27.14933801
0.22050,-24.09739393
0.22100,-16.46753374
0.22150,-9.142867951
0.22200,-5.480535058
0.22250,-4.259757428
0.22300,-3.038979797
0.22350,-0.9026189429
0.22400,2.454519542
0.22450,8.253213288
0.22500,14.96749026
0.22550,19.54540637
0.22600,21.07137841
0.22650,21.68176723
0.22700,22.59735045
0.22750,20.15579519
0.22800,12.525935
0.22850,3.675297173
0.22900,-1.513007758
0.22950,-3.649368612
0.23000,-6.396118282
0.23050,-10.05845117
0.23100,-12.19481203
0.23150,-10.66883999
0.23200,-7.311701505
0.23250,-4.259757428
0.23300,-1.513007758
0.23350,1.233741911
0.23400,3.370102765
0.23450,3.370102765
0.23500,0.3181586879
0.23550,-3.038979797
0.23600,-6.396118282
0.23650,-9.142867951
0.23700,-11.88961762
0.23750,-15.85714492
0.23800,-23.18181071
0.23850,-33.86361497
0.23900,-44.24022484
0.23950,-49.12333536
0.24000,-46.37658569
0.24050,-41.49347517
0.24100,-39.96750313
0.24150,-38.44153109
0.24200,-32.33764294
0.24250,-21.96103307
0.24300,-13.72078407
0.24350,-8.837673543
0.24400,-2.428590981
0.24450,7.337630065
0.24500,17.10385111
0.24550,23.51293367
0.24600,29.00643301
0.24650,33.88954354
0.24700,32.3635715
0.24750,22.90254486
0.24800,12.8311294
0.24850,11.30515737
0.24900,16.18826789
0.24950,18.93501756
0.25000,15.57787907
0.25050,12.22074059
0.25100,11.61035177
0.25150,10.69476855
0.25200,5.506463619
0.25250,-2.733785389
0.25300,-10.66883999
0.25350,-14.63636729
0.25400,-14.33117288
0.25450,-12.50000644
0.25500,-11.2792288
0.25550,-10.36364558
0.25600,-7.006507097
0.25650,-0.9026189429
0.25700,5.506463619
0.25750,11.61035177
0.25800,18.01943433
0.25850,24.4285169
0.25900,26.87007216
0.25950,22.90254486
0.26000,16.18826789
0.26050,12.525935
0.26100,12.525935
0.26150,11.91554618
0.26200,8.253213288
0.26250,3.370102765
0.26300,0.3181586879
0.26350,-2.123396574
0.26400,-6.396118282
0.26450,-12.19481203
0.26500,-16.46753374
0.26550,-16.46753374
0.26600,-12.80520084
0.26650,-7.92209032
0.26700,-2.733785389
0.26750,3.370102765
0.26800,10.69476855
0.26850,16.4934623
0.26900,17.40904552
0.26950,14.35710144
0.27000,10.08437973
0.27050,7.642824473
0.27100,7.337630065
0.27150,9.473990919
0.27200,12.8311294
0.27250,14.35710144
0.27300,12.22074059
0.27350,7.642824473
0.27400,3.675297173
0.27450,2.75971395
0.27500,3.675297173
0.27550,3.370102765
0.27600,-1.818202166
0.27650,-12.80520084
0.27700,-24.40258834
0.27750,-30.50647649
0.27800,-31.11686531
0.27850,-29.28569886
0.27900,-27.75972682
0.27950,-24.40258834
0.28000,-20.12986663
0.28050,-17.99350577
0.28100,-19.82467222
0.28150,-19.82467222
0.28200,-13.72078407
0.28250,-2.123396574
0.28300,10.38957414
0.28350,20.15579519
0.28400,24.12332249
0.28450,21.98696163
0.28500,15.88307348
0.28550,9.779185327
0.28600,4.285685988
0.28650,-1.513007758
0.28700,-8.227284728
0.28750,-12.19481203
0.28800,-14.02597847
0.28850,-18.909089
0.28900,-28.98050445
0.28950,-41.18828076
0.29000,-51.87008503
0.29050,-59.49994522
0.29100,-63.46747252
0.29150,-62.85708371
0.29200,-57.97397318
0.29250,-49.73372418
0.29300,-38.13633668
0.29350,-21.35064426
0.29400,-1.513007758
0.29450,13.74671263
0.29500,23.51293367
0.29550,33.27915472
0.29600,48.5388751
0.29650,66.24015075
0.29700,76.92195502
0.29750,77.53234384
0.29800,71.42845568
0.29850,63.18820667
0.29900,52.201208
0.29950,37.24668202
0.30000,22.59735045
0.30050,13.44151822
0.30100,10.99996296
0.30150,9.168796511
0.30200,3.064908357
0.30250,-3.95456302
0.30300,-4.870146243
0.30350,1.844130726
0.30400,10.69476855
0.30450,15.57787907
0.30500,15.57787907
0.30550,12.8311294
0.30600,7.642824473
0.30650,0.9285475033
0.30700,-3.95456302
0.30750,-5.785729466
0.30800,-5.785729466
0.30850,-6.090923874
0.30900,-5.785729466
0.30950,-1.818202166
0.31000,4.590880396
0.31050,9.779185327
0.31100,10.38957414
0.31150,4.896074803
0.31200,-3.95456302
0.31250,-12.80520084
0.31300,-17.38311696
0.31350,-17.07792255
0.31400,-15.55195051
0.31450,-17.38311696
0.31500,-21.96103307
0.31550,-27.75972682
0.31600,-33.86361497
0.31650,-39.66230872
0.31700,-42.7142528
0.31750,-39.35711431
0.31800,-30.50647649
0.31850,-19.82467222
0.31900,-11.58442321
0.31950,-5.785729466
0.32000,-0.2922301275
0.32050,7.337630065
0.32100,15.88307348
0.32150,21.98696163
0.32200,27.17526657
0.32250,35.11032117
0.32300,45.48693103
0.32350,51.28562477
0.32400,47.31809747
0.32450,36.6362932
0.32500,27.78565538
0.32550,23.20773927
0.32600,19.24021197
0.32650,14.05190703
0.32700,8.863602104
0.32750,5.506463619
0.32800,1.844130726
0.32850,-2.123396574
0.32900,-5.480535058
0.32950,-7.006507097
0.33000,-7.92209032
0.33050,-7.006507097
0.33100,-2.733785389
0.33150,2.75971395
0.33200,6.116852434
0.33250,5.506463619
0.33300,3.370102765
0.33350,0.9285475033
0.33400,-3.344174205
0.33450,-9.142867951
0.33500,-12.50000644
0.33550,-10.66883999
0.33600,-7.92209032
0.33650,-7.616895912
0.33700,-9.142867951
0.33750,-8.837673543
0.33800,-6.396118282
0.33850,-3.344174205
0.33900,-0.2922301275
0.33950,3.98049158
0.34000,8.253213288
0.34050,9.473990919
0.34100,7.94801888
0.34150,4.896074803
0.34200,1.233741911
0.34250,-2.123396574
0.34300,-5.175340651
0.34350,-5.480535058
0.34400,-5.175340651
0.34450,-7.006507097
0.34500,-11.88961762
0.34550,-16.16233933
0.34600,-16.77272814
0.34650,-15.2467561
0.34700,-14.63636729
0.34750,-15.2467561
0.34800,-13.72078407
0.34850,-10.9740344
0.34900,-10.66883999
0.34950,-13.72078407
0.35000,-17.38311696
0.35050,-17.99350577
0.35100,-16.77272814
0.35150,-14.63636729
0.35200,-11.58442321
0.35250,-7.311701505
0.35300,-4.564951835
0.35350,-4.870146243
0.35400,-4.870146243
0.35450,-1.513007758
0.35500,2.75971395
0.35550,5.506463619
0.35600,8.558407696
0.35650,15.57787907
0.35700,25.34410012
0.35750,31.75318268
0.35800,32.3635715
0.35850,29.61682183
0.35900,26.25968334
0.35950,21.37657282
0.36000,14.96749026
0.36050,10.08437973
0.36100,8.558407696
0.36150,9.168796511
0.36200,10.08437973
0.36250,11.91554618
0.36300,14.05190703
0.36350,13.44151822
0.36400,11.30515737
0.36450,11.91554618
0.36500,15.27268467
0.36550,15.27268467
0.36600,9.168796511
0.36650,2.75971395
0.36700,3.675297173
0.36750,9.473990919
0.36800,12.22074059
0.36850,9.473990919
0.36900,6.116852434
0.36950,4.896074803
0.37000,3.675297173
0.37050,0.3181586879
0.37100,-3.344174205
0.37150,-4.564951835
0.37200,-5.175340651
0.37250,-5.480535058
0.37300,-4.259757428
0.37350,-2.123396574
0.37400,-5.175340651
0.37450,-15.85714492
0.37500,-28.37011564
0.37550,-33.86361497
0.37600,-32.94803175
0.37650,-33.55842057
0.37700,-36.30517024
0.37750,-36.30517024
0.37800,-31.72725412
0.37850,-27.14933801
0.37900,-25.62336597
0.37950,-22.26622748
0.38000,-12.80520084
0.38050,0.9285475033
0.38100,14.05190703
0.38150,25.64929453
0.38200,36.3310988
0.38250,41.21420932
0.38300,37.24668202
0.38350,29.31162742
0.38400,26.25968334
0.38450,30.53240505
0.38500,34.80512676
0.38550,32.05837709
0.38600,24.12332249
0.38650,16.7986567
0.38700,13.74671263
0.38750,13.44151822
0.38800,14.05190703
0.38850,12.525935
0.38900,8.253213288
0.38950,4.285685988
0.39000,5.811658027
0.39050,11.30515737
0.39100,14.66229585
0.39150,13.13632381
0.39200,12.22074059
0.39250,18.32462874
0.39300,29.00643301
0.39350,34.80512676
0.39400,32.3635715
0.39450,27.78565538
0.39500,29.00643301
0.39550,33.27915472
0.39600,32.3635715
0.39650,23.81812808
0.39700,14.96749026
0.39750,11.30515737
0.39800,10.08437973
0.39850,7.337630065
0.39900,4.896074803
0.39950,6.72724125
0.40000,10.99996296
0.40050,10.08437973
0.40100,1.844130726
0.40150,-7.92209032
0.40200,-14.33117288
0.40250,-17.07792255
0.40300,-18.60389459
0.40350,-20.74025544
0.40400,-21.35064426
0.40450,-19.21428341
0.40500,-15.2467561
0.40550,-11.58442321
0.40600,-11.2792288
0.40650,-11.88961762
0.40700,-7.006507097
0.40750,6.72724125
0.40800,22.29215604
0.40850,27.78565538
0.40900,21.07137841
0.40950,10.69476855
0.41000,3.370102765
0.41050,-3.649368612
0.41100,-12.80520084
0.41150,-17.38311696
0.41200,-9.448062359
0.41250,4.285685988
0.41300,12.22074059
0.41350,12.22074059
0.41400,14.35710144
0.41450,24.4285169
0.41500,36.94148761
0.41550,43.04537577
0.41600,42.74018136
0.41650,39.68823728
0.41700,34.19473794
0.41750,25.03890571
0.41800,16.4934623
0.41850,12.525935
0.41900,10.99996296
0.41950,6.72724125
0.42000,0.01296428019
0.42050,-3.649368612
0.42100,-1.513007758
0.42150,1.538936319
0.42200,1.844130726
0.42250,0.01296428019
0.42300,-1.818202166
0.42350,-3.649368612
0.42400,-7.616895912
0.42450,-12.50000644
0.42500,-15.85714492
0.42550,-16.46753374
0.42600,-15.85714492
0.42650,-16.16233933
0.42700,-17.38311696
0.42750,-17.07792255
0.42800,-14.33117288
0.42850,-9.753256766
0.42900,-6.701312689
0.42950,-6.396118282
0.43000,-6.701312689
0.43050,-3.95456302
0.43100,2.75971395
0.43150,10.08437973
0.43200,12.8311294
0.43250,10.69476855
0.43300,5.811658027
0.43350,0.9285475033
0.43400,-4.870146243
0.43450,-13.11039525
0.43500,-22.26622748
0.43550,-29.28569886
0.43600,-31.42205971
0.43650,-29.28569886
0.43700,-24.40258834
0.43750,-18.29870018
0.43800,-13.11039525
0.43850,-10.05845117
0.43900,-9.142867951
0.43950,-8.837673543
0.44000,-7.311701505
0.44050,-5.480535058
0.44100,-2.733785389
0.44150,0.9285475033
0.44200,4.896074803
0.44250,4.285685988
0.44300,-3.649368612
0.44350,-16.16233933
0.44400,-26.8441436
0.44450,-32.94803175
0.44500,-33.55842057
0.44550,-28.06492123
0.44600,-18.29870018
0.44650,-8.532479135
0.44700,-1.207813351
0.44750,5.201269211
0.44800,11.91554618
0.44850,16.18826789
0.44900,18.32462874
0.44950,25.03890571
0.45000,37.85707084
0.45050,49.14926392
0.45100,48.5388751
0.45150,36.6362932
0.45200,23.51293367
0.45250,13.13632381
0.45300,1.233741911
0.45350,-14.33117288
0.45400,-28.06492123
0.45450,-32.94803175
0.45500,-30.20128208
0.45550,-25.01297715
0.45600,-21.65583867
0.45650,-19.82467222
0.45700,-18.60389459
0.45750,-16.46753374
0.45800,-10.9740344
0.45850,0.01296428019
0.45900,15.57787907
0.45950,32.6687659
0.46000,47.01290307
0.46050,56.4739297
0.46100,59.52587378
0.46150,55.25315207
0.46200,44.2661534
0.46250,31.44798827
0.46300,22.59735045
0.46350,21.07137841
0.46400,22.59735045
0.46450,20.15579519
0.46500,12.22074059
0.46550,3.064908357
0.46600,-2.123396574
0.46650,-3.95456302
0.46700,-4.259757428
0.46750,-5.480535058
0.46800,-7.311701505
0.46850,-9.142867951
0.46900,-10.66883999
0.46950,-14.33117288
0.47000,-20.12986663
0.47050,-24.70778274
0.47100,-23.79219952
0.47150,-18.909089
0.47200,-15.2467561
0.47250,-14.63636729
0.47300,-14.63636729
0.47350,-11.58442321
0.47400,-6.396118282
0.47450,-1.513007758
0.47500,2.454519542
0.47550,6.422046842
0.47600,9.473990919
0.47650,12.22074059
0.47700,14.96749026
0.47750,15.57787907
0.47800,11.30515737
0.47850,3.064908357
0.47900,-2.428590981
0.47950,-4.564951835
0.48000,-6.090923874
0.48050,-9.142867951
0.48100,-10.9740344
0.48150,-10.9740344
0.48200,-11.2792288
0.48250,-13.41558966
0.48300,-14.33117288
0.48350,-13.11039525
0.48400,-13.72078407
0.48450,-16.46753374
0.48500,-15.85714492
0.48550,-9.753256766
0.48600,-4.259757428
0.48650,-4.870146243
0.48700,-8.227284728
0.48750,-6.396118282
0.48800,0.01296428019
0.48850,2.454519542
0.48900,-1.818202166
0.48950,-8.837673543
0.49000,-12.50000644
0.49050,-14.63636729
0.49100,-19.21428341
0.49150,-26.53894919
0.49200,-32.64283734
0.49250,-35.08439261
0.49300,-34.47400379
0.49350,-33.25322616
0.49400,-30.50647649
0.49450,-21.04544985
0.49500,-3.344174205
0.49550,14.96749026
0.49600,23.81812808
0.49650,21.07137841
0.49700,14.66229585
0.49750,10.08437973
0.49800,5.201269211
0.49850,-3.038979797
0.49900,-10.05845117
0.49950,-10.66883999
0.50000,-7.616895912
0.50050,-8.532479135
0.50100,-14.63636729
0.50150,-19.51947781
0.50200,-20.12986663
0.50250,-21.65583867
0.50300,-26.53894919
0.50350,-28.67531004
0.50400,-22.8766163
0.50450,-13.72078407
0.50500,-8.227284728
0.50550,-4.870146243
0.50600,0.3181586879
0.50650,5.811658027
0.50700,6.422046842
0.50750,1.538936319
0.50800,-1.818202166
0.50850,-0.2922301275
0.50900,5.201269211
0.50950,13.74671263
0.51000,25.34410012
0.51050,33.27915472
0.51100,29.61682183
0.51150,15.57787907
0.51200,1.844130726
0.51250,-3.649368612
0.51300,-6.396118282
0.51350,-12.19481203
0.51400,-18.909089
0.51450,-21.96103307
0.51500,-22.26622748
0.51550,-23.79219952
0.51600,-25.62336597
0.51650,-25.01297715
0.51700,-21.65583867
0.51750,-17.99350577
0.51800,-15.85714492
0.51850,-14.63636729
0.51900,-15.55195051
0.51950,-16.16233933
0.52000,-13.11039525
0.52050,-4.564951835
0.52100,5.201269211
0.52150,13.44151822
0.52200,18.01943433
0.52250,18.32462874
0.52300,13.74671263
0.52350,10.08437973
0.52400,14.96749026
0.52450,28.7012386
0.52500,41.21420932
0.52550,44.2661534
0.52600,39.68823728
0.52650,34.80512676
0.52700,31.14279387
0.52750,24.7337113
0.52800,15.88307348
0.52850,7.032435657
0.52900,0.3181586879
0.52950,-5.785729466
0.53000,-10.9740344
0.53050,-13.72078407
0.53100,-13.41558966
0.53150,-10.36364558
0.53200,-6.090923874
0.53250,-3.038979797
0.53300,-2.428590981
0.53350,-2.428590981
0.53400,-2.428590981
0.53450,-0.9026189429
0.53500,0.6233530956
0.53550,3.064908357
0.53600,5.506463619
0.53650,6.72724125
0.53700,4.896074803
0.53750,0.3181586879
0.53800,-5.175340651
0.53850,-10.36364558
0.53900,-14.9415617
0.53950,-17.68831137
0.54000,-17.99350577
0.54050,-16.46753374
0.54100,-15.85714492
0.54150,-16.46753374
0.54200,-17.38311696
0.54250,-17.99350577
0.54300,-17.68831137
0.54350,-16.77272814
0.54400,-14.9415617
0.54450,-11.88961762
0.54500,-8.227284728
0.54550,-5.480535058
0.54600,-4.259757428
0.54650,-5.480535058
0.54700,-7.92209032
0.54750,-10.05845117
0.54800,-10.66883999
0.54850,-7.92209032
0.54900,-1.818202166
0.54950,4.590880396
0.55000,6.72724125
0.55050,3.064908357
0.55100,-4.259757428
0.55150,-10.66883999
0.55200,-14.9415617
0.55250,-18.60389459
0.55300,-21.65583867
0.55350,-22.26622748
0.55400,-18.909089
0.55450,-13.72078407
0.55500,-9.142867951
0.55550,-5.480535058
0.55600,-2.123396574
0.55650,0.6233530956
0.55700,2.149325134
0.55750,2.454519542
0.55800,2.75971395
0.55850,2.149325134
0.55900,0.3181586879
0.55950,-3.649368612
0.56000,-7.006507097
0.56050,-7.006507097
0.56100,-3.038979797
0.56150,1.538936319
0.56200,2.75971395
0.56250,-0.9026189429
0.56300,-7.006507097
0.56350,-10.66883999
0.56400,-10.9740344
0.56450,-12.50000644
0.56500,-18.60389459
0.56550,-25.62336597
0.56600,-28.37011564
0.56650,-25.92856037
0.56700,-23.79219952
0.56750,-24.40258834
0.56800,-24.70778274
0.56850,-20.12986663
0.56900,-9.448062359
0.56950,3.98049158
0.57000,16.4934623
0.57050,26.25968334
0.57100,32.97396031
0.57150,36.94148761
0.57200,35.72070998
0.57250,27.78565538
0.57300,15.88307348
0.57350,5.811658027
0.57400,0.6233530956
0.57450,-2.733785389
0.57500,-8.227284728
0.57550,-13.41558966
0.57600,-14.02597847
0.57650,-9.753256766
0.57700,-7.006507097
0.57750,-9.753256766
0.57800,-14.9415617
0.57850,-16.46753374
0.57900,-12.80520084
0.57950,-7.92209032
0.58000,-4.259757428
0.58050,-1.513007758
0.58100,0.3181586879
0.58150,-0.5974245352
0.58200,-5.785729466
0.58250,-11.2792288
0.58300,-10.9740344
0.58350,-5.175340651
0.58400,2.149325134
0.58450,10.69476855
0.58500,20.766184
0.58550,28.3960442
0.58600,26.56487775
0.58650,15.88307348
0.58700,7.337630065
0.58750,9.779185327
0.58800,19.85060078
0.58850,27.78565538
0.58900,28.3960442
0.58950,25.03890571
0.59000,20.15579519
0.59050,16.4934623
0.59100,16.4934623
0.59150,20.766184
0.59200,25.34410012
0.59250,25.95448893
0.59300,24.12332249
0.59350,22.29215604
0.59400,19.85060078
0.59450,13.44151822
0.59500,6.72724125
0.59550,6.116852434
0.59600,11.91554618
0.59650,15.27268467
0.59700,9.473990919
0.59750,-0.5974245352
0.59800,-6.701312689
0.59850,-5.785729466
0.59900,-3.344174205
0.59950,-4.870146243
0.60000,-10.66883999
0.60050,-17.38311696
0.60100,-21.65583867
0.60150,-22.26622748
0.60200,-20.43506104
0.60250,-18.29870018
0.60300,-17.38311696
0.60350,-15.85714492
0.60400,-10.05845117
0.60450,-0.9026189429
0.60500,8.558407696
0.60550,15.27268467
0.60600,18.93501756
0.60650,21.68176723
0.60700,23.20773927
0.60750,23.20773927
0.60800,21.68176723
0.60850,20.4609896
0.60900,21.68176723
0.60950,26.87007216
0.61000,34.80512676
0.61050,42.12979254
0.61100,44.2661534
0.61150,38.77265406
0.61200,28.7012386
0.61250,18.01943433
0.61300,10.38957414
0.61350,8.253213288
0.61400,10.99996296
0.61450,15.27268467
0.61500,13.74671263
0.61550,2.149325134
0.61600,-16.16233933
0.61650,-33.86361497
0.61700,-44.85061365
0.61750,-48.51294654
0.61800,-47.59736332
0.61850,-44.24022484
0.61900,-39.66230872
0.61950,-35.38958701
0.62000,-32.03244853
0.62050,-28.67531004
0.62100,-23.18181071
0.62150,-14.63636729
0.62200,-3.95456302
0.62250,7.337630065
0.62300,17.40904552
0.62350,24.4285169
0.62400,28.09084979
0.62450,27.78565538
0.62500,23.20773927
0.62550,14.96749026
0.62600,7.032435657
0.62650,2.149325134
0.62700,1.538936319
0.62750,2.75971395
0.62800,4.285685988
0.62850,4.896074803
0.62900,4.896074803
0.62950,5.201269211
0.63000,8.253213288
0.63050,16.7986567
0.63100,29.61682183
0.63150,40.90901491
0.63200,44.5713478
0.63250,39.38304287
0.63300,29.31162742
0.63350,19.54540637
0.63400,12.22074059
0.63450,6.422046842
0.63500,1.538936319
0.63550,-0.2922301275
0.63600,1.538936319
0.63650,4.896074803
0.63700,3.675297173
0.63750,-3.649368612
0.63800,-13.11039525
0.63850,-17.99350577
0.63900,-16.46753374
0.63950,-10.9740344
0.64000,-5.175340651
0.64050,-1.207813351
0.64100,-0.2922301275
0.64150,-1.207813351
0.64200,-2.428590981
0.64250,-3.344174205
0.64300,-4.870146243
0.64350,-6.090923874
0.64400,-3.344174205
0.64450,3.675297173
0.64500,10.69476855
0.64550,12.525935
0.64600,9.779185327
0.64650,6.72724125
0.64700,3.370102765
0.64750,-1.818202166
0.64800,-7.311701505
0.64850,-8.837673543
0.64900,-8.227284728
0.64950,-13.41558966
0.65000,-27.75972682
0.65050,-44.85061365
0.65100,-55.53241792
0.65150,-57.97397318
0.65200,-56.75319555
0.65250,-57.66877878
0.65300,-61.33111167
0.65350,-64.38305574
0.65400,-62.24669489
0.65450,-53.70125148
0.65500,-40.27269754
0.65550,-22.8766163
0.65600,-2.428590981
0.65650,18.32462874
0.65700,37.55187643
0.65750,52.201208
0.65800,63.18820667
0.65850,68.98690042
0.65900,67.46092838
0.65950,59.22067937
0.66000,51.89601359
0.66050,50.67523596
0.66100,53.42198563
0.66150,52.81159681
0.66200,45.79212544
0.66250,35.72070998
0.66300,27.17526657
0.66350,19.85060078
0.66400,13.13632381
0.66450,9.473990919
0.66500,9.473990919
0.66550,10.69476855
0.66600,9.168796511
0.66650,5.811658027
0.66700,3.675297173
0.66750,3.064908357
0.66800,0.3181586879
0.66850,-5.785729466
0.66900,-10.36364558
0.66950,-6.701312689
0.67000,4.896074803
0.67050,17.71423993
0.67100,22.90254486
0.67150,19.85060078
0.67200,13.13632381
0.67250,8.863602104
0.67300,7.94801888
0.67350,8.253213288
0.67400,7.94801888
0.67450,5.811658027
0.67500,0.9285475033
0.67550,-7.92209032
0.67600,-20.12986663
0.67650,-33.55842057
0.67700,-44.24022484
0.67750,-49.42852977
0.67800,-46.37658569
0.67850,-34.7791982
0.67900,-17.68831137
0.67950,0.3181586879
0.68000,15.27268467
0.68050,23.51293367
0.68100,23.20773927
0.68150,17.10385111
0.68200,11.61035177
0.68250,12.22074059
0.68300,16.7986567
0.68350,19.54540637
0.68400,16.4934623
0.68450,9.473990919
0.68500,2.149325134
0.68550,-1.513007758
0.68600,0.9285475033
0.68650,10.99996296
0.68700,22.29215604
0.68750,26.25968334
0.68800,22.29215604
0.68850,15.88307348
0.68900,12.22074059
0.68950,10.08437973
0.69000,7.032435657
0.69050,3.064908357
0.69100,-0.9026189429
0.69150,-4.564951835
0.69200,-5.785729466
0.69250,-3.038979797
0.69300,0.01296428019
0.69350,-1.513007758
0.69400,-6.396118282
0.69450,-8.227284728
0.69500,-6.396118282
0.69550,-6.701312689
0.69600,-13.11039525
0.69650,-21.35064426
0.69700,-26.23375478
0.69750,-28.37011564
0.69800,-28.98050445
0.69850,-25.01297715
0.69900,-16.46753374
0.69950,-9.142867951
0.70000,-7.006507097
0.70050,-4.870146243
0.70100,3.370102765
0.70150,13.44151822
0.70200,13.74671263
0.70250,4.896074803
0.70300,-0.5974245352
0.70350,2.75971395
0.70400,7.94801888
0.70450,4.896074803
0.70500,-4.564951835
0.70550,-13.72078407
0.70600,-18.29870018
0.70650,-19.51947781
0.70700,-19.21428341
0.70750,-17.38311696
0.70800,-14.63636729
0.70850,-11.88961762
0.70900,-7.92209032
0.70950,-2.733785389
0.71000,0.6233530956
0.71050,0.9285475033
0.71100,0.3181586879
0.71150,1.233741911
0.71200,1.844130726
0.71250,-1.207813351
0.71300,-5.480535058
0.71350,-4.870146243
0.71400,0.3181586879
0.71450,3.370102765
0.71500,0.6233530956
0.71550,-1.513007758
0.71600,1.233741911
0.71650,7.642824473
0.71700,10.69476855
0.71750,8.253213288
0.71800,3.370102765
0.71850,-2.428590981
0.71900,-12.19481203
0.71950,-24.09739393
0.72000,-32.64283734
0.72050,-34.47400379
0.72100,-32.03244853
0.72150,-28.37011564
0.72200,-25.31817156
0.72250,-23.79219952
0.72300,-23.18181071
0.72350,-22.57142189
0.72400,-18.29870018
0.72450,-9.142867951
0.72500,1.538936319
0.72550,10.38957414
0.72600,18.01943433
0.72650,26.25968334
0.72700,33.88954354
0.72750,35.72070998
0.72800,28.7012386
0.72850,17.10385111
0.72900,10.69476855
0.72950,14.66229585
0.73000,25.64929453
0.73050,34.80512676
0.73100,36.6362932
0.73150,32.3635715
0.73200,25.95448893
0.73250,19.54540637
0.73300,13.74671263
0.73350,10.99996296
0.73400,12.525935
0.73450,15.27268467
0.73500,15.27268467
0.73550,12.8311294
0.73600,12.8311294
0.73650,16.7986567
0.73700,18.62982315
0.73750,13.44151822
0.73800,5.201269211
0.73850,1.233741911
0.73900,3.370102765
0.73950,7.337630065
0.74000,9.473990919
0.74050,10.69476855
0.74100,10.38957414
0.74150,5.506463619
0.74200,-3.038979797
0.74250,-9.448062359
0.74300,-10.05845117
0.74350,-7.006507097
0.74400,-5.175340651
0.74450,-6.090923874
0.74500,-7.92209032
0.74550,-10.66883999
0.74600,-14.63636729
0.74650,-17.07792255
0.74700,-15.55195051
0.74750,-12.80520084
0.74800,-14.9415617
0.74850,-23.18181071
0.74900,-31.42205971
0.74950,-35.38958701
0.75000,-36.91555905
0.75050,-39.05191991
0.75100,-38.13633668
0.75150,-28.37011564
0.75200,-12.80520084
0.75250,-2.733785389
0.75300,-3.344174205
0.75350,-7.616895912
0.75400,-5.480535058
0.75450,2.75971395
0.75500,11.30515737
0.75550,17.71423993
0.75600,24.4285169
0.75650,29.61682183
0.75700,27.48046097
0.75750,17.71423993
0.75800,7.032435657
0.75850,3.064908357
0.75900,8.863602104
0.75950,21.68176723
0.76000,37.24668202
0.76050,49.14926392
0.76100,53.72718004
0.76150,52.81159681
0.76200,48.2336807
0.76250,39.68823728
0.76300,27.78565538
0.76350,19.24021197
0.76400,17.40904552
0.76450,18.32462874
0.76500,17.40904552
0.76550,18.93501756
0.76600,28.7012386
0.76650,42.12979254
0.76700,49.75965274
0.76750,48.84406951
0.76800,44.5713478
0.76850,39.07784847
0.76900,28.7012386
0.76950,12.22074059
0.77000,-4.870146243
0.77050,-17.99350577
0.77100,-26.53894919
0.77150,-29.89608767
0.77200,-29.28569886
0.77250,-28.37011564
0.77300,-29.89608767
0.77350,-29.89608767
0.77400,-22.57142189
0.77450,-8.532479135
0.77500,7.337630065
0.77550,21.68176723
0.77600,33.27915472
0.77650,39.38304287
0.77700,38.77265406
0.77750,32.6687659
0.77800,24.4285169
0.77850,11.61035177
0.77900,-5.175340651
0.77950,-19.82467222
0.78000,-23.79219952
0.78050,-18.29870018
0.78100,-11.58442321
0.78150,-7.311701505
0.78200,-0.2922301275
0.78250,10.69476855
0.78300,21.68176723
0.78350,28.09084979
0.78400,31.44798827
0.78450,34.80512676
0.78500,35.41551557
0.78550,30.83759946
0.78600,22.90254486
0.78650,15.88307348
0.78700,11.61035177
0.78750,6.116852434
0.78800,-3.344174205
0.78850,-15.55195051
0.78900,-25.01297715
0.78950,-27.14933801
0.79000,-23.79219952
0.79050,-20.43506104
0.79100,-22.26622748
0.79150,-27.14933801
0.79200,-29.89608767
0.79250,-27.75972682
0.79300,-22.26622748
0.79350,-19.82467222
0.79400,-24.70778274
0.79450,-34.7791982
0.79500,-43.01944721
0.79550,-44.24022484
0.79600,-40.57789194
0.79650,-41.18828076
0.79700,-50.34411299
0.79750,-62.24669489
0.79800,-70.18174949
0.79850,-72.92849916
0.79900,-72.62330475
0.79950,-68.35058304
0.80000,-56.14280674
0.80050,-35.99997583
0.80100,-13.72078407
0.80150,7.642824473
0.80200,28.09084979
0.80250,44.87654221
0.80300,51.89601359
0.80350,50.98043037
0.80400,51.59081918
0.80450,57.99990174
0.80500,60.44145701
0.80550,49.14926392
0.80600,29.92201623
0.80650,18.32462874
0.80700,18.01943433
0.80750,18.01943433
0.80800,10.38957414
0.80850,1.233741911
0.80900,-0.5974245352
0.80950,3.370102765
0.81000,6.422046842
0.81050,5.811658027
0.81100,6.422046842
0.81150,11.30515737
0.81200,17.71423993
0.81250,21.07137841
0.81300,18.32462874
0.81350,9.779185327
0.81400,0.3181586879
0.81450,-4.564951835
0.81500,-2.123396574
0.81550,1.538936319
0.81600,1.538936319
0.81650,-0.9026189429
0.81700,-2.123396574
0.81750,-2.123396574
0.81800,-3.649368612
0.81850,-7.616895912
0.81900,-10.66883999
0.81950,-12.19481203
0.82000,-14.33117288
0.82050,-17.99350577
0.82100,-20.12986663
0.82150,-20.12986663
0.82200,-21.65583867
0.82250,-28.06492123
0.82300,-35.08439261
0.82350,-35.69478142
0.82400,-28.37011564
0.82450,-17.68831137
0.82500,-7.92209032
0.82550,-1.818202166
0.82600,0.9285475033
0.82650,1.233741911
0.82700,0.9285475033
0.82750,2.149325134
0.82800,2.75971395
0.82850,-0.2922301275
0.82900,-7.311701505
0.82950,-13.11039525
0.83000,-11.88961762
0.83050,-3.038979797
0.83100,8.863602104
0.83150,18.32462874
0.83200,21.07137841
0.83250,15.57787907
0.83300,6.116852434
0.83350,-2.123396574
0.83400,-7.311701505
0.83450,-10.66883999
0.83500,-12.80520084
0.83550,-12.80520084
0.83600,-11.2792288
0.83650,-10.66883999
0.83700,-12.19481203
0.83750,-15.2467561
0.83800,-20.12986663
0.83850,-27.45453241
0.83900,-36.61036464
0.83950,-45.76619688
0.84000,-54.31164029
0.84050,-62.5518893
0.84100,-66.5194166
0.84150,-60.41552844
0.84200,-44.85061365
0.84250,-30.50647649
0.84300,-23.79219952
0.84350,-18.60389459
0.84400,-5.480535058
0.84450,14.05190703
0.84500,30.83759946
0.84550,39.38304287
0.84600,44.87654221
0.84650,51.28562477
0.84700,54.94795767
0.84750,52.201208
0.84800,43.35057017
0.84850,31.14279387
0.84900,18.93501756
0.84950,10.99996296
0.85000,10.99996296
0.85050,14.96749026
0.85100,14.35710144
0.85150,5.506463619
0.85200,-5.785729466
0.85250,-12.80520084
0.85300,-15.2467561
0.85350,-16.46753374
0.85400,-17.68831137
0.85450,-18.909089
0.85500,-25.92856037
0.85550,-42.10386398
0.85600,-63.77266693
0.85650,-78.72719291
0.85700,-80.25316495
0.85750,-69.57136068
0.85800,-52.48047384
0.85850,-32.94803175
0.85900,-16.77272814
0.85950,-10.36364558
0.86000,-11.2792288
0.86050,-7.616895912
0.86100,10.69476855
0.86150,41.82459814
0.86200,72.0388445
0.86250,90.96089778
0.86300,98.89595238
0.86350,100.4219244
0.86400,97.67517474
0.86450,89.74012014
0.86500,77.83753824
0.86550,64.1037899
0.86600,49.75965274
0.86650,35.72070998
0.86700,24.4285169
0.86750,19.24021197
0.86800,19.24021197
0.86850,20.766184
0.86900,20.766184
0.86950,17.71423993
0.87000,8.863602104
0.87050,-4.870146243
0.87100,-19.82467222
0.87150,-29.59089327
0.87200,-33.25322616
0.87250,-34.47400379
0.87300,-35.38958701
0.87350,-35.38958701
0.87400,-35.99997583
0.87450,-40.57789194
0.87500,-47.29216891
0.87550,-50.03891858
0.87600,-45.15580806
0.87650,-37.22075346
0.87700,-31.11686531
0.87750,-26.53894919
0.87800,-24.40258834
0.87850,-26.8441436
0.87900,-35.38958701
0.87950,-44.24022484
0.88000,-48.81814095
0.88050,-51.87008503
0.88100,-57.66877878
0.88150,-62.5518893
0.88200,-59.49994522
0.88250,-50.34411299
0.88300,-43.01944721
0.88350,-41.18828076
0.88400,-40.88308635
0.88450,-41.18828076
0.88500,-44.54541924
0.88550,-51.87008503
0.88600,-57.36358437
0.88650,-56.75319555
0.88700,-52.17527944
0.88750,-47.29216891
0.88800,-43.01944721
0.88850,-39.35711431
0.88900,-39.05191991
0.88950,-40.88308635
0.89000,-38.44153109
0.89050,-25.92856037
0.89100,-7.616895912
0.89150,6.422046842
0.89200,13.44151822
0.89250,17.40904552
0.89300,21.98696163
0.89350,22.29215604
0.89400,12.8311294
0.89450,-4.564951835
0.89500,-18.909089
0.89550,-21.96103307
0.89600,-15.85714492
0.89650,-10.9740344
0.89700,-13.11039525
0.89750,-18.29870018
0.89800,-20.12986663
0.89850,-16.77272814
0.89900,-11.2792288
0.89950,-6.396118282
0.90000,-1.513007758
0.90050,2.454519542
0.90100,4.896074803
0.90150,5.201269211
0.90200,7.94801888
0.90250,14.05190703
0.90300,19.85060078
0.90350,18.62982315
0.90400,10.99996296
0.90450,2.149325134
0.90500,-2.428590981
0.90550,-3.95456302
0.90600,-2.733785389
0.90650,0.6233530956
0.90700,3.064908357
0.90750,-0.9026189429
0.90800,-14.02597847
0.90850,-28.98050445
0.90900,-38.7467255
0.90950,-43.01944721
0.91000,-46.6817801
0.91050,-49.42852977
0.91100,-45.76619688
0.91150,-35.69478142
0.91200,-28.67531004
0.91250,-29.28569886
0.91300,-30.8116709
0.91350,-22.57142189
0.91400,-3.95456302
0.91450,14.66229585
0.91500,26.56487775
0.91550,35.41551557
0.91600,46.40251425
0.91650,55.86354089
0.91700,55.25315207
0.91750,42.74018136
0.91800,26.25968334
0.91850,15.27268467
0.91900,12.22074059
0.91950,15.27268467
0.92000,19.54540637
0.92050,22.90254486
0.92100,23.20773927
0.92150,22.59735045
0.92200,23.81812808
0.92250,26.56487775
0.92300,27.48046097
0.92350,25.64929453
0.92400,24.12332249
0.92450,27.17526657
0.92500,33.58434913
0.92550,40.6038205
0.92600,45.79212544
0.92650,46.09731984
0.92700,38.46745965
0.92750,22.90254486
0.92800,6.422046842
0.92850,-2.733785389
0.92900,0.3181586879
0.92950,14.35710144
0.93000,34.80512676
0.93050,50.37004155
0.93100,52.201208
0.93150,41.21420932
0.93200,28.09084979
0.93250,21.37657282
0.93300,18.32462874
0.93350,14.05190703
0.93400,10.38957414
0.93450,10.99996296
0.93500,11.30515737
0.93550,5.506463619
0.93600,-1.513007758
0.93650,-1.818202166
0.93700,4.590880396
0.93750,7.94801888
0.93800,4.590880396
0.93850,1.538936319
0.93900,5.506463619
0.93950,11.61035177
0.94000,12.525935
0.94050,8.558407696
0.94100,6.116852434
0.94150,6.72724125
0.94200,5.506463619
0.94250,0.01296428019
0.94300,-6.090923874
0.94350,-6.701312689
0.94400,-0.2922301275
0.94450,9.473990919
0.94500,17.71423993
0.94550,18.62982315
0.94600,7.94801888
0.94650,-13.41558966
0.94700,-39.35711431
0.94750,-57.97397318
0.94800,-63.46747252
0.94850,-60.72072285
0.94900,-57.97397318
0.94950,-58.27916759
0.95000,-56.14280674
0.95050,-47.29216891
0.95100,-34.7791982
0.95150,-23.48700511
0.95200,-11.2792288
0.95250,6.72724125
0.95300,29.61682183
0.95350,48.2336807
0.95400,57.38951293
0.95450,61.05184582
0.95500,67.46092838
0.95550,75.39598298
0.95600,76.31156621
0.95650,65.01937312
0.95700,48.2336807
0.95750,37.55187643
0.95800,35.72070998
0.95850,35.41551557
0.95900,26.25968334
0.95950,8.253213288
0.96000,-9.448062359
0.96050,-19.51947781
0.96100,-21.35064426
0.96150,-19.82467222
0.96200,-17.68831137
0.96250,-14.33117288
0.96300,-11.88961762
0.96350,-13.41558966
0.96400,-17.38311696
0.96450,-16.16233933
0.96500,-2.733785389
0.96550,18.93501756
0.96600,38.16226524
0.96650,44.2661534
0.96700,34.19473794
0.96750,14.66229585
0.96800,-2.123396574
0.96850,-8.227284728
0.96900,-5.785729466
0.96950,-3.649368612
0.97000,-6.701312689
0.97050,-8.227284728
0.97100,-2.123396574
0.97150,7.032435657
0.97200,9.168796511
0.97250,4.590880396
0.97300,2.75971395
0.97350,10.69476855
0.97400,21.98696163
0.97450,25.64929453
0.97500,20.15579519
0.97550,14.05190703
0.97600,15.57787907
0.97650,24.7337113
0.97700,33.58434913
0.97750,35.11032117
0.97800,29.92201623
0.97850,24.12332249
0.97900,21.37657282
0.97950,18.93501756
0.98000,15.27268467
0.98050,12.8311294
0.98100,14.66229585
0.98150,15.88307348
0.98200,8.863602104
0.98250,-4.870146243
0.98300,-15.2467561
0.98350,-14.9415617
0.98400,-7.92209032
0.98450,-0.5974245352
0.98500,5.201269211
0.98550,10.38957414
0.98600,11.61035177
0.98650,6.72724125
0.98700,0.3181586879
0.98750,-0.9026189429
0.98800,3.064908357
0.98850,6.422046842
0.98900,6.72724125
0.98950,7.642824473
0.99000,8.863602104
0.99050,6.116852434
0.99100,-1.207813351
0.99150,-6.701312689
0.99200,-3.649368612
0.99250,5.506463619
0.99300,13.74671263
0.99350,18.01943433
0.99400,19.85060078
0.99450,20.15579519
0.99500,17.71423993
0.99550,14.35710144
0.99600,13.13632381
0.99650,15.27268467
0.99700,17.71423993
0.99750,18.01943433
0.99800,16.7986567
0.99850,14.96749026
0.99900,11.91554618
0.99950,7.94801888
1.00000,4.896074803
1.00050,3.675297173
1.00100,3.064908357
1.00150,0.6233530956
1.00200,-5.785729466
1.00250,-17.38311696
1.00300,-30.50647649
1.00350,-37.22075346
1.00400,-30.8116709
1.00450,-14.02597847
1.00500,3.98049158
1.00550,14.96749026
1.00600,16.7986567
1.00650,13.74671263
1.00700,10.69476855
1.00750,9.779185327
1.00800,7.94801888
1.00850,1.844130726
1.00900,-4.564951835
1.00950,-3.649368612
1.01000,5.506463619
1.01050,11.91554618
1.01100,7.337630065
1.01150,-1.818202166
1.01200,-2.733785389
1.01250,4.590880396
1.01300,9.779185327
1.01350,7.94801888
1.01400,6.116852434
1.01450,9.779185327
1.01500,12.525935
1.01550,7.94801888
1.01600,-0.2922301275
1.01650,-6.396118282
1.01700,-11.2792288
1.01750,-20.43506104
1.01800,-31.42205971
1.01850,-35.38958701
1.01900,-27.45453241
1.01950,-12.50000644
1.02000,0.9285475033
1.02050,9.168796511
1.02100,14.35710144
1.02150,17.71423993
1.02200,17.71423993
1.02250,14.66229585
1.02300,14.66229585
1.02350,22.90254486
1.02400,33.27915472
1.02450,34.49993235
1.02500,24.7337113
1.02550,16.4934623
1.02600,19.85060078
1.02650,28.7012386
1.02700,30.83759946
1.02750,26.25968334
1.02800,23.20773927
1.02850,25.03890571
1.02900,26.87007216
1.02950,24.4285169
1.03000,20.4609896
1.03050,18.62982315
1.03100,18.32462874
1.03150,17.40904552
1.03200,13.44151822
1.03250,6.116852434
1.03300,-3.95456302
1.03350,-13.41558966
1.03400,-21.35064426
1.03450,-29.28569886
1.03500,-36.30517024
1.03550,-34.47400379
1.03600,-19.82467222
1.03650,1.233741911
1.03700,16.4934623
1.03750,21.98696163
1.03800,21.98696163
1.03850,21.68176723
1.03900,21.68176723
1.03950,21.07137841
1.04000,20.766184
1.04050,21.07137841
1.04100,21.68176723
1.04150,22.29215604
1.04200,21.68176723
1.04250,19.54540637
1.04300,18.01943433
1.04350,17.40904552
1.04400,14.05190703
1.04450,5.201269211
1.04500,-5.785729466
1.04550,-13.41558966
1.04600,-18.60389459
1.04650,-29.89608767
1.04700,-48.51294654
1.04750,-63.77266693
1.04800,-65.60383338
1.04850,-58.584362
1.04900,-54.92202911
1.04950,-55.53241792
1.05000,-49.73372418
1.05050,-29.59089327
1.05100,-1.207813351
1.05150,22.29215604
1.05200,35.11032117
1.05250,40.6038205
1.05300,45.18173662
1.05350,49.75965274
1.05400,50.98043037
1.05450,48.5388751
1.05500,46.40251425
1.05550,46.70770866
1.05600,45.18173662
1.05650,36.3310988
1.05700,19.85060078
1.05750,0.3181586879
1.05800,-18.60389459
1.05850,-33.55842057
1.05900,-41.79866957
1.05950,-43.32464161
1.06000,-41.18828076
1.06050,-38.44153109
1.06100,-33.55842057
1.06150,-25.92856037
1.06200,-17.38311696
1.06250,-9.448062359
1.06300,0.3181586879
1.06350,14.05190703
1.06400,29.00643301
1.06450,40.6038205
1.06500,48.5388751
1.06550,54.33756885
1.06600,54.64276326
1.06650,45.18173662
1.06700,29.00643301
1.06750,12.8311294
1.06800,-0.2922301275
1.06850,-10.36364558
1.06900,-14.9415617
1.06950,-14.02597847
1.07000,-13.11039525
1.07050,-19.21428341
1.07100,-28.06492123
1.07150,-27.45453241
1.07200,-14.02597847
1.07250,3.370102765
1.07300,14.35710144
1.07350,15.27268467
1.07400,7.337630065
1.07450,-5.175340651
1.07500,-14.63636729
1.07550,-11.88961762
1.07600,4.896074803
1.07650,26.87007216
1.07700,43.35057017
1.07750,50.98043037
1.07800,52.201208
1.07850,47.31809747
1.07900,38.46745965
1.07950,30.22721064
1.08000,25.64929453
1.08050,19.54540637
1.08100,3.370102765
1.08150,-20.43506104
1.08200,-40.27269754
1.08250,-46.98697451
1.08300,-44.85061365
1.08350,-43.93503043
1.08400,-45.76619688
1.08450,-45.46100247
1.08500,-40.57789194
1.08550,-35.99997583
1.08600,-35.69478142
1.08650,-35.99997583
1.08700,-30.20128208
1.08750,-17.38311696
1.08800,-4.564951835
1.08850,1.233741911
1.08900,-0.2922301275
1.08950,-5.785729466
1.09000,-10.9740344
1.09050,-15.2467561
1.09100,-17.99350577
1.09150,-17.07792255
1.09200,-9.142867951
1.09250,5.201269211
1.09300,21.98696163
1.09350,34.80512676
1.09400,39.07784847
1.09450,32.97396031
1.09500,17.10385111
1.09550,-3.649368612
1.09600,-22.57142189
1.09650,-33.25322616
1.09700,-35.38958701
1.09750,-33.25322616
1.09800,-30.20128208
1.09850,-28.67531004
1.09900,-29.89608767
1.09950,-30.8116709
1.10000,-28.67531004
1.10050,-23.48700511
1.10100,-18.60389459
1.10150,-14.9415617
1.10200,-10.05845117
1.10250,-4.259757428
1.10300,-4.564951835
1.10350,-13.41558966
1.10400,-24.09739393
1.10450,-25.31817156
1.10500,-17.07792255
1.10550,-7.311701505
1.10600,-0.9026189429
1.10650,3.98049158
1.10700,11.61035177
1.10750,19.24021197
1.10800,24.7337113
1.10850,27.48046097
1.10900,28.7012386
1.10950,29.61682183
1.11000,31.14279387
1.11050,34.49993235
1.11100,37.24668202
1.11150,35.11032117
1.11200,27.48046097
1.11250,19.54540637
1.11300,18.93501756
1.11350,25.95448893
1.11400,34.49993235
1.11450,36.94148761
1.11500,32.6687659
1.11550,27.78565538
1.11600,26.56487775
1.11650,27.17526657
1.11700,22.59735045
1.11750,10.99996296
1.11800,-0.2922301275
1.11850,-4.870146243
1.11900,-1.207813351
1.11950,5.201269211
1.12000,9.168796511
1.12050,7.337630065
1.12100,0.01296428019
1.12150,-8.837673543
1.12200,-16.46753374
1.12250,-24.70778274
1.12300,-36.91555905
1.12350,-47.29216891
1.12400,-45.46100247
1.12450,-27.14933801
1.12500,-3.95456302
1.12550,7.642824473
1.12600,4.285685988
1.12650,-5.480535058
1.12700,-13.41558966
1.12750,-18.909089
1.12800,-23.48700511
1.12850,-25.62336597
1.12900,-21.65583867
1.12950,-11.88961762
1.13000,-1.818202166
1.13050,2.454519542
1.13100,2.149325134
1.13150,2.454519542
1.13200,9.168796511
1.13250,20.4609896
1.13300,29.61682183
1.13350,33.27915472
1.13400,32.05837709
1.13450,28.09084979
1.13500,21.37657282
1.13550,14.96749026
1.13600,12.8311294
1.13650,13.74671263
1.13700,9.473990919
1.13750,-5.175340651
1.13800,-23.48700511
1.13850,-33.86361497
1.13900,-34.47400379
1.13950,-32.03244853
1.14000,-30.20128208
1.14050,-26.23375478
1.14100,-18.60389459
1.14150,-10.36364558
1.14200,-2.733785389
1.14250,7.642824473
1.14300,21.37657282
1.14350,32.05837709
1.14400,33.88954354
1.14450,28.09084979
1.14500,18.32462874
1.14550,5.811658027
1.14600,-6.396118282
1.14650,-14.33117288
1.14700,-14.9415617
1.14750,-11.2792288
1.14800,-8.227284728
1.14850,-7.006507097
1.14900,-6.090923874
1.14950,-6.090923874
1.15000,-6.701312689
1.15050,-5.480535058
1.15100,-2.733785389
1.15150,-4.259757428
1.15200,-16.16233933
1.15250,-35.08439261
1.15300,-51.56489062
1.15350,-62.24669489
1.15400,-67.43499982
1.15450,-66.21422219
1.15500,-57.05838996
1.15550,-45.76619688
1.15600,-40.88308635
1.15650,-43.32464161
1.15700,-44.24022484
1.15750,-36.91555905
1.15800,-25.31817156
1.15850,-15.85714492
1.15900,-10.66883999
1.15950,-9.753256766
1.16000,-13.11039525
1.16050,-18.909089
1.16100,-19.51947781
1.16150,-9.142867951
1.16200,8.253213288
1.16250,25.03890571
1.16300,35.11032117
1.16350,39.38304287
1.16400,38.77265406
1.16450,35.41551557
1.16500,33.27915472
1.16550,33.58434913
1.16600,34.19473794
1.16650,32.05837709
1.16700,27.78565538
1.16750,24.4285169
1.16800,21.37657282
1.16850,17.10385111
1.16900,14.35710144
1.16950,15.57787907
1.17000,19.24021197
1.17050,19.54540637
1.17100,13.74671263
1.17150,3.675297173
1.17200,-6.701312689
1.17250,-16.46753374
1.17300,-24.70778274
1.17350,-30.20128208
1.17400,-33.86361497
1.17450,-35.99997583
1.17500,-37.22075346
1.17550,-37.83114227
1.17600,-39.05191991
1.17650,-40.57789194
1.17700,-39.35711431
1.17750,-35.08439261
1.17800,-33.55842057
1.17850,-39.35711431
1.17900,-49.12333536
1.17950,-53.39605707
1.18000,-49.42852977
1.18050,-42.7142528
1.18100,-37.83114227
1.18150,-33.55842057
1.18200,-29.28569886
1.18250,-28.06492123
1.18300,-31.72725412
1.18350,-33.86361497
1.18400,-26.23375478
1.18450,-10.66883999
1.18500,3.675297173
1.18550,12.525935
1.18600,17.71423993
1.18650,21.37657282
1.18700,22.90254486
1.18750,23.51293367
1.18800,29.92201623
1.18850,45.18173662
1.18900,61.05184582
1.18950,67.15573397
1.19000,62.57781786
1.19050,52.5064024
1.19100,41.21420932
1.19150,29.61682183
1.19200,19.85060078
1.19250,14.05190703
1.19300,10.69476855
1.19350,7.642824473
1.19400,6.422046842
1.19450,10.38957414
1.19500,17.71423993
1.19550,21.68176723
1.19600,20.15579519
1.19650,18.01943433
1.19700,18.01943433
1.19750,18.01943433
1.19800,14.35710144
1.19850,7.032435657
1.19900,-2.123396574
1.19950,-11.88961762
1.20000,-19.82467222
1.20050,-23.48700511
1.20100,-24.40258834
1.20150,-24.40258834
1.20200,-22.57142189
1.20250,-16.46753374
1.20300,-8.837673543
1.20350,-5.480535058
1.20400,-4.259757428
1.20450,2.454519542
1.20500,19.24021197
1.20550,37.24668202
1.20600,48.5388751
1.20650,52.201208
1.20700,51.59081918
1.20750,46.40251425
1.20800,34.80512676
1.20850,20.4609896
1.20900,11.61035177
1.20950,10.08437973
1.21000,13.13632381
1.21050,18.32462874
1.21100,24.4285169
1.21150,29.61682183
1.21200,30.53240505
1.21250,28.09084979
1.21300,27.48046097
1.21350,28.3960442
1.21400,25.95448893
1.21450,18.62982315
1.21500,11.30515737
1.21550,8.863602104
1.21600,7.94801888
1.21650,3.675297173
1.21700,-0.9026189429
1.21750,1.233741911
1.21800,11.91554618
1.21850,21.68176723
1.21900,25.03890571
1.21950,26.87007216
1.22000,34.80512676
1.22050,45.48693103
1.22100,49.45445833
1.22150,43.35057017
1.22200,33.58434913
1.22250,25.64929453
1.22300,18.01943433
1.22350,7.94801888
1.22400,-3.649368612
1.22450,-14.9415617
1.22500,-25.31817156
1.22550,-32.94803175
1.22600,-36.30517024
1.22650,-35.08439261
1.22700,-33.55842057
1.22750,-34.16880938
1.22800,-34.47400379
1.22850,-30.50647649
1.22900,-19.82467222
1.22950,-5.480535058
1.23000,6.422046842
1.23050,13.74671263
1.23100,18.32462874
1.23150,25.64929453
1.23200,34.80512676
1.23250,39.38304287
1.23300,38.16226524
1.23350,39.68823728
1.23400,50.37004155
1.23450,61.66223464
1.23500,59.83106819
1.23550,43.35057017
1.23600,25.03890571
1.23650,16.4934623
1.23700,15.88307348
1.23750,16.18826789
1.23800,14.35710144
1.23850,10.69476855
1.23900,5.811658027
1.23950,0.9285475033
1.24000,0.3181586879
1.24050,3.064908357
1.24100,3.675297173
1.24150,-1.818202166
1.24200,-10.05845117
1.24250,-16.77272814
1.24300,-26.23375478
1.24350,-43.01944721
1.24400,-61.33111167
1.24450,-69.26616627
1.24500,-61.63630608
1.24550,-46.37658569
1.24600,-31.72725412
1.24650,-19.21428341
1.24700,-6.701312689
1.24750,4.285685988
1.24800,10.69476855
1.24850,11.91554618
1.24900,8.558407696
1.24950,0.6233530956
1.25000,-9.753256766
1.25050,-15.55195051
1.25100,-10.05845117
1.25150,2.75971395
1.25200,12.8311294
1.25250,16.4934623
1.25300,17.40904552
1.25350,17.40904552
1.25400,10.38957414
1.25450,-2.733785389
1.25500,-10.9740344
1.25550,-7.92209032
1.25600,-5.175340651
1.25650,-19.82467222
1.25700,-50.95450181
1.25750,-76.28563765
1.25800,-79.94797054
1.25850,-67.12980541
1.25900,-53.70125148
1.25950,-46.98697451
1.26000,-42.10386398
1.26050,-33.55842057
1.26100,-22.8766163
1.26150,-17.07792255
1.26200,-19.21428341
1.26250,-24.09739393
1.26300,-26.53894919
1.26350,-27.75972682
1.26400,-34.7791982
1.26450,-46.07139128
1.26500,-50.95450181
1.26550,-44.54541924
1.26600,-35.38958701
1.26650,-36.30517024
1.26700,-44.85061365
1.26750,-48.81814095
1.26800,-46.6817801
1.26850,-48.51294654
1.26900,-58.88955641
1.26950,-64.68825015
1.27000,-52.48047384
1.27050,-26.23375478
1.27100,-1.207813351
1.27150,13.74671263
1.27200,23.81812808
1.27250,34.49993235
1.27300,42.43498695
1.27350,42.12979254
1.27400,36.94148761
1.27450,33.27915472
1.27500,33.88954354
1.27550,33.58434913
1.27600,30.83759946
1.27650,28.09084979
1.27700,28.3960442
1.27750,30.53240505
1.27800,32.05837709
1.27850,33.88954354
1.27900,37.85707084
1.27950,43.65576458
1.28000,46.40251425
1.28050,43.35057017
1.28100,35.72070998
1.28150,25.95448893
1.28200,15.88307348
1.28250,4.285685988
1.28300,-7.92209032
1.28350,-19.51947781
1.28400,-25.01297715
1.28450,-21.04544985
1.28500,-8.532479135
1.28550,6.422046842
1.28600,18.93501756
1.28650,27.48046097
1.28700,33.58434913
1.28750,36.6362932
1.28800,36.6362932
1.28850,34.80512676
1.28900,32.6687659
1.28950,29.61682183
1.29000,21.37657282
1.29050,6.116852434
1.29100,-13.11039525
1.29150,-31.72725412
1.29200,-44.85061365
1.29250,-50.34411299
1.29300,-48.81814095
1.29350,-45.15580806
1.29400,-42.10386398
1.29450,-39.96750313
1.29500,-34.47400379
1.29550,-24.70778274
1.29600,-14.9415617
1.29650,-9.142867951
1.29700,-4.870146243
1.29750,0.9285475033
1.29800,5.506463619
1.29850,2.454519542
1.29900,-7.006507097
1.29950,-15.55195051
1.30000,-17.07792255
1.30050,-16.77272814
1.30100,-20.12986663
1.30150,-24.09739393
1.30200,-23.79219952
1.30250,-20.12986663
1.30300,-20.43506104
1.30350,-25.62336597
1.30400,-30.20128208
1.30450,-27.75972682
1.30500,-18.909089
1.30550,-5.785729466
1.30600,10.69476855
1.30650,29.31162742
1.30700,43.35057017
1.30750,47.92848629
1.30800,43.65576458
1.30850,35.41551557
1.30900,27.17526657
1.30950,20.15579519
1.31000,15.27268467
1.31050,13.44151822
1.31100,11.91554618
1.31150,8.558407696
1.31200,3.064908357
1.31250,-1.818202166
1.31300,-4.870146243
1.31350,-7.616895912
1.31400,-13.41558966
1.31450,-24.70778274
1.31500,-38.44153109
1.31550,-48.20775214
1.31600,-49.12333536
1.31650,-42.40905839
1.31700,-33.25322616
1.31750,-25.31817156
1.31800,-17.68831137
1.31850,-9.448062359
1.31900,-0.9026189429
1.31950,3.675297173
1.32000,3.98049158
1.32050,3.370102765
1.32100,8.253213288
1.32150,21.07137841
1.32200,34.80512676
1.32250,39.68823728
1.32300,32.3635715
1.32350,20.4609896
1.32400,10.99996296
1.32450,4.896074803
1.32500,-2.733785389
1.32550,-15.85714492
1.32600,-31.72725412
1.32650,-46.07139128
1.32700,-51.56489062
1.32750,-42.7142528
1.32800,-22.57142189
1.32850,-3.038979797
1.32900,6.116852434
1.32950,9.473990919
1.33000,18.62982315
1.33050,36.6362932
1.33100,53.11679122
1.33150,56.77912411
1.33200,45.18173662
1.33250,27.78565538
1.33300,14.96749026
1.33350,8.863602104
1.33400,0.9285475033
1.33450,-14.9415617
1.33500,-35.99997583
1.33550,-52.48047384
1.33600,-60.72072285
1.33650,-68.04538864
1.33700,-79.03238731
1.33750,-89.71419158
1.33800,-92.76613566
1.33850,-88.49341395
1.33900,-81.47394258
1.33950,-75.06486001
1.34000,-70.18174949
1.34050,-67.43499982
1.34100,-64.07786134
1.34150,-55.22722351
1.34200,-39.96750313
1.34250,-26.53894919
1.34300,-18.909089
1.34350,-10.9740344
1.34400,4.590880396
1.34450,25.03890571
1.34500,39.38304287
1.34550,44.5713478
1.34600,48.2336807
1.34650,56.4739297
1.34700,65.62976194
1.34750,69.29209483
1.34800,65.62976194
1.34850,56.1687353
1.34900,44.2661534
1.34950,33.27915472
1.35000,28.7012386
1.35050,28.7012386
1.35100,25.95448893
1.35150,14.35710144
1.35200,-1.513007758
1.35250,-12.19481203
1.35300,-13.72078407
1.35350,-11.2792288
1.35400,-9.448062359
1.35450,-7.311701505
1.35500,-2.428590981
1.35550,2.149325134
1.35600,3.675297173
1.35650,3.370102765
1.35700,6.116852434
1.35750,13.13632381
1.35800,20.4609896
1.35850,25.34410012
1.35900,28.7012386
1.35950,30.83759946
1.36000,31.44798827
1.36050,31.14279387
1.36100,34.49993235
1.36150,43.96095899
1.36200,55.25315207
1.36250,60.74665141
1.36300,57.69470734
1.36350,50.98043037
1.36400,47.92848629
1.36450,51.89601359
1.36500,60.44145701
1.36550,67.46092838
1.36600,68.37651161
1.36650,62.88301227
1.36700,54.33756885
1.36750,47.01290307
1.36800,42.12979254
1.36850,39.07784847
1.36900,36.02590439
1.36950,33.27915472
1.37000,30.83759946
1.37050,30.22721064
1.37100,32.97396031
1.37150,38.77265406
1.37200,44.5713478
1.37250,47.92848629
1.37300,46.09731984
1.37350,40.90901491
1.37400,35.41551557
1.37450,31.44798827
1.37500,24.7337113
1.37550,13.13632381
1.37600,0.01296428019
1.37650,-7.92209032
1.37700,-8.532479135
1.37750,-7.616895912
1.37800,-9.142867951
1.37850,-10.36364558
1.37900,-8.532479135
1.37950,-5.480535058
1.38000,-4.259757428
1.38050,-2.733785389
1.38100,0.3181586879
1.38150,-0.2922301275
1.38200,-10.36364558
1.38250,-28.98050445
1.38300,-47.29216891
1.38350,-59.19475081
1.38400,-64.68825015
1.38450,-68.96097186
1.38500,-73.23369357
1.38550,-74.4544712
1.38600,-67.74019423
1.38650,-53.09086266
1.38700,-35.69478142
1.38750,-20.43506104
1.38800,-8.227284728
1.38850,0.6233530956
1.38900,5.506463619
1.38950,6.116852434
1.39000,7.642824473
1.39050,16.18826789
1.39100,28.09084979
1.39150,35.72070998
1.39200,36.02590439
1.39250,31.75318268
1.39300,24.12332249
1.39350,11.91554618
1.39400,-0.2922301275
1.39450,-5.480535058
1.39500,-1.207813351
1.39550,4.896074803
1.39600,8.558407696
1.39650,10.99996296
1.39700,12.525935
1.39750,8.558407696
1.39800,0.3181586879
1.39850,-3.95456302
1.39900,2.454519542
1.39950,14.35710144
1.40000,23.20773927
1.40050,27.48046097
1.40100,28.7012386
1.40150,24.4285169
1.40200,12.525935
1.40250,-3.038979797
1.40300,-15.2467561
1.40350,-23.48700511
1.40400,-30.8116709
1.40450,-39.05191991
1.40500,-47.59736332
1.40550,-57.97397318
1.40600,-72.62330475
1.40650,-90.62977481
1.40700,-109.8570225
1.40750,-126.6427149
1.40800,-137.934908
1.40850,-140.3764633
1.40900,-136.408936
1.40950,-133.0517975
1.41000,-133.3569919
1.41050,-129.3894646
1.41100,-114.740133
1.41150,-91.85055244
1.41200,-70.18174949
1.41250,-54.00644588
1.41300,-43.62983602
1.41350,-39.96750313
1.41400,-43.01944721
1.41450,-47.29216891
1.41500,-47.90255773
1.41550,-47.59736332
1.41600,-50.34411299
1.41650,-52.17527944
1.41700,-45.46100247
1.41750,-31.11686531
1.41800,-17.68831137
1.41850,-8.227284728
1.41900,4.285685988
1.41950,25.95448893
1.42000,49.14926392
1.42050,66.54534516
1.42100,82.41545436
1.42150,104.3894517
1.42200,129.1101987
1.42250,143.1491415
1.42300,139.1816142
1.42350,122.3959218
1.42400,102.8634797
1.42450,86.07778725
1.42500,72.0388445
1.42550,58.91548497
1.42600,43.96095899
1.42650,23.81812808
1.42700,-0.2922301275
1.42750,-23.18181071
1.42800,-39.96750313
1.42850,-50.6493074
1.42900,-58.27916759
1.42950,-64.07786134
1.43000,-67.74019423
1.43050,-68.04538864
1.43100,-67.43499982
1.43150,-67.12980541
1.43200,-66.5194166
1.43250,-61.94150048
1.43300,-54.6168347
1.43350,-50.34411299
1.43400,-54.00644588
1.43450,-61.94150048
1.43500,-65.90902778
1.43550,-63.77266693
1.43600,-58.88955641
1.43650,-53.39605707
1.43700,-43.32464161
1.43750,-25.92856037
1.43800,-6.396118282
1.43850,8.863602104
1.43900,21.07137841
1.43950,35.11032117
1.44000,53.42198563
1.44050,74.17520535
1.44100,95.53881389
1.44150,115.3764504
1.44200,127.8894211
1.44250,126.0582547
1.44300,109.8829511
1.44350,84.24662081
1.44400,55.55834648
1.44450,26.56487775
1.44500,-0.5974245352
1.44550,-25.01297715
1.44600,-44.54541924
1.44650,-58.27916759
1.44700,-62.24669489
1.44750,-54.31164029
1.44800,-37.52594787
1.44850,-18.60389459
1.44900,-4.870146243
1.44950,-0.9026189429
1.45000,-5.175340651
1.45050,-12.80520084
1.45100,-17.07792255
1.45150,-17.99350577
1.45200,-19.82467222
1.45250,-26.8441436
1.45300,-38.7467255
1.45350,-51.25969621
1.45400,-60.11033404
1.45450,-61.94150048
1.45500,-56.75319555
1.45550,-50.6493074
1.45600,-48.20775214
1.45650,-45.76619688
1.45700,-35.99997583
1.45750,-20.43506104
1.45800,-9.448062359
1.45850,-6.701312689
1.45900,-5.175340651
1.45950,0.3181586879
1.46000,3.98049158
1.46050,1.233741911
1.46100,-0.2922301275
1.46150,6.116852434
1.46200,16.4934623
1.46250,18.93501756
1.46300,11.30515737
1.46350,2.149325134
1.46400,-2.733785389
1.46450,-5.785729466
1.46500,-8.227284728
1.46550,-9.142867951
1.46600,-12.80520084
1.46650,-25.92856037
1.46700,-47.29216891
1.46750,-63.46747252
1.46800,-62.24669489
1.46850,-45.15580806
1.46900,-21.04544985
1.46950,0.3181586879
1.47000,12.8311294
1.47050,15.27268467
1.47100,12.22074059
1.47150,12.8311294
1.47200,23.81812808
1.47250,43.35057017
1.47300,61.66223464
1.47350,71.12326127
1.47400,69.29209483
1.47450,60.74665141
1.47500,53.11679122
1.47550,49.45445833
1.47600,47.31809747
1.47650,43.35057017
1.47700,38.46745965
1.47750,34.80512676
1.47800,30.53240505
1.47850,21.07137841
1.47900,10.99996296
1.47950,6.72724125
1.48000,7.337630065
1.48050,0.9285475033
1.48100,-17.99350577
1.48150,-40.27269754
1.48200,-51.87008503
1.48250,-51.87008503
1.48300,-48.51294654
1.48350,-47.29216891
1.48400,-43.62983602
1.48450,-35.38958701
1.48500,-25.01297715
1.48550,-18.60389459
1.48600,-16.77272814
1.48650,-16.16233933
1.48700,-13.72078407
1.48750,-8.837673543
1.48800,-2.123396574
1.48850,6.116852434
1.48900,17.71423993
1.48950,31.75318268
1.49000,44.5713478
1.49050,52.81159681
1.49100,57.08431852
1.49150,60.44145701
1.49200,64.1037899
1.49250,65.93495634
1.49300,65.62976194
1.49350,64.40898431
1.49400,61.35704023
1.49450,50.98043037
1.49500,32.3635715
1.49550,13.74671263
1.49600,5.811658027
1.49650,7.337630065
1.49700,8.558407696
1.49750,5.506463619
1.49800,5.201269211
1.49850,13.74671263
1.49900,27.17526657
1.49950,38.77265406
1.50000,49.45445833
1.50050,65.62976194
1.50100,87.9089537
1.50150,108.6621734
1.50200,120.5647553
1.50250,122.7011162
1.50300,118.4283945
1.50350,109.2725622
1.50400,91.876481
1.50450,65.62976194
1.50500,35.72070998
1.50550,12.525935
1.50600,3.675297173
1.50650,7.94801888
1.50700,16.7986567
1.50750,20.4609896
1.50800,17.40904552
1.50850,10.99996296
1.50900,5.506463619
1.50950,3.675297173
1.51000,6.116852434
1.51050,12.8311294
1.51100,22.59735045
1.51150,32.05837709
1.51200,40.6038205
1.51250,50.37004155
1.51300,61.66223464
1.51350,70.81806687
1.51400,72.34403891
1.51450,66.85053957
1.51500,61.05184582
1.51550,61.96742904
1.51600,68.68170601
1.51650,72.64923331
1.51700,67.15573397
1.51750,53.11679122
1.51800,37.55187643
1.51850,24.12332249
1.51900,10.08437973
1.51950,-9.142867951
1.52000,-33.86361497
1.52050,-58.88955641
1.52100,-80.86355376
1.52150,-100.7011903
1.52200,-118.0972715
1.52250,-126.6427149
1.52300,-121.45441
1.52350,-109.5518281
1.52400,-104.973912
1.52450,-110.7726057
1.52500,-116.8764939
1.52550,-115.0453274
1.52600,-111.3829945
1.52650,-113.5193554
1.52700,-117.7920771
1.52750,-112.9089666
1.52800,-98.87002382
1.52850,-85.44146988
1.52900,-78.72719291
1.52950,-71.70772153
1.53000,-56.75319555
1.53050,-34.47400379
1.53100,-12.19481203
1.53150,2.75971395
1.53200,8.253213288
1.53250,4.590880396
1.53300,-4.870146243
1.53350,-16.77272814
1.53400,-25.92856037
1.53450,-25.92856037
1.53500,-14.63636729
1.53550,0.3181586879
1.53600,7.032435657
1.53650,7.032435657
1.53700,14.96749026
1.53750,41.21420932
1.53800,78.14273265
1.53850,112.0193119
1.53900,137.3504477
1.53950,156.272501
1.54000,164.2075556
1.54050,155.0517234
1.54100,132.7725316
1.54150,108.6621734
1.54200,87.60375929
1.54250,68.0713172
1.54300,48.5388751
1.54350,29.00643301
1.54400,6.72724125
1.54450,-12.80520084
1.54500,-15.2467561
1.54550,6.422046842
1.54600,34.49993235
1.54650,45.48693103
1.54700,41.82459814
1.54750,46.09731984
1.54800,63.79859549
1.54850,76.31156621
1.54900,71.42845568
1.54950,62.88301227
1.55000,65.62976194
1.55050,73.25962213
1.55100,73.56481654
1.55150,68.0713172
1.55200,67.46092838
1.55250,72.0388445
1.55300,76.92195502
1.55350,82.72064877
1.55400,90.65570337
1.55450,92.48686981
1.55500,79.05831587
1.55550,54.33756885
1.55600,29.00643301
1.55650,3.370102765
1.55700,-30.20128208
1.55750,-72.62330475
1.55800,-113.214161
1.55850,-143.7336017
1.55900,-161.4348774
1.55950,-166.6231823
1.56000,-159.2985165
1.56050,-144.9543794
1.56100,-133.0517975
1.56150,-126.6427149
1.56200,-121.7596044
1.56250,-113.5193554
1.56300,-99.17521822
1.56350,-78.72719291
1.56400,-56.44800114
1.56450,-41.79866957
1.56500,-38.44153109
1.56550,-39.96750313
1.56600,-34.47400379
1.56650,-19.21428341
1.56700,-0.2922301275
1.56750,16.18826789
1.56800,29.31162742
1.56850,38.46745965
1.56900,43.65576458
1.56950,45.79212544
1.57000,47.31809747
1.57050,48.2336807
1.57100,49.45445833
1.57150,54.03237444
1.57200,61.66223464
1.57250,65.62976194
1.57300,61.35704023
1.57350,52.81159681
1.57400,46.40251425
1.57450,43.65576458
1.57500,42.74018136
1.57550,43.65576458
1.57600,44.5713478
1.57650,40.90901491
1.57700,32.97396031
1.57750,29.92201623
1.57800,32.3635715
1.57850,28.09084979
1.57900,10.38957414
1.57950,-6.396118282
1.58000,-7.006507097
1.58050,4.285685988
1.58100,13.13632381
1.58150,18.01943433
1.58200,28.7012386
1.58250,43.65576458
1.58300,50.37004155
1.58350,47.92848629
1.58400,52.201208
1.58450,71.42845568
1.58500,95.53881389
1.58550,110.4933399
1.58600,109.2725622
1.58650,92.18167541
1.58700,64.1037899
1.58750,39.68823728
1.58800,30.83759946
1.58850,30.83759946
1.58900,22.90254486
1.58950,0.9285475033
1.59000,-23.18181071
1.59050,-43.93503043
1.59100,-68.04538864
1.59150,-97.95444059
1.59200,-124.5063541
1.59250,-137.934908
1.59300,-142.2076297
1.59350,-141.5972409
1.59400,-131.8310198
1.59450,-110.7726057
1.59500,-84.52588665
1.59550,-62.24669489
1.59600,-41.79866957
1.59650,-19.51947781
1.59700,1.233741911
1.59750,14.35710144
1.59800,18.32462874
1.59850,17.10385111
1.59900,14.96749026
1.59950,15.57787907
1.60000,20.766184
1.60050,28.7012386
1.60100,34.49993235
1.60150,39.99343169
1.60200,51.28562477
1.60250,68.98690042
1.60300,86.07778725
1.60350,99.50634119
1.60400,114.4608672
1.60450,130.6361708
1.60500,136.7400589
1.60550,123.9218938
1.60600,97.36998034
1.60650,68.37651161
1.60700,40.90901491
1.60750,12.525935
1.60800,-20.12986663
1.60850,-59.49994522
1.60900,-106.1946896
1.60950,-151.0582675
1.61000,-173.6426537
1.61050,-158.9933221
1.61100,-114.740133
1.61150,-64.99344456
1.61200,-28.98050445
1.61250,-11.2792288
1.61300,-5.785729466
1.61350,-3.038979797
1.61400,4.285685988
1.61450,17.71423993
1.61500,30.83759946
1.61550,34.80512676
1.61600,24.4285169
1.61650,-0.5974245352
1.61700,-35.08439261
1.61750,-72.01291594
1.61800,-105.8894952
1.61850,-133.6621863
1.61900,-150.4478787
1.61950,-151.0582675
1.62000,-137.0193248
1.62050,-121.45441
1.62100,-111.3829945
1.62150,-98.259635
1.62200,-72.62330475
1.62250,-45.76619688
1.62300,-39.66230872
1.62350,-54.92202911
1.62400,-68.04538864
1.62450,-64.68825015
1.62500,-55.53241792
1.62550,-53.70125148
1.62600,-52.17527944
1.62650,-39.05191991
1.62700,-20.74025544
1.62750,-11.2792288
1.62800,-9.753256766
1.62850,-1.513007758
1.62900,15.88307348
1.62950,32.6687659
1.63000,41.82459814
1.63050,48.5388751
1.63100,57.38951293
1.63150,64.40898431
1.63200,66.24015075
1.63250,63.49340108
1.63300,56.1687353
1.63350,42.43498695
1.63400,24.12332249
1.63450,8.863602104
1.63500,3.064908357
1.63550,5.811658027
1.63600,9.779185327
1.63650,8.558407696
1.63700,0.6233530956
1.63750,-9.448062359
1.63800,-16.77272814
1.63850,-21.35064426
1.63900,-28.37011564
1.63950,-39.96750313
1.64000,-49.42852977
1.64050,-49.73372418
1.64100,-42.40905839
1.64150,-33.55842057
1.64200,-24.70778274
1.64250,-14.02597847
1.64300,-4.564951835
1.64350,-0.5974245352
1.64400,0.3181586879
1.64450,3.98049158
1.64500,12.525935
1.64550,20.766184
1.64600,25.95448893
1.64650,30.22721064
1.64700,36.6362932
1.64750,43.96095899
1.64800,52.201208
1.64850,62.88301227
1.64900,76.31156621
1.64950,87.9089537
1.65000,93.40245304
1.65050,92.79206422
1.65100,88.51934251
1.65150,80.88948232
1.65200,69.90248364
1.65250,56.4739297
1.65300,42.12979254
1.65350,28.7012386
1.65400,17.40904552
1.65450,7.337630065
1.65500,-4.870146243
1.65550,-21.96103307
1.65600,-39.05191991
1.65650,-45.76619688
1.65700,-36.61036464
1.65750,-20.12986663
1.65800,-10.36364558
1.65850,-13.72078407
1.65900,-25.01297715
1.65950,-35.38958701
1.66000,-43.32464161
1.66050,-50.6493074
1.66100,-57.66877878
1.66150,-62.24669489
1.66200,-64.38305574
1.66250,-67.43499982
1.66300,-72.62330475
1.66350,-76.28563765
1.66400,-74.14927679
1.66450,-63.77266693
1.66500,-46.6817801
1.66550,-26.23375478
1.66600,-8.837673543
1.66650,3.064908357
1.66700,16.4934623
1.66750,37.24668202
1.66800,60.1362626
1.66850,69.90248364
1.66900,59.83106819
1.66950,39.99343169
1.67000,27.17526657
1.67050,25.64929453
1.67100,30.53240505
1.67150,38.77265406
1.67200,51.89601359
1.67250,71.12326127
1.67300,92.18167541
1.67350,112.0193119
1.67400,130.9413652
1.67450,148.3374464
1.67500,159.3244451
1.67550,159.3244451
1.67600,147.1166688
1.67650,123.9218938
1.67700,92.18167541
1.67750,56.1687353
1.67800,22.90254486
1.67850,-1.513007758
1.67900,-16.46753374
1.67950,-28.67531004
1.68000,-44.54541924
1.68050,-64.68825015
1.68100,-79.94797054
1.68150,-82.69472021
1.68200,-76.89602646
1.68250,-74.75966561
1.68300,-82.08433139
1.68350,-93.37652448
1.68400,-98.87002382
1.68450,-97.03885737
1.68500,-94.2921077
1.68550,-93.98691329
1.68600,-90.62977481
1.68650,-73.84408238
1.68700,-42.7142528
1.68750,-7.616895912
1.68800,18.01943433
1.68850,32.3635715
1.68900,39.99343169
1.68950,41.82459814
1.69000,32.6687659
1.69050,14.66229585
1.69100,0.9285475033
1.69150,0.9285475033
1.69200,7.337630065
1.69250,6.422046842
1.69300,-1.207813351
1.69350,-3.649368612
1.69400,0.9285475033
1.69450,0.01296428019
1.69500,-16.77272814
1.69550,-36.30517024
1.69600,-35.38958701
1.69650,-7.311701505
1.69700,30.53240505
1.69750,57.38951293
1.69800,64.40898431
1.69850,57.99990174
1.69900,49.14926392
1.69950,43.04537577
1.70000,37.85707084
1.70050,32.6687659
1.70100,27.48046097
1.70150,22.29215604
1.70200,16.18826789
1.70250,9.473990919
1.70300,4.896074803
1.70350,3.675297173
1.70400,3.370102765
1.70450,0.9285475033
1.70500,-2.123396574
1.70550,-4.870146243
1.70600,-6.701312689
1.70650,-6.396118282
1.70700,0.9285475033
1.70750,16.18826789
1.70800,31.14279387
1.70850,36.02590439
1.70900,35.11032117
1.70950,42.74018136
1.71000,64.1037899
1.71050,84.85700962
1.71100,88.21414811
1.71150,72.64923331
1.71200,51.28562477
1.71250,36.6362932
1.71300,27.48046097
1.71350,18.01943433
1.71400,4.896074803
1.71450,-6.701312689
1.71500,-13.41558966
1.71550,-16.77272814
1.71600,-20.12986663
1.71650,-22.8766163
1.71700,-18.909089
1.71750,-6.090923874
1.71800,11.30515737
1.71850,27.17526657
1.71900,37.24668202
1.71950,41.21420932
1.72000,37.55187643
1.72050,25.64929453
1.72100,11.30515737
1.72150,0.3181586879
1.72200,-4.259757428
1.72250,-6.090923874
1.72300,-8.227284728
1.72350,-11.58442321
1.72400,-14.33117288
1.72450,-11.2792288
1.72500,3.675297173
1.72550,29.31162742
1.72600,53.72718004
1.72650,64.1037899
1.72700,59.52587378
1.72750,52.5064024
1.72800,52.5064024
1.72850,55.55834648
1.72900,52.201208
1.72950,43.35057017
1.73000,36.02590439
1.73050,30.83759946
1.73100,20.766184
1.73150,3.98049158
1.73200,-10.05845117
1.73250,-17.07792255
1.73300,-25.62336597
1.73350,-43.32464161
1.73400,-62.85708371
1.73450,-71.70772153
1.73500,-70.4869439
1.73550,-68.96097186
1.73600,-70.18174949
1.73650,-68.96097186
1.73700,-64.38305574
1.73750,-61.33111167
1.73800,-58.584362
1.73850,-52.17527944
1.73900,-48.20775214
1.73950,-56.14280674
1.74000,-69.87655508
1.74050,-71.70772153
1.74100,-58.27916759
1.74150,-46.37658569
1.74200,-45.15580806
1.74250,-43.62983602
1.74300,-32.03244853
1.74350,-16.16233933
1.74400,-4.564951835
1.74450,8.863602104
1.74500,33.88954354
1.74550,68.37651161
1.74600,104.9998405
1.74650,140.4023918
1.74700,172.4478046
1.74750,191.0646635
1.74800,189.8438859
1.74850,174.8893599
1.74900,155.6621122
1.74950,130.6361708
1.75000,93.09725863
1.75050,44.5713478
1.75100,-3.649368612
1.75150,-41.79866957
1.75200,-62.85708371
1.75250,-61.33111167
1.75300,-39.05191991
1.75350,-7.92209032
1.75400,17.71423993
1.75450,32.6687659
1.75500,39.38304287
1.75550,43.35057017
1.75600,47.92848629
1.75650,52.5064024
1.75700,50.06484714
1.75750,32.97396031
1.75800,4.285685988
1.75850,-28.67531004
1.75900,-64.68825015
1.75950,-104.973912
1.76000,-143.4284073
1.76050,-164.7920159
1.76100,-162.0452662
1.76150,-144.649185
1.76200,-127.2531037
1.76250,-117.7920771
1.76300,-114.740133
1.76350,-113.8245498
1.76400,-110.7726057
1.76450,-105.2791064
1.76500,-99.78560704
1.76550,-94.59730211
1.76600,-84.52588665
1.76650,-66.82461101
1.76700,-47.90255773
1.76750,-34.47400379
1.76800,-23.48700511
1.76850,-8.837673543
1.76900,4.590880396
1.76950,6.116852434
1.77000,-4.564951835
1.77050,-17.07792255
1.77100,-21.96103307
1.77150,-17.99350577
1.77200,-7.006507097
1.77250,8.863602104
1.77300,25.03890571
1.77350,37.24668202
1.77400,46.70770866
1.77450,54.03237444
1.77500,55.55834648
1.77550,47.31809747
1.77600,35.41551557
1.77650,26.56487775
1.77700,18.32462874
1.77750,5.506463619
1.77800,-2.428590981
1.77850,5.506463619
1.77900,26.25968334
1.77950,41.51940373
1.78000,42.43498695
1.78050,36.3310988
1.78100,29.61682183
1.78150,18.62982315
1.78200,1.844130726
1.78250,-12.50000644
1.78300,-19.51947781
1.78350,-21.65583867
1.78400,-23.79219952
1.78450,-21.04544985
1.78500,-6.701312689
1.78550,16.18826789
1.78600,38.46745965
1.78650,52.81159681
1.78700,56.77912411
1.78750,48.5388751
1.78800,29.00643301
1.78850,7.642824473
1.78900,-3.038979797
1.78950,0.01296428019
1.79000,5.201269211
1.79050,-1.513007758
1.79100,-24.40258834
1.79150,-50.95450181
1.79200,-70.79213831
1.79250,-86.66224751
1.79300,-106.499884
1.79350,-126.0323261
1.79400,-132.1362143
1.79450,-117.7920771
1.79500,-92.15574685
1.79550,-63.46747252
1.79600,-32.03244853
1.79650,4.285685988
1.79700,39.07784847
1.79750,62.27262345
1.79800,72.95442772
1.79850,79.9738991
1.79900,88.82453692
1.79950,95.53881389
1.80000,91.57128659
1.80050,75.70117739
1.80100,54.94795767
1.80150,37.24668202
1.80200,23.51293367
1.80250,11.91554618
1.80300,3.98049158
1.80350,5.506463619
1.80400,14.96749026
1.80450,22.90254486
1.80500,25.34410012
1.80550,30.83759946
1.80600,46.40251425
1.80650,62.57781786
1.80700,66.24015075
1.80750,56.4739297
1.80800,44.87654221
1.80850,35.11032117
1.80900,22.59735045
1.80950,7.642824473
1.81000,-0.9026189429
1.81050,-2.428590981
1.81100,-4.259757428
1.81150,-11.88961762
1.81200,-20.12986663
1.81250,-21.65583867
1.81300,-15.55195051
1.81350,-4.259757428
1.81400,13.44151822
1.81450,37.55187643
1.81500,61.35704023
1.81550,77.83753824
1.81600,88.51934251
1.81650,96.45439711
1.81700,97.36998034
1.81750,80.88948232
1.81800,43.65576458
1.81850,-1.818202166
1.81900,-36.91555905
1.81950,-55.83761233
1.82000,-70.79213831
1.82050,-92.46094125
1.82100,-114.1297442
1.82150,-120.5388268
1.82200,-108.6362449
1.82250,-94.59730211
1.82300,-92.15574685
1.82350,-99.17521822
1.82400,-108.025856
1.82450,-118.7076603
1.82500,-133.9673807
1.82550,-145.8699626
1.82600,-143.4284073
1.82650,-128.168687
1.82700,-112.9089666
1.82750,-103.4479399
1.82800,-93.68171888
1.82850,-75.37005442
1.82900,-51.25969621
1.82950,-29.59089327
1.83000,-14.9415617
1.83050,-6.701312689
1.83100,-1.818202166
1.83150,0.3181586879
1.83200,0.3181586879
1.83250,0.9285475033
1.83300,7.337630065
1.83350,22.29215604
1.83400,38.77265406
1.83450,43.96095899
1.83500,29.92201623
1.83550,4.285685988
1.83600,-20.12986663
1.83650,-38.13633668
1.83700,-56.14280674
1.83750,-78.4219985
1.83800,-98.259635
1.83850,-104.973912
1.83900,-97.95444059
1.83950,-88.49341395
1.84000,-84.83108106
1.84050,-82.69472021
1.84100,-71.70772153
1.84150,-48.20775214
1.84200,-19.51947781
1.84250,6.422046842
1.84300,28.7012386
1.84350,46.70770866
1.84400,58.91548497
1.84450,61.35704023
1.84500,54.94795767
1.84550,44.2661534
1.84600,32.05837709
1.84650,17.10385111
1.84700,-2.123396574
1.84750,-25.92856037
1.84800,-49.42852977
1.84850,-68.35058304
1.84900,-79.33758172
1.84950,-76.59083205
1.85000,-51.25969621
1.85050,-2.428590981
1.85100,52.5064024
1.85150,91.876481
1.85200,112.6297007
1.85250,130.6361708
1.85300,152.9153625
1.85350,159.6296395
1.85400,130.9413652
1.85450,78.44792706
1.85500,33.58434913
1.85550,12.8311294
1.85600,5.811658027
1.85650,-0.2922301275
1.85700,-4.259757428
1.85750,-1.818202166
1.85800,0.9285475033
1.85850,-2.123396574
1.85900,-7.311701505
1.85950,-5.785729466
1.86000,0.3181586879
1.86050,3.370102765
1.86100,2.454519542
1.86150,2.149325134
1.86200,-0.5974245352
1.86250,-14.9415617
1.86300,-41.79866957
1.86350,-66.5194166
1.86400,-74.4544712
1.86450,-66.82461101
1.86500,-57.05838996
1.86550,-54.92202911
1.86600,-57.36358437
1.86650,-60.11033404
1.86700,-65.90902778
1.86750,-76.59083205
1.86800,-80.86355376
1.86850,-68.35058304
1.86900,-42.7142528
1.86950,-18.29870018
1.87000,2.454519542
1.87050,29.31162742
1.87100,61.35704023
1.87150,81.19467673
1.87200,75.09078857
1.87250,49.45445833
1.87300,18.93501756
1.87350,-11.58442321
1.87400,-46.6817801
1.87450,-82.69472021
1.87500,-109.8570225
1.87550,-125.1167429
1.87600,-130.9154366
1.87650,-126.0323261
1.87700,-105.8894952
1.87750,-70.4869439
1.87800,-28.98050445
1.87850,7.032435657
1.87900,30.53240505
1.87950,41.82459814
1.88000,48.2336807
1.88050,55.25315207
1.88100,62.57781786
1.88150,65.62976194
1.88200,64.1037899
1.88250,64.71417871
1.88300,68.0713172
1.88350,65.01937312
1.88400,50.37004155
1.88450,35.72070998
1.88500,34.49993235
1.88550,42.74018136
1.88600,45.18173662
1.88650,39.38304287
1.88700,38.16226524
1.88750,51.89601359
1.88800,74.17520535
1.88850,94.62323067
1.88900,107.4413958
1.88950,109.5777566
1.89000,95.8440083
1.89050,69.90248364
1.89100,43.96095899
1.89150,26.25968334
1.89200,10.08437973
1.89250,-17.07792255
1.89300,-56.14280674
1.89350,-94.90249651
1.89400,-126.0323261
1.89450,-151.9738508
1.89500,-176.084209
1.89550,-192.2595126
1.89600,-190.1231517
1.89650,-167.84396
1.89700,-134.2725751
1.89750,-99.48041263
1.89800,-64.68825015
1.89850,-27.14933801
1.89900,8.253213288
1.89950,27.78565538
1.90000,19.24021197
1.90050,-11.88961762
1.90100,-47.59736332
1.90150,-70.18174949
1.90200,-75.98044324
1.90250,-70.18174949
1.90300,-58.27916759
1.90350,-42.40905839
1.90400,-27.75972682
1.90450,-23.18181071
1.90500,-31.42205971
1.90550,-43.93503043
1.90600,-48.51294654
1.90650,-46.07139128
1.90700,-46.98697451
1.90750,-50.03891858
1.90800,-37.52594787
1.90850,3.064908357
1.90900,57.08431852
1.90950,90.04531455
1.91000,86.07778725
1.91050,59.52587378
1.91100,40.90901491
1.91150,47.92848629
1.91200,77.22714943
1.91250,109.2725622
1.91300,123.311505
1.91350,118.7335889
1.91400,117.8180057
1.91450,140.4023918
1.91500,178.2464984
1.91550,200.2204957
1.91600,188.9283026
1.91650,155.0517234
1.91700,119.9543665
1.91750,92.18167541
1.91800,70.81806687
1.91850,55.25315207
1.91900,43.65576458
1.91950,28.3960442
1.92000,1.844130726
1.92050,-35.99997583
1.92100,-79.94797054
1.92150,-122.980382
1.92200,-158.0777389
1.92250,-180.3569307
1.92300,-191.6491238
1.92350,-198.0582063
1.92400,-199.5841784
1.92450,-190.4283461
1.92500,-170.895904
1.92550,-148.9219067
1.92600,-129.0842702
1.92650,-107.1102728
1.92700,-78.11680409
1.92750,-46.37658569
1.92800,-16.46753374
1.92850,13.44151822
1.92900,44.5713478
1.92950,70.81806687
1.93000,87.9089537
1.93050,100.4219244
1.93100,112.3245063
1.93150,120.2595609
1.93200,120.8699497
1.93250,117.8180057
1.93300,111.7141175
1.93350,95.53881389
1.93400,69.90248364
1.93450,47.31809747
1.93500,37.24668202
1.93550,30.22721064
1.93600,16.18826789
1.93650,0.3181586879
1.93700,-8.532479135
1.93750,-13.41558966
1.93800,-16.46753374
1.93850,-1.818202166
1.93900,45.18173662
1.93950,109.8829511
1.94000,156.272501
1.94050,168.4802773
1.94100,160.5452227
1.94150,148.032252
1.94200,130.9413652
1.94250,107.1362014
1.94300,83.02584317
1.94350,65.93495634
1.94400,53.72718004
1.94450,39.07784847
1.94500,16.4934623
1.94550,-14.33117288
1.94600,-43.93503043
1.94650,-56.75319555
1.94700,-48.51294654
1.94750,-34.7791982
1.94800,-32.64283734
1.94850,-35.99997583
1.94900,-26.8441436
1.94950,-4.870146243
1.95000,13.74671263
1.95050,23.20773927
1.95100,32.97396031
1.95150,47.01290307
1.95200,53.42198563
1.95250,43.04537577
1.95300,20.766184
1.95350,-0.5974245352
1.95400,-15.2467561
1.95450,-17.38311696
1.95500,-3.649368612
1.95550,16.4934623
1.95600,25.95448893
1.95650,13.74671263
1.95700,-10.66883999
1.95750,-29.59089327
1.95800,-32.33764294
1.95850,-18.909089
1.95900,1.538936319
1.95950,17.10385111
1.96000,19.85060078
1.96050,19.24021197
1.96100,34.19473794
1.96150,68.0713172
1.96200,97.98036915
1.96250,97.98036915
1.96300,65.93495634
1.96350,23.20773927
1.96400,-9.142867951
1.96450,-26.8441436
1.96500,-33.55842057
1.96550,-32.94803175
1.96600,-25.62336597
1.96650,-8.532479135
1.96700,23.20773927
1.96750,70.20767805
1.96800,120.8699497
1.96850,160.2400283
1.96900,181.9088313
1.96950,190.7594691
1.97000,192.5906355
1.97050,191.0646635
1.97100,189.5386915
1.97150,192.2854411
1.97200,193.8114132
1.97250,180.993248
1.97300,150.1686129
1.97350,113.8504784
1.97400,83.02584317
1.97450,51.28562477
1.97500,10.69476855
1.97550,-32.94803175
1.97600,-66.82461101
1.97650,-88.79860836
1.97700,-107.7206616
1.97750,-122.980382
1.97800,-124.8115485
1.97850,-110.4674113
1.97900,-90.3245804
1.97950,-75.98044324
1.98000,-70.18174949
1.98050,-71.09733271
1.98100,-72.01291594
1.98150,-61.33111167
1.98200,-35.08439261
1.98250,-10.05845117
1.98300,-12.50000644
1.98350,-44.85061365
1.98400,-77.81160968
1.98450,-81.47394258
1.98500,-56.14280674
1.98550,-26.53894919
1.98600,-10.05845117
1.98650,-3.95456302
1.98700,4.590880396
1.98750,22.59735045
1.98800,43.35057017
1.98850,53.72718004
1.98900,42.43498695
1.98950,11.30515737
1.99000,-28.06492123
1.99050,-64.99344456
1.99100,-95.20769092
1.99150,-119.3180491
1.99200,-137.0193248
1.99250,-149.2271011
1.99300,-155.9413781
1.99350,-155.3309892
1.99400,-142.5128241
1.99450,-116.2661051
1.99500,-83.61030343
1.99550,-53.70125148
1.99600,-28.98050445
1.99650,-7.006507097
1.99700,9.168796511
1.99750,12.8311294
1.99800,4.590880396
1.99850,-1.207813351
1.99900,6.116852434
1.99950,20.766184
2.00000,28.3960442
2.00050,25.64929453
2.00100,22.59735045
2.00150,28.3960442
2.00200,41.51940373
2.00250,57.38951293
2.00300,72.95442772
2.00350,83.63623199
2.00400,83.9414264
2.00450,72.64923331
2.00500,55.55834648
2.00550,41.21420932
2.00600,35.72070998
2.00650,37.85707084
2.00700,40.2986261
2.00750,35.72070998
2.00800,26.25968334
2.00850,19.54540637
2.00900,14.96749026
2.00950,4.896074803
2.01000,-6.090923874
2.01050,-1.513007758
2.01100,21.98696163
2.01150,39.68823728
2.01200,25.03890571
2.01250,-12.80520084
2.01300,-39.66230872
2.01350,-36.61036464
2.01400,-14.02597847
2.01450,14.96749026
2.01500,53.42198563
2.01550,105.6102293
2.01600,162.986778
2.01650,210.2919112
2.01700,236.8438247
2.01750,235.9282414
2.01800,202.3568566
2.01850,140.7075862
2.01900,65.32456753
2.01950,-9.448062359
2.02000,-79.33758172
2.02050,-140.0712689
2.02100,-183.7140692
2.02150,-202.0257336
2.02200,-196.8374287
2.02250,-175.4738201
2.02300,-145.8699626
2.02350,-115.3505218
2.02400,-91.24016362
2.02450,-79.94797054
2.02500,-80.86355376
2.02550,-86.66224751
2.02600,-91.24016362
2.02650,-94.2921077
2.02700,-97.34405178
2.02750,-94.90249651
2.02800,-78.4219985
2.02850,-49.12333536
2.02900,-20.12986663
2.02950,1.538936319
2.03000,22.90254486
2.03050,47.62329188
2.03100,61.35704023
2.03150,47.62329188
2.03200,15.57787907
2.03250,-3.95456302
2.03300,6.72724125
2.03350,36.3310988
2.03400,61.96742904
2.03450,73.87001094
2.03500,76.61676061
2.03550,76.92195502
2.03600,77.53234384
2.03650,75.39598298
2.03700,62.27262345
2.03750,33.58434913
2.03800,0.9285475033
2.03850,-20.43506104
2.03900,-32.33764294
2.03950,-51.87008503
2.04000,-82.08433139
2.04050,-102.8375511
2.04100,-98.56482941
2.04150,-78.72719291
2.04200,-60.11033404
2.04250,-46.98697451
2.04300,-37.22075346
2.04350,-34.16880938
2.04400,-35.38958701
2.04450,-20.12986663
2.04500,31.44798827
2.04550,106.2206182
2.04600,162.986778
2.04650,171.8374158
2.04700,136.1296701
2.04750,76.92195502
2.04800,14.66229585
2.04850,-29.89608767
2.04900,-41.79866957
2.04950,-23.79219952
2.05000,-0.5974245352
2.05050,4.285685988
2.05100,-1.207813351
2.05150,6.72724125
2.05200,41.82459814
2.05250,84.55181521
2.05300,104.0842573
2.05350,90.04531455
2.05400,60.74665141
2.05450,39.07784847
2.05500,27.48046097
2.05550,11.30515737
2.05600,-15.55195051
2.05650,-38.44153109
2.05700,-40.88308635
2.05750,-22.8766163
2.05800,0.9285475033
2.05850,23.20773927
2.05900,41.51940373
2.05950,49.75965274
2.06000,36.3310988
2.06050,1.538936319
2.06100,-38.13633668
2.06150,-69.57136068
2.06200,-93.68171888
2.06250,-117.4868827
2.06300,-140.9868521
2.06350,-159.6037109
2.06400,-170.5907096
2.06450,-169.9803208
2.06500,-149.2271011
2.06550,-109.2466337
2.06600,-64.99344456
2.06650,-30.50647649
2.06700,-3.344174205
2.06750,25.34410012
2.06800,51.89601359
2.06850,65.01937312
2.06900,67.76612279
2.06950,74.78559417
2.07000,84.55181521
2.07050,82.11025995
2.07100,62.27262345
2.07150,39.38304287
2.07200,24.7337113
2.07250,12.8311294
2.07300,0.6233530956
2.07350,-2.733785389
2.07400,5.811658027
2.07450,11.91554618
2.07500,0.01296428019
2.07550,-28.37011564
2.07600,-61.63630608
2.07650,-94.2921077
2.07700,-118.0972715
2.07750,-115.6557162
2.07800,-78.11680409
2.07850,-24.70778274
2.07900,14.05190703
2.07950,29.61682183
2.08000,36.3310988
2.08050,50.67523596
2.08100,75.09078857
2.08150,101.0323132
2.08200,112.9348951
2.08250,97.67517474
2.08300,61.35704023
2.08350,33.58434913
2.08400,34.80512676
2.08450,52.201208
2.08500,56.4739297
2.08550,41.51940373
2.08600,27.48046097
2.08650,25.64929453
2.08700,21.68176723
2.08750,-0.2922301275
2.08800,-34.47400379
2.08850,-61.94150048
2.08900,-72.92849916
2.08950,-68.35058304
2.09000,-54.31164029
2.09050,-41.49347517
2.09100,-40.88308635
2.09150,-52.48047384
2.09200,-65.90902778
2.09250,-75.06486001
2.09300,-83.91549784
2.09350,-93.37652448
2.09400,-90.93496921
2.09450,-69.57136068
2.09500,-42.10386398
2.09550,-26.53894919
2.09600,-22.8766163
2.09650,-14.9415617
2.09700,3.064908357
2.09750,21.07137841
2.09800,25.95448893
2.09850,14.05190703
2.09900,-10.66883999
2.09950,-35.69478142
2.10000,-41.49347517
2.10050,-16.46753374
2.10100,23.20773927
2.10150,46.40251425
2.10200,39.99343169
2.10250,25.64929453
2.10300,32.3635715
2.10350,63.18820667
2.10400,93.70764744
2.10450,101.642702
2.10500,87.9089537
2.10550,68.98690042
2.10600,57.69470734
2.10650,54.33756885
2.10700,51.28562477
2.10750,43.35057017
2.10800,32.05837709
2.10850,22.59735045
2.10900,19.24021197
2.10950,18.01943433
2.11000,13.44151822
2.11050,7.94801888
2.11100,14.05190703
2.11150,35.41551557
2.11200,54.94795767
2.11250,46.70770866
2.11300,5.811658027
2.11350,-43.62983602
2.11400,-71.70772153
2.11450,-67.74019423
2.11500,-44.24022484
2.11550,-21.96103307
2.11600,-16.46753374
2.11650,-29.59089327
2.11700,-45.76619688
2.11750,-45.76619688
2.11800,-28.98050445
2.11850,-14.9415617
2.11900,-18.60389459
2.11950,-36.30517024
2.12000,-55.53241792
2.12050,-73.84408238
2.12100,-92.46094125
2.12150,-102.2271623
2.12200,-88.79860836
2.12250,-52.17527944
2.12300,-11.2792288
2.12350,10.69476855
2.12400,4.590880396
2.12450,-22.26622748
2.12500,-50.03891858
2.12550,-61.63630608
2.12600,-60.11033404
2.12650,-60.11033404
2.12700,-63.16227811
2.12750,-54.00644588
2.12800,-24.40258834
2.12850,12.8311294
2.12900,41.21420932
2.12950,62.27262345
2.13000,83.63623199
2.13050,100.4219244
2.13100,98.89595238
2.13150,77.22714943
2.13200,48.84406951
2.13250,27.48046097
2.13300,14.66229585
2.13350,4.285685988
2.13400,-10.05845117
2.13450,-30.20128208
2.13500,-47.90255773
2.13550,-50.6493074
2.13600,-33.86361497
2.13650,-5.480535058
2.13700,23.51293367
2.13750,47.62329188
2.13800,62.57781786
2.13850,67.46092838
2.13900,68.37651161
2.13950,71.12326127
2.14000,72.95442772
2.14050,65.01937312
2.14100,45.48693103
2.14150,21.07137841
2.14200,-2.123396574
2.14250,-16.77272814
2.14300,-9.753256766
2.14350,24.12332249
2.14400,63.18820667
2.14450,74.48039976
2.14500,53.11679122
2.14550,29.31162742
2.14600,29.31162742
2.14650,47.01290307
2.14700,61.96742904
2.14750,71.12326127
2.14800,84.55181521
2.14850,105.6102293
2.14900,127.2790323
2.14950,143.4543359
2.15000,146.2010856
2.15050,123.0063106
2.15100,68.98690042
2.15150,1.233741911
2.15200,-50.34411299
2.15250,-75.98044324
2.15300,-89.10380277
2.15350,-107.7206616
2.15400,-130.9154366
2.15450,-144.649185
2.15500,-138.8504912
2.15550,-117.4868827
2.15600,-91.54535803
2.15650,-68.96097186
2.15700,-50.03891858
2.15750,-29.59089327
2.15800,-5.785729466
2.15850,10.08437973
2.15900,4.590880396
2.15950,-26.53894919
2.16000,-70.18174949
2.16050,-107.1102728
2.16100,-128.7790758
2.16150,-135.4933527
2.16200,-126.9479093
2.16250,-104.973912
2.16300,-81.16874817
2.16350,-71.40252712
2.16400,-76.89602646
2.16450,-81.47394258
2.16500,-74.14927679
2.16550,-64.38305574
2.16600,-65.90902778
2.16650,-72.31811035
2.16700,-64.68825015
2.16750,-41.18828076
2.16800,-21.65583867
2.16850,-16.46753374
2.16900,-9.142867951
2.16950,19.85060078
2.17000,62.88301227
2.17050,92.48686981
2.17100,99.50634119
2.17150,103.4738685
2.17200,122.3959218
2.17250,147.7270576
2.17300,159.3244451
2.17350,152.3049737
2.17400,138.8764198
2.17450,126.9738379
2.17500,114.7660616
2.17550,100.11673
2.17600,87.9089537
2.17650,73.25962213
2.17700,42.43498695
2.17750,-9.448062359
2.17800,-69.57136068
2.17850,-118.7076603
2.17900,-151.3634619
2.17950,-169.0647376
2.18000,-165.4024047
2.18050,-136.1037416
2.18100,-94.2921077
2.18150,-62.5518893
2.18200,-44.24022484
2.18250,-21.04544985
2.18300,18.93501756
2.18350,58.30509615
2.18400,71.42845568
2.18450,57.38951293
2.18500,37.55187643
2.18550,28.09084979
2.18600,22.90254486
2.18650,10.99996296
2.18700,-5.175340651
2.18750,-17.99350577
2.18800,-26.8441436
2.18850,-38.13633668
2.18900,-54.31164029
2.18950,-69.26616627
2.19000,-78.72719291
2.19050,-85.44146988
2.19100,-94.2921077
2.19150,-102.8375511
2.19200,-103.1427455
2.19250,-92.15574685
2.19300,-78.11680409
2.19350,-70.4869439
2.19400,-65.60383338
2.19450,-50.6493074
2.19500,-21.04544985
2.19550,8.863602104
2.19600,21.98696163
2.19650,15.57787907
2.19700,0.3181586879
2.19750,-20.12986663
2.19800,-47.29216891
2.19850,-71.70772153
2.19900,-71.09733271
2.19950,-39.66230872
2.20000,-1.513007758
2.20050,16.18826789
2.20100,19.24021197
2.20150,31.44798827
2.20200,59.22067937
2.20250,82.41545436
2.20300,85.77259284
2.20350,78.75312147
2.20400,75.70117739
2.20450,74.78559417
2.20500,69.29209483
2.20550,63.18820667
2.20600,65.32456753
2.20650,69.59728924
2.20700,62.27262345
2.20750,39.99343169
2.20800,13.44151822
2.20850,-6.701312689
2.20900,-18.909089
2.20950,-27.14933801
2.21000,-34.47400379
2.21050,-42.10386398
2.21100,-46.07139128
2.21150,-37.22075346
2.21200,-14.02597847
2.21250,13.13632381
2.21300,32.97396031
2.21350,43.35057017
2.21400,48.2336807
2.21450,45.18173662
2.21500,25.95448893
2.21550,-9.142867951
2.21600,-46.37658569
2.21650,-68.04538864
2.21700,-68.35058304
2.21750,-53.09086266
2.21800,-32.94803175
2.21850,-11.88961762
2.21900,12.525935
2.21950,42.43498695
2.22000,67.15573397
2.22050,72.64923331
2.22100,55.55834648
2.22150,29.00643301
2.22200,8.558407696
2.22250,0.3181586879
2.22300,-1.207813351
2.22350,-2.733785389
2.22400,-10.9740344
2.22450,-25.62336597
2.22500,-38.13633668
2.22550,-37.83114227
2.22600,-25.92856037
2.22650,-20.43506104
2.22700,-35.08439261
2.22750,-62.85708371
2.22800,-79.94797054
2.22850,-72.62330475
2.22900,-51.56489062
2.22950,-39.35711431
2.23000,-43.01944721
2.23050,-41.49347517
2.23100,-8.532479135
2.23150,50.98043037
2.23200,101.3375076
2.23250,115.9868392
2.23300,108.6621734
2.23350,113.5452839
2.23400,139.1816142
2.23450,159.9348339
2.23500,153.8309458
2.23550,127.8894211
2.23600,101.3375076
2.23650,80.58428791
2.23700,59.22067937
2.23750,36.94148761
2.23800,18.32462874
2.23850,-1.207813351
2.23900,-34.16880938
2.23950,-79.64277613
2.24000,-123.8959652
2.24050,-155.6361836
2.24100,-176.9997922
2.24150,-190.4283461
2.24200,-189.2075685
2.24250,-167.5387655
2.24300,-133.9673807
2.24350,-104.6687176
2.24400,-83.91549784
2.24450,-65.90902778
2.24500,-49.73372418
2.24550,-41.49347517
2.24600,-41.49347517
2.24650,-40.27269754
2.24700,-29.89608767
2.24750,-14.33117288
2.24800,-3.649368612
2.24850,-6.701312689
2.24900,-26.53894919
2.24950,-54.92202911
2.25000,-75.98044324
2.25050,-77.50641528
2.25100,-61.63630608
2.25150,-36.91555905
2.25200,-7.006507097
2.25250,27.78565538
2.25300,60.74665141
2.25350,79.9738991
2.25400,85.46739844
2.25450,86.38298166
2.25500,86.07778725
2.25550,78.44792706
2.25600,64.40898431
2.25650,58.30509615
2.25700,68.37651161
2.25750,85.16220403
2.25800,90.35050896
2.25850,74.48039976
2.25900,45.18173662
2.25950,21.68176723
2.26000,18.01943433
2.26050,29.61682183
2.26100,41.21420932
2.26150,48.84406951
2.26200,60.74665141
2.26250,73.87001094
2.26300,67.15573397
2.26350,31.44798827
2.26400,-6.090923874
2.26450,-16.16233933
2.26500,-7.006507097
2.26550,-9.753256766
2.26600,-23.18181071
2.26650,-14.63636729
2.26700,24.4285169
2.26750,60.74665141
2.26800,66.24015075
2.26850,55.55834648
2.26900,57.08431852
2.26950,68.0713172
2.27000,66.85053957
2.27050,49.45445833
2.27100,35.11032117
2.27150,38.46745965
2.27200,58.91548497
2.27250,86.38298166
2.27300,107.1362014
2.27350,109.5777566
2.27400,97.36998034
2.27450,92.48686981
2.27500,103.7790629
2.27550,108.6621734
2.27600,79.66870469
2.27650,23.20773927
2.27700,-27.75972682
2.27750,-61.94150048
2.27800,-96.42846855
2.27850,-141.2920465
2.27900,-176.3894034
2.27950,-175.1686257
2.28000,-138.5452968
2.28050,-89.40899718
2.28100,-46.37658569
2.28150,-19.21428341
2.28200,-12.19481203
2.28250,-21.04544985
2.28300,-29.89608767
2.28350,-23.79219952
2.28400,-5.480535058
2.28450,13.13632381
2.28500,29.31162742
2.28550,50.67523596
2.28600,77.53234384
2.28650,90.65570337
2.28700,71.42845568
2.28750,24.7337113
2.28800,-20.43506104
2.28850,-38.7467255
2.28900,-32.94803175
2.28950,-23.18181071
2.29000,-19.21428341
2.29050,-11.2792288
2.29100,8.558407696
2.29150,29.00643301
2.29200,33.27915472
2.29250,25.03890571
2.29300,20.4609896
2.29350,27.78565538
2.29400,40.6038205
2.29450,52.81159681
2.29500,64.40898431
2.29550,71.42845568
2.29600,67.46092838
2.29650,50.37004155
2.29700,23.20773927
2.29750,-14.02597847
2.29800,-59.19475081
2.29850,-93.98691329
2.29900,-100.3959959
2.29950,-86.05185869
2.30000,-77.20122087
2.30050,-78.11680409
2.30100,-61.94150048
2.30150,-10.36364558
2.30200,52.81159681
2.30250,86.68817607
2.30300,76.0063718
2.30350,36.6362932
2.30400,-5.785729466
2.30450,-36.91555905
2.30500,-52.48047384
2.30550,-58.27916759
2.30600,-66.82461101
2.30650,-85.13627547
2.30700,-110.4674113
2.30750,-137.934908
2.30800,-164.1816271
2.30850,-176.084209
2.30900,-157.7725445
2.30950,-115.6557162
2.31000,-78.11680409
2.31050,-62.24669489
2.31100,-50.03891858
2.31150,-21.35064426
2.31200,9.168796511
2.31250,10.69476855
2.31300,-17.99350577
2.31350,-46.07139128
2.31400,-47.29216891
2.31450,-27.45453241
2.31500,-5.785729466
2.31550,9.168796511
2.31600,20.15579519
2.31650,31.44798827
2.31700,42.43498695
2.31750,48.84406951
2.31800,44.87654221
2.31850,33.27915472
2.31900,24.7337113
2.31950,21.07137841
2.32000,7.94801888
2.32050,-25.92856037
2.32100,-71.09733271
2.32150,-106.1946896
2.32200,-124.2011597
2.32250,-130.3050478
2.32300,-123.5907708
2.32350,-97.03885737
2.32400,-55.22722351
2.32450,-14.9415617
2.32500,10.69476855
2.32550,23.81812808
2.32600,29.00643301
2.32650,27.17526657
2.32700,19.54540637
2.32750,10.99996296
2.32800,7.94801888
2.32850,15.27268467
2.32900,32.05837709
2.32950,50.67523596
2.33000,62.27262345
2.33050,64.40898431
2.33100,61.96742904
2.33150,55.86354089
2.33200,42.43498695
2.33250,26.25968334
2.33300,21.37657282
2.33350,30.83759946
2.33400,40.2986261
2.33450,39.07784847
2.33500,36.6362932
2.33550,46.09731984
2.33600,61.96742904
2.33650,69.90248364
2.33700,67.76612279
2.33750,66.54534516
2.33800,69.59728924
2.33850,70.81806687
2.33900,65.93495634
2.33950,60.1362626
2.34000,60.44145701
2.34050,70.51287246
2.34100,86.07778725
2.34150,93.09725863
2.34200,78.14273265
2.34250,39.07784847
2.34300,-10.05845117
2.34350,-55.83761233
2.34400,-95.81807974
2.34450,-129.694659
2.34500,-148.6167123
2.34550,-143.4284073
2.34600,-116.8764939
2.34650,-82.3895258
2.34700,-52.17527944
2.34750,-25.62336597
2.34800,3.370102765
2.34850,34.80512676
2.34900,57.38951293
2.34950,60.44145701
2.35000,47.92848629
2.35050,35.41551557
2.35100,32.97396031
2.35150,36.02590439
2.35200,39.68823728
2.35250,47.31809747
2.35300,60.1362626
2.35350,71.73365009
2.35400,81.80506554
2.35450,100.7271188
2.35500,131.551754
2.35550,154.746529
2.35600,152.3049737
2.35650,134.9088925
2.35700,127.2790323
2.35750,130.025782
2.35800,121.785533
2.35850,93.09725863
2.35900,59.52587378
2.35950,37.55187643
2.36000,25.03890571
2.36050,10.38957414
2.36100,-8.532479135
2.36150,-22.57142189
2.36200,-19.51947781
2.36250,1.538936319
2.36300,26.87007216
2.36350,37.85707084
2.36400,32.6687659
2.36450,28.7012386
2.36500,36.94148761
2.36550,45.79212544
2.36600,41.82459814
2.36650,39.38304287
2.36700,65.62976194
2.36750,120.8699497
2.36800,171.8374158
2.36850,194.1166076
2.36900,200.2204957
2.36950,214.2594385
2.37000,233.7918806
2.37050,235.9282414
2.37100,213.3438553
2.37150,184.3503865
2.37200,167.2594997
2.37250,152.9153625
2.37300,119.0387833
2.37350,59.83106819
2.37400,-6.701312689
2.37450,-60.41552844
2.37500,-100.0908014
2.37550,-140.0712689
2.37600,-188.9023741
2.37650,-228.2724527
2.37700,-225.8308974
2.37750,-173.6426537
2.37800,-108.6362449
2.37850,-77.81160968
2.37900,-86.05185869
2.37950,-96.42846855
2.38000,-89.10380277
2.38050,-84.52588665
2.38100,-101.6167735
2.38150,-117.7920771
2.38200,-104.6687176
2.38250,-75.98044324
2.38300,-68.04538864
2.38350,-81.16874817
2.38400,-76.89602646
2.38450,-34.7791982
2.38500,20.4609896
2.38550,54.94795767
2.38600,57.38951293
2.38650,40.2986261
2.38700,25.03890571
2.38750,25.95448893
2.38800,37.55187643
2.38850,34.80512676
2.38900,-1.207813351
2.38950,-58.88955641
2.39000,-110.4674113
2.39050,-142.5128241
2.39100,-157.1621557
2.39150,-153.4998228
2.39200,-133.3569919
2.39250,-109.5518281
2.39300,-92.15574685
2.39350,-71.70772153
2.39400,-38.44153109
2.39450,-2.428590981
2.39500,22.90254486
2.39550,47.62329188
2.39600,81.49987114
2.39650,107.4413958
2.39700,102.8634797
2.39750,76.92195502
2.39800,52.81159681
2.39850,28.3960442
2.39900,-12.80520084
2.39950,-58.584362
2.40000,-77.20122087
2.40050,-68.04538864
2.40100,-64.38305574
2.40150,-81.47394258
2.40200,-98.56482941
2.40250,-99.17521822
2.40300,-94.90249651
2.40350,-98.87002382
2.40400,-103.1427455
2.40450,-97.95444059
2.40500,-87.57783073
2.40550,-76.28563765
2.40600,-58.584362
2.40650,-36.61036464
2.40700,-24.70778274
2.40750,-26.8441436
2.40800,-24.09739393
2.40850,-5.785729466
2.40900,9.168796511
2.40950,-2.733785389
2.41000,-40.27269754
2.41050,-79.64277613
2.41100,-105.8894952
2.41150,-120.8440212
2.41200,-129.694659
2.41250,-134.5777695
2.41300,-137.934908
2.41350,-138.5452968
2.41400,-126.6427149
2.41450,-94.59730211
2.41500,-53.39605707
2.41550,-22.26622748
2.41600,-2.733785389
2.41650,25.95448893
2.41700,75.39598298
2.41750,121.785533
2.41800,128.8050043
2.41850,92.48686981
2.41900,50.37004155
2.41950,40.90901491
2.42000,62.57781786
2.42050,85.46739844
2.42100,90.65570337
2.42150,82.72064877
2.42200,69.59728924
2.42250,45.48693103
2.42300,4.896074803
2.42350,-42.10386398
2.42400,-79.03238731
2.42450,-102.5323567
2.42500,-122.0647988
2.42550,-140.9868521
2.42600,-148.9219067
2.42650,-137.6297136
2.42700,-115.9609106
2.42750,-98.56482941
2.42800,-90.01938599
2.42850,-85.44146988
2.42900,-80.86355376
2.42950,-76.59083205
2.43000,-64.99344456
2.43050,-35.38958701
2.43100,10.69476855
2.43150,54.94795767
2.43200,77.22714943
2.43250,73.56481654
2.43300,53.11679122
2.43350,26.25968334
2.43400,-0.5974245352
2.43450,-24.40258834
2.43500,-42.10386398
2.43550,-56.14280674
2.43600,-69.87655508
2.43650,-81.77913698
2.43700,-85.74666428
2.43750,-75.98044324
2.43800,-51.56489062
2.43850,-19.82467222
2.43900,7.032435657
2.43950,20.4609896
2.44000,18.62982315
2.44050,6.72724125
2.44100,-8.532479135
2.44150,-21.35064426
2.44200,-25.31817156
2.44250,-20.74025544
2.44300,-12.80520084
2.44350,-1.818202166
2.44400,18.01943433
2.44450,49.45445833
2.44500,78.75312147
2.44550,88.21414811
2.44600,73.87001094
2.44650,45.48693103
2.44700,17.10385111
2.44750,-3.344174205
2.44800,-15.55195051
2.44850,-25.01297715
2.44900,-36.91555905
2.44950,-39.96750313
2.45000,-12.50000644
2.45050,47.92848629
2.45100,108.9673678
2.45150,131.8569484
2.45200,117.2076168
2.45250,100.11673
2.45300,105.6102293
2.45350,121.1751441
2.45400,119.3439777
2.45450,92.79206422
2.45500,56.77912411
2.45550,31.75318268
2.45600,25.34410012
2.45650,29.31162742
2.45700,28.7012386
2.45750,17.40904552
2.45800,4.590880396
2.45850,2.454519542
2.45900,7.94801888
2.45950,6.72724125
2.46000,-7.006507097
2.46050,-25.01297715
2.46100,-38.13633668
2.46150,-44.24022484
2.46200,-45.15580806
2.46250,-38.44153109
2.46300,-25.01297715
2.46350,-10.9740344
2.46400,-1.513007758
2.46450,8.863602104
2.46500,32.3635715
2.46550,72.34403891
2.46600,118.7335889
2.46650,152.6101681
2.46700,162.6815836
2.46750,154.4413346
2.46800,143.1491415
2.46850,137.0452533
2.46900,132.1621428
2.46950,125.7530603
2.47000,122.0907274
2.47050,126.0582547
2.47100,132.4673372
2.47150,133.077726
2.47200,125.7530603
2.47250,110.7985343
2.47300,87.60375929
2.47350,57.38951293
2.47400,27.48046097
2.47450,-0.2922301275
2.47500,-34.47400379
2.47550,-72.92849916
2.47600,-94.2921077
2.47650,-81.47394258
2.47700,-48.81814095
2.47750,-30.20128208
2.47800,-39.35711431
2.47850,-60.11033404
2.47900,-72.62330475
2.47950,-72.31811035
2.48000,-63.77266693
2.48050,-48.81814095
2.48100,-27.75972682
2.48150,-5.785729466
2.48200,8.863602104
2.48250,12.8311294
2.48300,10.08437973
2.48350,13.74671263
2.48400,33.58434913
2.48450,60.74665141
2.48500,76.61676061
2.48550,81.49987114
2.48600,103.4738685
2.48650,158.7140563
2.48700,218.5321602
2.48750,237.4542135
2.48800,208.7659391
2.48850,164.8179444
2.48900,126.9738379
2.48950,82.72064877
2.49000,17.40904552
2.49050,-53.09086266
2.49100,-104.3635232
2.49150,-133.6621863
2.49200,-155.9413781
2.49250,-171.2010984
2.49300,-161.7400718
2.49350,-122.6751876
2.49400,-76.89602646
2.49450,-49.73372418
2.49500,-38.44153109
2.49550,-21.65583867
2.49600,3.064908357
2.49650,15.57787907
2.49700,7.337630065
2.49750,0.6233530956
2.49800,15.57787907
2.49850,37.55187643
2.49900,35.41551557
2.49950,8.253213288
2.50000,-18.29870018
2.50050,-36.30517024
2.50100,-58.88955641
2.50150,-78.72719291
2.50200,-56.44800114
2.50250,21.68176723
2.50300,108.6621734
2.50350,144.6751135
2.50400,126.0582547
2.50450,96.45439711
2.50500,82.11025995
2.50550,74.17520535
2.50600,63.49340108
2.50650,57.08431852
2.50700,57.08431852
2.50750,49.45445833
2.50800,28.7012386
2.50850,10.08437973
2.50900,5.201269211
2.50950,5.201269211
2.51000,-0.2922301275
2.51050,-5.175340651
2.51100,0.01296428019
2.51150,11.91554618
2.51200,20.15579519
2.51250,24.4285169
2.51300,30.53240505
2.51350,38.46745965
2.51400,44.2661534
2.51450,50.37004155
2.51500,61.35704023
2.51550,67.15573397
2.51600,51.59081918
2.51650,14.96749026
2.51700,-21.04544985
2.51750,-39.66230872
2.51800,-46.37658569
2.51850,-56.14280674
2.51900,-66.5194166
2.51950,-59.49994522
2.52000,-32.03244853
2.52050,-2.428590981
2.52100,13.44151822
2.52150,23.20773927
2.52200,39.99343169
2.52250,63.49340108
2.52300,83.9414264
2.52350,101.0323132
2.52400,118.7335889
2.52450,125.4478658
2.52500,104.9998405
2.52550,67.46092838
2.52600,46.70770866
2.52650,57.99990174
2.52700,76.31156621
2.52750,67.15573397
2.52800,28.09084979
2.52850,-16.77272814
2.52900,-50.95450181
2.52950,-72.31811035
2.53000,-81.47394258
2.53050,-78.4219985
2.53100,-72.92849916
2.53150,-78.72719291
2.53200,-96.73366296
2.53250,-111.6881889
2.53300,-111.9933833
2.53350,-102.8375511
2.53400,-96.12327415
2.53450,-92.76613566
2.53500,-81.77913698
2.53550,-57.66877878
2.53600,-28.67531004
2.53650,-7.006507097
2.53700,3.370102765
2.53750,10.69476855
2.53800,19.24021197
2.53850,25.64929453
2.53900,26.56487775
2.53950,25.64929453
2.54000,26.87007216
2.54050,23.81812808
2.54100,7.032435657
2.54150,-16.77272814
2.54200,-26.8441436
2.54250,-11.2792288
2.54300,16.18826789
2.54350,34.19473794
2.54400,35.11032117
2.54450,25.95448893
2.54500,12.8311294
2.54550,-5.175340651
2.54600,-25.31817156
2.54650,-35.08439261
2.54700,-24.70778274
2.54750,-1.207813351
2.54800,13.44151822
2.54850,3.064908357
2.54900,-32.03244853
2.54950,-74.75966561
2.55000,-105.8894952
2.55050,-119.9284379
2.55100,-120.2336324
2.55150,-109.2466337
2.55200,-89.40899718
2.55250,-74.14927679
2.55300,-79.03238731
2.55350,-96.73366296
2.55400,-92.76613566
2.55450,-44.24022484
2.55500,29.61682183
2.55550,86.99337048
2.55600,109.8829511
2.55650,113.2400895
2.55700,112.0193119
2.55750,103.7790629
2.55800,85.77259284
2.55850,69.59728924
2.55900,63.79859549
2.55950,61.05184582
2.56000,50.37004155
2.56050,36.3310988
2.56100,31.14279387
2.56150,34.49993235
2.56200,35.11032117
2.56250,27.17526657
2.56300,16.18826789
2.56350,8.253213288
2.56400,2.454519542
2.56450,-4.259757428
2.56500,-11.2792288
2.56550,-10.36364558
2.56600,3.370102765
2.56650,25.03890571
2.56700,39.99343169
2.56750,39.38304287
2.56800,29.00643301
2.56850,17.10385111
2.56900,4.285685988
2.56950,-12.80520084
2.57000,-31.11686531
2.57050,-43.93503043
2.57100,-55.83761233
2.57150,-79.33758172
2.57200,-111.9933833
2.57250,-135.1881583
2.57300,-134.5777695
2.57350,-119.0128547
2.57400,-110.1622169
2.57450,-115.6557162
2.57500,-121.45441
2.57550,-109.5518281
2.57600,-80.55835935
2.57650,-50.03891858
2.57700,-28.67531004
2.57750,-9.142867951
2.57800,19.54540637
2.57850,53.11679122
2.57900,76.0063718
2.57950,85.46739844
2.58000,90.35050896
2.58050,90.35050896
2.58100,69.90248364
2.58150,21.98696163
2.58200,-33.25322616
2.58250,-67.43499982
2.58300,-68.65577745
2.58350,-44.54541924
2.58400,-7.006507097
2.58450,34.49993235
2.58500,69.29209483
2.58550,84.85700962
2.58600,77.22714943
2.58650,54.94795767
2.58700,33.58434913
2.58750,24.12332249
2.58800,20.4609896
2.58850,7.337630065
2.58900,-20.12986663
2.58950,-52.48047384
2.59000,-81.77913698
2.59050,-114.4349386
2.59100,-148.9219067
2.59150,-158.9933221
2.59200,-122.6751876
2.59250,-61.94150048
2.59300,-21.65583867
2.59350,-14.33117288
2.59400,-14.33117288
2.59450,-6.701312689
2.59500,-11.88961762
2.59550,-46.98697451
2.59600,-91.85055244
2.59650,-115.6557162
2.59700,-115.0453274
2.59750,-105.8894952
2.59800,-97.03885737
2.59850,-93.37652448
2.59900,-104.3635232
2.59950,-126.6427149
2.60000,-132.1362143
2.60050,-100.3959959
2.60100,-53.39605707
2.60150,-29.89608767
2.60200,-33.55842057
2.60250,-34.16880938
2.60300,-14.63636729
2.60350,11.30515737
2.60400,31.14279387
2.60450,47.62329188
2.60500,61.05184582
2.60550,59.52587378
2.60600,40.2986261
2.60650,16.7986567
2.60700,-0.9026189429
2.60750,-21.65583867
2.60800,-46.07139128
2.60850,-61.02591726
2.60900,-61.33111167
2.60950,-62.85708371
2.61000,-77.50641528
2.61050,-95.51288533
2.61100,-108.9414393
2.61150,-126.3375205
2.61200,-149.5322955
2.61250,-157.1621557
2.61300,-137.934908
2.61350,-121.1492156
2.61400,-138.8504912
2.61450,-171.8114873
2.61500,-168.7595432
2.61550,-117.4868827
2.61600,-61.02591726
2.61650,-38.13633668
2.61700,-42.7142528
2.61750,-45.15580806
2.61800,-31.42205971
2.61850,-4.564951835
2.61900,32.6687659
2.61950,81.19467673
2.62000,130.6361708
2.62050,160.8504171
2.62100,154.4413346
2.62150,112.9348951
2.62200,61.35704023
2.62250,26.87007216
2.62300,12.22074059
2.62350,1.233741911
2.62400,-4.259757428
2.62450,21.98696163
2.62500,87.60375929
2.62550,149.2530296
2.62600,158.7140563
2.62650,127.2790323
2.62700,100.11673
2.62750,84.85700962
2.62800,46.40251425
2.62850,-22.57142189
2.62900,-78.4219985
2.62950,-88.49341395
2.63000,-78.4219985
2.63050,-86.96744191
2.63100,-107.7206616
2.63150,-107.7206616
2.63200,-82.99991461
2.63250,-59.19475081
2.63300,-52.78566825
2.63350,-53.39605707
2.63400,-49.42852977
2.63450,-39.96750313
2.63500,-28.06492123
2.63550,-18.29870018
2.63600,-19.51947781
2.63650,-32.64283734
2.63700,-39.35711431
2.63750,-23.48700511
2.63800,5.811658027
2.63850,25.34410012
2.63900,32.97396031
2.63950,46.09731984
2.64000,69.29209483
2.64050,85.16220403
2.64100,83.9414264
2.64150,81.80506554
2.64200,94.01284185
2.64250,109.8829511
2.64300,111.4089231
2.64350,99.50634119
2.64400,87.29856488
2.64450,76.31156621
2.64500,57.69470734
2.64550,32.6687659
2.64600,12.8311294
2.64650,2.149325134
2.64700,-0.5974245352
2.64750,6.72724125
2.64800,29.00643301
2.64850,55.55834648
2.64900,65.62976194
2.64950,53.11679122
2.65000,29.92201623
2.65050,3.370102765
2.65100,-28.06492123
2.65150,-60.41552844
2.65200,-74.14927679
2.65250,-58.584362
2.65300,-25.01297715
2.65350,8.558407696
2.65400,37.24668202
2.65450,60.1362626
2.65500,69.29209483
2.65550,60.44145701
2.65600,44.2661534
2.65650,35.72070998
2.65700,34.80512676
2.65750,33.27915472
2.65800,31.14279387
2.65850,35.72070998
2.65900,49.14926392
2.65950,64.1037899
2.66000,70.51287246
2.66050,62.57781786
2.66100,41.82459814
2.66150,18.93501756
2.66200,0.3181586879
2.66250,-22.8766163
2.66300,-56.75319555
2.66350,-79.33758172
2.66400,-57.05838996
2.66450,4.896074803
2.66500,59.22067937
2.66550,73.25962213
2.66600,67.15573397
2.66650,72.0388445
2.66700,82.72064877
2.66750,75.39598298
2.66800,55.25315207
2.66850,42.43498695
2.66900,34.80512676
2.66950,14.05190703
2.67000,-16.46753374
2.67050,-40.27269754
2.67100,-56.75319555
2.67150,-79.64277613
2.67200,-101.9219679
2.67250,-103.1427455
2.67300,-83.61030343
2.67350,-58.27916759
2.67400,-26.8441436
2.67450,15.57787907
2.67500,43.04537577
2.67550,22.29215604
2.67600,-25.31817156
2.67650,-35.69478142
2.67700,13.13632381
2.67750,73.25962213
2.67800,101.642702
2.67850,114.7660616
2.67900,137.0452533
2.67950,143.1491415
2.68000,99.8115356
2.68050,27.78565538
2.68100,-23.18181071
2.68150,-47.90255773
2.68200,-77.81160968
2.68250,-116.2661051
2.68300,-126.9479093
2.68350,-95.81807974
2.68400,-56.75319555
2.68450,-46.07139128
2.68500,-56.14280674
2.68550,-58.88955641
2.68600,-43.01944721
2.68650,-14.33117288
2.68700,21.68176723
2.68750,61.05184582
2.68800,88.82453692
2.68850,90.65570337
2.68900,69.90248364
2.68950,45.18173662
2.69000,29.92201623
2.69050,20.15579519
2.69100,4.285685988
2.69150,-18.60389459
2.69200,-34.7791982
2.69250,-32.33764294
2.69300,-25.01297715
2.69350,-42.7142528
2.69400,-86.96744191
2.69450,-118.0972715
2.69500,-97.64924618
2.69550,-39.05191991
2.69600,9.779185327
2.69650,27.48046097
2.69700,35.72070998
2.69750,56.4739297
2.69800,78.75312147
2.69850,84.24662081
2.69900,79.05831587
2.69950,79.9738991
2.70000,86.07778725
2.70050,85.16220403
2.70100,76.0063718
2.70150,67.15573397
2.70200,60.74665141
2.70250,50.98043037
2.70300,40.6038205
2.70350,34.19473794
2.70400,25.64929453
2.70450,6.422046842
2.70500,-20.43506104
2.70550,-43.62983602
2.70600,-60.41552844
2.70650,-75.37005442
2.70700,-84.22069225
2.70750,-75.67524883
2.70800,-49.42852977
2.70850,-17.38311696
2.70900,11.30515737
2.70950,32.97396031
2.71000,38.77265406
2.71050,26.87007216
2.71100,13.44151822
2.71150,16.4934623
2.71200,28.09084979
2.71250,23.51293367
2.71300,-1.207813351
2.71350,-25.01297715
2.71400,-37.83114227
2.71450,-55.22722351
2.71500,-82.69472021
2.71550,-97.64924618
2.71600,-83.91549784
2.71650,-60.41552844
2.71700,-49.73372418
2.71750,-39.66230872
2.71800,-2.428590981
2.71850,51.28562477
2.71900,83.33103758
2.71950,79.36351028
2.72000,69.59728924
2.72050,80.27909351
2.72100,97.98036915
2.72150,95.53881389
2.72200,75.39598298
2.72250,63.49340108
2.72300,72.0388445
2.72350,86.07778725
2.72400,86.38298166
2.72450,70.51287246
2.72500,48.84406951
2.72550,31.44798827
2.72600,21.07137841
2.72650,18.62982315
2.72700,26.87007216
2.72750,47.31809747
2.72800,71.73365009
2.72850,87.29856488
2.72900,94.01284185
2.72950,103.4738685
2.73000,118.1232001
2.73050,115.9868392
2.73100,76.61676061
2.73150,13.74671263
2.73200,-31.42205971
2.73250,-37.52594787
2.73300,-21.35064426
2.73350,-8.532479135
2.73400,-1.513007758
2.73450,10.69476855
2.73500,29.00643301
2.73550,39.68823728
2.73600,32.3635715
2.73650,11.61035177
2.73700,-16.16233933
2.73750,-48.81814095
2.73800,-86.96744191
2.73850,-127.5582981
2.73900,-159.9089054
2.73950,-169.6751264
2.74000,-148.0063235
2.74050,-99.17521822
2.74100,-44.24022484
2.74150,-10.05845117
2.74200,-12.50000644
2.74250,-41.18828076
2.74300,-66.21422219
2.74350,-68.65577745
2.74400,-60.72072285
2.74450,-62.5518893
2.74500,-59.49994522
2.74550,-15.55195051
2.74600,67.46092838
2.74650,133.077726
2.74700,135.2140869
2.74750,97.36998034
2.74800,76.31156621
2.74850,85.46739844
2.74900,93.40245304
2.74950,82.72064877
2.75000,68.37651161
2.75050,56.77912411
2.75100,32.6687659
2.75150,-4.259757428
2.75200,-31.42205971
2.75250,-41.49347517
2.75300,-59.49994522
2.75350,-100.3959959
2.75400,-138.8504912
2.75450,-144.0387962
2.75500,-121.7596044
2.75550,-100.3959959
2.75600,-89.71419158
2.75650,-76.89602646
2.75700,-55.83761233
2.75750,-32.64283734
2.75800,-14.9415617
2.75850,-3.038979797
2.75900,7.032435657
2.75950,21.68176723
2.76000,42.43498695
2.76050,57.38951293
2.76100,54.64276326
2.76150,46.40251425
2.76200,59.83106819
2.76250,91.26609218
2.76300,100.7271188
2.76350,72.64923331
2.76400,52.5064024
2.76450,88.21414811
2.76500,155.0517234
2.76550,188.9283026
2.76600,178.5516928
2.76650,178.2464984
2.76700,220.668521
2.76750,264.9217102
2.76800,255.4606835
2.76850,194.421802
2.76900,126.3634491
2.76950,76.61676061
2.77000,34.49993235
2.77050,-15.85714492
2.77100,-73.53888798
2.77150,-126.0323261
2.77200,-160.5192942
2.77250,-172.7270705
2.77300,-176.084209
2.77350,-193.4802902
2.77400,-227.051675
2.77450,-255.434755
2.77500,-265.8113648
2.77550,-270.0840865
2.77600,-272.2204474
2.77650,-244.1425619
2.77700,-163.8764327
2.77750,-62.85708371
2.77800,-0.5974245352
2.77850,1.844130726
2.77900,-18.909089
2.77950,-26.8441436
2.78000,-20.12986663
2.78050,-14.33117288
2.78100,-9.753256766
2.78150,3.370102765
2.78200,26.56487775
2.78250,51.89601359
2.78300,71.12326127
2.78350,80.58428791
2.78400,78.75312147
2.78450,66.85053957
2.78500,47.62329188
2.78550,24.7337113
2.78600,3.370102765
2.78650,-11.2792288
2.78700,-19.21428341
2.78750,-23.18181071
2.78800,-19.82467222
2.78850,-0.9026189429
2.78900,26.87007216
2.78950,37.85707084
2.79000,17.10385111
2.79050,-12.80520084
2.79100,-18.909089
2.79150,0.3181586879
2.79200,17.40904552
2.79250,18.01943433
2.79300,14.35710144
2.79350,18.93501756
2.79400,28.09084979
2.79450,39.99343169
2.79500,63.18820667
2.79550,96.45439711
2.79600,119.0387833
2.79650,115.3764504
2.79700,96.75959152
2.79750,76.92195502
2.79800,52.5064024
2.79850,18.32462874
2.79900,-8.532479135
2.79950,-7.006507097
2.80000,17.71423993
2.80050,41.21420932
2.80100,51.89601359
2.80150,57.38951293
2.80200,61.96742904
2.80250,62.88301227
2.80300,66.54534516
2.80350,84.85700962
2.80400,110.4933399
2.80450,121.1751441
2.80500,111.4089231
2.80550,98.28556356
2.80600,86.07778725
2.80650,48.84406951
2.80700,-27.45453241
2.80750,-114.740133
2.80800,-175.4738201
2.80850,-209.045205
2.80900,-234.6815352
2.80950,-248.4152836
2.81000,-227.9672583
2.81050,-175.4738201
2.81100,-119.9284379
2.81150,-78.11680409
2.81200,-46.6817801
2.81250,-25.62336597
2.81300,-23.79219952
2.81350,-30.50647649
2.81400,-18.909089
2.81450,13.13632381
2.81500,35.11032117
2.81550,27.48046097
2.81600,9.473990919
2.81650,11.30515737
2.81700,34.49993235
2.81750,58.91548497
2.81800,71.12326127
2.81850,72.64923331
2.81900,71.73365009
2.81950,75.70117739
2.82000,75.09078857
2.82050,44.2661534
2.82100,-28.06492123
2.82150,-108.9414393
2.82200,-146.4803514
2.82250,-133.3569919
2.82300,-109.5518281
2.82350,-97.64924618
2.82400,-73.23369357
2.82450,-17.38311696
2.82500,39.99343169
2.82550,61.05184582
2.82600,53.42198563
2.82650,53.11679122
2.82700,65.01937312
2.82750,64.1037899
2.82800,44.2661534
2.82850,25.95448893
2.82900,20.15579519
2.82950,14.05190703
2.83000,0.9285475033
2.83050,-2.733785389
2.83100,14.96749026
2.83150,39.07784847
2.83200,47.01290307
2.83250,36.3310988
2.83300,22.29215604
2.83350,14.05190703
2.83400,12.8311294
2.83450,19.24021197
2.83500,29.31162742
2.83550,28.09084979
2.83600,3.675297173
2.83650,-27.45453241
2.83700,-36.91555905
2.83750,-24.40258834
2.83800,-24.40258834
2.83850,-54.31164029
2.83900,-81.77913698
2.83950,-62.85708371
2.84000,-5.175340651
2.84050,37.85707084
2.84100,31.14279387
2.84150,-14.02597847
2.84200,-68.35058304
2.84250,-118.0972715
2.84300,-154.7206004
2.84350,-159.9089054
2.84400,-125.4219373
2.84450,-72.01291594
2.84500,-30.8116709
2.84550,-4.259757428
2.84600,28.7012386
2.84650,76.0063718
2.84700,116.9024224
2.84750,133.077726
2.84800,134.6036981
2.84850,140.7075862
2.84900,148.3374464
2.84950,136.1296701
2.85000,94.92842508
2.85050,40.6038205
2.85100,-6.090923874
2.85150,-40.57789194
2.85200,-65.60383338
2.85250,-77.81160968
2.85300,-71.09733271
2.85350,-47.90255773
2.85400,-21.35064426
2.85450,-5.175340651
2.85500,-8.837673543
2.85550,-28.98050445
2.85600,-52.17527944
2.85650,-64.07786134
2.85700,-66.82461101
2.85750,-73.53888798
2.85800,-83.91549784
2.85850,-79.64277613
2.85900,-55.22722351
2.85950,-35.38958701
2.86000,-42.40905839
2.86050,-61.02591726
2.86100,-60.72072285
2.86150,-36.91555905
2.86200,-7.616895912
2.86250,21.98696163
2.86300,61.66223464
2.86350,102.8634797
2.86400,121.1751441
2.86450,115.3764504
2.86500,112.9348951
2.86550,127.5842267
2.86600,134.9088925
2.86650,109.5777566
2.86700,63.49340108
2.86750,31.44798827
2.86800,31.14279387
2.86850,50.37004155
2.86900,65.93495634
2.86950,59.83106819
2.87000,32.3635715
2.87050,0.3181586879
2.87100,-18.60389459
2.87150,-27.45453241
2.87200,-39.96750313
2.87250,-52.17527944
2.87300,-42.40905839
2.87350,-11.2792288
2.87400,9.168796511
2.87450,-4.870146243
2.87500,-38.7467255
2.87550,-58.584362
2.87600,-58.584362
2.87650,-57.36358437
2.87700,-63.77266693
2.87750,-68.35058304
2.87800,-64.99344456
2.87850,-64.99344456
2.87900,-76.28563765
2.87950,-86.96744191
2.88000,-76.28563765
2.88050,-43.01944721
2.88100,-11.88961762
2.88150,-5.480535058
2.88200,-20.74025544
2.88250,-38.44153109
2.88300,-54.6168347
2.88350,-83.61030343
2.88400,-125.1167429
2.88450,-152.889434
2.88500,-143.4284073
2.88550,-107.7206616
2.88600,-68.35058304
2.88650,-25.92856037
2.88700,27.48046097
2.88750,76.0063718
2.88800,90.04531455
2.88850,71.73365009
2.88900,51.89601359
2.88950,42.12979254
2.89000,21.37657282
2.89050,-17.68831137
2.89100,-43.62983602
2.89150,-30.20128208
2.89200,1.538936319
2.89250,14.05190703
2.89300,3.064908357
2.89350,-6.701312689
2.89400,-7.616895912
2.89450,-13.72078407
2.89500,-24.70778274
2.89550,-21.65583867
2.89600,-1.207813351
2.89650,8.253213288
2.89700,-12.80520084
2.89750,-41.18828076
2.89800,-38.13633668
2.89850,-4.870146243
2.89900,16.7986567
2.89950,3.064908357
2.90000,-22.57142189
2.90050,-24.40258834
2.90100,3.370102765
2.90150,39.07784847
2.90200,64.1037899
2.90250,72.95442772
2.90300,64.40898431
2.90350,46.40251425
2.90400,36.02590439
2.90450,44.2661534
2.90500,61.05184582
2.90550,74.48039976
2.90600,94.01284185
2.90650,132.1621428
2.90700,171.8374158
2.90750,180.993248
2.90800,153.5257514
2.90850,109.2725622
2.90900,59.83106819
2.90950,0.01296428019
2.91000,-62.5518893
2.91050,-101.9219679
2.91100,-108.6362449
2.91150,-103.1427455
2.91200,-106.499884
2.91250,-115.9609106
2.91300,-121.45441
2.91350,-125.7271317
2.91400,-133.9673807
2.91450,-143.7336017
2.91500,-148.0063235
2.91550,-143.4284073
2.91600,-126.9479093
2.91650,-98.56482941
2.91700,-66.82461101
2.91750,-40.57789194
2.91800,-16.46753374
2.91850,10.69476855
2.91900,36.6362932
2.91950,54.33756885
2.92000,71.73365009
2.92050,97.06478593
2.92100,118.7335889
2.92150,121.4803385
2.92200,111.1037287
2.92250,96.75959152
2.92300,62.88301227
2.92350,-6.396118282
2.92400,-79.94797054
2.92450,-99.17521822
2.92500,-54.00644588
2.92550,0.9285475033
2.92600,16.4934623
2.92650,-0.2922301275
2.92700,-14.02597847
2.92750,-10.36364558
2.92800,-3.649368612
2.92850,-14.63636729
2.92900,-50.95450181
2.92950,-95.51288533
2.93000,-111.6881889
2.93050,-78.72719291
2.93100,-22.26622748
2.93150,13.44151822
2.93200,21.07137841
2.93250,31.75318268
2.93300,60.44145701
2.93350,79.36351028
2.93400,63.18820667
2.93450,29.61682183
2.93500,15.88307348
2.93550,32.3635715
2.93600,54.03237444
2.93650,56.1687353
2.93700,37.55187643
2.93750,14.96749026
2.93800,1.538936319
2.93850,-4.870146243
2.93900,-15.55195051
