type,name,time_units,begin_time,frequency,count,units
signal_3d,"Noraxon MyoMotion-Segments-Upper arm RT-Sensor Acceleration","s",0.0000,200,5068,"mG"

time,x,y,z
0.0000,971.1914063,-121.09375,-286.6210938
0.0050,979.9804688,-123.5351563,-285.15625
0.0100,988.28125,-117.1875,-277.34375
0.0150,981.4453125,-130.3710938,-295.8984375
0.0200,992.6757813,-121.5820313,-291.9921875
0.0250,991.2109375,-125,-283.203125
0.0300,985.8398438,-134.765625,-288.0859375
0.0350,993.1640625,-137.2070313,-315.4296875
0.0400,991.6992188,-138.1835938,-296.875
0.0450,993.1640625,-144.0429688,-313.4765625
0.0500,988.28125,-147.4609375,-310.0585938
0.0550,991.6992188,-142.578125,-319.3359375
0.0600,987.3046875,-146.9726563,-326.6601563
0.0650,986.328125,-151.8554688,-331.5429688
0.0700,975.5859375,-153.8085938,-323.7304688
0.0750,968.75,-157.7148438,-342.2851563
0.0800,954.1015625,-165.5273438,-341.3085938
0.0850,942.3828125,-159.6679688,-348.1445313
0.0900,930.6640625,-167.96875,-341.796875
0.0950,919.921875,-170.8984375,-353.515625
0.1000,914.0625,-172.8515625,-341.796875
0.1050,911.1328125,-171.3867188,-348.1445313
0.1100,905.7617188,-163.5742188,-335.4492188
0.1150,895.5078125,-166.015625,-346.1914063
0.1200,889.1601563,-159.1796875,-324.7070313
0.1250,879.3945313,-160.15625,-319.8242188
0.1300,870.6054688,-154.296875,-319.3359375
0.1350,864.7460938,-148.9257813,-309.5703125
0.1400,863.7695313,-136.71875,-299.3164063
0.1450,863.28125,-131.8359375,-282.7148438
0.1500,860.8398438,-133.3007813,-286.6210938
0.1550,872.0703125,-130.3710938,-275.390625
0.1600,870.6054688,-133.3007813,-245.6054688
0.1650,885.7421875,-128.90625,-244.6289063
0.1700,899.9023438,-127.9296875,-232.9101563
0.1750,910.6445313,-135.7421875,-239.2578125
0.1800,920.4101563,-134.765625,-214.84375
0.1850,938.4765625,-136.71875,-211.9140625
0.1900,942.3828125,-135.2539063,-212.4023438
0.1950,952.1484375,-138.671875,-197.7539063
0.2000,953.6132813,-138.671875,-207.5195313
0.2050,960.4492188,-122.5585938,-202.1484375
0.2100,949.7070313,-128.90625,-198.7304688
0.2150,963.8671875,-112.7929688,-201.171875
0.2200,950.6835938,-109.375,-203.125
0.2250,959.4726563,-108.3984375,-199.21875
0.2300,956.0546875,-101.5625,-209.4726563
0.2350,967.7734375,-94.23828125,-207.03125
0.2400,968.2617188,-82.51953125,-233.8867188
0.2450,964.84375,-81.54296875,-224.1210938
0.2500,963.8671875,-79.1015625,-223.1445313
0.2550,966.796875,-80.078125,-234.375
0.2600,953.6132813,-88.8671875,-238.28125
0.2650,951.171875,-83.984375,-229.4921875
0.2700,950.6835938,-86.42578125,-218.75
0.2750,947.265625,-96.6796875,-255.859375
0.2800,951.6601563,-90.33203125,-249.0234375
0.2850,950.6835938,-84.47265625,-249.5117188
0.2900,947.265625,-83.49609375,-256.3476563
0.2950,945.8007813,-76.66015625,-264.6484375
0.3000,940.9179688,-72.75390625,-259.765625
0.3050,940.9179688,-79.1015625,-268.0664063
0.3100,947.265625,-64.94140625,-289.5507813
0.3150,945.8007813,-74.21875,-292.4804688
0.3200,933.1054688,-83.49609375,-300.78125
0.3250,937.9882813,-87.890625,-310.546875
0.3300,927.2460938,-107.9101563,-312.5
0.3350,937.0117188,-113.28125,-323.7304688
0.3400,929.1992188,-138.671875,-334.4726563
0.3450,929.6875,-151.3671875,-333.984375
0.3500,925.78125,-170.8984375,-348.6328125
0.3550,934.0820313,-181.1523438,-372.5585938
0.3600,925.78125,-199.21875,-354.0039063
0.3650,926.2695313,-206.0546875,-366.2109375
0.3700,931.1523438,-207.03125,-354.0039063
0.3750,930.6640625,-213.3789063,-359.8632813
0.3800,927.734375,-211.9140625,-346.1914063
0.3850,941.40625,-196.2890625,-354.4921875
0.3900,940.4296875,-193.359375,-345.2148438
0.3950,943.359375,-189.9414063,-347.1679688
0.4000,955.078125,-173.828125,-328.6132813
0.4050,952.6367188,-173.3398438,-335.9375
0.4100,947.7539063,-165.5273438,-333.4960938
0.4150,959.4726563,-159.1796875,-327.6367188
0.4200,955.5664063,-154.7851563,-316.40625
0.4250,959.9609375,-150.8789063,-321.7773438
0.4300,958.984375,-153.3203125,-295.4101563
0.4350,965.3320313,-147.9492188,-306.640625
0.4400,962.890625,-146.9726563,-280.7617188
0.4450,971.1914063,-143.0664063,-280.2734375
0.4500,963.8671875,-132.8125,-277.8320313
0.4550,966.3085938,-125.9765625,-269.53125
0.4600,964.3554688,-119.6289063,-270.5078125
0.4650,960.4492188,-108.3984375,-260.7421875
0.4700,959.9609375,-97.65625,-281.25
0.4750,959.4726563,-90.8203125,-266.6015625
0.4800,952.1484375,-92.28515625,-283.203125
0.4850,957.5195313,-93.26171875,-279.296875
0.4900,947.7539063,-100.5859375,-287.5976563
0.4950,947.7539063,-106.4453125,-269.53125
0.5000,946.2890625,-103.515625,-286.6210938
0.5050,946.7773438,-108.8867188,-284.1796875
0.5100,944.3359375,-104.0039063,-291.015625
0.5150,935.0585938,-108.8867188,-293.4570313
0.5200,935.0585938,-103.0273438,-290.0390625
0.5250,934.5703125,-111.328125,-299.8046875
0.5300,938.9648438,-104.9804688,-295.8984375
0.5350,942.3828125,-109.8632813,-300.78125
0.5400,941.40625,-109.8632813,-302.2460938
0.5450,942.8710938,-117.1875,-311.5234375
0.5500,939.9414063,-120.6054688,-319.8242188
0.5550,937.0117188,-129.3945313,-312.9882813
0.5600,931.1523438,-137.6953125,-315.9179688
0.5650,933.59375,-134.765625,-332.5195313
0.5700,937.5,-141.6015625,-313.9648438
0.5750,943.359375,-145.0195313,-319.3359375
0.5800,947.265625,-142.0898438,-324.21875
0.5850,942.8710938,-154.296875,-322.7539063
0.5900,945.8007813,-140.625,-316.40625
0.5950,944.3359375,-140.1367188,-324.21875
0.6000,942.3828125,-138.671875,-321.2890625
0.6050,943.8476563,-137.6953125,-320.3125
0.6100,940.4296875,-136.71875,-297.3632813
0.6150,942.8710938,-126.953125,-315.9179688
0.6200,949.21875,-123.046875,-288.0859375
0.6250,952.1484375,-120.6054688,-277.8320313
0.6300,965.3320313,-108.8867188,-264.6484375
0.6350,966.796875,-114.2578125,-266.6015625
0.6400,980.9570313,-94.7265625,-243.1640625
0.6450,983.3984375,-105.9570313,-230.46875
0.6500,989.2578125,-108.3984375,-237.3046875
0.6550,999.0234375,-103.515625,-236.328125
0.6600,994.6289063,-106.9335938,-236.8164063
0.6650,980.9570313,-108.8867188,-239.7460938
0.6700,974.1210938,-102.0507813,-246.5820313
0.6750,962.4023438,-91.30859375,-260.2539063
0.6800,947.7539063,-75.1953125,-262.2070313
0.6850,947.265625,-71.77734375,-272.4609375
0.6900,941.40625,-75.1953125,-270.0195313
0.6950,941.40625,-71.2890625,-256.8359375
0.7000,942.8710938,-73.2421875,-270.0195313
0.7050,945.3125,-89.35546875,-254.3945313
0.7100,949.21875,-98.14453125,-266.1132813
0.7150,948.7304688,-112.7929688,-269.0429688
0.7200,945.8007813,-119.6289063,-286.1328125
0.7250,952.6367188,-117.6757813,-274.9023438
0.7300,950.6835938,-126.4648438,-305.1757813
0.7350,960.9375,-113.7695313,-311.0351563
0.7400,955.5664063,-117.1875,-310.0585938
0.7450,960.4492188,-114.7460938,-314.9414063
0.7500,952.1484375,-113.28125,-315.4296875
0.7550,955.078125,-118.1640625,-328.6132813
0.7600,957.03125,-111.8164063,-323.7304688
0.7650,950.1953125,-118.6523438,-337.4023438
0.7700,948.2421875,-111.328125,-328.125
0.7750,942.8710938,-117.1875,-329.1015625
0.7800,938.9648438,-122.5585938,-318.8476563
0.7850,943.359375,-119.140625,-325.1953125
0.7900,943.359375,-118.1640625,-319.8242188
0.7950,952.6367188,-121.5820313,-316.40625
0.8000,946.7773438,-125.4882813,-319.3359375
0.8050,956.5429688,-122.5585938,-298.828125
0.8100,959.9609375,-117.6757813,-311.5234375
0.8150,965.8203125,-121.5820313,-293.4570313
0.8200,966.796875,-117.1875,-304.1992188
0.8250,964.3554688,-119.6289063,-318.8476563
0.8300,963.3789063,-121.09375,-301.2695313
0.8350,967.7734375,-116.2109375,-309.0820313
0.8400,964.84375,-117.1875,-316.40625
0.8450,963.3789063,-122.0703125,-305.6640625
0.8500,964.84375,-125,-290.5273438
0.8550,973.6328125,-120.6054688,-286.6210938
0.8600,968.75,-130.3710938,-280.2734375
0.8650,964.3554688,-128.4179688,-275.390625
0.8700,966.3085938,-122.5585938,-263.671875
0.8750,957.03125,-124.5117188,-266.6015625
0.8800,958.0078125,-110.3515625,-284.6679688
0.8850,946.7773438,-114.7460938,-276.8554688
0.8900,951.6601563,-104.4921875,-294.4335938
0.8950,954.1015625,-101.0742188,-281.25
0.9000,949.7070313,-100.5859375,-278.8085938
0.9050,948.7304688,-100.5859375,-256.3476563
0.9100,955.5664063,-95.21484375,-260.7421875
0.9150,959.4726563,-101.0742188,-265.625
0.9200,960.9375,-111.8164063,-252.9296875
0.9250,967.7734375,-112.3046875,-273.4375
0.9300,976.5625,-118.6523438,-258.3007813
0.9350,972.1679688,-138.1835938,-264.1601563
0.9400,971.6796875,-149.9023438,-279.296875
0.9450,973.6328125,-159.1796875,-284.1796875
0.9500,979.0039063,-153.8085938,-276.8554688
0.9550,970.703125,-148.9257813,-286.1328125
0.9600,965.3320313,-145.9960938,-288.0859375
0.9650,961.9140625,-139.6484375,-287.5976563
0.9700,952.1484375,-126.953125,-297.8515625
0.9750,949.7070313,-128.90625,-302.734375
0.9800,941.40625,-113.7695313,-294.921875
0.9850,935.0585938,-107.9101563,-305.6640625
0.9900,945.8007813,-104.9804688,-302.734375
0.9950,944.3359375,-103.515625,-300.2929688
1.0000,938.9648438,-100.0976563,-298.3398438
1.0050,929.6875,-102.5390625,-305.6640625
1.0100,931.640625,-102.0507813,-294.921875
1.0150,937.0117188,-105.46875,-282.2265625
1.0200,931.1523438,-103.0273438,-288.0859375
1.0250,943.359375,-97.16796875,-281.25
1.0300,952.6367188,-87.890625,-273.9257813
1.0350,953.6132813,-91.796875,-279.7851563
1.0400,963.8671875,-87.40234375,-270.0195313
1.0450,969.7265625,-87.40234375,-256.3476563
1.0500,971.1914063,-93.26171875,-250.9765625
1.0550,967.2851563,-99.12109375,-235.8398438
1.0600,964.3554688,-98.6328125,-240.7226563
1.0650,972.1679688,-84.9609375,-231.4453125
1.0700,976.5625,-84.47265625,-229.4921875
1.0750,981.4453125,-81.0546875,-224.609375
1.0800,972.65625,-79.58984375,-220.2148438
1.0850,979.4921875,-74.70703125,-218.75
1.0900,979.9804688,-66.40625,-206.5429688
1.0950,983.3984375,-64.94140625,-195.3125
1.1000,984.375,-51.26953125,-192.8710938
1.1050,990.234375,-53.22265625,-194.8242188
1.1100,979.4921875,-65.4296875,-198.2421875
1.1150,990.7226563,-62.5,-211.4257813
1.1200,982.9101563,-74.70703125,-210.4492188
1.1250,981.4453125,-85.9375,-232.9101563
1.1300,971.1914063,-95.703125,-247.0703125
1.1350,965.8203125,-104.0039063,-249.5117188
1.1400,954.1015625,-116.2109375,-261.71875
1.1450,956.5429688,-106.9335938,-268.0664063
1.1500,958.4960938,-107.421875,-263.1835938
1.1550,960.9375,-111.8164063,-265.1367188
1.1600,963.8671875,-90.8203125,-263.671875
1.1650,964.3554688,-89.35546875,-262.6953125
1.1700,963.8671875,-82.51953125,-245.6054688
1.1750,966.796875,-75.68359375,-263.1835938
1.1800,966.3085938,-72.265625,-234.8632813
1.1850,967.2851563,-72.265625,-242.1875
1.1900,966.3085938,-81.0546875,-232.9101563
1.1950,974.609375,-83.984375,-232.9101563
1.2000,974.609375,-95.703125,-244.6289063
1.2050,980.9570313,-96.19140625,-253.90625
1.2100,970.2148438,-118.1640625,-279.7851563
1.2150,978.515625,-128.4179688,-263.671875
1.2200,969.2382813,-145.0195313,-289.5507813
1.2250,977.0507813,-150.8789063,-277.8320313
1.2300,975.0976563,-150.8789063,-281.25
1.2350,981.9335938,-140.625,-273.9257813
1.2400,983.3984375,-143.0664063,-269.0429688
1.2450,981.4453125,-136.2304688,-271.484375
1.2500,987.7929688,-120.6054688,-263.1835938
1.2550,985.3515625,-116.2109375,-255.3710938
1.2600,982.9101563,-100.0976563,-239.7460938
1.2650,979.0039063,-86.42578125,-239.7460938
1.2700,972.1679688,-79.1015625,-238.7695313
1.2750,971.6796875,-74.21875,-252.9296875
1.2800,959.4726563,-70.80078125,-245.6054688
1.2850,952.1484375,-68.84765625,-250
1.2900,949.21875,-76.171875,-265.625
1.2950,949.21875,-84.47265625,-268.5546875
1.3000,951.171875,-88.37890625,-261.71875
1.3050,961.4257813,-96.19140625,-266.1132813
1.3100,963.3789063,-103.515625,-261.2304688
1.3150,974.1210938,-104.4921875,-250.4882813
1.3200,967.7734375,-125.9765625,-249.0234375
1.3250,974.609375,-123.046875,-267.578125
1.3300,971.1914063,-127.9296875,-263.671875
1.3350,959.9609375,-127.9296875,-258.3007813
1.3400,968.75,-119.140625,-268.5546875
1.3450,972.1679688,-120.1171875,-259.765625
1.3500,970.2148438,-99.609375,-256.3476563
1.3550,967.2851563,-96.6796875,-251.4648438
1.3600,958.4960938,-89.84375,-247.5585938
1.3650,956.0546875,-84.47265625,-245.6054688
1.3700,958.984375,-74.21875,-238.7695313
1.3750,958.4960938,-71.77734375,-232.421875
1.3800,959.9609375,-67.3828125,-227.0507813
1.3850,958.984375,-64.94140625,-229.4921875
1.3900,951.6601563,-61.5234375,-220.2148438
1.3950,960.9375,-71.77734375,-229.0039063
1.4000,956.5429688,-84.9609375,-227.5390625
1.4050,958.0078125,-96.6796875,-237.7929688
1.4100,959.9609375,-108.8867188,-238.7695313
1.4150,965.3320313,-114.7460938,-256.8359375
1.4200,971.6796875,-129.8828125,-265.625
1.4250,976.0742188,-144.0429688,-259.765625
1.4300,974.1210938,-148.9257813,-270.0195313
1.4350,961.4257813,-145.9960938,-281.7382813
1.4400,957.03125,-130.859375,-287.5976563
1.4450,959.4726563,-113.7695313,-283.6914063
1.4500,950.6835938,-106.4453125,-283.6914063
1.4550,949.21875,-95.21484375,-280.2734375
1.4600,945.3125,-76.66015625,-297.8515625
1.4650,945.8007813,-56.640625,-280.7617188
1.4700,945.3125,-54.6875,-268.5546875
1.4750,950.6835938,-51.7578125,-266.6015625
1.4800,953.6132813,-62.5,-249.0234375
1.4850,958.0078125,-69.3359375,-240.234375
1.4900,961.9140625,-75.1953125,-256.8359375
1.4950,972.1679688,-92.28515625,-260.7421875
1.5000,976.5625,-109.8632813,-243.1640625
1.5050,966.3085938,-137.6953125,-262.6953125
1.5100,967.7734375,-148.9257813,-285.15625
1.5150,953.6132813,-166.9921875,-267.0898438
1.5200,966.3085938,-154.296875,-273.4375
1.5250,966.796875,-150.8789063,-277.34375
1.5300,963.8671875,-142.0898438,-269.0429688
1.5350,974.1210938,-122.0703125,-263.1835938
1.5400,968.75,-104.9804688,-260.2539063
1.5450,964.3554688,-90.8203125,-231.9335938
1.5500,962.4023438,-74.70703125,-235.3515625
1.5550,952.6367188,-72.75390625,-246.5820313
1.5600,955.078125,-57.6171875,-260.7421875
1.5650,958.4960938,-57.6171875,-236.328125
1.5700,948.7304688,-65.91796875,-253.4179688
1.5750,959.4726563,-63.96484375,-251.4648438
1.5800,957.5195313,-70.80078125,-241.2109375
1.5850,956.5429688,-92.7734375,-250
1.5900,965.3320313,-93.26171875,-231.9335938
1.5950,975.0976563,-114.2578125,-245.1171875
1.6000,973.1445313,-129.8828125,-253.4179688
1.6050,972.1679688,-144.53125,-261.71875
1.6100,977.0507813,-139.1601563,-242.1875
1.6150,972.1679688,-145.0195313,-235.3515625
1.6200,974.609375,-142.0898438,-232.9101563
1.6250,978.0273438,-145.0195313,-233.3984375
1.6300,983.3984375,-147.9492188,-236.328125
1.6350,990.234375,-139.1601563,-254.3945313
1.6400,976.5625,-129.8828125,-248.046875
1.6450,967.7734375,-118.6523438,-244.6289063
1.6500,971.6796875,-89.84375,-229.4921875
1.6550,966.796875,-89.35546875,-222.1679688
1.6600,965.3320313,-77.63671875,-214.84375
1.6650,962.4023438,-69.3359375,-221.1914063
1.6700,946.2890625,-76.171875,-243.6523438
1.6750,957.5195313,-89.35546875,-239.7460938
1.6800,959.4726563,-111.8164063,-232.421875
1.6850,959.9609375,-134.765625,-233.3984375
1.6900,958.4960938,-139.6484375,-234.375
1.6950,959.9609375,-139.6484375,-241.2109375
1.7000,971.1914063,-130.859375,-233.8867188
1.7050,974.609375,-124.5117188,-235.3515625
1.7100,969.2382813,-135.7421875,-232.9101563
1.7150,975.5859375,-125,-231.4453125
1.7200,970.703125,-114.7460938,-217.2851563
1.7250,971.1914063,-112.7929688,-229.0039063
1.7300,962.4023438,-114.2578125,-238.28125
1.7350,963.8671875,-127.9296875,-243.1640625
1.7400,963.3789063,-125.4882813,-241.6992188
1.7450,967.7734375,-123.046875,-248.046875
1.7500,962.4023438,-115.7226563,-223.1445313
1.7550,947.7539063,-138.1835938,-227.5390625
1.7600,953.6132813,-139.1601563,-242.6757813
1.7650,957.03125,-152.34375,-223.1445313
1.7700,964.84375,-150.390625,-228.0273438
1.7750,957.03125,-153.3203125,-211.4257813
1.7800,964.84375,-141.6015625,-224.1210938
1.7850,967.2851563,-135.7421875,-220.703125
1.7900,977.5390625,-134.2773438,-234.8632813
1.7950,985.3515625,-130.3710938,-241.6992188
1.8000,975.5859375,-136.71875,-228.515625
1.8050,974.609375,-137.6953125,-222.1679688
1.8100,969.2382813,-140.625,-215.3320313
1.8150,974.609375,-137.6953125,-213.8671875
1.8200,978.515625,-140.1367188,-224.609375
1.8250,973.1445313,-150.390625,-213.3789063
1.8300,958.0078125,-162.5976563,-212.4023438
1.8350,951.171875,-158.203125,-208.984375
1.8400,951.171875,-154.7851563,-210.4492188
1.8450,968.75,-142.578125,-204.5898438
1.8500,974.1210938,-139.6484375,-207.03125
1.8550,975.5859375,-139.6484375,-208.0078125
1.8600,967.2851563,-139.6484375,-215.3320313
1.8650,965.8203125,-137.6953125,-233.3984375
1.8700,956.5429688,-147.9492188,-236.328125
1.8750,957.03125,-147.4609375,-219.2382813
1.8800,946.7773438,-147.9492188,-212.4023438
1.8850,942.8710938,-154.296875,-208.0078125
1.8900,939.453125,-145.0195313,-212.890625
1.8950,938.4765625,-141.1132813,-219.7265625
1.9000,932.1289063,-148.4375,-215.3320313
1.9050,944.3359375,-139.1601563,-224.609375
1.9100,934.5703125,-152.8320313,-229.9804688
1.9150,930.6640625,-161.1328125,-229.0039063
1.9200,929.6875,-177.2460938,-242.1875
1.9250,934.0820313,-185.546875,-248.046875
1.9300,932.1289063,-188.9648438,-249.0234375
1.9350,940.4296875,-181.640625,-229.4921875
1.9400,940.4296875,-169.4335938,-251.4648438
1.9450,948.2421875,-156.7382813,-243.6523438
1.9500,948.7304688,-145.5078125,-251.4648438
1.9550,938.4765625,-159.6679688,-239.7460938
1.9600,936.0351563,-168.9453125,-248.5351563
1.9650,938.9648438,-163.5742188,-248.046875
1.9700,935.546875,-176.7578125,-242.6757813
1.9750,935.0585938,-189.9414063,-248.5351563
1.9800,932.1289063,-192.8710938,-248.046875
1.9850,930.1757813,-189.453125,-240.234375
1.9900,925.78125,-197.7539063,-238.28125
1.9950,941.40625,-208.4960938,-244.140625
2.0000,939.9414063,-212.4023438,-244.6289063
2.0050,948.7304688,-201.6601563,-250.4882813
2.0100,942.8710938,-203.6132813,-262.2070313
2.0150,950.6835938,-204.1015625,-272.9492188
2.0200,959.4726563,-196.2890625,-281.7382813
2.0250,957.5195313,-207.03125,-276.3671875
2.0300,954.5898438,-202.1484375,-275.390625
2.0350,950.1953125,-208.4960938,-259.765625
2.0400,942.8710938,-208.984375,-247.5585938
2.0450,937.9882813,-216.796875,-250.4882813
2.0500,956.5429688,-183.59375,-270.9960938
2.0550,944.3359375,-186.5234375,-276.3671875
2.0600,955.078125,-187.9882813,-265.1367188
2.0650,963.3789063,-198.2421875,-256.3476563
2.0700,966.796875,-199.7070313,-245.1171875
2.0750,953.125,-207.03125,-269.53125
2.0800,951.6601563,-195.3125,-257.3242188
2.0850,946.2890625,-200.1953125,-264.1601563
2.0900,951.171875,-198.2421875,-268.0664063
2.0950,944.8242188,-205.078125,-276.8554688
2.1000,944.8242188,-200.1953125,-271.484375
2.1050,924.8046875,-186.0351563,-270.5078125
2.1100,926.7578125,-166.9921875,-267.0898438
2.1150,932.1289063,-167.96875,-259.2773438
2.1200,936.0351563,-172.3632813,-262.2070313
2.1250,930.6640625,-193.359375,-252.9296875
2.1300,938.9648438,-204.5898438,-255.859375
2.1350,951.171875,-208.0078125,-257.3242188
2.1400,955.078125,-216.796875,-272.9492188
2.1450,956.5429688,-218.75,-279.7851563
2.1500,954.5898438,-211.9140625,-270.5078125
2.1550,947.265625,-225.0976563,-278.3203125
2.1600,939.453125,-232.421875,-275.8789063
2.1650,937.0117188,-235.8398438,-298.828125
2.1700,938.4765625,-232.9101563,-270.0195313
2.1750,935.0585938,-241.6992188,-268.5546875
2.1800,934.5703125,-231.9335938,-262.6953125
2.1850,930.1757813,-226.0742188,-251.4648438
2.1900,935.546875,-217.2851563,-249.0234375
2.1950,932.1289063,-224.1210938,-251.953125
2.2000,933.1054688,-227.0507813,-259.2773438
2.2050,934.5703125,-221.6796875,-279.7851563
2.2100,926.2695313,-230.9570313,-292.4804688
2.2150,937.0117188,-237.7929688,-302.734375
2.2200,937.5,-249.0234375,-306.640625
2.2250,946.2890625,-257.8125,-332.03125
2.2300,941.40625,-276.3671875,-338.3789063
2.2350,927.2460938,-270.9960938,-348.6328125
2.2400,932.1289063,-239.2578125,-339.3554688
2.2450,917.4804688,-236.328125,-323.7304688
2.2500,916.5039063,-229.0039063,-298.828125
2.2550,912.5976563,-218.2617188,-309.0820313
2.2600,890.1367188,-223.1445313,-310.0585938
2.2650,901.8554688,-203.125,-301.2695313
2.2700,907.2265625,-192.8710938,-254.8828125
2.2750,917.4804688,-208.4960938,-251.4648438
2.2800,924.8046875,-231.4453125,-278.8085938
2.2850,921.875,-253.4179688,-297.8515625
2.2900,929.1992188,-268.5546875,-289.5507813
2.2950,929.1992188,-280.7617188,-288.5742188
2.3000,929.6875,-281.7382813,-284.6679688
2.3050,962.890625,-250,-290.5273438
2.3100,969.7265625,-269.0429688,-310.0585938
2.3150,966.3085938,-298.828125,-320.8007813
2.3200,950.1953125,-318.359375,-293.9453125
2.3250,943.8476563,-300.78125,-304.1992188
2.3300,950.1953125,-291.5039063,-304.1992188
2.3350,943.359375,-301.2695313,-305.6640625
2.3400,931.1523438,-290.5273438,-312.0117188
2.3450,910.6445313,-285.6445313,-342.7734375
2.3500,897.9492188,-257.3242188,-340.8203125
2.3550,893.0664063,-233.3984375,-338.3789063
2.3600,881.3476563,-248.046875,-338.3789063
2.3650,882.8125,-250.9765625,-315.9179688
2.3700,894.0429688,-248.5351563,-308.59375
2.3750,901.8554688,-252.9296875,-323.2421875
2.3800,898.9257813,-249.0234375,-332.03125
2.3850,894.53125,-253.4179688,-331.0546875
2.3900,896.484375,-245.1171875,-308.1054688
2.3950,893.5546875,-254.3945313,-334.4726563
2.4000,908.6914063,-248.5351563,-320.3125
2.4050,900.8789063,-264.1601563,-319.3359375
2.4100,907.7148438,-269.0429688,-313.4765625
2.4150,908.6914063,-297.8515625,-324.7070313
2.4200,906.25,-317.8710938,-357.421875
2.4250,909.1796875,-315.9179688,-382.3242188
2.4300,905.2734375,-327.6367188,-368.6523438
2.4350,891.1132813,-329.5898438,-355.9570313
2.4400,881.8359375,-332.5195313,-328.6132813
2.4450,881.3476563,-328.125,-343.2617188
2.4500,886.71875,-331.0546875,-362.3046875
2.4550,902.8320313,-329.5898438,-362.3046875
2.4600,902.8320313,-324.21875,-359.8632813
2.4650,915.5273438,-302.2460938,-368.1640625
2.4700,906.25,-292.4804688,-362.7929688
2.4750,885.7421875,-282.2265625,-365.7226563
2.4800,868.1640625,-264.6484375,-316.8945313
2.4850,860.8398438,-258.7890625,-309.0820313
2.4900,866.2109375,-265.1367188,-312.0117188
2.4950,878.90625,-273.9257813,-325.1953125
2.5000,890.1367188,-278.8085938,-355.9570313
2.5050,904.296875,-291.5039063,-365.234375
2.5100,907.7148438,-306.640625,-368.1640625
2.5150,910.15625,-310.546875,-363.7695313
2.5200,912.109375,-307.6171875,-369.6289063
2.5250,920.4101563,-318.359375,-367.6757813
2.5300,906.25,-349.1210938,-364.2578125
2.5350,887.2070313,-361.8164063,-345.2148438
2.5400,870.1171875,-351.5625,-342.7734375
2.5450,874.0234375,-329.1015625,-365.234375
2.5500,884.765625,-325.6835938,-374.5117188
2.5550,869.140625,-334.9609375,-383.7890625
2.5600,850.5859375,-325.6835938,-351.0742188
2.5650,853.0273438,-317.3828125,-351.5625
2.5700,854.9804688,-317.3828125,-356.9335938
2.5750,844.2382813,-322.7539063,-367.1875
2.5800,843.75,-315.4296875,-353.0273438
2.5850,842.2851563,-320.8007813,-370.1171875
2.5900,865.7226563,-313.9648438,-373.5351563
2.5950,864.7460938,-325.1953125,-381.8359375
2.6000,870.6054688,-327.6367188,-385.2539063
2.6050,865.7226563,-338.8671875,-403.8085938
2.6100,865.7226563,-356.4453125,-405.2734375
2.6150,862.3046875,-366.6992188,-398.4375
2.6200,863.7695313,-352.5390625,-382.3242188
2.6250,855.46875,-347.1679688,-396.484375
2.6300,854.4921875,-341.796875,-401.8554688
2.6350,850.5859375,-340.8203125,-398.4375
2.6400,826.6601563,-338.3789063,-388.671875
2.6450,829.5898438,-332.03125,-387.6953125
2.6500,831.5429688,-321.2890625,-391.6015625
2.6550,834.9609375,-326.6601563,-404.7851563
2.6600,844.2382813,-332.5195313,-420.4101563
2.6650,850.5859375,-343.2617188,-404.7851563
2.6700,847.65625,-357.9101563,-435.546875
2.6750,848.1445313,-368.1640625,-432.1289063
2.6800,842.2851563,-372.5585938,-408.6914063
2.6850,841.3085938,-373.046875,-417.96875
2.6900,835.9375,-375.4882813,-404.7851563
2.6950,833.4960938,-375.9765625,-400.390625
2.7000,832.5195313,-366.6992188,-401.8554688
2.7050,830.5664063,-358.3984375,-411.1328125
2.7100,830.5664063,-354.9804688,-416.015625
2.7150,826.171875,-363.28125,-418.9453125
2.7200,837.890625,-345.2148438,-415.0390625
2.7250,843.75,-337.4023438,-424.3164063
2.7300,841.796875,-335.9375,-429.6875
2.7350,837.890625,-339.3554688,-443.8476563
2.7400,837.890625,-354.4921875,-428.2226563
2.7450,831.0546875,-365.7226563,-423.828125
2.7500,816.40625,-375.4882813,-420.4101563
2.7550,814.453125,-372.0703125,-422.3632813
2.7600,808.1054688,-369.140625,-410.6445313
2.7650,801.7578125,-371.5820313,-416.015625
2.7700,797.3632813,-361.8164063,-408.203125
2.7750,812.5,-377.9296875,-404.296875
2.7800,817.8710938,-385.7421875,-420.4101563
2.7850,825.6835938,-380.859375,-428.2226563
2.7900,825.6835938,-378.90625,-445.3125
2.7950,834.4726563,-372.0703125,-473.6328125
2.8000,838.8671875,-357.9101563,-467.7734375
2.8050,835.9375,-363.28125,-474.1210938
2.8100,831.0546875,-379.3945313,-460.9375
2.8150,826.6601563,-383.3007813,-454.5898438
2.8200,795.4101563,-385.2539063,-441.40625
2.8250,801.2695313,-365.234375,-452.6367188
2.8300,812.5,-359.8632813,-433.59375
2.8350,805.1757813,-383.7890625,-457.03125
2.8400,792.4804688,-400.390625,-453.6132813
2.8450,806.1523438,-388.1835938,-447.7539063
2.8500,809.5703125,-383.7890625,-471.1914063
2.8550,796.875,-394.0429688,-457.03125
2.8600,791.5039063,-389.1601563,-441.8945313
2.8650,800.2929688,-374.5117188,-446.2890625
2.8700,800.78125,-367.6757813,-458.0078125
2.8750,797.3632813,-370.1171875,-459.9609375
2.8800,801.2695313,-372.5585938,-442.8710938
2.8850,813.9648438,-370.1171875,-473.1445313
2.8900,822.7539063,-371.09375,-489.2578125
2.8950,820.3125,-386.71875,-496.5820313
2.9000,813.9648438,-395.5078125,-487.3046875
2.9050,807.1289063,-395.9960938,-480.46875
2.9100,796.875,-389.6484375,-459.4726563
2.9150,802.2460938,-390.1367188,-475.5859375
2.9200,780.2734375,-401.3671875,-474.609375
2.9250,783.203125,-382.8125,-460.9375
2.9300,780.7617188,-378.4179688,-472.65625
2.9350,783.6914063,-374.5117188,-458.0078125
2.9400,776.8554688,-375.9765625,-464.3554688
2.9450,785.6445313,-378.4179688,-459.9609375
2.9500,781.25,-387.6953125,-475.5859375
2.9550,794.921875,-388.671875,-471.6796875
2.9600,786.1328125,-410.6445313,-468.75
2.9650,791.015625,-417.4804688,-466.3085938
2.9700,794.921875,-432.1289063,-493.1640625
2.9750,802.2460938,-432.1289063,-500.9765625
2.9800,789.5507813,-431.1523438,-472.65625
2.9850,775.8789063,-423.3398438,-465.8203125
2.9900,780.2734375,-417.4804688,-458.984375
2.9950,774.4140625,-414.5507813,-471.6796875
3.0000,779.7851563,-401.8554688,-476.0742188
3.0050,776.8554688,-393.0664063,-487.3046875
3.0100,771.9726563,-378.90625,-493.1640625
3.0150,785.15625,-373.046875,-480.9570313
3.0200,791.015625,-380.859375,-512.6953125
3.0250,785.6445313,-390.1367188,-491.6992188
3.0300,773.4375,-385.7421875,-489.7460938
3.0350,769.0429688,-384.765625,-486.328125
3.0400,772.4609375,-383.3007813,-479.4921875
3.0450,781.25,-384.765625,-496.5820313
3.0500,775.8789063,-395.0195313,-495.6054688
3.0550,770.5078125,-408.203125,-499.0234375
3.0600,761.71875,-407.2265625,-492.1875
3.0650,744.140625,-403.3203125,-507.8125
3.0700,737.7929688,-397.9492188,-499.5117188
3.0750,737.7929688,-401.8554688,-490.7226563
3.0800,758.3007813,-398.9257813,-505.3710938
3.0850,758.7890625,-413.5742188,-509.765625
3.0900,759.765625,-417.4804688,-497.5585938
3.0950,768.0664063,-421.3867188,-500.4882813
3.1000,766.1132813,-419.921875,-507.8125
3.1050,761.2304688,-409.6679688,-503.90625
3.1100,763.671875,-402.34375,-514.6484375
3.1150,764.1601563,-399.9023438,-513.671875
3.1200,759.765625,-386.2304688,-508.7890625
3.1250,758.3007813,-387.6953125,-527.34375
3.1300,740.234375,-392.0898438,-520.0195313
3.1350,737.3046875,-380.859375,-526.8554688
3.1400,738.7695313,-383.3007813,-512.2070313
3.1450,746.5820313,-388.671875,-522.9492188
3.1500,743.6523438,-398.9257813,-510.2539063
3.1550,739.7460938,-411.6210938,-499.0234375
3.1600,731.9335938,-420.8984375,-502.9296875
3.1650,725.0976563,-432.6171875,-501.4648438
3.1700,727.5390625,-432.6171875,-491.2109375
3.1750,732.421875,-434.5703125,-502.9296875
3.1800,740.7226563,-429.1992188,-505.3710938
3.1850,743.6523438,-427.734375,-516.6015625
3.1900,721.1914063,-431.640625,-525.8789063
3.1950,732.421875,-405.7617188,-526.3671875
3.2000,741.2109375,-393.0664063,-543.4570313
3.2050,737.7929688,-384.765625,-537.109375
3.2100,729.4921875,-387.6953125,-516.6015625
3.2150,726.0742188,-388.671875,-524.4140625
3.2200,724.609375,-383.7890625,-530.7617188
3.2250,724.609375,-388.1835938,-537.109375
3.2300,724.609375,-393.0664063,-505.859375
3.2350,727.5390625,-409.1796875,-514.1601563
3.2400,730.46875,-423.3398438,-538.0859375
3.2450,732.421875,-421.3867188,-520.5078125
3.2500,724.1210938,-415.5273438,-523.4375
3.2550,725.5859375,-409.6679688,-523.4375
3.2600,716.3085938,-402.34375,-517.578125
3.2650,727.0507813,-394.53125,-540.5273438
3.2700,715.8203125,-391.1132813,-545.8984375
3.2750,709.9609375,-388.1835938,-536.1328125
3.2800,712.890625,-388.1835938,-537.5976563
3.2850,722.65625,-403.8085938,-554.1992188
3.2900,724.609375,-406.25,-547.3632813
3.2950,724.609375,-410.15625,-543.4570313
3.3000,717.7734375,-403.8085938,-552.2460938
3.3050,710.9375,-415.5273438,-553.2226563
3.3100,721.6796875,-412.109375,-536.6210938
3.3150,725.0976563,-427.2460938,-536.6210938
3.3200,721.6796875,-424.3164063,-527.34375
3.3250,728.515625,-426.7578125,-510.2539063
3.3300,734.375,-442.3828125,-535.6445313
3.3350,735.8398438,-445.3125,-538.5742188
3.3400,744.6289063,-431.1523438,-543.9453125
3.3450,748.046875,-426.7578125,-547.8515625
3.3500,741.2109375,-421.3867188,-548.3398438
3.3550,735.8398438,-406.25,-536.6210938
3.3600,714.84375,-399.4140625,-553.2226563
3.3650,708.984375,-395.9960938,-553.2226563
3.3700,712.4023438,-400.390625,-565.9179688
3.3750,725.0976563,-405.7617188,-577.6367188
3.3800,715.8203125,-419.4335938,-585.9375
3.3850,715.3320313,-416.9921875,-557.1289063
3.3900,720.2148438,-421.3867188,-549.8046875
3.3950,723.1445313,-418.9453125,-550.78125
3.4000,726.5625,-418.4570313,-574.7070313
3.4050,717.7734375,-431.1523438,-556.640625
3.4100,716.796875,-421.875,-562.5
3.4150,719.7265625,-423.3398438,-561.0351563
3.4200,729.4921875,-409.1796875,-554.6875
3.4250,739.7460938,-413.0859375,-552.734375
3.4300,731.4453125,-422.3632813,-574.7070313
3.4350,737.3046875,-407.7148438,-577.1484375
3.4400,743.6523438,-407.2265625,-579.5898438
3.4450,750.4882813,-412.109375,-577.6367188
3.4500,733.8867188,-414.0625,-579.5898438
3.4550,720.2148438,-417.96875,-561.5234375
3.4600,736.328125,-421.3867188,-566.40625
3.4650,724.1210938,-437.9882813,-570.3125
3.4700,715.3320313,-437.0117188,-557.1289063
3.4750,689.453125,-454.1015625,-590.3320313
3.4800,696.7773438,-433.1054688,-569.3359375
3.4850,680.6640625,-442.8710938,-588.3789063
3.4900,667.4804688,-434.0820313,-584.4726563
3.4950,677.2460938,-433.59375,-618.6523438
3.5000,660.15625,-444.3359375,-634.2773438
3.5050,642.578125,-434.0820313,-637.2070313
3.5100,646.9726563,-412.109375,-633.3007813
3.5150,656.7382813,-401.8554688,-647.9492188
3.5200,658.203125,-406.25,-661.6210938
3.5250,663.0859375,-406.25,-654.7851563
3.5300,664.0625,-410.6445313,-649.4140625
3.5350,685.546875,-419.4335938,-639.1601563
3.5400,686.0351563,-440.9179688,-635.7421875
3.5450,707.5195313,-446.7773438,-619.6289063
3.5500,712.4023438,-466.3085938,-624.0234375
3.5550,711.4257813,-481.9335938,-609.375
3.5600,723.6328125,-460.4492188,-604.9804688
3.5650,712.890625,-463.8671875,-599.609375
3.5700,711.9140625,-448.7304688,-597.65625
3.5750,708.4960938,-427.2460938,-595.703125
3.5800,700.6835938,-415.0390625,-601.5625
3.5850,701.6601563,-416.9921875,-619.6289063
3.5900,704.5898438,-417.4804688,-616.6992188
3.5950,689.453125,-424.8046875,-610.8398438
3.6000,680.6640625,-424.8046875,-609.8632813
3.6050,666.015625,-427.2460938,-594.2382813
3.6100,684.0820313,-414.0625,-590.8203125
3.6150,685.546875,-421.3867188,-605.9570313
3.6200,674.8046875,-423.828125,-594.7265625
3.6250,671.3867188,-420.8984375,-580.5664063
3.6300,661.1328125,-414.5507813,-588.3789063
3.6350,668.4570313,-413.0859375,-595.703125
3.6400,676.2695313,-406.7382813,-594.2382813
3.6450,680.1757813,-389.1601563,-604.0039063
3.6500,670.4101563,-384.2773438,-608.8867188
3.6550,666.9921875,-388.1835938,-589.84375
3.6600,673.828125,-387.6953125,-587.4023438
3.6650,668.9453125,-383.7890625,-603.515625
3.6700,657.2265625,-383.3007813,-596.1914063
3.6750,663.5742188,-389.6484375,-569.8242188
3.6800,663.0859375,-397.9492188,-579.1015625
3.6850,684.0820313,-393.5546875,-587.890625
3.6900,666.9921875,-401.8554688,-580.5664063
3.6950,689.453125,-406.7382813,-587.890625
3.7000,702.1484375,-402.8320313,-605.9570313
3.7050,697.7539063,-408.6914063,-598.6328125
3.7100,680.6640625,-399.9023438,-597.1679688
3.7150,665.5273438,-399.9023438,-582.5195313
3.7200,671.875,-373.046875,-589.3554688
3.7250,668.4570313,-376.953125,-603.0273438
3.7300,666.5039063,-372.0703125,-601.0742188
3.7350,659.6679688,-379.3945313,-609.8632813
3.7400,650.390625,-377.9296875,-611.328125
3.7450,639.1601563,-381.8359375,-600.0976563
3.7500,642.0898438,-387.6953125,-593.2617188
3.7550,665.0390625,-393.0664063,-603.515625
3.7600,657.2265625,-411.6210938,-612.7929688
3.7650,645.5078125,-415.0390625,-615.7226563
3.7700,655.7617188,-416.015625,-593.75
3.7750,667.96875,-435.0585938,-608.3984375
3.7800,665.0390625,-439.453125,-623.5351563
3.7850,662.5976563,-437.5,-620.6054688
3.7900,649.4140625,-435.546875,-591.796875
3.7950,661.1328125,-419.921875,-605.46875
3.8000,663.0859375,-426.2695313,-603.0273438
3.8050,672.8515625,-448.2421875,-623.046875
3.8100,673.3398438,-450.1953125,-602.0507813
3.8150,669.921875,-446.7773438,-590.3320313
3.8200,685.0585938,-446.2890625,-590.3320313
3.8250,696.2890625,-445.3125,-593.2617188
3.8300,700.1953125,-437.0117188,-594.2382813
3.8350,694.3359375,-416.5039063,-603.515625
3.8400,701.171875,-410.15625,-617.6757813
3.8450,711.4257813,-401.3671875,-633.7890625
3.8500,709.4726563,-377.4414063,-644.53125
3.8550,702.1484375,-375.9765625,-645.9960938
3.8600,708.0078125,-372.0703125,-653.3203125
3.8650,699.7070313,-378.90625,-650.390625
3.8700,686.5234375,-388.671875,-636.2304688
3.8750,686.0351563,-409.1796875,-638.671875
3.8800,685.0585938,-430.1757813,-607.421875
3.8850,673.828125,-442.8710938,-616.2109375
3.8900,671.875,-447.265625,-611.8164063
3.8950,680.1757813,-469.2382813,-610.3515625
3.9000,687.9882813,-469.2382813,-619.6289063
3.9050,670.8984375,-457.5195313,-635.2539063
3.9100,674.8046875,-436.0351563,-627.4414063
3.9150,679.1992188,-442.3828125,-643.0664063
3.9200,679.6875,-418.9453125,-665.0390625
3.9250,671.875,-399.4140625,-670.8984375
3.9300,663.0859375,-401.8554688,-670.8984375
3.9350,668.4570313,-398.9257813,-670.4101563
3.9400,657.2265625,-407.7148438,-650.8789063
3.9450,645.0195313,-419.4335938,-647.9492188
3.9500,637.6953125,-440.4296875,-634.765625
3.9550,639.1601563,-454.1015625,-641.1132813
3.9600,635.2539063,-464.3554688,-610.8398438
3.9650,639.6484375,-459.4726563,-623.5351563
3.9700,640.625,-451.6601563,-646.9726563
3.9750,642.0898438,-443.359375,-636.71875
3.9800,646.484375,-431.640625,-650.390625
3.9850,648.9257813,-408.203125,-658.203125
3.9900,645.9960938,-399.9023438,-681.640625
3.9950,638.1835938,-388.1835938,-672.8515625
4.0000,640.1367188,-374.5117188,-682.1289063
4.0050,633.7890625,-372.5585938,-687.0117188
4.0100,631.3476563,-376.4648438,-678.2226563
4.0150,630.859375,-382.8125,-678.2226563
4.0200,629.3945313,-390.625,-659.6679688
4.0250,629.8828125,-406.25,-647.4609375
4.0300,629.3945313,-427.2460938,-655.2734375
4.0350,635.2539063,-443.8476563,-641.1132813
4.0400,637.2070313,-446.7773438,-638.671875
4.0450,633.7890625,-453.125,-618.6523438
4.0500,637.2070313,-450.1953125,-625.9765625
4.0550,645.0195313,-438.9648438,-625.4882813
4.0600,650.390625,-414.5507813,-642.0898438
4.0650,657.2265625,-401.8554688,-655.7617188
4.0700,664.0625,-386.71875,-661.6210938
4.0750,661.6210938,-376.4648438,-668.4570313
4.0800,650.8789063,-370.1171875,-689.453125
4.0850,641.1132813,-377.9296875,-652.8320313
4.0900,641.1132813,-379.3945313,-672.8515625
4.0950,643.5546875,-391.1132813,-655.7617188
4.1000,643.0664063,-405.2734375,-651.3671875
4.1050,637.6953125,-430.1757813,-654.7851563
4.1100,638.671875,-446.7773438,-626.953125
4.1150,653.3203125,-459.4726563,-631.8359375
4.1200,651.8554688,-456.0546875,-625.4882813
4.1250,642.578125,-444.3359375,-618.1640625
4.1300,644.0429688,-439.9414063,-624.5117188
4.1350,664.0625,-428.2226563,-633.7890625
4.1400,660.6445313,-425.2929688,-636.2304688
4.1450,666.9921875,-407.7148438,-649.9023438
4.1500,666.015625,-400.390625,-649.9023438
4.1550,661.1328125,-396.9726563,-662.109375
4.1600,654.7851563,-393.5546875,-646.9726563
4.1650,655.2734375,-395.9960938,-662.5976563
4.1700,647.4609375,-403.3203125,-637.6953125
4.1750,653.3203125,-415.5273438,-634.2773438
4.1800,656.25,-427.2460938,-633.7890625
4.1850,666.5039063,-434.5703125,-626.4648438
4.1900,656.25,-456.0546875,-616.2109375
4.1950,656.7382813,-457.5195313,-622.0703125
4.2000,655.2734375,-451.6601563,-608.3984375
4.2050,663.0859375,-437.9882813,-626.953125
4.2100,666.015625,-420.8984375,-624.5117188
4.2150,673.3398438,-411.6210938,-629.3945313
4.2200,673.828125,-405.7617188,-648.4375
4.2250,673.3398438,-397.9492188,-653.8085938
4.2300,670.8984375,-387.2070313,-636.71875
4.2350,665.0390625,-389.1601563,-647.4609375
4.2400,667.96875,-384.2773438,-653.8085938
4.2450,665.0390625,-399.9023438,-629.8828125
4.2500,661.1328125,-422.8515625,-621.09375
4.2550,666.9921875,-425.78125,-623.046875
4.2600,656.7382813,-439.453125,-609.8632813
4.2650,661.6210938,-437.9882813,-607.421875
4.2700,660.6445313,-431.640625,-595.703125
4.2750,671.875,-422.8515625,-610.3515625
4.2800,686.5234375,-413.5742188,-602.5390625
4.2850,691.40625,-410.15625,-610.8398438
4.2900,687.0117188,-401.3671875,-610.3515625
4.2950,684.0820313,-396.484375,-603.515625
4.3000,685.546875,-395.9960938,-615.7226563
4.3050,683.1054688,-390.1367188,-605.9570313
4.3100,689.9414063,-373.5351563,-604.0039063
4.3150,688.4765625,-374.0234375,-588.3789063
4.3200,692.3828125,-372.5585938,-606.9335938
4.3250,685.0585938,-386.2304688,-594.7265625
4.3300,678.2226563,-400.390625,-584.4726563
4.3350,686.0351563,-414.5507813,-584.9609375
4.3400,695.8007813,-421.3867188,-586.9140625
4.3450,702.6367188,-414.0625,-572.7539063
4.3500,706.5429688,-396.9726563,-562.9882813
4.3550,704.1015625,-395.0195313,-574.21875
4.3600,709.9609375,-401.8554688,-583.0078125
4.3650,713.3789063,-390.625,-584.4726563
4.3700,719.7265625,-366.6992188,-567.8710938
4.3750,715.3320313,-362.7929688,-590.3320313
4.3800,717.7734375,-350.0976563,-577.1484375
4.3850,713.8671875,-352.5390625,-582.5195313
4.3900,712.4023438,-354.0039063,-584.9609375
4.3950,708.984375,-360.8398438,-584.4726563
4.4000,710.9375,-361.328125,-570.8007813
4.4050,712.4023438,-372.5585938,-565.9179688
4.4100,714.3554688,-372.5585938,-549.3164063
4.4150,714.3554688,-377.4414063,-547.3632813
4.4200,714.84375,-384.2773438,-534.1796875
4.4250,716.796875,-399.4140625,-551.2695313
4.4300,722.1679688,-395.5078125,-553.7109375
4.4350,738.7695313,-386.71875,-557.6171875
4.4400,747.0703125,-387.2070313,-557.6171875
4.4450,752.9296875,-387.2070313,-570.8007813
4.4500,756.8359375,-376.4648438,-560.0585938
4.4550,744.140625,-364.2578125,-563.9648438
4.4600,734.375,-359.8632813,-557.6171875
4.4650,736.328125,-358.8867188,-574.21875
4.4700,741.6992188,-358.3984375,-567.8710938
4.4750,744.6289063,-366.6992188,-565.9179688
4.4800,744.6289063,-371.09375,-564.453125
4.4850,737.3046875,-375,-557.1289063
4.4900,729.0039063,-379.3945313,-566.8945313
4.4950,737.7929688,-386.71875,-537.109375
4.5000,745.6054688,-392.0898438,-557.1289063
4.5050,750.9765625,-391.1132813,-573.7304688
4.5100,755.3710938,-393.5546875,-573.7304688
4.5150,750.4882813,-390.625,-585.4492188
4.5200,737.3046875,-380.859375,-584.9609375
4.5250,724.1210938,-370.1171875,-603.0273438
4.5300,713.8671875,-341.3085938,-588.8671875
4.5350,711.4257813,-337.4023438,-601.5625
4.5400,709.9609375,-340.3320313,-602.5390625
4.5450,716.796875,-348.1445313,-597.1679688
4.5500,719.7265625,-362.7929688,-577.6367188
4.5550,729.0039063,-371.5820313,-587.890625
4.5600,718.75,-392.578125,-567.8710938
4.5650,712.4023438,-390.625,-563.9648438
4.5700,711.9140625,-388.1835938,-527.34375
4.5750,708.984375,-390.1367188,-543.9453125
4.5800,712.4023438,-387.6953125,-541.015625
4.5850,715.8203125,-388.671875,-538.0859375
4.5900,720.2148438,-383.3007813,-537.109375
4.5950,729.0039063,-383.3007813,-548.3398438
4.6000,743.6523438,-379.8828125,-556.1523438
4.6050,748.046875,-382.8125,-562.5
4.6100,756.3476563,-367.6757813,-538.5742188
4.6150,764.1601563,-371.09375,-535.15625
4.6200,770.5078125,-357.421875,-538.5742188
4.6250,764.1601563,-349.609375,-527.34375
4.6300,760.7421875,-345.703125,-517.0898438
4.6350,770.0195313,-348.1445313,-517.578125
4.6400,770.9960938,-352.0507813,-521.484375
4.6450,780.2734375,-338.8671875,-516.6015625
4.6500,779.7851563,-339.84375,-527.8320313
4.6550,797.3632813,-342.7734375,-534.6679688
4.6600,790.0390625,-341.3085938,-552.2460938
4.6650,783.203125,-328.125,-541.015625
4.6700,780.2734375,-304.6875,-523.4375
4.6750,778.3203125,-294.921875,-554.6875
4.6800,778.8085938,-298.828125,-547.8515625
4.6850,774.4140625,-306.1523438,-537.109375
4.6900,769.0429688,-315.4296875,-536.6210938
4.6950,782.7148438,-340.3320313,-512.2070313
4.7000,789.5507813,-357.421875,-505.859375
4.7050,795.4101563,-370.6054688,-500.9765625
4.7100,787.5976563,-389.6484375,-489.7460938
4.7150,786.6210938,-393.5546875,-484.375
4.7200,776.3671875,-395.5078125,-484.8632813
4.7250,802.734375,-382.3242188,-481.4453125
4.7300,805.1757813,-382.8125,-504.8828125
4.7350,818.359375,-369.6289063,-491.2109375
4.7400,812.0117188,-356.9335938,-512.2070313
4.7450,816.40625,-340.8203125,-512.2070313
4.7500,816.40625,-310.0585938,-518.5546875
4.7550,819.3359375,-310.0585938,-504.3945313
4.7600,813.9648438,-296.875,-533.203125
4.7650,806.640625,-298.828125,-516.6015625
4.7700,811.0351563,-285.15625,-510.7421875
4.7750,810.0585938,-282.2265625,-500
4.7800,814.453125,-287.109375,-494.6289063
4.7850,814.9414063,-296.875,-492.6757813
4.7900,821.7773438,-297.3632813,-494.6289063
4.7950,816.8945313,-305.1757813,-489.7460938
4.8000,822.7539063,-315.4296875,-503.90625
4.8050,826.6601563,-326.6601563,-480.9570313
4.8100,828.125,-327.1484375,-501.4648438
4.8150,847.1679688,-307.1289063,-498.046875
4.8200,836.4257813,-306.640625,-492.1875
4.8250,839.3554688,-300.78125,-498.5351563
4.8300,835.4492188,-302.2460938,-493.6523438
4.8350,834.9609375,-297.3632813,-492.1875
4.8400,835.9375,-291.015625,-491.2109375
4.8450,830.5664063,-292.4804688,-478.515625
4.8500,841.796875,-286.6210938,-488.28125
4.8550,836.9140625,-295.4101563,-492.6757813
4.8600,827.6367188,-291.015625,-478.0273438
4.8650,820.8007813,-305.1757813,-485.3515625
4.8700,828.6132813,-305.1757813,-466.796875
4.8750,833.4960938,-304.1992188,-476.0742188
4.8800,831.0546875,-304.6875,-481.9335938
4.8850,836.9140625,-302.2460938,-500
4.8900,847.1679688,-288.0859375,-509.765625
4.8950,851.0742188,-297.3632813,-500.9765625
4.9000,850.0976563,-290.0390625,-509.2773438
4.9050,851.0742188,-290.5273438,-489.7460938
4.9100,847.65625,-294.921875,-487.3046875
4.9150,839.3554688,-316.8945313,-457.03125
4.9200,830.5664063,-330.078125,-455.5664063
4.9250,828.125,-338.8671875,-434.5703125
4.9300,831.5429688,-328.125,-447.7539063
4.9350,825.6835938,-329.5898438,-445.8007813
4.9400,830.078125,-321.2890625,-461.9140625
4.9450,833.984375,-312.0117188,-467.2851563
4.9500,836.4257813,-304.6875,-475.0976563
4.9550,848.1445313,-284.6679688,-465.3320313
4.9600,849.609375,-269.0429688,-464.84375
4.9650,855.46875,-244.140625,-483.8867188
4.9700,848.1445313,-232.9101563,-477.5390625
4.9750,836.9140625,-233.3984375,-481.9335938
4.9800,834.9609375,-229.9804688,-471.6796875
4.9850,839.84375,-231.4453125,-444.8242188
4.9900,842.7734375,-235.3515625,-433.59375
4.9950,827.1484375,-263.1835938,-419.4335938
5.0000,824.21875,-278.3203125,-426.7578125
5.0050,828.125,-276.8554688,-422.3632813
5.0100,834.9609375,-288.5742188,-420.4101563
5.0150,838.3789063,-298.3398438,-410.6445313
5.0200,861.328125,-292.96875,-395.0195313
5.0250,864.2578125,-304.6875,-417.4804688
5.0300,878.90625,-278.8085938,-438.9648438
5.0350,895.5078125,-252.4414063,-446.7773438
5.0400,895.9960938,-248.046875,-439.9414063
5.0450,886.2304688,-254.3945313,-439.453125
5.0500,881.3476563,-250.9765625,-438.9648438
5.0550,883.7890625,-242.1875,-412.5976563
5.0600,882.8125,-235.8398438,-409.1796875
5.0650,877.4414063,-232.421875,-388.671875
5.0700,864.7460938,-238.7695313,-381.8359375
5.0750,853.0273438,-236.8164063,-373.5351563
5.0800,846.6796875,-239.7460938,-383.7890625
5.0850,853.0273438,-261.2304688,-377.9296875
5.0900,869.6289063,-264.1601563,-376.953125
5.0950,885.7421875,-271.484375,-406.7382813
5.1000,893.5546875,-280.2734375,-400.8789063
5.1050,900.390625,-267.578125,-407.7148438
5.1100,906.7382813,-268.0664063,-412.5976563
5.1150,913.0859375,-254.3945313,-404.296875
5.1200,914.0625,-235.3515625,-399.9023438
5.1250,903.3203125,-225.0976563,-391.1132813
5.1300,890.625,-207.5195313,-377.9296875
5.1350,878.90625,-197.7539063,-360.3515625
5.1400,874.0234375,-210.4492188,-350.5859375
5.1450,876.4648438,-218.75,-365.234375
5.1500,876.4648438,-224.609375,-366.2109375
5.1550,881.8359375,-243.1640625,-384.2773438
5.1600,893.0664063,-247.5585938,-385.2539063
5.1650,910.6445313,-237.7929688,-364.7460938
5.1700,921.875,-227.5390625,-379.8828125
5.1750,926.2695313,-218.75,-396.9726563
5.1800,923.3398438,-205.078125,-396.484375
5.1850,926.2695313,-209.4726563,-391.6015625
5.1900,917.4804688,-217.7734375,-386.71875
5.1950,914.0625,-215.3320313,-348.1445313
5.2000,913.0859375,-212.890625,-353.0273438
5.2050,898.9257813,-209.9609375,-369.6289063
5.2100,897.9492188,-215.8203125,-359.8632813
5.2150,882.3242188,-238.7695313,-349.1210938
5.2200,881.8359375,-232.9101563,-345.2148438
5.2250,891.1132813,-250,-345.2148438
5.2300,907.7148438,-260.2539063,-368.1640625
5.2350,929.1992188,-258.3007813,-363.28125
5.2400,947.265625,-239.7460938,-370.1171875
5.2450,943.359375,-222.1679688,-362.3046875
5.2500,943.8476563,-230.46875,-369.6289063
5.2550,937.9882813,-232.9101563,-371.5820313
5.2600,927.2460938,-217.2851563,-363.7695313
5.2650,921.3867188,-205.5664063,-373.046875
5.2700,904.7851563,-180.6640625,-355.9570313
5.2750,889.1601563,-184.5703125,-352.0507813
5.2800,877.4414063,-187.0117188,-328.6132813
5.2850,881.8359375,-197.265625,-330.5664063
5.2900,889.1601563,-196.2890625,-344.7265625
5.2950,891.6015625,-207.5195313,-333.4960938
5.3000,897.4609375,-199.21875,-327.1484375
5.3050,904.296875,-182.1289063,-327.1484375
5.3100,920.4101563,-169.921875,-337.890625
5.3150,917.96875,-185.0585938,-380.859375
5.3200,925.78125,-177.2460938,-401.3671875
5.3250,927.734375,-174.8046875,-384.2773438
5.3300,938.9648438,-159.6679688,-354.0039063
5.3350,935.0585938,-159.1796875,-348.6328125
5.3400,928.7109375,-160.15625,-346.1914063
5.3450,911.6210938,-165.0390625,-324.7070313
5.3500,902.8320313,-164.5507813,-298.3398438
5.3550,892.578125,-157.7148438,-290.5273438
5.3600,875.4882813,-153.8085938,-272.4609375
5.3650,875.9765625,-175.2929688,-261.71875
5.3700,883.7890625,-195.8007813,-267.0898438
5.3750,912.109375,-200.6835938,-287.109375
5.3800,942.3828125,-208.984375,-308.59375
5.3850,970.703125,-192.8710938,-323.2421875
5.3900,985.3515625,-183.1054688,-361.8164063
5.3950,996.09375,-176.2695313,-343.2617188
5.4000,1000,-147.4609375,-358.3984375
5.4050,990.234375,-135.7421875,-357.9101563
5.4100,962.890625,-120.1171875,-372.0703125
5.4150,928.7109375,-93.75,-355.9570313
5.4200,894.53125,-61.5234375,-314.453125
5.4250,860.8398438,-39.0625,-285.6445313
5.4300,836.9140625,-36.62109375,-262.2070313
5.4350,847.1679688,-40.0390625,-233.8867188
5.4400,856.4453125,-49.8046875,-220.703125
5.4450,882.3242188,-69.3359375,-229.9804688
5.4500,916.9921875,-91.30859375,-250.4882813
5.4550,941.40625,-133.3007813,-291.5039063
5.4600,973.1445313,-170.8984375,-281.7382813
5.4650,980.46875,-216.796875,-293.4570313
5.4700,993.1640625,-242.1875,-290.5273438
5.4750,1014.648438,-242.6757813,-288.0859375
5.4800,1010.742188,-235.3515625,-297.8515625
5.4850,987.7929688,-222.65625,-312.9882813
5.4900,969.2382813,-197.7539063,-315.4296875
5.4950,943.8476563,-201.6601563,-306.1523438
5.5000,937.0117188,-193.359375,-305.6640625
5.5050,932.6171875,-181.640625,-293.9453125
5.5100,917.4804688,-169.4335938,-309.0820313
5.5150,908.6914063,-151.8554688,-312.9882813
5.5200,900.390625,-139.6484375,-285.15625
5.5250,930.1757813,-119.140625,-292.4804688
5.5300,938.4765625,-117.1875,-290.5273438
5.5350,944.8242188,-116.6992188,-324.21875
5.5400,933.59375,-118.6523438,-314.9414063
5.5450,927.734375,-120.6054688,-314.9414063
5.5500,929.6875,-121.09375,-317.3828125
5.5550,937.0117188,-119.6289063,-309.5703125
5.5600,936.0351563,-125,-326.6601563
5.5650,937.0117188,-130.859375,-321.7773438
5.5700,944.3359375,-129.8828125,-329.5898438
5.5750,944.8242188,-135.7421875,-326.171875
5.5800,938.9648438,-136.71875,-309.0820313
5.5850,926.7578125,-132.3242188,-276.8554688
5.5900,927.2460938,-103.515625,-248.5351563
5.5950,932.1289063,-97.16796875,-255.859375
5.6000,943.8476563,-105.46875,-285.6445313
5.6050,962.4023438,-118.1640625,-305.6640625
5.6100,985.3515625,-135.7421875,-312.9882813
5.6150,977.0507813,-160.15625,-326.6601563
5.6200,971.1914063,-150.390625,-339.84375
5.6250,955.078125,-141.6015625,-336.9140625
5.6300,947.7539063,-122.0703125,-333.984375
5.6350,944.3359375,-116.2109375,-309.5703125
5.6400,947.7539063,-94.7265625,-324.7070313
5.6450,953.6132813,-81.54296875,-309.5703125
5.6500,943.8476563,-73.73046875,-289.0625
5.6550,940.9179688,-62.01171875,-258.7890625
5.6600,933.1054688,-61.5234375,-223.6328125
5.6650,943.359375,-60.05859375,-224.609375
5.6700,972.65625,-71.2890625,-228.515625
5.6750,990.234375,-89.84375,-259.2773438
5.6800,1002.929688,-100.5859375,-278.8085938
5.6850,1000.488281,-125.9765625,-301.7578125
5.6900,1001.953125,-126.4648438,-333.0078125
5.6950,988.28125,-145.5078125,-342.7734375
5.7000,979.4921875,-142.578125,-346.1914063
5.7050,969.2382813,-144.0429688,-326.6601563
5.7100,954.1015625,-146.9726563,-311.0351563
5.7150,937.5,-129.3945313,-308.59375
5.7200,918.4570313,-100.0976563,-284.1796875
5.7250,914.0625,-62.98828125,-267.0898438
5.7300,903.3203125,-46.38671875,-259.2773438
5.7350,899.9023438,-36.62109375,-229.4921875
5.7400,908.6914063,-26.3671875,-221.6796875
5.7450,923.828125,-14.16015625,-239.7460938
5.7500,954.1015625,-17.578125,-242.1875
5.7550,972.65625,-42.96875,-264.6484375
5.7600,983.3984375,-62.5,-277.8320313
5.7650,979.4921875,-95.21484375,-296.875
5.7700,982.421875,-113.28125,-310.0585938
5.7750,990.7226563,-118.1640625,-305.1757813
5.7800,993.6523438,-123.5351563,-292.4804688
5.7850,979.9804688,-119.140625,-288.5742188
5.7900,961.4257813,-103.0273438,-271.9726563
5.7950,952.1484375,-87.890625,-260.2539063
5.8000,936.0351563,-82.03125,-230.46875
5.8050,951.171875,-61.5234375,-218.75
5.8100,955.5664063,-38.57421875,-197.265625
5.8150,953.125,-20.99609375,-211.9140625
5.8200,968.75,-3.90625,-218.75
5.8250,993.1640625,-9.27734375,-229.9804688
5.8300,997.5585938,-30.2734375,-233.3984375
5.8350,1002.929688,-45.41015625,-256.8359375
5.8400,996.5820313,-59.5703125,-264.6484375
5.8450,986.328125,-81.0546875,-295.4101563
5.8500,991.6992188,-94.7265625,-270.0195313
5.8550,988.28125,-108.3984375,-281.25
5.8600,982.421875,-107.421875,-270.0195313
5.8650,979.0039063,-94.7265625,-270.5078125
5.8700,975.0976563,-74.21875,-264.6484375
5.8750,970.2148438,-52.734375,-258.3007813
5.8800,953.125,-40.0390625,-236.8164063
5.8850,957.03125,-16.11328125,-233.8867188
5.8900,957.03125,-5.37109375,-217.2851563
5.8950,960.4492188,0.9765625,-223.1445313
5.9000,960.9375,-6.8359375,-237.7929688
5.9050,968.75,-16.11328125,-238.7695313
5.9100,982.421875,-20.99609375,-243.6523438
5.9150,994.140625,-36.62109375,-266.6015625
5.9200,999.0234375,-52.734375,-270.0195313
5.9250,1007.8125,-77.1484375,-280.7617188
5.9300,1008.300781,-86.42578125,-276.8554688
5.9350,1001.464844,-105.9570313,-303.7109375
5.9400,993.1640625,-103.515625,-312.0117188
5.9450,991.6992188,-98.14453125,-311.0351563
5.9500,978.515625,-103.0273438,-287.5976563
5.9550,973.1445313,-89.84375,-302.734375
5.9600,957.03125,-78.61328125,-263.671875
5.9650,944.8242188,-62.5,-247.0703125
5.9700,949.21875,-42.48046875,-241.6992188
5.9750,963.3789063,-32.71484375,-223.1445313
5.9800,967.7734375,-29.296875,-216.3085938
5.9850,971.1914063,-36.62109375,-232.421875
5.9900,964.84375,-46.875,-252.9296875
5.9950,960.9375,-70.3125,-277.8320313
6.0000,956.5429688,-83.984375,-286.6210938
6.0050,938.9648438,-106.4453125,-333.0078125
6.0100,945.3125,-98.14453125,-312.9882813
6.0150,929.1992188,-115.7226563,-342.2851563
6.0200,939.453125,-103.0273438,-327.6367188
6.0250,941.8945313,-102.0507813,-338.3789063
6.0300,942.3828125,-81.0546875,-310.546875
6.0350,944.8242188,-69.3359375,-289.0625
6.0400,936.0351563,-64.453125,-266.6015625
6.0450,933.59375,-52.24609375,-263.671875
6.0500,938.4765625,-47.36328125,-237.7929688
6.0550,949.7070313,-43.45703125,-234.8632813
6.0600,952.6367188,-44.43359375,-243.6523438
6.0650,960.4492188,-56.640625,-247.5585938
6.0700,957.03125,-73.2421875,-255.859375
6.0750,959.4726563,-87.890625,-270.9960938
6.0800,962.4023438,-89.84375,-282.2265625
6.0850,965.8203125,-93.75,-295.4101563
6.0900,971.6796875,-94.23828125,-313.4765625
6.0950,971.1914063,-95.703125,-323.7304688
6.1000,963.8671875,-96.19140625,-333.984375
6.1050,962.890625,-79.58984375,-324.7070313
6.1100,951.6601563,-78.61328125,-318.359375
6.1150,949.7070313,-83.49609375,-300.78125
6.1200,946.7773438,-76.66015625,-302.734375
6.1250,955.5664063,-68.359375,-296.3867188
6.1300,963.3789063,-63.4765625,-296.3867188
6.1350,969.7265625,-69.82421875,-287.5976563
6.1400,975.5859375,-79.1015625,-292.4804688
6.1450,984.375,-90.33203125,-301.2695313
6.1500,980.46875,-103.0273438,-295.8984375
6.1550,983.8867188,-101.0742188,-288.0859375
6.1600,969.7265625,-108.8867188,-283.6914063
6.1650,974.1210938,-112.3046875,-278.8085938
6.1700,958.984375,-111.8164063,-288.0859375
6.1750,961.9140625,-108.8867188,-270.0195313
6.1800,964.3554688,-95.21484375,-282.7148438
6.1850,948.7304688,-74.70703125,-273.9257813
6.1900,948.2421875,-55.6640625,-272.4609375
6.1950,943.8476563,-57.6171875,-271.9726563
6.2000,945.3125,-45.41015625,-281.7382813
6.2050,938.9648438,-45.8984375,-269.53125
6.2100,949.7070313,-36.1328125,-267.0898438
6.2150,951.6601563,-35.15625,-265.1367188
6.2200,967.2851563,-36.1328125,-263.671875
6.2250,962.4023438,-54.19921875,-274.4140625
6.2300,956.5429688,-65.91796875,-272.9492188
6.2350,956.0546875,-86.9140625,-298.3398438
6.2400,952.6367188,-102.0507813,-303.7109375
6.2450,950.1953125,-102.0507813,-302.734375
6.2500,957.03125,-91.796875,-297.3632813
6.2550,967.7734375,-87.40234375,-295.8984375
6.2600,964.3554688,-78.61328125,-285.6445313
6.2650,953.6132813,-89.35546875,-281.7382813
6.2700,950.6835938,-85.44921875,-270.9960938
6.2750,954.1015625,-82.51953125,-286.1328125
6.2800,950.1953125,-74.21875,-290.0390625
6.2850,955.078125,-64.453125,-274.9023438
6.2900,954.5898438,-63.96484375,-259.765625
6.2950,957.03125,-56.15234375,-266.1132813
6.3000,958.4960938,-53.22265625,-267.0898438
6.3050,958.0078125,-51.26953125,-266.1132813
6.3100,962.890625,-38.0859375,-268.5546875
6.3150,967.2851563,-41.015625,-264.6484375
6.3200,953.125,-56.640625,-277.8320313
6.3250,959.4726563,-72.265625,-275.390625
6.3300,955.078125,-88.8671875,-270.9960938
6.3350,958.0078125,-98.14453125,-279.7851563
6.3400,963.8671875,-99.12109375,-261.2304688
6.3450,955.5664063,-110.8398438,-267.0898438
6.3500,959.9609375,-103.515625,-249.5117188
6.3550,966.796875,-94.7265625,-253.4179688
6.3600,973.6328125,-80.078125,-260.7421875
6.3650,973.6328125,-76.171875,-262.6953125
6.3700,956.0546875,-70.3125,-266.1132813
6.3750,950.1953125,-49.8046875,-256.3476563
6.3800,945.3125,-38.57421875,-265.1367188
6.3850,946.2890625,-40.52734375,-261.71875
6.3900,950.1953125,-34.1796875,-264.6484375
6.3950,955.5664063,-43.9453125,-281.25
6.4000,946.2890625,-62.5,-270.0195313
6.4050,953.125,-79.1015625,-277.8320313
6.4100,957.5195313,-98.6328125,-283.203125
6.4150,952.1484375,-111.8164063,-285.6445313
6.4200,958.984375,-104.9804688,-280.2734375
6.4250,964.3554688,-107.9101563,-280.7617188
6.4300,971.6796875,-91.30859375,-276.3671875
6.4350,968.75,-94.7265625,-291.5039063
6.4400,963.3789063,-93.26171875,-285.6445313
6.4450,954.5898438,-82.03125,-291.5039063
6.4500,950.1953125,-74.21875,-301.2695313
6.4550,939.453125,-76.66015625,-302.734375
6.4600,940.9179688,-64.453125,-302.2460938
6.4650,932.6171875,-66.89453125,-290.5273438
6.4700,931.640625,-63.96484375,-294.4335938
6.4750,941.8945313,-64.94140625,-303.2226563
6.4800,938.9648438,-67.87109375,-301.7578125
6.4850,949.7070313,-73.2421875,-313.4765625
6.4900,937.5,-83.0078125,-309.5703125
6.4950,940.9179688,-90.33203125,-301.2695313
6.5000,945.8007813,-94.23828125,-292.4804688
6.5050,946.7773438,-101.0742188,-288.0859375
6.5100,953.125,-89.84375,-276.3671875
6.5150,954.1015625,-91.30859375,-271.484375
6.5200,960.4492188,-74.70703125,-271.9726563
6.5250,956.5429688,-80.56640625,-276.8554688
6.5300,953.125,-75.1953125,-276.8554688
6.5350,954.1015625,-75.1953125,-275.390625
6.5400,949.7070313,-76.171875,-274.9023438
6.5450,953.125,-76.171875,-278.8085938
6.5500,951.6601563,-79.58984375,-297.8515625
6.5550,955.5664063,-71.77734375,-276.8554688
6.5600,956.5429688,-67.87109375,-285.15625
6.5650,959.4726563,-78.125,-293.9453125
6.5700,959.4726563,-77.1484375,-284.6679688
6.5750,961.9140625,-83.0078125,-287.109375
6.5800,967.2851563,-88.8671875,-268.5546875
6.5850,969.2382813,-87.40234375,-271.9726563
6.5900,979.9804688,-80.56640625,-262.2070313
6.5950,984.375,-78.125,-255.3710938
6.6000,969.7265625,-87.890625,-261.2304688
6.6050,974.1210938,-89.35546875,-275.8789063
6.6100,965.8203125,-97.65625,-268.5546875
6.6150,970.2148438,-103.515625,-268.0664063
6.6200,962.890625,-90.8203125,-279.296875
6.6250,964.84375,-84.9609375,-265.625
6.6300,957.03125,-77.63671875,-273.4375
6.6350,962.4023438,-71.77734375,-269.0429688
6.6400,959.4726563,-66.89453125,-272.4609375
6.6450,953.125,-66.40625,-283.203125
6.6500,945.3125,-62.01171875,-282.7148438
6.6550,942.3828125,-62.98828125,-287.109375
6.6600,938.9648438,-65.91796875,-291.9921875
6.6650,937.5,-69.3359375,-296.3867188
6.6700,944.8242188,-68.359375,-285.6445313
6.6750,951.171875,-70.80078125,-293.9453125
6.6800,953.6132813,-68.84765625,-285.6445313
6.6850,953.125,-77.63671875,-284.1796875
6.6900,954.1015625,-80.078125,-280.7617188
6.6950,948.7304688,-87.40234375,-285.15625
6.7000,956.0546875,-74.70703125,-295.4101563
6.7050,950.6835938,-77.1484375,-278.3203125
6.7100,948.2421875,-75.68359375,-276.8554688
6.7150,955.078125,-73.73046875,-283.203125
6.7200,958.984375,-67.3828125,-278.3203125
6.7250,954.5898438,-73.2421875,-282.2265625
6.7300,954.5898438,-81.54296875,-274.9023438
6.7350,970.703125,-71.77734375,-260.2539063
6.7400,972.1679688,-66.89453125,-266.1132813
6.7450,979.0039063,-62.98828125,-262.2070313
6.7500,976.5625,-62.5,-261.2304688
6.7550,976.0742188,-63.4765625,-275.8789063
6.7600,966.796875,-69.3359375,-270.9960938
6.7650,955.078125,-75.68359375,-274.4140625
6.7700,963.8671875,-71.77734375,-270.5078125
6.7750,968.2617188,-72.75390625,-277.8320313
6.7800,968.75,-66.89453125,-265.625
6.7850,963.8671875,-68.84765625,-281.7382813
6.7900,959.9609375,-62.5,-286.1328125
6.7950,950.1953125,-72.265625,-293.4570313
6.8000,950.1953125,-70.80078125,-297.8515625
6.8050,946.2890625,-67.87109375,-291.9921875
6.8100,942.8710938,-65.4296875,-297.3632813
6.8150,951.171875,-54.19921875,-305.1757813
6.8200,952.6367188,-52.734375,-286.1328125
6.8250,947.7539063,-62.5,-302.2460938
6.8300,958.984375,-59.08203125,-286.1328125
6.8350,964.3554688,-54.6875,-296.875
6.8400,957.03125,-66.40625,-272.9492188
6.8450,966.796875,-64.453125,-282.7148438
6.8500,970.2148438,-65.91796875,-268.5546875
6.8550,978.0273438,-64.453125,-267.0898438
6.8600,974.609375,-62.98828125,-255.859375
6.8650,968.2617188,-60.05859375,-252.9296875
6.8700,967.2851563,-63.4765625,-260.2539063
6.8750,973.1445313,-55.17578125,-256.8359375
6.8800,968.75,-50.29296875,-268.0664063
6.8850,975.0976563,-44.921875,-247.0703125
6.8900,972.65625,-28.3203125,-257.8125
6.8950,962.4023438,-32.2265625,-264.1601563
6.9000,957.5195313,-40.52734375,-258.7890625
6.9050,974.1210938,-39.0625,-276.8554688
6.9100,977.0507813,-50.78125,-278.3203125
6.9150,977.0507813,-59.5703125,-281.25
6.9200,981.4453125,-47.8515625,-275.8789063
6.9250,987.7929688,-56.15234375,-267.0898438
6.9300,976.0742188,-68.359375,-270.5078125
6.9350,988.28125,-68.84765625,-265.625
6.9400,970.2148438,-84.9609375,-270.5078125
6.9450,976.0742188,-74.21875,-272.4609375
6.9500,965.8203125,-64.94140625,-277.8320313
6.9550,963.3789063,-56.640625,-271.9726563
6.9600,957.5195313,-46.38671875,-268.0664063
6.9650,956.0546875,-37.109375,-281.25
6.9700,953.125,-38.0859375,-283.203125
6.9750,955.078125,-37.59765625,-306.1523438
6.9800,944.8242188,-42.48046875,-294.921875
6.9850,942.8710938,-47.8515625,-315.9179688
6.9900,939.9414063,-48.33984375,-304.6875
6.9950,935.546875,-61.5234375,-304.1992188
7.0000,938.4765625,-76.66015625,-306.1523438
7.0050,941.8945313,-86.42578125,-301.2695313
7.0100,948.2421875,-86.42578125,-294.921875
7.0150,948.2421875,-84.47265625,-285.6445313
7.0200,955.5664063,-65.4296875,-293.4570313
7.0250,955.078125,-59.5703125,-285.6445313
7.0300,948.7304688,-48.33984375,-296.875
7.0350,947.7539063,-39.0625,-291.9921875
7.0400,945.3125,-32.71484375,-296.875
7.0450,951.171875,-33.203125,-292.96875
7.0500,948.2421875,-29.78515625,-287.5976563
7.0550,951.171875,-35.64453125,-288.5742188
7.0600,954.1015625,-42.48046875,-279.7851563
7.0650,953.125,-58.59375,-292.4804688
7.0700,960.9375,-67.87109375,-297.3632813
7.0750,974.1210938,-72.75390625,-295.8984375
7.0800,973.6328125,-77.63671875,-277.8320313
7.0850,979.0039063,-69.82421875,-281.7382813
7.0900,963.3789063,-75.1953125,-289.5507813
7.0950,957.03125,-73.73046875,-295.4101563
7.1000,949.21875,-67.3828125,-291.9921875
7.1050,945.8007813,-68.359375,-298.828125
7.1100,944.3359375,-65.91796875,-306.640625
7.1150,944.3359375,-63.96484375,-310.0585938
7.1200,944.8242188,-52.734375,-320.3125
7.1250,948.7304688,-43.9453125,-306.1523438
7.1300,951.171875,-51.7578125,-300.78125
7.1350,949.7070313,-62.5,-305.6640625
7.1400,951.6601563,-67.87109375,-311.5234375
7.1450,949.21875,-72.265625,-319.3359375
7.1500,953.125,-71.2890625,-301.7578125
7.1550,958.0078125,-76.171875,-298.3398438
7.1600,962.890625,-83.0078125,-300.78125
7.1650,965.3320313,-84.9609375,-293.9453125
7.1700,970.2148438,-77.63671875,-286.1328125
7.1750,973.1445313,-76.66015625,-281.25
7.1800,981.4453125,-68.84765625,-266.1132813
7.1850,980.46875,-61.5234375,-264.6484375
7.1900,976.5625,-55.17578125,-267.578125
7.1950,978.515625,-54.19921875,-260.7421875
7.2000,972.65625,-55.6640625,-260.2539063
7.2050,968.75,-59.5703125,-264.1601563
7.2100,964.3554688,-63.4765625,-261.71875
7.2150,965.3320313,-68.359375,-266.1132813
7.2200,957.03125,-69.3359375,-266.1132813
7.2250,950.6835938,-67.3828125,-271.9726563
7.2300,955.078125,-61.5234375,-268.5546875
7.2350,950.1953125,-68.84765625,-272.4609375
7.2400,952.1484375,-66.40625,-280.2734375
7.2450,954.5898438,-71.2890625,-289.5507813
7.2500,961.9140625,-63.96484375,-261.2304688
7.2550,964.3554688,-61.03515625,-275.390625
7.2600,977.5390625,-45.8984375,-278.3203125
7.2650,972.65625,-52.24609375,-283.203125
7.2700,965.3320313,-52.24609375,-268.0664063
7.2750,952.1484375,-59.5703125,-291.9921875
7.2800,948.2421875,-49.31640625,-296.3867188
7.2850,933.1054688,-51.7578125,-296.3867188
7.2900,916.015625,-59.5703125,-322.7539063
7.2950,917.4804688,-66.40625,-305.1757813
7.3000,908.6914063,-63.96484375,-324.7070313
7.3050,914.5507813,-52.24609375,-326.6601563
7.3100,915.0390625,-56.640625,-315.9179688
7.3150,931.1523438,-51.26953125,-324.21875
7.3200,940.9179688,-52.24609375,-310.0585938
7.3250,939.9414063,-65.4296875,-309.0820313
7.3300,948.2421875,-75.1953125,-289.5507813
7.3350,963.3789063,-70.80078125,-284.1796875
7.3400,973.1445313,-72.75390625,-286.1328125
7.3450,985.3515625,-73.2421875,-262.2070313
7.3500,997.0703125,-64.94140625,-251.953125
7.3550,1000,-62.01171875,-249.5117188
7.3600,999.5117188,-63.4765625,-242.6757813
7.3650,1012.695313,-53.22265625,-246.09375
7.3700,1004.394531,-65.91796875,-221.1914063
7.3750,1011.230469,-62.5,-223.1445313
7.3800,1001.464844,-62.5,-219.7265625
7.3850,1001.464844,-57.6171875,-231.9335938
7.3900,992.6757813,-63.4765625,-221.6796875
7.3950,987.3046875,-65.4296875,-245.1171875
7.4000,976.5625,-62.98828125,-248.5351563
7.4050,955.5664063,-75.68359375,-268.5546875
7.4100,949.21875,-76.66015625,-265.625
7.4150,943.8476563,-74.21875,-283.203125
7.4200,931.640625,-73.73046875,-295.4101563
7.4250,930.6640625,-71.2890625,-290.0390625
7.4300,930.6640625,-67.3828125,-294.4335938
7.4350,928.7109375,-69.82421875,-323.7304688
7.4400,922.8515625,-61.03515625,-314.453125
7.4450,922.8515625,-66.40625,-322.265625
7.4500,920.4101563,-60.546875,-340.8203125
7.4550,915.0390625,-62.5,-332.5195313
7.4600,912.5976563,-54.6875,-347.65625
7.4650,920.4101563,-47.8515625,-338.8671875
7.4700,922.8515625,-46.38671875,-333.984375
7.4750,927.734375,-46.875,-344.7265625
7.4800,937.5,-41.015625,-331.0546875
7.4850,945.8007813,-50.29296875,-327.1484375
7.4900,952.1484375,-48.33984375,-325.6835938
7.4950,960.4492188,-68.84765625,-316.8945313
7.5000,966.796875,-72.75390625,-302.734375
7.5050,971.6796875,-80.078125,-297.8515625
7.5100,972.65625,-89.84375,-290.0390625
7.5150,975.5859375,-89.84375,-277.34375
7.5200,978.515625,-79.1015625,-271.9726563
7.5250,981.9335938,-76.171875,-269.0429688
7.5300,979.0039063,-64.94140625,-261.71875
7.5350,979.4921875,-54.19921875,-254.8828125
7.5400,967.7734375,-50.29296875,-264.1601563
7.5450,965.3320313,-48.33984375,-259.2773438
7.5500,957.5195313,-48.828125,-246.09375
7.5550,960.4492188,-41.50390625,-272.4609375
7.5600,958.0078125,-47.36328125,-253.90625
7.5650,951.6601563,-53.22265625,-263.671875
7.5700,953.125,-61.03515625,-277.34375
7.5750,947.265625,-67.3828125,-272.9492188
7.5800,949.7070313,-69.82421875,-280.2734375
7.5850,951.6601563,-67.3828125,-287.5976563
7.5900,955.5664063,-73.2421875,-281.25
7.5950,962.4023438,-58.59375,-281.7382813
7.6000,965.3320313,-47.8515625,-286.1328125
7.6050,957.5195313,-41.50390625,-258.3007813
7.6100,968.75,-33.69140625,-248.046875
7.6150,985.8398438,-31.73828125,-243.1640625
7.6200,993.1640625,-29.78515625,-236.8164063
7.6250,1003.90625,-25.390625,-240.7226563
7.6300,1009.765625,-30.76171875,-239.7460938
7.6350,1007.324219,-48.828125,-238.28125
7.6400,1010.253906,-62.98828125,-235.3515625
7.6450,1006.347656,-81.0546875,-245.6054688
7.6500,1003.417969,-95.703125,-253.90625
7.6550,998.5351563,-108.3984375,-258.3007813
7.6600,1002.441406,-105.46875,-250
7.6650,996.5820313,-106.9335938,-236.8164063
7.6700,1008.300781,-95.21484375,-230.9570313
7.6750,1011.71875,-83.49609375,-215.8203125
7.6800,1012.695313,-59.5703125,-181.640625
7.6850,1008.300781,-47.8515625,-179.6875
7.6900,1002.929688,-37.109375,-178.2226563
7.6950,996.5820313,-24.4140625,-181.1523438
7.7000,988.7695313,-13.18359375,-179.6875
7.7050,972.1679688,-21.97265625,-191.40625
7.7100,973.6328125,-29.296875,-207.5195313
7.7150,983.3984375,-44.921875,-226.5625
7.7200,984.8632813,-64.453125,-249.5117188
7.7250,980.9570313,-87.890625,-261.2304688
7.7300,976.0742188,-90.33203125,-272.9492188
7.7350,958.4960938,-94.7265625,-282.7148438
7.7400,941.40625,-88.37890625,-291.5039063
7.7450,949.7070313,-66.40625,-268.5546875
7.7500,945.3125,-37.109375,-254.8828125
7.7550,957.5195313,-6.8359375,-246.5820313
7.7600,964.3554688,20.01953125,-226.0742188
7.7650,976.0742188,41.9921875,-212.890625
7.7700,977.5390625,61.5234375,-206.0546875
7.7750,991.6992188,76.171875,-205.078125
7.7800,980.46875,67.3828125,-202.6367188
7.7850,972.1679688,42.48046875,-176.2695313
7.7900,982.421875,27.34375,-169.921875
7.7950,993.1640625,0,-174.3164063
7.8000,998.5351563,-22.4609375,-146.484375
7.8050,994.6289063,-53.7109375,-187.9882813
7.8100,994.6289063,-75.1953125,-201.6601563
7.8150,981.4453125,-95.703125,-215.3320313
7.8200,969.7265625,-105.46875,-246.5820313
7.8250,964.84375,-107.9101563,-261.71875
7.8300,955.5664063,-102.5390625,-267.0898438
7.8350,959.9609375,-98.6328125,-294.4335938
7.8400,950.6835938,-85.9375,-292.4804688
7.8450,944.3359375,-61.5234375,-298.3398438
7.8500,934.5703125,-45.8984375,-296.3867188
7.8550,931.640625,-26.3671875,-289.5507813
7.8600,933.59375,-18.06640625,-290.0390625
7.8650,939.9414063,-3.41796875,-286.1328125
7.8700,925.2929688,-6.34765625,-276.8554688
7.8750,933.59375,0,-287.5976563
7.8800,929.6875,-7.8125,-281.25
7.8850,932.1289063,-10.25390625,-261.2304688
7.8900,940.4296875,-17.578125,-253.90625
7.8950,951.171875,-30.76171875,-254.3945313
7.9000,957.5195313,-48.828125,-254.8828125
7.9050,957.5195313,-68.84765625,-274.4140625
7.9100,958.0078125,-81.54296875,-265.1367188
7.9150,966.796875,-90.8203125,-262.2070313
7.9200,962.4023438,-91.796875,-254.8828125
7.9250,967.7734375,-80.078125,-246.09375
7.9300,973.1445313,-58.10546875,-242.1875
7.9350,979.9804688,-48.33984375,-250
7.9400,978.515625,-36.62109375,-237.7929688
7.9450,974.1210938,-37.59765625,-236.328125
7.9500,964.3554688,-26.3671875,-237.7929688
7.9550,967.2851563,-17.578125,-235.3515625
7.9600,959.9609375,-25.87890625,-213.8671875
7.9650,958.4960938,-29.296875,-238.28125
7.9700,963.8671875,-26.85546875,-229.0039063
7.9750,964.84375,-29.296875,-234.375
7.9800,967.2851563,-17.08984375,-236.8164063
7.9850,975.5859375,-20.99609375,-255.3710938
7.9900,972.1679688,-41.50390625,-242.1875
7.9950,974.1210938,-52.24609375,-247.5585938
8.0000,979.0039063,-56.15234375,-241.6992188
8.0050,979.0039063,-62.98828125,-235.8398438
8.0100,975.0976563,-75.68359375,-263.1835938
8.0150,984.375,-72.265625,-253.4179688
8.0200,978.0273438,-74.21875,-269.0429688
8.0250,977.0507813,-70.3125,-258.7890625
8.0300,979.9804688,-63.96484375,-271.484375
8.0350,980.9570313,-51.7578125,-273.4375
8.0400,966.796875,-53.22265625,-279.296875
8.0450,963.8671875,-45.8984375,-265.625
8.0500,962.890625,-40.0390625,-269.0429688
8.0550,960.4492188,-33.69140625,-265.1367188
8.0600,954.5898438,-38.57421875,-251.4648438
8.0650,963.3789063,-31.73828125,-261.71875
8.0700,964.3554688,-28.3203125,-259.2773438
8.0750,963.3789063,-48.33984375,-259.765625
8.0800,960.9375,-63.96484375,-260.2539063
8.0850,961.4257813,-61.03515625,-265.625
8.0900,961.4257813,-71.77734375,-254.3945313
8.0950,966.796875,-68.359375,-256.8359375
8.1000,966.796875,-65.91796875,-259.2773438
8.1050,960.4492188,-68.359375,-254.8828125
8.1100,949.21875,-62.01171875,-266.1132813
8.1150,958.984375,-54.6875,-252.9296875
8.1200,961.9140625,-50.78125,-251.953125
8.1250,971.1914063,-44.43359375,-252.9296875
8.1300,977.0507813,-35.64453125,-260.2539063
8.1350,967.7734375,-47.8515625,-264.1601563
8.1400,967.7734375,-48.828125,-233.3984375
8.1450,971.6796875,-52.734375,-242.1875
8.1500,983.3984375,-44.921875,-243.6523438
8.1550,977.0507813,-54.19921875,-252.4414063
8.1600,983.3984375,-38.0859375,-248.5351563
8.1650,978.515625,-34.1796875,-250.4882813
8.1700,973.6328125,-42.48046875,-243.6523438
8.1750,972.1679688,-62.01171875,-235.8398438
8.1800,971.1914063,-83.0078125,-246.5820313
8.1850,972.1679688,-87.890625,-237.7929688
8.1900,970.2148438,-96.6796875,-246.09375
8.1950,979.0039063,-90.33203125,-230.46875
8.2000,970.2148438,-84.47265625,-239.2578125
8.2050,972.65625,-69.82421875,-231.9335938
8.2100,972.65625,-53.7109375,-238.7695313
8.2150,966.796875,-48.33984375,-245.1171875
8.2200,967.7734375,-38.0859375,-246.09375
8.2250,964.3554688,-21.484375,-241.6992188
8.2300,958.4960938,-20.99609375,-241.6992188
8.2350,963.3789063,-26.3671875,-255.859375
8.2400,966.3085938,-40.0390625,-258.7890625
8.2450,972.1679688,-40.52734375,-262.6953125
8.2500,973.1445313,-55.17578125,-240.234375
8.2550,969.7265625,-77.1484375,-246.5820313
8.2600,973.6328125,-86.42578125,-237.7929688
8.2650,984.375,-90.33203125,-235.8398438
8.2700,988.7695313,-85.44921875,-239.2578125
8.2750,984.8632813,-91.30859375,-232.9101563
8.2800,986.328125,-76.66015625,-250.9765625
8.2850,978.0273438,-79.58984375,-254.8828125
8.2900,971.6796875,-81.54296875,-246.5820313
8.2950,964.3554688,-82.03125,-253.90625
8.3000,962.4023438,-70.3125,-252.9296875
8.3050,962.4023438,-56.640625,-250.9765625
8.3100,960.4492188,-51.7578125,-235.8398438
8.3150,967.7734375,-49.8046875,-252.9296875
8.3200,964.84375,-37.59765625,-234.8632813
8.3250,952.6367188,-47.8515625,-237.7929688
8.3300,958.984375,-59.08203125,-244.140625
8.3350,965.8203125,-74.21875,-257.3242188
8.3400,971.1914063,-89.84375,-257.8125
8.3450,981.4453125,-92.28515625,-258.3007813
8.3500,976.5625,-85.9375,-251.953125
8.3550,970.703125,-94.23828125,-241.6992188
8.3600,971.1914063,-80.56640625,-239.2578125
8.3650,965.8203125,-82.51953125,-239.7460938
8.3700,974.609375,-82.03125,-226.5625
8.3750,978.0273438,-89.84375,-227.0507813
8.3800,973.1445313,-91.30859375,-231.4453125
8.3850,969.7265625,-82.51953125,-245.6054688
8.3900,959.9609375,-86.42578125,-232.9101563
8.3950,960.9375,-96.6796875,-241.2109375
8.4000,969.2382813,-98.14453125,-235.3515625
8.4050,980.9570313,-100.5859375,-250.4882813
8.4100,981.9335938,-100.5859375,-254.8828125
8.4150,981.9335938,-104.0039063,-268.5546875
8.4200,965.8203125,-106.9335938,-262.6953125
8.4250,960.9375,-103.0273438,-242.1875
8.4300,967.7734375,-91.30859375,-251.4648438
8.4350,966.3085938,-103.0273438,-240.7226563
8.4400,967.7734375,-109.8632813,-242.6757813
8.4450,966.796875,-98.14453125,-261.71875
8.4500,960.4492188,-98.14453125,-256.8359375
8.4550,955.5664063,-103.515625,-257.8125
8.4600,957.03125,-110.3515625,-243.1640625
8.4650,943.8476563,-111.8164063,-260.2539063
8.4700,947.7539063,-102.5390625,-243.6523438
8.4750,950.1953125,-104.9804688,-234.8632813
8.4800,957.5195313,-117.1875,-215.3320313
8.4850,958.0078125,-144.0429688,-228.0273438
8.4900,967.2851563,-159.6679688,-220.2148438
8.4950,978.515625,-154.296875,-231.9335938
8.5000,977.0507813,-151.3671875,-242.1875
8.5050,976.0742188,-143.0664063,-253.90625
8.5100,965.3320313,-139.1601563,-266.1132813
8.5150,963.3789063,-143.5546875,-255.859375
8.5200,965.3320313,-150.8789063,-266.1132813
8.5250,958.4960938,-160.6445313,-282.2265625
8.5300,944.3359375,-164.5507813,-268.5546875
8.5350,947.265625,-154.296875,-284.6679688
8.5400,948.7304688,-138.671875,-254.3945313
8.5450,937.5,-125.9765625,-265.625
8.5500,933.59375,-99.12109375,-244.6289063
8.5550,932.6171875,-100.0976563,-256.8359375
8.5600,931.640625,-104.9804688,-265.625
8.5650,939.453125,-120.6054688,-262.6953125
8.5700,938.9648438,-137.2070313,-250.9765625
8.5750,946.2890625,-142.578125,-261.71875
8.5800,961.4257813,-131.3476563,-253.4179688
8.5850,967.7734375,-134.2773438,-250
8.5900,977.0507813,-140.625,-258.3007813
8.5950,978.0273438,-155.2734375,-270.0195313
8.6000,972.65625,-170.4101563,-282.2265625
8.6050,973.6328125,-171.3867188,-322.265625
8.6100,971.1914063,-196.2890625,-310.546875
8.6150,969.2382813,-203.6132813,-295.8984375
8.6200,962.4023438,-186.5234375,-290.5273438
8.6250,963.8671875,-174.3164063,-302.734375
8.6300,955.5664063,-161.1328125,-294.4335938
8.6350,957.5195313,-162.5976563,-293.9453125
8.6400,949.21875,-161.1328125,-284.6679688
8.6450,941.40625,-151.8554688,-237.3046875
8.6500,936.5234375,-135.7421875,-200.6835938
8.6550,937.0117188,-131.3476563,-179.1992188
8.6600,943.8476563,-137.6953125,-175.2929688
8.6650,952.1484375,-161.6210938,-173.3398438
8.6700,962.890625,-179.1992188,-191.40625
8.6750,980.46875,-192.3828125,-206.5429688
8.6800,973.1445313,-216.3085938,-215.3320313
8.6850,986.328125,-229.9804688,-248.5351563
8.6900,979.4921875,-254.8828125,-243.1640625
8.6950,976.5625,-264.6484375,-264.6484375
8.7000,969.7265625,-270.0195313,-261.71875
8.7050,966.796875,-263.1835938,-219.2382813
8.7100,959.4726563,-219.7265625,-187.5
8.7150,949.21875,-189.453125,-177.2460938
8.7200,953.125,-147.4609375,-181.1523438
8.7250,958.0078125,-134.765625,-208.0078125
8.7300,955.5664063,-129.8828125,-215.8203125
8.7350,958.984375,-126.953125,-250
8.7400,957.03125,-129.3945313,-257.3242188
8.7450,966.3085938,-145.9960938,-281.7382813
8.7500,973.1445313,-162.109375,-313.9648438
8.7550,971.1914063,-187.0117188,-285.15625
8.7600,958.0078125,-194.3359375,-283.6914063
8.7650,952.6367188,-198.7304688,-255.3710938
8.7700,934.0820313,-216.796875,-260.2539063
8.7750,924.8046875,-227.0507813,-241.6992188
8.7800,911.6210938,-242.1875,-260.7421875
8.7850,906.25,-247.5585938,-266.6015625
8.7900,910.15625,-247.0703125,-272.4609375
8.7950,928.2226563,-252.4414063,-300.2929688
8.8000,927.734375,-262.6953125,-307.6171875
8.8050,911.6210938,-265.625,-318.8476563
8.8100,903.3203125,-239.2578125,-292.96875
8.8150,899.9023438,-232.9101563,-293.4570313
8.8200,887.6953125,-243.6523438,-271.9726563
8.8250,896.484375,-248.5351563,-271.484375
8.8300,905.2734375,-243.1640625,-276.3671875
8.8350,913.0859375,-238.7695313,-275.390625
8.8400,913.5742188,-238.28125,-280.7617188
8.8450,928.2226563,-232.9101563,-264.6484375
8.8500,912.5976563,-247.5585938,-261.2304688
8.8550,913.5742188,-252.4414063,-278.3203125
8.8600,901.8554688,-252.9296875,-275.8789063
8.8650,914.5507813,-248.5351563,-306.640625
8.8700,928.2226563,-263.671875,-317.3828125
8.8750,954.1015625,-289.5507813,-341.796875
8.8800,973.6328125,-300.78125,-361.8164063
8.8850,972.65625,-306.640625,-349.1210938
8.8900,960.9375,-297.3632813,-330.5664063
8.8950,935.0585938,-301.7578125,-306.640625
8.9000,913.5742188,-282.7148438,-278.3203125
8.9050,912.5976563,-255.859375,-274.4140625
8.9100,928.2226563,-225.0976563,-319.8242188
8.9150,935.546875,-206.0546875,-335.4492188
8.9200,928.2226563,-233.8867188,-354.0039063
8.9250,928.2226563,-228.0273438,-323.7304688
8.9300,895.9960938,-238.28125,-304.6875
8.9350,889.1601563,-233.3984375,-261.2304688
8.9400,879.3945313,-232.9101563,-251.4648438
8.9450,871.09375,-243.1640625,-259.2773438
8.9500,861.328125,-259.2773438,-262.2070313
8.9550,856.9335938,-289.0625,-260.7421875
8.9600,906.25,-293.9453125,-269.53125
8.9650,951.6601563,-303.7109375,-324.21875
8.9700,968.75,-323.2421875,-338.8671875
8.9750,972.1679688,-334.4726563,-355.9570313
8.9800,961.4257813,-335.4492188,-344.2382813
8.9850,939.9414063,-336.4257813,-333.4960938
8.9900,924.8046875,-320.3125,-325.1953125
8.9950,899.4140625,-313.9648438,-305.6640625
9.0000,877.9296875,-291.015625,-293.4570313
9.0050,874.5117188,-286.6210938,-304.1992188
9.0100,887.2070313,-288.0859375,-328.6132813
9.0150,911.6210938,-282.7148438,-343.2617188
9.0200,894.53125,-296.3867188,-326.6601563
9.0250,892.578125,-281.25,-328.125
9.0300,892.578125,-273.4375,-296.875
9.0350,904.296875,-277.34375,-317.3828125
9.0400,905.7617188,-274.9023438,-309.5703125
9.0450,904.7851563,-265.625,-320.8007813
9.0500,893.5546875,-272.9492188,-302.2460938
9.0550,902.34375,-292.4804688,-319.8242188
9.0600,915.5273438,-301.7578125,-316.40625
9.0650,927.2460938,-305.6640625,-330.5664063
9.0700,923.3398438,-320.8007813,-354.0039063
9.0750,931.640625,-324.21875,-356.4453125
9.0800,926.2695313,-330.5664063,-359.375
9.0850,909.1796875,-333.984375,-345.2148438
9.0900,905.2734375,-329.5898438,-300.2929688
9.0950,902.34375,-330.078125,-293.9453125
9.1000,912.5976563,-320.8007813,-312.5
9.1050,930.1757813,-317.3828125,-347.65625
9.1100,914.0625,-347.65625,-319.3359375
9.1150,911.6210938,-368.1640625,-297.8515625
9.1200,932.1289063,-363.7695313,-284.6679688
9.1250,970.703125,-346.1914063,-326.6601563
9.1300,975.5859375,-336.9140625,-345.703125
9.1350,941.8945313,-330.078125,-314.9414063
9.1400,895.5078125,-321.7773438,-253.90625
9.1450,852.0507813,-316.8945313,-240.234375
9.1500,841.3085938,-308.1054688,-231.9335938
9.1550,836.9140625,-317.3828125,-243.6523438
9.1600,823.7304688,-327.6367188,-247.5585938
9.1650,836.4257813,-339.3554688,-265.1367188
9.1700,860.8398438,-351.0742188,-287.5976563
9.1750,896.484375,-368.1640625,-314.9414063
9.1800,895.9960938,-389.6484375,-317.8710938
9.1850,849.609375,-402.34375,-283.6914063
9.1900,859.8632813,-363.7695313,-274.9023438
9.1950,857.9101563,-365.234375,-311.5234375
9.2000,848.1445313,-367.1875,-317.8710938
9.2050,843.2617188,-355.9570313,-328.6132813
9.2100,863.28125,-335.4492188,-358.8867188
9.2150,876.953125,-339.3554688,-395.5078125
9.2200,863.7695313,-347.65625,-419.4335938
9.2250,838.8671875,-335.9375,-375.9765625
9.2300,815.4296875,-322.7539063,-359.375
9.2350,808.59375,-315.4296875,-378.90625
9.2400,794.921875,-309.0820313,-394.53125
9.2450,790.5273438,-313.9648438,-377.9296875
9.2500,785.6445313,-329.5898438,-356.4453125
9.2550,789.5507813,-337.4023438,-367.6757813
9.2600,793.4570313,-346.6796875,-358.8867188
9.2650,816.40625,-348.1445313,-351.5625
9.2700,838.8671875,-357.9101563,-354.4921875
9.2750,835.9375,-386.71875,-368.1640625
9.2800,837.890625,-375,-372.0703125
9.2850,870.6054688,-383.3007813,-411.1328125
9.2900,878.90625,-402.8320313,-452.1484375
9.2950,876.953125,-381.8359375,-428.2226563
9.3000,841.3085938,-375,-386.71875
9.3050,842.7734375,-364.7460938,-387.2070313
9.3100,843.75,-366.6992188,-390.1367188
9.3150,832.03125,-377.9296875,-358.3984375
9.3200,811.5234375,-384.765625,-333.984375
9.3250,822.7539063,-388.671875,-337.4023438
9.3300,864.7460938,-382.3242188,-372.0703125
9.3350,895.9960938,-411.1328125,-409.6679688
9.3400,885.2539063,-416.5039063,-426.2695313
9.3450,855.9570313,-408.203125,-416.5039063
9.3500,841.796875,-405.2734375,-398.9257813
9.3550,864.2578125,-387.2070313,-380.859375
9.3600,860.3515625,-384.765625,-386.71875
9.3650,831.5429688,-396.484375,-397.4609375
9.3700,819.8242188,-388.671875,-380.3710938
9.3750,833.984375,-392.578125,-384.2773438
9.3800,846.1914063,-381.3476563,-409.1796875
9.3850,853.515625,-368.6523438,-420.4101563
9.3900,837.4023438,-368.6523438,-391.6015625
9.3950,834.9609375,-357.9101563,-364.7460938
9.4000,824.7070313,-353.515625,-381.3476563
9.4050,847.65625,-352.0507813,-405.2734375
9.4100,851.0742188,-362.7929688,-416.9921875
9.4150,850.0976563,-368.1640625,-403.8085938
9.4200,835.9375,-364.2578125,-395.5078125
9.4250,832.5195313,-370.6054688,-410.15625
9.4300,832.03125,-374.5117188,-405.2734375
9.4350,826.6601563,-382.8125,-395.0195313
9.4400,828.125,-390.1367188,-391.6015625
9.4450,826.6601563,-394.0429688,-420.4101563
9.4500,832.03125,-392.578125,-420.8984375
9.4550,831.5429688,-392.0898438,-429.1992188
9.4600,831.0546875,-375,-414.0625
9.4650,832.03125,-367.6757813,-403.3203125
9.4700,822.7539063,-369.6289063,-401.8554688
9.4750,804.1992188,-387.6953125,-399.4140625
9.4800,803.2226563,-382.8125,-410.15625
9.4850,796.3867188,-387.2070313,-411.6210938
9.4900,791.9921875,-390.1367188,-384.765625
9.4950,814.453125,-391.1132813,-402.34375
9.5000,823.2421875,-385.7421875,-417.96875
9.5050,807.6171875,-397.9492188,-424.3164063
9.5100,804.1992188,-395.9960938,-432.6171875
9.5150,803.2226563,-384.2773438,-421.3867188
9.5200,797.3632813,-375.4882813,-411.1328125
9.5250,805.6640625,-372.5585938,-415.5273438
9.5300,815.9179688,-387.2070313,-433.59375
9.5350,813.4765625,-415.5273438,-422.3632813
9.5400,825.1953125,-421.3867188,-411.1328125
9.5450,816.8945313,-430.1757813,-453.125
9.5500,806.640625,-421.3867188,-450.1953125
9.5550,812.5,-402.34375,-435.546875
9.5600,817.3828125,-390.1367188,-447.265625
9.5650,784.1796875,-392.0898438,-440.9179688
9.5700,773.9257813,-399.9023438,-418.9453125
9.5750,781.7382813,-405.2734375,-442.3828125
9.5800,781.25,-405.7617188,-460.9375
9.5850,783.203125,-415.0390625,-463.3789063
9.5900,787.5976563,-418.4570313,-454.5898438
9.5950,788.5742188,-417.96875,-452.1484375
9.6000,774.4140625,-416.9921875,-451.171875
9.6050,792.4804688,-406.25,-439.9414063
9.6100,797.3632813,-418.4570313,-458.4960938
9.6150,780.7617188,-424.3164063,-465.3320313
9.6200,773.9257813,-416.5039063,-437.9882813
9.6250,770.9960938,-403.3203125,-435.546875
9.6300,764.6484375,-397.4609375,-429.6875
9.6350,774.9023438,-406.25,-439.453125
9.6400,770.9960938,-415.5273438,-457.03125
9.6450,779.296875,-411.1328125,-471.1914063
9.6500,784.6679688,-405.2734375,-481.9335938
9.6550,767.0898438,-404.7851563,-463.3789063
9.6600,755.859375,-395.0195313,-447.7539063
9.6650,756.8359375,-392.578125,-433.59375
9.6700,756.3476563,-398.9257813,-453.125
9.6750,753.4179688,-418.9453125,-473.6328125
9.6800,756.3476563,-422.3632813,-474.1210938
9.6850,762.6953125,-424.8046875,-482.421875
9.6900,746.09375,-415.0390625,-477.5390625
9.6950,738.7695313,-401.8554688,-479.0039063
9.7000,726.5625,-400.390625,-460.9375
9.7050,714.84375,-414.5507813,-471.1914063
9.7100,721.1914063,-420.8984375,-469.7265625
9.7150,729.4921875,-425.78125,-464.3554688
9.7200,738.28125,-419.921875,-475.0976563
9.7250,743.6523438,-422.3632813,-488.28125
9.7300,744.6289063,-426.2695313,-502.4414063
9.7350,760.2539063,-419.4335938,-503.90625
9.7400,759.765625,-415.0390625,-512.6953125
9.7450,757.8125,-414.5507813,-485.8398438
9.7500,767.0898438,-408.6914063,-511.2304688
9.7550,751.953125,-402.34375,-507.8125
9.7600,738.7695313,-398.9257813,-477.0507813
9.7650,750.9765625,-398.4375,-489.7460938
9.7700,758.3007813,-397.4609375,-508.7890625
9.7750,753.4179688,-393.0664063,-498.5351563
9.7800,763.671875,-386.2304688,-486.8164063
9.7850,787.109375,-391.1132813,-490.234375
9.7900,795.4101563,-402.34375,-510.7421875
9.7950,784.6679688,-414.5507813,-503.90625
9.8000,776.8554688,-420.8984375,-509.765625
9.8050,798.828125,-409.6679688,-480.46875
9.8100,807.6171875,-412.5976563,-481.4453125
9.8150,810.0585938,-431.1523438,-496.09375
9.8200,812.9882813,-440.4296875,-478.0273438
9.8250,814.453125,-436.5234375,-502.4414063
9.8300,828.6132813,-420.4101563,-507.8125
9.8350,821.7773438,-430.6640625,-506.3476563
9.8400,813.4765625,-437.5,-498.046875
9.8450,804.1992188,-435.546875,-505.3710938
9.8500,799.8046875,-434.0820313,-518.0664063
9.8550,787.5976563,-427.734375,-518.5546875
9.8600,783.6914063,-409.6679688,-512.6953125
9.8650,780.2734375,-416.9921875,-522.4609375
9.8700,778.3203125,-427.734375,-520.5078125
9.8750,785.15625,-425.78125,-536.6210938
9.8800,778.3203125,-434.0820313,-511.71875
9.8850,775.8789063,-426.2695313,-511.71875
9.8900,766.6015625,-424.3164063,-512.2070313
9.8950,765.625,-443.359375,-515.1367188
9.9000,754.8828125,-445.8007813,-527.34375
9.9050,772.4609375,-440.9179688,-546.3867188
9.9100,767.578125,-428.2226563,-537.109375
9.9150,762.6953125,-416.9921875,-534.1796875
9.9200,759.2773438,-406.7382813,-548.3398438
9.9250,751.4648438,-411.6210938,-567.3828125
9.9300,747.5585938,-386.71875,-535.15625
9.9350,737.7929688,-389.6484375,-549.3164063
9.9400,744.6289063,-400.390625,-545.4101563
9.9450,754.3945313,-420.8984375,-542.96875
9.9500,761.2304688,-433.59375,-538.5742188
9.9550,762.6953125,-445.8007813,-534.6679688
9.9600,769.0429688,-452.1484375,-534.6679688
9.9650,766.6015625,-454.5898438,-528.8085938
9.9700,754.8828125,-441.40625,-530.7617188
9.9750,747.5585938,-435.546875,-515.625
9.9800,743.6523438,-428.2226563,-531.7382813
9.9850,741.6992188,-423.828125,-532.7148438
9.9900,732.421875,-422.3632813,-534.1796875
9.9950,731.4453125,-415.0390625,-527.34375
10.0000,735.3515625,-403.3203125,-534.6679688
10.0050,734.8632813,-397.9492188,-546.875
10.0100,729.9804688,-406.25,-537.109375
10.0150,735.3515625,-417.4804688,-566.8945313
10.0200,735.3515625,-416.015625,-563.9648438
10.0250,744.6289063,-413.5742188,-549.3164063
10.0300,732.9101563,-414.0625,-550.78125
10.0350,721.6796875,-424.8046875,-550.2929688
10.0400,725.0976563,-416.015625,-560.546875
10.0450,722.65625,-411.6210938,-526.8554688
10.0500,722.65625,-413.5742188,-536.1328125
10.0550,729.9804688,-414.5507813,-550.78125
10.0600,740.234375,-417.96875,-532.2265625
10.0650,736.8164063,-430.1757813,-541.015625
10.0700,729.4921875,-416.5039063,-529.7851563
10.0750,730.9570313,-417.96875,-530.7617188
10.0800,733.3984375,-402.8320313,-537.5976563
10.0850,739.2578125,-391.1132813,-542.96875
10.0900,721.1914063,-392.578125,-539.0625
10.0950,731.9335938,-389.1601563,-549.8046875
10.1000,735.8398438,-388.1835938,-541.015625
10.1050,737.3046875,-399.4140625,-551.7578125
10.1100,744.6289063,-400.8789063,-548.3398438
10.1150,745.1171875,-401.8554688,-536.6210938
10.1200,738.28125,-415.0390625,-542.4804688
10.1250,743.1640625,-425.78125,-531.7382813
10.1300,734.8632813,-437.9882813,-515.1367188
10.1350,740.234375,-441.8945313,-516.1132813
10.1400,739.7460938,-451.6601563,-512.6953125
10.1450,749.0234375,-453.125,-496.5820313
10.1500,744.6289063,-462.4023438,-492.1875
10.1550,750.9765625,-456.5429688,-506.3476563
10.1600,751.953125,-448.7304688,-520.9960938
10.1650,754.8828125,-442.8710938,-532.2265625
10.1700,748.046875,-436.5234375,-535.6445313
10.1750,756.3476563,-420.8984375,-533.6914063
10.1800,742.6757813,-417.96875,-549.3164063
10.1850,736.8164063,-400.390625,-551.7578125
10.1900,727.0507813,-390.625,-531.25
10.1950,725.5859375,-397.9492188,-540.0390625
10.2000,726.5625,-390.1367188,-548.828125
10.2050,725.5859375,-393.5546875,-547.3632813
10.2100,726.0742188,-393.0664063,-550.2929688
10.2150,716.796875,-406.7382813,-543.4570313
10.2200,725.5859375,-407.7148438,-531.7382813
10.2250,732.421875,-427.2460938,-550.2929688
10.2300,740.234375,-434.5703125,-525.390625
10.2350,745.6054688,-439.453125,-535.6445313
10.2400,736.328125,-435.546875,-527.34375
10.2450,741.2109375,-426.2695313,-520.5078125
10.2500,735.3515625,-415.0390625,-519.53125
10.2550,731.9335938,-405.7617188,-522.9492188
10.2600,729.0039063,-396.9726563,-532.7148438
10.2650,738.28125,-386.71875,-527.8320313
10.2700,735.3515625,-384.765625,-541.015625
10.2750,730.46875,-387.6953125,-542.96875
10.2800,734.375,-381.8359375,-533.6914063
10.2850,732.421875,-393.5546875,-536.6210938
10.2900,729.4921875,-401.3671875,-538.0859375
10.2950,727.5390625,-416.015625,-530.7617188
10.3000,723.1445313,-413.5742188,-529.7851563
10.3050,733.8867188,-407.7148438,-520.0195313
10.3100,732.9101563,-409.6679688,-528.8085938
10.3150,737.7929688,-416.9921875,-535.6445313
10.3200,736.328125,-417.96875,-534.1796875
10.3250,740.234375,-416.9921875,-546.3867188
10.3300,745.6054688,-408.203125,-533.6914063
10.3350,736.328125,-408.203125,-540.5273438
10.3400,740.7226563,-400.390625,-529.296875
10.3450,748.5351563,-396.9726563,-530.7617188
10.3500,733.8867188,-409.6679688,-528.8085938
10.3550,745.1171875,-400.390625,-531.7382813
10.3600,742.6757813,-406.7382813,-505.859375
10.3650,742.1875,-410.15625,-508.7890625
10.3700,740.234375,-404.7851563,-514.1601563
10.3750,737.7929688,-395.5078125,-521.484375
10.3800,735.8398438,-396.9726563,-504.8828125
10.3850,746.5820313,-403.8085938,-521.9726563
10.3900,752.4414063,-402.34375,-532.7148438
10.3950,753.4179688,-413.0859375,-528.8085938
10.4000,747.5585938,-407.2265625,-531.7382813
10.4050,740.234375,-398.9257813,-513.1835938
10.4100,748.046875,-390.1367188,-516.1132813
10.4150,734.375,-406.25,-513.1835938
10.4200,752.4414063,-390.625,-506.8359375
10.4250,747.5585938,-409.6679688,-520.0195313
10.4300,749.5117188,-408.6914063,-514.1601563
10.4350,752.9296875,-412.109375,-513.1835938
10.4400,746.09375,-412.5976563,-497.5585938
10.4450,747.0703125,-422.3632813,-498.046875
10.4500,754.3945313,-424.8046875,-489.2578125
10.4550,756.3476563,-428.7109375,-510.2539063
10.4600,752.4414063,-423.3398438,-501.953125
10.4650,750.4882813,-416.015625,-493.1640625
10.4700,750.4882813,-416.9921875,-501.4648438
10.4750,779.296875,-399.4140625,-520.5078125
10.4800,775.8789063,-404.7851563,-514.1601563
10.4850,776.8554688,-407.2265625,-524.9023438
10.4900,782.7148438,-389.6484375,-528.8085938
10.4950,780.2734375,-386.2304688,-523.9257813
10.5000,772.9492188,-388.1835938,-513.671875
10.5050,758.3007813,-397.4609375,-509.765625
10.5100,744.6289063,-400.390625,-502.4414063
10.5150,731.4453125,-415.0390625,-511.71875
10.5200,740.234375,-401.3671875,-504.3945313
10.5250,730.9570313,-413.5742188,-514.6484375
10.5300,738.28125,-404.7851563,-500.9765625
10.5350,742.6757813,-416.5039063,-510.7421875
10.5400,753.4179688,-410.15625,-500.9765625
10.5450,754.8828125,-407.2265625,-512.2070313
10.5500,747.5585938,-404.7851563,-508.3007813
10.5550,741.6992188,-398.9257813,-500.9765625
10.5600,736.8164063,-389.1601563,-498.5351563
10.5650,732.9101563,-388.1835938,-493.6523438
10.5700,738.7695313,-383.3007813,-486.328125
10.5750,738.28125,-391.6015625,-484.375
10.5800,740.234375,-397.9492188,-487.3046875
10.5850,752.9296875,-400.8789063,-488.7695313
10.5900,760.2539063,-405.2734375,-499.0234375
10.5950,771.9726563,-412.5976563,-511.2304688
10.6000,785.15625,-410.6445313,-492.6757813
10.6050,788.5742188,-409.6679688,-503.90625
10.6100,785.6445313,-404.7851563,-499.0234375
10.6150,788.0859375,-403.8085938,-494.6289063
10.6200,778.8085938,-391.1132813,-479.0039063
10.6250,773.9257813,-388.1835938,-480.9570313
10.6300,763.1835938,-381.8359375,-472.65625
10.6350,762.2070313,-382.3242188,-469.2382813
10.6400,769.53125,-386.2304688,-465.3320313
10.6450,782.7148438,-383.3007813,-479.4921875
10.6500,774.4140625,-404.296875,-464.84375
10.6550,786.6210938,-407.2265625,-468.2617188
10.6600,787.109375,-404.296875,-465.3320313
10.6650,800.78125,-402.34375,-480.46875
10.6700,805.1757813,-396.484375,-477.0507813
10.6750,799.8046875,-395.5078125,-466.796875
10.6800,804.1992188,-383.7890625,-476.5625
10.6850,798.828125,-382.8125,-484.8632813
10.6900,802.734375,-372.5585938,-480.46875
10.6950,805.6640625,-369.140625,-489.2578125
10.7000,804.6875,-371.5820313,-487.3046875
10.7050,796.875,-375.4882813,-481.9335938
10.7100,791.015625,-367.1875,-492.1875
10.7150,784.1796875,-376.953125,-472.1679688
10.7200,782.2265625,-376.4648438,-461.4257813
10.7250,780.7617188,-381.8359375,-464.3554688
10.7300,786.6210938,-374.0234375,-452.1484375
10.7350,789.0625,-375.9765625,-457.03125
10.7400,788.0859375,-372.5585938,-470.703125
10.7450,791.9921875,-380.859375,-459.4726563
10.7500,808.59375,-363.28125,-469.7265625
10.7550,810.0585938,-370.1171875,-471.1914063
10.7600,806.1523438,-369.6289063,-477.5390625
10.7650,805.6640625,-377.4414063,-481.4453125
10.7700,814.453125,-379.8828125,-488.7695313
10.7750,820.8007813,-375.4882813,-478.515625
10.7800,809.5703125,-378.90625,-452.1484375
10.7850,811.5234375,-377.4414063,-441.8945313
10.7900,798.828125,-374.0234375,-445.8007813
10.7950,803.2226563,-370.6054688,-454.5898438
10.8000,803.2226563,-366.2109375,-459.9609375
10.8050,803.7109375,-365.234375,-470.703125
10.8100,808.1054688,-365.234375,-458.0078125
10.8150,799.3164063,-370.6054688,-451.6601563
10.8200,808.1054688,-367.6757813,-460.4492188
10.8250,819.3359375,-369.6289063,-469.2382813
10.8300,805.1757813,-390.1367188,-458.4960938
10.8350,816.8945313,-387.2070313,-469.2382813
10.8400,816.40625,-378.90625,-461.9140625
10.8450,815.9179688,-373.046875,-471.1914063
10.8500,804.1992188,-368.1640625,-462.4023438
10.8550,811.0351563,-357.421875,-450.1953125
10.8600,804.1992188,-354.0039063,-458.4960938
10.8650,814.453125,-338.3789063,-449.7070313
10.8700,811.5234375,-343.2617188,-467.7734375
10.8750,812.0117188,-344.7265625,-471.6796875
10.8800,812.5,-343.75,-467.7734375
10.8850,821.7773438,-345.2148438,-465.8203125
10.8900,818.359375,-356.4453125,-458.984375
10.8950,822.7539063,-362.7929688,-444.3359375
10.9000,820.3125,-367.6757813,-457.03125
10.9050,808.1054688,-375.4882813,-443.359375
10.9100,817.8710938,-381.8359375,-433.1054688
10.9150,826.171875,-383.3007813,-444.3359375
10.9200,827.1484375,-371.5820313,-435.546875
10.9250,825.1953125,-361.328125,-429.6875
10.9300,819.8242188,-355.9570313,-417.96875
10.9350,818.359375,-352.0507813,-448.7304688
10.9400,821.2890625,-338.3789063,-449.21875
10.9450,815.9179688,-345.2148438,-440.9179688
10.9500,825.1953125,-337.890625,-436.0351563
10.9550,827.6367188,-334.9609375,-449.21875
10.9600,822.7539063,-342.2851563,-433.1054688
10.9650,824.21875,-349.1210938,-436.0351563
10.9700,822.265625,-353.515625,-436.0351563
10.9750,828.6132813,-360.8398438,-421.3867188
10.9800,833.0078125,-360.3515625,-409.1796875
10.9850,838.3789063,-358.3984375,-412.5976563
10.9900,841.3085938,-354.9804688,-420.8984375
10.9950,837.4023438,-362.7929688,-397.9492188
11.0000,834.9609375,-355.9570313,-402.8320313
11.0050,836.9140625,-364.2578125,-396.9726563
11.0100,856.4453125,-351.0742188,-408.203125
11.0150,867.1875,-363.28125,-438.9648438
11.0200,879.8828125,-352.0507813,-440.4296875
11.0250,874.0234375,-356.9335938,-445.3125
11.0300,873.5351563,-345.703125,-442.8710938
11.0350,864.7460938,-339.3554688,-436.0351563
11.0400,863.28125,-327.6367188,-429.6875
11.0450,847.1679688,-329.5898438,-407.2265625
11.0500,850.0976563,-317.3828125,-413.0859375
11.0550,846.6796875,-317.8710938,-416.015625
11.0600,837.4023438,-313.9648438,-420.8984375
11.0650,839.84375,-319.3359375,-405.7617188
11.0700,841.796875,-326.6601563,-407.2265625
11.0750,845.703125,-335.4492188,-419.4335938
11.0800,855.46875,-339.84375,-421.875
11.0850,856.4453125,-344.2382813,-428.7109375
11.0900,858.3984375,-344.7265625,-415.0390625
11.0950,864.2578125,-342.2851563,-409.6679688
11.1000,856.9335938,-343.75,-381.3476563
11.1050,855.46875,-338.3789063,-389.6484375
11.1100,858.3984375,-321.7773438,-399.9023438
11.1150,853.515625,-326.171875,-422.8515625
11.1200,853.515625,-328.125,-421.3867188
11.1250,857.421875,-335.4492188,-411.6210938
11.1300,869.6289063,-324.21875,-416.015625
11.1350,867.6757813,-333.0078125,-414.5507813
11.1400,867.1875,-318.8476563,-421.875
11.1450,865.234375,-308.59375,-414.5507813
11.1500,849.609375,-312.5,-407.7148438
11.1550,852.5390625,-308.1054688,-381.3476563
11.1600,855.46875,-299.3164063,-392.578125
11.1650,853.0273438,-310.0585938,-397.4609375
11.1700,856.4453125,-320.8007813,-393.0664063
11.1750,855.9570313,-334.9609375,-392.0898438
11.1800,866.6992188,-333.0078125,-388.671875
11.1850,869.140625,-336.9140625,-406.7382813
11.1900,871.5820313,-342.2851563,-393.5546875
11.1950,867.6757813,-350.0976563,-393.0664063
11.2000,868.1640625,-340.8203125,-382.3242188
11.2050,869.140625,-333.4960938,-368.6523438
11.2100,867.1875,-324.7070313,-366.2109375
11.2150,868.6523438,-333.4960938,-356.4453125
11.2200,871.5820313,-327.1484375,-353.0273438
11.2250,876.4648438,-325.1953125,-364.7460938
11.2300,875.9765625,-311.5234375,-357.9101563
11.2350,872.0703125,-317.3828125,-339.3554688
11.2400,866.6992188,-305.6640625,-347.65625
11.2450,874.0234375,-295.4101563,-354.9804688
11.2500,878.90625,-295.4101563,-347.1679688
11.2550,883.3007813,-305.1757813,-348.1445313
11.2600,901.3671875,-287.5976563,-347.65625
11.2650,911.6210938,-284.6679688,-352.5390625
11.2700,911.6210938,-281.25,-355.9570313
11.2750,899.9023438,-291.9921875,-374.5117188
11.2800,896.9726563,-292.96875,-364.2578125
11.2850,885.2539063,-287.109375,-358.3984375
11.2900,883.3007813,-276.8554688,-346.1914063
11.2950,878.4179688,-271.9726563,-340.3320313
11.3000,871.09375,-266.6015625,-337.4023438
11.3050,880.3710938,-260.2539063,-319.8242188
11.3100,884.2773438,-245.1171875,-316.8945313
11.3150,886.2304688,-238.7695313,-334.9609375
11.3200,885.2539063,-251.4648438,-322.7539063
11.3250,902.34375,-257.8125,-335.4492188
11.3300,907.7148438,-270.9960938,-337.890625
11.3350,916.015625,-285.15625,-335.4492188
11.3400,908.6914063,-276.3671875,-333.984375
11.3450,913.5742188,-261.2304688,-338.3789063
11.3500,905.7617188,-267.578125,-333.4960938
11.3550,907.7148438,-284.1796875,-334.4726563
11.3600,912.5976563,-294.921875,-329.1015625
11.3650,904.296875,-305.1757813,-306.1523438
11.3700,898.4375,-304.6875,-315.4296875
11.3750,896.484375,-299.3164063,-305.6640625
11.3800,895.9960938,-299.8046875,-291.5039063
11.3850,908.203125,-294.4335938,-293.4570313
11.3900,920.4101563,-295.4101563,-306.1523438
11.3950,932.1289063,-279.7851563,-311.0351563
11.4000,929.1992188,-269.53125,-315.9179688
11.4050,935.0585938,-252.4414063,-313.9648438
11.4100,939.453125,-248.5351563,-314.453125
11.4150,941.40625,-249.5117188,-335.4492188
11.4200,931.640625,-254.3945313,-346.1914063
11.4250,930.1757813,-258.3007813,-347.1679688
11.4300,932.1289063,-248.5351563,-322.265625
11.4350,923.3398438,-254.8828125,-323.2421875
11.4400,913.0859375,-250.4882813,-327.6367188
11.4450,905.2734375,-255.859375,-311.0351563
11.4500,920.8984375,-265.1367188,-284.1796875
11.4550,926.2695313,-286.6210938,-263.1835938
11.4600,928.7109375,-291.9921875,-266.1132813
11.4650,930.1757813,-287.5976563,-291.9921875
11.4700,923.3398438,-283.203125,-319.3359375
11.4750,939.9414063,-283.203125,-348.1445313
11.4800,943.8476563,-298.3398438,-334.9609375
11.4850,951.171875,-310.0585938,-336.4257813
11.4900,946.7773438,-295.4101563,-325.1953125
11.4950,932.1289063,-286.1328125,-328.125
11.5000,916.5039063,-274.9023438,-337.890625
11.5050,894.0429688,-286.6210938,-304.1992188
11.5100,879.3945313,-273.4375,-295.4101563
11.5150,884.2773438,-271.9726563,-270.9960938
11.5200,900.8789063,-266.6015625,-250.9765625
11.5250,912.109375,-244.6289063,-256.8359375
11.5300,913.0859375,-227.5390625,-258.3007813
11.5350,929.1992188,-199.7070313,-281.25
11.5400,935.546875,-212.890625,-294.4335938
11.5450,957.03125,-210.9375,-303.7109375
11.5500,962.4023438,-214.84375,-318.8476563
11.5550,945.3125,-210.9375,-344.2382813
11.5600,920.4101563,-204.5898438,-343.75
11.5650,912.5976563,-191.8945313,-319.3359375
11.5700,902.8320313,-193.8476563,-298.828125
11.5750,879.8828125,-216.3085938,-301.2695313
11.5800,871.09375,-227.0507813,-294.4335938
11.5850,886.2304688,-219.2382813,-275.8789063
11.5900,895.0195313,-215.8203125,-237.3046875
11.5950,900.390625,-213.8671875,-219.7265625
11.6000,889.1601563,-211.9140625,-232.9101563
11.6050,901.3671875,-203.125,-240.234375
11.6100,920.8984375,-208.984375,-239.2578125
11.6150,943.359375,-215.3320313,-244.140625
11.6200,956.5429688,-229.0039063,-262.2070313
11.6250,960.4492188,-234.8632813,-278.3203125
11.6300,948.2421875,-240.234375,-293.9453125
11.6350,940.4296875,-241.2109375,-280.2734375
11.6400,929.6875,-221.6796875,-263.1835938
11.6450,916.9921875,-218.2617188,-260.2539063
11.6500,910.15625,-224.1210938,-243.6523438
11.6550,906.7382813,-235.8398438,-230.9570313
11.6600,922.8515625,-234.375,-213.8671875
11.6650,933.1054688,-241.6992188,-213.3789063
11.6700,944.8242188,-231.9335938,-210.4492188
11.6750,949.7070313,-225.5859375,-217.7734375
11.6800,956.0546875,-214.84375,-218.2617188
11.6850,962.890625,-216.3085938,-230.46875
11.6900,967.7734375,-218.2617188,-240.234375
11.6950,980.46875,-218.75,-277.34375
11.7000,974.609375,-229.0039063,-300.78125
11.7050,967.7734375,-232.421875,-291.9921875
11.7100,959.9609375,-227.5390625,-302.2460938
11.7150,950.6835938,-223.6328125,-292.4804688
11.7200,935.546875,-220.703125,-258.7890625
11.7250,910.15625,-223.1445313,-237.7929688
11.7300,903.3203125,-214.84375,-230.9570313
11.7350,884.2773438,-224.1210938,-206.0546875
11.7400,897.9492188,-215.3320313,-190.4296875
11.7450,922.8515625,-207.03125,-178.7109375
11.7500,929.6875,-190.9179688,-162.5976563
11.7550,942.3828125,-163.0859375,-155.2734375
11.7600,962.890625,-141.6015625,-164.5507813
11.7650,986.328125,-147.4609375,-180.6640625
11.7700,1002.441406,-164.5507813,-189.453125
11.7750,1005.371094,-179.6875,-230.9570313
11.7800,999.0234375,-197.7539063,-255.3710938
11.7850,983.3984375,-220.703125,-265.625
11.7900,973.1445313,-221.6796875,-274.4140625
11.7950,965.3320313,-234.375,-258.7890625
11.8000,937.5,-233.8867188,-245.1171875
11.8050,937.0117188,-213.3789063,-253.4179688
11.8100,928.7109375,-197.7539063,-238.7695313
11.8150,923.828125,-179.6875,-249.5117188
11.8200,926.2695313,-153.3203125,-236.8164063
11.8250,923.828125,-143.0664063,-232.9101563
11.8300,932.6171875,-133.3007813,-212.890625
11.8350,946.7773438,-137.6953125,-217.2851563
11.8400,963.3789063,-132.3242188,-210.9375
11.8450,976.5625,-145.9960938,-226.5625
11.8500,979.4921875,-148.4375,-231.4453125
11.8550,988.7695313,-167.4804688,-242.6757813
11.8600,982.9101563,-188.9648438,-250
11.8650,981.4453125,-203.6132813,-250.9765625
11.8700,974.1210938,-213.8671875,-242.1875
11.8750,975.0976563,-222.1679688,-228.515625
11.8800,973.1445313,-215.3320313,-239.7460938
11.8850,965.3320313,-205.5664063,-244.140625
11.8900,952.1484375,-193.359375,-223.6328125
11.8950,949.7070313,-165.5273438,-228.515625
11.9000,949.21875,-146.484375,-220.703125
11.9050,958.984375,-135.7421875,-227.0507813
11.9100,956.5429688,-134.2773438,-217.2851563
11.9150,951.171875,-142.578125,-229.0039063
11.9200,963.8671875,-133.7890625,-248.5351563
11.9250,966.796875,-145.0195313,-237.3046875
11.9300,967.7734375,-156.7382813,-242.1875
11.9350,971.1914063,-162.5976563,-246.09375
11.9400,971.6796875,-156.25,-258.3007813
11.9450,971.1914063,-152.8320313,-259.765625
11.9500,949.21875,-176.7578125,-256.8359375
11.9550,958.984375,-170.8984375,-260.2539063
11.9600,935.546875,-187.5,-247.0703125
11.9650,933.1054688,-179.1992188,-238.7695313
11.9700,936.0351563,-161.6210938,-228.515625
11.9750,957.03125,-145.0195313,-214.84375
11.9800,958.984375,-145.0195313,-211.9140625
11.9850,981.4453125,-136.2304688,-188.9648438
11.9900,977.5390625,-128.4179688,-198.7304688
11.9950,969.7265625,-126.953125,-184.0820313
12.0000,959.9609375,-132.3242188,-189.9414063
12.0050,948.7304688,-147.4609375,-188.4765625
12.0100,962.4023438,-155.2734375,-208.4960938
12.0150,966.796875,-179.6875,-205.5664063
12.0200,987.7929688,-180.6640625,-219.7265625
12.0250,993.1640625,-197.265625,-226.5625
12.0300,990.7226563,-195.3125,-233.3984375
12.0350,977.5390625,-202.6367188,-245.6054688
12.0400,978.0273438,-187.0117188,-253.4179688
12.0450,963.8671875,-181.640625,-246.5820313
12.0500,964.84375,-164.0625,-248.5351563
12.0550,965.3320313,-145.9960938,-231.9335938
12.0600,955.078125,-126.4648438,-230.9570313
12.0650,949.21875,-114.2578125,-220.703125
12.0700,951.171875,-97.65625,-213.8671875
12.0750,952.1484375,-97.65625,-209.4726563
12.0800,949.7070313,-96.19140625,-203.125
12.0850,946.2890625,-105.9570313,-186.5234375
12.0900,954.5898438,-97.65625,-194.3359375
12.0950,960.4492188,-117.6757813,-209.4726563
12.1000,966.796875,-124.5117188,-237.3046875
12.1050,955.5664063,-143.5546875,-242.1875
12.1100,967.2851563,-147.4609375,-232.9101563
12.1150,975.5859375,-146.484375,-242.6757813
12.1200,973.1445313,-148.9257813,-233.8867188
12.1250,972.1679688,-146.9726563,-229.4921875
12.1300,964.84375,-139.6484375,-219.7265625
12.1350,965.3320313,-134.765625,-217.7734375
12.1400,963.3789063,-132.3242188,-225.0976563
12.1450,965.3320313,-128.90625,-222.1679688
12.1500,961.4257813,-130.3710938,-228.0273438
12.1550,963.3789063,-130.859375,-230.46875
12.1600,960.9375,-123.5351563,-230.9570313
12.1650,956.0546875,-120.1171875,-224.609375
12.1700,953.6132813,-121.09375,-225.0976563
12.1750,957.03125,-120.6054688,-242.6757813
12.1800,963.8671875,-124.0234375,-243.6523438
12.1850,962.890625,-139.6484375,-235.8398438
12.1900,989.7460938,-121.09375,-257.3242188
12.1950,991.2109375,-110.8398438,-245.1171875
12.2000,986.328125,-89.35546875,-242.1875
12.2050,987.7929688,-67.87109375,-229.9804688
12.2100,981.4453125,-62.01171875,-221.1914063
12.2150,984.375,-66.40625,-241.6992188
12.2200,983.8867188,-83.984375,-250.4882813
12.2250,984.8632813,-99.12109375,-278.8085938
12.2300,972.65625,-121.09375,-289.0625
12.2350,958.984375,-128.4179688,-287.109375
12.2400,952.6367188,-128.90625,-269.53125
12.2450,953.125,-143.5546875,-244.140625
12.2500,961.9140625,-150.8789063,-217.2851563
12.2550,984.375,-166.5039063,-207.03125
12.2600,996.09375,-180.6640625,-192.8710938
12.2650,1003.90625,-188.4765625,-173.828125
12.2700,1001.464844,-187.5,-171.875
12.2750,994.140625,-185.546875,-166.9921875
12.2800,986.328125,-182.1289063,-159.6679688
12.2850,985.8398438,-173.3398438,-165.0390625
12.2900,971.1914063,-171.3867188,-179.6875
12.2950,959.4726563,-164.5507813,-196.7773438
12.3000,958.0078125,-144.0429688,-222.65625
12.3050,959.4726563,-124.0234375,-252.9296875
12.3100,949.21875,-109.375,-238.7695313
12.3150,944.3359375,-97.16796875,-264.6484375
12.3200,947.7539063,-68.84765625,-261.71875
12.3250,952.1484375,-56.15234375,-268.5546875
12.3300,951.171875,-52.24609375,-264.1601563
12.3350,957.5195313,-54.6875,-268.0664063
12.3400,958.4960938,-53.7109375,-253.90625
12.3450,959.4726563,-67.3828125,-248.046875
12.3500,958.4960938,-77.63671875,-242.6757813
12.3550,967.2851563,-89.84375,-235.8398438
12.3600,963.8671875,-102.0507813,-235.3515625
12.3650,959.4726563,-125.9765625,-247.5585938
12.3700,959.9609375,-142.0898438,-250.4882813
12.3750,966.3085938,-148.4375,-245.1171875
12.3800,963.3789063,-153.3203125,-245.1171875
12.3850,967.2851563,-147.4609375,-252.4414063
12.3900,951.6601563,-152.34375,-252.9296875
12.3950,959.9609375,-131.8359375,-240.234375
12.4000,955.078125,-112.3046875,-237.7929688
12.4050,958.4960938,-102.0507813,-245.6054688
12.4100,967.2851563,-93.26171875,-242.1875
12.4150,964.3554688,-92.28515625,-251.953125
12.4200,966.796875,-96.19140625,-255.3710938
12.4250,958.0078125,-104.0039063,-257.3242188
12.4300,959.9609375,-105.9570313,-241.2109375
12.4350,973.1445313,-108.8867188,-246.5820313
12.4400,973.1445313,-116.6992188,-248.046875
12.4450,972.1679688,-123.046875,-243.1640625
12.4500,962.4023438,-134.2773438,-261.71875
12.4550,960.4492188,-146.484375,-268.5546875
12.4600,954.1015625,-154.7851563,-262.2070313
12.4650,954.5898438,-160.15625,-262.2070313
12.4700,950.6835938,-153.3203125,-283.203125
12.4750,954.1015625,-139.1601563,-263.1835938
12.4800,954.5898438,-118.1640625,-268.0664063
12.4850,957.5195313,-100.0976563,-251.4648438
12.4900,953.6132813,-84.9609375,-257.3242188
12.4950,967.7734375,-74.21875,-245.1171875
12.5000,972.65625,-74.70703125,-237.3046875
12.5050,987.7929688,-76.66015625,-238.7695313
12.5100,993.1640625,-87.890625,-251.4648438
12.5150,994.6289063,-107.9101563,-232.9101563
12.5200,995.1171875,-109.8632813,-229.0039063
12.5250,995.1171875,-115.7226563,-219.7265625
12.5300,974.609375,-127.4414063,-227.0507813
12.5350,968.2617188,-131.3476563,-233.8867188
12.5400,960.9375,-124.0234375,-235.8398438
12.5450,950.6835938,-125.4882813,-253.4179688
12.5500,941.40625,-119.140625,-248.046875
12.5550,934.0820313,-114.7460938,-273.9257813
12.5600,934.0820313,-109.8632813,-294.4335938
12.5650,934.5703125,-105.46875,-272.9492188
12.5700,931.640625,-98.14453125,-274.9023438
12.5750,937.5,-87.40234375,-278.8085938
12.5800,944.8242188,-73.73046875,-279.7851563
12.5850,940.4296875,-75.68359375,-275.390625
12.5900,950.6835938,-59.5703125,-258.3007813
12.5950,954.5898438,-62.5,-268.5546875
12.6000,947.265625,-78.125,-260.7421875
12.6050,944.8242188,-87.890625,-247.5585938
12.6100,945.8007813,-89.84375,-235.8398438
12.6150,957.03125,-90.33203125,-233.3984375
12.6200,961.4257813,-94.23828125,-224.1210938
12.6250,956.0546875,-101.0742188,-226.5625
12.6300,960.9375,-101.5625,-240.7226563
12.6350,973.6328125,-106.9335938,-241.6992188
12.6400,970.703125,-120.1171875,-239.7460938
12.6450,970.2148438,-116.6992188,-226.0742188
12.6500,967.2851563,-105.46875,-235.3515625
12.6550,967.2851563,-109.375,-241.2109375
12.6600,965.8203125,-99.12109375,-223.1445313
12.6650,966.796875,-101.0742188,-245.1171875
12.6700,969.2382813,-94.7265625,-226.5625
12.6750,966.796875,-101.5625,-239.7460938
12.6800,968.2617188,-104.0039063,-252.9296875
12.6850,970.2148438,-105.9570313,-249.0234375
12.6900,988.7695313,-87.40234375,-285.6445313
12.6950,976.0742188,-88.8671875,-275.8789063
12.7000,964.3554688,-87.40234375,-279.7851563
12.7050,958.984375,-102.0507813,-279.296875
12.7100,966.796875,-109.8632813,-286.1328125
12.7150,995.6054688,-122.0703125,-266.1132813
12.7200,1001.953125,-139.1601563,-277.8320313
12.7250,1000,-138.1835938,-273.4375
12.7300,975.0976563,-129.8828125,-273.9257813
12.7350,953.6132813,-116.2109375,-289.0625
12.7400,958.984375,-73.2421875,-270.9960938
12.7450,952.1484375,-73.2421875,-274.9023438
12.7500,965.3320313,-57.6171875,-249.0234375
12.7550,962.890625,-49.31640625,-256.3476563
12.7600,972.65625,-41.50390625,-260.7421875
12.7650,1000,-39.55078125,-265.1367188
12.7700,1001.953125,-67.3828125,-269.53125
12.7750,1003.417969,-70.80078125,-267.0898438
12.7800,976.0742188,-83.0078125,-259.2773438
12.7850,971.6796875,-101.5625,-272.9492188
12.7900,969.2382813,-130.859375,-277.34375
12.7950,972.65625,-161.6210938,-267.0898438
12.8000,967.7734375,-183.59375,-264.6484375
12.8050,967.7734375,-193.8476563,-261.71875
12.8100,970.703125,-191.8945313,-257.3242188
12.8150,979.4921875,-177.2460938,-288.5742188
12.8200,988.7695313,-157.2265625,-289.5507813
12.8250,972.65625,-142.578125,-280.2734375
12.8300,962.4023438,-115.7226563,-241.6992188
12.8350,954.1015625,-106.4453125,-249.0234375
12.8400,952.1484375,-89.84375,-250
12.8450,938.4765625,-94.23828125,-242.1875
12.8500,936.5234375,-89.35546875,-236.8164063
12.8550,942.8710938,-89.84375,-243.6523438
12.8600,949.21875,-103.515625,-241.2109375
12.8650,964.3554688,-122.5585938,-239.7460938
12.8700,970.2148438,-131.3476563,-229.9804688
12.8750,982.421875,-140.1367188,-215.8203125
12.8800,989.7460938,-147.9492188,-216.3085938
12.8850,999.5117188,-142.578125,-240.234375
12.8900,987.3046875,-143.0664063,-225.0976563
12.8950,980.46875,-137.2070313,-225.5859375
12.9000,982.9101563,-115.7226563,-214.3554688
12.9050,975.0976563,-114.7460938,-214.3554688
12.9100,978.515625,-102.5390625,-222.1679688
12.9150,978.0273438,-102.5390625,-211.4257813
12.9200,972.1679688,-97.65625,-220.703125
12.9250,969.2382813,-99.609375,-219.2382813
12.9300,964.84375,-92.28515625,-225.5859375
12.9350,946.2890625,-100.0976563,-248.5351563
12.9400,937.0117188,-101.5625,-226.5625
12.9450,944.8242188,-111.8164063,-238.28125
12.9500,939.453125,-123.046875,-250.4882813
12.9550,956.0546875,-115.7226563,-235.3515625
12.9600,949.7070313,-116.2109375,-246.09375
12.9650,951.6601563,-113.7695313,-243.6523438
12.9700,943.359375,-106.9335938,-246.5820313
12.9750,940.9179688,-108.3984375,-242.6757813
12.9800,952.1484375,-97.65625,-247.5585938
12.9850,947.7539063,-102.0507813,-247.0703125
12.9900,961.9140625,-100.0976563,-240.234375
12.9950,963.8671875,-106.9335938,-248.046875
13.0000,966.3085938,-104.0039063,-244.6289063
13.0050,972.65625,-106.9335938,-253.90625
13.0100,962.4023438,-103.0273438,-272.4609375
13.0150,949.21875,-104.0039063,-253.4179688
13.0200,941.40625,-101.5625,-243.1640625
13.0250,944.3359375,-104.0039063,-245.1171875
13.0300,944.8242188,-106.9335938,-259.765625
13.0350,953.6132813,-104.4921875,-251.4648438
13.0400,953.125,-125.4882813,-257.8125
13.0450,969.7265625,-124.5117188,-262.2070313
13.0500,968.75,-132.8125,-249.5117188
13.0550,982.9101563,-128.90625,-229.9804688
13.0600,989.2578125,-127.9296875,-223.6328125
13.0650,989.2578125,-123.046875,-221.6796875
13.0700,991.6992188,-110.3515625,-215.8203125
13.0750,999.5117188,-103.515625,-218.2617188
13.0800,983.8867188,-112.3046875,-224.1210938
13.0850,985.8398438,-107.9101563,-224.609375
13.0900,986.328125,-104.0039063,-226.5625
13.0950,987.3046875,-103.0273438,-226.0742188
13.1000,983.3984375,-97.16796875,-238.28125
13.1050,982.421875,-92.28515625,-222.65625
13.1100,983.3984375,-84.47265625,-214.3554688
13.1150,979.9804688,-89.84375,-250
13.1200,987.3046875,-85.44921875,-240.234375
13.1250,978.0273438,-95.21484375,-253.90625
13.1300,977.5390625,-91.30859375,-263.1835938
13.1350,969.7265625,-98.14453125,-266.1132813
13.1400,967.7734375,-98.14453125,-265.625
13.1450,975.0976563,-96.19140625,-272.4609375
13.1500,974.1210938,-97.16796875,-279.296875
13.1550,979.4921875,-96.6796875,-287.109375
13.1600,975.5859375,-85.9375,-291.5039063
13.1650,967.2851563,-84.9609375,-300.2929688
13.1700,958.984375,-84.9609375,-308.59375
13.1750,958.4960938,-90.8203125,-311.5234375
13.1800,945.8007813,-101.5625,-321.7773438
13.1850,930.1757813,-112.7929688,-328.6132813
13.1900,918.9453125,-125,-331.0546875
13.1950,908.6914063,-153.3203125,-357.421875
13.2000,900.390625,-185.546875,-353.515625
13.2050,916.5039063,-224.1210938,-371.5820313
13.2100,943.359375,-228.515625,-356.4453125
13.2150,978.515625,-223.1445313,-372.5585938
13.2200,986.8164063,-188.9648438,-374.0234375
13.2250,976.5625,-164.5507813,-343.2617188
13.2300,967.2851563,-131.3476563,-319.3359375
13.2350,954.1015625,-98.6328125,-307.6171875
13.2400,940.9179688,-66.89453125,-289.0625
13.2450,924.8046875,-50.78125,-271.9726563
13.2500,937.5,-21.484375,-278.8085938
13.2550,942.8710938,-16.11328125,-265.625
13.2600,951.6601563,-6.34765625,-254.3945313
13.2650,966.3085938,-22.4609375,-242.1875
13.2700,955.5664063,-44.43359375,-246.5820313
13.2750,963.8671875,-62.98828125,-231.4453125
13.2800,962.890625,-85.9375,-226.5625
13.2850,961.9140625,-106.4453125,-216.3085938
13.2900,971.1914063,-117.6757813,-223.6328125
13.2950,968.75,-127.9296875,-246.09375
13.3000,971.1914063,-115.234375,-255.3710938
13.3050,945.8007813,-120.1171875,-280.7617188
13.3100,938.4765625,-104.9804688,-285.6445313
13.3150,931.640625,-98.14453125,-306.1523438
13.3200,933.59375,-85.44921875,-292.4804688
13.3250,923.3398438,-80.56640625,-310.546875
13.3300,921.875,-69.3359375,-304.6875
13.3350,926.7578125,-66.89453125,-307.6171875
13.3400,929.6875,-58.10546875,-308.1054688
13.3450,931.640625,-58.10546875,-278.8085938
13.3500,938.9648438,-66.89453125,-286.6210938
13.3550,950.6835938,-65.4296875,-276.8554688
13.3600,950.6835938,-69.3359375,-281.25
13.3650,956.0546875,-83.49609375,-278.3203125
13.3700,955.078125,-97.65625,-281.7382813
13.3750,957.5195313,-106.9335938,-282.7148438
13.3800,958.0078125,-110.8398438,-267.0898438
13.3850,962.4023438,-120.6054688,-258.7890625
13.3900,970.2148438,-124.5117188,-246.09375
13.3950,975.0976563,-119.6289063,-236.8164063
13.4000,979.0039063,-108.3984375,-253.4179688
13.4050,986.328125,-99.609375,-253.4179688
13.4100,989.2578125,-105.9570313,-242.6757813
13.4150,974.609375,-106.9335938,-242.6757813
13.4200,972.1679688,-103.515625,-228.0273438
13.4250,962.4023438,-98.6328125,-226.0742188
13.4300,962.890625,-84.9609375,-233.3984375
13.4350,975.0976563,-72.265625,-225.0976563
13.4400,973.6328125,-75.1953125,-236.8164063
13.4450,981.4453125,-67.87109375,-256.8359375
13.4500,976.0742188,-63.4765625,-249.5117188
13.4550,983.3984375,-61.03515625,-252.9296875
13.4600,981.4453125,-70.80078125,-231.4453125
13.4650,979.4921875,-82.51953125,-242.1875
13.4700,987.7929688,-87.40234375,-224.609375
13.4750,982.421875,-108.3984375,-214.84375
13.4800,981.9335938,-101.5625,-190.9179688
13.4850,987.7929688,-101.0742188,-204.1015625
13.4900,983.8867188,-110.8398438,-207.5195313
13.4950,979.9804688,-123.5351563,-219.7265625
13.5000,972.65625,-122.5585938,-205.078125
13.5050,978.515625,-146.484375,-167.96875
13.5100,977.5390625,-139.1601563,-157.7148438
13.5150,970.2148438,-136.2304688,-145.9960938
13.5200,975.5859375,-97.65625,-139.6484375
13.5250,993.1640625,-64.453125,-156.25
13.5300,1008.300781,-20.99609375,-156.25
13.5350,1020.996094,-9.27734375,-137.2070313
13.5400,1028.320313,13.18359375,-143.5546875
13.5450,1012.207031,1.46484375,-127.4414063
13.5500,993.1640625,4.39453125,-141.6015625
13.5550,981.9335938,-10.7421875,-154.296875
13.5600,979.0039063,-32.2265625,-174.8046875
13.5650,994.140625,-62.01171875,-208.0078125
13.5700,986.328125,-80.078125,-252.9296875
13.5750,975.5859375,-93.26171875,-297.3632813
13.5800,977.5390625,-83.49609375,-326.6601563
13.5850,967.2851563,-96.6796875,-362.3046875
13.5900,960.9375,-104.4921875,-371.5820313
13.5950,960.9375,-92.28515625,-395.5078125
13.6000,959.9609375,-83.49609375,-412.5976563
13.6050,954.5898438,-77.1484375,-406.25
13.6100,951.6601563,-62.5,-392.578125
13.6150,936.0351563,-48.828125,-376.4648438
13.6200,932.6171875,-14.6484375,-352.5390625
13.6250,923.828125,-9.27734375,-330.078125
13.6300,924.3164063,-11.23046875,-304.6875
13.6350,916.9921875,-33.203125,-291.015625
13.6400,917.4804688,-49.31640625,-295.4101563
13.6450,906.7382813,-76.171875,-281.25
13.6500,915.5273438,-90.8203125,-286.1328125
13.6550,916.5039063,-123.046875,-287.5976563
13.6600,906.25,-166.9921875,-287.109375
13.6650,915.5273438,-171.875,-270.0195313
13.6700,917.4804688,-181.640625,-249.5117188
13.6750,925.2929688,-187.9882813,-251.4648438
13.6800,933.59375,-190.9179688,-265.625
13.6850,948.2421875,-180.1757813,-262.2070313
13.6900,946.7773438,-171.3867188,-270.0195313
13.6950,947.7539063,-158.6914063,-262.2070313
13.7000,944.8242188,-131.8359375,-261.2304688
13.7050,943.8476563,-104.9804688,-263.671875
13.7100,948.2421875,-87.890625,-246.09375
13.7150,961.9140625,-77.63671875,-259.765625
13.7200,966.796875,-78.61328125,-243.6523438
13.7250,962.4023438,-76.66015625,-240.7226563
13.7300,974.1210938,-56.640625,-234.375
