type,name,time_units,begin_time,frequency,count,units
signal,"Noraxon MyoMotion-Segments-Upper arm RT-Pitch","s",0.0000,200,5068,"deg"

time,value
0.0000,9.412919718
0.0050,9.418658605
0.0100,9.424396252
0.0150,9.43013266
0.0200,9.436181982
0.0250,9.442484504
0.0300,9.448976939
0.0350,9.455595952
0.0400,9.462281075
0.0450,9.46897705
0.0500,9.475636281
0.0550,9.48222055
0.0600,9.488700793
0.0650,9.495056187
0.0700,9.501274197
0.0750,9.507350844
0.0800,9.513290416
0.0850,9.519105615
0.0900,9.524817755
0.0950,9.530455416
0.1000,9.536052138
0.1050,9.541644673
0.1100,9.547271609
0.1150,9.552971892
0.1200,9.558783511
0.1250,9.564742474
0.1300,9.57088174
0.1350,9.577229825
0.1400,9.583809051
0.1450,9.59063393
0.1500,9.597710648
0.1550,9.607816116
0.1600,9.617801052
0.1650,9.627532556
0.1700,9.636901624
0.1750,9.646005551
0.1800,9.654610494
0.1850,9.662687915
0.1900,9.670309966
0.1950,9.677122962
0.2000,9.683110731
0.2050,9.688222419
0.2100,9.692435993
0.2150,9.69556297
0.2200,9.697426679
0.2250,9.698095414
0.2300,9.697462178
0.2350,9.695378084
0.2400,9.69203014
0.2450,9.687552359
0.2500,9.681741474
0.2550,9.674611239
0.2600,9.666411329
0.2650,9.657023593
0.2700,9.646506139
0.2750,9.635037615
0.2800,9.622551101
0.2850,9.609251178
0.2900,9.595280993
0.2950,9.580725357
0.3000,9.565550977
0.3050,9.549912897
0.3100,9.534082494
0.3150,9.518091081
0.3200,9.501917572
0.3250,9.485722103
0.3300,9.469416049
0.3350,9.453337484
0.3400,9.437362299
0.3450,9.421760856
0.3500,9.406736236
0.3550,9.392155208
0.3600,9.378037644
0.3650,9.364603192
0.3700,9.351861
0.3750,9.339907091
0.3800,9.328693925
0.3850,9.318316455
0.3900,9.308752155
0.3950,9.29982817
0.4000,9.291622154
0.4050,9.284018193
0.4100,9.276895698
0.4150,9.270223939
0.4200,9.264051171
0.4250,9.258131102
0.4300,9.252288225
0.4350,9.246651583
0.4400,9.240856157
0.4450,9.234817815
0.4500,9.228593806
0.4550,9.222109119
0.4600,9.214986276
0.4650,9.207276223
0.4700,9.199081815
0.4750,9.190162565
0.4800,9.180636223
0.4850,9.170600453
0.4900,9.159968324
0.4950,9.148985731
0.5000,9.137492574
0.5050,9.125691303
0.5100,9.113450129
0.5150,9.100705705
0.5200,9.08755686
0.5250,9.073992566
0.5300,9.060064093
0.5350,9.045841908
0.5400,9.031425108
0.5450,9.016695655
0.5500,9.001705934
0.5550,8.986741719
0.5600,8.971566112
0.5650,8.956318258
0.5700,8.941073101
0.5750,8.925792376
0.5800,8.910721576
0.5850,8.895665396
0.5900,8.88069711
0.5950,8.865888121
0.6000,8.85130599
0.6050,8.836897532
0.6100,8.822618807
0.6150,8.808418291
0.6200,8.794251241
0.6250,8.780123061
0.6300,8.765903725
0.6350,8.751639372
0.6400,8.737254789
0.6450,8.722636533
0.6500,8.707536775
0.6550,8.692266931
0.6600,8.676566855
0.6650,8.660443432
0.6700,8.64375143
0.6750,8.626511721
0.6800,8.608633742
0.6850,8.590000806
0.6900,8.570661677
0.6950,8.550521039
0.7000,8.529640278
0.7050,8.508152211
0.7100,8.485886975
0.7150,8.463008623
0.7200,8.439366881
0.7250,8.415080383
0.7300,8.390340498
0.7350,8.36501023
0.7400,8.339281437
0.7450,8.313194863
0.7500,8.286730197
0.7550,8.260009196
0.7600,8.233221998
0.7650,8.206448129
0.7700,8.179716965
0.7750,8.153263993
0.7800,8.127085592
0.7850,8.101205612
0.7900,8.075698258
0.7950,8.050563244
0.8000,8.025886928
0.8050,8.001807916
0.8100,7.978443514
0.8150,7.955943032
0.8200,7.934277699
0.8250,7.913608308
0.8300,7.893856272
0.8350,7.875019458
0.8400,7.857000669
0.8450,7.839946524
0.8500,7.823721739
0.8550,7.808409944
0.8600,7.793998145
0.8650,7.780531035
0.8700,7.768034402
0.8750,7.756461883
0.8800,7.745946883
0.8850,7.736516997
0.8900,7.728183661
0.8950,7.720803235
0.9000,7.714298368
0.9050,7.708690513
0.9100,7.703908364
0.9150,7.700040093
0.9200,7.697188878
0.9250,7.695328233
0.9300,7.694673623
0.9350,7.694955131
0.9400,7.696412316
0.9450,7.699009314
0.9500,7.702796044
0.9550,7.707509468
0.9600,7.713435838
0.9650,7.720391097
0.9700,7.728393465
0.9750,7.737337383
0.9800,7.74725874
0.9850,7.758278108
0.9900,7.770290291
0.9950,7.783386132
1.0000,7.797333312
1.0050,7.812197393
1.0100,7.827934991
1.0150,7.844408049
1.0200,7.861686676
1.0250,7.879560086
1.0300,7.897583959
1.0350,7.915815364
1.0400,7.933945468
1.0450,7.951690508
1.0500,7.968870244
1.0550,7.985162017
1.0600,8.00061306
1.0650,8.014867489
1.0700,8.027978196
1.0750,8.03971702
1.0800,8.050046682
1.0850,8.058867851
1.0900,8.066091294
1.0950,8.071742958
1.1000,8.075851003
1.1050,8.078201804
1.1100,8.078904917
1.1150,8.078022327
1.1200,8.075568789
1.1250,8.071450651
1.1300,8.065720533
1.1350,8.058425315
1.1400,8.049624658
1.1450,8.039321384
1.1500,8.027653339
1.1550,8.014399758
1.1600,7.999708584
1.1650,7.983758742
1.1700,7.966549813
1.1750,7.948139437
1.1800,7.9284338
1.1850,7.907601043
1.1900,7.885614484
1.1950,7.862746672
1.2000,7.838961916
1.2050,7.814514028
1.2100,7.789576392
1.2150,7.764190705
1.2200,7.738445634
1.2250,7.712334371
1.2300,7.68613945
1.2350,7.659835202
1.2400,7.633331519
1.2450,7.606766543
1.2500,7.58024277
1.2550,7.55376756
1.2600,7.527227901
1.2650,7.500878683
1.2700,7.474690279
1.2750,7.448853113
1.2800,7.423424555
1.2850,7.398354174
1.2900,7.37365338
1.2950,7.349293968
1.3000,7.325380697
1.3050,7.301812629
1.3100,7.278599467
1.3150,7.255627316
1.3200,7.232937195
1.3250,7.210609373
1.3300,7.188842352
1.3350,7.16732506
1.3400,7.146194392
1.3450,7.12551068
1.3500,7.105187259
1.3550,7.085611819
1.3600,7.066477353
1.3650,7.04809632
1.3700,7.030321423
1.3750,7.013358277
1.3800,6.997298692
1.3850,6.982099428
1.3900,6.967814651
1.3950,6.954493747
1.4000,6.942186756
1.4050,6.930861316
1.4100,6.920684777
1.4150,6.911397212
1.4200,6.90320511
1.4250,6.896238532
1.4300,6.890321003
1.4350,6.885699177
1.4400,6.882166937
1.4450,6.879753472
1.4500,6.87858874
1.4550,6.878738342
1.4600,6.880165341
1.4650,6.882722481
1.4700,6.886360608
1.4750,6.891045486
1.4800,6.896733373
1.4850,6.903405905
1.4900,6.911165708
1.4950,6.919859716
1.5000,6.929630161
1.5050,6.940508242
1.5100,6.952472382
1.5150,6.965652476
1.5200,6.979968316
1.5250,6.995608051
1.5300,7.012160708
1.5350,7.029931952
1.5400,7.048980521
1.5450,7.069351152
1.5500,7.09096963
1.5550,7.114025115
1.5600,7.138440791
1.5650,7.164177636
1.5700,7.191153444
1.5750,7.219228035
1.5800,7.248383154
1.5850,7.278554307
1.5900,7.309929775
1.5950,7.342302587
1.6000,7.375846261
1.6050,7.410448396
1.6100,7.446321764
1.6150,7.48357262
1.6200,7.521967392
1.6250,7.561753596
1.6300,7.602910494
1.6350,7.645542394
1.6400,7.689746408
1.6450,7.735562543
1.6500,7.78307309
1.6550,7.832167773
1.6600,7.882957647
1.6650,7.935310494
1.6700,7.989312671
1.6750,8.04471526
1.6800,8.101659612
1.6850,8.160102459
1.6900,8.219818281
1.6950,8.280624737
1.7000,8.342440265
1.7050,8.405171176
1.7100,8.468537624
1.7150,8.532675011
1.7200,8.597099534
1.7250,8.661808104
1.7300,8.726707128
1.7350,8.791380327
1.7400,8.856057646
1.7450,8.920549953
1.7500,8.984698526
1.7550,9.048292973
1.7600,9.111238888
1.7650,9.17350491
1.7700,9.23511877
1.7750,9.295913044
1.7800,9.35592667
1.7850,9.415077896
1.7900,9.47318975
1.7950,9.530292106
1.8000,9.586448396
1.8050,9.641388645
1.8100,9.695193001
1.8150,9.747634046
1.8200,9.798720722
1.8250,9.84843507
1.8300,9.896909068
1.8350,9.944230595
1.8400,9.990357563
1.8450,10.03522029
1.8500,10.0789875
1.8550,10.12157326
1.8600,10.1631452
1.8650,10.20380755
1.8700,10.24374504
1.8750,10.2830854
1.8800,10.32196768
1.8850,10.36068039
1.8900,10.39907515
1.8950,10.43759635
1.9000,10.47602611
1.9050,10.51486041
1.9100,10.55404801
1.9150,10.59361466
1.9200,10.63382903
1.9250,10.67439928
1.9300,10.71540289
1.9350,10.75694063
1.9400,10.79913282
1.9450,10.84192615
1.9500,10.88537061
1.9550,10.92959597
1.9600,10.97471235
1.9650,11.02082323
1.9700,11.06803326
1.9750,11.11672239
1.9800,11.16652865
1.9850,11.21749395
1.9900,11.26993417
1.9950,11.32377069
2.0000,11.37925925
2.0050,11.43649315
2.0100,11.49538478
2.0150,11.55581597
2.0200,11.61802793
2.0250,11.68193981
2.0300,11.74748816
2.0350,11.81480533
2.0400,11.88355954
2.0450,11.95356401
2.0500,12.02486592
2.0550,12.09715593
2.0600,12.17034521
2.0650,12.24437448
2.0700,12.31895116
2.0750,12.39407276
2.0800,12.46984437
2.0850,12.54609542
2.0900,12.62292064
2.0950,12.70038413
2.1000,12.77824932
2.1050,12.85651533
2.1100,12.9350418
2.1150,13.01386856
2.1200,13.09284076
2.1250,13.17175418
2.1300,13.25067713
2.1350,13.32939709
2.1400,13.40819152
2.1450,13.48720323
2.1500,13.56637671
2.1550,13.64591236
2.1600,13.72610539
2.1650,13.80713397
2.1700,13.88901578
2.1750,13.9719657
2.1800,14.05603815
2.1850,14.14130418
2.1900,14.22818778
2.1950,14.31668633
2.2000,14.40707961
2.2050,14.49918687
2.2100,14.59304879
2.2150,14.68880878
2.2200,14.786142
2.2250,14.88506722
2.2300,14.98553351
2.2350,15.0872774
2.2400,15.18978553
2.2450,15.29307005
2.2500,15.39701074
2.2550,15.50131326
2.2600,15.60568483
2.2650,15.71009852
2.2700,15.81450857
2.2750,15.9188318
2.2800,16.02346017
2.2850,16.12872935
2.2900,16.23463096
2.2950,16.34135256
2.3000,16.44873189
2.3050,16.55690118
2.3100,16.66619004
2.3150,16.77650874
2.3200,16.88773464
2.3250,16.99954753
2.3300,17.1118555
2.3350,17.22419459
2.3400,17.33647625
2.3450,17.44854644
2.3500,17.56016701
2.3550,17.67132555
2.3600,17.78195643
2.3650,17.8917753
2.3700,18.00084241
2.3750,18.10913175
2.3800,18.21643192
2.3850,18.32282084
2.3900,18.42806954
2.3950,18.53206552
2.4000,18.63504609
2.4050,18.73756597
2.4100,18.83965896
2.4150,18.94177546
2.4200,19.04393908
2.4250,19.14631933
2.4300,19.24896002
2.4350,19.35172576
2.4400,19.45446837
2.4450,19.55704509
2.4500,19.65945695
2.4550,19.76156253
2.4600,19.86319069
2.4650,19.96395163
2.4700,20.06380631
2.4750,20.1626441
2.4800,20.26017879
2.4850,20.35651138
2.4900,20.45125229
2.4950,20.54443467
2.5000,20.63595675
2.5050,20.72582032
2.5100,20.81416331
2.5150,20.9009576
2.5200,20.98647808
2.5250,21.07108259
2.5300,21.15477637
2.5350,21.23776953
2.5400,21.32035806
2.5450,21.40254515
2.5500,21.48418116
2.5550,21.56528899
2.5600,21.64606184
2.5650,21.72661703
2.5700,21.80672597
2.5750,21.88631631
2.5800,21.96510593
2.5850,22.04291758
2.5900,22.11970979
2.5950,22.19559501
2.6000,22.27061591
2.6050,22.34468194
2.6100,22.41751489
2.6150,22.48940532
2.6200,22.56028842
2.6250,22.63030183
2.6300,22.69958828
2.6350,22.7683729
2.6400,22.83669441
2.6450,22.90470431
2.6500,22.97238093
2.6550,23.03996115
2.6600,23.10729722
2.6650,23.17448935
2.6700,23.24128509
2.6750,23.30766152
2.6800,23.37320651
2.6850,23.43790386
2.6900,23.50177945
2.6950,23.56479048
2.7000,23.62673149
2.7050,23.68728969
2.7100,23.74649646
2.7150,23.8040976
2.7200,23.86022723
2.7250,23.91497442
2.7300,23.96827943
2.7350,24.02023921
2.7400,24.070922
2.7450,24.12021648
2.7500,24.16837223
2.7550,24.21555713
2.7600,24.26155059
2.7650,24.30648268
2.7700,24.35038164
2.7750,24.39333416
2.7800,24.43562939
2.7850,24.47700298
2.7900,24.51786711
2.7950,24.55833337
2.8000,24.59843697
2.8050,24.63842617
2.8100,24.67824694
2.8150,24.71801493
2.8200,24.75771073
2.8250,24.79727565
2.8300,24.83705122
2.8350,24.87680736
2.8400,24.91652848
2.8450,24.95612452
2.8500,24.99578774
2.8550,25.03542121
2.8600,25.0750433
2.8650,25.11439889
2.8700,25.15358007
2.8750,25.19257283
2.8800,25.23140143
2.8850,25.2699903
2.8900,25.30837049
2.8950,25.34639773
2.9000,25.38402021
2.9050,25.42108192
2.9100,25.45752057
2.9150,25.49327743
2.9200,25.52860252
2.9250,25.5636288
2.9300,25.59844134
2.9350,25.63301636
2.9400,25.66761756
2.9450,25.70214424
2.9500,25.73674373
2.9550,25.77142492
2.9600,25.80627239
2.9650,25.84110211
2.9700,25.87608672
2.9750,25.9110813
2.9800,25.94619478
2.9850,25.98142178
2.9900,26.01653991
2.9950,26.05150615
3.0000,26.08623234
3.0050,26.12058481
3.0100,26.15438719
3.0150,26.18752948
3.0200,26.22019136
3.0250,26.25219946
3.0300,26.2836008
3.0350,26.31444261
3.0400,26.34480042
3.0450,26.37471573
3.0500,26.40414937
3.0550,26.43277324
3.0600,26.46087136
3.0650,26.48839849
3.0700,26.51546575
3.0750,26.54203163
3.0800,26.56802963
3.0850,26.59364166
3.0900,26.61865811
3.0950,26.64322159
3.1000,26.66733124
3.1050,26.6910217
3.1100,26.71410213
3.1150,26.73652857
3.1200,26.75839552
3.1250,26.77943456
3.1300,26.79954239
3.1350,26.81874065
3.1400,26.83707332
3.1450,26.85469609
3.1500,26.871577
3.1550,26.88768683
3.1600,26.90311535
3.1650,26.9177644
3.1700,26.9319272
3.1750,26.94540528
3.1800,26.95823202
3.1850,26.97059114
3.1900,26.98237078
3.1950,26.99350571
3.2000,27.00400565
3.2050,27.01386337
3.2100,27.02294735
3.2150,27.0309973
3.2200,27.03785972
3.2250,27.04342118
3.2300,27.04782758
3.2350,27.05116356
3.2400,27.05315222
3.2450,27.05398977
3.2500,27.05350345
3.2550,27.05175271
3.2600,27.0488054
3.2650,27.0448883
3.2700,27.03999831
3.2750,27.03431221
3.2800,27.02787153
3.2850,27.02057808
3.2900,27.01274272
3.2950,27.00443292
3.3000,26.99579336
3.3050,26.98683432
3.3100,26.97770363
3.3150,26.96853032
3.3200,26.95910798
3.3250,26.94950414
3.3300,26.93997428
3.3350,26.93052932
3.3400,26.92100516
3.3450,26.9113104
3.3500,26.90144564
3.3550,26.89177754
3.3600,26.88221609
3.3650,26.87294222
3.3700,26.86386535
3.3750,26.85513096
3.3800,26.84672364
3.3850,26.83848644
3.3900,26.8306026
3.3950,26.82292714
3.4000,26.81559846
3.4050,26.8084334
3.4100,26.80196089
3.4150,26.79612566
3.4200,26.7910184
3.4250,26.78664269
3.4300,26.78284414
3.4350,26.77993279
3.4400,26.77778712
3.4450,26.77661584
3.4500,26.77645928
3.4550,26.77759766
3.4600,26.78019387
3.4650,26.78422801
3.4700,26.78970019
3.4750,26.79675725
3.4800,26.80559093
3.4850,26.81589749
3.4900,26.82784438
3.4950,26.84149789
3.5000,26.85665682
3.5050,26.87342711
3.5100,26.8918501
3.5150,26.91177173
3.5200,26.93316402
3.5250,26.95570726
3.5300,26.97916565
3.5350,27.00337155
3.5400,27.02834928
3.5450,27.054062
3.5500,27.08038155
3.5550,27.10723256
3.5600,27.13453412
3.5650,27.16202643
3.5700,27.18957098
3.5750,27.21692383
3.5800,27.24401328
3.5850,27.27087163
3.5900,27.29715862
3.5950,27.32288824
3.6000,27.34777063
3.6050,27.37169156
3.6100,27.39445355
3.6150,27.41600372
3.6200,27.43628884
3.6250,27.45517269
3.6300,27.47213651
3.6350,27.48735324
3.6400,27.5007412
3.6450,27.51238881
3.6500,27.52201838
3.6550,27.52931671
3.6600,27.5344196
3.6650,27.53715963
3.6700,27.53771835
3.6750,27.53577172
3.6800,27.5316439
3.6850,27.52535242
3.6900,27.5167595
3.6950,27.5059885
3.7000,27.49298771
3.7050,27.47784817
3.7100,27.46022439
3.7150,27.44014701
3.7200,27.41769409
3.7250,27.3932514
3.7300,27.36700549
3.7350,27.33898457
3.7400,27.30973259
3.7450,27.27938609
3.7500,27.24816758
3.7550,27.21621639
3.7600,27.18345258
3.7650,27.15051956
3.7700,27.11752419
3.7750,27.0848414
3.7800,27.05245514
3.7850,27.0207624
3.7900,26.98990856
3.7950,26.9599206
3.8000,26.93106432
3.8050,26.90333993
3.8100,26.87676451
3.8150,26.85166673
3.8200,26.82799867
3.8250,26.80591845
3.8300,26.78521358
3.8350,26.76578405
3.8400,26.74734465
3.8450,26.72976383
3.8500,26.71302344
3.8550,26.69701233
3.8600,26.68144575
3.8650,26.66639847
3.8700,26.65182756
3.8750,26.63780021
3.8800,26.62438982
3.8850,26.61158979
3.8900,26.5994578
3.8950,26.58804617
3.9000,26.57745133
3.9050,26.56770371
3.9100,26.55897645
3.9150,26.55092728
3.9200,26.54366615
3.9250,26.53716128
3.9300,26.5316085
3.9350,26.52683878
3.9400,26.52280298
3.9450,26.51944912
3.9500,26.51683094
3.9550,26.51483275
3.9600,26.51317702
3.9650,26.51200517
3.9700,26.51106959
3.9750,26.5104784
3.9800,26.50987752
3.9850,26.50925511
3.9900,26.50867172
3.9950,26.50790691
4.0000,26.50702887
4.0050,26.50611058
4.0100,26.50525095
4.0150,26.50460663
4.0200,26.50403867
4.0250,26.50332396
4.0300,26.50263607
4.0350,26.50207292
4.0400,26.50135136
4.0450,26.50047683
4.0500,26.49938061
4.0550,26.49824542
4.0600,26.49725138
4.0650,26.49614289
4.0700,26.49494461
4.0750,26.49346958
4.0800,26.49184982
4.0850,26.49026616
4.0900,26.488527
4.0950,26.48665884
4.1000,26.48467409
4.1050,26.48247448
4.1100,26.48031956
4.1150,26.47790809
4.1200,26.47531074
4.1250,26.47249412
4.1300,26.4695213
4.1350,26.46650295
4.1400,26.4634986
4.1450,26.46060625
4.1500,26.45788791
4.1550,26.45535988
4.1600,26.45335186
4.1650,26.45181169
4.1700,26.45072705
4.1750,26.45001703
4.1800,26.44971928
4.1850,26.44976891
4.1900,26.45037755
4.1950,26.45142423
4.2000,26.45291992
4.2050,26.45492641
4.2100,26.45713255
4.2150,26.45969671
4.2200,26.46250588
4.2250,26.46564438
4.2300,26.46884307
4.2350,26.47207638
4.2400,26.47535012
4.2450,26.47843501
4.2500,26.4813247
4.2550,26.48399217
4.2600,26.48648084
4.2650,26.48846319
4.2700,26.48983535
4.2750,26.49048875
4.2800,26.49045156
4.2850,26.48962289
4.2900,26.48806071
4.2950,26.4857756
4.3000,26.48256616
4.3050,26.47832281
4.3100,26.47317046
4.3150,26.46678206
4.3200,26.4594197
4.3250,26.45107603
4.3300,26.44155667
4.3350,26.43086921
4.3400,26.41880315
4.3450,26.40528173
4.3500,26.39026889
4.3550,26.3732987
4.3600,26.35442655
4.3650,26.333537
4.3700,26.31067285
4.3750,26.28590306
4.3800,26.2592321
4.3850,26.23055439
4.3900,26.19983753
4.3950,26.16725493
4.4000,26.13289069
4.4050,26.09680707
4.4100,26.05889042
4.4150,26.01929066
4.4200,25.97807706
4.4250,25.93509157
4.4300,25.89047715
4.4350,25.84418003
4.4400,25.79643102
4.4450,25.74721908
4.4500,25.69674918
4.4550,25.6450809
4.4600,25.59218512
4.4650,25.53818937
4.4700,25.48317591
4.4750,25.4273295
4.4800,25.37074386
4.4850,25.3133903
4.4900,25.25507496
4.4950,25.19581339
4.5000,25.13563388
4.5050,25.07452177
4.5100,25.01272671
4.5150,24.95034188
4.5200,24.88740425
4.5250,24.8240254
4.5300,24.76034832
4.5350,24.69640177
4.5400,24.63215608
4.5450,24.5678634
4.5500,24.5034575
4.5550,24.43909862
4.5600,24.37485036
4.5650,24.31079067
4.5700,24.24689591
4.5750,24.18337277
4.5800,24.12012411
4.5850,24.05721185
4.5900,23.99463314
4.5950,23.9324012
4.6000,23.8706637
4.6050,23.80930237
4.6100,23.74820138
4.6150,23.68747116
4.6200,23.62706142
4.6250,23.56670358
4.6300,23.50629473
4.6350,23.44558657
4.6400,23.3844942
4.6450,23.32276188
4.6500,23.26034964
4.6550,23.19722873
4.6600,23.13318772
4.6650,23.06834298
4.6700,23.00254826
4.6750,22.93580325
4.6800,22.8682097
4.6850,22.79971537
4.6900,22.7306225
4.6950,22.66102444
4.7000,22.59078236
4.7050,22.52000149
4.7100,22.44865661
4.7150,22.37668857
4.7200,22.30401849
4.7250,22.23080945
4.7300,22.15678132
4.7350,22.08215099
4.7400,22.0068302
4.7450,21.93079682
4.7500,21.8539642
4.7550,21.77605149
4.7600,21.69703591
4.7650,21.61666292
4.7700,21.53498629
4.7750,21.45180202
4.7800,21.3669194
4.7850,21.28020183
4.7900,21.19175173
4.7950,21.10142285
4.8000,21.00935807
4.8050,20.91553417
4.8100,20.82027876
4.8150,20.72362719
4.8200,20.62566831
4.8250,20.52650167
4.8300,20.42641457
4.8350,20.32560002
4.8400,20.22428111
4.8450,20.12253892
4.8500,20.02033489
4.8550,19.9178234
4.8600,19.81512713
4.8650,19.7123598
4.8700,19.6099921
4.8750,19.50785677
4.8800,19.40637608
4.8850,19.30583162
4.8900,19.20648659
4.8950,19.10856042
4.9000,19.0121799
4.9050,18.91749707
4.9100,18.8244659
4.9150,18.73328858
4.9200,18.64354381
4.9250,18.55553207
4.9300,18.46904289
4.9350,18.38415264
4.9400,18.30062184
4.9450,18.21850453
4.9500,18.13772587
4.9550,18.05820021
4.9600,17.97979622
4.9650,17.90236543
4.9700,17.82572957
4.9750,17.74993058
4.9800,17.6746679
4.9850,17.59970467
4.9900,17.52482295
4.9950,17.44950105
5.0000,17.3737694
5.0050,17.29747054
5.0100,17.22057235
5.0150,17.14308076
5.0200,17.06511757
5.0250,16.98656533
5.0300,16.9078166
5.0350,16.82878169
5.0400,16.74936585
5.0450,16.66961682
5.0500,16.58935985
5.0550,16.50860321
5.0600,16.42724917
5.0650,16.34525721
5.0700,16.26256939
5.0750,16.17906829
5.0800,16.09495542
5.0850,16.01031475
5.0900,15.92513595
5.0950,15.83964005
5.1000,15.75391681
5.1050,15.66808243
5.1100,15.58226818
5.1150,15.49650916
5.1200,15.41101087
5.1250,15.32578555
5.1300,15.2407413
5.1350,15.15581662
5.1400,15.07102968
5.1450,14.986386
5.1500,14.90223082
5.1550,14.81844588
5.1600,14.7352372
5.1650,14.65275864
5.1700,14.5708399
5.1750,14.49008181
5.1800,14.41042212
5.1850,14.33185781
5.1900,14.25419103
5.1950,14.17749809
5.2000,14.10159153
5.2050,14.02659655
5.2100,13.95256159
5.2150,13.87937012
5.2200,13.80696528
5.2250,13.73509834
5.2300,13.66390832
5.2350,13.59340779
5.2400,13.52378627
5.2450,13.4550646
5.2500,13.38723597
5.2550,13.32025362
5.2600,13.2540084
5.2650,13.18831406
5.2700,13.12316814
5.2750,13.05819148
5.2800,12.99303777
5.2850,12.92727497
5.2900,12.86070978
5.2950,12.79327477
5.3000,12.72475612
5.3050,12.65505455
5.3100,12.5840988
5.3150,12.51194975
5.3200,12.43846294
5.3250,12.36375168
5.3300,12.28781783
5.3350,12.21058219
5.3400,12.13210645
5.3450,12.05223986
5.3500,11.97109853
5.3550,11.88856126
5.3600,11.80470359
5.3650,11.71976224
5.3700,11.63360784
5.3750,11.54643322
5.3800,11.45803388
5.3850,11.36849926
5.3900,11.27774031
5.3950,11.18573395
5.4000,11.09246415
5.4050,10.99764207
5.4100,10.90109554
5.4150,10.80275091
5.4200,10.70251949
5.4250,10.60036694
5.4300,10.49652067
5.4350,10.39107592
5.4400,10.28417967
5.4450,10.17614252
5.4500,10.06701534
5.4550,9.957356163
5.4600,9.847429397
5.4650,9.737687686
5.4700,9.628772284
5.4750,9.520595086
5.4800,9.413624396
5.4850,9.308090381
5.4900,9.204290147
5.4950,9.102329656
5.5000,9.00248434
5.5050,8.904866203
5.5100,8.809443942
5.5150,8.716183527
5.5200,8.625384079
5.5250,8.537103146
5.5300,8.451487355
5.5350,8.368271634
5.5400,8.287625013
5.5450,8.209586849
5.5500,8.133937619
5.5550,8.060807872
5.5600,7.990180548
5.5650,7.921922749
5.5700,7.855961511
5.5750,7.792265296
5.5800,7.730946037
5.5850,7.672285266
5.5900,7.616197359
5.5950,7.562806639
5.6000,7.512098768
5.6050,7.464126655
5.6100,7.41882531
5.6150,7.376169431
5.6200,7.335988969
5.6250,7.298284071
5.6300,7.262714048
5.6350,7.229179889
5.6400,7.197490288
5.6450,7.167466368
5.6500,7.138858218
5.6550,7.111776768
5.6600,7.085868189
5.6650,7.061108605
5.6700,7.037427277
5.6750,7.014876225
5.6800,6.993500841
5.6850,6.973116866
5.6900,6.953964633
5.6950,6.93568418
5.7000,6.918090552
5.7050,6.901318733
5.7100,6.885149435
5.7150,6.869473492
5.7200,6.854009093
5.7250,6.838781541
5.7300,6.823450279
5.7350,6.807978091
5.7400,6.792198001
5.7450,6.776022171
5.7500,6.759474712
5.7550,6.742346434
5.7600,6.724483516
5.7650,6.70557988
5.7700,6.685503344
5.7750,6.664261956
5.7800,6.641776425
5.7850,6.617987783
5.7900,6.592979986
5.7950,6.566823669
5.8000,6.539533475
5.8050,6.511169768
5.8100,6.481901965
5.8150,6.451790495
5.8200,6.420932721
5.8250,6.389469532
5.8300,6.357428545
5.8350,6.324824109
5.8400,6.291611467
5.8450,6.257762995
5.8500,6.22323232
5.8550,6.188077491
5.8600,6.15237558
5.8650,6.116264063
5.8700,6.079830461
5.8750,6.043326191
5.8800,6.006879449
5.8850,5.970704054
5.8900,5.934906405
5.8950,5.899551474
5.9000,5.864873588
5.9050,5.830817036
5.9100,5.797384939
5.9150,5.764613266
5.9200,5.732653899
5.9250,5.701366631
5.9300,5.67078616
5.9350,5.641056968
5.9400,5.61225931
5.9450,5.584563047
5.9500,5.558045191
5.9550,5.532675702
5.9600,5.508601297
5.9650,5.485839744
5.9700,5.46430618
5.9750,5.444204441
5.9800,5.42538605
5.9850,5.40816934
5.9900,5.392347529
5.9950,5.378174417
6.0000,5.365579508
6.0050,5.354621727
6.0100,5.345122593
6.0150,5.337351295
6.0200,5.331295715
6.0250,5.326762358
6.0300,5.323841247
6.0350,5.322396205
6.0400,5.322482564
6.0450,5.323903091
6.0500,5.326671567
6.0550,5.33083348
6.0600,5.336339127
6.0650,5.343209077
6.0700,5.351400175
6.0750,5.360887953
6.0800,5.371374729
6.0850,5.382907259
6.0900,5.395197486
6.0950,5.408299757
6.1000,5.422220523
6.1050,5.436892214
6.1100,5.452311052
6.1150,5.468548849
6.1200,5.485610534
6.1250,5.503459054
6.1300,5.52183773
6.1350,5.541044333
6.1400,5.560930002
6.1450,5.581226159
6.1500,5.6020333
6.1550,5.623142646
6.1600,5.644316576
6.1650,5.665566644
6.1700,5.686536687
6.1750,5.707098543
6.1800,5.727191579
6.1850,5.746664089
6.1900,5.765559002
6.1950,5.78395334
6.2000,5.801763564
6.2050,5.819179697
6.2100,5.836339565
6.2150,5.853202442
6.2200,5.869738525
6.2250,5.88601135
6.2300,5.902074231
6.2350,5.917667741
6.2400,5.932933317
6.2450,5.947742049
6.2500,5.962107161
6.2550,5.976105604
6.2600,5.989845387
6.2650,6.003148527
6.2700,6.016291645
6.2750,6.02901385
6.2800,6.041438282
6.2850,6.053436451
6.2900,6.065020487
6.2950,6.076137406
6.3000,6.086867584
6.3050,6.097118361
6.3100,6.107015596
6.3150,6.116371931
6.3200,6.125180161
6.3250,6.13349768
6.3300,6.141419738
6.3350,6.148886842
6.3400,6.15610247
6.3450,6.16292828
6.3500,6.169528229
6.3550,6.176024995
6.3600,6.182248484
6.3650,6.18849691
6.3700,6.194637881
6.3750,6.200717099
6.3800,6.207051696
6.3850,6.213564657
6.3900,6.220342985
6.3950,6.227300417
6.4000,6.234685645
6.4050,6.24237505
6.4100,6.250520317
6.4150,6.259050583
6.4200,6.267844848
6.4250,6.277104589
6.4300,6.286885465
6.4350,6.297013693
6.4400,6.307555406
6.4450,6.318591609
6.4500,6.330072419
6.4550,6.341807865
6.4600,6.353943252
6.4650,6.366373472
6.4700,6.379102708
6.4750,6.392079382
6.4800,6.405279206
6.4850,6.418662086
6.4900,6.432082413
6.4950,6.445384016
6.5000,6.458520726
6.5050,6.471308709
6.5100,6.483642388
6.5150,6.495518031
6.5200,6.506790634
6.5250,6.517517236
6.5300,6.527469841
6.5350,6.536838749
6.5400,6.545451527
6.5450,6.553350302
6.5500,6.560422472
6.5550,6.56656079
6.5600,6.571742026
6.5650,6.575989032
6.5700,6.579085315
6.5750,6.581065602
6.5800,6.581924281
6.5850,6.581605022
6.5900,6.580089443
6.5950,6.577345943
6.6000,6.573349127
6.6050,6.568211238
6.6100,6.561837696
6.6150,6.554266141
6.6200,6.545516161
6.6250,6.535596282
6.6300,6.524490564
6.6350,6.512456014
6.6400,6.499283917
6.6450,6.485238775
6.6500,6.470294958
6.6550,6.454382077
6.6600,6.437551552
6.6650,6.419743503
6.6700,6.401061576
6.6750,6.381455002
6.6800,6.360899993
6.6850,6.339592525
6.6900,6.317609078
6.6950,6.29504635
6.7000,6.271722543
6.7050,6.247757009
6.7100,6.223102487
6.7150,6.197907125
6.7200,6.17217815
6.7250,6.145793098
6.7300,6.118899961
6.7350,6.091444096
6.7400,6.06347338
6.7450,6.034959585
6.7500,6.005958925
6.7550,5.976665681
6.7600,5.947090711
6.7650,5.917087225
6.7700,5.886922539
6.7750,5.856654537
6.7800,5.826360161
6.7850,5.795903882
6.7900,5.765535218
6.7950,5.735281266
6.8000,5.70514638
6.8050,5.675149023
6.8100,5.645370432
6.8150,5.615722211
6.8200,5.586246556
6.8250,5.556748839
6.8300,5.527418549
6.8350,5.498109681
6.8400,5.468700025
6.8450,5.439290034
6.8500,5.409987369
6.8550,5.38065
6.8600,5.351120121
6.8650,5.321552136
6.8700,5.292122015
6.8750,5.262770311
6.8800,5.23349087
6.8850,5.2041876
6.8900,5.174922921
6.8950,5.145797742
6.9000,5.11682372
6.9050,5.087931244
6.9100,5.059247416
6.9150,5.030880807
6.9200,5.002971047
6.9250,4.975721727
6.9300,4.949065622
6.9350,4.923010939
6.9400,4.897747475
6.9450,4.873329978
6.9500,4.849702824
6.9550,4.82678576
6.9600,4.804947904
6.9650,4.784284472
6.9700,4.764781881
6.9750,4.74677657
6.9800,4.730100982
6.9850,4.714771464
6.9900,4.700875102
6.9950,4.688493854
7.0000,4.677699027
7.0050,4.668569916
7.0100,4.661159488
7.0150,4.655498445
7.0200,4.651634036
7.0250,4.649707521
7.0300,4.649560023
7.0350,4.651250559
7.0400,4.654835331
7.0450,4.660161761
7.0500,4.667210899
7.0550,4.675964355
7.0600,4.68623622
7.0650,4.698017983
7.0700,4.711364309
7.0750,4.726088664
7.0800,4.741970832
7.0850,4.759139404
7.0900,4.777448965
7.0950,4.796757159
7.1000,4.816964497
7.1050,4.83782547
7.1100,4.859415315
7.1150,4.8814812
7.1200,4.904087669
7.1250,4.927007895
7.1300,4.950214752
7.1350,4.97354827
7.1400,4.996926681
7.1450,5.020259922
7.1500,5.043208632
7.1550,5.065948437
7.1600,5.08830015
7.1650,5.110155939
7.1700,5.13127657
7.1750,5.151559849
7.1800,5.170988649
7.1850,5.189577579
7.1900,5.207313502
7.1950,5.224144174
7.2000,5.240161119
7.2050,5.255251126
7.2100,5.269345078
7.2150,5.282529278
7.2200,5.294936716
7.2250,5.3063208
7.2300,5.316766992
7.2350,5.326274745
7.2400,5.334882542
7.2450,5.342597957
7.2500,5.349554514
7.2550,5.356007637
7.2600,5.361673391
7.2650,5.366759105
7.2700,5.371277602
7.2750,5.375355594
7.2800,5.379114403
7.2850,5.382716504
7.2900,5.386350747
7.2950,5.389974067
7.3000,5.393681223
7.3050,5.397671034
7.3100,5.401763076
7.3150,5.40603957
7.3200,5.410531904
7.3250,5.415090559
7.3300,5.419654058
7.3350,5.424195119
7.3400,5.428532321
7.3450,5.432587818
7.3500,5.436324041
7.3550,5.439710432
7.3600,5.442536277
7.3650,5.444956475
7.3700,5.446594896
7.3750,5.447425937
7.3800,5.447569633
7.3850,5.44681552
7.3900,5.445164566
7.3950,5.442755589
7.4000,5.439500772
7.4050,5.435742841
7.4100,5.431232259
7.4150,5.426226728
7.4200,5.42072456
7.4250,5.415050425
7.4300,5.409160274
7.4350,5.403146046
7.4400,5.397244645
7.4450,5.391484627
7.4500,5.386149931
7.4550,5.380954572
7.4600,5.376180409
7.4650,5.371577491
7.4700,5.367117737
7.4750,5.362835015
7.4800,5.358610727
7.4850,5.354328145
7.4900,5.349865472
7.4950,5.345162212
7.5000,5.340049075
7.5050,5.334647798
7.5100,5.329053941
7.5150,5.323095853
7.5200,5.316737317
7.5250,5.310153677
7.5300,5.303453559
7.5350,5.296545333
7.5400,5.289364136
7.5450,5.282113011
7.5500,5.274810368
7.5550,5.26714448
7.5600,5.25946224
7.5650,5.251428064
7.5700,5.243333047
7.5750,5.235081676
7.5800,5.226783491
7.5850,5.21837837
7.5900,5.210022066
7.5950,5.201624324
7.6000,5.193186928
7.6050,5.184507506
7.6100,5.175828704
7.6150,5.166903972
7.6200,5.157657021
7.6250,5.147962713
7.6300,5.137732713
7.6350,5.126739527
7.6400,5.114743834
7.6450,5.101807873
7.6500,5.087654807
7.6550,5.072397148
7.6600,5.056033994
7.6650,5.038470224
7.6700,5.019890042
7.6750,5.000362119
7.6800,4.97988817
7.6850,4.958660868
7.6900,4.936842056
7.6950,4.914396496
7.7000,4.891575282
7.7050,4.868365928
7.7100,4.844978471
7.7150,4.821365955
7.7200,4.797648858
7.7250,4.773674118
7.7300,4.749466713
7.7350,4.72508096
7.7400,4.700437646
7.7450,4.675380031
7.7500,4.649730656
7.7550,4.623777646
7.7600,4.597245332
7.7650,4.570224542
7.7700,4.542794843
7.7750,4.515017491
7.7800,4.486970125
7.7850,4.45890822
7.7900,4.430889332
7.7950,4.403170142
7.8000,4.376075799
7.8050,4.349621035
7.8100,4.323984374
7.8150,4.299338953
7.8200,4.275795502
7.8250,4.253565107
7.8300,4.232573738
7.8350,4.21298613
7.8400,4.194902807
7.8450,4.178061921
7.8500,4.162614477
7.8550,4.148728029
7.8600,4.13614933
7.8650,4.124941846
7.8700,4.11498259
7.8750,4.106234778
7.8800,4.098570172
7.8850,4.091847849
7.8900,4.085764588
7.8950,4.080301586
7.9000,4.075355163
7.9050,4.070833214
7.9100,4.066389419
7.9150,4.061934777
7.9200,4.057423098
7.9250,4.052786858
7.9300,4.047935432
7.9350,4.042987424
7.9400,4.037853794
7.9450,4.032604913
7.9500,4.027269069
7.9550,4.021624549
7.9600,4.015829629
7.9650,4.009810421
7.9700,4.003561009
7.9750,3.996873853
7.9800,3.989701685
7.9850,3.98213823
7.9900,3.973903589
7.9950,3.96520349
8.0000,3.95598218
8.0050,3.946416189
8.0100,3.93650251
8.0150,3.926527082
8.0200,3.916360733
8.0250,3.90641965
8.0300,3.896638195
8.0350,3.887275365
8.0400,3.878340935
8.0450,3.870090817
8.0500,3.862593178
8.0550,3.855786899
8.0600,3.849874801
8.0650,3.845065777
8.0700,3.841281826
8.0750,3.838487725
8.0800,3.8367987
8.0850,3.836183247
8.0900,3.836673547
8.0950,3.838203286
8.1000,3.840874136
8.1050,3.844673243
8.1100,3.849648396
8.1150,3.856083534
8.1200,3.863868083
8.1250,3.872876083
8.1300,3.883351692
8.1350,3.895496377
8.1400,3.909089999
8.1450,3.924324816
8.1500,3.940976327
8.1550,3.959055167
8.1600,3.978753539
8.1650,3.999849358
8.1700,4.022413426
8.1750,4.046132502
8.1800,4.071069096
8.1850,4.097092702
8.1900,4.124303228
8.1950,4.152759498
8.2000,4.182423051
8.2050,4.213422663
8.2100,4.245781464
8.2150,4.279538576
8.2200,4.314703265
8.2250,4.351241159
8.2300,4.389317935
8.2350,4.428831714
8.2400,4.469997831
8.2450,4.512752465
8.2500,4.557128777
8.2550,4.603134549
8.2600,4.650665148
8.2650,4.699898178
8.2700,4.750767135
8.2750,4.803381909
8.2800,4.857712728
8.2850,4.913644999
8.2900,4.97132461
8.2950,5.030477545
8.3000,5.09105395
8.3050,5.153028889
8.3100,5.216219176
8.3150,5.280560685
8.3200,5.346205971
8.3250,5.412956563
8.3300,5.480887709
8.3350,5.549960765
8.3400,5.620059935
8.3450,5.691090185
8.3500,5.763201177
8.3550,5.836254733
8.3600,5.910331263
8.3650,5.985074068
8.3700,6.060832771
8.3750,6.137579708
8.3800,6.215075073
8.3850,6.29339227
8.3900,6.372723408
8.3950,6.453244357
8.4000,6.534451227
8.4050,6.616588163
8.4100,6.699627882
8.4150,6.783301456
8.4200,6.86774004
8.4250,6.952847935
8.4300,7.038504872
8.4350,7.124346095
8.4400,7.210687302
8.4450,7.297466098
8.4500,7.384621363
8.4550,7.472239686
8.4600,7.560317587
8.4650,7.649202222
8.4700,7.738631492
8.4750,7.828963761
8.4800,7.920299884
8.4850,8.01281721
8.4900,8.106660774
8.4950,8.201840418
8.5000,8.29837475
8.5050,8.395901191
8.5100,8.494424765
8.5150,8.593848772
8.5200,8.694006493
8.5250,8.795011063
8.5300,8.896886556
8.5350,8.999594363
8.5400,9.103314699
8.5450,9.208216447
8.5500,9.314484839
8.5550,9.422318895
8.5600,9.531714666
8.5650,9.642464785
8.5700,9.75434274
8.5750,9.867147915
8.5800,9.98072966
8.5850,10.09495248
8.5900,10.2095878
8.5950,10.32488549
8.6000,10.44082225
8.6050,10.55728661
8.6100,10.6745522
8.6150,10.79236811
8.6200,10.9105948
8.6250,11.02918694
8.6300,11.14824275
8.6350,11.26744666
8.6400,11.38674525
8.6450,11.50613716
8.6500,11.62546101
8.6550,11.74470963
8.6600,11.86394342
8.6650,11.98316076
8.6700,12.1020835
8.6750,12.22055522
8.6800,12.33857014
8.6850,12.45585589
8.6900,12.57219465
8.6950,12.68720733
8.7000,12.80088896
8.7050,12.91282326
8.7100,13.02279525
8.7150,13.13085775
8.7200,13.23703017
8.7250,13.34160016
8.7300,13.44500653
8.7350,13.54773229
8.7400,13.64981992
8.7450,13.75140876
8.7500,13.852751
8.7550,13.95371625
8.7600,14.0542634
8.7650,14.15466145
8.7700,14.25537782
8.7750,14.35647694
8.7800,14.45796581
8.7850,14.56002486
8.7900,14.66241737
8.7950,14.76508783
8.8000,14.86818063
8.8050,14.97195001
8.8100,15.07638287
8.8150,15.18163889
8.8200,15.28825126
8.8250,15.39621582
8.8300,15.50567504
8.8350,15.61674342
8.8400,15.72933209
8.8450,15.84330169
8.8500,15.95867489
8.8550,16.07521023
8.8600,16.19308979
8.8650,16.31246904
8.8700,16.43350855
8.8750,16.55613749
8.8800,16.680416
8.8850,16.8060572
8.8900,16.93277221
8.8950,17.06018069
8.9000,17.18802618
8.9050,17.31580076
8.9100,17.44281126
8.9150,17.56900728
8.9200,17.69422099
8.9250,17.81836939
8.9300,17.94131153
8.9350,18.06333714
8.9400,18.1846282
8.9450,18.30502655
8.9500,18.42429366
8.9550,18.54249192
8.9600,18.65968036
8.9650,18.77609814
8.9700,18.89179078
8.9750,19.00677909
8.9800,19.12132124
8.9850,19.2355668
8.9900,19.3494041
8.9950,19.4626501
9.0000,19.57514721
9.0050,19.68674502
9.0100,19.79746182
9.0150,19.90696817
9.0200,20.01499988
9.0250,20.12120531
9.0300,20.22555871
9.0350,20.32762591
9.0400,20.42735165
9.0450,20.52476204
9.0500,20.61991422
9.0550,20.71300343
9.0600,20.80431076
9.0650,20.89377551
9.0700,20.98154051
9.0750,21.06774713
9.0800,21.15268913
9.0850,21.23603416
9.0900,21.31796444
9.0950,21.39871195
9.1000,21.47817029
9.1050,21.55631269
9.1100,21.63306565
9.1150,21.7082437
9.1200,21.78130751
9.1250,21.85221122
9.1300,21.92059667
9.1350,21.98629285
9.1400,22.04947561
9.1450,22.11012839
9.1500,22.16860961
9.1550,22.22507891
9.1600,22.27970357
9.1650,22.33269749
9.1700,22.38413973
9.1750,22.43429286
9.1800,22.48297183
9.1850,22.5306217
9.1900,22.57772311
9.1950,22.62463735
9.2000,22.6712618
9.2050,22.71795266
9.2100,22.76510482
9.2150,22.81291892
9.2200,22.86123265
9.2250,22.90996459
9.2300,22.95899553
9.2350,23.00815141
9.2400,23.05753621
9.2450,23.10695044
9.2500,23.15653798
9.2550,23.20632855
9.2600,23.25609874
9.2650,23.30593425
9.2700,23.35612415
9.2750,23.40695973
9.2800,23.45834387
9.2850,23.51055895
9.2900,23.56382327
9.2950,23.61843679
9.3000,23.6748877
9.3050,23.73341684
9.3100,23.79401143
9.3150,23.85649775
9.3200,23.92097523
9.3250,23.98726065
9.3300,24.05478618
9.3350,24.12376626
9.3400,24.19396684
9.3450,24.26522256
9.3500,24.33740291
9.3550,24.41051052
9.3600,24.48422356
9.3650,24.55836409
9.3700,24.6324636
9.3750,24.7061565
9.3800,24.77917107
9.3850,24.85152916
9.3900,24.9229958
9.3950,24.99332628
9.4000,25.06225217
9.4050,25.12969403
9.4100,25.1957031
9.4150,25.26014533
9.4200,25.32306018
9.4250,25.38424049
9.4300,25.44383386
9.4350,25.50180397
9.4400,25.55800772
9.4450,25.61255836
9.4500,25.66487786
9.4550,25.71494025
9.4600,25.76285566
9.4650,25.80847271
9.4700,25.85186878
9.4750,25.8932146
9.4800,25.93274401
9.4850,25.97027971
9.4900,26.00565133
9.4950,26.0388187
9.5000,26.07001581
9.5050,26.09940136
9.5100,26.12701527
9.5150,26.15248621
9.5200,26.17627512
9.5250,26.19839983
9.5300,26.21902987
9.5350,26.23825042
9.5400,26.25593753
9.5450,26.27244242
9.5500,26.28788761
9.5550,26.30239304
9.5600,26.31625128
9.5650,26.32958504
9.5700,26.34238521
9.5750,26.35483965
9.5800,26.36700411
9.5850,26.37889686
9.5900,26.39057736
9.5950,26.40222901
9.6000,26.41371208
9.6050,26.42511284
9.6100,26.43630024
9.6150,26.44742559
9.6200,26.45832208
9.6250,26.46914262
9.6300,26.48000897
9.6350,26.49046931
9.6400,26.50051249
9.6450,26.51015131
9.6500,26.51924948
9.6550,26.52791714
9.6600,26.53602744
9.6650,26.54351739
9.6700,26.5502924
9.6750,26.55647571
9.6800,26.56206583
9.6850,26.5671695
9.6900,26.57182895
9.6950,26.57584829
9.7000,26.57943681
9.7050,26.58256911
9.7100,26.58523966
9.7150,26.58742929
9.7200,26.58936348
9.7250,26.59110008
9.7300,26.59257123
9.7350,26.59402989
9.7400,26.59532316
9.7450,26.59625619
9.7500,26.59696437
9.7550,26.59751391
9.7600,26.59782736
9.7650,26.59786162
9.7700,26.59756564
9.7750,26.59699363
9.7800,26.59620165
9.7850,26.59531574
9.7900,26.59437678
9.7950,26.59311763
9.8000,26.59171708
9.8050,26.59012166
9.8100,26.58854347
9.8150,26.58740277
9.8200,26.58664317
9.8250,26.58646189
9.8300,26.58680069
9.8350,26.58774912
9.8400,26.58942635
9.8450,26.59204402
9.8500,26.59574114
9.8550,26.60061019
9.8600,26.60650725
9.8650,26.61354254
9.8700,26.62171091
9.8750,26.63085464
9.8800,26.64109567
9.8850,26.65237301
9.8900,26.66446705
9.8950,26.67729233
9.9000,26.69089854
9.9050,26.70495157
9.9100,26.71961457
9.9150,26.73481202
9.9200,26.75056325
9.9250,26.76683122
9.9300,26.78337797
9.9350,26.80025825
9.9400,26.81740752
9.9450,26.83469109
9.9500,26.85221627
9.9550,26.86981338
9.9600,26.88760218
9.9650,26.90567544
9.9700,26.92399147
9.9750,26.94237903
9.9800,26.96083112
9.9850,26.97914997
9.9900,26.99734098
9.9950,27.01543821
10.0000,27.03347161
10.0050,27.05124223
10.0100,27.06862064
10.0150,27.08583693
10.0200,27.10244905
10.0250,27.11857289
10.0300,27.13412524
10.0350,27.14887327
10.0400,27.16271386
10.0450,27.1755328
10.0500,27.18743143
10.0550,27.19820549
10.0600,27.20773496
10.0650,27.21597549
10.0700,27.22300442
10.0750,27.22866216
10.0800,27.23316517
10.0850,27.23647993
10.0900,27.23882278
10.0950,27.24040058
10.1000,27.24112033
10.1050,27.2409615
10.1100,27.23979244
10.1150,27.23755135
10.1200,27.23417766
10.1250,27.22971942
10.1300,27.22441272
10.1350,27.21820426
10.1400,27.2111726
10.1450,27.20317799
10.1500,27.19446607
10.1550,27.18511733
10.1600,27.17532293
10.1650,27.16474949
10.1700,27.1537059
10.1750,27.14233206
10.1800,27.13059185
10.1850,27.11852193
10.1900,27.10619993
10.1950,27.09380603
10.2000,27.08123679
10.2050,27.06882328
10.2100,27.05646783
10.2150,27.04426704
10.2200,27.032285
10.2250,27.02037304
10.2300,27.00855624
10.2350,26.99668857
10.2400,26.98459813
10.2450,26.97254735
10.2500,26.960292
10.2550,26.94786366
10.2600,26.93526347
10.2650,26.92225255
10.2700,26.90890695
10.2750,26.89523766
10.2800,26.88126937
10.2850,26.8670061
10.2900,26.85241484
10.2950,26.83746658
10.3000,26.82215981
10.3050,26.80647116
10.3100,26.79051636
10.3150,26.77400152
10.3200,26.75712745
10.3250,26.73965623
10.3300,26.72167761
10.3350,26.70316419
10.3400,26.68426108
10.3450,26.6649349
10.3500,26.64500935
10.3550,26.62469827
10.3600,26.60374813
10.3650,26.58236691
10.3700,26.56016483
10.3750,26.53723685
10.3800,26.51346888
10.3850,26.48886427
10.3900,26.46335898
10.3950,26.43706224
10.4000,26.41014932
10.4050,26.38271988
10.4100,26.35495479
10.4150,26.32708426
10.4200,26.2991136
10.4250,26.27115407
10.4300,26.24333498
10.4350,26.21555872
10.4400,26.18784021
10.4450,26.16035447
10.4500,26.13307943
10.4550,26.10592045
10.4600,26.07907237
10.4650,26.05272424
10.4700,26.02666518
10.4750,26.00090031
10.4800,25.97552435
10.4850,25.95034292
10.4900,25.92539526
10.4950,25.90064001
10.5000,25.87604584
10.5050,25.85144197
10.5100,25.82674985
10.5150,25.80194247
10.5200,25.77697977
10.5250,25.75174694
10.5300,25.72633407
10.5350,25.70066443
10.5400,25.6750631
10.5450,25.64929309
10.5500,25.623476
10.5550,25.59758639
10.5600,25.57153323
10.5650,25.54527915
10.5700,25.51891242
10.5750,25.49228403
10.5800,25.46522765
10.5850,25.43782411
10.5900,25.40994517
10.5950,25.38169474
10.6000,25.35286046
10.6050,25.32351424
10.6100,25.29365423
10.6150,25.26343639
10.6200,25.23294946
10.6250,25.20218398
10.6300,25.17102498
10.6350,25.13937537
10.6400,25.10717896
10.6450,25.07448447
10.6500,25.04128323
10.6550,25.00742919
10.6600,24.97305755
10.6650,24.93824833
10.6700,24.90314605
10.6750,24.86775409
10.6800,24.83195
10.6850,24.79595365
10.6900,24.75983186
10.6950,24.72360389
10.7000,24.68714964
10.7050,24.65050436
10.7100,24.61353683
10.7150,24.57615454
10.7200,24.53832948
10.7250,24.50014563
10.7300,24.46137753
10.7350,24.42223989
10.7400,24.38274017
10.7450,24.34279189
10.7500,24.30241097
10.7550,24.26176409
10.7600,24.22062671
10.7650,24.17915519
10.7700,24.13733666
10.7750,24.09506304
10.7800,24.05233167
10.7850,24.00934838
10.7900,23.9661877
10.7950,23.92249718
10.8000,23.87841879
10.8050,23.83406238
10.8100,23.78947926
10.8150,23.74474237
10.8200,23.69982981
10.8250,23.6549097
10.8300,23.60982834
10.8350,23.56479822
10.8400,23.51966835
10.8450,23.47429967
10.8500,23.42866107
10.8550,23.38256804
10.8600,23.33601383
10.8650,23.2890213
10.8700,23.24168879
10.8750,23.19426961
10.8800,23.14686656
10.8850,23.09963559
10.8900,23.05268855
10.8950,23.00606853
10.9000,22.95963088
10.9050,22.91344087
10.9100,22.8675351
10.9150,22.82182201
10.9200,22.77613824
10.9250,22.73055956
10.9300,22.68503321
10.9350,22.6397844
10.9400,22.59491941
10.9450,22.55039798
10.9500,22.50630451
10.9550,22.46259401
10.9600,22.4193726
10.9650,22.37625374
10.9700,22.33335979
10.9750,22.29068674
10.9800,22.2481837
10.9850,22.20563154
10.9900,22.1629681
10.9950,22.119999
11.0000,22.07678818
11.0050,22.0333324
11.0100,21.98966755
11.0150,21.94569878
11.0200,21.90151948
11.0250,21.85696795
11.0300,21.81206413
11.0350,21.76672165
11.0400,21.7209618
11.0450,21.6747897
11.0500,21.62817715
11.0550,21.5812131
11.0600,21.53375455
11.0650,21.48580029
11.0700,21.43743986
11.0750,21.38866252
11.0800,21.33953268
11.0850,21.2898883
11.0900,21.23982319
11.0950,21.18963568
11.1000,21.13933161
11.1050,21.08890442
11.1100,21.03832563
11.1150,20.98756951
11.1200,20.93656621
11.1250,20.88524902
11.1300,20.83366803
11.1350,20.78190351
11.1400,20.73002788
11.1450,20.67805562
11.1500,20.62621531
11.1550,20.57444315
11.1600,20.52276685
11.1650,20.47131881
11.1700,20.4199948
11.1750,20.36873699
11.1800,20.31738269
11.1850,20.26586941
11.1900,20.21409824
11.1950,20.16189664
11.2000,20.10963428
11.2050,20.05738334
11.2100,20.00493728
11.2150,19.95218891
11.2200,19.89915202
11.2250,19.84570428
11.2300,19.79170203
11.2350,19.73696446
11.2400,19.68126062
11.2450,19.62445568
11.2500,19.56631542
11.2550,19.5067439
11.2600,19.44546019
11.2650,19.38240695
11.2700,19.31743918
11.2750,19.25028545
11.2800,19.18098143
11.2850,19.10971131
11.2900,19.03623809
11.2950,18.96069131
11.3000,18.88308265
11.3050,18.80347753
11.3100,18.72186249
11.3150,18.63840653
11.3200,18.55335116
11.3250,18.46690312
11.3300,18.37939507
11.3350,18.29126176
11.3400,18.20278159
11.3450,18.11409655
11.3500,18.02526993
11.3550,17.93651694
11.3600,17.84812225
11.3650,17.76020639
11.3700,17.67277854
11.3750,17.58607432
11.3800,17.50024742
11.3850,17.41558493
11.3900,17.33212603
11.3950,17.2496724
11.4000,17.16833602
11.4050,17.08813859
11.4100,17.00933527
11.4150,16.93201267
11.4200,16.85620164
11.4250,16.78246556
11.4300,16.71072691
11.4350,16.64108969
11.4400,16.57372048
11.4450,16.50887268
11.4500,16.44641089
11.4550,16.38653471
11.4600,16.32928179
11.4650,16.27465763
11.4700,16.22274368
11.4750,16.17328926
11.4800,16.12648373
11.4850,16.08205161
11.4900,16.03975233
11.4950,15.99962967
11.5000,15.96115444
11.5050,15.92395079
11.5100,15.88764314
11.5150,15.85205838
11.5200,15.8167576
11.5250,15.78145978
11.5300,15.74618944
11.5350,15.71073944
11.5400,15.67475101
11.5450,15.63827551
11.5500,15.60107355
11.5550,15.56319854
11.5600,15.52451414
11.5650,15.48493632
11.5700,15.44437413
11.5750,15.40285661
11.5800,15.3601923
11.5850,15.31600374
11.5900,15.27032182
11.5950,15.2232391
11.6000,15.17472464
11.6050,15.12489348
11.6100,15.07397842
11.6150,15.02206159
11.6200,14.96912304
11.6250,14.91507003
11.6300,14.86003458
11.6350,14.80375714
11.6400,14.74624265
11.6450,14.68774398
11.6500,14.62846571
11.6550,14.56829358
11.6600,14.5072131
11.6650,14.445415
11.6700,14.38286157
11.6750,14.31977905
11.6800,14.25596244
11.6850,14.19156204
11.6900,14.12642819
11.6950,14.06084067
11.7000,13.99464623
11.7050,13.92810191
11.7100,13.86107444
11.7150,13.79354128
11.7200,13.7255223
11.7250,13.65681071
11.7300,13.5875625
11.7350,13.51790203
11.7400,13.44772538
11.7450,13.37715673
11.7500,13.30645045
11.7550,13.2355009
11.7600,13.16455097
11.7650,13.09354075
11.7700,13.02249785
11.7750,12.95179152
11.7800,12.88120139
11.7850,12.81097599
11.7900,12.74111551
11.7950,12.67133035
11.8000,12.60181662
11.8050,12.53243846
11.8100,12.4633504
11.8150,12.39445559
11.8200,12.32574336
11.8250,12.25736572
11.8300,12.18911052
11.8350,12.12092397
11.8400,12.05300373
11.8450,11.98525321
11.8500,11.9176489
11.8550,11.85014118
11.8600,11.78295003
11.8650,11.71620533
11.8700,11.65001342
11.8750,11.5846342
11.8800,11.52014061
11.8850,11.4569076
11.8900,11.39500546
11.8950,11.33436583
11.9000,11.27508019
11.9050,11.21708538
11.9100,11.16019531
11.9150,11.10435567
11.9200,11.04947885
11.9250,10.99571989
11.9300,10.94283777
11.9350,10.89080519
11.9400,10.83957802
11.9450,10.78893878
11.9500,10.73879119
11.9550,10.68921935
11.9600,10.64035811
11.9650,10.59223545
11.9700,10.54505112
11.9750,10.49866488
11.9800,10.45330281
11.9850,10.40870054
11.9900,10.36504191
11.9950,10.3223188
12.0000,10.28064403
12.0050,10.23995735
12.0100,10.20025684
12.0150,10.1615913
12.0200,10.12419947
12.0250,10.08797103
12.0300,10.05308741
12.0350,10.01950215
12.0400,9.987246704
12.0450,9.9562949
12.0500,9.926424928
12.0550,9.897723161
12.0600,9.869857006
12.0650,9.842778871
12.0700,9.816326781
12.0750,9.790206087
12.0800,9.764335198
12.0850,9.738543083
12.0900,9.712885909
12.0950,9.687528656
12.1000,9.662224616
12.1050,9.636951128
12.1100,9.611743465
12.1150,9.586651794
12.1200,9.56171699
12.1250,9.536837909
12.1300,9.512082001
12.1350,9.487347882
12.1400,9.462661609
12.1450,9.43796766
12.1500,9.413410168
12.1550,9.388888976
12.1600,9.364262443
12.1650,9.339396104
12.1700,9.314339601
12.1750,9.288633735
12.1800,9.262264315
12.1850,9.234898877
12.1900,9.206590371
12.1950,9.177011956
12.2000,9.145984901
12.2050,9.113495693
12.2100,9.079679982
12.2150,9.044526219
12.2200,9.008192789
12.2250,8.970889654
12.2300,8.932730874
12.2350,8.894214936
12.2400,8.855437107
12.2450,8.816871038
12.2500,8.778833099
12.2550,8.74152322
12.2600,8.705237972
12.2650,8.670107406
12.2700,8.636184057
12.2750,8.603381481
12.2800,8.571978849
12.2850,8.542145513
12.2900,8.513843399
12.2950,8.486931246
12.3000,8.46136797
12.3050,8.437076829
12.3100,8.41398404
12.3150,8.39176437
12.3200,8.370397031
12.3250,8.349636225
12.3300,8.329336572
12.3350,8.309399782
12.3400,8.289759277
12.3450,8.270184994
12.3500,8.250796744
12.3550,8.231521842
12.3600,8.21249429
12.3650,8.193823174
12.3700,8.175423735
12.3750,8.157377673
12.3800,8.139874878
12.3850,8.123009548
12.3900,8.106786167
12.3950,8.091128359
12.4000,8.076226421
12.4050,8.062279586
12.4100,8.049281875
12.4150,8.037087122
12.4200,8.025711235
12.4250,8.015104856
12.4300,8.005247258
12.4350,7.996130337
12.4400,7.98756252
12.4450,7.97952499
12.4500,7.971818352
12.4550,7.964320384
12.4600,7.957011375
12.4650,7.949684619
12.4700,7.942189739
12.4750,7.934553694
12.4800,7.92673779
12.4850,7.918776813
12.4900,7.910380611
12.4950,7.901704863
12.5000,7.892692703
12.5050,7.88319138
12.5100,7.873177899
12.5150,7.86267031
12.5200,7.85161944
12.5250,7.840046975
12.5300,7.828205277
12.5350,7.816007978
12.5400,7.803637943
12.5450,7.791174919
12.5500,7.778635888
12.5550,7.765998344
12.5600,7.753260953
12.5650,7.74048443
12.5700,7.727703368
12.5750,7.715323577
12.5800,7.703247247
12.5850,7.691617071
12.5900,7.68059711
12.5950,7.670169211
12.6000,7.660379189
12.6050,7.650911724
12.6100,7.641673842
12.6150,7.632710828
12.6200,7.623905595
12.6250,7.615164576
12.6300,7.606454058
12.6350,7.597610796
12.6400,7.588626794
12.6450,7.57967794
12.6500,7.570519287
12.6550,7.56150212
12.6600,7.552781127
12.6650,7.544570054
12.6700,7.537210467
12.6750,7.531047608
12.6800,7.525977692
12.6850,7.52238506
12.6900,7.520288202
12.6950,7.519685322
12.7000,7.520458135
12.7050,7.522561245
12.7100,7.525775343
12.7150,7.530138387
12.7200,7.53562737
12.7250,7.542108452
12.7300,7.549562878
12.7350,7.557771294
12.7400,7.566729342
12.7450,7.576423844
12.7500,7.586880036
12.7550,7.598060965
12.7600,7.609736413
12.7650,7.62214777
12.7700,7.634990667
12.7750,7.648284195
12.7800,7.66193425
12.7850,7.67591056
12.7900,7.690149175
12.7950,7.704676197
12.8000,7.719589573
12.8050,7.734835764
12.8100,7.750518417
12.8150,7.766568028
12.8200,7.78314248
12.8250,7.800160262
12.8300,7.817287489
12.8350,7.834507623
12.8400,7.851727594
12.8450,7.868635965
12.8500,7.885369037
12.8550,7.901824731
12.8600,7.918018739
12.8650,7.933795249
12.8700,7.949157221
12.8750,7.963973706
12.8800,7.97818947
12.8850,7.991494017
12.8900,8.00386319
12.8950,8.01529222
12.9000,8.025728279
12.9050,8.035364153
12.9100,8.04425196
12.9150,8.052480726
12.9200,8.060062343
12.9250,8.067077907
12.9300,8.073382835
12.9350,8.079223955
12.9400,8.084460308
12.9450,8.089064517
12.9500,8.09321001
12.9550,8.096840476
12.9600,8.099896698
12.9650,8.102230823
12.9700,8.103776057
12.9750,8.104394211
12.9800,8.104321442
12.9850,8.103196971
12.9900,8.101008006
12.9950,8.097956568
13.0000,8.094090991
13.0050,8.089467774
13.0100,8.084235852
13.0150,8.078465918
13.0200,8.072103068
13.0250,8.065293107
13.0300,8.057766379
13.0350,8.049611
13.0400,8.040816797
13.0450,8.031126885
13.0500,8.02067062
13.0550,8.009415586
13.0600,7.997592269
13.0650,7.985087741
13.0700,7.972138591
13.0750,7.958661638
13.0800,7.944868219
13.0850,7.930664427
13.0900,7.916303836
13.0950,7.901694822
13.1000,7.886862683
13.1050,7.871741802
13.1100,7.856209962
13.1150,7.840295784
13.1200,7.823733556
13.1250,7.806426745
13.1300,7.788522215
13.1350,7.769985294
13.1400,7.750860976
13.1450,7.731536176
13.1500,7.711958016
13.1550,7.692461846
13.1600,7.673335379
13.1650,7.654752799
13.1700,7.637093947
13.1750,7.620552031
13.1800,7.605347132
13.1850,7.591707708
13.1900,7.579955526
13.1950,7.570297387
13.2000,7.562861492
13.2050,7.557563786
13.2100,7.554535187
13.2150,7.553676369
13.2200,7.554799059
13.2250,7.557752171
13.2300,7.562411094
13.2350,7.568284994
13.2400,7.575328883
13.2450,7.58326597
13.2500,7.591897339
13.2550,7.600898359
13.2600,7.610168247
13.2650,7.61946743
13.2700,7.628714339
13.2750,7.637766288
13.2800,7.6462573
13.2850,7.654273834
13.2900,7.66191391
13.2950,7.669116416
13.3000,7.675728318
13.3050,7.681704669
13.3100,7.687025667
13.3150,7.691582763
13.3200,7.695262432
13.3250,7.697977032
13.3300,7.699874483
13.3350,7.700835108
13.3400,7.70073105
13.3450,7.699760561
13.3500,7.697571915
13.3550,7.694363413
13.3600,7.689763802
13.3650,7.683542822
13.3700,7.675597884
13.3750,7.665924476
13.3800,7.654472267
13.3850,7.641409039
13.3900,7.626501568
13.3950,7.609905208
13.4000,7.59123618
13.4050,7.570641678
13.4100,7.547961207
13.4150,7.523276909
13.4200,7.496563532
13.4250,7.46801017
13.4300,7.437782239
13.4350,7.405795873
13.4400,7.372302698
13.4450,7.3371629
13.4500,7.30052658
13.4550,7.26233461
13.4600,7.222659413
13.4650,7.181500535
13.4700,7.138785839
13.4750,7.094586681
13.4800,7.048727238
13.4850,7.001439424
13.4900,6.952385684
13.4950,6.901593655
13.5000,6.849048081
13.5050,6.795042906
13.5100,6.739521671
13.5150,6.682719209
13.5200,6.624710851
13.5250,6.565732495
13.5300,6.506008908
13.5350,6.445800115
13.5400,6.385376541
13.5450,6.324893762
13.5500,6.264650732
13.5550,6.204850672
13.5600,6.145673705
13.5650,6.087413783
13.5700,6.030266573
13.5750,5.974470863
13.5800,5.920589204
13.5850,5.868820701
13.5900,5.819303036
13.5950,5.772235219
13.6000,5.727779533
13.6050,5.686275419
13.6100,5.647870797
13.6150,5.612729857
13.6200,5.581133952
13.6250,5.553159219
13.6300,5.529010481
13.6350,5.508991176
13.6400,5.493414954
13.6450,5.482297703
13.6500,5.476022422
13.6550,5.474565237
13.6600,5.478087318
13.6650,5.486964645
13.6700,5.501267304
13.6750,5.520895658
13.6800,5.545681863
13.6850,5.575429767
13.6900,5.610198926
13.6950,5.649544931
13.7000,5.693628605
13.7050,5.742182578
13.7100,5.795200955
13.7150,5.852282228
13.7200,5.913261094
13.7250,5.977685076
13.7300,6.045099057
13.7350,6.11530378
13.7400,6.187878386
13.7450,6.262517673
13.7500,6.338758682
13.7550,6.416464807
13.7600,6.495156351
13.7650,6.574848447
13.7700,6.655385264
13.7750,6.736720381
13.7800,6.818893024
13.7850,6.901676012
13.7900,6.985100887
13.7950,7.069232524
13.8000,7.15403688
13.8050,7.239214905
13.8100,7.324906193
13.8150,7.410847568
13.8200,7.49693001
13.8250,7.583114466
13.8300,7.669259549
13.8350,7.755417404
13.8400,7.841257213
13.8450,7.92685382
13.8500,8.012015171
13.8550,8.096746241
13.8600,8.180998808
13.8650,8.264781347
13.8700,8.348169321
13.8750,8.431261783
13.8800,8.514014018
13.8850,8.596614917
13.8900,8.67924558
13.8950,8.761933967
13.9000,8.844980139
13.9050,8.928248344
13.9100,9.011725704
13.9150,9.095631486
13.9200,9.179900768
13.9250,9.264849155
13.9300,9.350370805
13.9350,9.436849043
13.9400,9.524157893
13.9450,9.612647776
13.9500,9.702507657
13.9550,9.793757612
13.9600,9.886737275
13.9650,9.981370559
13.9700,10.07772963
13.9750,10.17605419
13.9800,10.27636943
13.9850,10.37874011
13.9900,10.48306735
13.9950,10.58957691
14.0000,10.69811849
14.0050,10.80883813
14.0100,10.92162996
14.0150,11.03668079
14.0200,11.15398735
14.0250,11.27336755
14.0300,11.39456334
14.0350,11.51740237
14.0400,11.64164519
14.0450,11.76707977
14.0500,11.89351968
14.0550,12.02073115
14.0600,12.14864127
14.0650,12.27688837
14.0700,12.40536425
14.0750,12.53388785
14.0800,12.66241789
14.0850,12.79122248
14.0900,12.92039333
14.0950,13.05013142
14.1000,13.18050607
14.1050,13.31191384
14.1100,13.44432037
14.1150,13.57804322
14.1200,13.71322262
14.1250,13.84958699
14.1300,13.98701827
14.1350,14.12540759
14.1400,14.2646489
14.1450,14.40431596
14.1500,14.54388597
14.1550,14.68308136
14.1600,14.82125329
14.1650,14.9579061
14.1700,15.09225725
14.1750,15.22362128
14.1800,15.35144701
14.1850,15.47524474
14.1900,15.59456941
14.1950,15.70931691
14.2000,15.81950992
14.2050,15.9251787
14.2100,16.02688938
14.2150,16.12498281
14.2200,16.22011085
14.2250,16.31257725
14.2300,16.40301738
14.2350,16.49162523
14.2400,16.57894246
14.2450,16.66540241
14.2500,16.75132307
14.2550,16.83691751
14.2600,16.92246077
14.2650,17.00830223
14.2700,17.09470657
14.2750,17.18159558
14.2800,17.26874119
14.2850,17.35587791
14.2900,17.44298152
14.2950,17.5300315
14.3000,17.6167322
14.3050,17.70310758
14.3100,17.7889388
14.3150,17.87391784
14.3200,17.95800875
14.3250,18.04133865
14.3300,18.12405944
14.3350,18.20660288
14.3400,18.28931586
14.3450,18.37258793
14.3500,18.45672751
14.3550,18.54180719
14.3600,18.62816163
14.3650,18.71620349
14.3700,18.80653168
14.3750,18.89951631
14.3800,18.99550879
14.3850,19.09478666
14.3900,19.19737053
14.3950,19.3030159
14.4000,19.41163093
14.4050,19.52308693
14.4100,19.637104
14.4150,19.75340975
14.4200,19.8718085
14.4250,19.99221127
14.4300,20.11445975
14.4350,20.23816687
14.4400,20.36322516
14.4450,20.48937297
14.4500,20.61671323
14.4550,20.74473067
14.4600,20.87328655
14.4650,21.00205891
14.4700,21.1307346
14.4750,21.25894704
14.4800,21.38652916
14.4850,21.51287792
14.4900,21.63769257
14.4950,21.76039238
14.5000,21.88018538
14.5050,21.99664241
14.5100,22.1092398
14.5150,22.21750239
14.5200,22.32112627
14.5250,22.41992615
14.5300,22.51371664
14.5350,22.60265083
14.5400,22.68667486
14.5450,22.76575455
14.5500,22.83990211
14.5550,22.90929425
14.5600,22.97406932
14.5650,23.03434179
14.5700,23.09021059
14.5750,23.14238917
14.5800,23.1913675
14.5850,23.2374134
14.5900,23.28079105
14.5950,23.32169627
14.6000,23.36034989
14.6050,23.39669881
14.6100,23.4308377
14.6150,23.46302516
14.6200,23.49326792
14.6250,23.52177415
14.6300,23.54873175
14.6350,23.57412486
14.6400,23.59781844
14.6450,23.6198609
14.6500,23.64078226
14.6550,23.66105044
14.6600,23.68109049
14.6650,23.70143192
14.6700,23.72217274
14.6750,23.74351623
14.6800,23.7657614
14.6850,23.78863699
14.6900,23.81242269
14.6950,23.83746318
14.7000,23.86403125
14.7050,23.8919581
14.7100,23.92150989
14.7150,23.95269274
14.7200,23.98566392
14.7250,24.02040867
14.7300,24.05693978
14.7350,24.09540672
14.7400,24.13558126
14.7450,24.17737993
14.7500,24.22035725
14.7550,24.26445961
14.7600,24.30929435
14.7650,24.35485347
14.7700,24.40101666
14.7750,24.44778897
14.7800,24.49533146
14.7850,24.54355574
14.7900,24.59253849
14.7950,24.64228715
14.8000,24.69307832
14.8050,24.74492197
14.8100,24.79784681
14.8150,24.85164763
14.8200,24.90626561
14.8250,24.96143437
14.8300,25.01685745
14.8350,25.07204373
14.8400,25.12678352
14.8450,25.18092124
14.8500,25.23421726
14.8550,25.28676547
14.8600,25.3384459
14.8650,25.38924134
14.8700,25.43899381
14.8750,25.48736981
14.8800,25.5343226
14.8850,25.57987813
14.8900,25.62405702
14.8950,25.66674965
14.9000,25.70799263
14.9050,25.7478446
14.9100,25.78632768
14.9150,25.82326438
14.9200,25.85893795
14.9250,25.89314202
14.9300,25.92607128
14.9350,25.95759106
14.9400,25.98786893
14.9450,26.01711986
14.9500,26.04511362
14.9550,26.07200972
14.9600,26.09756666
14.9650,26.12175135
14.9700,26.14429624
14.9750,26.16529206
14.9800,26.18431828
14.9850,26.20183108
14.9900,26.21774871
14.9950,26.23212612
15.0000,26.24499556
15.0050,26.25676777
15.0100,26.26737354
15.0150,26.27708441
15.0200,26.28580286
15.0250,26.2938906
15.0300,26.30139699
15.0350,26.30825789
15.0400,26.31454683
15.0450,26.32041468
15.0500,26.32592597
15.0550,26.33123833
15.0600,26.33675584
15.0650,26.3425964
15.0700,26.34880078
15.0750,26.35535065
15.0800,26.36211948
15.0850,26.36937273
15.0900,26.37670222
15.0950,26.38421303
15.1000,26.39166929
15.1050,26.39936519
15.1100,26.40702168
15.1150,26.4148216
15.1200,26.42226331
15.1250,26.42935909
15.1300,26.43607615
15.1350,26.44222622
15.1400,26.44793941
15.1450,26.45308292
15.1500,26.45779181
15.1550,26.46213001
15.1600,26.4661589
15.1650,26.46951615
15.1700,26.47223232
15.1750,26.47398659
15.1800,26.47491587
15.1850,26.47507663
15.1900,26.47434457
15.1950,26.47247819
15.2000,26.46957828
15.2050,26.46554017
15.2100,26.46029059
15.2150,26.45409768
15.2200,26.44684755
15.2250,26.43873315
15.2300,26.42981774
15.2350,26.42022759
15.2400,26.41013143
15.2450,26.39944959
15.2500,26.38866688
15.2550,26.3778912
15.2600,26.36742127
15.2650,26.35724266
15.2700,26.34764129
15.2750,26.33836717
15.2800,26.3299159
15.2850,26.32221939
15.2900,26.31553439
15.2950,26.31002088
15.3000,26.30569505
15.3050,26.30261971
15.3100,26.30116895
15.3150,26.30116084
15.3200,26.3028378
15.3250,26.30613454
15.3300,26.31109864
15.3350,26.31759621
15.3400,26.3256622
15.3450,26.33525683
15.3500,26.34666489
15.3550,26.35988853
15.3600,26.37478517
15.3650,26.39118553
15.3700,26.4092078
15.3750,26.42903102
15.3800,26.45037731
15.3850,26.47299595
15.3900,26.49704428
15.3950,26.52218384
15.4000,26.54829363
15.4050,26.57493983
15.4100,26.6019984
15.4150,26.62901751
15.4200,26.65587989
15.4250,26.68220129
15.4300,26.70780255
15.4350,26.73260945
15.4400,26.75622403
15.4450,26.77821397
15.4500,26.79847327
15.4550,26.81656495
15.4600,26.832454
15.4650,26.84631637
15.4700,26.85796581
15.4750,26.8676352
15.4800,26.87511959
15.4850,26.8804703
15.4900,26.88390513
15.4950,26.88541529
15.5000,26.88515666
15.5050,26.88305825
15.5100,26.87949098
15.5150,26.87427377
15.5200,26.86761851
15.5250,26.85971372
15.5300,26.85050528
15.5350,26.840026
15.5400,26.82849319
15.5450,26.81595974
15.5500,26.80221351
15.5550,26.78693002
15.5600,26.76994218
15.5650,26.75136632
15.5700,26.73111962
15.5750,26.70973423
15.5800,26.68720128
15.5850,26.66367312
15.5900,26.63930248
15.5950,26.61430478
15.6000,26.58893669
15.6050,26.56336152
15.6100,26.5375517
15.6150,26.51162251
15.6200,26.48559642
15.6250,26.45955699
15.6300,26.43358854
15.6350,26.40798985
15.6400,26.38294519
15.6450,26.3582947
15.6500,26.33428505
15.6550,26.31066702
15.6600,26.28759158
15.6650,26.2650219
15.6700,26.2428974
15.6750,26.22108642
15.6800,26.19977156
15.6850,26.17886284
15.6900,26.15825492
15.6950,26.13796738
15.7000,26.11801623
15.7050,26.09823153
15.7100,26.07838196
15.7150,26.05850998
15.7200,26.03857532
15.7250,26.01852285
15.7300,25.99824834
15.7350,25.97778036
15.7400,25.95726152
15.7450,25.93680312
15.7500,25.91629163
15.7550,25.89578626
15.7600,25.87505105
15.7650,25.85401515
15.7700,25.83263478
15.7750,25.81092884
15.7800,25.78883228
15.7850,25.76624725
15.7900,25.7426788
15.7950,25.71831731
15.8000,25.69287199
15.8050,25.66636635
15.8100,25.63877123
15.8150,25.61006298
15.8200,25.5800204
15.8250,25.54857608
15.8300,25.51570387
15.8350,25.48149652
15.8400,25.44583295
15.8450,25.40876054
15.8500,25.37035961
15.8550,25.33089555
15.8600,25.29052345
15.8650,25.24925002
15.8700,25.20743312
15.8750,25.16514796
15.8800,25.12249513
15.8850,25.07961267
15.8900,25.03666804
15.8950,24.99364371
15.9000,24.95079656
15.9050,24.90797893
15.9100,24.8654507
15.9150,24.82332388
15.9200,24.78168169
15.9250,24.74066274
15.9300,24.70031489
15.9350,24.66077398
15.9400,24.62184436
15.9450,24.58394022
15.9500,24.54653976
15.9550,24.51003729
15.9600,24.47413402
15.9650,24.43902876
15.9700,24.40460995
15.9750,24.37079271
15.9800,24.33743792
15.9850,24.30468119
15.9900,24.27259313
15.9950,24.24126352
16.0000,24.21058391
16.0050,24.18064105
16.0100,24.15141479
16.0150,24.12292793
16.0200,24.09529556
16.0250,24.06844652
16.0300,24.04233492
16.0350,24.01690985
16.0400,23.99201003
16.0450,23.96756538
16.0500,23.94354706
16.0550,23.91982471
16.0600,23.89636508
16.0650,23.87309209
16.0700,23.8498288
16.0750,23.82629026
16.0800,23.80232004
16.0850,23.77775493
16.0900,23.7526311
16.0950,23.72666833
16.1000,23.69986976
16.1050,23.67233307
16.1100,23.64391522
16.1150,23.61470201
16.1200,23.58469229
16.1250,23.55389866
16.1300,23.52240942
16.1350,23.49035486
16.1400,23.45763017
16.1450,23.42430079
16.1500,23.39039335
16.1550,23.35594617
16.1600,23.32103126
16.1650,23.28590898
16.1700,23.25072968
16.1750,23.21538499
16.1800,23.17998642
16.1850,23.14469406
16.1900,23.10947343
16.1950,23.07435329
16.2000,23.03913128
16.2050,23.00398576
16.2100,22.96874842
16.2150,22.93351438
16.2200,22.89832274
16.2250,22.86299915
16.2300,22.82759437
16.2350,22.7918011
16.2400,22.75595857
16.2450,22.71976942
16.2500,22.68348345
16.2550,22.64676139
16.2600,22.6097623
16.2650,22.57218875
16.2700,22.53402632
16.2750,22.4954639
16.2800,22.45640908
16.2850,22.41697675
16.2900,22.37697944
16.2950,22.33646118
16.3000,22.29554855
16.3050,22.25405919
16.3100,22.21209997
16.3150,22.16966713
16.3200,22.12648593
16.3250,22.08266595
16.3300,22.0379961
16.3350,21.99254361
16.3400,21.94622386
16.3450,21.89914876
16.3500,21.85094646
16.3550,21.80179573
16.3600,21.75166226
16.3650,21.7004859
16.3700,21.64838344
16.3750,21.59558608
16.3800,21.54203945
16.3850,21.48775911
16.3900,21.43288232
16.3950,21.37742035
16.4000,21.32145245
16.4050,21.26492126
16.4100,21.20770012
16.4150,21.14978513
16.4200,21.09113354
16.4250,21.03185314
16.4300,20.97192884
16.4350,20.91109741
16.4400,20.84962699
16.4450,20.78732139
16.4500,20.72419785
16.4550,20.66042652
16.4600,20.59603459
16.4650,20.53091853
16.4700,20.4649711
16.4750,20.39827819
16.4800,20.33092208
16.4850,20.26255831
16.4900,20.19338249
16.4950,20.12338692
16.5000,20.05267437
16.5050,19.98132064
16.5100,19.90943308
16.5150,19.8371306
16.5200,19.76448019
16.5250,19.69192895
16.5300,19.61942698
16.5350,19.54750488
16.5400,19.47598923
16.5450,19.40513239
16.5500,19.33482539
16.5550,19.26534073
16.5600,19.19646751
16.5650,19.12842946
16.5700,19.06136475
16.5750,18.99506436
16.5800,18.92954997
16.5850,18.86465795
16.5900,18.80057639
16.5950,18.73719155
16.6000,18.67449963
16.6050,18.61264462
16.6100,18.55167898
16.6150,18.49154279
16.6200,18.43235707
16.6250,18.37409109
16.6300,18.31675962
16.6350,18.2602965
16.6400,18.20470849
16.6450,18.14989164
16.6500,18.09608957
16.6550,18.04320395
16.6600,17.99110933
16.6650,17.93956887
16.6700,17.88852524
16.6750,17.83746644
16.6800,17.78625454
16.6850,17.73451637
16.6900,17.68198761
16.6950,17.62834027
16.7000,17.573362
16.7050,17.51689909
16.7100,17.45882362
16.7150,17.39908926
16.7200,17.3377633
16.7250,17.27466019
16.7300,17.20970938
16.7350,17.14290909
16.7400,17.07413885
16.7450,17.00356986
16.7500,16.93101964
16.7550,16.85661293
16.7600,16.78028436
16.7650,16.70183064
16.7700,16.62133625
16.7750,16.53883571
16.7800,16.45435105
16.7850,16.36807457
16.7900,16.27998633
16.7950,16.19031481
16.8000,16.09903223
16.8050,16.00617132
16.8100,15.91174778
16.8150,15.81596719
16.8200,15.71893984
16.8250,15.62056125
16.8300,15.52125588
16.8350,15.42110054
16.8400,15.3204098
16.8450,15.21970062
16.8500,15.11929845
16.8550,15.01946036
16.8600,14.92074139
16.8650,14.8233241
16.8700,14.72748239
16.8750,14.63337897
16.8800,14.5412232
16.8850,14.45095686
16.8900,14.36260446
16.8950,14.27627851
16.9000,14.19205292
16.9050,14.11007621
16.9100,14.03023036
16.9150,13.95262959
16.9200,13.87722263
16.9250,13.8040436
16.9300,13.7331154
16.9350,13.66435709
16.9400,13.59767226
16.9450,13.53290041
16.9500,13.46978218
16.9550,13.40819877
16.9600,13.34798026
16.9650,13.28911794
16.9700,13.23161501
16.9750,13.17572196
16.9800,13.12141662
16.9850,13.06877898
16.9900,13.01772404
16.9950,12.96834966
17.0000,12.92074567
17.0050,12.87471224
17.0100,12.83031778
17.0150,12.7872756
17.0200,12.74539189
17.0250,12.70458748
17.0300,12.66478843
17.0350,12.62605846
17.0400,12.58808391
17.0450,12.55075266
17.0500,12.51415492
17.0550,12.47813569
17.0600,12.44263385
17.0650,12.40770084
17.0700,12.37319372
17.0750,12.33891336
17.0800,12.30477936
17.0850,12.27080367
17.0900,12.23695083
17.0950,12.20298299
17.1000,12.16905394
17.1050,12.13530916
17.1100,12.10175679
17.1150,12.06834042
17.1200,12.0350293
17.1250,12.00194874
17.1300,11.96903375
17.1350,11.93619875
17.1400,11.90369132
17.1450,11.87104962
17.1500,11.83838371
17.1550,11.80566273
17.1600,11.77288087
17.1650,11.74007723
17.1700,11.70727208
17.1750,11.6746139
17.1800,11.64232718
17.1850,11.61054514
17.1900,11.57935967
17.1950,11.54905559
17.2000,11.51978079
17.2050,11.4914152
17.2100,11.46407173
17.2150,11.43782612
17.2200,11.4125883
17.2250,11.38835623
17.2300,11.36520872
17.2350,11.34314717
17.2400,11.3221603
17.2450,11.30233195
17.2500,11.28375874
17.2550,11.26641822
17.2600,11.25061471
17.2650,11.23635723
17.2700,11.22355252
17.2750,11.21194989
17.2800,11.20147866
17.2850,11.19193115
17.2900,11.18312527
17.2950,11.17490612
17.3000,11.1670215
17.3050,11.15922627
17.3100,11.15130826
17.3150,11.14309341
17.3200,11.13454532
17.3250,11.12560182
17.3300,11.11613409
17.3350,11.1061566
17.3400,11.09573836
17.3450,11.08484415
17.3500,11.07336546
17.3550,11.0608921
17.3600,11.04743731
17.3650,11.03293022
17.3700,11.01707702
17.3750,11.00003151
17.3800,10.98165937
17.3850,10.96186142
17.3900,10.94064782
17.3950,10.91811217
17.4000,10.89433866
17.4050,10.86907556
17.4100,10.84257792
17.4150,10.81491287
17.4200,10.78597381
17.4250,10.75598015
17.4300,10.72483473
17.4350,10.69283405
17.4400,10.6599216
17.4450,10.62648684
17.4500,10.59272063
17.4550,10.55867432
17.4600,10.52456685
17.4650,10.49050042
17.4700,10.45668527
17.4750,10.42336102
17.4800,10.39043691
17.4850,10.35804282
17.4900,10.3261966
17.4950,10.29504775
17.5000,10.26457869
17.5050,10.23502796
17.5100,10.20646507
17.5150,10.17873492
17.5200,10.1520609
17.5250,10.12641993
17.5300,10.1019072
17.5350,10.07830054
17.5400,10.05571225
17.5450,10.03406895
17.5500,10.01330618
17.5550,9.993257056
17.5600,9.973657071
17.5650,9.954417075
17.5700,9.935355937
17.5750,9.916297778
17.5800,9.897368696
17.5850,9.878387094
17.5900,9.859432099
17.5950,9.840593052
17.6000,9.821453826
17.6050,9.802219959
17.6100,9.782691326
17.6150,9.762992937
17.6200,9.742862047
17.6250,9.722288878
17.6300,9.701187944
17.6350,9.679384839
17.6400,9.657057334
17.6450,9.634118263
17.6500,9.610484178
17.6550,9.586385358
17.6600,9.561739161
17.6650,9.536426428
17.6700,9.510562878
17.6750,9.483985514
17.6800,9.456550725
17.6850,9.428315226
17.6900,9.399116363
17.6950,9.368882766
17.7000,9.337453542
17.7050,9.304947752
17.7100,9.271074282
17.7150,9.236017661
17.7200,9.199729299
17.7250,9.162201832
17.7300,9.123605193
17.7350,9.083777534
17.7400,9.042753337
17.7450,9.000631758
17.7500,8.95747156
17.7550,8.913355419
17.7600,8.868563246
17.7650,8.823186893
17.7700,8.77736596
17.7750,8.731303754
17.7800,8.68516886
17.7850,8.639238609
17.7900,8.593738539
17.7950,8.548579039
17.8000,8.504016137
17.8050,8.460045407
17.8100,8.416642503
17.8150,8.373930088
17.8200,8.331905322
17.8250,8.290655745
17.8300,8.250088009
17.8350,8.2104488
17.8400,8.171779851
17.8450,8.13406218
17.8500,8.097378498
17.8550,8.061755223
17.8600,8.027199359
17.8650,7.993795796
17.8700,7.961677585
17.8750,7.93080812
17.8800,7.900831936
17.8850,7.871769161
17.8900,7.843409038
17.8950,7.815528843
17.9000,7.788362628
17.9050,7.761721504
17.9100,7.735509194
17.9150,7.709835175
17.9200,7.684848263
17.9250,7.66040785
17.9300,7.636597858
17.9350,7.613311205
17.9400,7.590566543
17.9450,7.568148029
17.9500,7.546302281
17.9550,7.525047876
17.9600,7.504349019
17.9650,7.484343765
17.9700,7.465375606
17.9750,7.447438076
17.9800,7.430931094
17.9850,7.41580783
17.9900,7.402280623
17.9950,7.390499054
18.0000,7.38054516
18.0050,7.372429247
18.0100,7.366292227
18.0150,7.361910804
18.0200,7.359466333
18.0250,7.358767305
18.0300,7.3597207
18.0350,7.36228045
18.0400,7.36649245
18.0450,7.372131095
18.0500,7.379232526
18.0550,7.387763473
18.0600,7.397344309
18.0650,7.407945593
18.0700,7.419507361
18.0750,7.431708007
18.0800,7.444423063
18.0850,7.457482105
18.0900,7.470955919
18.0950,7.4845281
18.1000,7.498170375
18.1050,7.51175395
18.1100,7.525282331
18.1150,7.538724108
18.1200,7.552028827
18.1250,7.565092205
18.1300,7.578005229
18.1350,7.590560904
18.1400,7.602644842
18.1450,7.614228495
18.1500,7.625290637
18.1550,7.635601362
18.1600,7.645216806
18.1650,7.654093788
18.1700,7.661943258
18.1750,7.668921876
18.1800,7.67507641
18.1850,7.680458837
18.1900,7.685179348
18.1950,7.689172584
18.2000,7.692257597
18.2050,7.694318415
18.2100,7.695517522
18.2150,7.695672585
18.2200,7.695020644
18.2250,7.693404348
18.2300,7.690876245
18.2350,7.687626549
18.2400,7.68341171
18.2450,7.678568187
18.2500,7.673014823
18.2550,7.66677141
18.2600,7.660185541
18.2650,7.653254071
18.2700,7.645803166
18.2750,7.638028926
18.2800,7.629757562
18.2850,7.620980128
18.2900,7.611685607
18.2950,7.601942467
18.3000,7.591852708
18.3050,7.581397343
18.3100,7.570651193
18.3150,7.559463516
18.3200,7.54798546
18.3250,7.536253107
18.3300,7.524266311
18.3350,7.512038939
18.3400,7.499714826
18.3450,7.487523214
18.3500,7.475309825
18.3550,7.463402157
18.3600,7.451865923
18.3650,7.440859316
18.3700,7.430375943
18.3750,7.420776005
18.3800,7.41210327
18.3850,7.404515077
18.3900,7.397887711
18.3950,7.392438642
18.4000,7.388089351
18.4050,7.384706794
18.4100,7.382328755
18.4150,7.380706661
18.4200,7.379662232
18.4250,7.379029398
18.4300,7.378509625
18.4350,7.377977434
18.4400,7.377342399
18.4450,7.376404095
18.4500,7.37503213
18.4550,7.373320468
18.4600,7.371057688
18.4650,7.36816384
18.4700,7.364627584
18.4750,7.360417514
18.4800,7.355308884
18.4850,7.349463075
18.4900,7.342743871
18.4950,7.335332212
18.5000,7.327211492
18.5050,7.318422742
18.5100,7.308947413
18.5150,7.298674552
18.5200,7.287258167
18.5250,7.274940382
18.5300,7.261690299
18.5350,7.247327387
18.5400,7.232043622
18.5450,7.215733679
18.5500,7.198315903
18.5550,7.180038254
18.5600,7.160674103
18.5650,7.140482788
18.5700,7.11946246
18.5750,7.097856128
18.5800,7.075872483
18.5850,7.05376124
18.5900,7.031760055
18.5950,7.0100165
18.6000,6.988620942
18.6050,6.967692453
18.6100,6.947336674
18.6150,6.927743182
18.6200,6.908934133
18.6250,6.890785346
18.6300,6.873524554
18.6350,6.857100397
18.6400,6.841199093
18.6450,6.825609801
18.6500,6.810363136
18.6550,6.795157476
18.6600,6.780060505
18.6650,6.765080102
18.6700,6.750255886
18.6750,6.735313434
18.6800,6.720450656
18.6850,6.705495607
18.6900,6.690521697
18.6950,6.675525692
18.7000,6.660485512
18.7050,6.645648508
18.7100,6.630824054
18.7150,6.616220931
18.7200,6.601793592
18.7250,6.587477271
18.7300,6.573277542
18.7350,6.559045325
18.7400,6.544514291
18.7450,6.529814106
18.7500,6.514649804
18.7550,6.498839092
18.7600,6.482115463
18.7650,6.464385383
18.7700,6.445598092
18.7750,6.425514143
18.7800,6.404228693
18.7850,6.381739211
18.7900,6.357993308
18.7950,6.33298337
18.8000,6.306838602
18.8050,6.27968026
18.8100,6.251779596
18.8150,6.223274903
18.8200,6.194320826
18.8250,6.165033251
18.8300,6.135596649
18.8350,6.106274335
18.8400,6.077075092
18.8450,6.048281878
18.8500,6.020159808
18.8550,5.992659873
18.8600,5.96601065
18.8650,5.940225845
18.8700,5.915439781
18.8750,5.891662258
18.8800,5.868916457
18.8850,5.847313163
18.8900,5.826844753
18.8950,5.807345874
18.9000,5.788776117
18.9050,5.771284464
18.9100,5.754827914
18.9150,5.739357588
18.9200,5.724993814
18.9250,5.711771731
18.9300,5.69961557
18.9350,5.688541475
18.9400,5.678623748
18.9450,5.670001641
18.9500,5.662764355
18.9550,5.656922055
18.9600,5.652590579
18.9650,5.649629948
18.9700,5.647895874
18.9750,5.647545762
18.9800,5.648515606
18.9850,5.650821227
18.9900,5.654419001
18.9950,5.65925991
19.0000,5.665334332
19.0050,5.672639106
19.0100,5.68122231
19.0150,5.691025417
19.0200,5.702196102
19.0250,5.714644852
19.0300,5.728472106
19.0350,5.743801363
19.0400,5.760675765
19.0450,5.779010104
19.0500,5.799103843
19.0550,5.820665048
19.0600,5.843943
19.0650,5.86903024
19.0700,5.896033701
19.0750,5.924916062
19.0800,5.955791822
19.0850,5.988606143
19.0900,6.023491529
19.0950,6.060483925
19.1000,6.09967018
19.1050,6.141026604
19.1100,6.18449172
19.1150,6.23022842
19.1200,6.278241839
19.1250,6.328457013
19.1300,6.381010742
19.1350,6.435767782
19.1400,6.492933533
19.1450,6.552384974
19.1500,6.613962011
19.1550,6.677664132
19.1600,6.74333324
19.1650,6.810863934
19.1700,6.880339826
19.1750,6.951563572
19.1800,7.024582752
19.1850,7.099382817
19.1900,7.175853346
19.1950,7.254141752
19.2000,7.334165817
19.2050,7.415946997
19.2100,7.499153271
19.2150,7.583904086
19.2200,7.669901881
19.2250,7.757131116
19.2300,7.845539605
19.2350,7.935219847
19.2400,8.026254743
19.2450,8.118547983
19.2500,8.211906214
19.2550,8.306466107
19.2600,8.402105932
19.2650,8.498793344
19.2700,8.596556539
19.2750,8.695235366
19.2800,8.794737841
19.2850,8.895084575
19.2900,8.996291913
19.2950,9.098345419
19.3000,9.200999835
19.3050,9.304084293
19.3100,9.407475536
19.3150,9.511164507
19.3200,9.615209089
19.3250,9.719697921
19.3300,9.824494731
19.3350,9.929717889
19.3400,10.03531935
19.3450,10.14119555
19.3500,10.24715656
19.3550,10.35336807
19.3600,10.45991325
19.3650,10.56668365
19.3700,10.67377714
19.3750,10.78146659
19.3800,10.88995855
19.3850,10.99917725
19.3900,11.10905349
19.3950,11.21938473
19.4000,11.33022641
19.4050,11.44177144
19.4100,11.55406311
19.4150,11.66710756
19.4200,11.78094614
19.4250,11.89550375
19.4300,12.01080986
19.4350,12.12686902
19.4400,12.24340301
19.4450,12.36067364
19.4500,12.47871476
19.4550,12.59757763
19.4600,12.71747638
19.4650,12.83837639
19.4700,12.96027891
19.4750,13.08312815
19.4800,13.20661741
19.4850,13.33066855
19.4900,13.45514442
19.4950,13.57961919
19.5000,13.70399151
19.5050,13.82823628
19.5100,13.95268438
19.5150,14.07729352
19.5200,14.20212924
19.5250,14.3270885
19.5300,14.45212529
19.5350,14.57701963
19.5400,14.70152606
19.5450,14.82536351
19.5500,14.94851457
19.5550,15.07071863
19.5600,15.19200342
19.5650,15.3123147
19.5700,15.43156545
19.5750,15.54981053
19.5800,15.66700585
19.5850,15.78325183
19.5900,15.89849196
19.5950,16.01277967
19.6000,16.12619539
19.6050,16.23894921
19.6100,16.35120561
19.6150,16.4629193
19.6200,16.57393319
19.6250,16.68445985
19.6300,16.79449505
19.6350,16.90414634
19.6400,17.01331955
19.6450,17.12222102
19.6500,17.2311143
19.6550,17.3400184
19.6600,17.44871403
19.6650,17.55700381
19.6700,17.66468631
19.6750,17.77153513
19.6800,17.87747412
19.6850,17.98237035
19.6900,18.0861409
19.6950,18.18894728
19.7000,18.29089271
19.7050,18.39194585
19.7100,18.49195589
19.7150,18.59090473
19.7200,18.68882327
19.7250,18.78585806
19.7300,18.88194409
19.7350,18.97717706
19.7400,19.07184998
19.7450,19.16551721
19.7500,19.25819496
19.7550,19.34974324
19.7600,19.43993241
19.7650,19.52880108
19.7700,19.61634181
19.7750,19.70264462
19.7800,19.78800596
19.7850,19.87252517
19.7900,19.95619486
19.7950,20.03918037
19.8000,20.12139669
19.8050,20.2027267
19.8100,20.282939
19.8150,20.36184275
19.8200,20.43932682
19.8250,20.51537906
19.8300,20.59008176
19.8350,20.66355541
19.8400,20.7356597
19.8450,20.80696262
19.8500,20.87748842
19.8550,20.94733647
19.8600,21.01652324
19.8650,21.08503772
19.8700,21.15285372
19.8750,21.2199658
19.8800,21.2867005
19.8850,21.35307988
19.8900,21.41943213
19.8950,21.48588208
19.9000,21.55270486
19.9050,21.61999032
19.9100,21.68800361
19.9150,21.75694426
19.9200,21.82706767
19.9250,21.89841883
19.9300,21.97121004
19.9350,22.04523571
19.9400,22.12049136
19.9450,22.19673401
19.9500,22.27383064
19.9550,22.35155433
19.9600,22.42975594
19.9650,22.50811978
19.9700,22.58625586
19.9750,22.6640459
19.9800,22.74105976
19.9850,22.81718286
19.9900,22.89240957
19.9950,22.96645745
20.0000,23.03879602
20.0050,23.10916361
20.0100,23.1774805
20.0150,23.24364823
20.0200,23.30746522
20.0250,23.36917888
20.0300,23.42858507
20.0350,23.48599326
20.0400,23.54140265
20.0450,23.59537752
20.0500,23.64808962
20.0550,23.69961221
20.0600,23.75026473
20.0650,23.80011589
20.0700,23.84934847
20.0750,23.89790599
20.0800,23.94554594
20.0850,23.99214973
20.0900,24.03759933
20.0950,24.08183579
20.1000,24.12490883
20.1050,24.16654661
20.1100,24.20662507
20.1150,24.24527401
20.1200,24.28232122
20.1250,24.31797051
20.1300,24.35209997
20.1350,24.38488891
20.1400,24.41658566
20.1450,24.44704693
20.1500,24.47642023
20.1550,24.5049719
20.1600,24.53268846
20.1650,24.56001989
20.1700,24.58736074
20.1750,24.6148293
20.1800,24.64248762
20.1850,24.67062947
20.1900,24.69940988
20.1950,24.72908296
20.2000,24.75991048
20.2050,24.79181647
20.2100,24.82463003
20.2150,24.8586263
20.2200,24.89380558
20.2250,24.93018096
20.2300,24.96753828
20.2350,25.00585375
20.2400,25.04520003
20.2450,25.08567449
20.2500,25.12709221
20.2550,25.16950712
20.2600,25.21303402
20.2650,25.25778128
20.2700,25.30389808
20.2750,25.35139739
20.2800,25.40028987
20.2850,25.45049094
20.2900,25.50190108
20.2950,25.55460554
20.3000,25.60871875
20.3050,25.66402255
20.3100,25.72043265
20.3150,25.7778784
20.3200,25.83644176
20.3250,25.89588054
20.3300,25.95627782
20.3350,26.01754776
20.3400,26.07975901
20.3450,26.14273258
20.3500,26.20636775
20.3550,26.27076235
20.3600,26.33588242
20.3650,26.40176561
20.3700,26.46821028
20.3750,26.53514818
20.3800,26.6025756
20.3850,26.6700016
20.3900,26.73736228
20.3950,26.8045482
20.4000,26.87115444
20.4050,26.93720272
20.4100,27.0027982
20.4150,27.06765962
20.4200,27.13181124
20.4250,27.19523353
20.4300,27.25774671
20.4350,27.31891281
20.4400,27.37861193
20.4450,27.43662683
20.4500,27.49268342
20.4550,27.5467419
20.4600,27.59864389
20.4650,27.64826886
20.4700,27.69558521
20.4750,27.74093801
20.4800,27.7843254
20.4850,27.82577362
20.4900,27.86511846
20.4950,27.9022161
20.5000,27.93732542
20.5050,27.9705478
20.5100,28.00216802
20.5150,28.03204321
20.5200,28.06021204
20.5250,28.0863742
20.5300,28.11061814
20.5350,28.13287799
20.5400,28.1532611
20.5450,28.17155646
20.5500,28.18772638
20.5550,28.20202349
20.5600,28.21433499
20.5650,28.22485471
20.5700,28.23364876
20.5750,28.24072319
20.5800,28.24605421
20.5850,28.24988745
20.5900,28.25206508
20.5950,28.25275571
20.6000,28.25195888
20.6050,28.2500688
20.6100,28.24723759
20.6150,28.24369793
20.6200,28.23971581
20.6250,28.23541501
20.6300,28.23093674
20.6350,28.22633242
20.6400,28.22174655
20.6450,28.2171159
20.6500,28.21261927
20.6550,28.20839587
20.6600,28.20453187
20.6650,28.20092597
20.6700,28.19749379
20.6750,28.1940927
20.6800,28.19063914
20.6850,28.18743664
20.6900,28.1845918
20.6950,28.18203652
20.7000,28.18006211
20.7050,28.17860573
20.7100,28.17734652
20.7150,28.17630856
20.7200,28.17531109
20.7250,28.17420618
20.7300,28.17291289
20.7350,28.17158204
20.7400,28.1700402
20.7450,28.16843516
20.7500,28.1670463
20.7550,28.16540468
20.7600,28.16365664
20.7650,28.16154705
20.7700,28.15912252
20.7750,28.15612138
20.7800,28.15256578
20.7850,28.14814598
20.7900,28.14289448
20.7950,28.13686024
20.8000,28.12968191
20.8050,28.12147831
20.8100,28.11213944
20.8150,28.10146019
20.8200,28.08928901
20.8250,28.07577617
20.8300,28.0609042
20.8350,28.04471642
20.8400,28.02730845
20.8450,28.00901409
20.8500,27.98991752
20.8550,27.97005034
20.8600,27.94961666
20.8650,27.92866359
20.8700,27.90735846
20.8750,27.88581701
20.8800,27.86406334
20.8850,27.84193475
20.8900,27.81981574
20.8950,27.79767826
20.9000,27.77581405
20.9050,27.75417288
20.9100,27.73279056
20.9150,27.71172862
20.9200,27.69112623
20.9250,27.67104031
20.9300,27.65156594
20.9350,27.63263505
20.9400,27.61423668
20.9450,27.59638447
20.9500,27.57915727
20.9550,27.56258759
20.9600,27.54647754
20.9650,27.53081221
20.9700,27.51555247
20.9750,27.50107678
20.9800,27.48768443
20.9850,27.47530132
20.9900,27.46382772
20.9950,27.45326688
21.0000,27.44329502
21.0050,27.43361159
21.0100,27.42417656
21.0150,27.41488493
21.0200,27.40559933
21.0250,27.39602806
21.0300,27.38616074
21.0350,27.37563826
21.0400,27.36438659
21.0450,27.35187854
21.0500,27.3379893
21.0550,27.32273108
21.0600,27.30610946
21.0650,27.28804524
21.0700,27.26806267
21.0750,27.24629318
21.0800,27.22251318
21.0850,27.196846
21.0900,27.16934175
21.0950,27.14004265
21.1000,27.10883712
21.1050,27.07583907
21.1100,27.04103761
21.1150,27.00454078
21.1200,26.96649078
21.1250,26.92696908
21.1300,26.88589953
21.1350,26.84351299
21.1400,26.79969014
21.1450,26.75429585
21.1500,26.70740526
21.1550,26.65902741
21.1600,26.60926627
21.1650,26.55822776
21.1700,26.50625647
21.1750,26.4534902
21.1800,26.40019578
21.1850,26.3468633
21.1900,26.29357895
21.1950,26.24050508
21.2000,26.1876507
21.2050,26.13534422
21.2100,26.08379735
21.2150,26.03309408
21.2200,25.98339184
21.2250,25.93483197
21.2300,25.8875327
21.2350,25.84160654
21.2400,25.79693233
21.2450,25.75372255
21.2500,25.71183605
21.2550,25.67131811
21.2600,25.63224714
21.2650,25.59457239
21.2700,25.55842686
21.2750,25.52342347
21.2800,25.48942654
21.2850,25.45630832
21.2900,25.42397222
21.2950,25.39233506
21.3000,25.36158322
21.3050,25.33169568
21.3100,25.30274715
21.3150,25.27449038
21.3200,25.24691094
21.3250,25.22001604
21.3300,25.19358994
21.3350,25.16770128
21.3400,25.14214456
21.3450,25.11705569
21.3500,25.09209701
21.3550,25.06724037
21.3600,25.04211437
21.3650,25.01683453
21.3700,24.99135679
21.3750,24.96543026
21.3800,24.93906416
21.3850,24.9121537
21.3900,24.88467825
21.3950,24.85637723
21.4000,24.82750715
21.4050,24.79785593
21.4100,24.76758142
21.4150,24.73669507
21.4200,24.70525627
21.4250,24.67334574
21.4300,24.64108083
21.4350,24.60847269
21.4400,24.57560194
21.4450,24.54249525
21.4500,24.5092654
21.4550,24.47615459
21.4600,24.4431791
21.4650,24.41059301
21.4700,24.3781924
21.4750,24.34611811
21.4800,24.31447015
21.4850,24.28307558
21.4900,24.25201412
21.4950,24.22133051
21.5000,24.19106859
21.5050,24.16121259
21.5100,24.13183333
21.5150,24.10301773
21.5200,24.07480562
21.5250,24.04727023
21.5300,24.02037804
21.5350,23.9941692
21.5400,23.96880443
21.5450,23.94452474
21.5500,23.92129853
21.5550,23.89896522
21.5600,23.87738503
21.5650,23.85661705
21.5700,23.83631623
21.5750,23.81649618
21.5800,23.7968429
21.5850,23.77726792
21.5900,23.7577261
21.5950,23.73801373
21.6000,23.71801936
21.6050,23.6975698
21.6100,23.67664586
21.6150,23.65506145
21.6200,23.63275642
21.6250,23.60947896
21.6300,23.58509064
21.6350,23.55945538
21.6400,23.53268995
21.6450,23.50466767
21.6500,23.47529094
21.6550,23.4448044
21.6600,23.41335854
21.6650,23.38086837
21.6700,23.34771255
21.6750,23.31382703
21.6800,23.27924772
21.6850,23.24387392
21.6900,23.20764872
21.6950,23.17069189
21.7000,23.13275175
21.7050,23.0938171
21.7100,23.0539843
21.7150,23.01327483
21.7200,22.97184295
21.7250,22.92969359
21.7300,22.886881
21.7350,22.84352959
21.7400,22.79969563
21.7450,22.75572825
21.7500,22.71164637
21.7550,22.66754398
21.7600,22.62348969
21.7650,22.57962918
21.7700,22.53613524
21.7750,22.49298731
21.7800,22.45007985
21.7850,22.40768045
21.7900,22.36593266
21.7950,22.32474732
21.8000,22.28430589
21.8050,22.24450323
21.8100,22.20516676
21.8150,22.16614558
21.8200,22.12743367
21.8250,22.08908184
21.8300,22.05108833
21.8350,22.01338927
21.8400,21.97600092
21.8450,21.9385716
21.8500,21.90129056
21.8550,21.86404645
21.8600,21.82700719
21.8650,21.79003029
21.8700,21.75309026
21.8750,21.71604764
21.8800,21.67872432
21.8850,21.64114539
21.8900,21.60287337
21.8950,21.56405367
21.9000,21.5244886
21.9050,21.4842023
21.9100,21.44316861
21.9150,21.40137759
21.9200,21.35882127
21.9250,21.31555522
21.9300,21.27172667
21.9350,21.22734285
21.9400,21.18242631
21.9450,21.1371276
21.9500,21.09154431
21.9550,21.04547824
21.9600,20.99913436
21.9650,20.9524732
21.9700,20.90555988
21.9750,20.85839104
21.9800,20.81109179
21.9850,20.76377547
21.9900,20.71642916
21.9950,20.66910671
22.0000,20.621913
22.0050,20.57480502
22.0100,20.52749857
22.0150,20.47994235
22.0200,20.43182647
22.0250,20.38305518
22.0300,20.33366996
22.0350,20.28348921
22.0400,20.23253328
22.0450,20.18055074
22.0500,20.12759028
22.0550,20.07360227
22.0600,20.01844352
22.0650,19.96218819
22.0700,19.90476328
22.0750,19.84620248
22.0800,19.78644393
22.0850,19.72506474
22.0900,19.66196043
22.0950,19.59693353
22.1000,19.52977826
22.1050,19.46053196
22.1100,19.38913633
22.1150,19.31576584
22.1200,19.24008638
22.1250,19.1618465
22.1300,19.08124703
22.1350,18.99825205
22.1400,18.91295003
22.1450,18.82546004
22.1500,18.73585265
22.1550,18.64452931
22.1600,18.55147451
22.1650,18.4570124
22.1700,18.36138788
22.1750,18.26458538
22.1800,18.16695197
22.1850,18.06865648
22.1900,17.96999221
22.1950,17.8710374
22.2000,17.77223741
22.2050,17.67363323
22.2100,17.57518398
22.2150,17.47721249
22.2200,17.37981878
22.2250,17.28311454
22.2300,17.18712206
22.2350,17.09201478
22.2400,16.99791562
22.2450,16.9047953
22.2500,16.8129386
22.2550,16.72242187
22.2600,16.63306402
22.2650,16.54497234
22.2700,16.45823487
22.2750,16.37282204
22.2800,16.28863813
22.2850,16.2058594
22.2900,16.12435099
22.2950,16.04397805
22.3000,15.96461698
22.3050,15.88623945
22.3100,15.80854405
22.3150,15.73144455
22.3200,15.65490806
22.3250,15.57868926
22.3300,15.50265006
22.3350,15.42678093
22.3400,15.35101732
22.3450,15.27524449
22.3500,15.19934523
22.3550,15.12339465
22.3600,15.04737773
22.3650,14.97121169
22.3700,14.89488141
22.3750,14.81836623
22.3800,14.74189381
22.3850,14.66578752
22.3900,14.58988523
22.3950,14.51461656
22.4000,14.43994116
22.4050,14.36601678
22.4100,14.29301824
22.4150,14.2209431
22.4200,14.15013161
22.4250,14.08062344
22.4300,14.01250779
22.4350,13.94594694
22.4400,13.88084035
22.4450,13.81726449
22.4500,13.75515111
22.4550,13.69440228
22.4600,13.63491668
22.4650,13.5765969
22.4700,13.51953929
22.4750,13.4640544
22.4800,13.41017713
22.4850,13.35786246
22.4900,13.30736443
22.4950,13.25871033
22.5000,13.211519
22.5050,13.16602498
22.5100,13.12209125
22.5150,13.07959711
22.5200,13.0384511
22.5250,12.99847599
22.5300,12.95964246
22.5350,12.92187513
22.5400,12.88511926
22.5450,12.84951428
22.5500,12.81462791
22.5550,12.78056919
22.5600,12.74751161
22.5650,12.71531686
22.5700,12.68376177
22.5750,12.65294659
22.5800,12.62269509
22.5850,12.59289037
22.5900,12.56346813
22.5950,12.53427627
22.6000,12.50529198
22.6050,12.47658413
22.6100,12.44828619
22.6150,12.42038712
22.6200,12.39301472
22.6250,12.36635089
22.6300,12.34038203
22.6350,12.31510473
22.6400,12.29055919
22.6450,12.26684647
22.6500,12.24419527
22.6550,12.22244952
22.6600,12.20175668
22.6650,12.1818463
22.6700,12.16265544
22.6750,12.1440734
22.6800,12.12607626
22.6850,12.10842189
22.6900,12.09101808
22.6950,12.07390043
22.7000,12.05695001
22.7050,12.0401394
22.7100,12.02340465
22.7150,12.0065531
22.7200,11.98965294
22.7250,11.97267979
22.7300,11.95542769
22.7350,11.93784161
22.7400,11.91995724
22.7450,11.90175239
22.7500,11.88335508
22.7550,11.86473149
22.7600,11.8460995
22.7650,11.82740656
22.7700,11.80860114
22.7750,11.78968222
22.7800,11.77046364
22.7850,11.75102409
22.7900,11.73126495
22.7950,11.71097512
22.8000,11.69025251
22.8050,11.66911754
22.8100,11.64747184
22.8150,11.6253869
22.8200,11.60291122
22.8250,11.58020179
22.8300,11.55733181
22.8350,11.53444213
22.8400,11.51147474
22.8450,11.48843246
22.8500,11.46547909
22.8550,11.44244687
22.8600,11.41930418
22.8650,11.39610507
22.8700,11.37265137
22.8750,11.34911899
22.8800,11.32531479
22.8850,11.30118932
22.8900,11.27659964
22.8950,11.25166623
22.9000,11.22616335
22.9050,11.20009673
22.9100,11.17318594
22.9150,11.14546566
22.9200,11.11661455
22.9250,11.08665982
22.9300,11.05565899
22.9350,11.02353823
22.9400,10.99015265
22.9450,10.95562689
22.9500,10.919953
22.9550,10.88310462
22.9600,10.84517441
22.9650,10.80640069
22.9700,10.76678818
22.9750,10.72648019
22.9800,10.68555348
22.9850,10.64433819
22.9900,10.60287028
22.9950,10.56117254
23.0000,10.51933645
23.0050,10.47730979
23.0100,10.43517683
23.0150,10.39299275
23.0200,10.35072258
23.0250,10.30836333
23.0300,10.26610324
23.0350,10.22396203
23.0400,10.1821288
23.0450,10.14067271
23.0500,10.09960172
23.0550,10.05898109
23.0600,10.01888802
23.0650,9.979568396
23.0700,9.941248963
23.0750,9.903844345
23.0800,9.867746972
23.0850,9.832999436
23.0900,9.799691059
23.0950,9.767956691
23.1000,9.737841663
23.1050,9.709246582
23.1100,9.68231437
23.1150,9.656969342
23.1200,9.633149261
23.1250,9.610808122
23.1300,9.589843163
23.1350,9.5698715
23.1400,9.550864449
23.1450,9.53257449
23.1500,9.515039751
23.1550,9.498228135
23.1600,9.481917447
23.1650,9.466161896
23.1700,9.450832997
23.1750,9.435635952
23.1800,9.420784786
23.1850,9.406052912
23.1900,9.391412005
23.1950,9.37672301
23.2000,9.362088843
23.2050,9.34715419
23.2100,9.33194564
23.2150,9.316493344
23.2200,9.300578209
23.2250,9.284038599
23.2300,9.266789199
23.2350,9.248661025
23.2400,9.229507168
23.2450,9.209183999
23.2500,9.187459484
23.2550,9.164390027
23.2600,9.139919521
23.2650,9.113921631
23.2700,9.086691564
23.2750,9.058304666
23.2800,9.028753629
23.2850,8.998186176
23.2900,8.966972091
23.2950,8.935136576
23.3000,8.903260708
23.3050,8.871469585
23.3100,8.839991594
23.3150,8.809284913
23.3200,8.779491796
23.3250,8.751054937
23.3300,8.723986171
23.3350,8.698714628
23.3400,8.675281501
23.3450,8.654028892
23.3500,8.635126593
23.3550,8.61861147
23.3600,8.604560677
23.3650,8.593013417
23.3700,8.583920503
23.3750,8.577341678
23.3800,8.573078765
23.3850,8.571175065
23.3900,8.571557159
23.3950,8.574053097
23.4000,8.578728044
23.4050,8.585557804
23.4100,8.594335203
23.4150,8.605048059
23.4200,8.617588223
23.4250,8.631938974
23.4300,8.648042389
23.4350,8.66594516
23.4400,8.685447533
23.4450,8.706567701
23.4500,8.729146693
23.4550,8.752980936
23.4600,8.77806694
23.4650,8.804060948
23.4700,8.830969312
23.4750,8.85864438
23.4800,8.88695145
23.4850,8.915775881
23.4900,8.944964327
23.4950,8.97437992
23.5000,9.003868649
23.5050,9.033218626
23.5100,9.062587923
23.5150,9.091619059
23.5200,9.120403411
23.5250,9.148994491
23.5300,9.177154651
23.5350,9.204871682
23.5400,9.232374246
23.5450,9.259512618
23.5500,9.286211666
23.5550,9.31247958
23.5600,9.338186304
23.5650,9.363449971
23.5700,9.388101334
23.5750,9.412138113
23.5800,9.435412618
23.5850,9.457923241
23.5900,9.479561746
23.5950,9.500408512
23.6000,9.520333521
23.6050,9.539501132
23.6100,9.557841235
23.6150,9.575323809
23.6200,9.592163788
23.6250,9.608489258
23.6300,9.624280786
23.6350,9.639508274
23.6400,9.654284354
23.6450,9.668570773
23.6500,9.682402997
23.6550,9.695910856
23.6600,9.709280202
23.6650,9.722510502
23.6700,9.735619801
23.6750,9.748914141
23.6800,9.762259301
23.6850,9.775667959
23.6900,9.789061442
23.6950,9.80251421
23.7000,9.816175979
23.7050,9.83001371
23.7100,9.844273754
23.7150,9.858909146
23.7200,9.87408587
23.7250,9.88988252
23.7300,9.906318687
23.7350,9.923438376
23.7400,9.941357957
23.7450,9.959886768
23.7500,9.979030803
23.7550,9.998714933
23.7600,10.01865879
23.7650,10.03877187
23.7700,10.05893214
23.7750,10.07909437
23.7800,10.09902671
23.7850,10.11855768
23.7900,10.13804674
23.7950,10.15738501
23.8000,10.17648735
23.8050,10.1956047
23.8100,10.2146115
23.8150,10.23349938
23.8200,10.25234198
23.8250,10.27100852
23.8300,10.28962692
23.8350,10.30808843
23.8400,10.32646342
23.8450,10.34482545
23.8500,10.36345347
23.8550,10.38226616
23.8600,10.40152941
23.8650,10.42123039
23.8700,10.44114442
23.8750,10.46112604
23.8800,10.48110098
23.8850,10.50089924
23.8900,10.5203944
23.8950,10.5394655
23.9000,10.55783589
23.9050,10.57530979
23.9100,10.59193072
23.9150,10.60741127
23.9200,10.62152981
23.9250,10.63409934
23.9300,10.64518466
23.9350,10.65451856
23.9400,10.66194363
23.9450,10.66719821
23.9500,10.67022887
23.9550,10.67104789
23.9600,10.66944901
23.9650,10.66551022
23.9700,10.65927896
23.9750,10.65069124
23.9800,10.64000122
23.9850,10.627389
23.9900,10.61283363
23.9950,10.59672147
24.0000,10.57895212
24.0050,10.55964712
24.0100,10.53912342
24.0150,10.51742516
24.0200,10.49469959
24.0250,10.4709305
24.0300,10.44648465
24.0350,10.42135857
24.0400,10.39580052
24.0450,10.37008661
24.0500,10.34429489
24.0550,10.31877528
24.0600,10.29374862
24.0650,10.26957105
24.0700,10.24625367
24.0750,10.22395428
24.0800,10.20274062
24.0850,10.18285129
24.0900,10.16385418
24.0950,10.1458944
24.1000,10.12885062
24.1050,10.11259185
24.1100,10.09692144
24.1150,10.0818223
24.1200,10.0673261
24.1250,10.05340463
24.1300,10.0398339
24.1350,10.02680157
24.1400,10.01432225
24.1450,10.00215086
24.1500,9.990261548
24.1550,9.978735424
24.1600,9.967229782
24.1650,9.955783942
24.1700,9.944608429
24.1750,9.933690412
24.1800,9.923155455
24.1850,9.912892543
24.1900,9.903047325
24.1950,9.893387111
24.2000,9.88405608
24.2050,9.87501257
24.2100,9.866096791
24.2150,9.857394535
24.2200,9.848631497
24.2250,9.839729311
24.2300,9.830529154
24.2350,9.821206021
24.2400,9.811752402
24.2450,9.802260478
24.2500,9.792798508
24.2550,9.783319592
24.2600,9.773689442
24.2650,9.763856977
24.2700,9.753865668
24.2750,9.743737839
24.2800,9.733355944
24.2850,9.722885737
24.2900,9.712462585
24.2950,9.701949601
24.3000,9.691525587
24.3050,9.681193886
24.3100,9.670887616
24.3150,9.660691269
24.3200,9.650569967
24.3250,9.640594333
24.3300,9.630419036
24.3350,9.620200292
24.3400,9.609816229
24.3450,9.599263807
24.3500,9.588529261
24.3550,9.577495389
24.3600,9.566101491
24.3650,9.554198158
24.3700,9.542074869
24.3750,9.529443009
24.3800,9.516389735
24.3850,9.503004176
24.3900,9.489371198
24.3950,9.475445398
24.4000,9.461300623
24.4050,9.446821057
24.4100,9.432233628
24.4150,9.417538698
24.4200,9.402537749
24.4250,9.387155985
24.4300,9.371568471
24.4350,9.355630952
24.4400,9.338956798
24.4450,9.32187729
24.4500,9.304085491
24.4550,9.285568954
24.4600,9.266396986
24.4650,9.246370509
24.4700,9.225326085
24.4750,9.203433219
24.4800,9.180437683
24.4850,9.156481581
24.4900,9.131364032
24.4950,9.105040632
24.5000,9.07750264
24.5050,9.048471383
24.5100,9.017885563
24.5150,8.985682399
24.5200,8.951964176
24.5250,8.91638667
24.5300,8.878907992
24.5350,8.839397733
24.5400,8.797779476
24.5450,8.753866981
24.5500,8.707580767
24.5550,8.658964384
24.5600,8.608140698
24.5650,8.555125959
24.5700,8.500000951
24.5750,8.442754141
24.5800,8.383763866
24.5850,8.323116818
24.5900,8.261240534
24.5950,8.198239758
24.6000,8.134397698
24.6050,8.069950922
24.6100,8.005098847
24.6150,7.940057422
24.6200,7.875151129
24.6250,7.810501721
24.6300,7.746631053
24.6350,7.683623893
24.6400,7.621815807
24.6450,7.561290882
24.6500,7.502352993
24.6550,7.444986732
24.6600,7.389579376
24.6650,7.336186566
24.6700,7.284817793
24.6750,7.235821665
24.6800,7.189343314
24.6850,7.145191343
24.6900,7.103571981
24.6950,7.064357064
24.7000,7.027812878
24.7050,6.994013088
24.7100,6.963023014
24.7150,6.934957465
24.7200,6.909751596
24.7250,6.887332082
24.7300,6.867834704
24.7350,6.85120728
24.7400,6.837400723
24.7450,6.826138679
24.7500,6.817545331
24.7550,6.811214106
24.7600,6.80720622
24.7650,6.805286973
24.7700,6.805317603
24.7750,6.806957158
24.7800,6.810229699
24.7850,6.814894844
24.7900,6.820733483
24.7950,6.827786181
24.8000,6.835674738
24.8050,6.844655249
24.8100,6.854619042
24.8150,6.865563987
24.8200,6.877248854
24.8250,6.88987665
24.8300,6.903425135
24.8350,6.917865019
24.8400,6.933144096
24.8450,6.949313493
24.8500,6.966288452
24.8550,6.98382726
24.8600,7.001996785
24.8650,7.020756269
24.8700,7.039889136
24.8750,7.059504902
24.8800,7.079433188
24.8850,7.099485707
24.8900,7.119481504
24.8950,7.139383143
24.9000,7.159116317
24.9050,7.17870879
24.9100,7.197937921
24.9150,7.216977843
24.9200,7.235605685
24.9250,7.253868334
24.9300,7.271656627
24.9350,7.289038602
24.9400,7.305900101
24.9450,7.322437322
24.9500,7.33855521
24.9550,7.354638973
24.9600,7.370574255
24.9650,7.386437733
24.9700,7.4023868
24.9750,7.418489005
24.9800,7.434860498
24.9850,7.451836378
24.9900,7.469429552
24.9950,7.488072717
25.0000,7.507608487
25.0050,7.528316779
25.0100,7.550134529
25.0150,7.573110156
25.0200,7.597446698
25.0250,7.623247551
25.0300,7.650483659
25.0350,7.679216964
25.0400,7.709626119
25.0450,7.741788844
25.0500,7.775595286
25.0550,7.811167779
25.0600,7.848365646
25.0650,7.887219083
25.0700,7.92796085
25.0750,7.970610837
25.0800,8.015309362
25.0850,8.062103105
25.0900,8.11106949
25.0950,8.162270487
25.1000,8.215969969
25.1050,8.272147213
25.1100,8.33086266
25.1150,8.392223123
25.1200,8.456179769
25.1250,8.52276863
25.1300,8.591974973
25.1350,8.663668887
25.1400,8.738036455
25.1450,8.815176048
25.1500,8.895357496
25.1550,8.978671144
25.1600,9.065201383
25.1650,9.155063648
25.1700,9.248362067
25.1750,9.345068961
25.1800,9.445063451
25.1850,9.548358059
25.1900,9.654894606
25.1950,9.704094584
25.2000,9.755989058
25.2050,9.810348568
25.2100,9.866889708
25.2150,9.92528493
25.2200,9.985170086
25.2250,10.04615111
25.2300,10.10781054
25.2350,10.16971404
25.2400,10.23141644
25.2450,10.29246725
25.2500,10.35241633
25.2550,10.41082107
25.2600,10.46725425
25.2650,10.52131191
25.2700,10.57261999
25.2750,10.6208386
25.2800,10.66566409
25.2850,10.70682931
25.2900,10.74410396
25.2950,10.77729721
25.3000,10.80626466
25.3050,10.83091965
25.3100,10.85124805
25.3150,10.86732596
25.3200,10.87933996
25.3250,10.88760907
25.3300,10.89260778
25.3350,10.89498962
