type,name,time_units,begin_time,frequency,count,units
signal_3d,"Noraxon MyoMotion-Segments-Upper arm RT-Acceleration","s",0.0000,200,5068,"mG"

time,x,y,z
0.0000,22.90520651,-13.99195157,19.4644045
0.0050,27.19883113,-12.92719619,27.63313106
0.0100,36.92696131,-20.54987331,32.26275587
0.0150,17.7195224,-6.904912897,33.16298304
0.0200,24.53214762,-17.28302557,41.41552962
0.0250,32.57308289,-13.89767701,37.82174841
0.0300,26.6111762,-3.73429139,35.52565345
0.0350,2.817284739,-2.694947997,51.03820691
0.0400,19.88877045,-1.57965196,44.17371792
0.0450,4.385626849,3.637534547,51.36022454
0.0500,5.887424962,7.647790737,46.17768007
0.0550,-2.409713234,2.244628258,51.5514529
0.0600,-11.08529548,6.932759892,50.19399084
0.0650,-16.39880844,11.6588993,51.38914909
0.0700,-12.68897166,15.14456282,39.15160279
0.0750,-32.95327321,19.56015265,38.7690527
0.0800,-36.87634265,29.08257507,25.66806933
0.0850,-47.91335431,24.71781721,15.81355581
0.0900,-45.99022993,34.64108298,3.92185756
0.0950,-61.0850385,38.65084963,-2.397594702
0.1000,-52.62135926,41.48015406,-11.20102665
0.1050,-60.38212529,40.21684487,-12.33729019
0.1100,-50.97903281,33.31501044,-22.25860124
0.1150,-65.1459697,36.76081551,-28.53277727
0.1200,-47.57086059,31.1336499,-41.80047924
0.1250,-46.67785702,33.40444647,-52.38319056
0.1300,-49.71011822,28.66648711,-61.68023281
0.1350,-43.07270625,24.25179345,-70.83098101
0.1400,-34.53418155,12.4364873,-76.40222236
0.1450,-19.58173703,7.852510297,-82.33022958
0.1500,-24.70604661,9.359660698,-83.33866981
0.1550,-11.31073979,5.223308767,-76.31821899
0.1600,16.28733907,9.141530798,-85.83580152
0.1650,21.16262083,2.636571471,-72.34460183
0.1700,36.06296003,0.01229090485,-62.3770284
0.1750,32.75780734,5.890458972,-49.29713729
0.1800,58.58392044,4.278731619,-47.09702328
0.1850,66.38815254,3.711921257,-30.50699864
0.1900,66.83924682,1.530278191,-26.84846328
0.1950,83.67327664,3.996323072,-21.27329884
0.2000,74.55607656,3.29520034,-17.09457828
0.2050,81.55151691,-13.65854304,-14.34788299
0.2100,81.79174441,-5.911581461,-24.63892355
0.2150,83.4041224,-24.09582378,-12.73333092
0.2200,77.74695146,-25.85921875,-25.16223708
0.2250,84.17078241,-28.03126797,-18.08572823
0.2300,73.58918251,-34.76458794,-19.38266574
0.2350,79.40643246,-43.49810519,-9.984468915
0.2400,54.00636395,-56.12109462,-3.517706312
0.2450,62.54721048,-56.29276711,-9.685932059
0.2500,63.45306442,-58.36661369,-11.23433455
0.2550,53.88698182,-58.04469361,-5.129480298
0.2600,46.77084422,-47.48976515,-15.31180995
0.2650,54.88481552,-51.42976969,-20.82146114
0.2700,65.48662138,-48.33814586,-24.04139449
0.2750,29.57766038,-38.57399299,-15.23588859
0.2800,37.85054456,-44.84122568,-13.90355338
0.2850,37.65456339,-50.30728976,-15.49894194
0.2900,30.72452132,-50.77721554,-16.90511088
0.2950,22.88992216,-57.27174483,-16.81604389
0.3000,26.69914064,-60.01413987,-23.38165406
0.3050,19.4474703,-53.77619707,-20.11572326
0.3100,1.174574647,-69.00847405,-9.744650932
0.3150,-1.308894853,-59.30827282,-9.003945097
0.3200,-12.20352993,-48.38329008,-17.33174218
0.3250,-19.50072096,-44.5704367,-9.232955054
0.3300,-23.69565601,-22.98559615,-16.13194561
0.3350,-30.96098506,-18.92514669,-2.849923381
0.3400,-42.51054181,7.510471873,-3.682037968
0.3450,-41.20890832,20.40060705,-1.670356566
0.3500,-55.49092029,40.44868148,1.552144761
0.3550,-75.22205104,49.5191745,17.84812861
0.3600,-59.2749314,69.14962803,6.867722342
0.3650,-70.26910323,76.04469112,11.84173051
0.3700,-56.91241762,76.90189437,12.95235167
0.3750,-62.27116602,83.41340022,15.05282749
0.3800,-49.9759399,82.78277759,8.016144399
0.3850,-54.13945946,65.51956892,21.3794298
0.3900,-45.52627752,62.90304825,17.3198602
0.3950,-46.39403409,59.16971795,20.23369127
0.4000,-25.32690348,42.03216265,23.70355854
0.4050,-32.94432986,41.66861021,23.52128522
0.4100,-32.14093003,34.65921032,17.16375901
0.4150,-23.03283416,26.95489538,25.67767483
0.4200,-13.30142882,23.20399683,18.06834884
0.4250,-17.01743125,18.84593893,23.3207427
0.4300,8.224783577,21.7475676,14.83235383
0.4350,-0.3919466458,15.48157175,23.49574601
0.4400,23.74245143,15.17243799,13.3077288
0.4450,26.69736814,10.24580909,20.49802443
0.4500,26.88720808,1.174676384,11.50652547
0.4550,35.62354616,-5.802083205,10.42901095
0.4600,34.10366133,-11.72821593,8.050797915
0.4650,42.09064735,-22.13149137,-0.03100753695
0.4700,22.16631897,-32.79915742,4.28889109
0.4750,36.03249453,-39.15607549,-1.46058592
0.4800,18.16022504,-36.77339793,-3.192530857
0.4850,23.53584307,-36.19040767,0.8418775101
0.4900,13.00926549,-27.58735773,-4.94366681
0.4950,30.43485787,-21.51425596,-9.633389946
0.5000,13.61978757,-24.07166133,-6.236858041
0.5050,16.38016065,-18.50937342,-5.821522875
0.5100,9.056590301,-22.78363647,-6.684262963
0.5150,4.117626864,-16.55084006,-14.09075707
0.5200,7.196874894,-22.04735733,-15.85875805
0.5250,-1.907149875,-13.54852486,-12.32025873
0.5300,3.038331479,-20.176348,-10.14372485
0.5350,-0.2431026831,-15.5186729,-4.819725926
0.5400,-1.908798749,-15.07983289,-5.295358199
0.5450,-9.87182801,-7.833625759,-0.1865959007
0.5500,-18.52240134,-3.707373061,-0.01688353831
0.5550,-12.47637782,5.748571862,-3.75361285
0.5600,-16.70094474,15.05082104,-7.375498708
0.5650,-31.86964191,12.00150868,-0.415790392
0.5700,-12.6304373,18.65744699,-1.489335391
0.5750,-15.83533823,21.67624648,6.087669254
0.5800,-19.39408506,18.48781459,10.891466
0.5850,-18.94051175,31.4691884,7.786910145
0.5900,-12.49483898,17.84574349,6.952249074
0.5950,-20.38416599,17.73824179,7.867204151
0.6000,-18.31639201,16.74583136,4.95074646
0.6050,-17.15147102,15.9346163,5.91272484
0.6100,3.658261813,15.66778816,-4.376540903
0.6150,-13.7641744,5.897685419,2.348703379
0.6200,14.51692185,1.566781298,-0.5316011197
0.6250,24.90669787,-0.9663487795,-1.149817898
0.6300,40.88784469,-14.08007741,5.927919448
0.6350,39.48229755,-8.785273825,8.559073876
0.6400,65.18105197,-29.82666729,12.54154506
0.6450,78.15470366,-18.79074939,12.40010574
0.6500,73.1998313,-17.028316,20.31690014
0.6550,76.52089904,-22.83644673,28.70663684
0.6600,74.59823193,-18.61720805,25.13022014
0.6650,67.26785021,-14.67720159,13.34634762
0.6700,57.86008782,-20.24325236,8.152461857
0.6750,40.17377481,-29.15972203,-0.08830155107
0.6800,32.69014287,-43.03060911,-15.25432202
0.6850,21.86593872,-46.16248231,-13.04001105
0.6900,21.90802885,-41.74495259,-18.88430498
0.6950,33.59864926,-45.26067226,-23.21181463
0.7000,20.74828169,-43.27260131,-17.6671361
0.7050,36.31574311,-27.2835845,-18.03591064
0.7100,26.01051064,-18.61265361,-9.827345719
0.7150,23.22344912,-3.596419885,-7.707899687
0.7200,5.727629418,4.017244067,-4.67430686
0.7250,17.80160862,1.625090459,-1.693399894
0.7300,-11.7799588,11.28398265,6.309502041
0.7350,-15.43517687,-2.018169013,16.28978932
0.7400,-16.5107785,2.506004339,11.28507979
0.7450,-20.29424825,-0.06705308953,17.05732198
0.7500,-23.62159344,-0.004896790521,9.136857265
0.7550,-35.62110152,5.061300007,16.28203738
0.7600,-31.06618428,-0.9160192164,15.99566519
0.7650,-46.24631583,7.375053458,14.19758381
0.7700,-38.63849314,0.7852303539,8.825883618
0.7750,-41.09741247,7.932532057,4.636613731
0.7800,-32.46799682,14.075769,-1.457503906
0.7850,-37.77671748,10.81088434,4.156080793
0.7900,-32.97740535,10.22779783,2.48943628
0.7950,-27.06018777,13.08016763,10.69702618
0.8000,-31.60909705,17.98377456,6.373458108
0.8050,-9.469255481,14.19018284,9.456428069
0.8100,-21.05677705,9.472227424,15.81806057
0.8150,-2.086021622,12.81931333,16.63140285
0.8200,-12.4624268,8.814119789,20.16335533
0.8250,-27.17638471,12.04106083,22.2880368
0.8300,-10.81595021,13.76066164,16.47410354
0.8350,-17.45261715,8.820804455,22.36965425
0.8400,-25.54253962,10.60684526,21.76531582
0.8450,-15.65315804,15.69534098,17.81100025
0.8500,-0.9095674774,18.48025307,15.19074676
0.8550,4.835255521,13.39024386,21.98605946
0.8600,9.578759138,23.70808053,16.54933901
0.8650,12.63920827,22.42159334,10.76711646
0.8700,23.88559564,16.48328571,8.68902271
0.8750,18.35229793,19.61553308,0.8830095134
0.8800,0.4585085369,5.750803356,5.464572534
0.8850,4.939450033,11.39551216,-7.000151369
0.8900,-11.13655991,0.9291994082,1.56973047
0.8950,2.116064881,-2.717145272,-0.1922729085
0.9000,3.277100923,-2.643718504,-5.124390017
0.9050,24.59862278,-2.564469837,-12.42241557
0.9100,22.18976636,-8.575794884,-5.2168168
0.9150,18.98014467,-3.02223196,0.4953956089
0.9200,32.21687398,7.46473696,-0.6084024945
0.9250,14.6647087,7.398432491,11.7786542
0.9300,32.04384053,12.7128689,16.50556512
0.9350,26.05042061,32.69456392,15.99128651
0.9400,11.97410914,44.5291322,21.03508717
0.9450,8.141351488,53.69051105,25.23566496
0.9500,16.4352343,47.66358743,27.72211616
0.9550,4.867673939,43.75966198,21.94756682
0.9600,1.138928726,41.33947793,17.08605719
0.9650,0.1868073377,35.3739459,13.03574007
0.9700,-13.05617614,23.70075965,5.329352263
0.9750,-18.53033979,25.77932852,4.589677943
0.9800,-14.07692941,11.4895427,-7.106261174
0.9850,-26.67197217,6.180276112,-10.72748711
0.9900,-21.14658613,1.875251215,-1.62260454
0.9950,-19.57667746,0.5199509393,-3.868383242
1.0000,-19.53024406,-2.628456271,-9.902609973
1.0050,-29.32843127,0.4938876825,-16.43341593
1.0100,-18.71314396,-0.4056403053,-17.65729903
1.0150,-5.166898406,2.178868757,-15.75663245
1.0200,-12.64221637,0.01829741519,-19.95255102
1.0250,-2.906833895,-7.550757972,-10.8566214
1.0300,6.389943024,-18.10417185,-5.058684597
1.0350,0.9981569048,-14.9034477,-2.071354744
1.0400,13.12469004,-20.66535834,4.485120629
1.0450,27.85060852,-21.50827404,6.222954583
1.0500,33.36880677,-16.06699864,6.741329723
1.0550,46.92849106,-9.802346992,-0.6063701684
1.0600,41.36259976,-10.25171331,-2.081497938
1.0650,52.24661107,-24.78543782,1.275100433
1.0700,55.14751455,-25.97310566,4.868528517
1.0750,61.13959712,-30.05947067,7.776023241
1.0800,62.67719931,-30.63761582,-1.990878557
1.0850,65.76414172,-36.37064711,3.588512332
1.0900,77.09799055,-44.62082027,-0.2518370302
1.0950,88.54816557,-46.22207363,-0.2702424838
1.1000,90.8348552,-59.81604296,-1.504614758
1.1050,90.17157116,-58.59066735,4.882812191
1.1100,83.50215678,-45.26065533,-3.022158131
1.1150,73.41930906,-49.59749794,11.08268002
1.1200,71.86563337,-36.30842064,4.738482781
1.1250,49.45168,-25.33366573,10.83135732
1.1300,32.71626333,-14.7669176,6.045306776
1.1350,28.51064988,-5.756753425,2.51473255
1.1400,13.04356347,7.478674916,-3.96515496
1.1450,7.319022566,-1.941140195,-0.8946469063
1.1500,12.1670814,-1.352527901,-0.3150707447
1.1550,10.36750538,2.935207072,3.03796869
1.1600,12.26707814,-18.05902307,3.16226626
1.1650,12.79505661,-19.49757503,3.210261215
1.1700,28.65586074,-25.49922388,-2.653467603
1.1750,12.03992601,-32.83239834,4.224517572
1.1800,38.62784883,-34.91627405,-4.297171394
1.1850,31.29636187,-34.96009145,-1.342897209
1.1900,39.32831711,-25.27084271,-3.815293438
1.1950,41.09747781,-22.662977,4.470674912
1.2000,29.20285673,-10.80459835,8.908458463
1.2050,21.33495708,-10.82737314,17.5585758
1.2100,-7.308637748,11.61622839,16.54855733
1.2150,9.567519874,22.20546183,21.23564409
1.2200,-18.78881012,38.98414575,20.98990308
1.2250,-6.284119489,45.06001988,25.92076474
1.2300,-10.98241876,45.51655312,24.93369344
1.2350,-2.664059593,35.48156886,28.46403333
1.2400,1.575542946,38.37438004,28.80976236
1.2450,-1.919659046,31.98366433,26.8742708
1.2500,7.328926261,16.67817662,29.18140164
1.2550,13.48741307,13.305109,24.34278589
1.2600,27.48863337,-1.397813097,16.29352387
1.2650,25.93345051,-14.32735717,11.19653706
1.2700,24.63564428,-20.55752995,3.667763107
1.2750,10.30052981,-25.85240395,6.413839862
1.2800,13.61409166,-27.32861095,-7.533185175
1.2850,6.882388951,-28.52783648,-13.60989356
1.2900,-9.805968255,-21.64675749,-11.66286552
1.2950,-13.64872183,-13.12389561,-10.09345848
1.3000,-7.215904456,-8.434835763,-9.589855044
1.3050,-9.71524722,-1.338945122,2.153889951
1.3100,-5.454621351,6.469161142,3.48600214
1.3150,6.95362065,7.671755456,11.17144585
1.3200,5.012994932,29.97160363,6.749604376
1.3250,-11.60107248,25.4261257,17.75289118
1.3300,-9.64626262,31.10318278,13.92364201
1.3350,-7.965088279,32.65875351,1.738620226
1.3400,-15.83803113,22.58799167,11.94447012
1.3450,-7.21334789,24.31770016,13.10093041
1.3500,-3.88876368,4.606113351,8.422854125
1.3550,-0.476306594,2.554445985,4.099273507
1.3600,0.8644595632,-2.923233493,-5.986606779
1.3650,1.886482876,-7.656008819,-9.325447922
1.3700,9.522424161,-17.07331138,-9.147756285
1.3750,15.13067412,-18.75661322,-11.41215416
1.3800,20.51406589,-22.41366579,-11.72154587
1.3850,17.53454467,-24.60627168,-12.26412792
1.3900,24.50242372,-26.3546872,-21.91931547
1.3950,17.20578324,-17.40686687,-9.850204732
1.4000,16.05242313,-3.549316468,-13.23936084
1.4050,5.171086573,7.282169082,-8.238104861
1.4100,3.130119408,19.33651214,-5.008286592
1.4150,-13.85282509,23.09347519,5.122920851
1.4200,-22.63075644,36.82133542,14.75102307
1.4250,-17.91626018,51.13849252,18.82839551
1.4300,-29.36538021,54.87889518,19.86632564
1.4350,-44.42583515,51.41625856,10.15521822
1.4400,-50.55229385,35.92244169,5.932127508
1.4450,-45.30739457,19.02264588,5.782022733
1.4500,-47.41259765,12.10770718,-3.397690666
1.4550,-44.00619585,1.313600107,-6.673754111
1.4600,-60.58744953,-19.03160797,-7.944046763
1.4650,-42.36936045,-37.17091077,-13.39086685
1.4700,-30.77332869,-37.87730493,-16.97081554
1.4750,-27.43340777,-41.09830604,-12.52195109
1.4800,-11.05904282,-28.57701904,-12.90412616
1.4850,-2.304623419,-21.11848606,-10.12743536
1.4900,-18.0475253,-17.66854002,-1.871848422
1.4950,-21.12701161,-1.825443009,10.52655334
1.5000,-5.105840223,17.29212911,12.19955094
1.5050,-29.70366726,42.92295962,9.453533521
1.5100,-52.36295686,50.79567593,17.22972903
1.5150,-40.75837896,71.64165851,0.9035382128
1.5200,-42.70345416,57.04905706,13.5332804
1.5250,-46.15283993,52.60852751,14.63414871
1.5300,-38.26528852,44.72853266,9.033559368
1.5350,-28.04559538,24.63029893,15.71918533
1.5400,-24.69064132,7.930329812,8.244533403
1.5450,3.031176348,-2.366826107,-4.003915025
1.5500,1.108395381,-19.03279992,-6.608690529
1.5550,-11.83560846,-22.49495723,-13.60938661
1.5600,-22.86839387,-40.01248451,-9.365611774
1.5650,1.640209696,-37.11653749,-11.81724512
1.5700,-18.0379946,-31.33223582,-16.46135329
1.5750,-13.0904307,-33.959819,-6.72802401
1.5800,-4.403697407,-26.1245368,-10.38530945
1.5850,-15.69504457,-6.068780119,-7.126293402
1.5900,3.942489063,-3.849360506,-2.840780088
1.5950,-8.9029334,13.72571883,11.77322804
1.6000,-19.0660854,27.39429416,13.40343773
1.6050,-29.17114624,39.95431303,15.89824436
1.6100,-8.458157499,36.68482105,15.49556713
1.6150,-3.947257293,43.15991811,9.7787988
1.6200,-0.5610034112,39.83253948,11.29281244
1.6250,-0.4338346166,41.77635587,15.03572749
1.6300,-2.275446167,43.1708264,21.24607366
1.6350,-16.51094187,30.37216707,31.23768566
1.6400,-12.48344686,22.46337836,15.5839078
1.6450,-9.820846028,11.84532379,5.122055309
1.6500,9.804349407,-15.04609544,2.286121016
1.6550,15.77282355,-14.71200036,-4.221922954
1.6600,24.18180538,-25.69905781,-8.634262098
1.6650,18.73045081,-35.51222061,-10.88957437
1.6700,-7.82030857,-32.45301902,-20.45048451
1.6750,-3.274291933,-20.40306217,-9.101803385
1.6800,0.9927589345,1.839880101,-6.467794157
1.6850,-3.227223361,23.21715748,-3.199039696
1.6900,-5.217078496,26.71565963,-3.803661883
1.6950,-11.44687751,24.24492634,-0.7550067508
1.7000,-0.2220733486,14.76153363,7.383724613
1.7050,0.1731601995,6.769293644,10.30248272
1.7100,-0.6073231206,17.28722627,5.881062133
1.7150,4.111222143,5.283851819,10.40340107
1.7200,17.97473966,-2.990864347,1.155345342
1.7250,7.368845769,-8.219981374,4.119476193
1.7300,-3.686441293,-8.901567964,-2.022923453
1.7350,-9.81907755,2.287260838,2.214086674
1.7400,-7.925097243,-0.7317484645,1.100092628
1.7450,-12.32275085,-5.849249358,6.512368562
1.7500,11.40942024,-8.949273409,-5.41806678
1.7550,0.1691288184,12.38290755,-15.6459822
1.7600,-12.96275671,8.818879216,-6.325220016
1.7650,4.547885706,24.09145276,-5.862267034
1.7700,2.416538292,19.385142,2.574510005
1.7750,15.93226204,24.99183966,-8.416234675
1.7800,7.946981511,9.426114103,0.5262230137
1.7850,13.02371263,3.036914672,1.297929895
1.7900,2.51806814,-3.055990741,14.27713417
1.7950,-1.122837537,-9.830847651,22.85626059
1.8000,8.245360426,-1.168202324,11.24180009
1.8050,13.8576704,0.1734557057,8.954892027
1.8100,18.59820467,3.961644041,2.598889042
1.8150,21.90529618,-0.0157095219,7.016764788
1.8200,12.14674904,-0.9221859328,13.6232563
1.8250,19.60472795,10.69762561,7.30302882
1.8300,14.29659793,23.24315388,-5.722832735
1.8350,16.17339267,19.44778081,-13.69840376
1.8400,14.95664718,14.98794165,-13.8322078
1.8450,26.6653015,1.636705516,-0.02581469066
1.8500,25.80559891,-3.023822988,5.286256457
1.8550,24.93632474,-4.136710096,6.924984765
1.8600,15.65140867,-5.614446802,0.6166372162
1.8650,-1.923161663,-11.58275384,3.048277508
1.8700,-9.011989139,-2.023525473,-3.692269198
1.8750,7.23615852,0.2674724269,-7.192600753
1.8800,10.99630091,2.667549933,-18.54035685
1.8850,13.03896378,9.465022126,-22.33897802
1.8900,9.066196836,-0.8626579778,-25.9146256
1.8950,2.931896831,-6.619660995,-25.89602052
1.9000,4.206688893,1.437026135,-31.88527969
1.9050,0.192558304,-11.39855244,-19.46171966
1.9100,-9.606561001,1.158272297,-25.53774461
1.9150,-10.68394269,9.118929866,-28.22591717
1.9200,-25.88958863,21.52794976,-23.65165687
1.9250,-31.38689792,27.14710574,-16.76959292
1.9300,-33.09276472,29.71199829,-17.8560449
1.9350,-10.58684304,25.01725387,-15.45440244
1.9400,-28.90698876,7.882551567,-12.3499816
1.9450,-16.69650032,-4.477504265,-8.638421961
1.9500,-21.47565915,-17.68653414,-8.172103614
1.9550,-14.87520284,-1.006549008,-18.42574235
1.9600,-24.92177877,5.949967914,-17.23982627
1.9650,-22.12808786,0.02974310396,-15.39393569
1.9700,-19.58565466,13.77983019,-17.75291661
1.9750,-26.88179694,24.90379498,-14.68826992
1.9800,-27.13561025,27.4090383,-17.09450498
1.9850,-19.06954232,25.29194172,-21.31276918
1.9900,-19.32974763,33.45303346,-24.57048445
1.9950,-22.10866503,39.98221212,-6.403692102
2.0000,-23.04827584,43.0100896,-6.991030373
2.0050,-23.80928287,29.4700503,1.03213444
2.0100,-36.04055659,28.64648865,-1.452428807
2.0150,-43.49441476,24.93459025,8.684549971
2.0200,-47.27266925,13.52616531,17.87817093
2.0250,-43.84873544,24.33115732,16.64629873
2.0300,-41.97287683,19.00753474,12.82908141
2.0350,-28.63621685,28.09795824,6.086678555
2.0400,-18.31790472,31.04148268,-3.673494038
2.0450,-22.82876867,37.60367788,-6.203194538
2.0500,-30.14789951,-2.596477546,10.54656567
2.0550,-38.11032469,-0.6755446072,0.743386043
2.0600,-23.8740327,0.5573334725,8.583669466
2.0650,-14.14997028,9.962085266,16.27434189
2.0700,-1.947253762,12.16511941,17.10852396
2.0750,-29.01231807,14.4032736,11.38871357
2.0800,-14.70511296,4.840056629,4.878158142
2.0850,-22.34882338,7.401146137,2.380912744
2.0900,-23.16320623,2.85730244,7.642198677
2.0950,-33.39495123,7.25888914,5.10242166
2.1000,-26.53582409,2.503509127,2.878016428
2.1050,-27.80109277,-9.354107317,-19.08875737
2.1100,-19.71073403,-28.39097953,-21.78281676
2.1150,-9.958605846,-27.55838343,-18.44821762
2.1200,-11.23560832,-25.84721364,-13.17219114
2.1250,-6.709871427,-3.84430667,-16.41621054
2.1300,-7.808455814,4.182133213,-5.566724451
2.1350,-4.887334033,4.360666533,7.059103509
2.1400,-18.53892715,7.799383914,16.49980997
2.1450,-23.53736931,6.727078228,20.05219763
2.1500,-12.61946391,1.46147148,14.47643123
2.1550,-23.07092877,12.36765719,12.30335809
2.1600,-23.00067922,20.09217301,5.867061944
2.1650,-44.53009231,17.3522093,10.26017093
2.1700,-15.20761222,19.8001619,3.629726853
2.1750,-15.30871032,28.00780684,1.926101273
2.1800,-6.976114401,18.83586626,-2.092072335
2.1850,4.589524155,15.38712837,-10.39741482
2.1900,11.40303236,5.672117597,-7.875378388
2.1950,8.073939153,10.93154527,-8.84398173
2.2000,2.684082491,10.91426884,-5.346146392
2.2050,-13.35065334,-0.3306054703,0.3324133856
2.2100,-27.53393488,5.702293814,-1.966640998
2.2150,-33.05859614,6.978990106,12.44406353
2.2200,-36.57806051,15.51629693,16.54743389
2.2250,-56.94351023,14.90636052,33.78443739
2.2300,-65.66173903,30.36356658,35.32189386
2.2350,-76.71460966,23.28655038,23.88556216
2.2400,-59.11352784,-7.713020882,18.68387295
2.2450,-46.9854867,-6.255140615,0.08801955456
2.2500,-21.26718481,-8.941891918,-9.450558044
2.2550,-28.46122438,-22.74856216,-12.74277732
2.2600,-35.93860324,-16.04625903,-32.15490608
2.2650,-18.83613463,-36.49154181,-28.56809296
2.2700,29.49774775,-37.19053146,-39.28605201
2.2750,35.26079883,-24.39965741,-27.04731252
2.2800,10.47726891,-11.53023098,-6.862469112
2.2850,-9.882839068,4.103872049,1.336718352
2.2900,-0.1749764443,17.88374098,9.481354171
2.2950,0.7213823629,28.53892979,12.2738857
2.3000,6.457965689,29.05045023,11.85252148
2.3050,20.1309838,-10.13392188,36.12573576
2.3100,3.458546057,0.2845886737,53.03276971
2.3150,-10.59713839,25.03751298,60.76600224
2.3200,7.386728619,51.64549569,43.02725243
2.3250,0.7649267886,32.05278767,35.77360313
2.3300,6.60519571,20.33976417,39.19463496
2.3350,3.396284197,28.7674399,35.99307894
2.3400,-2.986971284,17.55560282,23.95557335
2.3450,-35.86364628,7.387029313,13.41951859
2.3500,-31.97157376,-18.35185322,-6.356167243
2.3550,-25.58404882,-41.24242206,-18.06963594
2.3600,-30.41929834,-26.95747199,-24.7312224
2.3650,-7.924403853,-20.51279236,-29.60433985
2.3700,5.266351776,-24.83149703,-22.41710393
2.3750,-3.97809562,-27.53435481,-9.531293188
2.3800,-10.29262304,-34.23882072,-10.53208811
2.3850,-9.64762651,-30.1287181,-13.59074727
2.3900,15.77833505,-33.62986117,-21.57487426
2.3950,-8.518021699,-32.05971445,-13.12202736
2.4000,13.5684649,-38.19844066,-5.7934474
2.4050,11.6006189,-22.33620801,-8.685038795
2.4100,21.53838242,-18.51794699,-3.109286052
2.4150,10.13781585,4.751394452,9.824207553
2.4200,-20.73069803,14.77444011,24.41858903
2.4250,-38.93548786,4.698517821,34.9133428
2.4300,-27.09277155,18.6436063,30.38282417
2.4350,-18.92017657,25.28070526,14.11077604
2.4400,4.262308025,35.61678097,-2.551341879
2.4450,-5.857439696,26.26538542,0.7717693314
2.4500,-18.74507202,21.22490543,13.07954276
2.4550,-9.304516391,14.33928185,26.98960039
2.4600,-3.713637656,8.059455997,24.52247889
2.4650,-0.1662080584,-19.38122841,31.84889185
2.4700,4.473380787,-26.72733506,18.68457518
2.4750,-3.255817339,-33.98463315,-1.612018825
2.4800,37.80404253,-34.64867897,-40.03119726
2.4850,44.66861047,-37.41061627,-51.23560431
2.4900,45.62443066,-34.31247244,-43.59462252
2.4950,40.33292709,-33.39131804,-25.05292653
2.5000,19.42652228,-40.46209923,-2.619206687
2.5050,17.78396298,-35.28647691,17.1342632
2.5100,16.84928999,-23.63465917,26.00048328
2.5150,23.48763661,-20.41709255,27.70788949
2.5200,22.05748522,-26.27565928,30.54375522
2.5250,27.96817904,-18.95063075,40.45743885
2.5300,22.26569635,12.70765144,36.91904647
2.5350,30.95304562,33.10629059,17.4313731
2.5400,29.01498284,27.210312,-1.695702435
2.5450,16.20797296,-1.865891537,2.673813602
2.5500,15.23469475,-11.5489947,14.28475622
2.5550,0.5111534912,-2.989819431,7.417043668
2.5600,24.20620084,0.5159676899,-24.17566079
2.5650,27.67287632,-9.050341904,-24.73798726
2.5700,25.73678183,-12.0092141,-21.0625971
2.5750,12.95955437,-8.204807364,-24.55151301
2.5800,28.13463169,-11.64680899,-32.98859881
2.5850,13.56565432,-11.82672171,-25.82329126
2.5900,24.36867103,-25.67409502,-6.860955189
2.5950,17.14348572,-18.14796893,-0.6435904967
2.6000,18.47262997,-19.20545226,6.484071666
2.6050,0.4978243352,-13.90458878,13.49616836
2.6100,-1.418008978,0.9318265944,20.18265935
2.6150,3.438310834,12.19388712,18.15009682
2.6200,22.11546543,2.254491983,7.997631645
2.6250,8.281387516,-5.545516448,4.715335923
2.6300,5.726523325,-12.91277011,4.126629127
2.6350,8.789408272,-12.69466152,-0.9159415932
2.6400,8.094189531,-6.936220473,-25.92633878
2.6450,12.95601256,-14.01120844,-26.13782138
2.6500,14.05847748,-26.16591846,-26.77861808
2.6550,5.575369835,-26.52901782,-16.64717725
2.6600,-2.23477422,-28.69923467,-0.388288693
2.6650,14.98997248,-16.56684321,2.335726084
2.6700,-13.00772433,-12.22163218,17.84247762
2.6750,-9.295586201,-2.861735395,20.55608223
2.6800,9.279171416,8.498123293,7.528924963
2.6850,2.357646441,5.341830114,10.7561047
2.6900,12.41612337,11.73607532,1.66964634
2.6950,16.47765075,13.18883228,-2.03140923
2.7000,17.69330594,3.584406035,-5.656496141
2.7050,11.49664988,-7.117173663,-6.452136237
2.7100,9.381514706,-12.74977599,-5.681077811
2.7150,5.178636322,-5.625459023,-5.017616013
2.7200,18.60615892,-24.88493064,-3.744027729
2.7250,16.40629795,-36.94782624,2.080090713
2.7300,12.71673424,-39.93713802,2.172959124
2.7350,-0.1169045072,-40.47984371,6.272798091
2.7400,12.94088219,-22.47144081,5.200289347
2.7450,13.44058358,-9.623710668,1.879218947
2.7500,9.173824208,3.677476966,-7.952808085
2.7550,8.524411903,0.02317874816,-10.00591644
2.7600,17.2926923,1.893844403,-21.41655602
2.7650,10.8407535,3.801702328,-23.35993262
2.7700,18.11782226,-2.061572787,-34.0825088
2.7750,28.99054336,9.519554521,-17.39530415
2.7800,19.1623363,10.16045734,-3.01232171
2.7850,19.1767341,1.028550392,4.894570984
2.7900,7.014910879,-6.089081229,11.70167542
2.7950,-9.291647025,-23.39314292,28.82233583
2.8000,1.720301778,-36.20107525,24.35167289
2.8050,-3.898240711,-32.80917929,26.87094784
2.8100,4.525524406,-13.33876403,23.16033928
2.8150,8.849039693,-7.129447053,18.23832886
2.8200,4.960879327,6.471187706,-12.13822835
2.8250,2.87078336,-17.1349859,-10.04688979
2.8300,27.4054215,-19.7497084,-11.80960179
2.8350,2.826847215,-3.401722969,2.227560935
2.8400,-1.113887267,15.78536813,-3.078470354
2.8450,14.42144152,2.297210298,0.4191167714
2.8500,-0.9671327214,-10.24237315,12.23200658
2.8550,4.625210923,6.309345414,-0.4521072469
2.8600,16.68422867,7.349582196,-13.66209759
2.8650,21.39425342,-10.19279582,-10.38382013
2.8700,14.65196085,-20.6201327,-7.242538708
2.8750,12.85369517,-18.45317946,-8.116306474
2.8800,30.85630184,-12.41018205,-12.14300165
2.8850,15.08410473,-27.61160362,11.1386235
2.8900,8.504012854,-34.30979025,26.04010092
2.8950,1.459939621,-22.07536769,33.715749
2.9000,6.540381232,-10.21308408,27.75676665
2.9050,10.02004462,-6.376662728,19.30325918
2.9100,24.1509571,-3.458577002,-1.323094375
2.9150,15.55114017,-9.81008199,10.76672014
2.9200,4.608398967,6.365799749,-2.445713477
2.9250,21.0380736,-7.583865332,-14.14209517
2.9300,12.23149617,-14.71034489,-12.16046472
2.9350,28.06571518,-14.87984944,-18.57587673
2.9400,20.67735646,-13.81923582,-20.27030672
2.9450,30.96027353,-12.78262559,-14.66776236
2.9500,16.79013863,-8.039553373,-6.775625244
2.9550,29.65334859,-9.845188168,2.233551901
2.9600,27.01922484,13.32770379,2.722606824
2.9650,33.06708637,18.79366727,7.964647821
2.9700,13.97060616,22.54616933,30.11817959
2.9750,13.76213646,17.46222844,39.62367081
2.9800,31.15681059,28.22159949,15.34206297
2.9850,31.12629824,26.40482375,-1.737908739
2.9900,41.32930695,21.42153315,-4.200702021
2.9950,29.5684705,15.9839469,-3.54556701
3.0000,31.97325633,1.078395607,-2.414957323
3.0050,23.4233786,-10.09083192,-2.592862491
3.0100,18.7009871,-23.93009433,-9.141713213
3.0150,38.35459018,-29.71653955,-7.729962934
3.0200,17.091102,-34.44986155,15.94151763
3.0250,31.55192121,-18.54004735,4.924302339
3.0300,27.77451803,-18.83420158,-7.161802223
3.0350,29.47692591,-17.81325417,-12.68013393
3.0400,38.66931655,-18.32743623,-14.25310765
3.0450,31.50855161,-25.0535281,1.683280457
3.0500,29.75863442,-14.08324441,1.283862744
3.0550,24.26704055,-1.678865193,4.362864563
3.0600,26.06013884,1.806011345,-6.211757994
3.0650,4.885717372,-1.710931253,-12.95426555
3.0700,9.713964601,-2.62683963,-24.23735406
3.0750,17.8169969,3.188135358,-27.21667455
3.0800,20.06535242,-10.11329474,-5.486601855
3.0850,17.08260031,1.253346249,3.18098173
3.0900,28.46433333,7.962809558,-0.8880561589
3.0950,32.07710715,7.856599356,8.409948315
3.1000,26.40822407,4.439794803,10.15858651
3.1050,28.47343482,-2.689829045,0.2015838277
3.1100,23.03300325,-13.58377004,4.601016327
3.1150,25.43581436,-15.96805229,3.403938978
3.1200,28.78667012,-25.84919938,-8.139507513
3.1250,14.23553752,-29.87076177,1.16144947
3.1300,9.793110946,-18.67285555,-14.27330977
3.1350,4.423897947,-30.20816924,-17.49470926
3.1400,17.78281222,-24.17324629,-23.19122761
3.1450,14.66538316,-24.93149999,-9.500233197
3.1500,23.43358393,-11.07289889,-14.17654004
3.1550,30.14257767,4.927452135,-17.78426787
3.1600,22.68385407,14.45779295,-17.60651167
3.1650,19.98835495,27.34340239,-18.55003411
3.1700,30.56316984,29.55036855,-22.27224041
3.1750,25.11380648,26.21954116,-11.61077381
3.1800,29.66749477,18.05266303,-6.483061862
3.1850,23.4665296,12.22793694,1.0756604
3.1900,2.926570715,19.41871823,-8.741382784
3.1950,11.68197234,-7.897846502,-11.08749275
3.2000,5.082548836,-27.33917488,-0.766726124
3.2050,9.169441515,-32.25645031,-10.17932211
3.2100,20.64646501,-21.19128366,-26.1066104
3.2150,13.06099733,-21.81823362,-23.9810035
3.2200,8.132477204,-27.84724551,-23.67055424
3.2250,3.551943809,-25.7945812,-18.39226125
3.2300,28.45485489,-12.15437885,-33.30653998
3.2350,23.54252394,-0.8180069089,-19.92507897
3.2400,6.332739209,3.962563629,1.1402942
3.2450,21.95624051,6.897893781,-7.826983256
3.2500,15.28555725,3.162113417,-14.729732
3.2550,17.14171637,-2.342076234,-16.13502453
3.2600,16.82923417,-4.272245912,-29.14257745
3.2650,6.438358577,-21.20919281,-12.10513071
3.2700,-4.086255835,-22.22724817,-18.74433781
3.2750,0.6633490107,-20.11347684,-29.55451679
3.2800,1.896400398,-21.13003723,-26.62406498
3.2850,-5.35407612,-14.61459166,-3.913679598
3.2900,1.660615661,-10.79568768,-5.221096936
3.2950,5.042443393,-5.92698234,-5.730476575
3.3000,-5.298890232,-11.93243062,-8.50346703
3.3050,-10.41118372,0.6489060431,-8.011292467
3.3100,9.775828196,-0.4939562965,-10.79724234
3.3150,11.62375173,12.32038602,-2.011457748
3.3200,17.27991634,13.65493789,-10.82238107
3.3250,35.16783145,19.06828857,-14.29420249
3.3300,18.9757788,24.16245506,10.43572426
3.3350,18.08036948,25.64589175,14.31803488
3.3400,20.48789472,8.765136304,17.71532026
3.3450,20.15490357,2.637570054,20.50208983
3.3500,16.19631485,-0.2227474473,13.59490657
3.3550,23.04780313,-8.68927937,-3.077319145
3.3600,-2.132633943,-13.15138263,-11.86489758
3.3650,-5.020632439,-14.19289259,-17.50297064
3.3700,-12.36572296,-14.69044619,-6.156863982
3.3750,-13.18795256,-17.01126598,11.73615982
3.3800,-25.4377065,-4.197282267,15.37250267
3.3850,-2.614665952,2.226224876,-2.02042857
3.3900,6.722614373,7.016764607,-0.7668171222
3.3950,8.670540076,3.880100077,0.8610991802
3.4000,-6.994740445,-4.381536879,16.47400405
3.4050,1.729799875,15.14320267,5.339508677
3.4100,-2.279399806,5.397640772,4.065832227
3.4150,1.296791037,6.3838917,5.952761755
3.4200,13.64859649,-7.500928579,3.505128451
3.4250,22.32540715,-6.281746891,11.35635665
3.4300,0.4311860308,-1.457479038,21.61090838
3.4350,3.510871886,-17.09978814,21.09998823
3.4400,6.481930351,-20.02201396,26.80756332
3.4450,12.9704364,-16.93487593,32.60638864
3.4500,1.708499136,-10.62161203,22.66618172
3.4550,7.676716893,2.37069034,4.316342514
3.4600,14.84833922,-0.6762433862,19.97107016
3.4650,4.366836922,17.07747044,20.35813875
3.4700,9.914864969,22.77986568,6.208004644
3.4750,-31.93523462,36.37504532,13.75674825
3.4800,-9.353837548,21.0772587,-1.656032
3.4850,-33.51709001,29.24414104,1.823085115
3.4900,-37.3567557,26.36867726,-13.35171536
3.4950,-56.13389544,13.04998975,12.95370946
3.5000,-77.98382536,23.08594801,14.36384525
3.5050,-89.72979287,17.79365273,-0.5008216856
3.5100,-81.54128817,-2.813262701,-8.626842048
3.5150,-84.31419518,-19.70168815,2.563782449
3.5200,-92.00540299,-20.64620671,13.47009227
3.5250,-81.52160196,-20.51705723,13.11346977
3.5300,-74.81102563,-15.528322,12.67405476
3.5350,-51.16487204,-11.3078847,25.514042
3.5400,-46.48449067,8.771380851,32.94882485
3.5450,-18.06183782,12.05815491,40.99098669
3.5500,-16.47400853,26.78763898,55.16685125
3.5550,-4.031580018,45.06055283,52.46273786
3.5600,9.929802917,22.70010664,49.30710572
3.5650,8.916296947,30.05081284,40.16088262
3.5700,12.09439336,16.81198124,31.96159913
3.5750,13.9258227,-1.374876998,19.39802521
3.5800,6.611250592,-12.20658383,12.37327801
3.5850,-4.129882436,-16.33912322,24.62940515
3.5900,2.08159531,-16.29230212,25.07801848
3.5950,-1.915860477,-3.699410743,14.35328789
3.6000,-5.138169823,-1.150045414,7.803595412
3.6050,-1.526053745,9.595707444,-10.4845803
3.6100,15.20566397,-7.004721339,-5.915324175
3.6150,6.675767136,-5.707712634,7.297406148
3.6200,9.57429155,2.838317946,-5.720558973
3.6250,19.47956297,5.099057733,-17.87601643
3.6300,8.707780243,-0.0684636388,-22.72682775
3.6350,10.13242167,-6.039294027,-13.99905249
3.6400,18.37905397,-13.89496437,-12.39441902
3.6450,16.0126054,-34.07076383,-11.31996131
3.6500,7.500022746,-37.26507231,-16.93491831
3.6550,20.70544824,-27.0661832,-29.2686076
3.6600,28.82005093,-28.82345215,-26.48465647
3.6650,15.43905628,-35.86433421,-21.48665298
3.6700,14.31513791,-30.46184971,-33.98882574
3.6750,39.28681342,-18.46230252,-43.45832365
3.6800,33.83646781,-13.46102908,-34.55758585
3.6850,43.87859423,-26.15363381,-17.21845718
3.6900,38.8326713,-11.20216318,-29.54119964
3.6950,50.77193709,-15.35205362,-8.24219044
3.7000,48.25395304,-27.97949512,9.632953739
3.7050,51.64435834,-18.98633845,4.600817556
3.7100,42.01661951,-21.18344607,-11.25286412
3.7150,43.02114359,-11.88848583,-30.3684312
3.7200,44.07632486,-39.68175494,-33.35503362
3.7250,33.00544567,-38.79294427,-25.33278171
3.7300,34.21884085,-41.54532878,-29.91905105
3.7350,24.13947666,-34.98118952,-25.71623066
3.7400,17.68478639,-33.55151829,-31.43279317
3.7450,18.82278011,-22.59318586,-44.18786551
3.7500,26.71304947,-15.28784825,-44.17617502
3.7550,36.63858038,-19.31808498,-20.56460651
3.7600,25.3132424,-2.360959581,-11.94758871
3.7650,15.9570388,3.918085673,-16.24079657
3.7700,39.64446865,9.408590577,-23.28546184
3.7750,38.76062395,19.71382168,1.856211734
3.7800,26.7976311,20.59896992,11.45917575
3.7850,27.9976459,21.10596917,7.156254908
3.7900,39.56162116,32.41355977,-20.69030157
3.7950,39.33205327,11.35067353,-10.88547888
3.8000,43.14871682,17.93541311,-8.613516187
3.8050,36.57377336,29.44449672,19.62398607
3.8100,52.21594556,37.85388995,7.158421415
3.8150,58.71918387,39.44310787,-4.061488194
3.8200,70.09682488,35.102601,5.398107141
3.8250,76.72426255,30.25434061,14.04103002
3.8300,79.44477003,21.44104385,13.70639883
3.8350,69.38373778,1.817840509,7.467915138
3.8400,64.95020966,-10.03220194,18.36847145
3.8450,61.50160664,-25.60990203,31.73277668
3.8500,53.23704283,-49.92171772,27.57366486
3.8550,47.21697643,-49.28604455,23.24151593
3.8600,46.70703819,-56.26965764,30.14124708
3.8650,42.96868614,-46.46853521,25.74958357
3.8700,43.54437583,-29.36543504,12.13192054
3.8750,41.41187821,-11.00914446,21.83064706
3.8800,62.42852137,18.1099118,9.50112664
3.8850,48.13293411,30.28290387,13.24292921
3.8900,49.90148293,36.16780313,10.93204614
3.8950,56.69342951,54.38009387,24.29553757
3.9000,55.68507029,49.52870227,35.32531206
3.9050,32.5309131,39.32410536,29.74351892
3.9100,40.68240017,21.07579028,18.36707302
3.9150,32.57948097,21.18068986,33.94317551
3.9200,17.35880628,-6.712003222,38.95180255
3.9250,7.464371514,-23.80493995,29.77178558
3.9300,0.7488240743,-18.82792158,25.14410711
3.9350,4.494647368,-22.73318736,27.07806885
3.9400,9.725802054,-5.526278383,10.7899722
3.9450,2.567198354,9.614227631,5.839898522
3.9500,5.874930833,34.81911571,1.156398505
3.9550,1.838597634,45.15442398,11.78944023
3.9600,19.51178715,64.33396652,-6.129147026
3.9650,13.19649207,54.72328602,2.941948012
3.9700,-3.213564628,40.19579245,15.5515135
3.9750,4.327169296,34.97557039,6.486788056
3.9800,-2.73772035,18.89627533,13.36028984
3.9850,-7.159412795,-5.437262408,10.38853595
3.9900,-26.53508631,-18.97976246,20.19725403
3.9950,-26.42851035,-24.79902598,4.679336454
4.0000,-32.20897266,-40.57148917,6.305335006
4.0050,-40.89834545,-41.81638438,4.515952366
4.0100,-37.04203795,-34.87971901,-1.139196029
4.0150,-38.06538639,-28.78583075,1.11804246
4.0200,-26.6081886,-15.69621206,-8.570310706
4.0250,-18.27726037,2.076615773,-9.717860915
4.0300,-24.8891179,19.12554715,3.53112744
4.0350,-11.43123388,36.7400924,5.034327405
4.0400,-8.848127616,39.39444012,5.939535064
4.0450,2.224388094,51.86800404,-6.497948642
4.0500,-1.275165492,45.95631899,-0.7794700027
4.0550,3.941321791,33.37464749,-0.5769071053
4.0600,-4.580552527,4.774723262,3.541679915
4.0650,-10.17005755,-12.80607625,11.52883218
4.0700,-10.16645795,-30.24164832,13.53586668
4.0750,-17.53796005,-40.83815349,12.09076573
4.0800,-40.72597363,-49.63626727,15.80181665
4.0850,-22.02217713,-29.02273324,-10.69749127
4.0900,-36.96503415,-33.47992043,2.600795968
4.0950,-23.82969707,-18.50512589,-1.879079367
4.1000,-21.84831069,-4.029735775,0.7829872113
4.1050,-28.70896057,19.38975055,9.579094653
4.1100,-8.816243969,42.31826834,-0.6434981658
4.1150,-2.947022267,48.26504798,17.26152227
4.1200,0.01799608115,47.38382696,10.88663693
4.1250,-1.792881105,41.50779229,-4.639879739
4.1300,-5.863472597,35.27230783,-1.462991485
4.1350,0.7801402713,16.16978969,12.80805302
4.1400,-3.930397343,13.89388321,10.89367754
4.1450,-9.744548038,-7.862341636,16.52656423
4.1500,-11.00209373,-14.27096481,12.88588461
4.1550,-23.77311491,-19.50171661,15.93662799
4.1600,-17.70989013,-16.42656323,0.8091919271
4.1650,-29.30029171,-18.84992402,11.9377508
4.1700,-17.45636879,-2.458427589,-5.908714971
4.1750,-11.58286918,8.053878287,0.79924316
4.1800,-9.90257993,18.07260064,7.207616575
4.1850,1.889554993,24.03407282,12.40101093
4.1900,1.409844524,49.50462088,7.925178193
4.1950,-2.983752173,49.01824062,12.51620952
4.2000,5.477786285,47.954209,0.5994308845
4.2050,-2.74784778,27.61119978,11.83841939
4.2100,0.9082461841,11.77697884,5.289844845
4.2150,2.168097741,-0.3249193471,9.431097078
4.2200,-11.54694592,-11.42338297,19.26163482
4.2250,-16.10431507,-20.03502958,19.09521232
4.2300,-5.568002313,-24.3008431,2.408714779
4.2350,-17.77219018,-24.13022952,5.99708187
4.2400,-20.57972292,-31.27178947,9.908686637
4.2450,-5.979904803,-9.186810146,-0.5846509442
4.2500,-3.283941129,15.49529637,0.7030516007
4.2550,-1.109665171,15.7835407,7.027957889
4.2600,0.6423390422,34.99978405,-2.436947624
4.2650,5.469363384,32.88482813,-1.287721824
4.2700,13.09956895,30.72604151,-11.8141113
4.2750,10.07049119,15.10998761,1.208651012
4.2800,25.74631947,4.790215236,2.359998884
4.2850,22.7481481,-2.072791176,9.39303146
4.2900,20.00618316,-8.66921113,2.563887322
4.2950,22.65012529,-10.16415849,-5.624388662
4.3000,14.5243102,-14.61797184,2.734846716
4.3050,19.78586113,-16.43384096,-7.345924783
4.3100,25.88924205,-32.87321774,-10.74903362
4.3150,35.82878088,-27.19947813,-21.194742
4.3200,24.7842035,-34.85907737,-7.662940314
4.3250,27.8784226,-16.43010195,-14.53981242
4.3300,29.88269039,1.722325901,-19.68833101
4.3350,34.03882915,12.42995275,-8.353521344
4.3400,38.73188355,15.40740102,2.215577547
4.3450,53.28864907,11.11702042,-4.897049897
4.3500,62.90362213,-2.686361991,-15.22490938
4.3550,52.4854612,-6.924946497,-10.69522658
4.3600,49.14189588,-4.67030735,1.495742515
4.3650,49.7997357,-16.06954453,0.1836813675
4.3700,65.9655926,-34.55782056,-15.41556048
4.3750,45.65125059,-43.07906319,-6.083143386
4.3800,56.3896526,-51.06488863,-17.61515706
4.3850,48.74672235,-48.89682997,-15.90040476
4.3900,44.91863499,-47.30185125,-14.72845645
4.3950,41.67381351,-39.40978429,-14.51398543
4.4000,51.90206015,-34.87231342,-21.27952274
4.4050,54.76812081,-23.07065315,-18.64973102
4.4100,67.09014368,-18.13818267,-27.36333884
4.4150,67.20057996,-12.4314464,-26.50020352
4.4200,75.85969135,-1.786528249,-31.36141006
4.4250,62.81115871,7.257542997,-13.47603383
4.4300,63.46236353,2.219842157,-9.789715333
4.4350,70.52141998,-10.94959002,0.5876151059
4.4400,74.4206131,-12.14470955,6.625224719
4.4450,66.93716386,-16.74668457,18.76635982
4.4500,76.08684516,-23.83519432,10.8584069
4.4550,63.3203613,-31.96411489,-0.2729392818
4.4600,59.92016474,-30.61264944,-12.46894268
4.4650,46.92630382,-36.06652647,-1.399436666
4.4700,53.34137785,-35.41363329,-1.528507067
4.4750,54.56663302,-27.24996169,2.738048824
4.4800,53.58275356,-22.08296384,3.708792859
4.4850,52.14804101,-13.51869109,-4.141753461
4.4900,37.01038112,-9.105672294,-2.350946649
4.4950,62.87907123,4.390705073,-10.8572999
4.5000,50.44912822,2.746333274,8.71300274
4.5050,39.11231708,-3.237046237,22.03805954
4.5100,39.52420071,-1.068836674,26.19400078
4.5150,25.21807904,-4.600416511,28.54957261
4.5200,14.98437871,-8.80796209,15.15971765
4.5250,-9.489000594,-19.03394611,12.18957511
4.5300,-6.448944682,-38.05632058,-14.41762919
4.5350,-20.02711888,-43.36564495,-10.27137025
4.5400,-24.11885597,-39.49258352,-9.655432315
4.5450,-18.39072858,-31.78647099,-4.88022886
4.5500,-4.411158403,-12.77648723,-8.482705725
4.5550,-9.109740795,-8.937997254,7.458392722
4.5600,-3.622111305,19.53926091,-3.605588415
4.5650,-6.889242743,21.29385996,-11.23286621
4.5700,19.02723325,30.00957874,-33.38893288
4.5750,1.898163686,29.11768375,-25.37670674
4.5800,4.142795121,27.80989732,-25.45800087
4.5850,6.300264836,29.64001352,-24.25269736
4.5900,7.781283875,24.78488356,-23.55719474
4.5950,2.234429411,20.43620311,-10.74768769
4.6000,3.24448994,12.21319242,3.232525526
4.6050,-1.414443982,12.90222924,11.11686722
4.6100,21.04784131,3.707968598,-1.574897311
4.6150,25.95458773,6.549142668,3.656811719
4.6200,25.47715634,-7.928551427,5.37700766
4.6250,28.40897222,-9.981221146,-8.358837243
4.6300,32.23142104,-9.386405608,-17.91331143
4.6350,35.00069165,-8.863865128,-9.687830983
4.6400,29.85071424,-5.744093469,-5.315817571
4.6450,37.68319239,-18.33995745,-5.626626773
4.6500,25.99688184,-19.35032082,0.5573670482
4.6550,28.38564256,-22.03987517,18.75422343
4.6600,7.485147318,-25.01086845,22.22671337
4.6650,10.73912888,-31.73235466,6.304519471
4.6700,22.16409475,-47.51355444,-13.64350188
4.6750,-6.021414025,-62.83280285,-1.773860631
4.6800,-2.576106315,-56.51584347,-3.615670719
4.6850,0.7938775121,-44.6768263,-10.08271586
4.6900,-4.505734277,-33.35739228,-11.18649052
4.6950,19.68256817,-6.29747965,-4.812882296
4.7000,25.7272826,10.72178651,3.123965619
4.7050,30.20964796,23.84459067,9.713850045
4.7100,31.44702242,47.49097574,4.361937413
4.7150,32.72475966,53.90303428,2.148058329
4.7200,24.21440184,59.26817756,-4.929255303
4.7250,40.44832654,42.21055661,9.418682098
4.7300,20.19663413,37.69215586,23.68525465
4.7350,37.0586873,26.25608525,22.52777556
4.7400,14.33714038,12.12229861,24.09382426
4.7450,15.04625352,-3.098532289,22.15346336
4.7500,8.953237608,-32.38216444,15.09885996
4.7550,19.76889888,-28.8539722,10.26639661
4.7600,-8.99521473,-45.44487394,16.28389466
4.7650,-1.985844287,-37.24140508,2.723119679
4.7700,3.407849204,-48.86438478,-1.225574945
4.7750,9.475734367,-47.95906781,-8.306047129
4.7800,13.49653394,-42.19662188,-5.786376272
4.7850,12.35147121,-31.45036342,-3.078738076
4.7900,11.63672154,-31.81094606,3.620111924
4.7950,10.07510643,-20.81139239,-0.1172332877
4.8000,-1.830477351,-14.09585652,14.95780354
4.8050,16.52934332,2.054257261,10.50289379
4.8100,-2.674972814,-0.6393379705,21.89849842
4.8150,8.833514619,-21.86560334,29.32807522
4.8200,5.654078083,-16.75098824,17.63084239
4.8250,-0.2465127783,-22.71602124,21.27772271
4.8300,-0.7992080541,-17.71624229,16.22154613
4.8350,-2.075501002,-20.36796808,13.61435542
4.8400,-2.63637836,-24.92471757,11.99880977
4.8450,3.130883636,-18.11415647,2.010308362
4.8500,-1.530994026,-26.74959562,14.13723156
4.8550,-10.47107188,-16.45696757,14.90948302
4.8600,-4.743471158,-13.77916736,-1.01531162
4.8650,-17.41082189,1.60824734,1.052743868
4.8700,0.3931144987,5.187341741,-1.19847478
4.8750,-7.088771195,3.339099384,6.895309593
4.8800,-15.38966931,5.122544653,7.711899638
4.8850,-29.78694894,-0.1123282344,20.24044923
4.8900,-34.38120985,-16.02089511,29.13037581
4.8950,-27.317008,-4.737341833,31.00004932
4.9000,-36.72383355,-11.34917941,31.83072835
4.9050,-21.34963332,-5.966196109,23.76427819
4.9100,-23.05305942,1.05980677,20.99624007
4.9150,-3.874674293,30.92536807,6.402463651
4.9200,-9.557560666,47.15570598,2.0069195
4.9250,5.173187109,61.24042679,-7.17766385
4.9300,-6.11832151,49.15099504,-1.420994165
4.9350,-9.436509264,53.42524235,-6.935100597
4.9400,-23.04954487,42.91181875,1.622808603
4.9450,-27.59314482,33.40438422,4.668817625
4.9500,-35.05043241,25.68561412,8.103198877
4.9550,-22.13341009,6.544550366,8.15979817
4.9600,-22.34995022,-7.662871223,4.85903547
4.9650,-37.19178084,-35.08437557,11.41665085
4.9700,-36.57683489,-42.16697332,-0.7383103025
4.9750,-47.67866998,-39.00816717,-8.352343448
4.9800,-41.44942641,-39.21053219,-15.48134097
4.9850,-17.35354442,-33.27833612,-22.57253491
4.9900,-8.014990368,-27.26699345,-23.85798371
4.9950,-6.091851845,6.487971703,-36.0054581
5.0000,-16.59765311,21.64642988,-31.40466411
5.0050,-12.79643357,21.30728434,-30.35420979
5.0100,-10.42467111,32.81460923,-22.25050549
5.0150,-2.646192007,44.31286352,-20.94731927
5.0200,20.10427365,38.38184037,-9.101463331
5.0250,-1.212210943,46.72991418,5.922873076
5.0300,-14.29815932,16.56335888,20.99058765
5.0350,-14.44143082,-12.36985933,31.94444249
5.0400,-9.984382476,-14.42541194,28.38558564
5.0450,-16.30098163,-5.082954373,21.24850644
5.0500,-20.01518626,-6.149116436,15.88121394
5.0550,3.307107455,-9.607000889,4.923622306
5.0600,4.342660857,-13.89435161,1.096622214
5.0650,18.50391161,-11.55048541,-12.82556388
5.0700,16.68094596,-0.6034074815,-25.15808419
5.0750,17.24268304,2.468050688,-39.29048562
5.0800,3.238400884,6.133721189,-40.00488678
5.0850,8.045399158,28.11946545,-31.56186419
5.0900,13.84700435,29.29525391,-16.59838837
5.0950,-8.50041621,30.05372653,11.28805712
5.1000,-2.484690235,39.44352853,17.9072213
5.1050,-7.263243831,26.18985968,23.6181226
5.1100,-11.11682295,26.08407284,31.24525317
5.1150,-2.286213545,14.2538622,30.38345802
5.1200,1.023674648,-2.602829586,25.09251962
5.1250,2.924385428,-8.115081579,9.728544717
5.1300,8.423151945,-19.68115579,-10.73269649
5.1350,18.00384326,-23.2783541,-30.17010142
5.1400,22.00940798,-7.221284509,-35.334368
5.1450,6.997798803,-0.5106493329,-25.63399918
5.1500,3.550577833,6.399096027,-23.93807093
5.1550,-13.91621413,22.21231147,-8.160592091
5.1600,-12.53267696,25.78076917,3.220673402
5.1650,11.84773535,17.39572015,9.165839333
5.1700,1.02700676,4.662806301,22.70019816
5.1750,-14.42852212,-5.901756068,31.10187851
5.1800,-16.42945404,-17.51399344,25.29834541
5.1850,-13.2410775,-11.82889326,27.07865967
5.1900,-14.88425562,-0.4744790532,19.08061802
5.1950,17.49173988,4.339054089,1.37803245
5.2000,10.76627192,2.557737387,1.775522898
5.2050,-11.81694892,0.7808005716,-5.698016759
5.2100,-5.648445275,9.232999068,-8.901803691
5.2150,-5.310716458,36.85251832,-22.24433403
5.2200,-3.56875024,33.01593932,-25.34505507
5.2250,-3.360673069,49.2307485,-13.42957289
5.2300,-20.99844727,54.4931812,11.83628548
5.2350,-10.42711445,50.90031696,29.27361831
5.2400,-10.83537698,29.99252808,44.39462327
5.2450,-6.107072175,15.51149036,34.5396564
5.2500,-15.52113672,23.51848265,39.13220841
5.2550,-22.03945439,27.22354613,34.85047402
5.2600,-19.7499926,15.52632074,19.16402042
5.2650,-31.88690298,4.366285958,14.56353413
5.2700,-22.36092517,-14.33905808,-11.42755906
5.2750,-26.9369082,-6.7592456,-26.42902063
5.2800,-11.79625881,1.523347494,-44.63513742
5.2850,-15.07913903,11.49966986,-37.9901905
5.2900,-27.96131534,8.374617819,-26.79929458
5.2950,-19.70361327,21.55433271,-26.14963931
5.3000,-13.05469412,14.62175517,-24.41498367
5.3050,-11.39099971,-2.134069542,-21.3194762
5.3100,-16.69069776,-16.86269772,-5.195776131
5.3150,-61.10148371,-6.542859814,9.054494215
5.3200,-78.93512388,-17.34897597,21.2986728
5.3250,-63.99139524,-16.68289213,17.12516865
5.3300,-32.42934362,-27.83943073,15.20485984
5.3350,-30.57054922,-25.93668228,9.757552407
5.3400,-32.54920909,-22.76747028,3.207212341
5.3450,-20.34727856,-11.31683974,-18.58088247
5.3500,-0.4170147552,-5.649979115,-35.0351289
5.3550,2.169835293,-8.701878197,-48.21463146
5.3600,12.09869044,-6.506772799,-70.38553143
5.3650,18.4665469,17.38511542,-69.45391761
5.3700,12.24212807,37.20320451,-57.01320824
5.3750,0.4826037353,36.95589641,-23.63775227
5.3800,-12.53605936,39.52203076,12.55656293
5.3850,-17.38284372,19.52600784,40.80060493
5.3900,-49.82169187,3.860893408,64.35864198
5.3950,-29.5069619,-0.2377522788,67.81627477
5.4000,-41.02014278,-29.95163851,71.26766745
5.4050,-43.7572522,-39.02337273,60.0246309
5.4100,-65.40529282,-52.03569653,35.87511112
5.4150,-59.24441761,-70.52490664,-5.256408639
5.4200,-28.2681958,-90.9789868,-54.60283929
5.4250,-9.977065037,-103.6145742,-98.15278905
5.4300,4.182221656,-98.20848529,-127.7291807
5.4350,32.93911021,-90.15103848,-125.4787045
5.4400,46.55800099,-77.7634992,-118.8222992
5.4450,42.97949878,-60.84887933,-88.60289018
5.4500,31.32185194,-43.8414049,-46.55719465
5.4550,-4.742373356,-8.79680114,-5.570777096
5.4600,9.954497503,28.65540175,26.97263337
5.4650,-3.867548505,73.72574682,43.54513091
5.4700,-0.04728128106,100.1748677,58.0173776
5.4750,8.561277155,100.9358892,77.55981027
5.4800,-1.487322449,94.73322189,75.51340549
5.4850,-22.05722448,84.23232259,56.26266319
5.4900,-28.15797899,62.88176963,35.99148274
5.4950,-28.1991736,71.94519622,9.590595123
5.5000,-29.60883482,66.18783824,1.774333395
5.5050,-19.44356393,58.11796796,-7.318665717
5.5100,-37.90890116,46.72583719,-18.98549113
5.5150,-43.32952531,30.97935048,-28.45244508
5.5200,-18.9024209,24.73953237,-45.77271857
5.5250,-15.68674149,2.42194463,-17.80126376
5.5300,-11.88635288,1.414691477,-10.69012981
5.5350,-42.59728214,-2.782999672,4.79203635
5.5400,-37.94185686,2.513740264,-8.325731555
5.5450,-40.39847399,5.976807889,-13.71551767
5.5500,-42.73619765,7.231006609,-11.1442352
5.5550,-33.2841966,7.383900909,-6.534623185
5.5600,-50.60046285,11.60027286,-2.102861891
5.5650,-46.53500977,19.07067843,-1.938579976
5.5700,-51.99110012,17.59436416,7.103141092
5.5750,-49.54733,24.79955722,7.192574385
5.5800,-35.53287716,29.4724636,-3.131159594
5.5850,-8.290108654,31.44339845,-24.30472008
5.5900,21.77695354,7.848659916,-34.73594819
5.5950,16.70582867,1.393558788,-28.66642955
5.6000,-9.331544715,5.694900887,-8.311871582
5.6050,-24.44581967,15.18490951,16.25949267
5.6100,-26.59694469,30.99420238,41.93918697
5.6150,-44.94435801,54.25176435,40.20279849
5.6200,-58.08971295,43.71418668,37.32276424
5.6250,-59.12610894,36.79414187,20.23850507
5.6300,-56.28126421,18.73227074,10.52744252
5.6350,-33.63947134,16.99038264,-0.1555940568
5.6400,-44.64890897,-6.228955577,5.29245478
5.6450,-27.1111281,-16.98479234,5.40431065
5.6500,-9.667739826,-20.82817403,-10.3968315
5.6550,19.53683723,-27.2932847,-22.75016262
5.6600,50.47847139,-21.61955621,-40.06921983
5.6650,52.82330898,-23.1076292,-30.12420799
5.6700,56.32105073,-13.33153037,0.005955736247
5.6750,30.11466916,0.2301529429,27.10944478
5.6800,14.0568309,8.086379799,45.68481714
5.6850,-11.44511166,30.54926956,52.06483839
5.6900,-40.54938808,26.7398889,62.27978897
5.6950,-56.34378277,45.12608761,53.63893076
5.7000,-61.86175657,42.31131616,45.92773769
5.7050,-46.53603097,47.15208438,30.7711478
5.7100,-36.5490019,53.18474001,12.17052692
5.7150,-36.95531416,37.01439953,-5.945908796
5.7200,-15.69464721,12.58674448,-33.59625118
5.7250,3.759691235,-21.30239914,-45.87902516
5.7300,10.10646981,-35.8666593,-59.80028842
5.7350,38.73686721,-40.74225823,-72.27616155
5.7400,50.21187735,-49.77562036,-66.96284146
5.7450,39.14391204,-64.79683591,-48.47163561
5.7500,45.49946176,-62.76042613,-18.53961104
5.7550,26.8140576,-41.31665101,7.729740693
5.7600,15.226507,-24.06280556,23.40534948
5.7650,-7.868882428,6.10185161,27.86498411
5.7700,-21.38268176,22.25108781,35.93888992
5.7750,-14.64874971,27.70577579,42.9018117
5.7800,-2.109449612,34.9590616,42.5565471
5.7850,-1.678609804,32.13651187,28.00569758
5.7900,10.6734518,19.79531427,4.199937821
5.7950,20.72906706,7.342153959,-9.262949482
5.8000,44.96715803,6.899701654,-33.5957713
5.8050,62.8653151,-11.81498864,-24.15524295
5.8100,87.27874452,-31.18299716,-27.93061186
5.8150,74.4849484,-49.895612,-27.49905304
5.8200,74.36597604,-67.87683135,-11.96871448
5.8250,69.8489978,-64.64952271,15.03374174
5.8300,65.14457436,-43.88872973,21.93171173
5.8350,42.38336161,-31.89560431,34.93046155
5.8400,30.9913705,-18.03713054,32.21962755
5.8450,-4.105174258,0.2444537584,32.79391978
5.8500,19.6096184,17.41488189,31.82517614
5.8550,6.036424371,30.10314737,32.76762873
5.8600,14.7201882,31.32906603,23.91628205
5.8650,14.24327471,19.41128328,19.81203068
5.8700,20.38546388,0.3720416058,12.89039486
5.8750,26.86068098,-19.40299133,4.847788811
5.8800,43.20886384,-28.2436489,-18.43609846
5.8850,48.8745148,-51.27173196,-17.22131697
5.8900,65.21826867,-59.5210066,-22.57771232
5.8950,60.64779432,-66.12435802,-18.05980242
5.9000,45.5974852,-59.52174301,-12.89760593
5.9050,45.37628441,-50.24171196,-4.427876757
5.9100,43.59495886,-45.80667299,10.42628099
5.9150,23.04490269,-32.72747877,29.14086718
5.9200,19.10939982,-16.69704842,35.90314685
5.9250,8.60634879,6.524624816,48.97493741
5.9300,11.07577217,16.59470809,48.99512613
5.9350,-18.46637006,33.96995887,51.14418343
5.9400,-28.96049022,31.39318362,45.28341149
5.9450,-28.27778901,26.60222596,43.23307373
5.9500,-10.27919335,34.5106915,24.4624074
5.9550,-25.42419463,20.51272361,22.5767054
5.9600,7.952786975,13.96796156,-4.332701973
5.9650,21.34963538,0.2513673313,-21.64069814
5.9700,28.96882278,-18.99846318,-20.18409707
5.9750,51.22677801,-27.38764212,-12.28121709
5.9800,59.03757885,-29.94565255,-10.12578419
5.9850,43.83501169,-23.77588917,-1.958428269
5.9900,21.5998713,-14.77174553,-1.796916729
5.9950,-4.975952999,7.111750611,2.726297175
6.0000,-15.61575126,20.52127258,1.755710428
6.0050,-66.50623414,40.07537483,-1.075242728
6.0100,-45.0350148,33.47532318,-0.9699774026
6.0150,-78.67848102,49.46869409,-7.364823103
6.0200,-60.90631389,37.57239914,-2.296956576
6.0250,-70.34448325,35.62947316,2.926791179
6.0300,-42.14848512,16.73170104,-5.49603087
6.0350,-19.94556592,6.518428728,-9.738877892
6.0400,-0.2581597527,3.750264772,-24.61377852
6.0450,2.817141935,-8.26539103,-28.51991835
6.0500,29.46024032,-11.3862966,-31.22268748
6.0550,35.89284353,-15.47879381,-21.49868146
6.0600,28.47014582,-15.3054303,-16.22526899
6.0650,26.35178769,-3.862893536,-6.900417442
6.0700,16.75408811,12.22360195,-6.870030979
6.0750,2.349192299,25.62707549,0.5444303876
6.0800,-7.491609981,26.48772677,6.570553593
6.0850,-19.17483769,29.14718571,13.72968099
6.0900,-34.56281782,27.85964979,24.37252771
6.0950,-44.3934084,28.36821098,26.83870301
6.1000,-56.07923935,28.22717848,22.69088674
6.1050,-46.52164725,12.13062341,18.14347682
6.1100,-43.31869424,11.77708555,5.571769502
6.1150,-26.98521432,17.84348495,-0.8314399052
6.1200,-28.95042524,10.6649558,-3.526040683
6.1250,-19.50987788,2.208075905,2.616445617
6.1300,-16.59859162,-3.408952965,9.79509993
6.1350,-6.250475223,2.853714724,13.85907664
6.1400,-9.203985971,11.12851608,21.45055975
6.1450,-15.1280382,21.03609261,33.07597602
6.1500,-11.23322701,33.88115086,28.69595646
6.1550,-2.289924855,32.02175672,29.66593794
6.1600,-2.088174031,40.35331603,15.41813404
6.1650,4.147753968,43.46989386,18.50461194
6.1700,-8.706740915,42.76535518,6.59960493
6.1750,9.942626639,40.49656348,4.144760945
6.1800,-0.5623001663,25.525147,9.119997891
6.1850,4.402356176,6.101068324,-9.722577905
6.1900,6.57990662,-13.06739389,-11.92983826
6.1950,5.880270798,-11.08958121,-16.14040237
6.2000,-2.468106585,-24.27846176,-12.85323846
6.2050,7.491080889,-22.99059193,-22.33745317
6.2100,13.2562057,-33.36841318,-13.4419267
6.2150,15.83222683,-34.63882052,-12.20448106
6.2200,21.65108102,-34.73515973,2.393989744
6.2250,9.327073818,-17.27292047,2.034708071
6.2300,8.718789147,-5.345256371,-3.146792835
6.2350,-16.46774211,14.00921765,5.054146507
6.2400,-23.03858945,28.79627826,4.396042991
6.2450,-22.65841777,28.83964751,1.792626492
6.2500,-15.07731324,18.33108788,6.080039865
6.2550,-10.37780757,13.18597741,15.6273492
6.2600,-1.230128702,4.929074163,8.825310617
6.2650,-0.9381265285,16.10812323,-1.762153904
6.2700,8.713201391,12.70188242,-7.879800859
6.2750,-4.816149821,8.479773277,-0.552077826
6.2800,-9.490889825,-0.1903803259,-3.80117482
6.2850,6.863877434,-9.673123426,-4.129001002
6.2900,21.26405209,-9.536131074,-8.905477136
6.2950,16.17811587,-18.07733208,-5.369588101
6.3000,15.77911301,-21.39442742,-3.91883083
6.3050,16.65594925,-23.41467539,-4.812507899
6.3100,15.98397653,-37.22691287,-0.4555117562
6.3150,20.78949576,-34.42300913,2.868138778
6.3200,3.656193295,-18.72866323,-5.775712911
6.3250,7.371170344,-3.543121749,0.7912904907
6.3300,9.744175727,13.41808429,-3.387993877
6.3350,1.870402572,21.95386796,2.599411908
6.3400,21.19317258,23.29650884,3.052554097
6.3450,12.84077942,35.06616951,-2.335181291
6.3500,30.92218062,28.03695558,-3.629420443
6.3550,29.20564472,18.39888202,3.343658721
6.3600,24.22015037,2.776965418,10.82417898
6.3650,22.12259901,-1.446295515,11.07879721
6.3700,13.67795883,-6.390475208,-5.227278785
6.3750,21.44311213,-26.19206896,-15.154871
6.3800,11.51277598,-37.39167105,-18.23093776
6.3850,14.6019348,-35.46313654,-18.09811644
6.3900,12.83045568,-42.1634551,-14.03052742
6.3950,-2.014786993,-33.40576404,-3.49615891
6.4000,5.714390151,-13.87643949,-14.07171801
6.4050,-0.1680525693,1.79232701,-4.06239165
6.4100,-4.480612716,20.71641514,3.158436484
6.4150,-8.602023022,34.04036284,-0.2752314407
6.4200,-1.564575721,26.77015081,4.244014774
6.4250,-0.6779913306,29.14053699,9.754219638
6.4300,5.715274347,11.97783538,14.24916259
6.4350,-9.800870692,14.88321804,15.9264955
6.4400,-5.787312744,13.77508402,9.042227806
6.4450,-14.08887462,2.813359857,1.368569381
6.4500,-24.78005811,-5.161364999,-0.7491835183
6.4550,-29.17718406,-2.220936494,-10.43402706
6.4600,-28.30799761,-14.73229632,-10.14387553
6.4650,-19.43514562,-11.51242122,-21.15089341
6.4700,-23.26540876,-14.64353216,-21.23486768
6.4750,-28.66704398,-14.92936024,-8.898598377
6.4800,-27.73309125,-11.89702594,-11.86611383
6.4850,-35.71142052,-7.985418788,2.115934413
6.4900,-35.035895,2.71003406,-9.85078544
6.4950,-25.65727674,9.795667133,-8.286543753
6.5000,-15.45782971,13.18680341,-5.74049676
6.5050,-10.42248048,19.86684767,-5.468188551
6.5100,3.085408397,8.125801806,-3.595243405
6.5150,8.618281261,9.364558451,-3.913233197
6.5200,10.45463462,-7.920498848,0.9200439477
6.5250,5.251178272,-2.195368969,-0.9594838348
6.5300,4.806308381,-7.492133142,-4.675269792
6.5350,7.052188056,-7.600699964,-4.16034477
6.5400,6.817110273,-6.312316375,-8.420159536
6.5450,4.511570835,-6.882673458,-4.050238893
6.5500,-13.59727013,-3.740402206,0.2541042865
6.5550,8.139107263,-11.65950638,-2.650560109
6.5600,1.057926254,-15.83631108,0.3215060117
6.5650,-5.958845038,-5.964163182,6.490964381
6.5700,3.457856728,-6.877592328,3.751091597
6.5750,2.350888185,-1.277843695,7.270367987
6.5800,22.20342216,4.340654892,7.54540218
6.5850,19.9533379,2.684473929,10.26026309
6.5900,32.78022385,-4.932622535,17.10683723
6.5950,40.93495165,-7.660594274,19.10632262
6.6000,31.54220908,3.414470994,7.635428227
6.6050,19.01898811,4.452096917,16.18105322
6.6100,23.97094586,13.57382572,6.830861858
6.6150,26.01056171,19.28182942,11.35729965
6.6200,13.05553826,7.325499712,6.573057078
6.6250,26.89092021,1.554737645,3.978547899
6.6300,17.10821685,-4.992919968,-1.808275106
6.6350,22.94441619,-11.04202463,1.551798372
6.6400,18.84381878,-15.37341023,-0.6471155705
6.6450,6.89541021,-15.16841184,-3.614814304
6.6500,5.190381125,-18.57702848,-11.55839184
6.6550,0.335480443,-17.06500865,-12.98766218
6.6600,-5.085754042,-13.6360378,-14.58242986
6.6650,-9.364648689,-9.81034131,-14.41648257
6.6700,3.205607841,-11.1156205,-10.64426328
6.6750,-2.644762482,-8.815152308,-1.972028709
6.6800,6.244890918,-10.63406647,-2.222967719
6.6850,7.89674021,-1.4931464,-2.418809059
6.6900,11.8010221,1.196162259,-2.29826829
6.6950,6.474005388,9.349993967,-5.558737879
6.7000,-1.298545087,-3.457326779,3.43172518
6.7050,13.65495479,-0.2676364823,-6.507753546
6.7100,14.5056729,-1.174620956,-9.379785784
6.7150,10.67889249,-3.159050546,-1.155468283
6.7200,16.5151094,-9.384454122,0.6462184243
6.7250,11.75532629,-2.736479276,-1.945720722
6.7300,19.11844143,5.931287491,-3.475224007
6.7350,37.75755263,-4.750986005,6.826914137
6.7400,32.63975255,-9.198761978,9.579984728
6.7450,38.45889055,-13.14186917,14.65112442
6.7500,38.68335553,-13.01677337,12.00597124
6.7550,24.42661014,-11.35185163,15.93986121
6.7600,26.59095243,-4.295163137,6.089968834
6.7650,20.04001006,3.613824447,-3.611196779
6.7700,26.08428883,-0.3860396079,3.337370822
6.7750,20.26526828,0.9399510312,9.753910541
6.7800,31.80493596,-4.638939523,6.218171037
6.7850,14.81048456,-1.559943448,6.446536163
6.7900,8.927335258,-6.984101473,3.580969791
6.7950,-0.8015881763,4.130952154,-2.907840601
6.8000,-5.365530309,3.189780802,-1.721245248
6.8050,-1.156111539,1.057133379,-7.363884089
6.8100,-7.617827363,-0.5056001407,-9.215675565
6.8150,-13.19044207,-11.69016056,0.2435208237
6.8200,5.233621909,-13.01932612,-4.021724657
6.8250,-11.34649268,-2.094764764,-3.323880559
6.8300,6.933289735,-6.225339134,2.460412658
6.8350,-1.83719373,-10.27186741,10.44449222
6.8400,19.32252157,1.869940673,-2.782359255
6.8450,12.7655444,-0.1472362235,9.264635716
6.8500,27.22152066,1.206608514,8.484593201
6.8550,30.67925139,-0.4232168747,15.42467938
6.8600,40.22124148,-1.55350053,8.798699225
6.8650,40.81855392,-3.642964075,1.714426355
6.8700,33.37312661,0.5255589139,3.139023972
6.8750,37.70844263,-7.831521219,7.241820498
6.8800,25.05398406,-11.57001402,6.033784733
6.8850,46.38830482,-17.45358012,5.694114089
6.8900,34.19246049,-33.00259042,5.520368064
6.8950,24.93727455,-27.66811383,-2.177361175
6.9000,28.7613669,-18.68629979,-7.890377448
6.9050,15.73375207,-20.28428882,13.1276975
6.9100,15.44870008,-8.09194309,17.03737344
6.9150,12.68894948,1.342441903,18.38872843
6.9200,18.05175043,-10.35246044,20.39247608
6.9250,28.22028264,-2.428485442,24.41336264
6.9300,21.7773115,11.23916952,14.87328818
6.9350,29.46431313,11.09986556,25.18540603
6.9400,20.00830101,29.05257625,10.18082355
6.9450,18.61474651,18.3962888,15.76539299
6.9500,9.472308724,10.50989227,6.983970778
6.9550,13.33423517,2.518472693,2.542796405
6.9600,14.24800899,-7.117100735,-4.710434256
6.9650,0.1665835532,-15.36739596,-2.862572614
6.9700,-2.883066127,-13.66235793,-5.059377563
6.9750,-24.95107214,-12.89380233,3.258820073
6.9800,-17.16024887,-7.442858886,-9.481733321
6.9850,-37.90288162,-0.5204921633,-5.181958801
6.9900,-28.22878005,-0.02624642491,-11.12983885
6.9950,-28.35589301,13.60119229,-14.81920224
7.0000,-28.66407681,28.90829416,-10.71390552
7.0050,-22.51388589,38.49452135,-8.330019164
7.0100,-14.96528684,37.88180824,-4.031836369
7.0150,-6.259375307,35.48477733,-6.725956827
7.0200,-13.2035816,16.37950505,1.530132945
7.0250,-6.391213433,10.11168115,-1.414724967
7.0300,-19.82987504,-0.05761112606,-4.928253245
7.0350,-16.14370663,-9.547266647,-7.694092673
7.0400,-22.00987246,-15.53445244,-8.992938681
7.0450,-16.78287377,-15.70901391,-4.44355569
7.0500,-12.51026806,-19.27493692,-8.922412942
7.0550,-12.11904456,-13.65466365,-5.545261439
7.0600,-2.11804421,-7.6871967,-4.846475993
7.0650,-13.09041037,8.993267926,-1.414460323
7.0700,-14.73483126,17.65593137,7.920353076
7.0750,-9.021069532,21.28735212,20.40501293
7.0800,8.651992,24.79724597,15.13013495
7.0850,5.995650745,16.45769543,20.97684868
7.0900,-5.261883504,22.99232368,8.482311489
7.0950,-12.60814455,22.05803405,3.975414908
7.1000,-11.86965897,15.88267396,-4.800036075
7.1050,-19.16120764,17.15304254,-6.094073109
7.1100,-27.05974654,14.85402713,-5.419112212
7.1150,-30.21233677,12.72532121,-4.548606634
7.1200,-40.55577995,1.606134902,-1.788366456
7.1250,-26.28597925,-8.735536152,-2.51181054
7.1300,-19.46664079,-1.913567625,-1.254008542
7.1350,-23.24909324,8.89273877,-0.6699178097
7.1400,-27.39688054,14.06106851,3.176000391
7.1450,-34.60369224,18.7648321,3.326697764
7.1500,-16.25256969,15.89201459,2.033168769
7.1550,-10.63153208,19.68930467,6.025391095
7.1600,-10.34871061,25.75434095,11.80414662
7.1650,-2.3890946,26.57571595,12.3122847
7.1700,6.233018177,17.80080483,14.32764448
7.1750,12.01817994,15.79271176,15.67454156
7.1800,28.36936364,5.796996603,18.79966318
7.1850,29.08508089,-2.039233923,17.00186733
7.1900,24.86617996,-8.157955936,13.72178485
7.1950,32.02546045,-10.15057113,13.55227187
7.2000,31.08222779,-8.581517628,7.894348088
7.2050,26.74119647,-4.320835231,5.520766357
7.2100,28.3356668,-0.3247180234,0.8518535435
7.2150,24.91106976,4.517818507,3.351504252
7.2200,22.67553603,6.006738598,-4.519059288
7.2250,15.21180769,4.967048485,-9.014231217
7.2300,18.96076809,-1.62342315,-6.15955397
7.2350,14.59338999,6.164765264,-9.245175248
7.2400,7.442604892,4.111191284,-5.275242804
7.2450,-0.1315887251,9.32369469,0.03830253996
7.2500,28.22114415,-0.7391597487,-1.593998746
7.2550,14.99570846,-2.907463815,4.645923759
7.2600,14.48196498,-18.87890562,17.14568339
7.2650,8.981933878,-11.92369868,14.28348861
7.2700,21.29113975,-12.39624717,2.919838997
7.2750,-4.681902659,-2.130143052,-2.318563366
7.2800,-11.10884911,-11.61043297,-5.423591447
7.2850,-15.28054671,-7.740314216,-19.73658313
7.2900,-44.29162227,3.544221906,-27.97684078
7.2950,-26.24013324,8.896943912,-31.21480305
7.3000,-47.1742556,8.712969355,-34.10926967
7.3050,-47.97780317,-3.285493618,-28.64683075
7.3100,-36.46241649,0.008079136473,-30.9905566
7.3150,-39.59612832,-6.203906419,-13.49875412
7.3200,-22.36008821,-7.378337441,-8.214641982
7.3250,-19.59759499,5.512397377,-8.59284803
7.3300,3.147717023,12.70437873,-5.773704463
7.3350,13.01549062,6.242602647,6.80752348
7.3400,14.9337908,7.147366234,16.80936906
7.3450,41.88568775,4.257056172,21.4020333
7.3500,54.71725575,-6.079336054,28.98786927
7.3550,58.1089927,-9.566050163,30.84110643
7.3600,64.8858295,-8.813082509,28.42434988
7.3650,64.56885538,-20.20741175,41.33044914
7.3700,87.14856667,-8.893522394,26.84235586
7.3750,86.92251411,-12.75756961,33.71587669
7.3800,87.07169541,-12.11903207,23.42048761
7.3850,74.60667195,-15.9955929,26.75350059
7.3900,82.08228603,-10.0714531,15.74476551
7.3950,57.879684,-5.599769932,17.71931805
7.4000,50.77162942,-6.66045822,8.359778956
7.4050,26.26828822,9.802098831,-4.926797071
7.4100,26.82928969,11.28694139,-11.76801828
7.4150,7.604125767,11.07999909,-11.88045158
7.4200,-8.175239735,12.79517293,-19.98620133
7.4250,-4.178141687,10.3511453,-22.64858809
7.4300,-9.459363651,7.036326254,-21.61960755
7.4350,-38.25340928,12.07774974,-14.82405227
7.4400,-32.54186492,3.357033592,-23.68508058
7.4450,-40.00631944,9.459095042,-21.10779479
7.4500,-59.42833307,5.250791979,-18.46040955
7.4550,-53.27613885,7.186787628,-25.89426771
7.4600,-69.45036976,0.745389225,-24.36371349
7.4650,-59.79365517,-7.403966739,-19.87475361
7.4700,-54.76472158,-9.459665369,-19.0496257
7.4750,-63.61371533,-8.585155784,-11.2612431
7.4800,-48.46808339,-16.26914804,-6.233479471
7.4850,-41.54632405,-8.075413518,1.150983285
7.4900,-38.54443014,-10.56004759,6.675718921
7.4950,-25.85446629,8.492743447,13.35298163
7.5000,-10.20750932,10.74752956,15.58738056
7.5050,-3.508724052,17.3872016,19.30115695
7.5100,4.923284411,26.49617094,18.59140584
7.5150,17.76031517,25.49991003,17.73950612
7.5200,22.63171817,14.33972578,18.3325532
7.5250,25.94469157,10.9986331,20.58108897
7.5300,30.76265868,-0.1749302193,14.9957473
7.5350,36.19492806,-11.213397,12.85336338
7.5400,23.42473017,-13.31320233,4.076410362
7.5450,26.79875338,-15.13527443,0.2400523467
7.5500,36.92547559,-14.70758642,-10.95492092
7.5550,11.63027384,-20.18627889,-1.061819045
7.5600,28.87671591,-15.15788963,-8.32111716
7.5650,18.02733269,-7.961338971,-11.25119765
7.5700,5.793601718,0.7955845864,-5.486092198
7.5750,8.762503679,7.468002964,-11.96086555
7.5800,2.393427253,10.44698831,-7.398771692
7.5850,-4.447045242,8.532859118,-3.597810922
7.5900,2.950549372,13.67038245,-1.31208469
7.5950,2.917257777,-1.438859609,4.498570037
7.6000,-1.585180645,-11.90960662,7.910381657
7.6050,22.14479789,-19.47296559,-7.82263073
7.6100,34.12293968,-28.7574381,-0.4263107236
7.6150,43.36917341,-32.24542487,14.44350493
7.6200,51.13240024,-35.10709416,19.55725216
7.6250,49.88927181,-39.96654556,30.69567558
7.6300,52.74833041,-34.94950977,36.36250205
7.6350,54.72344358,-16.66290151,34.69411616
7.6400,59.33236921,-2.781989911,37.51759847
7.6450,49.5446066,16.53371789,37.73767495
7.6500,41.66886922,32.22569516,38.12345212
7.6550,36.63757286,45.85079567,35.42134704
7.6600,44.66262774,42.4185684,36.68623263
7.6650,54.88283899,43.77118046,27.50401775
7.6700,61.64237491,31.12307041,36.48881052
7.6750,75.10823172,18.4969325,34.95963741
7.6800,104.8796638,-7.231441081,25.20324674
7.6850,103.4946253,-18.13691048,19.90575554
7.6900,101.3146528,-28.05535602,13.88195423
7.6950,94.43358096,-39.47584519,8.023769332
7.7000,91.55392989,-49.36429045,-0.3462422029
7.7050,75.33322103,-37.95221311,-12.52126861
7.7100,59.64673684,-28.92854901,-6.27522817
7.7150,43.83226546,-12.18696581,9.133905141
7.7200,22.47090351,9.143156143,17.73152013
7.7250,10.71860611,34.08604007,18.31530985
7.7300,-3.003890004,38.09988,16.81926033
7.7350,-17.95505955,44.53682673,2.65131185
7.7400,-32.83178118,40.19031347,-11.90187794
7.7450,-11.52760979,16.855958,-11.03192857
7.7500,-2.788084869,-12.42147436,-20.30820661
7.7550,5.274808912,-43.60973854,-12.19260582
7.7600,24.16061526,-71.51415727,-12.1772456
7.7650,37.50692557,-94.45486583,-5.274836255
7.7700,42.48197909,-113.9734025,-6.5053441
7.7750,45.25891248,-129.0542536,6.291788114
7.7800,44.51654313,-119.1459247,-4.638970556
7.7850,68.28558651,-94.05360539,-17.92205232
7.7900,76.92348701,-79.03669103,-8.733212821
7.7950,75.97042594,-51.2799873,4.171261198
7.8000,104.5003529,-29.50717769,3.615278284
7.8050,64.04187225,4.298875994,11.62803347
7.8100,50.88725417,27.0942993,16.0138784
7.8150,34.5021949,49.51786065,7.531365898
7.8200,0.9012520312,61.62218979,4.239938884
7.8250,-15.96331169,65.34467781,3.264677739
7.8300,-24.70347994,61.08819927,-4.702873151
7.8350,-51.32498656,57.98396954,5.956350637
7.8400,-53.24432867,45.92210316,-4.115681498
7.8450,-62.39048177,22.06069388,-9.95812606
7.8500,-64.34348062,6.905434324,-20.6197602
7.8550,-59.85637802,-12.7250848,-25.96487544
7.8600,-60.76906485,-21.09588564,-24.34205419
7.8650,-56.48360113,-36.26371068,-19.76122186
7.8700,-51.06320391,-32.76530379,-36.06260296
7.8750,-60.06596017,-39.21474701,-25.74952606
7.8800,-54.64801501,-31.26755059,-30.71295271
7.8850,-34.53855352,-29.24425132,-32.9619137
7.8900,-25.24947373,-22.32668593,-26.32173971
7.8950,-22.65369943,-9.446185606,-15.22166142
7.9000,-21.14967376,8.357818537,-8.195621711
7.9050,-39.37793516,28.78588895,-2.750040855
7.9100,-29.71765716,41.37994658,-3.94263967
7.9150,-24.30128016,50.29177899,4.279462429
7.9200,-18.29995087,51.34814793,-1.682082138
7.9250,-8.671811229,39.28371026,0.9703572139
7.9300,-3.858036557,16.97226954,4.359680083
7.9350,-9.890797475,6.979367628,12.44847779
7.9400,1.552662849,-4.833911277,7.647582939
7.9450,2.101458431,-3.818647075,3.074011984
7.9500,-1.656088127,-14.57698021,-6.517758744
7.9550,1.453614516,-23.46947373,-4.617162716
7.9600,21.02563584,-14.80951166,-16.49987585
7.9650,-2.736737931,-11.16093333,-11.96206219
7.9700,7.856770688,-13.80513534,-9.065264606
7.9750,3.228941084,-11.20796156,-6.733990836
7.9800,1.509061382,-23.31115993,-4.274656802
7.9850,-14.14637682,-19.61253404,8.384044625
7.9900,-1.888576569,1.429607134,2.737407478
7.9950,-6.35883083,12.30126742,6.347385862
8.0000,0.5642688964,16.32067831,9.828482251
8.0050,6.282063324,23.55461734,8.683458579
8.0100,-21.0955719,36.47614889,11.94541207
8.0150,-9.28924689,33.05109731,18.45886658
8.0200,-25.97029653,35.1009918,16.13163078
8.0250,-16.31998978,31.49409187,12.5638922
8.0300,-27.80013812,24.97937856,18.21420595
8.0350,-29.42976494,12.82686579,19.16288942
8.0400,-38.59476233,14.77740452,6.890096122
8.0450,-26.17160643,7.854297915,0.4781953397
8.0500,-29.69211127,1.97274975,0.1300355752
8.0550,-26.4306171,-4.0913674,-3.415846266
8.0600,-14.67840011,1.427115825,-12.20102465
8.0650,-22.41827539,-5.870780152,-1.468130466
8.0700,-19.76721688,-9.179671818,-1.234140575
8.0750,-20.97205332,10.98299763,-1.324184645
8.0800,-22.33089645,26.65600625,-2.996858453
8.0850,-27.49128415,23.71356584,-1.349230278
8.0900,-17.00832687,34.77353425,-3.651860246
8.0950,-18.13723318,31.11993419,2.016212903
8.1000,-20.68352854,28.47445979,2.510605372
8.1050,-18.24873793,31.05881413,-4.608977494
8.1100,-31.81802733,24.43017982,-13.05078828
8.1150,-16.5967403,16.99199451,-6.998992295
8.1200,-14.86846776,12.83465418,-4.534291649
8.1250,-13.49195117,5.953519809,4.461567957
8.1300,-18.90743214,-3.645063877,11.56318635
8.1350,-25.48964043,8.377841854,3.960097071
8.1400,4.101733313,10.51426825,-3.347067081
8.1450,-3.585830864,13.61809837,2.695768305
8.1500,-1.897329542,5.07355521,14.11418762
8.1550,-12.37178544,13.73379683,10.42108539
8.1600,-6.543977376,-2.758679781,15.00852974
8.1650,-9.520309223,-6.959687152,10.57725331
8.1700,-4.62839345,1.355197711,4.544000943
8.1750,1.643721942,21.02736751,2.063666949
8.1800,-10.23456448,40.91974709,4.552920773
8.1850,-1.855933622,45.87017117,3.630061487
8.1900,-11.04906844,53.62840048,4.105498215
8.1950,6.289929272,47.48376126,8.677400488
8.2000,-4.175025755,40.83943194,2.003734268
8.2050,4.079510443,26.02625386,2.015362059
8.2100,-1.852906584,8.752793929,2.933641803
8.2150,-9.295963048,2.537397751,-1.489849678
8.2200,-9.594568233,-8.405990174,-0.7826150709
8.2250,-5.132524204,-25.22130948,-5.917959339
8.2300,-6.480459601,-26.1848949,-11.64456548
8.2350,-19.17808231,-22.55815782,-3.314745753
8.2400,-22.06605658,-9.792373456,0.8718211239
8.2450,-24.37266606,-10.51581173,7.500492862
8.2500,-3.32397187,5.163252998,3.857306842
8.2550,-11.81167978,26.06652328,3.147649226
8.2600,-2.993495862,34.95606716,5.358084256
8.2650,1.284737352,37.83668003,15.54969523
8.2700,-0.5748320415,31.72997847,20.39400909
8.2750,4.145373948,37.22743571,15.44916999
8.2800,-12.08332166,19.87962736,20.37639055
8.2850,-18.13935075,21.69678224,13.42858162
8.2900,-11.83359315,23.40861302,5.447846433
8.2950,-20.89880136,22.46632556,0.1187350467
8.3000,-19.65550558,9.834649938,-2.677340831
8.3050,-16.9885815,-4.904013786,-3.956323584
8.3100,-2.588490775,-9.444375985,-9.714127976
8.3150,-17.2804286,-14.49435272,1.264530767
8.3200,0.4078753673,-26.02768876,-6.611757869
8.3250,-6.182546268,-16.67811357,-17.12889829
8.3300,-11.66028794,-7.380134741,-8.76040536
8.3350,-23.85826958,5.026664402,1.9673488
8.3400,-24.26178932,19.06624365,8.364902243
8.3450,-22.44068409,19.71397335,18.61598262
8.3500,-16.93125442,12.83619265,11.97258475
8.3550,-9.148535832,21.03919721,4.508625824
8.3600,-5.440754024,6.329751862,3.433269664
8.3650,-7.406790458,7.116398233,-1.505616002
8.3700,7.610933828,6.164979407,3.905968174
8.3750,7.433855322,12.33155512,7.945490761
8.3800,2.019667869,12.25667857,4.370531948
8.3850,-11.78566283,0.915963989,3.673943319
8.3900,-2.134068173,5.253774739,-8.430838681
8.3950,-10.6729161,13.17582806,-4.689473748
8.4000,-2.992021858,13.32109551,2.127311795
8.4050,-15.05313138,12.08524052,17.23446522
8.4100,-19.0061224,10.05091232,19.22230546
8.4150,-32.37752193,10.43897522,22.72906437
8.4200,-30.7817372,13.4656391,6.04356662
8.4250,-11.65418811,10.56960939,-3.795823699
8.4300,-17.70714163,-4.052343337,3.906015977
8.4350,-8.397782924,7.209657869,1.095313755
8.4400,-10.22596487,12.24144792,3.639615748
8.4450,-27.51243892,-2.850793543,6.012022446
8.4500,-24.09886799,-3.40339426,-1.267097231
8.4550,-26.31745564,0.8018213211,-5.215261908
8.4600,-12.13205916,7.664632077,-6.516679219
8.4650,-31.76010185,6.6418293,-15.09869293
8.4700,-13.79325813,-2.491854746,-16.1698686
8.4750,-4.549908178,-0.7028217402,-15.60597525
8.4800,15.26222297,11.46322376,-11.77932342
8.4850,1.109929027,35.10687442,-5.369369776
8.4900,9.922254197,49.19686393,3.548817251
8.4950,2.44859285,39.9087509,16.60948348
8.5000,-7.137886187,34.34832026,17.33194348
8.5050,-17.31179084,23.07860807,18.24601185
8.5100,-30.79497577,17.13980255,10.34927364
8.5150,-21.23162423,21.11676949,6.615212117
8.5200,-30.82735662,25.09189317,11.86299683
8.5250,-48.4484256,31.71170607,10.35655958
8.5300,-38.65097132,36.89243945,-5.960768898
8.5350,-51.69804508,22.56262528,-0.5132404832
8.5400,-19.98527191,8.822897384,-8.254713059
8.5450,-31.63959718,-5.712633962,-18.01258326
8.5500,-8.937687689,-30.77484844,-30.34098288
8.5550,-20.18198419,-33.09820547,-28.27151204
8.5600,-28.54117562,-31.14028752,-26.47677101
8.5650,-24.60239258,-18.04552644,-17.55622979
8.5700,-14.2734367,-1.810195183,-18.54038578
8.5750,-22.2736955,-0.5944769407,-8.137234935
8.5800,-8.066762336,-13.83685109,2.774089931
8.5850,-2.393429629,-13.03194065,8.434564755
8.5900,-7.367920578,-10.83777803,20.27014544
8.5950,-18.57185757,0.1319089859,26.26163403
8.6000,-32.06375426,12.13544461,26.43863979
8.6050,-68.9343088,5.365707284,37.50116349
8.6100,-59.89491108,29.70989938,36.20047612
8.6150,-46.10762804,37.29896228,31.94959834
8.6200,-40.03180413,20.00543435,21.47571616
8.6250,-49.15215913,3.801495765,24.03314415
8.6300,-41.25259553,-9.060207461,11.91808816
8.6350,-39.69508462,-10.23108546,13.90587454
8.6400,-32.44694739,-11.59820103,3.408465375
8.6450,12.12073317,-14.48556106,-17.52222316
8.6500,48.15130363,-25.63900348,-34.18423666
8.6550,69.94726401,-28.23967252,-39.96592298
8.6600,75.59836033,-23.95117948,-33.43533527
8.6650,77.81687424,-2.852367402,-21.89411386
8.6700,62.45898488,8.226356198,-4.039021586
8.6750,52.57444679,14.4203053,18.83173123
8.6800,40.1906248,35.62784996,18.47088329
8.6850,11.48613556,39.4750222,42.02384876
8.6900,12.24669936,63.46535422,38.90380784
8.6950,-9.936480975,67.25710374,43.61374832
8.7000,-9.743777,71.28070145,37.59384047
8.7050,30.4213628,69.92660067,22.84506974
8.7100,63.97953989,31.97203787,-0.5460502709
8.7150,74.53472239,3.766245293,-18.79905716
8.7200,77.42627248,-40.24562872,-22.55760934
8.7250,55.32743596,-59.89182484,-13.81551589
8.7300,48.47575694,-67.16770126,-15.26972733
8.7350,17.99867005,-78.11703278,-4.08740117
8.7400,10.9761928,-78.15035519,-3.687018591
8.7450,-10.97574817,-69.40856663,14.64555422
8.7500,-40.97108803,-62.16850598,32.62776356
8.7550,-16.67572184,-34.03833529,28.62215097
8.7600,-19.21079371,-25.8295825,17.34459131
8.7650,6.289374326,-16.94710722,5.93148473
8.7700,-5.077281535,1.465390257,-6.413418128
8.7750,9.479006397,14.80303805,-17.69388776
8.7800,-13.18903426,26.9027505,-21.84020556
8.7850,-19.81476867,30.66217406,-24.13222259
8.7900,-23.08521994,26.87530574,-18.97610031
8.7950,-43.60753609,22.18941435,6.531590628
8.8000,-50.67860155,29.18724789,10.3999286
8.8050,-65.33624336,30.90420425,-0.9756796982
8.8100,-39.16319472,9.645597934,-21.51352441
8.8150,-38.92549274,2.106235061,-26.00371246
8.8200,-22.43876891,16.82128198,-40.54593423
8.8250,-18.8578378,18.18574531,-31.25267226
8.8300,-19.02188436,8.779211922,-22.96946127
8.8350,-13.88507839,1.521492278,-16.95284736
8.8400,-17.3064265,-1.60392477,-15.15439534
8.8450,4.701514515,-8.140162534,-7.12796925
8.8500,3.37820229,8.529678203,-19.04285024
8.8550,-10.84694553,8.843045934,-12.26984585
8.8600,-10.03587671,10.83177271,-23.67636609
8.8650,-32.46914224,-2.974903311,-4.440743587
8.8700,-37.83873798,5.087854079,15.08342049
8.8750,-53.32718712,17.92426704,52.52528806
8.8800,-65.10837977,18.29790837,79.24390718
8.8850,-52.13833262,23.58350793,76.4290985
8.8900,-35.60660322,17.76192606,58.07213018
8.8950,-20.17860938,29.32343397,28.6660216
8.9000,3.422304609,18.76041045,-4.186730746
8.9050,11.51390092,-7.974569037,-13.3868965
8.9100,-20.84841291,-51.35102785,5.724714294
8.9150,-29.10777972,-76.31982445,11.71176205
8.9200,-49.97419272,-53.74170711,17.95553508
8.9250,-19.22809312,-55.75036159,7.431071135
8.9300,-11.44216373,-36.95021845,-24.84607112
8.9350,29.24688526,-33.52907264,-45.35745282
8.9400,37.02640835,-31.30526666,-57.41553403
8.9450,27.92228661,-22.46150112,-59.85445252
8.9500,22.51382243,-6.632037203,-63.35035845
8.9550,21.69328022,21.96749627,-59.29514084
8.9600,32.43970648,12.04363013,-10.4836432
8.9650,-0.9034935179,-1.439023437,50.24392277
8.9700,-7.779970032,8.618401949,75.94527754
8.9750,-20.80358287,13.39470868,87.69284178
8.9800,-11.22585448,17.29548732,74.68160485
8.9850,-6.651196793,23.66346543,52.27733987
8.9900,-0.6461345172,11.81962211,31.24957115
8.9950,11.1607059,13.96099517,0.3152639521
9.0000,18.89677737,-1.868293696,-29.84172391
9.0050,10.42000109,-9.022314249,-30.84078515
9.0100,-5.514873106,-17.51090254,-11.17268102
9.0150,-7.399543395,-33.69256687,13.71562418
9.0200,2.426048752,-14.9363711,-2.749218569
9.0250,3.757800499,-30.91444443,-8.791917197
9.0300,35.177918,-33.77407714,-21.62360665
9.0350,22.22077813,-38.73150709,-3.300270469
9.0400,32.05223448,-41.33221355,-5.478169912
9.0450,24.12714835,-53.55729646,-5.688450457
9.0500,38.2133855,-41.14104916,-19.62195659
9.0550,25.5847706,-29.5098351,0.2655586438
9.0600,35.02028517,-24.51234932,13.67338623
9.0650,28.35446402,-27.79807254,30.00644559
9.0700,5.918492035,-18.33408624,39.43119382
9.0750,8.329799707,-19.09807445,48.66161882
9.0800,4.350123579,-13.86371457,46.9902855
9.0850,11.48587053,-4.789954349,28.18854612
9.0900,52.48913872,-0.2175483037,7.755015773
9.0950,58.13735171,1.044035878,3.094520388
9.1000,46.97972533,-15.61808378,15.35848562
9.1050,22.85103434,-32.62350966,41.7472048
9.1100,39.90086504,4.505347799,27.97771662
9.1150,57.05013128,27.38439335,25.33347078
9.1200,77.87531284,18.99119536,37.20932907
9.1250,56.62375911,-18.75912868,79.47290347
9.1300,41.91586723,-34.50141541,87.1257379
9.1350,56.82399268,-26.23311496,44.69508638
9.1400,94.49988279,-8.762191594,-19.72642536
9.1450,89.96058011,1.205243371,-64.03479012
9.1500,93.94075221,-2.636369831,-79.298905
9.1550,80.57555014,4.139797527,-75.87127245
9.1600,70.92041534,16.10563188,-82.46315318
9.1650,59.04944357,19.07085912,-61.26832008
9.1700,47.38492335,17.59783388,-28.16887227
9.1750,35.22668174,16.28464706,18.2882657
9.1800,30.51997721,34.82898682,26.41726884
9.1850,42.20604033,66.49836154,-21.22831298
9.1900,57.83208505,28.46783936,-28.86176835
9.1950,23.61069847,21.59920792,-17.4376121
9.2000,14.06550524,24.21053791,-23.04869635
9.2050,3.658466348,12.17949844,-27.56969481
9.2100,-13.80255953,-20.00234688,-7.02982556
9.2150,-41.82655948,-29.15672569,18.84040538
9.2200,-69.39684773,-23.66095778,18.58305869
9.2250,-38.21815396,-18.94934453,-22.2010264
9.2300,-30.8609326,-21.37746968,-52.98539794
9.2350,-50.50002995,-31.03498298,-54.81416463
9.2400,-69.13249339,-36.95451577,-63.54794103
9.2450,-55.64122633,-28.39986566,-71.32580816
9.2500,-38.45491642,-8.641866119,-77.30471284
9.2550,-46.79384703,-5.614321574,-67.15753038
9.2600,-36.84676618,3.068608467,-63.41394281
9.2650,-19.88866957,-1.578034671,-45.57770263
9.2700,-12.81584313,-0.6096576298,-21.58396799
9.2750,-26.9100061,23.69840753,-8.737214722
9.2800,-27.06598268,11.08506181,-9.915876861
9.2850,-48.28743831,-0.06772987509,35.167561
9.2900,-81.85354317,6.368826105,64.16515953
9.2950,-57.86804559,-8.420318393,46.32714649
9.3000,-32.68170436,4.163103909,-1.555651884
9.3050,-30.10658312,-6.794526277,-3.865725428
9.3100,-30.72884284,-6.927134142,-1.202326855
9.3150,-5.573971344,12.86132085,-18.49105611
9.3200,9.579212538,29.90463738,-42.30777914
9.3250,13.28421967,28.69280601,-30.03587148
9.3300,2.326781668,1.553980383,16.06402533
9.3350,-17.48427051,9.453962758,67.36683339
9.3400,-34.63543709,13.10928129,66.52905678
9.3450,-35.48222003,15.70750205,35.01788437
9.3500,-23.15704205,20.04799968,15.41722753
9.3550,5.920965157,-1.349759839,20.7290705
9.3600,1.265658744,-4.999732485,18.71202489
9.3650,-19.1664778,11.67623602,3.062847969
9.3700,-6.052329577,10.66944099,-16.27784545
9.3750,-1.136917854,7.637681313,-1.37245575
9.3800,-15.18347783,-13.20151167,14.14453097
9.3850,-19.10683507,-31.13861345,19.70755011
9.3900,1.957782014,-20.97150461,-4.984732425
9.3950,27.70957618,-25.40393545,-21.79451062
9.4000,10.92805689,-30.37184729,-25.5775311
9.4050,2.444203455,-45.20203925,2.326409611
9.4100,-4.42404784,-39.75911774,14.01587206
9.4150,9.192073659,-32.67388851,10.00995305
9.4200,12.84223443,-30.63967231,-6.622944135
9.4250,0.4735032167,-27.48074218,-1.045587928
9.4300,7.225475423,-23.59429158,-1.915489795
9.4350,16.06696118,-12.9349843,-7.262676688
9.4400,22.11801209,-6.839433752,-4.603860575
9.4450,-1.629874538,-9.7264107,7.613177303
9.4500,2.785257868,-13.88867344,11.60685396
9.4550,-2.585673284,-16.81824716,14.45580716
9.4600,13.19855905,-29.75631136,0.8321575047
9.4650,25.43775753,-35.26139161,-5.898239453
9.4700,24.46125576,-30.49594295,-13.33441289
9.4750,19.48541521,-7.52406691,-22.17622288
9.4800,11.54685683,-14.58685976,-20.41126553
9.4850,8.817796441,-9.058824856,-23.56095949
9.4900,32.30615799,0.3040396408,-37.4725509
9.4950,29.61953755,-10.72334369,-11.46994095
9.5000,22.22808232,-22.41190359,0.113108307
9.5050,10.86034303,-7.465207601,-4.771464192
9.5100,3.857109241,-10.1563241,-4.716677316
9.5150,15.23771853,-18.47064678,-15.20097161
9.5200,23.49963221,-22.55212456,-28.01799908
9.5250,25.61391382,-29.38163275,-20.69508943
9.5300,16.59889956,-23.60887303,1.410033136
9.5350,26.90635819,5.227769655,6.005243924
9.5400,44.31786058,8.511706621,12.6735595
9.5450,5.578074372,10.5523193,28.37137126
9.5500,4.884817401,6.536226541,15.30542219
9.5550,22.3972692,-10.10007518,5.551676593
9.5600,16.32354657,-25.53872787,9.677758495
9.5650,7.006820292,-10.88763811,-18.718569
9.5700,22.5863509,4.356475431,-33.63099586
9.5750,8.009921433,1.483950107,-14.60795043
9.5800,-6.426607102,-1.792141487,-6.313429315
9.5850,-5.84808235,5.297119796,0.161141828
9.5900,5.607032437,8.386236824,0.9827737743
9.5950,9.746980628,7.979283927,0.4132702959
9.6000,4.970484234,12.2225682,-11.57621005
9.6050,25.4914659,-1.885060203,-7.045102486
9.6100,13.52187642,3.417090115,10.40518587
9.6150,0.54829263,12.97956208,2.994717697
9.6200,21.88896882,13.69016136,-18.36676613
9.6250,23.80539271,3.03422648,-27.2577792
9.6300,27.06686708,1.091257794,-37.42014808
9.6350,25.61151637,3.364772709,-21.24339979
9.6400,10.23134671,9.342942241,-12.18243464
9.6450,3.748482007,-0.8047655364,-0.8301188197
9.6500,-1.324988053,-10.64257818,6.029497106
9.6550,6.614822896,-1.277952326,-16.66258445
9.6600,15.27792684,-2.919836432,-36.87724307
9.6650,29.28683824,-2.719062888,-43.93690147
9.6700,13.85731691,-0.9271590062,-32.35701996
9.6750,-3.319337737,13.95429076,-16.49803694
9.6800,-0.5845242319,15.78555339,-12.58225424
9.6850,-2.703361246,13.9275438,-2.65715871
9.6900,-5.982887725,11.90884937,-21.84906698
9.6950,-9.700882187,2.334025441,-32.21209685
9.7000,0.7639939181,9.343260132,-51.01042276
9.7050,-12.25716602,24.34760272,-49.14131723
9.7100,-5.869606486,28.20485883,-42.35412792
9.7150,5.118654155,30.84346702,-36.6220857
9.7200,2.590314891,20.08237525,-27.01420532
9.7250,-3.582788709,17.71473036,-15.36733714
9.7300,-12.88991966,17.9437017,-5.949115211
9.7350,-3.861848095,5.742584456,3.884534783
9.7400,-9.760527418,-0.1102875152,6.112534329
9.7450,13.61121211,5.604702498,-9.063164787
9.7500,-1.130401231,-8.537998248,8.334225782
9.7550,-5.025446546,-8.315367248,-7.481420792
9.7600,15.07978049,-0.3101398804,-34.45758707
9.7650,12.93781743,-7.764723265,-19.00978745
9.7700,2.909705355,-15.3008293,-4.199317112
9.7750,10.36441215,-15.56832213,-14.94805026
9.7800,27.46600488,-22.92695207,-16.08999675
9.7850,39.68936064,-27.42793643,5.242743008
9.7900,29.36351427,-24.40156609,26.62443938
9.7950,31.1087676,-7.805810162,20.02401644
9.8000,23.8354169,-0.5124816088,19.78062186
9.8050,61.64153373,-12.11598041,16.29619795
9.8100,67.55850535,-12.64522618,24.47444235
9.8150,58.93799009,0.4896588922,41.50004857
9.8200,77.31491994,11.86247729,37.94030717
9.8250,59.43321102,2.543933145,50.14055862
9.8300,64.00039046,-18.32936741,56.78105055
9.8350,62.81477846,-6.345486725,55.07891877
9.8400,66.18346969,4.652615913,47.28179538
9.8450,56.07165528,4.524281183,43.39489481
9.8500,43.90695162,1.944319284,46.21983756
9.8550,37.31785408,0.3089235046,34.78162428
9.8600,40.2921379,-13.40187098,21.29989806
9.8650,31.57795833,-7.812410082,26.94515516
9.8700,33.14687643,2.965793408,28.86348751
9.8750,24.66920843,-4.836484128,41.67665165
9.8800,41.95899442,10.25366323,26.7424716
9.8850,40.99205584,3.708517225,21.69259946
9.8900,35.87167681,4.843061819,14.28210014
9.8950,34.12074444,21.63831979,22.97730813
9.9000,18.46421011,24.67618215,22.60842301
9.9050,13.49572478,9.455927851,43.72958778
9.9100,18.39201278,1.290450173,29.90163153
9.9150,18.09088079,-6.886570299,20.07835869
9.9200,4.917163699,-18.53688218,20.90494362
9.9250,-14.46979494,-15.86966278,27.42073707
9.9300,9.334880271,-30.3947974,-3.116621211
9.9350,-7.082535779,-27.67347344,-1.452604874
9.9400,1.102953723,-19.5517412,5.919287051
9.9450,10.28784171,-4.072928115,20.2740997
9.9500,19.01532894,5.803866385,28.17424987
9.9550,24.04368568,16.91072896,32.2055229
9.9600,28.58157528,20.06898331,39.47845749
9.9650,32.41312296,24.05200537,35.53816974
9.9700,24.02490137,15.46956447,22.53559201
9.9750,32.4776662,15.83417392,6.532936456
9.9800,17.36527214,6.75650064,9.352192478
9.9850,15.54900712,2.95043985,6.619411033
9.9900,9.330348591,4.17189388,0.03801065809
9.9950,14.49016276,-0.9756534685,-7.452679956
10.0000,10.93962358,-14.91261024,-5.546898821
10.0050,1.124738947,-22.52532181,-1.525546998
10.0100,7.111118929,-11.49375796,-6.916743931
10.0150,-12.78683867,-10.11164501,17.90742369
10.0200,-9.875983569,-11.08265826,15.70020446
10.0250,7.753259266,-13.73885756,13.417726
10.0300,0.2740887347,-9.742090777,5.917517958
10.0350,-5.031945855,3.928218002,2.029038477
10.0400,-11.2420385,-7.797693523,6.410067001
10.0450,14.68002282,-3.897903877,-15.61696037
10.0500,7.564173212,-4.263719484,-9.727973384
10.0550,0.3790038258,-9.502380975,3.988735721
10.0600,21.81860155,-6.281254533,2.693579418
10.0650,13.34969822,3.872126834,10.17538971
10.0700,17.71532195,-3.685418205,-7.035120264
10.0750,17.98357182,-3.333828387,-4.826881224
10.0800,13.40538343,-19.54122816,-5.718053251
10.0850,12.06317024,-33.46019705,-3.495273104
10.0900,4.89123734,-24.58764763,-18.06592331
10.0950,2.437585395,-33.82825904,-5.863533343
10.1000,11.983587,-34.17234645,-8.267511381
10.1050,4.770671096,-26.7731797,3.417618309
10.1100,11.91928765,-27.43280375,7.451270089
10.1150,21.64290947,-24.12503169,1.797986844
10.1200,13.48094492,-10.85400056,5.635192937
10.1250,25.49892729,-0.583812246,7.808295391
10.1300,34.46612332,17.23275935,-2.13290765
10.1350,36.8294845,18.67384352,3.935009053
10.1400,39.52591215,28.58986277,5.831986684
10.1450,57.8637622,29.98971685,4.342815585
10.1500,59.04611467,41.09291755,2.677215835
10.1550,50.85997966,30.68275683,12.54978131
10.1600,38.93506061,20.21954638,17.99051886
10.1650,30.98821461,11.71875913,23.7921573
10.1700,23.44544728,7.902276928,18.05194738
10.1750,28.62932618,-8.669338692,16.43937013
10.1800,7.334190588,-9.42717131,13.83975277
10.1850,0.6595550373,-23.45569216,3.542300182
10.1900,10.53645991,-23.99569629,-18.81169941
10.1950,2.27663757,-18.44592271,-12.00440928
10.2000,-4.975494584,-27.40590148,-9.779722722
10.2050,-4.617937504,-23.341907,-9.848175055
10.2100,-7.174487401,-24.22665391,-8.098332352
10.2150,-6.748113594,-6.740434057,-12.83822817
10.2200,7.514684258,-6.311196817,-12.39904588
10.2250,-3.169257135,5.148353293,10.82482623
10.2300,21.47415269,14.30703879,6.065487274
10.2350,15.82808939,14.63440968,17.5936977
10.2400,16.45837739,16.22931167,4.707594233
10.2450,23.68000074,7.455762142,0.7054607581
10.2500,19.8482103,-0.2716667435,-8.779520821
10.2550,14.07221336,-7.965153122,-13.29651232
10.2600,3.377858739,-16.61839843,-13.82987837
10.2650,11.62708495,-27.97584457,-13.94756127
10.2700,-1.462116602,-31.02125522,-9.787923177
10.2750,-6.304321169,-26.68342276,-11.08364154
10.2800,2.755163537,-31.20641969,-15.64721297
10.2850,-0.7841903585,-20.16109185,-10.61523728
10.2900,-3.885918427,-11.94835488,-8.721490491
10.2950,1.239689895,3.80492367,-7.994921624
10.3000,-1.208997684,3.661795068,-12.76188847
10.3050,12.06966212,-3.432945378,-12.53660281
10.3100,3.982723567,-2.62328048,-7.729408432
10.3150,1.00647943,1.0926714,2.563616984
10.3200,0.8095652181,3.052205313,1.106862841
10.3250,-7.583533026,-1.379000405,10.10318739
10.3300,4.736508537,-8.469173694,3.638212693
10.3350,-6.665712699,-6.038062092,0.4488084593
10.3400,4.027351531,-12.25016615,-5.5294867
10.3450,6.444276258,-18.15155256,-0.3854920591
10.3500,-0.3521669519,-0.5767751081,-6.996660272
10.3550,2.326017212,-13.3998794,-0.9640104988
10.3600,21.85500194,-1.262846132,-13.88752321
10.3650,18.51988688,1.64765094,-11.26796162
10.3700,12.07045346,-3.305591033,-12.07186691
10.3750,3.566084871,-12.0291606,-13.81876403
10.3800,15.57195567,-6.169661855,-23.43783132
10.3850,7.251795067,-6.511045146,-3.603200826
10.3900,0.8521861909,-11.57667671,5.832452295
10.3950,4.202625121,-0.6611559799,8.909835929
10.4000,-2.606846864,-3.904002098,3.693622157
10.4050,7.455672299,-4.623897552,-14.92683404
10.4100,8.217653116,-15.4474038,-11.1382536
10.4150,2.809248042,5.318825348,-16.29937367
10.4200,16.7160535,-13.57257973,-12.49051314
10.4250,2.930290506,3.369434331,-1.465038719
10.4300,7.910497157,3.487280994,-3.464796775
10.4350,9.897069926,6.06554934,-0.02004555392
10.4400,18.1646066,12.61265801,-13.10171149
10.4450,17.84883141,21.45668738,-8.144913484
10.4500,28.32462686,23.35406062,-6.221532856
10.4550,11.14045068,22.53715625,7.760815292
10.4600,14.62431922,21.24490104,-1.66317492
10.4650,19.69379813,17.46713164,-10.64692515
10.4700,11.87629735,17.28802848,-5.946574937
10.4750,10.38926434,-12.24379154,18.58026112
10.4800,12.98812107,-4.396628669,14.89494261
10.4850,3.514413341,-4.291616142,22.16906328
10.4900,1.801294359,-22.76706062,21.56026576
10.4950,3.251347164,-23.6559787,15.83889467
10.5000,6.690624207,-17.02280748,5.813726274
10.5050,1.094309741,-2.192283849,-3.581282546
10.5100,-1.221387869,6.954195435,-16.54569262
10.5150,-16.85418196,23.67373848,-15.98717573
10.5200,-7.252280203,9.983244294,-18.51941866
10.5250,-21.59831722,22.79866562,-15.51101392
10.5300,-7.298974599,15.39037055,-20.40947102
10.5350,-13.84381881,23.15545874,-7.441399473
10.5400,-0.9387685049,15.98347805,-6.728663271
10.5450,-10.62481207,10.94230069,-1.098124889
10.5500,-12.49318496,12.46548976,-9.670211534
10.5550,-10.73871225,10.979437,-20.20351183
10.5600,-12.51024251,4.538336071,-29.07042321
10.5650,-11.48612613,6.453935686,-34.92857689
10.5700,-3.121867899,1.877843662,-36.04892136
10.5750,-2.343783898,10.4060688,-34.12405098
10.5800,-4.390905804,15.55020193,-28.65285286
10.5850,0.483499213,14.1592432,-16.99341379
10.5900,-4.960997196,14.17517134,-4.494397148
10.5950,-9.640047846,14.98129307,13.51755311
10.6000,12.05811953,12.93380894,13.66464461
10.6050,3.547725096,9.055432769,21.52046708
10.6100,4.97702966,7.005173107,14.90832103
10.6150,8.941360559,6.61969468,14.23607305
10.6200,16.13410066,1.640065997,-5.668984869
10.6250,10.82148451,0.6987270527,-9.62144081
10.6300,11.13138222,0.7401678553,-24.53736305
10.6350,12.57022158,2.836684178,-26.78374753
10.6400,18.98512031,5.206554641,-21.48138698
10.6450,13.03592841,-4.136163432,-5.370556373
10.6500,20.53506635,21.49777607,-10.87464297
10.6550,23.21129936,20.08286297,1.46551103
10.6600,24.94462334,18.42353199,-0.7155710758
10.6650,18.2773151,9.628313275,16.63885357
10.6700,22.42140944,4.127675061,16.15234533
10.6750,27.36615612,7.572752224,6.581858235
10.6800,20.26283525,-5.80254955,10.2959924
10.6850,9.281758778,-5.888560883,9.773914674
10.6900,14.00376242,-15.15949209,6.780356755
10.6950,6.991020524,-20.34312631,12.06218809
10.7000,7.034275763,-16.88798108,11.29933854
10.7050,6.359833983,-9.125536886,4.060496611
10.7100,-6.600337129,-16.27131763,1.235533768
10.7150,5.711867982,-0.624476189,-10.08029818
10.7200,12.7546577,2.267004985,-16.96891979
10.7250,8.286220284,7.765530479,-14.66524415
10.7300,20.57777918,1.639436142,-18.83826322
10.7350,16.55519292,2.416669546,-13.80749687
10.7400,3.193756096,-2.389053812,-9.331097242
10.7450,13.7294794,6.91691327,-8.443512384
10.7500,12.36495713,-15.91943831,3.012383761
10.7550,10.79092644,-9.594017852,7.469359258
10.7600,2.234344683,-9.303269073,7.203625277
10.7650,-2.702132117,-2.145705397,11.59986166
10.7700,-5.751736309,-3.503096443,22.98345274
10.7750,5.101706291,-6.993588885,21.57116127
10.7800,20.78141707,5.610246189,1.473366868
10.7850,29.34945095,6.294903993,-2.301616006
10.7900,18.34636766,7.190096221,-11.88565694
10.7950,11.86960172,1.70915717,-5.503561415
10.8000,6.178179285,-2.602504693,-4.612534058
10.8050,-4.052667347,-4.851851435,0.4343491947
10.8100,7.991950228,-3.188796258,-1.938021
10.8150,7.778187418,6.578557735,-9.975631668
10.8200,3.546157041,0.1507751378,0.1104008188
10.8250,0.4831495691,-2.380545452,13.96033994
10.8300,1.382758644,23.9100284,5.067044795
10.8350,-3.308577224,16.1147973,18.41047297
10.8400,1.483580965,10.53848302,11.60291213
10.8450,-8.06423477,4.08934994,13.32407913
10.8500,-7.594228153,5.510746117,-1.997471328
10.8550,5.251372431,-3.550373116,-5.935586223
10.8600,-6.567712469,-5.452671275,-8.939481872
10.8650,5.241043391,-20.59684715,-10.2430135
10.8700,-13.17757497,-17.77736474,-2.642891025
10.8750,-17.5076486,-16.43086703,0.05233399539
10.8800,-14.84686709,-15.90302686,-1.671914847
10.8850,-9.694224867,-16.15625092,5.547041239
10.8900,-6.777922185,-2.490988461,3.6831366
10.8950,6.938896037,5.686415137,2.944001519
10.9000,-6.582406448,9.369517372,8.387091012
10.9050,-2.025887482,23.68804588,-4.998389126
10.9100,10.28284811,29.31119649,0.6634164465
10.9150,3.178528075,26.76200295,13.00916751
10.9200,10.32865029,17.97032205,5.743113542
10.9250,13.59100948,10.85241544,-2.08508635
10.9300,20.19719027,10.34265112,-13.59230701
10.9350,-8.422896457,1.99245856,-2.535244864
10.9400,-8.214638733,-10.91109476,-4.697552776
10.9450,-4.70115627,-0.5554890341,-10.41338641
10.9500,3.272027195,-8.470437792,-7.44693782
10.9550,-7.959646133,-13.67923747,-0.6360143965
10.9600,2.647481579,-1.70482372,-9.215689508
10.9650,-0.477209449,4.285867398,-4.344363221
10.9700,-2.666190315,9.52708254,-4.448475071
10.9750,11.95129064,17.87569816,-3.049772803
10.9800,23.78474539,19.03230845,-4.884258959
10.9850,22.20793148,15.57839019,0.4147029753
10.9900,15.11994637,10.6511186,5.298323233
10.9950,32.01812964,24.16716284,-5.205653509
11.0000,25.47554204,18.30371267,-7.450358164
11.0050,30.23609351,27.47667913,-5.501632711
11.0100,28.83271041,8.296650277,11.17818016
11.0150,5.343080027,11.69793528,37.55104482
11.0200,9.130756477,-2.083787756,44.99957563
11.0250,0.6390563098,3.882987721,43.84208399
11.0300,1.427684834,-5.565346815,38.59333435
11.0350,2.157248355,-7.236815222,26.16644512
11.0400,6.140255051,-16.14979168,18.29915311
11.0450,17.25126459,-4.794165739,-4.090408004
11.0500,12.59479072,-17.43516779,-3.217549932
11.0550,7.106259235,-15.86556343,-4.673264356
11.0600,-2.667203217,-17.09937158,-11.73252576
11.0650,10.21081212,-9.053806181,-14.21640016
11.0700,8.220446212,-2.129505706,-9.500025686
11.0750,-2.501118406,3.710844482,1.820576551
11.0800,-1.876859585,5.550571596,12.5535743
11.0850,-9.170744939,8.816182874,17.65898408
11.0900,2.201393546,12.13128367,13.79962992
11.0950,8.14579407,9.966924154,15.75727698
11.1000,28.34205617,19.47163739,-1.629895923
11.1050,19.06903854,13.93567831,-1.203153836
11.1100,10.60949903,-3.664423617,0.09221150843
11.1150,-13.76555947,-1.748916018,6.721365987
11.1200,-14.10773123,1.052300535,6.738083647
11.1250,-5.642854703,9.550813249,8.467805666
11.1300,-5.078228864,-4.317811605,17.05299802
11.1350,-6.706120318,5.540207879,17.61100074
11.1400,-14.45779249,-8.239684004,15.56860109
11.1450,-9.932836865,-15.26128526,7.661356002
11.1500,-12.67408061,-5.377261978,-7.259255074
11.1550,10.65940688,-4.499689525,-16.61604766
11.1600,0.6575099088,-14.87140998,-12.42059238
11.1650,-7.05773775,-4.118421217,-9.192044579
11.1700,-3.746710718,6.896549261,-4.584853419
11.1750,-5.433399393,21.5172236,-0.948849243
11.1800,0.8567086128,18.4352763,6.373177317
11.1850,-16.28501788,18.86416912,16.72586388
11.1900,-5.456366264,26.5812062,15.36364175
11.1950,-8.877596831,35.77277913,14.18554838
11.2000,-0.1430585093,29.45180434,7.557295556
11.2050,11.29585944,25.54689621,0.8743081816
11.2100,11.22896346,18.78059039,-4.469755935
11.2150,18.03359722,29.15112729,-4.181341407
11.2200,20.69360107,23.73234741,-4.852677563
11.2250,10.11446414,19.06986271,3.252891578
11.2300,15.05779221,8.327154844,-3.914967739
11.2350,27.49832383,19.07697729,-12.437078
11.2400,16.28579456,8.32335879,-17.5905041
11.2450,10.99455546,-4.025255451,-11.53746658
11.2500,17.75477814,-3.141924703,-10.07886607
11.2550,15.47310067,5.51658236,-2.860444706
11.2600,22.09134702,-14.90295851,7.635827549
11.2650,19.40440872,-20.42181012,17.63406006
11.2700,13.94703346,-23.4695106,17.89717138
11.2750,-11.22118644,-13.00681493,17.37289185
11.2800,-5.757080416,-8.575182448,11.41866246
11.2850,-7.162728886,-9.344363678,-2.79536206
11.2900,1.535852083,-15.31420525,-11.82955581
11.2950,2.90190573,-16.78810963,-19.63125132
11.3000,0.6774141029,-18.51609109,-28.72364825
11.3050,18.33072131,-22.3446216,-28.28111479
11.3100,21.37247056,-35.98851171,-30.10359072
11.3150,3.56115367,-44.71254322,-23.98654256
11.3200,11.08071853,-28.88904463,-25.25810034
11.3250,2.867884791,-27.82565625,-3.789573046
11.3300,-0.7416206212,-15.5316813,5.640796572
11.3350,1.118968374,-1.951993006,16.32663458
11.3400,-1.604996003,-6.749444757,6.77521118
11.3450,-4.663892105,-21.75422859,8.396993655
11.3500,-5.673521796,-11.73749931,1.524852881
11.3550,-9.549885495,4.805874963,8.197398025
11.3600,-6.050701262,16.31065014,13.8138807
11.3650,9.025140388,33.36232259,1.708468294
11.3700,-4.017868368,33.66957316,-0.815072974
11.3750,2.570420817,31.9713075,-7.187684803
11.3800,13.3530816,36.27250787,-11.98563856
11.3850,14.03689552,29.12098729,-1.703440734
11.3900,3.985217158,26.2273657,13.63085838
11.3950,2.817246916,8.95254984,21.66472726
11.4000,-3.940454229,-0.004437612968,17.76565015
11.4050,-0.5211549296,-16.14776055,18.02462577
11.4100,-1.268892896,-19.77702186,21.19044507
11.4150,-22.29759687,-21.85634921,29.58881155
11.4200,-38.06031948,-15.7917007,25.0957788
11.4250,-41.80302376,-10.724494,24.99237489
11.4300,-18.71340271,-15.08280408,16.8143746
11.4350,-25.18796944,-6.262652425,10.61049486
11.4400,-34.26995764,-8.126562089,1.2870002
11.4450,-23.60813113,2.568725664,-9.46330576
11.4500,4.098054085,14.0103512,-0.5519410099
11.4550,21.73800815,38.38508327,3.716366464
11.4600,18.01580135,43.61916895,8.143105146
11.4650,-6.725342547,35.45919026,15.82294179
11.4700,-35.50085202,28.66860397,16.19570886
11.4750,-58.61275796,20.93506244,39.72339572
11.4800,-47.94154821,37.52542029,43.23887054
11.4850,-49.63091036,47.36243987,53.25217572
11.4900,-40.43920269,36.39812749,42.32736581
11.4950,-48.5071774,30.20425952,27.19864502
11.5000,-63.33875277,20.87070309,12.55784989
11.5050,-41.85902906,42.80120307,-14.90227655
11.5100,-38.66554177,34.70227526,-34.25122501
11.5150,-15.98147569,36.88519164,-36.80816847
11.5200,6.883164439,32.30268038,-28.11647269
11.5250,5.560943541,8.059625392,-21.40119003
11.5300,4.718266007,-8.671671114,-24.23271837
11.5350,-10.32504567,-42.63561985,-9.812519617
11.5400,-23.77229013,-33.11367666,2.796029761
11.5450,-26.87171727,-40.36959488,24.83753959
11.5500,-41.06209962,-39.78413846,34.78068322
11.5550,-70.71162201,-44.34371802,24.521277
11.5600,-77.99723187,-44.97650417,-0.4653741431
11.5650,-56.5787329,-50.47268419,-17.205622
11.5700,-41.17541863,-42.53242574,-31.25007539
11.5750,-53.92994288,-16.31303686,-46.80959509
11.5800,-52.21228901,-2.39683545,-54.31736204
11.5850,-30.02550146,-8.819880304,-46.79502855
11.5900,8.810024719,-6.058518074,-49.2962811
11.5950,26.5567229,-5.025126248,-49.21521766
11.6000,10.33522573,-6.505089368,-56.80788746
11.6050,7.211309167,-17.8413097,-45.50284864
11.6100,12.49960346,-14.83541019,-26.04087738
11.6150,13.15469836,-13.03024418,-2.224170715
11.6200,-2.403944505,-4.606451348,17.91098286
11.6250,-17.80988155,-1.751170182,27.01772163
11.6300,-37.34016418,3.829773024,20.72067325
11.6350,-27.21351924,9.83046659,10.10232133
11.6400,-12.32519406,-3.074988374,-8.755847652
11.6450,-13.35549129,-2.585006764,-22.21684709
11.6500,-0.8720854312,8.272857719,-31.54146811
11.6550,8.032491683,23.58926008,-35.36798791
11.6600,28.32359313,23.43896007,-24.82093432
11.6650,30.28838208,29.93149233,-13.68280687
11.6700,36.99936294,20.10455833,-5.514342087
11.6750,31.41539164,12.73999858,-0.4458513475
11.6800,33.48809038,2.051681186,3.349848599
11.6850,22.87259746,1.058295349,13.18277347
11.6900,14.17033499,1.251328073,20.65361162
11.6950,-18.30414295,-6.177157591,41.97739369
11.7000,-44.28340575,1.32090145,44.41984779
11.7050,-38.90361946,8.313169867,36.47585185
11.7100,-51.11330568,3.956317399,30.54524656
11.7150,-44.77271747,4.452675849,18.49464029
11.7200,-17.4084045,11.17332519,-4.760477155
11.7250,-5.725674442,22.60195069,-33.47025617
11.7300,-1.090689423,18.11121078,-43.36142216
11.7350,15.42152412,36.07374403,-65.60389494
11.7400,34.32691075,29.41498394,-58.24601358
11.7450,52.64263421,20.78224748,-39.14028323
11.7500,71.24946083,8.238591059,-39.75932381
11.7550,84.73270672,-18.25721007,-34.97188052
11.7600,83.59878521,-42.92869244,-17.42446178
11.7650,73.04168859,-42.78198101,9.981195648
11.7700,66.01388517,-29.07659335,30.85155955
11.7750,24.39291767,-21.4560686,46.58702781
11.7800,-3.841452265,-6.23839952,49.91197595
11.7850,-21.8379819,17.66424893,41.89734319
11.7900,-33.96742838,19.53686856,34.36925942
11.7950,-23.65191048,36.80447833,25.60000368
11.8000,-18.87238523,43.89230744,-4.304774924
11.8050,-25.08774698,23.61924417,-6.745288534
11.8100,-12.09425727,13.20514261,-21.07157817
11.8150,-22.15615903,-4.446768882,-26.60828499
11.8200,-6.825944633,-27.23508968,-32.12809247
11.8250,-3.278244816,-35.02237337,-37.22472586
11.8300,18.6087122,-41.22897133,-35.20975198
11.8350,16.65075242,-38.58669072,-19.79900194
11.8400,27.02956081,-43.90628053,-6.297385455
11.8450,12.83452863,-33.96875058,12.4234001
11.8500,7.968720093,-31.81615393,16.82338747
11.8550,-3.652389687,-15.46767063,31.67525867
11.8600,-15.70909477,6.075424045,31.52140113
11.8650,-19.79035944,21.56954447,32.87249991
11.8700,-15.15257976,35.18416933,25.59170136
11.8750,-3.535386645,46.7042042,24.79249352
11.8800,-14.44100413,39.40091723,24.25357064
11.8850,-19.96140939,31.26100665,16.04744688
11.8900,-2.636427391,25.65416858,-3.345073435
11.8950,-4.622112186,-1.130625551,-9.273248888
11.9000,4.745562952,-17.23324528,-14.67555001
11.9050,1.80294523,-29.15552946,-5.627969662
11.9100,10.26828754,-27.56741037,-10.37770064
11.9150,-3.926610466,-19.90127467,-11.52250021
11.9200,-18.79577571,-32.70898836,3.636404866
11.9250,-9.11749767,-19.34974204,5.774743858
11.9300,-15.34996328,-8.164284221,9.705315122
11.9350,-19.23514764,-2.711839068,14.80812679
11.9400,-30.1762926,-10.11500792,16.99648435
11.9450,-31.33336418,-12.89519055,16.31712159
11.9500,-37.31323998,14.5243358,-1.690917494
11.9550,-37.43727875,7.863650209,7.534622888
11.9600,-32.77978506,29.97469349,-15.38081063
11.9650,-24.3736951,24.394043,-20.90862606
11.9700,-11.55498627,9.283479103,-23.12596418
11.9750,8.898373938,-6.379768033,-8.547816415
11.9800,12.2137731,-5.256916393,-7.320568159
11.9850,41.04172585,-11.96247739,7.806444756
11.9900,31.76209889,-19.90099665,5.068511111
11.9950,43.91530238,-17.13954282,-5.942366619
12.0000,35.02634965,-10.83113713,-13.20302012
12.0050,31.71203056,6.307502067,-22.08783238
12.0100,14.75331807,9.991701856,-3.264710037
12.0150,15.58515197,34.63523208,3.891849893
12.0200,6.872559074,31.52337917,27.43041582
12.0250,-0.667339135,46.77120568,36.54771103
12.0300,-7.832658812,44.53443303,35.42673262
12.0350,-23.91022068,51.89639937,26.49957129
12.0400,-29.81469676,35.83450716,26.42998149
12.0450,-26.38516798,33.54004581,10.45279858
12.0500,-26.4763361,16.21662278,9.279799899
12.0550,-8.631800331,1.302250073,3.442962019
12.0600,-8.339017706,-16.14846565,-9.455493336
12.0650,1.265732322,-25.47401021,-19.11752734
12.0700,9.94805421,-40.59071277,-21.09383335
12.0750,14.30929427,-39.60328663,-21.1082758
12.0800,19.99579036,-39.31048651,-25.05853946
12.0850,34.14671442,-26.47466277,-30.66312918
12.0900,29.53377667,-36.16805005,-22.061046
12.0950,14.08597655,-18.71313816,-10.23210361
12.1000,-12.06166969,-16.0735223,3.049868317
12.1050,-21.4134081,3.73209728,-4.059526068
12.1100,-10.11224015,7.905338348,5.717500444
12.1150,-17.49140874,5.01757674,15.76867589
12.1200,-9.965887183,9.207766105,11.78459287
12.1250,-5.782806623,8.281673914,9.592075195
12.1300,2.536198461,3.596894653,-0.6574459553
12.1350,4.981834628,-0.570300811,-1.286912872
12.1400,-2.295505387,-3.274556429,-1.870960918
12.1450,1.365238629,-5.955353754,-1.098589414
12.1500,-5.276888881,-4.417187062,-3.363021287
12.1550,-7.04106767,-3.950687377,-0.8634962155
12.1600,-7.277689976,-10.46277728,-4.088091476
12.1650,-1.713695632,-12.08032667,-10.67234724
12.1700,-2.584500803,-10.49130016,-12.78462619
12.1750,-18.27973406,-13.19883846,-5.596827559
12.1800,-17.55319933,-10.36989619,1.684872228
12.1850,-11.17000538,6.480248625,1.056297651
12.1900,-23.15253309,-17.03404533,29.39330746
12.1950,-9.292950478,-25.41457809,26.71065519
12.2000,-5.010506191,-45.29423467,18.53113956
12.2050,9.673849943,-64.58340957,14.3805254
12.2100,17.81460096,-67.95905442,5.519865445
12.2150,-0.7672481844,-65.47830286,13.67373755
12.2200,-9.900758094,-48.08838069,17.5560487
12.2250,-37.17182857,-35.117842,27.08319929
12.2300,-50.553435,-11.948259,20.57953888
12.2350,-51.42537083,-1.823229688,7.931598113
12.2400,-35.07314237,2.167721064,-2.229580717
12.2450,-10.31457393,20.19877438,-5.944932219
12.2500,18.35814865,30.24812419,-3.002519324
12.2550,33.88271021,45.36957617,18.0241615
12.2600,50.40073334,60.38213363,27.54819113
12.2650,70.83273921,69.81104389,31.34695018
12.2700,72.67127257,69.89020265,28.33036744
12.2750,75.87550166,69.63109324,19.81568672
12.2800,81.22890706,68.15682632,10.08142275
12.2850,76.43745048,59.33779838,9.852035179
12.2900,58.66103136,57.92177268,-0.9616102252
12.2950,39.4303397,51.10204675,-8.929926875
12.3000,14.92342291,28.93018882,-6.499377481
12.3050,-13.34756514,6.575716304,-0.1391994785
12.3100,-1.802033309,-5.636768115,-15.13706814
12.3150,-27.78843111,-19.40014014,-15.06233185
12.3200,-22.90543833,-47.47785299,-15.77677072
12.3250,-28.11027503,-60.93902704,-11.38602056
12.3300,-24.06501053,-64.14830004,-13.8235203
12.3350,-26.58679376,-62.55570667,-6.484071843
12.3400,-12.69804522,-62.10083821,-9.01551179
12.3450,-7.518805547,-47.74210825,-7.871161405
12.3500,-3.022847685,-36.61771699,-8.897703649
12.3550,5.485706301,-24.36608169,-0.6456554829
12.3600,4.870594805,-11.31078567,-2.65702063
12.3650,-8.902682416,12.54228571,-1.247496601
12.3700,-11.88906439,28.75662437,1.743785091
12.3750,-4.995824144,35.41803573,7.268102272
12.3800,-5.524984461,40.9410808,4.978493944
12.3850,-10.9549492,34.71583699,9.844921228
12.3900,-15.2014347,41.34634615,-4.561155058
12.3950,0.25608649,21.32590044,-1.920137833
12.4000,2.448297031,2.832193171,-9.385015156
12.4050,-3.634047295,-8.047411194,-5.327590188
12.4100,2.517680162,-17.30729523,1.342711393
12.4150,-7.254353847,-18.45083548,0.7923552814
12.4200,-9.749518133,-14.58925989,4.417980754
12.4250,-13.76637425,-5.908069158,-2.710114089
12.4300,2.537543061,-2.930781101,-4.550562929
12.4350,0.9917401783,-1.417146248,9.785275445
12.4400,-0.2159318955,6.561520289,10.99611195
12.4450,4.614777465,13.57693555,9.541591442
12.4500,-15.57178863,24.72741283,5.928155911
12.4550,-22.55583238,36.79456859,7.064738854
12.4600,-17.67991761,46.36099917,0.279381806
12.4650,-17.18919437,51.70657479,1.336748133
12.4700,-37.84583433,44.24574988,2.058097169
12.4750,-16.62122986,31.00332064,-1.148923263
12.4800,-20.12420845,9.756532239,-1.71950839
12.4850,-2.450838611,-7.669519293,-4.996013567
12.4900,-8.233483484,-22.64712684,-8.923957495
12.4950,8.090186756,-34.13197898,0.4728090655
12.5000,17.23726707,-33.68389024,3.256252437
12.5050,20.10355793,-33.20625928,18.38882998
12.5100,9.316578528,-23.0906857,27.96605306
12.5150,27.37634817,-2.116425467,26.85172258
12.5200,31.46306303,0.3501313362,26.53830887
12.5250,40.45146742,7.010039579,24.81425167
12.5300,28.05284688,20.70146927,8.187130489
12.5350,19.8918178,25.35887887,4.214719497
12.5400,16.33726417,19.18411852,-3.120775996
12.5450,-3.167258749,21.26403379,-8.382593748
12.5500,-0.1989308444,16.36223106,-19.33710885
12.5550,-26.8066598,11.8361762,-20.27935171
12.5600,-46.24602735,6.4597195,-15.57636163
12.5650,-25.01850569,3.107475185,-21.01531155
12.5700,-27.10982443,-3.790908332,-24.08576801
12.5750,-28.79033016,-15.08765462,-18.56068389
12.5800,-27.06787723,-29.29991574,-12.67150098
12.5850,-23.35846361,-26.63316462,-17.79785352
12.5900,-3.358641405,-42.9201141,-13.99097647
12.5950,-11.65813255,-40.53075901,-7.281013837
12.6000,-5.511524516,-23.76679059,-14.70464782
12.6050,7.324645837,-13.2235034,-19.45203475
12.6100,19.5340435,-10.75214935,-21.36101572
12.6150,25.65356356,-11.14496259,-11.18191539
12.6200,36.4122614,-7.284921708,-9.004677961
12.6250,33.21632965,0.03943587718,-12.84053797
12.6300,21.52794949,-0.3332711229,-4.409896662
12.6350,24.54360751,3.804978072,8.561992574
12.6400,26.33650209,17.32458318,6.567003513
12.6450,39.80206574,14.31822998,2.125684197
12.6500,30.52542559,3.384396853,0.60548317
12.6550,25.32853931,7.306723419,2.542396802
12.6600,42.76447368,-2.21179483,-4.714283813
12.6650,22.27580704,-0.4161772918,2.246599411
12.6700,41.23212458,-6.478438217,-1.008270489
12.6750,28.1966559,0.5053699624,0.8466523807
12.6800,16.25119774,2.750890402,6.00662349
12.6850,20.8057151,4.683996016,7.026112039
12.6900,-9.789409173,-16.04715507,32.73607961
12.6950,-3.705580178,-13.16059243,18.1063284
12.7000,-10.68228804,-13.30609584,7.77438447
12.7050,-11.38475722,1.93845635,3.961536874
12.7100,-15.50902472,8.89809728,14.06036235
12.7150,12.13945268,18.33785072,37.52785311
12.7200,3.099947651,34.56212194,48.45700981
12.7250,6.802465063,33.58857627,45.31732311
12.7300,-0.5318418895,27.51726377,20.76580819
12.7350,-21.18546548,15.60476083,2.869916075
12.7400,-3.363124526,-28.08486903,-1.173557681
12.7450,-8.65171597,-27.82974036,-6.685841727
12.7500,19.68048869,-45.12769504,-2.616165771
12.7550,12.14698284,-53.35526836,-3.852294763
12.7600,10.52035253,-62.28716465,5.872195929
12.7650,13.78087285,-67.45299853,33.01593621
12.7700,11.03250525,-40.07870969,38.92713108
12.7750,13.5804272,-37.05121639,40.01929532
12.7800,13.83133838,-22.10343982,12.9936083
12.7850,-0.2464414441,-3.073330507,14.3806615
12.7900,-4.471188895,26.23899888,16.24706688
12.7950,7.223525569,56.30983119,19.94880599
12.8000,8.750398184,78.5110825,16.90231945
12.8050,11.58286951,88.47466436,17.2006268
12.8100,16.02437859,85.82286237,18.66651911
12.8150,-13.05271903,70.61890382,33.89496555
12.8200,-13.23898716,49.15803787,40.97706475
12.8250,-10.01094523,35.9416758,21.54289145
12.8300,22.40410879,8.820003892,-1.276424525
12.8350,12.19089031,0.2557143382,-8.28210395
12.8400,9.488956778,-16.38703337,-11.66808648
12.8450,13.60039428,-10.96725004,-26.36318585
12.8500,17.8446915,-16.0762373,-30.17234488
12.8550,12.93144463,-16.33535135,-22.24226032
12.8600,17.67538631,-3.708242349,-15.32326828
12.8650,23.97990046,13.14871104,0.8657973228
12.8700,35.29860214,20.75807614,4.87968275
12.8750,52.37042289,27.35357383,13.84346352
12.8800,53.92761239,34.1785678,21.86072793
12.8850,32.50144891,28.26100912,36.92320051
12.8900,43.47135767,29.51580541,21.34546344
12.8950,40.36510701,24.28620691,14.30498009
12.9000,49.9690845,2.055288234,11.4105209
12.9050,47.46957146,1.862091386,3.829440014
12.9100,39.51867004,-10.77637729,7.81339466
12.9150,49.32179898,-11.20209893,4.58672028
12.9200,38.13506873,-15.22267352,0.8352305729
12.9250,38.59086029,-13.12008405,-2.127810644
12.9300,30.5635728,-19.8185504,-5.514142759
12.9350,3.93759439,-9.086837758,-16.56002765
12.9400,22.58726676,-7.157901324,-30.94115312
12.9450,13.74828301,2.326643283,-19.29655931
12.9500,1.209924765,14.56588056,-20.07987174
12.9550,19.43967824,4.778174336,-8.828004536
12.9600,7.325489223,6.439330123,-12.11567822
12.9650,10.07973174,3.668366338,-11.13602253
12.9700,4.837387721,-2.133598111,-19.1144565
12.9750,8.073041279,-0.4426529233,-22.29707475
12.9800,5.699189395,-12.35559781,-11.45384226
12.9850,5.421689525,-7.479688804,-15.31211665
12.9900,15.80687274,-11.27682241,-3.689940127
12.9950,9.327683342,-4.588112163,0.9465242254
13.0000,13.51680462,-7.810045054,2.082188163
13.0050,6.857441088,-5.401408268,10.88434463
13.0100,-13.43651843,-7.402862068,5.401673405
13.0150,2.193380061,-5.19826839,-12.06180262
13.0200,10.56665921,-6.817709112,-22.48718945
13.0250,10.43812297,-4.629799334,-18.90916755
13.0300,-2.451593598,-1.116495861,-14.30302787
13.0350,8.69424954,-4.734296981,-8.317857616
13.0400,4.813766293,16.55605618,-4.829369319
13.0450,6.03290685,13.91517214,12.12413931
13.0500,19.61287627,22.08371292,8.71178498
13.0550,43.10088665,16.13292124,16.61312945
13.0600,52.11082514,14.41920746,20.82574797
13.0650,54.92070664,9.538386284,19.70886632
13.0700,61.68660854,-3.408417694,19.02225693
13.0750,62.31933311,-10.87386563,26.34078072
13.0800,54.22034659,-0.1317408381,13.87169775
13.0850,55.2361068,-4.535057815,15.33372663
13.0900,54.37752601,-8.252432875,15.85704265
13.0950,56.26121363,-9.103725468,16.48734863
13.1000,44.08256587,-14.0336333,15.45646862
13.1050,59.32285108,-18.86257639,9.638598092
13.1100,68.08787643,-26.57449103,7.379879204
13.1150,34.02969692,-19.84064264,14.58461804
13.1200,45.96813927,-24.92565518,18.35667217
13.1250,31.51455564,-13.62370714,14.34361178
13.1300,22.86295283,-16.95433715,16.05871772
13.1350,18.83831989,-8.718178874,10.14223976
13.1400,19.14620412,-8.092721619,8.138059342
13.1450,14.91635678,-10.33301114,16.84508137
13.1500,8.233407548,-8.794491178,17.94652696
13.1550,2.336014609,-9.400370256,25.22674401
13.1600,-3.534568913,-19.21284347,21.63891673
13.1650,-14.3688257,-18.84242507,16.10693401
13.1700,-24.96997872,-17.60457784,10.52762156
13.1750,-28.037637,-11.2554316,11.48264898
13.1800,-41.41249928,1.318411674,3.333436533
13.1850,-52.44560555,14.53873892,-8.549542354
13.1900,-57.94281694,28.39242133,-17.3916376
13.1950,-85.60028844,57.87810689,-16.99425123
13.2000,-83.58991472,91.03898383,-22.84655908
13.2050,-95.36359419,127.6962575,1.44012877
13.2100,-72.85830185,129.3613767,23.30682795
13.2150,-78.09005994,120.0935012,60.92681627
13.2200,-77.30601565,84.96134619,65.93302473
13.2250,-50.6646272,61.63683843,45.09036895
13.2300,-30.41934182,29.49279499,26.19348077
13.2350,-22.91543746,-2.099081824,7.043710021
13.2400,-8.687447741,-32.45850349,-13.9829591
13.2450,3.627070583,-47.09789701,-35.85260277
13.2500,1.339978576,-78.10390132,-24.807688
13.2550,16.36596139,-83.96102163,-24.03643508
13.2600,30.65601126,-94.42558866,-19.91942145
13.2650,47.40601958,-79.4233667,-7.852745126
13.2700,40.79102167,-56.68826134,-14.60326126
13.2750,58.23154024,-38.26644394,-9.182570611
13.2800,63.10727493,-14.90371921,-9.207626679
13.2850,72.95488885,6.397295221,-11.04330999
13.2900,69.02614716,16.53461654,1.016468075
13.2950,46.89713816,26.0582098,6.243672957
13.3000,39.31937454,12.91505085,9.947173136
13.3050,7.738572559,18.65143473,-6.326694663
13.3100,1.458826359,3.999849715,-13.42317661
13.3150,-19.78291877,-3.477623125,-14.65112624
13.3200,-5.400400996,-15.52464424,-18.07662992
13.3250,-25.31715807,-20.78096989,-23.05887217
13.3300,-19.54116224,-31.44906415,-27.31065604
13.3350,-20.48840125,-34.73279423,-22.06487239
13.3400,-19.38743416,-43.90273374,-20.04043431
13.3450,9.385255622,-42.08976299,-26.75537483
13.3500,4.143548917,-34.44631524,-16.59886625
13.3550,17.25974627,-36.14206859,-8.473327618
13.3600,13.29713991,-32.42892366,-6.783064414
13.3650,17.40518235,-18.44389557,-1.08496765
13.3700,13.35786778,-4.306334128,0.4451259284
13.3750,13.03346978,4.940503349,3.99793285
13.3800,27.93177932,10.48186377,0.2556526427
13.3850,36.61192734,20.9341139,2.974106779
13.3900,50.87719644,25.70072561,7.041770988
13.3950,61.43150234,21.71604085,8.445887886
13.4000,47.34721673,9.267769865,15.91923208
13.4050,49.81454737,0.3242754588,22.00991696
13.4100,60.25204079,7.822522851,22.28075722
13.4150,55.33034348,10.26548126,8.475550076
13.4200,68.31045796,8.768268696,1.53847274
13.4250,66.94817091,5.457415858,-8.76621609
13.4300,60.3611358,-8.335738151,-7.458516738
13.4350,72.22636518,-20.4916635,0.5349361865
13.4400,59.75557593,-18.16971497,2.89397818
13.4450,42.89637303,-27.36887052,15.48851874
13.4500,47.75535529,-30.04425603,7.880459682
13.4550,46.02583865,-32.72549513,15.66818801
13.4600,64.10988347,-19.99123302,8.615317242
