type,name,time_units,begin_time,frequency,count,units
signal_3d,"Noraxon MyoMotion-Trajectories-Lateral humeral epicondyle RT","s",0.0000,200,5068,"mm"

time,x,y,z
0.0000,188.6611171,1.479373927,1242.162248
0.0050,188.6894657,1.506625905,1242.16284
0.0100,188.7178096,1.533882667,1242.163438
0.0150,188.7461488,1.561144213,1242.164041
0.0200,188.7821427,1.588880317,1242.163686
0.0250,188.8266456,1.616624563,1242.162188
0.0300,188.8804676,1.643903423,1242.159373
0.0350,188.9443445,1.670261785,1242.155087
0.0400,189.0189041,1.695283596,1242.149202
0.0450,189.1046344,1.718608036,1242.141631
0.0500,189.2018623,1.739945873,1242.132325
0.0550,189.3107424,1.759090565,1242.121282
0.0600,189.4312484,1.775916476,1242.108546
0.0650,189.5631621,1.790371984,1242.094201
0.0700,189.7060674,1.802478472,1242.078377
0.0750,189.8593475,1.812330859,1242.061241
0.0800,190.0221845,1.82009425,1242.043002
0.0850,190.1935628,1.82600228,1242.023902
0.0900,190.3722814,1.830355991,1242.004214
0.0950,190.5569774,1.833514174,1241.984232
0.1000,190.7461534,1.835878077,1241.964266
0.1050,190.9382057,1.837879136,1241.944629
0.1100,191.1314541,1.839968601,1241.925632
0.1150,191.3241695,1.842605773,1241.907574
0.1200,191.5146018,1.846246234,1241.890741
0.1250,191.7010116,1.851330801,1241.875392
0.1300,191.8817038,1.8582741,1241.861761
0.1350,192.0550622,1.867452009,1241.850045
0.1400,192.2195843,1.879187997,1241.840402
0.1450,192.3739177,1.893740524,1241.832944
0.1500,192.5168945,1.911296781,1241.827734
0.1550,192.6972577,1.937695995,1241.821868
0.1600,192.8625589,1.965772528,1241.81803
0.1650,193.0114853,1.994834147,1241.816183
0.1700,193.1441969,2.024229423,1241.815986
0.1750,193.2601245,2.054588512,1241.817602
0.1800,193.3597903,2.084513227,1241.820493
0.1850,193.4439032,2.113963736,1241.824461
0.1900,193.5127334,2.143339294,1241.829313
0.1950,193.5657008,2.170427229,1241.834768
0.2000,193.6031872,2.195032275,1241.840712
0.2050,193.6253502,2.216815503,1241.846984
0.2100,193.6330968,2.235498481,1241.85346
0.2150,193.6269474,2.249864151,1241.859788
0.2200,193.6069164,2.258706917,1241.865775
0.2250,193.5737315,2.262242113,1241.871506
0.2300,193.5280785,2.259881549,1241.876733
0.2350,193.4706509,2.25062256,1241.881244
0.2400,193.4014035,2.235464844,1241.885258
0.2450,193.3210263,2.215167064,1241.888894
0.2500,193.2304473,2.188593758,1241.891857
0.2550,193.1286294,2.155710616,1241.894436
0.2600,193.0190273,2.118156095,1241.89643
0.2650,192.9015811,2.075257024,1241.89785
0.2700,192.7770159,2.027331955,1241.898725
0.2750,192.6457256,1.97545836,1241.899332
0.2800,192.5092813,1.919241969,1241.899416
0.2850,192.368693,1.859815933,1241.899112
0.2900,192.223947,1.797830774,1241.898702
0.2950,192.0776759,1.733912465,1241.897962
0.3000,191.9316427,1.667822934,1241.896588
0.3050,191.7853123,1.600133525,1241.894851
0.3100,191.6408505,1.532481372,1241.892835
0.3150,191.4995862,1.464902344,1241.890342
0.3200,191.3629271,1.396991189,1241.887226
0.3250,191.2314752,1.329397222,1241.883616
0.3300,191.1049428,1.261467511,1241.879572
0.3350,190.9840887,1.194809403,1241.875343
0.3400,190.8703246,1.128487009,1241.870553
0.3450,190.7631366,1.063887422,1241.865638
0.3500,190.6635804,1.002022772,1241.860702
0.3550,190.5702373,0.941870833,1241.855809
0.3600,190.4829716,0.8833616379,1241.851079
0.3650,190.4013879,0.827744704,1241.846781
0.3700,190.325083,0.7748428653,1241.843062
0.3750,190.2534309,0.7253265975,1241.840056
0.3800,190.1860835,0.678757016,1241.837746
0.3850,190.122939,0.636018669,1241.83621
0.3900,190.0622049,0.5968976647,1241.835728
0.3950,190.0047133,0.5605975459,1241.835882
0.4000,189.9483403,0.5276094511,1241.837176
0.4050,189.8939841,0.4974428167,1241.839192
0.4100,189.8411161,0.4694692399,1241.841943
0.4150,189.7896384,0.4436245948,1241.845244
0.4200,189.7396493,0.4202007222,1241.849108
0.4250,189.6904731,0.3979919608,1241.853406
0.4300,189.6427024,0.3759272892,1241.857719
0.4350,189.5962152,0.3548561268,1241.862156
0.4400,189.5519661,0.3326715541,1241.866114
0.4450,189.5092999,0.3088363502,1241.869595
0.4500,189.4682811,0.2837915637,1241.872648
0.4550,189.4294118,0.2570996203,1241.875024
0.4600,189.3930029,0.2264314243,1241.876343
0.4650,189.3580092,0.1919872096,1241.876781
0.4700,189.3250387,0.154446488,1241.876279
0.4750,189.2933341,0.1122165029,1241.874749
0.4800,189.2633936,0.06617504796,1241.872185
0.4850,189.2341726,0.01674962882,1241.868851
0.4900,189.2059862,-0.03655399848,1241.864742
0.4950,189.1787681,-0.0921634134,1241.860007
0.5000,189.152418,-0.1509408599,1241.854447
0.5050,189.1267861,-0.2116976713,1241.848335
0.5100,189.1021858,-0.2751134029,1241.841465
0.5150,189.0772637,-0.3414965069,1241.834144
0.5200,189.0541264,-0.4100458812,1241.825981
0.5250,189.0325969,-0.4808219683,1241.816957
0.5300,189.0137178,-0.5534764691,1241.807059
0.5350,188.9967204,-0.6276953439,1241.7965
0.5400,188.9819604,-0.7029820916,1241.785368
0.5450,188.969392,-0.7800253823,1241.773509
0.5500,188.9598381,-0.8588108323,1241.760905
0.5550,188.9542796,-0.9375196903,1241.747544
0.5600,188.951424,-1.017722766,1241.733449
0.5650,188.9512512,-1.098625387,1241.718719
0.5700,188.9535784,-1.179887464,1241.703425
0.5750,188.9603603,-1.261752796,1241.687117
0.5800,188.9714361,-1.342900572,1241.669928
0.5850,188.9868128,-1.424640285,1241.651667
0.5900,189.0081699,-1.506325591,1241.631976
0.5950,189.0353598,-1.587741321,1241.610779
0.6000,189.0677533,-1.668454384,1241.588289
0.6050,189.1076113,-1.748411304,1241.563923
0.6100,189.1549899,-1.828079925,1241.537488
0.6150,189.2102165,-1.907554344,1241.508882
0.6200,189.2740732,-1.986904794,1241.477719
0.6250,189.3469987,-2.065904921,1241.443963
0.6300,189.4295121,-2.145200051,1241.407298
0.6350,189.5220116,-2.224187845,1241.367624
0.6400,189.624553,-2.303288131,1241.324826
0.6450,189.7379502,-2.382880577,1241.278661
0.6500,189.8610003,-2.464394057,1241.228942
0.6550,189.9943982,-2.545866663,1241.175887
0.6600,190.1380453,-2.628758629,1241.119306
0.6650,190.2916116,-2.712952497,1241.059128
0.6700,190.4539848,-2.799354155,1240.995529
0.6750,190.6244074,-2.887838462,1240.928676
0.6800,190.8020718,-2.978810623,1240.858668
0.6850,190.9868613,-3.073137287,1240.785463
0.6900,191.1774606,-3.170604458,1240.709437
0.6950,191.3721055,-3.272047041,1240.630978
0.7000,191.5699653,-3.377160575,1240.550237
0.7050,191.7694986,-3.485265691,1240.467761
0.7100,191.9699745,-3.597461497,1240.383563
0.7150,192.1704252,-3.712874013,1240.298084
0.7200,192.3695053,-3.832522592,1240.21148
0.7250,192.5669361,-3.955897724,1240.124083
0.7300,192.7610625,-4.081858642,1240.036416
0.7350,192.9519114,-4.211247911,1239.94845
0.7400,193.1368109,-4.343233363,1239.860968
0.7450,193.3169796,-4.477575031,1239.773905
0.7500,193.4907886,-4.614454816,1239.687587
0.7550,193.6572546,-4.753403234,1239.602452
0.7600,193.8162168,-4.893167685,1239.518722
0.7650,193.9685436,-5.033252113,1239.436405
0.7700,194.1132308,-5.173676367,1239.355837
0.7750,194.2504966,-5.312999675,1239.277161
0.7800,194.3801153,-5.451309821,1239.200476
0.7850,194.5026326,-5.588612397,1239.125717
0.7900,194.6178957,-5.724519994,1239.052946
0.7950,194.7261484,-5.859168957,1238.982188
0.8000,194.8280549,-5.992198011,1238.913432
0.8050,194.9239756,-6.122885453,1238.846801
0.8100,195.0144242,-6.250561824,1238.782215
0.8150,195.1005052,-6.374481657,1238.719691
0.8200,195.1809521,-6.494964722,1238.65939
0.8250,195.2557583,-6.610996816,1238.601477
0.8300,195.3238088,-6.723068181,1238.546085
0.8350,195.3861658,-6.831091751,1238.49297
0.8400,195.4430807,-6.935612024,1238.44204
0.8450,195.4945474,-7.035667389,1238.393415
0.8500,195.5407586,-7.131876223,1238.346863
0.8550,195.5809999,-7.223790478,1238.302589
0.8600,195.6154835,-7.311456528,1238.260465
0.8650,195.6446024,-7.394580326,1238.220518
0.8700,195.6692356,-7.472811015,1238.182513
0.8750,195.687905,-7.546352459,1238.146654
0.8800,195.7004533,-7.614365212,1238.113126
0.8850,195.7080548,-7.676561361,1238.081737
0.8900,195.7100406,-7.73293112,1238.052521
0.8950,195.7059459,-7.784234822,1238.025566
0.9000,195.6969831,-7.830938326,1238.000466
0.9050,195.684025,-7.873025983,1237.977057
0.9100,195.6665047,-7.910930252,1237.955344
0.9150,195.6455765,-7.944093446,1237.935113
0.9200,195.6218861,-7.971918359,1237.916348
0.9250,195.5969141,-7.994683409,1237.898686
0.9300,195.5712392,-8.0111597,1237.88216
0.9350,195.5458521,-8.023108379,1237.866369
0.9400,195.5210449,-8.029173583,1237.851433
0.9450,195.498786,-8.029596418,1237.836971
0.9500,195.4793332,-8.024067742,1237.823034
0.9550,195.4620698,-8.014173785,1237.809452
0.9600,195.4486093,-7.99809965,1237.796066
0.9650,195.4386191,-7.977001254,1237.782932
0.9700,195.4325561,-7.950621216,1237.769803
0.9750,195.4289296,-7.919638383,1237.756888
0.9800,195.4282709,-7.883791437,1237.744129
0.9850,195.4281659,-7.842421005,1237.732012
0.9900,195.4292152,-7.795908763,1237.720268
0.9950,195.4309052,-7.743687795,1237.709004
1.0000,195.4325435,-7.686890909,1237.698091
1.0050,195.4335656,-7.625078576,1237.687637
1.0100,195.4346512,-7.558483989,1237.677486
1.0150,195.4339988,-7.487919858,1237.667724
1.0200,195.4328635,-7.412819016,1237.658161
1.0250,195.4308307,-7.334263478,1237.648568
1.0300,195.4289275,-7.254840853,1237.638268
1.0350,195.4265816,-7.17418257,1237.627302
1.0400,195.4259508,-7.093700376,1237.614945
1.0450,195.4262028,-7.015057191,1237.600943
1.0500,195.4288476,-6.939034832,1237.58477
1.0550,195.4345123,-6.867401566,1237.565874
1.0600,195.4444932,-6.799793458,1237.544054
1.0650,195.4583324,-6.738376439,1237.518885
1.0700,195.4778349,-6.682747878,1237.490079
1.0750,195.5036319,-6.634126383,1237.457293
1.0800,195.5356722,-6.592953248,1237.420424
1.0850,195.5746517,-6.559752282,1237.379251
1.0900,195.6203417,-6.535080252,1237.333807
1.0950,195.6727583,-6.51879899,1237.284018
1.1000,195.7309796,-6.51079169,1237.230112
1.1050,195.7955112,-6.512242474,1237.171724
1.1100,195.8654505,-6.522660688,1237.109111
1.1150,195.9408498,-6.541620648,1237.042273
1.1200,196.0221064,-6.569027881,1236.971266
1.1250,196.1074618,-6.605664207,1236.896284
1.1300,196.1976192,-6.651183661,1236.817252
1.1350,196.2916708,-6.705380229,1236.7344
1.1400,196.389014,-6.767959136,1236.647914
1.1450,196.4894712,-6.839083842,1236.557896
1.1500,196.5929858,-6.91801828,1236.464521
1.1550,196.699182,-7.006097333,1236.367782
1.1600,196.8083271,-7.102559032,1236.267811
1.1650,196.9205322,-7.206275104,1236.164655
1.1700,197.0359678,-7.317484923,1236.058404
1.1750,197.154399,-7.435937596,1235.949242
1.1800,197.2757446,-7.562328211,1235.83709
1.1850,197.3997281,-7.695771512,1235.722226
1.1900,197.5260287,-7.836453807,1235.604725
1.1950,197.6558356,-7.982743688,1235.48458
1.2000,197.7884598,-8.135032531,1235.362009
1.2050,197.9238317,-8.291744193,1235.237392
1.2100,198.0630485,-8.451721747,1235.110585
1.2150,198.2049328,-8.614844646,1234.981969
1.2200,198.3494148,-8.780514966,1234.851669
1.2250,198.4945198,-8.948765911,1234.719939
1.2300,198.6421152,-9.117633735,1234.586821
1.2350,198.7906429,-9.287302381,1234.452558
1.2400,198.9404927,-9.458021115,1234.316969
1.2450,199.0888683,-9.629162347,1234.180611
1.2500,199.2366928,-9.799740328,1234.043447
1.2550,199.3836472,-9.96974119,1233.905446
1.2600,199.5284194,-10.13984184,1233.766831
1.2650,199.6717146,-10.30820816,1233.627563
1.2700,199.8117384,-10.4751204,1233.487972
1.2750,199.9502121,-10.63923153,1233.347876
1.2800,200.0872784,-10.80016777,1233.2073
1.2850,200.2228598,-10.95813294,1233.066184
1.2900,200.3572349,-11.11319082,1232.924491
1.2950,200.4894979,-11.26553726,1232.782345
1.3000,200.6203582,-11.41458925,1232.639658
1.3050,200.7491167,-11.56102345,1232.496441
1.3100,200.8748132,-11.7049424,1232.352895
1.3150,200.9982101,-11.84696239,1232.208813
1.3200,201.1182321,-11.98686184,1232.064356
1.3250,201.2349119,-12.12421208,1231.919576
1.3300,201.3476547,-12.25780759,1231.774788
1.3350,201.4570106,-12.38936383,1231.629608
1.3400,201.5626288,-12.5179852,1231.484136
1.3450,201.6648788,-12.64328702,1231.338389
1.3500,201.7639857,-12.76575031,1231.19222
1.3550,201.8606499,-12.88286483,1231.045906
1.3600,201.9546785,-12.99652395,1230.899183
1.3650,202.0468292,-13.10461931,1230.752231
1.3700,202.136984,-13.20799181,1230.604866
1.3750,202.2261692,-13.30528911,1230.457134
1.3800,202.3134014,-13.39593662,1230.309237
1.3850,202.399487,-13.48014042,1230.161136
1.3900,202.4844888,-13.55752158,1230.012775
1.3950,202.5682001,-13.62783961,1229.864342
1.4000,202.6507149,-13.69076433,1229.715809
1.4050,202.7316241,-13.74659496,1229.567382
1.4100,202.8105653,-13.79425894,1229.41923
1.4150,202.886389,-13.83565904,1229.27147
1.4200,202.9576296,-13.86979107,1229.124466
1.4250,203.0254123,-13.89571881,1228.978307
1.4300,203.0889135,-13.91470526,1228.833046
1.4350,203.14766,-13.92539221,1228.688992
1.4400,203.2006221,-13.92917589,1228.546135
1.4450,203.2480714,-13.92586817,1228.404558
1.4500,203.2888428,-13.91488594,1228.26459
1.4550,203.3220644,-13.89601364,1228.126368
1.4600,203.3481805,-13.8695177,1227.98989
1.4650,203.366499,-13.83660776,1227.855294
1.4700,203.376731,-13.79761449,1227.722579
1.4750,203.3787276,-13.75280896,1227.591714
1.4800,203.3719498,-13.70250202,1227.462735
1.4850,203.3568219,-13.64678255,1227.335502
1.4900,203.3332008,-13.58521324,1227.210303
1.4950,203.3007418,-13.5188873,1227.087106
1.5000,203.2604432,-13.44675541,1226.965805
1.5050,203.2118387,-13.36883354,1226.846507
1.5100,203.1546069,-13.28528918,1226.729328
1.5150,203.089682,-13.19509952,1226.614108
1.5200,203.0166506,-13.09890868,1226.50092
1.5250,202.9373541,-12.99517886,1226.389599
1.5300,202.8508996,-12.88661026,1226.27991
1.5350,202.7566508,-12.77137678,1226.172108
1.5400,202.6546203,-12.64910083,1226.066234
1.5450,202.5458445,-12.5192908,1225.962181
1.5500,202.4309007,-12.38237922,1225.859825
1.5550,202.3096972,-12.23703169,1225.759345
1.5600,202.1830316,-12.08358251,1225.660527
1.5650,202.0503781,-11.92246401,1225.563547
1.5700,201.9127097,-11.75391636,1225.468132
1.5750,201.7702909,-11.5787737,1225.374234
1.5800,201.6217391,-11.39739177,1225.282017
1.5850,201.4682242,-11.20990659,1225.191222
1.5900,201.3090408,-11.01519564,1225.102068
1.5950,201.145682,-10.8142685,1225.014236
1.6000,200.9793638,-10.60581326,1224.927811
1.6050,200.8109384,-10.39037369,1224.842581
1.6100,200.6401389,-10.16660724,1224.758656
1.6150,200.4691975,-9.933456347,1224.67593
1.6200,200.2977464,-9.692507157,1224.594276
1.6250,200.125817,-9.442322799,1224.514091
1.6300,199.9543137,-9.182813947,1224.435168
1.6350,199.7826432,-8.913548919,1224.357837
1.6400,199.611089,-8.633958566,1224.282233
1.6450,199.4401082,-8.343612021,1224.208376
1.6500,199.2693722,-8.042063094,1224.136508
1.6550,199.0977803,-7.730069657,1224.066553
1.6600,198.9263511,-7.406680233,1223.998553
1.6650,198.7547897,-7.072696579,1223.932465
1.6700,198.5822561,-6.727617826,1223.868436
1.6750,198.4089084,-6.372915238,1223.80626
1.6800,198.2355711,-6.007545883,1223.746074
1.6850,198.0617494,-5.631768098,1223.68783
1.6900,197.8876282,-5.246967722,1223.631424
1.6950,197.7133658,-4.854174793,1223.576657
1.7000,197.5384884,-4.454020102,1223.523591
1.7050,197.3626041,-4.047209532,1223.472231
1.7100,197.1856906,-3.635593659,1223.422466
1.7150,197.0073032,-3.218399497,1223.37441
1.7200,196.828765,-2.798370059,1223.327568
1.7250,196.6495353,-2.375728026,1223.282028
1.7300,196.4696964,-1.951075974,1223.237692
1.7350,196.2889817,-1.527163029,1223.194275
1.7400,196.1081758,-1.102443756,1223.151951
1.7450,195.9275959,-0.6779999571,1223.110471
1.7500,195.7477787,-0.2547044474,1223.069564
1.7550,195.5706926,0.1665894048,1223.028805
1.7600,195.3949763,0.5851622092,1222.988198
1.7650,195.2215245,1.001141639,1222.947485
1.7700,195.049358,1.414470515,1222.906816
1.7750,194.8799172,1.824425044,1222.865839
1.7800,194.7144167,2.231390199,1222.824528
1.7850,194.5538177,2.635161615,1222.782629
1.7900,194.3978823,3.034539361,1222.739875
1.7950,194.2473545,3.429940749,1222.696196
1.8000,194.1019497,3.821665359,1222.651723
1.8050,193.9621643,4.208208478,1222.606
1.8100,193.8285496,4.590161977,1222.559063
1.8150,193.7007875,4.965928299,1222.510755
1.8200,193.5785766,5.335474463,1222.461074
1.8250,193.4604074,5.69816532,1222.410279
1.8300,193.3448299,6.054424434,1222.358637
1.8350,193.2326584,6.404966263,1222.306167
1.8400,193.1223979,6.749172075,1222.253004
1.8450,193.0134136,7.086555808,1222.19907
1.8500,192.9032532,7.417594587,1222.144846
1.8550,192.7909875,7.741467254,1222.090336
1.8600,192.6747087,8.058757171,1222.035965
1.8650,192.5520297,8.369581574,1221.982062
1.8700,192.4220428,8.674778349,1221.929001
1.8750,192.2823351,8.974605371,1221.877084
1.8800,192.1333898,9.270038377,1221.826464
1.8850,191.9739779,9.562493748,1221.777662
1.8900,191.8037771,9.850943628,1221.730598
1.8950,191.6212671,10.13772067,1221.685939
1.9000,191.4245694,10.42095318,1221.643649
1.9050,191.2125788,10.70338369,1221.604511
1.9100,190.986589,10.9849541,1221.56839
1.9150,190.7454018,11.26558909,1221.535416
1.9200,190.490006,11.54718062,1221.505925
1.9250,190.2220606,11.82845577,1221.479295
1.9300,189.9405204,12.10948021,1221.455877
1.9350,189.6463711,12.39109332,1221.435723
1.9400,189.3397636,12.67403873,1221.419006
1.9450,189.021099,12.95806691,1221.405628
1.9500,188.6920331,13.24377818,1221.395559
1.9550,188.3547774,13.53239647,1221.388887
1.9600,188.0081313,13.82430389,1221.38588
1.9650,187.6532734,14.12022672,1221.386691
1.9700,187.2899294,14.42073452,1221.391519
1.9750,186.9171229,14.72784664,1221.401052
1.9800,186.5355069,15.03947831,1221.414803
1.9850,186.1435706,15.35542927,1221.433013
1.9900,185.7412156,15.67753682,1221.456255
1.9950,185.3280785,16.00510437,1221.484498
2.0000,184.9053544,16.33992926,1221.518067
2.0050,184.4722737,16.68245669,1221.557128
2.0100,184.0299182,17.03234524,1221.601515
2.0150,183.579129,17.38902213,1221.651033
2.0200,183.1198168,17.75392371,1221.706099
2.0250,182.6527473,18.12686855,1221.766491
2.0300,182.1791578,18.50762799,1221.832106
2.0350,181.6997505,18.89736656,1221.903046
2.0400,181.2144057,19.29404257,1221.978861
2.0450,180.7234127,19.69660854,1222.059287
2.0500,180.2253449,20.10509314,1222.144603
2.0550,179.7205705,20.51774243,1222.234348
2.0600,179.2102161,20.93431534,1222.32827
2.0650,178.6935107,21.3542649,1222.426448
2.0700,178.1720751,21.77632685,1222.528253
2.0750,177.6459542,22.20060118,1222.633746
2.0800,177.1144606,22.62757927,1222.743111
2.0850,176.5772904,23.05599651,1222.856227
2.0900,176.0352795,23.48666639,1222.973211
2.0950,175.4888653,23.9201185,1223.094106
2.1000,174.9381757,24.35482105,1223.218559
2.1050,174.3838374,24.79098557,1223.346575
2.1100,173.8243054,25.22708555,1223.478136
2.1150,173.2596645,25.66346048,1223.613295
2.1200,172.6900237,26.09917462,1223.751877
2.1250,172.1141453,26.53265004,1223.893666
2.1300,171.531781,26.96455803,1224.038834
2.1350,170.9409386,27.39297753,1224.187262
2.1400,170.3417227,27.8195455,1224.339403
2.1450,169.7329826,28.24470713,1224.495625
2.1500,169.1155017,28.66834762,1224.655726
2.1550,168.4892625,29.09169939,1224.820063
2.1600,167.8536398,29.51645861,1224.98921
2.1650,167.2098483,29.94420789,1225.163292
2.1700,166.5587907,30.37542523,1225.342242
2.1750,165.9003153,30.81136016,1225.526499
2.1800,165.2341377,31.2524477,1225.716224
2.1850,164.5603975,31.69901746,1225.91157
2.1900,163.8776978,32.15315968,1226.113459
2.1950,163.1872043,32.61525718,1226.321812
2.2000,162.4902657,33.08729158,1226.537085
2.2050,161.7871584,33.56828818,1226.758905
2.2100,161.0772609,34.0580906,1226.987552
2.2150,160.3613912,34.55756528,1227.223333
2.2200,159.6397323,35.0645608,1227.465683
2.2250,158.9117251,35.57882734,1227.714823
2.2300,158.1791321,36.10061053,1227.970474
2.2350,157.4417402,36.62818505,1228.232304
2.2400,156.7009101,37.15875468,1228.499244
2.2450,155.9552884,37.69196188,1228.771591
2.2500,155.2050401,38.22727428,1229.049128
2.2550,154.4489649,38.76274515,1229.331456
2.2600,153.6865843,39.296612,1229.618168
2.2650,152.9176293,39.82893095,1229.909269
2.2700,152.1417799,40.35928499,1230.204745
2.2750,151.3606837,40.88781762,1230.504156
