type,name,time_units,begin_time,frequency,count,units
signal_4d,"Noraxon MyoMotion-Segments-Upper arm RT-Orientation","s",0.0000,200,5172,""

time,x,y,z,w
0.0000,-0.03110857149,-0.6736194249,-0.7320655872,0.09669076036
0.0050,-0.03095047785,-0.6735662769,-0.7320819093,0.09698771345
0.0100,-0.03079238108,-0.6735130507,-0.7320981464,0.09728465434
0.0150,-0.03063428118,-0.6734597462,-0.7321142983,0.09758158303
0.0200,-0.03046758652,-0.6734034521,-0.7321309352,0.09789693897
0.0250,-0.03029392127,-0.6733447849,-0.7321477589,0.09822799038
0.0300,-0.03011499532,-0.6732844485,-0.7321644248,0.09857176818
0.0350,-0.02993251408,-0.67322321,-0.7321805505,0.09892520197
0.0400,-0.02974810563,-0.6731618712,-0.7321957295,0.09928524081
0.0450,-0.02956327542,-0.6731012375,-0.7322095486,0.09964895301
0.0500,-0.0293793816,-0.6730420879,-0.7322216057,0.1000135993
0.0550,-0.02919761786,-0.6729851477,-0.7322315293,0.1003766781
0.0600,-0.02901900583,-0.6729310643,-0.7322389972,0.1007359467
0.0650,-0.02884441029,-0.6728803918,-0.7322437488,0.1010894193
0.0700,-0.02867457305,-0.6728335834,-0.7322455925,0.1014353496
0.0750,-0.02851014745,-0.6727909935,-0.7322444056,0.1017722016
0.0800,-0.02835172768,-0.6727528798,-0.7322401351,0.1020986131
0.0850,-0.02819987454,-0.6727193988,-0.7322328056,0.102413358
0.0900,-0.02805513626,-0.6726905994,-0.7322225288,0.102715311
0.0950,-0.02791806637,-0.6726664259,-0.732209503,0.1030034212
0.1000,-0.02778923992,-0.6726467298,-0.7321940029,0.1032767016
0.1050,-0.02766925808,-0.6726312884,-0.7321763616,0.103534233
0.1100,-0.02755873556,-0.6726198322,-0.7321569445,0.1037751702
0.1150,-0.02745827781,-0.6726120714,-0.7321361248,0.1039987458
0.1200,-0.02736845122,-0.6726077143,-0.732114266,0.104204281
0.1250,-0.02728974483,-0.6726064788,-0.7320917087,0.1043912086
0.1300,-0.02722252451,-0.6726081001,-0.7320687608,0.1045591091
0.1350,-0.02716698247,-0.6726123349,-0.7320456869,0.1047077563
0.1400,-0.02712308897,-0.6726189601,-0.7320227047,0.1048371709
0.1450,-0.02709055211,-0.6726277647,-0.7319999856,0.1049476688
0.1500,-0.02706878559,-0.6726385395,-0.7319776599,0.1050399044
0.1550,-0.02689959,-0.6726231737,-0.7319478753,0.1053887381
0.1600,-0.02674294797,-0.6726108741,-0.7319177949,0.1057155066
0.1650,-0.02659794765,-0.6726004465,-0.7318885605,0.1060203917
0.1700,-0.02646196409,-0.6725919261,-0.7318596826,0.1063074328
0.1750,-0.02633322954,-0.6725846117,-0.7318317737,0.1065774656
0.1800,-0.02621105501,-0.6725786991,-0.7318043972,0.1068325717
0.1850,-0.02609272988,-0.6725734092,-0.7317781172,0.1070745804
0.1900,-0.02597475285,-0.6725699575,-0.7317515198,0.1073064669
0.1950,-0.02585529365,-0.6725664676,-0.7317261006,0.1075302942
0.2000,-0.02573370103,-0.6725637365,-0.7317008817,0.1077479313
0.2050,-0.02560960562,-0.6725610828,-0.7316764108,0.1079600286
0.2100,-0.02548035808,-0.6725581607,-0.7316526559,0.1081696025
0.2150,-0.02534508821,-0.67255485,-0.7316297044,0.1083770082
0.2200,-0.02520509416,-0.6725500169,-0.7316085633,0.1085821718
0.2250,-0.0250599366,-0.6725433779,-0.7315892099,0.1087870968
0.2300,-0.02491024292,-0.6725360597,-0.7315707751,0.1089905006
0.2350,-0.02475639753,-0.6725283982,-0.731552753,0.1091936078
0.2400,-0.02459944007,-0.6725181536,-0.7315370963,0.10939688
0.2450,-0.02443829447,-0.6725065732,-0.7315229627,0.1095985118
0.2500,-0.02427525348,-0.6724929922,-0.7315108255,0.1097989058
0.2550,-0.02411158907,-0.6724769256,-0.7315012141,0.1099972253
0.2600,-0.0239460525,-0.6724578106,-0.7314946006,0.1101940506
0.2650,-0.02378104228,-0.6724367637,-0.7314900005,0.1103885864
0.2700,-0.02361634889,-0.6724133683,-0.7314878816,0.1105803297
0.2750,-0.02345384339,-0.6723882237,-0.7314876851,0.1107689503
0.2800,-0.02329479535,-0.6723607753,-0.7314897216,0.1109555203
0.2850,-0.02313934403,-0.6723318551,-0.731493508,0.1111381806
0.2900,-0.02298753433,-0.6723021059,-0.7314984292,0.1113171131
0.2950,-0.02283876874,-0.6722709952,-0.7315047567,0.1114939041
0.3000,-0.02269441971,-0.6722383267,-0.7315129797,0.1116662699
0.3050,-0.02255372877,-0.6722056217,-0.7315214399,0.1118361055
0.3100,-0.02241770117,-0.672172573,-0.7315304795,0.1120028406
0.3150,-0.02228439423,-0.6721393168,-0.7315400463,0.1121664182
0.3200,-0.02215319298,-0.6721050564,-0.7315510279,0.1123259668
0.3250,-0.02202457277,-0.6720703041,-0.7315627174,0.1124829539
0.3300,-0.02189778409,-0.6720349281,-0.7315755509,0.1126354995
0.3350,-0.02177320976,-0.6720000897,-0.7315883811,0.1127840743
0.3400,-0.02165169873,-0.6719650015,-0.7316020932,0.11292749
0.3450,-0.02153205572,-0.6719307787,-0.7316155447,0.1130667681
0.3500,-0.02141561584,-0.6718961162,-0.7316301466,0.1132003047
0.3550,-0.02130154797,-0.6718629095,-0.7316444186,0.1133266058
0.3600,-0.02119328267,-0.6718309866,-0.7316581344,0.1134475416
0.3650,-0.02108739397,-0.6718005758,-0.731671324,0.1135622374
0.3700,-0.02098556568,-0.6717716862,-0.731683889,0.113670991
0.3750,-0.02088750379,-0.6717432085,-0.7316967818,0.1137743097
0.3800,-0.02079275223,-0.6717157578,-0.731709552,0.1138715661
0.3850,-0.02070137473,-0.6716900852,-0.7317210553,0.1139656956
0.3900,-0.0206129878,-0.6716658616,-0.7317319923,0.1140542259
0.3950,-0.02052723897,-0.6716417227,-0.7317432479,0.1141395983
0.4000,-0.02044424655,-0.6716177279,-0.7317549397,0.1142207012
0.4050,-0.02036327069,-0.6715946405,-0.7317660593,0.1142996528
0.4100,-0.02028560799,-0.6715719638,-0.7317772021,0.1143753384
0.4150,-0.02020953085,-0.6715495738,-0.7317884004,0.114448599
0.4200,-0.02013544874,-0.6715283491,-0.7317986874,0.1145203964
0.4250,-0.02006423122,-0.6715066361,-0.7318095457,0.1145908073
0.4300,-0.01999478581,-0.6714859215,-0.7318195861,0.1146601899
0.4350,-0.0199280039,-0.6714656249,-0.731829321,0.1147285237
0.4400,-0.01986238343,-0.6714460216,-0.7318382623,0.1147975767
0.4450,-0.01979880602,-0.6714272074,-0.7318464883,0.11486614
0.4500,-0.01973728554,-0.6714086934,-0.7318546094,0.1149331836
0.4550,-0.01967677623,-0.6713909994,-0.7318622083,0.1149985147
0.4600,-0.01961790305,-0.6713729572,-0.7318702919,0.1150624441
0.4650,-0.01955930733,-0.6713555299,-0.7318779514,0.1151253677
0.4700,-0.01950257768,-0.6713379711,-0.7318863261,0.1151841294
0.4750,-0.0194470883,-0.6713215937,-0.7318939149,0.1152407302
0.4800,-0.01939309487,-0.6713053999,-0.7319017205,0.1152945771
0.4850,-0.01934091988,-0.6712900574,-0.7319093474,0.1153442447
0.4900,-0.01929211923,-0.6712747633,-0.7319171956,0.1153916164
0.4950,-0.01924650732,-0.6712602549,-0.7319249009,0.1154347506
0.5000,-0.01920398726,-0.671246999,-0.7319319955,0.1154739239
0.5050,-0.01916449097,-0.671233731,-0.7319394313,0.115510474
0.5100,-0.01912936544,-0.6712204973,-0.7319473166,0.1155432259
0.5150,-0.01909840126,-0.6712077131,-0.7319552091,0.115572613
0.5200,-0.01907134178,-0.6711957909,-0.7319626617,0.1155991177
0.5250,-0.01904786337,-0.6711843028,-0.731970318,0.1156212096
0.5300,-0.0190290787,-0.6711726911,-0.7319786775,0.1156387848
0.5350,-0.01901460399,-0.6711607441,-0.7319876844,0.1156534925
0.5400,-0.01900541709,-0.6711491997,-0.7319969557,0.1156633163
0.5450,-0.01900204648,-0.6711379829,-0.7320064438,0.1156689086
0.5500,-0.01900287027,-0.6711270924,-0.7320161101,0.1156707887
0.5550,-0.01900884674,-0.6711159963,-0.7320263987,0.1156690742
0.5600,-0.01902187099,-0.6711057684,-0.7320362633,0.1156638455
0.5650,-0.01903922497,-0.6710944239,-0.7320476899,0.1156544938
0.5700,-0.01906228076,-0.6710849764,-0.7320576042,0.1156427601
0.5750,-0.01909031507,-0.6710760401,-0.7320675442,0.1156270688
0.5800,-0.01912201471,-0.6710682063,-0.7320770107,0.1156073595
0.5850,-0.01915759426,-0.6710610236,-0.7320864999,0.1155830686
0.5900,-0.01919678735,-0.6710538573,-0.7320964362,0.1155552338
0.5950,-0.01923920466,-0.6710484335,-0.7321054063,0.1155228417
0.6000,-0.01928360428,-0.6710435638,-0.7321143486,0.1154870496
0.6050,-0.01932956203,-0.6710399691,-0.7321228011,0.1154466632
0.6100,-0.01937744875,-0.6710375484,-0.7321307201,0.1154024777
0.6150,-0.01942698776,-0.6710353358,-0.732139027,0.1153543041
0.6200,-0.01947810329,-0.6710343957,-0.7321467103,0.1153023762
0.6250,-0.01953110132,-0.6710350229,-0.7321537733,0.1152448978
0.6300,-0.0195865896,-0.6710376208,-0.7321595745,0.1151834816
0.6350,-0.01964417142,-0.6710417062,-0.7321645124,0.1151184686
0.6400,-0.01970348485,-0.6710474558,-0.7321685563,0.1150490761
0.6450,-0.01976582685,-0.6710548594,-0.7321715646,0.1149760314
0.6500,-0.01983105792,-0.6710640494,-0.7321735262,0.1148986434
0.6550,-0.01989905371,-0.6710745542,-0.7321748454,0.1148170986
0.6600,-0.01996864988,-0.6710864598,-0.7321754494,0.1147315465
0.6650,-0.02004182123,-0.6711002771,-0.7321747465,0.1146424182
0.6700,-0.02011835677,-0.6711161676,-0.7321727096,0.1145489614
0.6750,-0.02019748378,-0.6711337088,-0.7321697731,0.1144509935
0.6800,-0.02027937989,-0.6711540227,-0.7321648925,0.1143485668
0.6850,-0.02036418604,-0.6711765132,-0.7321584311,0.1142428108
0.6900,-0.02045137276,-0.6712008549,-0.7321509153,0.1141323401
0.6950,-0.02054185277,-0.6712280238,-0.7321412297,0.1140183851
0.7000,-0.0206343938,-0.6712575445,-0.7321298198,0.1139010874
0.7050,-0.02072925704,-0.671288955,-0.7321171409,0.1137801775
0.7100,-0.02082466039,-0.6713232585,-0.7321021722,0.1136566122
0.7150,-0.02092281319,-0.6713599577,-0.7320853454,0.1135301284
0.7200,-0.02102286269,-0.6713984526,-0.7320671083,0.1134015259
0.7250,-0.0211239032,-0.6714404412,-0.7320460964,0.1132697103
0.7300,-0.02122508094,-0.6714840393,-0.7320236318,0.1131374537
0.7350,-0.02132544284,-0.6715294734,-0.7319998785,0.1130025208
0.7400,-0.02142668936,-0.6715770696,-0.7319742661,0.1128663383
0.7450,-0.02152537167,-0.6716262719,-0.7319473593,0.1127292
0.7500,-0.02162271112,-0.6716768086,-0.7319190788,0.1125930073
0.7550,-0.02171835742,-0.6717285821,-0.731889475,0.1124580869
0.7600,-0.02181196606,-0.6717814868,-0.7318586089,0.1123247462
0.7650,-0.02190320127,-0.6718354129,-0.7318265492,0.1121932696
0.7700,-0.02199224657,-0.6718916715,-0.7317918079,0.1120654843
0.7750,-0.02207879645,-0.6719482353,-0.7317565488,0.1119394884
0.7800,-0.02216206698,-0.6720054648,-0.7317203616,0.1118159669
0.7850,-0.02224283709,-0.6720641936,-0.7316822869,0.1116960469
0.7900,-0.0223209251,-0.6721234781,-0.7316435104,0.1115776865
0.7950,-0.02239621365,-0.6721832387,-0.7316041158,0.1114608498
0.8000,-0.02247019374,-0.6722428167,-0.7315646104,0.111345887
0.8050,-0.02254239188,-0.6723028333,-0.7315246887,0.1112311591
0.8100,-0.02261396794,-0.6723631117,-0.7314843608,0.1111174352
0.8150,-0.0226831172,-0.6724235914,-0.7314437725,0.1110044941
0.8200,-0.02275218463,-0.6724841726,-0.7314029902,0.1108920272
0.8250,-0.02282153768,-0.6725441652,-0.7313625439,0.1107806509
0.8300,-0.02289121019,-0.6726039207,-0.7313220456,0.1106707911
0.8350,-0.02296170112,-0.6726635661,-0.7312817089,0.1105601614
0.8400,-0.02303245716,-0.6727240459,-0.7312405847,0.1104494061
0.8450,-0.02310364,-0.6727836398,-0.7312001973,0.1103388752
0.8500,-0.02317681027,-0.6728418005,-0.7311610549,0.1102282121
0.8550,-0.02325202998,-0.6729000351,-0.7311217109,0.1101177991
0.8600,-0.02332834691,-0.672956804,-0.7310837241,0.110006893
0.8650,-0.0234067832,-0.6730145715,-0.7310445742,0.1098969499
0.8700,-0.023486844,-0.6730702881,-0.7310072816,0.109786655
0.8750,-0.02356950275,-0.6731253967,-0.7309702747,0.1096774199
0.8800,-0.02365517531,-0.6731801355,-0.730933646,0.1095670707
0.8850,-0.02374329745,-0.6732338233,-0.7308977543,0.1094575153
0.8900,-0.02383518917,-0.6732870806,-0.7308620249,0.1093484862
0.8950,-0.02393272646,-0.6733389619,-0.7308273728,0.1092392704
0.9000,-0.02403455533,-0.6733912672,-0.7307923037,0.1091290535
0.9050,-0.02414194867,-0.6734424975,-0.7307581956,0.1090175601
0.9100,-0.02425410968,-0.6734920335,-0.730725376,0.1089065827
0.9150,-0.02437363378,-0.6735415919,-0.730692285,0.1087953792
0.9200,-0.02449892691,-0.6735908673,-0.7306593919,0.108683021
0.9250,-0.02462955162,-0.6736397559,-0.7306265728,0.1085710623
0.9300,-0.02476627435,-0.6736886977,-0.7305938896,0.1084561602
0.9350,-0.02490934694,-0.6737367062,-0.7305621964,0.1083386005
0.9400,-0.02505909151,-0.6737848075,-0.7305304119,0.1082191863
0.9450,-0.02521400508,-0.6738321908,-0.730499492,0.1080968302
0.9500,-0.02537460767,-0.6738798772,-0.7304682862,0.1079727894
0.9550,-0.02554092059,-0.6739274012,-0.7304372281,0.1078469988
0.9600,-0.0257122186,-0.6739748413,-0.730406233,0.1077196824
0.9650,-0.0258873125,-0.6740216281,-0.7303757248,0.1075917863
0.9700,-0.02606446291,-0.6740667864,-0.7303467376,0.1074628035
0.9750,-0.02624545675,-0.6741127077,-0.7303166763,0.1073349227
0.9800,-0.02642814736,-0.6741577315,-0.7302871113,0.1072084009
0.9850,-0.02661228414,-0.6742023305,-0.7302576103,0.1070832686
0.9900,-0.02679832779,-0.6742462242,-0.7302281716,0.1069611902
0.9950,-0.02698537949,-0.6742892585,-0.7301989371,0.1068423952
1.0000,-0.02717309684,-0.6743318824,-0.7301695765,0.1067264016
1.0050,-0.027361483,-0.6743738493,-0.7301402247,0.1066138495
1.0100,-0.02755106913,-0.6744145059,-0.730111514,0.1065044127
1.0150,-0.02774113527,-0.6744547902,-0.7300827055,0.1063974087
1.0200,-0.02793267865,-0.6744939919,-0.7300544776,0.1062924272
1.0250,-0.0281268487,-0.6745322627,-0.730026423,0.1061910009
1.0300,-0.0283233023,-0.6745701525,-0.7299983571,0.1060909917
1.0350,-0.02852244742,-0.674607732,-0.7299698325,0.1059949133
1.0400,-0.02872507641,-0.6746444582,-0.7299415212,0.1059013724
1.0450,-0.02893105596,-0.6746805529,-0.7299129633,0.1058121517
1.0500,-0.02914063368,-0.674716039,-0.7298842711,0.105726255
1.0550,-0.02935354567,-0.6747508289,-0.7298554577,0.1056442102
1.0600,-0.02957000554,-0.6747848133,-0.7298264649,0.1055670479
1.0650,-0.02979000101,-0.6748183605,-0.729797412,0.1054915807
1.0700,-0.03001243184,-0.6748505523,-0.7297692221,0.105417591
1.0750,-0.03023769628,-0.6748830442,-0.729740266,0.1053456342
1.0800,-0.03046811254,-0.6749145646,-0.7297118539,0.1052740938
1.0850,-0.03070276484,-0.6749455489,-0.7296838381,0.1052014387
1.0900,-0.03094259785,-0.6749763288,-0.7296558248,0.1051279627
1.0950,-0.03118806191,-0.6750074847,-0.729627534,0.1050517111
1.1000,-0.03143897498,-0.6750395315,-0.7295985647,0.1049721684
1.1050,-0.03169562032,-0.6750734066,-0.7295678865,0.1048903344
1.1100,-0.03195669,-0.6751087621,-0.7295360939,0.1048046611
1.1150,-0.03222343619,-0.6751460138,-0.7295025866,0.1047162185
1.1200,-0.03249235001,-0.6751846862,-0.7294678939,0.10462542
1.1250,-0.03276314377,-0.6752256989,-0.7294310456,0.1045331605
1.1300,-0.03303368792,-0.6752701897,-0.729391209,0.1044385492
1.1350,-0.03330386948,-0.6753185614,-0.7293479793,0.1043418327
1.1400,-0.03357212214,-0.6753699992,-0.7293020214,0.1042441283
1.1450,-0.03383976349,-0.6754257923,-0.7292520566,0.1041456072
1.1500,-0.03410395145,-0.6754867693,-0.729197542,0.1040456136
1.1550,-0.03436342403,-0.675552396,-0.7291388824,0.1039452045
1.1600,-0.03461798797,-0.6756224917,-0.7290760673,0.1038457105
1.1650,-0.03486842337,-0.6756964,-0.7290097634,0.1037464841
1.1700,-0.03511401982,-0.6757743756,-0.728939779,0.1036474675
1.1750,-0.03535270632,-0.6758564939,-0.7288660651,0.1035492391
1.1800,-0.03558513145,-0.6759409499,-0.7287899963,0.1034537189
1.1850,-0.03581008478,-0.6760279764,-0.7287111445,0.1033628599
1.1900,-0.03602655153,-0.6761170633,-0.7286303617,0.1032743934
1.1950,-0.03623480406,-0.6762071592,-0.728548255,0.1031908763
1.2000,-0.03643433693,-0.6762962526,-0.7284665356,0.1031136475
1.2050,-0.03662633133,-0.6763850703,-0.7283845108,0.103042481
1.2100,-0.03681164773,-0.6764729405,-0.7283030388,0.1029754687
1.2150,-0.03698766079,-0.6765580215,-0.7282239,0.1029131088
1.2200,-0.03715794752,-0.6766404925,-0.7281466644,0.1028560447
1.2250,-0.0373233962,-0.67671927,-0.7280724425,0.1028032693
1.2300,-0.03748329364,-0.6767931413,-0.7280021664,0.1027564714
1.2350,-0.03763886825,-0.6768627688,-0.7279352997,0.102714689
1.2400,-0.03778927992,-0.6769278116,-0.7278720591,0.1026789844
1.2450,-0.03793366163,-0.6769885668,-0.7278121427,0.1026499038
1.2500,-0.03807191643,-0.6770455332,-0.727755163,0.1026269841
1.2550,-0.03820215426,-0.6770976939,-0.7277020602,0.1026110124
1.2600,-0.03832387495,-0.6771462584,-0.7276516965,0.1026023096
1.2650,-0.03843598646,-0.677191143,-0.7276044121,0.1025994656
1.2700,-0.0385379248,-0.6772340215,-0.7275582475,0.1026055797
1.2750,-0.03862849853,-0.6772745908,-0.7275139581,0.1026177787
1.2800,-0.03870710611,-0.6773132014,-0.7274710272,0.1026376718
1.2850,-0.03877415114,-0.677350492,-0.727429063,0.1026636958
1.2900,-0.03882651136,-0.677387577,-0.7273872098,0.1026957621
1.2950,-0.03886463743,-0.6774240859,-0.7273460496,0.1027320398
1.3000,-0.03888804534,-0.6774610308,-0.7273046275,0.1027728101
1.3050,-0.03889516505,-0.6774995841,-0.7272620628,0.1028171762
1.3100,-0.03888700972,-0.677540184,-0.7272178154,0.1028656822
1.3150,-0.03886120578,-0.6775813108,-0.7271735276,0.1029176115
1.3200,-0.03881832405,-0.6776254881,-0.7271267695,0.1029732818
1.3250,-0.03875741365,-0.6776722479,-0.7270782114,0.1030313638
1.3300,-0.03867917507,-0.6777215041,-0.7270279792,0.1030912304
1.3350,-0.03858377235,-0.6777742762,-0.7269752638,0.1031517759
1.3400,-0.03846884401,-0.6778304348,-0.7269202502,0.1032133689
1.3450,-0.03833718858,-0.6778899813,-0.7268631394,0.1032734712
1.3500,-0.03818800965,-0.6779531922,-0.7268035693,0.1033330383
1.3550,-0.03802053635,-0.6780211108,-0.7267408653,0.1033901681
1.3600,-0.03783503118,-0.6780935958,-0.7266752588,0.1034439654
1.3650,-0.03763184432,-0.678169647,-0.726607329,0.1034966839
1.3700,-0.03741127503,-0.6782507032,-0.7265359261,0.1035467441
1.3750,-0.037174526,-0.678336447,-0.7264612377,0.1035943504
1.3800,-0.03691988425,-0.6784281058,-0.7263820895,0.1036401823
1.3850,-0.036647152,-0.6785252415,-0.726298734,0.1036852544
1.3900,-0.03635625212,-0.6786285741,-0.7262105778,0.1037288678
1.3950,-0.03604570976,-0.6787379418,-0.7261174058,0.1037739186
1.4000,-0.0357156313,-0.6788533463,-0.7260191342,0.1038207337
1.4050,-0.03536614212,-0.6789737297,-0.7259166905,0.10386948
1.4100,-0.03499959891,-0.6791006083,-0.7258085792,0.1039196721
1.4150,-0.03461536748,-0.679233941,-0.7256949169,0.1039707523
1.4200,-0.0342169767,-0.6793735453,-0.7255757647,0.1040220851
1.4250,-0.03380439334,-0.6795196427,-0.7254507443,0.1040746645
1.4300,-0.03337920199,-0.6796703146,-0.7253214836,0.1041289477
1.4350,-0.03294288663,-0.6798246891,-0.725188651,0.1041853099
1.4400,-0.03249696823,-0.6799822755,-0.7250523935,0.1042452815
1.4450,-0.03204089493,-0.6801427783,-0.7249130453,0.1043084801
1.4500,-0.0315762168,-0.6803051919,-0.7247713605,0.1043755883
1.4550,-0.03110391878,-0.6804685525,-0.7246281611,0.1044467495
1.4600,-0.03062641056,-0.6806334054,-0.7244827372,0.1045225041
1.4650,-0.03014174126,-0.6807986572,-0.7243359866,0.1046042173
1.4700,-0.02965195818,-0.6809640291,-0.7241876133,0.104695049
1.4750,-0.02915758163,-0.6811275203,-0.7240395447,0.1047944383
1.4800,-0.02865824223,-0.6812891092,-0.7238917093,0.1049030409
1.4850,-0.02815768192,-0.6814483375,-0.7237444714,0.105020228
1.4900,-0.02765619649,-0.6816044082,-0.7235980211,0.1051497474
1.4950,-0.02715373434,-0.6817565593,-0.7234533275,0.105289845
1.5000,-0.02665388167,-0.6819060002,-0.7233091757,0.1054400961
1.5050,-0.02615589137,-0.6820497116,-0.7231683077,0.1056014159
1.5100,-0.02566194966,-0.6821886055,-0.7230299776,0.1057725032
1.5150,-0.02517502911,-0.682321862,-0.7228948072,0.1059537272
1.5200,-0.02469490997,-0.6824482721,-0.7227639394,0.1061452084
1.5250,-0.02422239547,-0.682568799,-0.7226365429,0.1063463072
1.5300,-0.02375822906,-0.6826825871,-0.7225130875,0.1065592333
1.5350,-0.02330342021,-0.6827885657,-0.7223946307,0.1067835322
1.5400,-0.0228590391,-0.6828882956,-0.7222798069,0.1070183192
1.5450,-0.02242687282,-0.6829801979,-0.7221701172,0.1072632578
1.5500,-0.02200643425,-0.6830631718,-0.7220665309,0.1075190455
1.5550,-0.02160015579,-0.6831392685,-0.7219670171,0.1077858954
1.5600,-0.02120818246,-0.6832074819,-0.7218725451,0.108063769
1.5650,-0.02083139476,-0.6832679677,-0.7217830975,0.1083517301
1.5700,-0.02047097739,-0.6833192076,-0.7217000145,0.1086503048
1.5750,-0.020125354,-0.6833624988,-0.7216222487,0.1089586874
1.5800,-0.01979421441,-0.683397608,-0.7215501264,0.1092763174
1.5850,-0.01947420801,-0.6834248017,-0.7214835033,0.1096031484
1.5900,-0.01916679094,-0.6834432803,-0.7214230311,0.1099396512
1.5950,-0.01887072192,-0.6834539903,-0.7213679879,0.1102849265
1.6000,-0.01858429457,-0.6834560331,-0.7213190102,0.1106406808
1.6050,-0.01830767606,-0.6834476776,-0.7212778145,0.1110063749
1.6100,-0.01803803258,-0.6834293175,-0.7212442909,0.1113807439
1.6150,-0.01777392081,-0.6834026248,-0.72121671,0.11176492
1.6200,-0.01751247502,-0.6833662374,-0.7211964978,0.1121584165
1.6250,-0.01725139451,-0.6833197041,-0.7211841091,0.1125613264
1.6300,-0.01698990544,-0.6832640147,-0.7211785128,0.1129742538
1.6350,-0.01672663521,-0.6831987709,-0.7211803179,0.1133958028
1.6400,-0.0164609429,-0.6831233744,-0.7211901685,0.1138254521
1.6450,-0.01619059569,-0.6830392665,-0.7212067615,0.1142629961
1.6500,-0.0159145513,-0.682946882,-0.7212298694,0.1147072748
1.6550,-0.01563539675,-0.6828454469,-0.7212601269,0.11515841
1.6600,-0.01535069996,-0.6827357765,-0.7212967696,0.1156165456
1.6650,-0.01506021483,-0.6826184483,-0.7213396959,0.1160787969
1.6700,-0.01476439693,-0.6824931517,-0.7213890864,0.1165456843
1.6750,-0.01446187609,-0.6823591461,-0.721445724,0.1170167391
1.6800,-0.01415182499,-0.6822167211,-0.7215093667,0.1174917233
1.6850,-0.01383524491,-0.6820657269,-0.7215803603,0.1179691223
1.6900,-0.01351113576,-0.681906034,-0.7216590971,0.1184472775
1.6950,-0.01318007125,-0.681736363,-0.7217468439,0.118925651
1.7000,-0.01284128657,-0.6815575693,-0.7218430292,0.1194027732
1.7050,-0.01249554555,-0.6813695314,-0.7219480888,0.1198765203
1.7100,-0.01214049548,-0.6811712444,-0.7220627148,0.1203485772
1.7150,-0.01177833147,-0.6809626621,-0.7221873243,0.1208163581
1.7200,-0.01140727008,-0.6807435425,-0.7223222043,0.1212795808
1.7250,-0.01102988715,-0.6805139312,-0.7224676156,0.1217360893
1.7300,-0.01064433635,-0.6802745206,-0.7226225721,0.1221879414
1.7350,-0.01025071703,-0.6800259904,-0.7227866125,0.1226339588
1.7400,-0.009848627398,-0.6797687486,-0.7229597413,0.1230717895
1.7450,-0.009437655895,-0.6795027498,-0.7231413778,0.1235050258
1.7500,-0.009018392338,-0.6792297072,-0.7233301027,0.1239323847
1.7550,-0.008591575666,-0.6789497426,-0.7235257699,0.1243538988
1.7600,-0.008154985982,-0.6786630491,-0.723728047,0.1247704931
1.7650,-0.007711536388,-0.6783710947,-0.7239355463,0.1251819272
1.7700,-0.007262344286,-0.678073878,-0.7241484173,0.1255871974
1.7750,-0.00680615111,-0.6777727045,-0.7243651649,0.1259878775
1.7800,-0.006346280192,-0.6774690863,-0.7245843866,0.126383656
1.7850,-0.005881133935,-0.6771638788,-0.7248052982,0.1267744976
1.7900,-0.005413261355,-0.6768574267,-0.7250277491,0.1271592845
1.7950,-0.004943086398,-0.6765502471,-0.7252510146,0.1275393854
1.8000,-0.004471047427,-0.676242457,-0.7254752441,0.1279133273
1.8050,-0.003997038455,-0.6759348841,-0.7256996569,0.1282811917
1.8100,-0.003522359748,-0.6756283076,-0.7259236368,0.1286423586
1.8150,-0.003047696297,-0.6753232465,-0.7261465796,0.1289975553
1.8200,-0.002575165137,-0.6750186642,-0.7263695776,0.1293460794
1.8250,-0.002106191127,-0.6747149993,-0.7265922912,0.1296876093
1.8300,-0.00164215432,-0.6744136495,-0.7268134546,0.1300220553
1.8350,-0.001182752642,-0.6741144836,-0.7270333542,0.1303486326
1.8400,-0.0007291488724,-0.6738156481,-0.7272537483,0.130667235
1.8450,-0.0002814017694,-0.6735179441,-0.7274739195,0.1309778461
1.8500,0.0001600039331,-0.6732217031,-0.7276936707,0.1312799853
1.8550,0.0005952297006,-0.6729260139,-0.7279136917,0.131574629
1.8600,0.001025503222,-0.6726302715,-0.7281348832,0.1318599942
1.8650,0.001450627632,-0.6723339299,-0.728357303,0.1321386449
1.8700,0.001870557574,-0.6720374961,-0.7285809101,0.1324083166
1.8750,0.002286715292,-0.6717391985,-0.7288067402,0.1326723615
1.8800,0.002698119259,-0.6714394298,-0.7290346865,0.1329294484
1.8850,0.003104374514,-0.6711377699,-0.7292649761,0.1331805213
1.8900,0.003506051052,-0.67083554,-0.7294965337,0.1334248598
1.8950,0.003903725935,-0.6705323838,-0.7297296826,0.1336625363
1.9000,0.004297963859,-0.6702284067,-0.729964155,0.1338945212
1.9050,0.004689281538,-0.669923676,-0.7301996779,0.1341219943
1.9100,0.00507965891,-0.6696182021,-0.7304359025,0.1343467636
1.9150,0.005467077371,-0.669311361,-0.7306735421,0.1345681537
1.9200,0.005852991074,-0.6690030716,-0.730912825,0.1347852919
1.9250,0.006235207625,-0.6686946251,-0.7311522808,0.1349998622
1.9300,0.006615021386,-0.6683839,-0.7313940106,0.1352109651
1.9350,0.006992583323,-0.668071915,-0.7316370372,0.1354188539
1.9400,0.007365441819,-0.6677592541,-0.7318809003,0.1356232895
1.9450,0.007734027847,-0.6674442937,-0.7321269503,0.1358249916
1.9500,0.008097659103,-0.6671272351,-0.7323752127,0.136022895
1.9550,0.008456571525,-0.6668071858,-0.7326265589,0.1362166974
1.9600,0.008809915664,-0.6664837674,-0.7328813821,0.1364062059
1.9650,0.009155262481,-0.6661572229,-0.7331388609,0.1365948245
1.9700,0.00949635293,-0.665826126,-0.7334004109,0.1367816746
1.9750,0.009832425788,-0.6654928384,-0.7336641419,0.136965442
1.9800,0.01016267103,-0.6651562071,-0.7339309918,0.137146781
1.9850,0.01048835397,-0.6648160757,-0.7342009574,0.137326378
1.9900,0.01080826154,-0.6644723475,-0.7344739935,0.1375050319
1.9950,0.01112162388,-0.6641258809,-0.7347491801,0.1376835725
2.0000,0.01142778816,-0.6637761978,-0.7350271101,0.1378612068
2.0050,0.01172607962,-0.6634246519,-0.7353062968,0.1380394151
2.0100,0.01201480543,-0.6630697418,-0.7355884103,0.1382166872
2.0150,0.01229593161,-0.6627122862,-0.7358723565,0.138394764
2.0200,0.01256787729,-0.6623517006,-0.7361586349,0.1385739423
2.0250,0.0128311488,-0.6619879867,-0.7364473418,0.1387536661
2.0300,0.01308535888,-0.6616213052,-0.7367386743,0.1389321691
2.0350,0.01333058423,-0.6612509376,-0.7370331133,0.1391103263
2.0400,0.01356597068,-0.6608766855,-0.737330704,0.1392889225
2.0450,0.01379121608,-0.6604986916,-0.7376316758,0.1394660951
2.0500,0.01400744551,-0.6601166662,-0.7379360986,0.1396427332
2.0550,0.01421530165,-0.6597310583,-0.7382435723,0.1398187535
2.0600,0.01441476971,-0.6593422065,-0.7385536731,0.1399947894
2.0650,0.01460574619,-0.6589493937,-0.7388669393,0.1401713764
2.0700,0.01478967071,-0.6585532227,-0.7391830276,0.1403473198
2.0750,0.01496380684,-0.6581536111,-0.739502052,0.1405226806
2.0800,0.01512946204,-0.6577504304,-0.7398240659,0.1406976267
2.0850,0.01528645896,-0.6573436633,-0.7401491514,0.1408718074
2.0900,0.01543517364,-0.6569338724,-0.7404767844,0.1410452926
2.0950,0.01557443258,-0.6565222661,-0.7408060844,0.1412171962
2.1000,0.01570253457,-0.6561070678,-0.7411382126,0.1413898715
2.1050,0.01581636251,-0.655690349,-0.7414717752,0.1415613486
2.1100,0.01591725984,-0.655270483,-0.741807882,0.1417332039
2.1150,0.01600503509,-0.6548489177,-0.7421455415,0.1419039434
2.1200,0.01608098253,-0.65442591,-0.7424844049,0.1420740607
2.1250,0.01614576638,-0.654002141,-0.7428237569,0.1422440858
2.1300,0.01619793225,-0.6535751075,-0.7431657589,0.142414398
2.1350,0.01623811875,-0.6531466286,-0.7435087027,0.1425854622
2.1400,0.01626692225,-0.6527159663,-0.7438527185,0.1427598956
2.1450,0.01628358401,-0.6522850041,-0.7441961843,0.1429376001
2.1500,0.01628734234,-0.6518525465,-0.7445399068,0.1431199052
2.1550,0.01627920612,-0.6514187877,-0.7448838033,0.1433062107
2.1600,0.01625771602,-0.6509845925,-0.7452267107,0.1434987691
2.1650,0.01622259595,-0.6505501082,-0.7455686516,0.1436967983
2.1700,0.01617424328,-0.6501164791,-0.7459085253,0.143900762
2.1750,0.01611207797,-0.6496825111,-0.7462470829,0.1441122027
2.1800,0.01603869001,-0.6492492589,-0.7465832123,0.144331796
2.1850,0.01595567209,-0.6488161254,-0.7469172664,0.144560192
2.1900,0.01586411169,-0.6483822779,-0.7472493667,0.1448003306
2.1950,0.01576511213,-0.6479481979,-0.74757888,0.1450531357
2.2000,0.01565820681,-0.6475146694,-0.747905434,0.1453170166
2.2050,0.01554387739,-0.6470828759,-0.7482279861,0.1455919655
2.2100,0.01541994277,-0.6466526341,-0.7485472225,0.1458754667
2.2150,0.01528818342,-0.6462245611,-0.7488626761,0.1461669608
2.2200,0.01514670512,-0.6457976537,-0.7491753031,0.1464661495
2.2250,0.01499610372,-0.6453715865,-0.7494857155,0.1467712317
2.2300,0.01483687312,-0.6449476962,-0.7497923037,0.1470844576
2.2350,0.0146689249,-0.6445237911,-0.7500970011,0.1474055434
2.2400,0.01449276368,-0.6441015614,-0.7503983325,0.1477344952
2.2450,0.0143078372,-0.6436809768,-0.7506962729,0.1480715763
2.2500,0.01411619748,-0.6432614723,-0.7509911386,0.1484173877
2.2550,0.01391997126,-0.6428453343,-0.7512809368,0.1487718541
2.2600,0.01371970048,-0.6424305781,-0.7515674773,0.1491343327
2.2650,0.01351699137,-0.6420187007,-0.7518497619,0.1495032255
2.2700,0.01330926154,-0.6416093007,-0.7521279103,0.1498798697
2.2750,0.0130968465,-0.6412023259,-0.7524016011,0.1502660323
2.2800,0.01287813237,-0.6407985974,-0.7526707473,0.150658745
2.2850,0.01265131261,-0.6403978788,-0.7529355185,0.151058287
2.2900,0.01241655933,-0.6400005452,-0.7531957101,0.1514640335
2.2950,0.01217353069,-0.639607647,-0.7534507044,0.1518746161
2.3000,0.01192180503,-0.6392176993,-0.7537016329,0.1522906828
2.3050,0.01166357051,-0.6388303226,-0.7539487527,0.1527123385
2.3100,0.01139959101,-0.6384463023,-0.7541914766,0.1531391038
2.3150,0.01113014913,-0.638064463,-0.754430564,0.1535720841
2.3200,0.01085671585,-0.6376857197,-0.754665798,0.154008402
2.3250,0.01057972697,-0.6373098301,-0.7548971433,0.1544491921
2.3300,0.01029770577,-0.6369373419,-0.755124203,0.1548942148
2.3350,0.01001070671,-0.6365676577,-0.7553477751,0.155342015
2.3400,0.009718882886,-0.6362012718,-0.7555677692,0.1557909859
2.3450,0.009423458023,-0.635838361,-0.7557840938,0.1562407781
2.3500,0.009122701188,-0.6354774436,-0.7559981194,0.1566909009
2.3550,0.008816563848,-0.6351180387,-0.7562102323,0.1571414323
2.3600,0.008505051497,-0.6347600896,-0.7564205489,0.1575920237
2.3650,0.008189896678,-0.6344024069,-0.7566307212,0.1580394364
2.3700,0.007871250719,-0.6340440357,-0.7568409789,0.158486393
2.3750,0.007550860695,-0.6336844664,-0.7570518817,0.1589321553
2.3800,0.007228460787,-0.6333237253,-0.7572633806,0.1593768511
2.3850,0.006904197443,-0.6329596384,-0.7574773634,0.1598201245
2.3900,0.006580178813,-0.6325925919,-0.7576932954,0.1602628593
2.3950,0.006256877864,-0.6322205736,-0.7579130695,0.1607040039
2.4000,0.00593403881,-0.6318440267,-0.7581361418,0.1611443566
2.4050,0.005614265224,-0.631461808,-0.7583633063,0.161584531
2.4100,0.005295945287,-0.6310739892,-0.7585943787,0.1620251269
2.4150,0.004978909739,-0.6306803082,-0.7588295953,0.1624660104
2.4200,0.004661812452,-0.6302797601,-0.7590697001,0.1629075867
2.4250,0.004343345935,-0.6298705093,-0.7593162246,0.1633497717
2.4300,0.004024281444,-0.6294546703,-0.7595675295,0.163791915
2.4350,0.003702865687,-0.6290315704,-0.7598240274,0.164234648
2.4400,0.003378360458,-0.6286013977,-0.7600858306,0.1646766514
2.4450,0.003050973446,-0.6281634963,-0.7603532584,0.1651188541
2.4500,0.002719853588,-0.6277179928,-0.760626055,0.1655618568
2.4550,0.002384557506,-0.6272651394,-0.7609039569,0.1660058044
2.4600,0.002046019821,-0.6268058264,-0.761186272,0.1664503802
2.4650,0.001703566548,-0.6263398207,-0.7614729813,0.1668964517
2.4700,0.0013573855,-0.6258661529,-0.7617645921,0.1673452193
2.4750,0.001007299076,-0.6253863426,-0.7620606313,0.1677930334
2.4800,0.0006524909276,-0.6248992582,-0.7623615301,0.1682420545
2.4850,0.000290787845,-0.6244053373,-0.7626670375,0.1686916718
2.4900,-0.0000778204836,-0.6239063274,-0.7629762484,0.1691393894
2.4950,-0.000453850734,-0.6234013121,-0.7632898993,0.1695851636
2.5000,-0.0008372347595,-0.6228898005,-0.7636082602,0.1700294692
2.5050,-0.001228935705,-0.6223716167,-0.7639312545,0.1704731615
2.5100,-0.001628705381,-0.6218468127,-0.7642585655,0.1709173306
2.5150,-0.002036446047,-0.6213150006,-0.7645900588,0.1713638379
2.5200,-0.002451857529,-0.620777931,-0.7649242049,0.1718130074
2.5250,-0.002874237772,-0.620234958,-0.7652614715,0.1722649586
2.5300,-0.003303298057,-0.6196861893,-0.7656018725,0.1727191011
2.5350,-0.003739246377,-0.6191327073,-0.7659444759,0.1731755427
2.5400,-0.004181270804,-0.6185727636,-0.7662906473,0.1736343771
2.5450,-0.004628926745,-0.6180064668,-0.7666403858,0.1740950857
2.5500,-0.005084236148,-0.6174338206,-0.7669936259,0.1745577426
2.5550,-0.005548150111,-0.6168537084,-0.7673513784,0.1750216628
2.5600,-0.006022875358,-0.6162680215,-0.7677121926,0.1754862958
2.5650,-0.00650652042,-0.6156771088,-0.7680753778,0.175953337
2.5700,-0.007000059222,-0.6150818049,-0.7684405271,0.176421452
2.5750,-0.007502419487,-0.6144803779,-0.7688088665,0.1768912257
2.5800,-0.00801238969,-0.613873742,-0.7691792256,0.1773644535
2.5850,-0.008528183929,-0.613262048,-0.7695516578,0.177840312
2.5900,-0.00904894329,-0.6126458396,-0.7699254832,0.1783197751
2.5950,-0.009573835111,-0.6120251438,-0.7703006453,0.1788029106
2.6000,-0.01010257606,-0.6114009531,-0.7706761646,0.17929044
2.6050,-0.01063533215,-0.6107742164,-0.7710517461,0.1797802861
2.6100,-0.0111733947,-0.6101461033,-0.7714264179,0.1802724869
2.6150,-0.01171557876,-0.6095166047,-0.7718009933,0.180763604
2.6200,-0.01226083599,-0.6088849347,-0.7721755177,0.1812561119
2.6250,-0.01280766614,-0.6082507533,-0.7725502825,0.1817499539
2.6300,-0.01335325228,-0.6076123439,-0.7729264811,0.1822459466
2.6350,-0.01389676506,-0.6069722769,-0.7733021691,0.182743783
2.6400,-0.01443802696,-0.6063296229,-0.7736780479,0.1832435809
2.6450,-0.01497843727,-0.6056850523,-0.7740533963,0.1837460302
2.6500,-0.01551739122,-0.6050388647,-0.7744280903,0.1842506872
2.6550,-0.01605439631,-0.6043912122,-0.7748020793,0.1847572922
2.6600,-0.01659050874,-0.6037422149,-0.7751750716,0.1852665686
2.6650,-0.01712553418,-0.6030915248,-0.775546905,0.1857803193
2.6700,-0.01765974465,-0.6024411227,-0.7759163087,0.1862973669
2.6750,-0.01819422382,-0.6017897483,-0.7762841564,0.1868180332
2.6800,-0.01872902124,-0.6011379048,-0.7766507541,0.187339396
2.6850,-0.0192658823,-0.6004860064,-0.7770153853,0.1878629099
2.6900,-0.01980516082,-0.599834378,-0.777378441,0.1883858649
2.6950,-0.02034820119,-0.5991834958,-0.7777392667,0.1889092961
2.7000,-0.02089375716,-0.5985342526,-0.7780975596,0.1894317479
2.7050,-0.02144417363,-0.5978853196,-0.7784540097,0.1899543285
2.7100,-0.02199856329,-0.5972362909,-0.7788091578,0.1904761711
2.7150,-0.02255798064,-0.5965870507,-0.7791629911,0.1909975436
2.7200,-0.02312116778,-0.59593841,-0.7795151703,0.1915174203
2.7250,-0.02368882141,-0.5952920832,-0.7798645335,0.1920351135
2.7300,-0.02426048473,-0.5946464941,-0.7802127535,0.1925487865
2.7350,-0.02483599281,-0.594002677,-0.7805590999,0.193058242
2.7400,-0.02541462219,-0.5933608779,-0.7809033217,0.1935638596
2.7450,-0.02599593215,-0.5927202456,-0.7812459305,0.1940662723
2.7500,-0.02657799237,-0.5920805605,-0.7815874961,0.1945641441
2.7550,-0.02716027791,-0.5914414821,-0.7819283025,0.1950574849
2.7600,-0.02774335138,-0.5908013384,-0.7822693485,0.1955473121
2.7650,-0.02832524761,-0.5901616079,-0.7826096291,0.19603348
2.7700,-0.02890621219,-0.5895226529,-0.7829489182,0.1965158112
2.7750,-0.02948756476,-0.5888842093,-0.7832869877,0.1969958539
2.7800,-0.03007030675,-0.5882465769,-0.7836242443,0.1974709729
2.7850,-0.03065403553,-0.5876105131,-0.7839596387,0.1979431734
2.7900,-0.03124037076,-0.586973413,-0.7842946401,0.1984141356
2.7950,-0.03182775106,-0.5863364226,-0.7846282707,0.198884566
2.8000,-0.03241714962,-0.5856996648,-0.7849606038,0.1993536594
2.8050,-0.03300737745,-0.5850634669,-0.785291727,0.19982031
2.8100,-0.03359943223,-0.5844281421,-0.7856212515,0.2002849821
2.8150,-0.03419300286,-0.5837935767,-0.7859496566,0.2007461972
2.8200,-0.03478699643,-0.5831589874,-0.7862774973,0.2012042681
2.8250,-0.03538109018,-0.5825243303,-0.7866044251,0.2016607587
2.8300,-0.0359771182,-0.5818893977,-0.7869312643,0.2021127434
2.8350,-0.03657427155,-0.5812552855,-0.7872568942,0.2025615912
2.8400,-0.03717080811,-0.5806227211,-0.7875809708,0.2030068996
2.8450,-0.03776905964,-0.5799924329,-0.7879029866,0.2034481743
2.8500,-0.03836791214,-0.5793639108,-0.7882233411,0.2038855726
2.8550,-0.03896816538,-0.5787374099,-0.7885416433,0.2043197721
2.8600,-0.03956882957,-0.5781140097,-0.7888567979,0.2047521718
2.8650,-0.04016881351,-0.5774915708,-0.7891710164,0.2051805519
2.8700,-0.0407666747,-0.5768713812,-0.7894832194,0.2056057736
2.8750,-0.04136249335,-0.5762533474,-0.7897937399,0.2060268727
2.8800,-0.04195590081,-0.5756370761,-0.7901027309,0.206444505
2.8850,-0.04254615113,-0.575023703,-0.7904090719,0.2068600133
2.8900,-0.0431340382,-0.5744131518,-0.7907133929,0.2072711171
2.8950,-0.04371989844,-0.5738060281,-0.7910149846,0.207678855
2.9000,-0.04430427983,-0.573201808,-0.7913144052,0.2080825084
2.9050,-0.04488759897,-0.5725999137,-0.7916118484,0.2084829102
2.9100,-0.04546946745,-0.5719988098,-0.7919081302,0.2088813119
2.9150,-0.04605130876,-0.5713999198,-0.7922016456,0.2092796248
2.9200,-0.04663558177,-0.5708048464,-0.7924912975,0.2096771164
2.9250,-0.04722138846,-0.5702138564,-0.7927772854,0.2100725452
2.9300,-0.04781242014,-0.5696286694,-0.7930585324,0.2104645235
2.9350,-0.04840972211,-0.56904589,-0.7933369375,0.2108548731
2.9400,-0.04901273232,-0.5684664976,-0.7936118976,0.2112433412
2.9450,-0.0496200578,-0.5678896431,-0.7938844802,0.2116285312
2.9500,-0.0502294213,-0.5673155502,-0.794154359,0.2120116172
2.9550,-0.05084252233,-0.5667432303,-0.7944218817,0.2123935562
2.9600,-0.05145742631,-0.5661723791,-0.7946880579,0.2127718522
2.9650,-0.05207368663,-0.5656033952,-0.7949524318,0.2131472769
2.9700,-0.05269042717,-0.5650346896,-0.7952166593,0.2135181097
2.9750,-0.05330627431,-0.5644687955,-0.7954793671,0.2138831377
2.9800,-0.0539221284,-0.5639037694,-0.7957411179,0.2142452244
2.9850,-0.05453582576,-0.5633409541,-0.7960016612,0.2146023498
2.9900,-0.0551492563,-0.5627780926,-0.7962618547,0.2149568254
2.9950,-0.05576193273,-0.562216178,-0.796521167,0.2153081664
3.0000,-0.05637286522,-0.5616552679,-0.7967799545,0.2156551972
3.0050,-0.05698307878,-0.5610959721,-0.797037824,0.21599756
3.0100,-0.05759173355,-0.5605396013,-0.7972942059,0.2163342247
3.0150,-0.05819901804,-0.5599844676,-0.7975501487,0.2166657119
3.0200,-0.0588075655,-0.5594321476,-0.7978045055,0.2169915056
3.0250,-0.05941575897,-0.5588810832,-0.7980583133,0.217312289
3.0300,-0.06002409332,-0.5583331242,-0.7983099888,0.217629025
3.0350,-0.06063221241,-0.5577857787,-0.7985609956,0.2179428737
3.0400,-0.06124155716,-0.5572406477,-0.7988104097,0.2182527472
3.0450,-0.06185311691,-0.556696769,-0.7990591824,0.2185573665
3.0500,-0.06246873497,-0.5561554402,-0.7993063844,0.2188563167
3.0550,-0.06309012745,-0.5556159793,-0.7995522165,0.2191501138
3.0600,-0.06371590829,-0.555078988,-0.7997964397,0.2194384998
3.0650,-0.06434854254,-0.5545438175,-0.8000394519,0.2197209479
3.0700,-0.06498643845,-0.5540101236,-0.8002813968,0.2199982538
3.0750,-0.06562877249,-0.5534774406,-0.8005221931,0.2202721167
3.0800,-0.06627550106,-0.5529456228,-0.8007618208,0.2205429723
3.0850,-0.06692540949,-0.5524147454,-0.8010004601,0.2208103294
3.0900,-0.06757520738,-0.5518856098,-0.8012381645,0.2210729944
3.0950,-0.06822563827,-0.5513569774,-0.8014758337,0.2213305985
3.1000,-0.06887434626,-0.5508293002,-0.801712915,0.2215847655
3.1050,-0.06952194814,-0.550302892,-0.8019493302,0.2218348432
3.1100,-0.07016629548,-0.5497777683,-0.8021850653,0.2220815559
3.1150,-0.07080767124,-0.5492548832,-0.8024194955,0.2223247628
3.1200,-0.07144719853,-0.5487340863,-0.802652202,0.2225660419
3.1250,-0.07208595371,-0.5482161264,-0.8028833147,0.2228027761
3.1300,-0.07272233689,-0.5477007419,-0.8031124368,0.223037604
3.1350,-0.07335787616,-0.5471880643,-0.8033394666,0.2232701181
3.1400,-0.07399258435,-0.5466768136,-0.8035656538,0.2234989909
3.1450,-0.07462525109,-0.5461669665,-0.8037909662,0.2237248295
3.1500,-0.07525608694,-0.5456600386,-0.8040144539,0.2239473187
3.1550,-0.07588258235,-0.545155497,-0.8042367013,0.2241665589
3.1600,-0.07650522455,-0.5446530911,-0.804458205,0.2243812768
3.1650,-0.07712673658,-0.5441542612,-0.8046774396,0.2245925751
3.1700,-0.07774929115,-0.5436571726,-0.8048953942,0.2248006469
3.1750,-0.07837411791,-0.5431644571,-0.8051105891,0.225004021
3.1800,-0.07900054722,-0.5426759443,-0.8053230331,0.2252033422
3.1850,-0.07963181109,-0.5421904011,-0.8055332116,0.2253987327
3.1900,-0.08026781551,-0.5417073699,-0.8057410608,0.225591547
3.1950,-0.08090817318,-0.5412255031,-0.8059472468,0.2257827664
3.2000,-0.08155334474,-0.5407463837,-0.8061512105,0.2259704102
3.2050,-0.08220286506,-0.540269514,-0.8063529136,0.226155964
3.2100,-0.08285630547,-0.5397955226,-0.8065527244,0.2263367604
3.2150,-0.08351649329,-0.5393230748,-0.8067507375,0.2265145997
3.2200,-0.08418209511,-0.5388517831,-0.8069470962,0.2266903498
3.2250,-0.08485454121,-0.5383819385,-0.8071412805,0.2268646038
3.2300,-0.08553103551,-0.5379118666,-0.8073346308,0.2270375733
3.2350,-0.08621065104,-0.5374435894,-0.8075259753,0.227208959
3.2400,-0.08689354189,-0.5369763504,-0.8077154794,0.2273798931
3.2450,-0.08757916627,-0.5365105151,-0.8079032356,0.2275493766
3.2500,-0.08827065529,-0.5360445041,-0.8080896467,0.2277184753
3.2550,-0.08896368742,-0.5355796772,-0.8082747469,0.2278855091
3.2600,-0.08965973217,-0.5351163057,-0.8084579996,0.2280511669
3.2650,-0.0903582463,-0.5346541681,-0.8086396539,0.2282152889
3.2700,-0.09105928942,-0.534193124,-0.8088193518,0.2283794393
3.2750,-0.09176261211,-0.5337318901,-0.8089979921,0.2285435216
3.2800,-0.09246816192,-0.5332712875,-0.8091749243,0.2287079248
3.2850,-0.09317576335,-0.5328104401,-0.8093513286,0.2288705727
3.2900,-0.09388350503,-0.5323503599,-0.8095266231,0.2290319371
3.2950,-0.09459042259,-0.5318901824,-0.8097017804,0.2291909958
3.3000,-0.09529894131,-0.5314296905,-0.8098765742,0.2293480553
3.3050,-0.09600789625,-0.5309686455,-0.8100513954,0.2295027628
3.3100,-0.09671802179,-0.530508136,-0.8102252613,0.2296557595
3.3150,-0.09742847433,-0.5300485853,-0.8103982633,0.229806102
3.3200,-0.09813944015,-0.5295896021,-0.8105704041,0.229954612
3.3250,-0.09885127906,-0.5291317367,-0.8107409114,0.2301025955
3.3300,-0.09956531686,-0.5286741969,-0.8109103998,0.2302491364
3.3350,-0.1002808245,-0.5282192003,-0.8110774323,0.2303945126
3.3400,-0.100998163,-0.5277658652,-0.8112424903,0.2305389003
3.3450,-0.1017168221,-0.5273149514,-0.8114049751,0.2306828917
3.3500,-0.1024376204,-0.5268667574,-0.8115643952,0.2308271787
3.3550,-0.1031595349,-0.5264225368,-0.811719713,0.2309730086
3.3600,-0.103884342,-0.5259814778,-0.8118713316,0.2311200323
3.3650,-0.1046105289,-0.5255435532,-0.8120192157,0.2312691164
3.3700,-0.1053400436,-0.5251085305,-0.8121630447,0.2314210346
3.3750,-0.1060716807,-0.5246766886,-0.8123030172,0.2315749969
3.3800,-0.1068042294,-0.5242491253,-0.8124382303,0.2317322446
3.3850,-0.1075391695,-0.5238249214,-0.8125692031,0.2318923649
3.3900,-0.1082774451,-0.5234048316,-0.8126952548,0.2320555965
3.3950,-0.1090187459,-0.5229891318,-0.8128158908,0.2322231873
3.4000,-0.1097628777,-0.5225775905,-0.8129315321,0.2323942698
3.4050,-0.1105086489,-0.5221701669,-0.8130420111,0.232570083
3.4100,-0.1112563632,-0.5217672188,-0.8131474711,0.2327491811
3.4150,-0.1120049469,-0.5213672174,-0.8132486751,0.2329328423
3.4200,-0.1127540139,-0.5209707695,-0.8133459394,0.233118795
3.4250,-0.113501958,-0.5205780279,-0.8134388907,0.2333087943
3.4300,-0.1142476664,-0.5201892403,-0.8135273124,0.2335036121
3.4350,-0.1149896058,-0.5198039532,-0.8136123848,0.2337009373
3.4400,-0.1157293393,-0.5194226917,-0.8136934423,0.2339011955
3.4450,-0.1164665993,-0.5190454648,-0.813770635,0.2341040161
3.4500,-0.1172021852,-0.5186715218,-0.813844442,0.2343090363
3.4550,-0.1179373399,-0.5183013285,-0.8139143949,0.2345162565
3.4600,-0.1186718865,-0.517935201,-0.8139810201,0.2347232621
3.4650,-0.1194040754,-0.5175721161,-0.8140444171,0.2349328807
3.4700,-0.1201328713,-0.5172137425,-0.8141046345,0.2351418334
3.4750,-0.1208576637,-0.5168579387,-0.8141626589,0.2353517817
3.4800,-0.1215805112,-0.5165048415,-0.814218865,0.2355601152
3.4850,-0.1222988681,-0.516155577,-0.81427267,0.2357677375
3.4900,-0.1230128968,-0.5158099604,-0.8143243454,0.2359740929
3.4950,-0.1237249663,-0.5154676663,-0.8143743973,0.2361769648
3.5000,-0.1244333813,-0.5151277013,-0.8144229918,0.2363788809
3.5050,-0.1251378349,-0.5147896888,-0.81447065,0.2365790755
3.5100,-0.1258394446,-0.514453673,-0.8145172671,0.2367772671
3.5150,-0.1265349781,-0.5141199178,-0.8145636436,0.2369718971
3.5200,-0.1272252595,-0.5137875615,-0.8146104019,0.2371623243
3.5250,-0.1279117341,-0.5134560958,-0.8146578658,0.2373478202
3.5300,-0.1285935584,-0.5131249983,-0.8147058537,0.2375306398
3.5350,-0.1292696508,-0.512794158,-0.8147552892,0.237708493
3.5400,-0.1299399925,-0.512463746,-0.814805422,0.2378836516
3.5450,-0.1306043457,-0.5121321898,-0.8148573228,0.2380560197
3.5500,-0.1312609943,-0.5118010435,-0.8149103494,0.2382254512
3.5550,-0.1319120795,-0.5114698858,-0.8149643336,0.2383923113
3.5600,-0.1325563122,-0.511137444,-0.815020533,0.2385557969
3.5650,-0.1331934635,-0.5108046332,-0.8150783187,0.23871628
3.5700,-0.1338238158,-0.5104707118,-0.8151382091,0.2388734788
3.5750,-0.1344477639,-0.5101353014,-0.8152001323,0.2390282775
3.5800,-0.135063499,-0.5097973537,-0.815264897,0.2391812222
3.5850,-0.1356710221,-0.5094583526,-0.8153311215,0.2393339151
3.5900,-0.1362706945,-0.5091178747,-0.8153990831,0.2394861638
3.5950,-0.1368627199,-0.5087773795,-0.8154676131,0.2396387825
3.6000,-0.1374460253,-0.5084352754,-0.8155377399,0.2397923179
3.6050,-0.1380209197,-0.5080925808,-0.8156087632,0.23994687
3.6100,-0.1385861612,-0.5077493384,-0.815680748,0.2401029002
3.6150,-0.1391438473,-0.5074056087,-0.8157530533,0.2402613037
3.6200,-0.1396917845,-0.5070614713,-0.8158255617,0.2404236315
3.6250,-0.1402323819,-0.5067189458,-0.8158968792,0.2405890095
3.6300,-0.1407651829,-0.5063791992,-0.815965988,0.2407587513
3.6350,-0.1412930058,-0.5060418867,-0.81603251,0.2409332646
3.6400,-0.1418154012,-0.505707923,-0.8160959398,0.2411126409
3.6450,-0.1423322068,-0.5053775736,-0.8161554687,0.2412991958
3.6500,-0.1428425913,-0.5050510988,-0.816210954,0.2414933957
3.6550,-0.1433474084,-0.5047273668,-0.8162629788,0.2416951699
3.6600,-0.1438468355,-0.504409195,-0.8163096198,0.2419050567
3.6650,-0.1443425967,-0.5040966416,-0.8163503897,0.2421235883
3.6700,-0.1448324157,-0.5037910333,-0.8163851913,0.2423497176
3.6750,-0.1453197821,-0.5034924036,-0.8164130451,0.2425846248
3.6800,-0.1458056064,-0.5031999109,-0.8164341718,0.2428287833
3.6850,-0.1462881358,-0.5029149947,-0.8164479541,0.2430823475
3.6900,-0.1467699732,-0.5026367522,-0.8164541703,0.2433463747
3.6950,-0.1472510777,-0.5023654555,-0.8164528301,0.2436202895
3.7000,-0.1477323092,-0.5020990298,-0.8164447079,0.2439052439
3.7050,-0.1482122773,-0.5018380196,-0.8164299349,0.2442005001
3.7100,-0.1486918926,-0.501581645,-0.8164090424,0.2445053169
3.7150,-0.1491718359,-0.5013297032,-0.8163820287,0.244819679
3.7200,-0.1496525911,-0.5010824499,-0.8163489739,0.2451424753
3.7250,-0.1501352679,-0.5008390766,-0.816310407,0.2454728908
3.7300,-0.1506202731,-0.5005998128,-0.8162665186,0.245809543
3.7350,-0.1511082173,-0.500363153,-0.8162182885,0.2461518378
3.7400,-0.1515995373,-0.5001292699,-0.8161650734,0.2465012507
3.7450,-0.1520928546,-0.4998971045,-0.8161085423,0.2468552117
3.7500,-0.152588723,-0.4996675608,-0.8160482093,0.2472131274
3.7550,-0.1530862738,-0.4994393619,-0.8159856233,0.2475729773
3.7600,-0.1535861745,-0.499212791,-0.8159199825,0.2479364
3.7650,-0.1540898209,-0.4989880145,-0.8158520223,0.2482997507
3.7700,-0.1545971362,-0.4987634795,-0.8157820937,0.2486650209
3.7750,-0.1551080068,-0.4985402869,-0.8157103615,0.2490295055
3.7800,-0.1556209007,-0.4983173531,-0.8156375162,0.2493940517
3.7850,-0.1561378884,-0.4980945965,-0.8155641804,0.2497554811
3.7900,-0.1566590859,-0.4978713635,-0.8154911414,0.2501124436
3.7950,-0.157182635,-0.4976478099,-0.8154180049,0.2504670714
3.8000,-0.1577080185,-0.497422513,-0.8153465352,0.25081677
3.8050,-0.1582371639,-0.4971962757,-0.8152765058,0.2511594761
3.8100,-0.1587685815,-0.4969683236,-0.815207528,0.2514989249
3.8150,-0.1593032455,-0.496737537,-0.8151406552,0.251833293
3.8200,-0.1598397916,-0.4965025285,-0.8150769867,0.252162618
3.8250,-0.1603747202,-0.4962626892,-0.8150172546,0.2524879545
3.8300,-0.1609102436,-0.4960186122,-0.8149614407,0.2528068038
3.8350,-0.1614453295,-0.4957695627,-0.8149093816,0.2531218008
3.8400,-0.1619790307,-0.4955133198,-0.8148634211,0.2534303621
3.8450,-0.1625099799,-0.4952512408,-0.8148223204,0.2537347062
3.8500,-0.1630386624,-0.4949819653,-0.814787147,0.2540337648
3.8550,-0.1635647508,-0.4947057669,-0.8147577822,0.2543276094
3.8600,-0.164089287,-0.4944222904,-0.8147333982,0.2546189202
3.8650,-0.1646120937,-0.4941320331,-0.8147136482,0.2549079518
3.8700,-0.1651338346,-0.4938346837,-0.8146985474,0.2551948252
3.8750,-0.1656542909,-0.4935322923,-0.8146864521,0.2554809526
3.8800,-0.1661731911,-0.4932258884,-0.8146773523,0.2557645505
3.8850,-0.166690448,-0.4929144227,-0.8146711902,0.2560478829
3.8900,-0.167206086,-0.4925997678,-0.814667034,0.2563302895
3.8950,-0.1677210202,-0.4922806946,-0.8146650165,0.2566131097
3.9000,-0.1682341353,-0.4919617972,-0.8146625038,0.2568966147
3.9050,-0.1687472312,-0.4916426144,-0.8146590353,0.2571819741
3.9100,-0.1692622124,-0.4913242837,-0.8146531447,0.2574703975
3.9150,-0.1697778046,-0.491007755,-0.8146441639,0.257763007
3.9200,-0.1702933932,-0.4906951764,-0.8146309365,0.2580597633
3.9250,-0.1708097278,-0.4903858279,-0.8146133646,0.2583618448
3.9300,-0.1713261968,-0.4900816464,-0.8145907232,0.2586682584
3.9350,-0.1718416368,-0.4897829757,-0.8145628908,0.2589795078
3.9400,-0.172355204,-0.4894912035,-0.8145285351,0.2592977264
3.9450,-0.1728693635,-0.4892072513,-0.8144868687,0.2596220122
3.9500,-0.1733820581,-0.4889303101,-0.8144385323,0.2599532473
3.9550,-0.1738931845,-0.4886631087,-0.8143819856,0.2602911987
3.9600,-0.1744030169,-0.4884037673,-0.8143176797,0.2606378029
3.9650,-0.1749085714,-0.4881544398,-0.8142449976,0.2609929472
3.9700,-0.1754112948,-0.4879140328,-0.8141637098,0.2613584281
3.9750,-0.1759100489,-0.4876827098,-0.8140744806,0.2617326295
3.9800,-0.1764029139,-0.4874612305,-0.8139771423,0.2621159524
3.9850,-0.1768916395,-0.4872499993,-0.8138711343,0.2625082147
3.9900,-0.177374251,-0.4870491006,-0.8137570974,0.2629086061
3.9950,-0.1778503404,-0.4868594387,-0.8136347526,0.2633166016
4.0000,-0.1783189765,-0.4866832153,-0.8135029269,0.2637323993
4.0050,-0.178782939,-0.4865196971,-0.8133619532,0.2641544589
4.0100,-0.1792418151,-0.4863696453,-0.8132106911,0.2645851692
4.0150,-0.1796967658,-0.4862335154,-0.8130495579,0.2650216165
4.0200,-0.1801452798,-0.4861118351,-0.8128783866,0.265465046
4.0250,-0.1805873342,-0.4860042444,-0.8126978183,0.2659141691
4.0300,-0.1810254379,-0.4859095788,-0.8125086471,0.2663669844
4.0350,-0.1814593489,-0.4858294067,-0.812310224,0.2668227732
4.0400,-0.1818888998,-0.4857638841,-0.8121033585,0.2672789033
4.0450,-0.1823143817,-0.4857134605,-0.8118875372,0.2677359288
4.0500,-0.1827346538,-0.4856767511,-0.8116644302,0.2681920814
4.0550,-0.1831521308,-0.4856535731,-0.8114330368,0.2686490847
4.0600,-0.1835641241,-0.4856428896,-0.8111950735,0.2691054606
4.0650,-0.1839710249,-0.4856432686,-0.810951754,0.2695598827
4.0700,-0.184372719,-0.4856545938,-0.8107037629,0.2700106012
4.0750,-0.1847696172,-0.4856752327,-0.8104518096,0.270458169
4.0800,-0.1851619204,-0.4857044139,-0.8101967421,0.2709013191
4.0850,-0.1855485096,-0.4857396118,-0.8099406461,0.271339142
4.0900,-0.1859291735,-0.4857783121,-0.8096849865,0.2717719568
4.0950,-0.1863028858,-0.4858203228,-0.8094313664,0.2721960907
4.1000,-0.1866724239,-0.4858638899,-0.8091798274,0.2726127171
4.1050,-0.1870366329,-0.4859056791,-0.8089323011,0.2730228949
4.1100,-0.1873954749,-0.485946184,-0.8086904603,0.2734208873
4.1150,-0.187748413,-0.4859827715,-0.8084548432,0.2738102367
4.1200,-0.1880953059,-0.4860154987,-0.8082261884,0.2741888387
4.1250,-0.1884377132,-0.4860434147,-0.8080052477,0.2745551803
4.1300,-0.1887758149,-0.4860643931,-0.8077936013,0.2749083395
4.1350,-0.1891095678,-0.4860779979,-0.8075919496,0.2752471512
4.1400,-0.1894393644,-0.4860854301,-0.807399387,0.275571972
4.1450,-0.189767945,-0.4860848726,-0.8072172008,0.2758804349
4.1500,-0.1900943775,-0.4860775015,-0.8070448735,0.2761727038
4.1550,-0.1904191075,-0.4860628022,-0.8068827188,0.2764485378
4.1600,-0.1907397433,-0.4860410592,-0.8067318305,0.276705968
4.1650,-0.1910566214,-0.486012096,-0.8065922399,0.2769450641
4.1700,-0.1913690169,-0.4859772749,-0.8064635267,0.2771652355
4.1750,-0.1916774853,-0.4859347679,-0.8063471716,0.2773650696
4.1800,-0.191980654,-0.4858855928,-0.8062428259,0.277544816
4.1850,-0.1922791215,-0.485830065,-0.8061503861,0.2777038752
4.1900,-0.1925711717,-0.4857681534,-0.8060701988,0.2778425447
4.1950,-0.1928543726,-0.4857011104,-0.8060025563,0.2779595323
4.2000,-0.1931283335,-0.4856277596,-0.8059480001,0.2780556545
4.2050,-0.1933912893,-0.4855502979,-0.8059058182,0.2781304185
4.2100,-0.1936408069,-0.4854689219,-0.8058769548,0.2781824894
4.2150,-0.1938770724,-0.4853849784,-0.8058600798,0.2782132912
4.2200,-0.1940992707,-0.4852991164,-0.8058552866,0.2782220297
4.2250,-0.1943061701,-0.4852121268,-0.8058624159,0.2782086823
4.2300,-0.1944969365,-0.4851236365,-0.8058807764,0.2781765146
4.2350,-0.1946694648,-0.4850353552,-0.8059097956,0.2781257
4.2400,-0.1948246948,-0.4849477549,-0.8059493056,0.2780552646
4.2450,-0.1949595728,-0.4848631014,-0.8059979108,0.2779674544
4.2500,-0.1950762714,-0.4847827927,-0.8060541693,0.2778624992
4.2550,-0.1951752792,-0.4847086085,-0.8061163316,0.27774203
4.2600,-0.1952563445,-0.4846409479,-0.8061847092,0.277604622
4.2650,-0.1953217898,-0.4845797804,-0.8062577023,0.2774533336
4.2700,-0.1953715708,-0.4845267537,-0.8063344377,0.2772878446
4.2750,-0.1954070554,-0.4844832676,-0.8064134632,0.2771089541
4.2800,-0.1954288457,-0.4844487711,-0.8064946605,0.2769175273
4.2850,-0.1954368621,-0.4844231006,-0.8065777454,0.2767147145
4.2900,-0.1954328538,-0.4844085359,-0.8066606267,0.2765013623
4.2950,-0.1954172512,-0.4844038164,-0.8067431447,0.2762798203
4.3000,-0.195392029,-0.484410397,-0.8068239779,0.2760499791
4.3050,-0.1953571311,-0.4844294853,-0.8069017847,0.2758136599
4.3100,-0.1953128871,-0.4844605819,-0.8069774688,0.2755688401
4.3150,-0.1952576571,-0.4845040794,-0.8070501377,0.2753185786
4.3200,-0.1951942188,-0.4845597934,-0.8071191411,0.2750631122
4.3250,-0.1951207935,-0.4846281739,-0.807184693,0.274802257
4.3300,-0.1950378155,-0.4847091529,-0.807246743,0.2745359422
4.3350,-0.1949453261,-0.4848027085,-0.8073048191,0.2742655333
4.3400,-0.1948453604,-0.484907813,-0.8073593381,0.2739901415
4.3450,-0.1947397278,-0.4850252826,-0.8074096481,0.2737089216
4.3500,-0.1946284822,-0.485155053,-0.8074553896,0.2734229731
4.3550,-0.19451215,-0.4852977137,-0.8074969124,0.2731298027
4.3600,-0.1943926758,-0.4854524688,-0.807533911,0.2728302965
4.3650,-0.19427168,-0.4856187955,-0.8075661536,0.2725248749
4.3700,-0.1941483081,-0.4857967856,-0.8075934363,0.2722145462
4.3750,-0.1940233351,-0.4859853287,-0.8076167185,0.2718978515
4.3800,-0.1938961164,-0.4861843426,-0.8076358267,0.2715758686
4.3850,-0.1937659124,-0.4863931911,-0.8076509303,0.2712497182
4.3900,-0.1936337557,-0.4866123087,-0.8076615836,0.2709191689
4.3950,-0.1935005288,-0.4868394871,-0.8076686349,0.2705849874
4.4000,-0.1933654618,-0.4870737319,-0.8076737674,0.2702444512
4.4050,-0.1932291051,-0.487314214,-0.8076776795,0.269896528
4.4100,-0.1930912397,-0.4875586476,-0.8076810341,0.269543476
4.4150,-0.1929522921,-0.4878067049,-0.8076858089,0.2691796161
4.4200,-0.1928136902,-0.4880575651,-0.8076920035,0.2688053598
4.4250,-0.1926738404,-0.4883109193,-0.8077002507,0.2684204581
4.4300,-0.192532202,-0.4885669143,-0.8077105811,0.2680248843
4.4350,-0.1923885417,-0.4888237786,-0.8077236992,0.2676198577
4.4400,-0.1922420322,-0.4890813786,-0.8077406035,0.2672031504
4.4450,-0.1920894096,-0.4893391503,-0.8077619127,0.2667762115
4.4500,-0.1919302851,-0.4895958309,-0.8077886818,0.2663383817
4.4550,-0.1917623274,-0.4898504816,-0.807821552,0.2658910595
4.4600,-0.1915860365,-0.4901044442,-0.8078594461,0.2654346243
4.4650,-0.1914013033,-0.490356662,-0.8079030758,0.264968876
4.4700,-0.1912063197,-0.4906062514,-0.8079530605,0.264494804
4.4750,-0.1909999234,-0.4908533816,-0.8080091958,0.2640134968
4.4800,-0.1907824133,-0.4910988643,-0.8080707333,0.2635254566
4.4850,-0.1905525301,-0.4913429822,-0.8081380712,0.2630297798
4.4900,-0.1903117503,-0.4915854409,-0.8082106563,0.2625275739
4.4950,-0.1900596788,-0.491826598,-0.8082879171,0.2620201501
4.5000,-0.189796346,-0.4920669117,-0.8083689946,0.261509216
4.5050,-0.1895209562,-0.4923071389,-0.8084533172,0.260995636
4.5100,-0.1892338472,-0.4925465144,-0.8085403305,0.2604822762
4.5150,-0.1889336391,-0.4927865498,-0.8086294889,0.2599689329
4.5200,-0.1886235343,-0.4930270448,-0.8087194866,0.2594576796
4.5250,-0.1883014077,-0.4932688431,-0.8088104783,0.2589479457
4.5300,-0.1879682728,-0.4935131595,-0.8089013994,0.2584399656
4.5350,-0.1876261307,-0.4937595128,-0.8089912061,0.2579364398
4.5400,-0.1872749171,-0.494009111,-0.8090783791,0.2574398573
4.5450,-0.1869164857,-0.4942614495,-0.8091630492,0.2569494244
4.5500,-0.1865517861,-0.494518706,-0.8092435623,0.2564654704
4.5550,-0.1861813399,-0.4947793052,-0.8093204656,0.2559889292
4.5600,-0.1858049978,-0.4950443591,-0.8093923672,0.2555221737
4.5650,-0.1854247098,-0.4953135791,-0.8094597896,0.2550627066
4.5700,-0.1850411084,-0.4955891448,-0.8095208037,0.2546119717
4.5750,-0.1846552858,-0.495870799,-0.8095753785,0.254169791
4.5800,-0.1842694018,-0.4961596836,-0.8096223381,0.2537361336
4.5850,-0.1838838185,-0.4964559052,-0.8096615363,0.2533110187
4.5900,-0.1834986879,-0.4967600711,-0.809692367,0.2528951049
4.5950,-0.1831153265,-0.4970733701,-0.8097142207,0.2524870742
4.6000,-0.1827343824,-0.4973939715,-0.8097285117,0.252085541
4.6050,-0.1823542084,-0.4977200646,-0.8097363295,0.2516917889
4.6100,-0.1819732748,-0.4980516717,-0.8097382447,0.251305063
4.6150,-0.1815904312,-0.4983882878,-0.8097353042,0.2509238271
4.6200,-0.1812046716,-0.4987299665,-0.8097284217,0.2505457455
4.6250,-0.1808175831,-0.4990766245,-0.809717517,0.2501700767
4.6300,-0.1804280785,-0.499428728,-0.809702341,0.2497974642
4.6350,-0.1800351335,-0.4997869676,-0.809683601,0.2494249466
4.6400,-0.1796373941,-0.5001511876,-0.8096617515,0.2490522923
4.6450,-0.1792348891,-0.5005204862,-0.8096372652,0.2486797062
4.6500,-0.1788287304,-0.5008951821,-0.8096098411,0.2483066791
4.6550,-0.1784190454,-0.5012746484,-0.8095802535,0.2479318138
4.6600,-0.1780075827,-0.5016601094,-0.8095481453,0.2475524905
4.6650,-0.1775928931,-0.5020527297,-0.8095126561,0.247170145
4.6700,-0.1771767437,-0.5024525883,-0.8094744732,0.2467810268
4.6750,-0.176758973,-0.502857845,-0.8094339612,0.2463877344
4.6800,-0.1763418403,-0.5032693091,-0.8093910723,0.245987093
4.6850,-0.1759269589,-0.5036873184,-0.8093448545,0.2455803267
4.6900,-0.1755137828,-0.5041105584,-0.80929655,0.2451663743
4.6950,-0.1751041086,-0.5045386751,-0.8092458469,0.244745655
4.7000,-0.1746950774,-0.5049715538,-0.8091928081,0.2443201979
4.7050,-0.1742866038,-0.5054091385,-0.8091375562,0.2438897244
4.7100,-0.1738755921,-0.5058496068,-0.8090824337,0.2434523962
4.7150,-0.173460491,-0.5062933558,-0.8090265887,0.2430112646
4.7200,-0.1730390019,-0.5067393356,-0.808971581,0.2425648999
4.7250,-0.172612462,-0.5071867365,-0.8089174471,0.2421138492
4.7300,-0.1721781659,-0.507634307,-0.8088653018,0.2416588776
4.7350,-0.1717359421,-0.5080827981,-0.8088151349,0.241198495
4.7400,-0.1712848291,-0.5085311141,-0.8087672946,0.2407344521
4.7450,-0.1708259455,-0.5089784627,-0.8087221092,0.2402664582
4.7500,-0.1703558025,-0.5094259147,-0.8086793054,0.2397955774
4.7550,-0.1698761442,-0.5098752445,-0.8086373818,0.239321782
4.7600,-0.1693884229,-0.5103242472,-0.8085973862,0.2388451211
4.7650,-0.168891183,-0.5107732849,-0.8085594029,0.2383655
4.7700,-0.1683852562,-0.5112234441,-0.8085225629,0.2378828726
4.7750,-0.1678708124,-0.5116764997,-0.8084859838,0.2373962173
4.7800,-0.1673471492,-0.5121313897,-0.80844959,0.2369084881
4.7850,-0.1668168392,-0.5125888157,-0.8084114807,0.2364227698
4.7900,-0.1662804528,-0.5130499358,-0.8083713069,0.2359372894
4.7950,-0.1657384523,-0.5135155251,-0.8083275137,0.2354553066
4.8000,-0.1651923107,-0.5139848791,-0.808280408,0.2349762255
4.8050,-0.1646427097,-0.514458629,-0.8082288646,0.2345020249
4.8100,-0.1640911629,-0.5149377164,-0.8081717048,0.2340336174
4.8150,-0.1635376373,-0.5154218698,-0.80810888,0.2335717778
4.8200,-0.1629811572,-0.5159107636,-0.8080405708,0.2331172714
4.8250,-0.1624215338,-0.5164036908,-0.8079664749,0.2326728366
4.8300,-0.1618591148,-0.5169011272,-0.8078861646,0.2322386633
4.8350,-0.1612937623,-0.5174022835,-0.8078002894,0.2318143474
4.8400,-0.1607239549,-0.5179062084,-0.8077097243,0.2314000236
4.8450,-0.1601494731,-0.5184114384,-0.8076154458,0.2309957111
4.8500,-0.1595686877,-0.5189181256,-0.8075177754,0.2306010736
4.8550,-0.1589810448,-0.5194251377,-0.8074177872,0.2302152704
4.8600,-0.1583870264,-0.519932832,-0.807315402,0.2298374247
4.8650,-0.1577856618,-0.5204417663,-0.8072105776,0.2294670701
4.8700,-0.1571788308,-0.5209506604,-0.8071045647,0.2291013884
4.8750,-0.1565639214,-0.521459655,-0.8069972244,0.2287423148
4.8800,-0.1559426087,-0.5219698343,-0.8068877842,0.2283889194
4.8850,-0.1553159804,-0.5224816859,-0.8067758391,0.2280407411
4.8900,-0.1546833198,-0.5229931694,-0.8066628961,0.2276975788
4.8950,-0.1540463499,-0.5235039146,-0.8065490421,0.2273587829
4.9000,-0.153403978,-0.5240141984,-0.8064338356,0.2270260076
4.9050,-0.1527569583,-0.5245244971,-0.8063177941,0.2266957843
4.9100,-0.1521054456,-0.5250351618,-0.8062000329,0.2263703142
4.9150,-0.1514514009,-0.5255461813,-0.8060799149,0.2260505591
4.9200,-0.1507948582,-0.5260568294,-0.8059581567,0.2257356256
4.9250,-0.1501354786,-0.5265681682,-0.8058336461,0.2254272323
4.9300,-0.1494744054,-0.5270796254,-0.8057070559,0.2251235456
4.9350,-0.148812225,-0.527590629,-0.8055779312,0.2248271484
4.9400,-0.1481494289,-0.5281015139,-0.8054464029,0.2245364778
4.9450,-0.147485995,-0.5286120355,-0.8053129541,0.2242504028
4.9500,-0.1468223213,-0.5291222599,-0.8051779194,0.223967315
4.9550,-0.1461572877,-0.529632442,-0.8050411572,0.2236878603
4.9600,-0.1454912265,-0.5301423931,-0.8049026965,0.2234121643
4.9650,-0.1448229143,-0.5306500775,-0.8047649026,0.2231373351
4.9700,-0.14415133,-0.5311557198,-0.8046273968,0.2228648641
4.9750,-0.1434764993,-0.5316600416,-0.8044904746,0.2225919373
4.9800,-0.1427968762,-0.5321624099,-0.8043546892,0.2223190402
4.9850,-0.1421137053,-0.5326616483,-0.8042214529,0.222043054
4.9900,-0.1414267524,-0.5331599048,-0.804089198,0.2217646304
4.9950,-0.1407352644,-0.5336567806,-0.8039589304,0.2214815206
5.0000,-0.1400427364,-0.5341533771,-0.8038292796,0.221193786
5.0050,-0.1393493118,-0.5346510981,-0.803699539,0.2209004835
5.0100,-0.1386578263,-0.535150432,-0.8035686671,0.2206024018
5.0150,-0.1379690225,-0.5356510847,-0.8034369849,0.2202986054
5.0200,-0.1372826143,-0.5361540672,-0.8033034351,0.2199906614
5.0250,-0.1365984045,-0.5366592135,-0.803168474,0.2196774155
5.0300,-0.1359161678,-0.537166565,-0.8030320604,0.2193590361
5.0350,-0.1352354577,-0.5376769755,-0.802893914,0.2190347094
5.0400,-0.134557662,-0.5381899739,-0.8027540579,0.2187046185
5.0450,-0.1338814393,-0.5387060344,-0.8026125748,0.2183680918
5.0500,-0.1332084241,-0.5392232435,-0.8024707055,0.218024256
5.0550,-0.1325357325,-0.539740192,-0.8023302564,0.2176716896
5.0600,-0.1318608914,-0.5402572211,-0.8021914698,0.2173101151
5.0650,-0.1311849847,-0.540774973,-0.8020534163,0.2169406504
5.0700,-0.1305090555,-0.5412926465,-0.8019165216,0.2165630386
5.0750,-0.1298334409,-0.5418087854,-0.8017812219,0.2161790689
5.0800,-0.1291577269,-0.5423253565,-0.8016466873,0.215787113
5.0850,-0.1284804472,-0.5428430827,-0.801512817,0.2153865512
5.0900,-0.1278000916,-0.5433615842,-0.8013794129,0.2149799107
5.0950,-0.1271174579,-0.5438815371,-0.8012458756,0.2145671744
5.1000,-0.1264302765,-0.5444036716,-0.8011116988,0.2141496523
5.1050,-0.1257388124,-0.5449275571,-0.800977112,0.213727337
5.1100,-0.1250421003,-0.5454532529,-0.8008421722,0.2133003455
5.1150,-0.1243396658,-0.545979706,-0.8007078279,0.2128679931
5.1200,-0.1236312108,-0.5465076614,-0.8005736304,0.2124301344
5.1250,-0.1229186905,-0.5470380631,-0.8004386667,0.2119865419
5.1300,-0.1222027892,-0.5475705307,-0.8003029795,0.2115375456
5.1350,-0.1214851652,-0.5481056022,-0.8001664302,0.2110812341
5.1400,-0.1207655691,-0.5486438832,-0.8000283382,0.2106186714
5.1450,-0.1200449662,-0.5491850481,-0.79988851,0.2101508043
5.1500,-0.119324172,-0.5497284528,-0.7997465695,0.20968022
5.1550,-0.1186027884,-0.5502745798,-0.7996021965,0.209207057
5.1600,-0.1178806908,-0.5508222027,-0.7994561303,0.2087317405
5.1650,-0.1171585931,-0.5513715096,-0.7993075456,0.2082565005
5.1700,-0.1164328605,-0.5519210772,-0.7991579702,0.2077812606
5.1750,-0.1157042158,-0.5524721755,-0.799006542,0.2073055127
5.1800,-0.1149698796,-0.5530231631,-0.7988549647,0.20682856
5.1850,-0.1142287392,-0.5535728756,-0.7987041336,0.2063506084
5.1900,-0.1134810239,-0.55412207,-0.7985537375,0.2058706322
5.1950,-0.1127256459,-0.5546697678,-0.7984043793,0.2053894462
5.2000,-0.1119616112,-0.5552159734,-0.7982566258,0.2049052949
5.2050,-0.1111894063,-0.5557613286,-0.7981094553,0.2044200549
5.2100,-0.1104094715,-0.5563042579,-0.7979642308,0.2039323606
5.2150,-0.1096212956,-0.5568455316,-0.7978205193,0.2034419931
5.2200,-0.1088239747,-0.5573853733,-0.7976782222,0.2029491118
5.2250,-0.1080188402,-0.557923911,-0.7975370437,0.2024537073
5.2300,-0.1072028686,-0.5584608862,-0.7973974362,0.2019562139
5.2350,-0.1063757544,-0.5589970562,-0.7972587106,0.2014572868
5.2400,-0.1055351976,-0.5595338565,-0.7971194721,0.20095953
5.2450,-0.1046815387,-0.5600717388,-0.7969791296,0.2004636873
5.2500,-0.1038144263,-0.5606109554,-0.7968373488,0.1999704007
5.2550,-0.102935739,-0.5611517444,-0.7966936474,0.1994797873
5.2600,-0.1020463076,-0.5616944526,-0.7965476751,0.1989916942
5.2650,-0.1011475054,-0.5622395477,-0.7963989247,0.1985059844
5.2700,-0.1002416498,-0.5627861853,-0.7962474357,0.1980235907
5.2750,-0.09932963759,-0.563335327,-0.7960924603,0.1975442408
5.2800,-0.09841349213,-0.5638866557,-0.7959341776,0.1970670168
5.2850,-0.09749210524,-0.5644410658,-0.7957719955,0.1965922271
5.2900,-0.09656737652,-0.5649971898,-0.7956068674,0.1961189179
5.2950,-0.09563913607,-0.5655543315,-0.7954393158,0.195647
5.3000,-0.09470842516,-0.5661128803,-0.7952691464,0.1951755766
5.3050,-0.09377667884,-0.5666726653,-0.7950962826,0.1947047155
5.3100,-0.09284457066,-0.5672355195,-0.794918994,0.1942357953
5.3150,-0.09191379768,-0.5678018804,-0.7947370033,0.1937678355
5.3200,-0.09098514081,-0.5683720469,-0.7945500076,0.193300817
5.3250,-0.09005591897,-0.5689453377,-0.7943579516,0.1928382192
5.3300,-0.08912710189,-0.5695225541,-0.7941603398,0.192379247
5.3350,-0.08819595415,-0.5701025684,-0.7939576996,0.1919263048
5.3400,-0.08726008035,-0.5706863309,-0.7937495861,0.1914794627
5.3450,-0.08631917793,-0.5712741711,-0.7935352244,0.1910410131
5.3500,-0.08537326064,-0.5718673529,-0.7933137155,0.190610823
5.3550,-0.08442453584,-0.5724653402,-0.7930849896,0.1901897244
5.3600,-0.08347467582,-0.5730687328,-0.7928482941,0.1897782614
5.3650,-0.08252369392,-0.5736783746,-0.7926032168,0.1893755611
5.3700,-0.08157036702,-0.5742940369,-0.792350115,0.1889812946
5.3750,-0.08061663551,-0.574916124,-0.7920882979,0.1885962268
5.3800,-0.07966532381,-0.5755431463,-0.7918191709,0.1882177556
5.3850,-0.07871856866,-0.5761758993,-0.7915423011,0.1878443651
5.3900,-0.07777658352,-0.5768142074,-0.7912578693,0.1874757516
5.3950,-0.07683952115,-0.5774576913,-0.7909669624,0.1871084367
5.4000,-0.07590845649,-0.5781060753,-0.7906700101,0.1867410162
5.4050,-0.07497897925,-0.578758944,-0.7903681242,0.186371848
5.4100,-0.07405219183,-0.5794154961,-0.7900621964,0.185999144
5.4150,-0.07312806062,-0.5800775692,-0.7897507457,0.1856234365
5.4200,-0.07220721333,-0.5807431974,-0.7894350775,0.1852450147
5.4250,-0.07128877843,-0.5814121093,-0.7891153372,0.1848644199
5.4300,-0.07036980168,-0.5820829958,-0.788792547,0.1844825054
5.4350,-0.06944873975,-0.5827559599,-0.788465898,0.184102937
5.4400,-0.06852594641,-0.5834299263,-0.7881359893,0.1837263675
5.4450,-0.0675998616,-0.5841061299,-0.7878017746,0.1833538972
5.4500,-0.06666932035,-0.5847838845,-0.7874639888,0.182984908
5.4550,-0.06573304269,-0.5854635757,-0.7871218991,0.1826216977
5.4600,-0.06478920386,-0.5861465918,-0.7867744821,0.1822647697
5.4650,-0.06383498524,-0.5868310392,-0.78642289,0.1819160911
5.4700,-0.06287202739,-0.5875176443,-0.7860657833,0.1815783856
5.4750,-0.06190000338,-0.5882051867,-0.7857040571,0.1812517105
5.4800,-0.06092004407,-0.5888932052,-0.7853380697,0.1809355061
5.4850,-0.05993454614,-0.589581155,-0.7849684612,0.1806278684
5.4900,-0.05894386324,-0.5902672748,-0.7845966967,0.1803280036
5.4950,-0.05795031067,-0.5909505063,-0.7842239567,0.1800334589
5.5000,-0.05695751233,-0.5916307497,-0.7838504131,0.1797426707
5.5050,-0.05596816435,-0.5923055745,-0.7834779182,0.1794547928
5.5100,-0.05498597061,-0.5929754047,-0.7831061195,0.1791689652
5.5150,-0.05401351871,-0.5936403383,-0.782735442,0.1788824095
5.5200,-0.05305322704,-0.5942998947,-0.7823658745,0.1785962727
5.5250,-0.05210581572,-0.5949525533,-0.7819986298,0.1783103649
5.5300,-0.05117402441,-0.5956009087,-0.781631768,0.1780240321
5.5350,-0.05025845619,-0.5962422959,-0.781267671,0.1777358669
5.5400,-0.04936116861,-0.5968762654,-0.7809065545,0.1774461945
5.5450,-0.04848201195,-0.5975021541,-0.7805488273,0.1771558594
5.5500,-0.04762125675,-0.5981182278,-0.780195254,0.1768676543
5.5550,-0.0467766055,-0.5987239972,-0.7798464946,0.1765813387
5.5600,-0.04594607967,-0.5993190806,-0.77950265,0.1762986558
5.5650,-0.0451297487,-0.5999022237,-0.7791647295,0.176019749
5.5700,-0.04432668881,-0.6004728305,-0.778833212,0.1757451345
5.5750,-0.04353782864,-0.601029969,-0.778508629,0.1754757774
5.5800,-0.04276264797,-0.6015727945,-0.7781913874,0.1752132796
5.5850,-0.04200073897,-0.6021008287,-0.7778820192,0.1749574068
5.5900,-0.04125155776,-0.6026142451,-0.7775807959,0.1747068586
5.5950,-0.04051448293,-0.6031129721,-0.777287796,0.1744620354
5.6000,-0.03978726837,-0.6035968154,-0.7770038939,0.1742205687
5.6050,-0.03906786567,-0.6040634119,-0.7767310177,0.1739828223
5.6100,-0.03835522556,-0.6045121353,-0.7764704454,0.1737457979
5.6150,-0.0376455177,-0.6049423828,-0.7762226577,0.1735105593
5.6200,-0.0369376408,-0.6053544859,-0.7759878112,0.1732757169
5.6250,-0.03623370512,-0.6057497368,-0.7757655858,0.1730379462
5.6300,-0.0355319657,-0.6061280815,-0.7755552488,0.1728012857
5.6350,-0.03483659358,-0.6064902023,-0.7753564913,0.1725640683
5.6400,-0.03414810651,-0.6068366428,-0.7751689629,0.1723260711
5.6450,-0.03346714156,-0.6071678182,-0.7749925609,0.1720863782
5.6500,-0.03279351207,-0.6074844938,-0.7748263313,0.1718468261
5.6550,-0.03212520436,-0.6077876294,-0.7746691685,0.1716095804
5.6600,-0.0314623431,-0.608077623,-0.7745207974,0.1713746185
5.6650,-0.03080375481,-0.6083535241,-0.7743814977,0.1711444256
5.6700,-0.03015014873,-0.608618491,-0.7742485492,0.170920113
5.6750,-0.02949806834,-0.6088733841,-0.7741220369,0.1706989694
5.6800,-0.02884745474,-0.6091204585,-0.7739994054,0.170484638
5.6850,-0.02819792511,-0.6093597443,-0.7738805251,0.1702777492
5.6900,-0.02755336828,-0.609592875,-0.7737645024,0.1700759636
5.6950,-0.02691472781,-0.6098208354,-0.7736505255,0.1698793996
5.7000,-0.02628579295,-0.6100456212,-0.7735368901,0.1696881753
5.7050,-0.02567220763,-0.6102677226,-0.7734227569,0.1695036389
5.7100,-0.02507605046,-0.6104883565,-0.7733070195,0.1693263475
5.7150,-0.02449951506,-0.6107076217,-0.7731898426,0.1691550824
5.7200,-0.02394253011,-0.6109255756,-0.7730714683,0.1689887605
5.7250,-0.02340605021,-0.6111435957,-0.7729511937,0.1688256923
5.7300,-0.02289271825,-0.6113623142,-0.772828941,0.1686637845
5.7350,-0.02240147471,-0.6115819283,-0.7727050875,0.1685009395
5.7400,-0.02193426155,-0.6118036146,-0.7725791499,0.1683350305
5.7450,-0.02149155269,-0.6120270203,-0.7724515725,0.1681654177
5.7500,-0.02107266536,-0.6122514538,-0.7723234335,0.1679899228
5.7550,-0.02067859073,-0.612476745,-0.7721948282,0.1678087603
5.7600,-0.02030878824,-0.6127017249,-0.7720669621,0.1676208681
5.7650,-0.01996238988,-0.6129261208,-0.7719403321,0.1674251983
5.7700,-0.01963986845,-0.6131486602,-0.7718160747,0.1672212394
5.7750,-0.01933880478,-0.6133693614,-0.7716939022,0.1670106538
5.7800,-0.01905720885,-0.6135877654,-0.7715737499,0.1667957596
5.7850,-0.01879227114,-0.6138028204,-0.7714560361,0.1665789076
5.7900,-0.01854302184,-0.6140152578,-0.7713399572,0.1663613233
5.7950,-0.01830639165,-0.6142253222,-0.7712253444,0.1661433048
5.8000,-0.01807981066,-0.614432578,-0.771112248,0.1659265757
5.8050,-0.01786123505,-0.614637133,-0.7710009935,0.165709502
5.8100,-0.01764821106,-0.6148391372,-0.7708915692,0.1654918869
5.8150,-0.01743988346,-0.615037347,-0.7707850021,0.1652736907
5.8200,-0.01723521397,-0.6152308017,-0.7706825364,0.1650528285
5.8250,-0.01703292681,-0.6154191639,-0.7705847954,0.1648278048
5.8300,-0.01683294701,-0.6155996247,-0.7704944591,0.1645966052
5.8350,-0.01663652734,-0.6157727745,-0.7704115896,0.1643566204
5.8400,-0.01644471742,-0.6159375074,-0.7703375285,0.1641056077
5.8450,-0.01625724671,-0.6160941394,-0.7702728536,0.1638396911
5.8500,-0.01607573416,-0.6162422594,-0.7702185705,0.1635555015
5.8550,-0.01590050726,-0.616381758,-0.7701748084,0.1632527696
5.8600,-0.01573071865,-0.6165105169,-0.7701436774,0.1629295654
5.8650,-0.01556736796,-0.6166312032,-0.7701228581,0.1625865912
5.8700,-0.01540977744,-0.6167443893,-0.7701117641,0.1622244367
5.8750,-0.01525809376,-0.6168500585,-0.7701099606,0.1618451252
5.8800,-0.01511225766,-0.6169485925,-0.7701171706,0.1614484354
5.8850,-0.01497291882,-0.6170402805,-0.7701326591,0.1610366151
5.8900,-0.01483991412,-0.6171260558,-0.770155129,0.1606122207
5.8950,-0.01471313987,-0.6172068849,-0.7701838674,0.1601748895
5.9000,-0.01459465757,-0.6172828646,-0.7702181687,0.1597273729
5.9050,-0.01448442834,-0.6173570356,-0.7702558105,0.1592685732
5.9100,-0.01438554022,-0.6174293831,-0.7702965606,0.1587993131
5.9150,-0.01430160235,-0.6175011039,-0.7703394772,0.1583191105
5.9200,-0.01423555186,-0.6175735687,-0.7703836627,0.1578266408
5.9250,-0.01418945798,-0.617645736,-0.7704296826,0.1573229427
5.9300,-0.01416758399,-0.6177184996,-0.7704777418,0.1568030106
5.9350,-0.01417008391,-0.6177907682,-0.7705288638,0.1562659449
5.9400,-0.01419942918,-0.6178615522,-0.7705836362,0.1557123571
5.9450,-0.01425634823,-0.6179311963,-0.7706416151,0.1551428192
5.9500,-0.01434311579,-0.6179992342,-0.7707034624,0.1545554744
5.9550,-0.01446070658,-0.6180658526,-0.770769021,0.1539500116
5.9600,-0.01460879314,-0.6181308376,-0.7708381692,0.153327648
5.9650,-0.01478801086,-0.6181956566,-0.7709099513,0.1526869082
5.9700,-0.01499988466,-0.6182591362,-0.7709851805,0.1520279429
5.9750,-0.01524716281,-0.6183222164,-0.771062575,0.1513527871
5.9800,-0.0155278093,-0.6183832883,-0.7711432189,0.1506623105
5.9850,-0.01584174862,-0.6184422594,-0.7712266462,0.1499588974
5.9900,-0.01618674795,-0.6184978561,-0.771312985,0.149247011
5.9950,-0.01656117827,-0.6185500608,-0.7714015729,0.1485300067
6.0000,-0.01696209441,-0.6185978824,-0.7714928245,0.1478099079
6.0050,-0.01738776696,-0.6186409532,-0.7715866601,0.1470886214
6.0100,-0.0178377347,-0.6186777938,-0.7716837797,0.1463685308
6.0150,-0.01831112306,-0.6187079878,-0.7717836239,0.1456542706
6.0200,-0.0188081811,-0.6187324626,-0.7718854835,0.1449454811
6.0250,-0.01932966091,-0.6187499029,-0.7719899454,0.1442443974
6.0300,-0.01987449004,-0.6187605008,-0.7720960388,0.1435554044
6.0350,-0.02044510305,-0.6187636531,-0.7722043413,0.1428775513
6.0400,-0.02104055801,-0.6187592736,-0.7723149572,0.1422106294
6.0450,-0.02166156277,-0.6187474035,-0.7724280575,0.1415532526
6.0500,-0.02230962492,-0.6187275986,-0.7725437572,0.14090629
6.0550,-0.02298498526,-0.618700061,-0.7726623617,0.1402668878
6.0600,-0.02368942573,-0.6186653789,-0.7727837399,0.1396325585
6.0650,-0.02442557642,-0.6186235596,-0.7729082081,0.139000664
6.0700,-0.02519265723,-0.6185742105,-0.7730365206,0.1383683992
6.0750,-0.02599299262,-0.6185160372,-0.7731701641,0.1377322526
6.0800,-0.02682654912,-0.6184488636,-0.7733097168,0.1370890999
6.0850,-0.02769309129,-0.6183735421,-0.7734550392,0.136435177
6.0900,-0.02859068497,-0.618288845,-0.7736073019,0.1357689924
6.0950,-0.02951768455,-0.6181949457,-0.773766364,0.1350900788
6.1000,-0.03047208807,-0.6180917131,-0.7739327484,0.134395636
6.1050,-0.03145067867,-0.6179801696,-0.7741054941,0.1336863825
6.1100,-0.03244890862,-0.6178603681,-0.7742848508,0.1329609104
6.1150,-0.0334623625,-0.6177320451,-0.7744708054,0.1322208849
6.1200,-0.03448704829,-0.617597533,-0.7746614212,0.1314671565
6.1250,-0.03551872756,-0.6174575269,-0.7748562048,0.1306999782
6.1300,-0.03655264932,-0.6173138553,-0.7750532478,0.1299229424
6.1350,-0.03758328351,-0.6171676249,-0.7752514376,0.1291387939
6.1400,-0.03860581327,-0.6170198994,-0.7754498797,0.1283492076
6.1450,-0.03961720644,-0.6168709017,-0.7756478877,0.1275583078
6.1500,-0.04061296482,-0.616721986,-0.7758444426,0.1267674247
6.1550,-0.04158977131,-0.616574147,-0.7760386378,0.1259787476
6.1600,-0.04254776622,-0.61642788,-0.7762298518,0.1251941435
6.1650,-0.04348242713,-0.6162829199,-0.776418541,0.1244141888
6.1700,-0.04439330874,-0.6161389585,-0.7766050743,0.123638896
6.1750,-0.04527897486,-0.6159981709,-0.7767881674,0.122866639
6.1800,-0.04613809513,-0.6158602891,-0.7769682583,0.1220971171
6.1850,-0.04697245281,-0.6157270979,-0.7771438915,0.1213305465
6.1900,-0.04778162031,-0.6155984136,-0.7773154458,0.1205661963
6.1950,-0.04856884887,-0.6154748988,-0.7774825111,0.1198025914
6.2000,-0.04933445741,-0.6153579036,-0.7776440619,0.1190398036
6.2050,-0.05008228376,-0.6152473574,-0.7778000952,0.1182770729
6.2100,-0.05081234094,-0.6151442964,-0.7779499567,0.1175136821
6.2150,-0.05152619359,-0.6150489606,-0.778093188,0.1167510954
6.2200,-0.05222350504,-0.6149604879,-0.7782306103,0.1159888831
6.2250,-0.05290535521,-0.6148803578,-0.7783612196,0.1152257824
6.2300,-0.05357042076,-0.6148074257,-0.7784859987,0.1144621734
6.2350,-0.05422079009,-0.614743052,-0.7786033854,0.113700722
6.2400,-0.054856024,-0.6146870943,-0.7787136849,0.1129406465
6.2450,-0.05547744565,-0.6146405368,-0.7788162126,0.1121809723
6.2500,-0.05608538053,-0.6146039056,-0.7789102584,0.1114238696
6.2550,-0.05668178477,-0.6145764358,-0.778996495,0.1106681552
6.2600,-0.05726874584,-0.6145592916,-0.779073995,0.1099130484
6.2650,-0.05784802897,-0.6145513155,-0.7791434243,0.1091595648
6.2700,-0.05841975548,-0.6145519584,-0.7792051557,0.1084082465
6.2750,-0.0589842751,-0.6145595251,-0.7792603917,0.1076600549
6.2800,-0.0595434638,-0.6145743266,-0.779308659,0.106915794
6.2850,-0.06009421377,-0.614594367,-0.7793519391,0.1061744064
6.2900,-0.06063709116,-0.6146194814,-0.7793904915,0.1054348048
6.2950,-0.06117266876,-0.6146473478,-0.7794259959,0.1046979432
6.3000,-0.06170045585,-0.6146763544,-0.7794599119,0.1039628723
6.3050,-0.06222098197,-0.6147069066,-0.779491853,0.1032299354
6.3100,-0.06273465522,-0.6147385239,-0.7795224061,0.1024974567
6.3150,-0.06324165584,-0.614770519,-0.7795525035,0.1017624501
6.3200,-0.06374278367,-0.6148016664,-0.779582814,0.1010267519
6.3250,-0.06423761029,-0.6148333121,-0.7796122098,0.1002912263
6.3300,-0.06472732793,-0.614863668,-0.7796424742,0.0995522738
6.3350,-0.06521186725,-0.6148946339,-0.7796718002,0.0988123751
6.3400,-0.06569213853,-0.6149243349,-0.7797015452,0.09807194107
6.3450,-0.06616854211,-0.6149530053,-0.7797312172,0.09733321283
6.3500,-0.06664117317,-0.6149815287,-0.7797603733,0.09659416976
6.3550,-0.0671105332,-0.6150092867,-0.7797896534,0.0958532739
6.3600,-0.06757600962,-0.6150350079,-0.7798198361,0.09511280218
6.3650,-0.06803762671,-0.6150583543,-0.7798514657,0.09437051216
6.3700,-0.06849441681,-0.6150800228,-0.7798839873,0.0936271692
6.3750,-0.06894691636,-0.6150995312,-0.7799179898,0.09288066925
6.3800,-0.0693947502,-0.6151162926,-0.7799538858,0.09213170564
6.3850,-0.06983765187,-0.6151296835,-0.7799921079,0.09138099629
6.3900,-0.07027546496,-0.6151397156,-0.7800327231,0.09062803209
6.3950,-0.07070969987,-0.6151455244,-0.7800762668,0.08987291092
6.4000,-0.07113920544,-0.6151468891,-0.780122964,0.08911610023
6.4050,-0.0715632728,-0.6151433876,-0.7801730905,0.08835869814
6.4100,-0.07198375565,-0.6151336324,-0.7802272813,0.08760332577
6.4150,-0.07240050738,-0.6151172929,-0.7802858269,0.08684993248
6.4200,-0.07281245381,-0.6150933108,-0.7803496561,0.08609866279
6.4250,-0.07321990221,-0.6150616787,-0.780418583,0.08535111321
6.4300,-0.07362117995,-0.6150215621,-0.780493494,0.08460677126
6.4350,-0.07401612843,-0.614973396,-0.7805741877,0.08386460784
6.4400,-0.07440351354,-0.6149151339,-0.7806622496,0.08312609295
6.4450,-0.07478239773,-0.6148476795,-0.7807573172,0.08238892893
6.4500,-0.07515341359,-0.6147709416,-0.7808594181,0.08165306498
6.4550,-0.07551732105,-0.6146844802,-0.7809689683,0.08091720765
6.4600,-0.07587307678,-0.614589401,-0.781085302,0.08018039239
6.4650,-0.07622373928,-0.6144868138,-0.7812072726,0.07944239748
6.4700,-0.07657020677,-0.614376937,-0.7813346508,0.07870289754
6.4750,-0.07691288804,-0.6142605114,-0.7814667971,0.07796202174
6.4800,-0.07725465796,-0.6141397264,-0.78160154,0.07722141518
6.4850,-0.07759516064,-0.6140132953,-0.7817401814,0.07647844805
6.4900,-0.07793453275,-0.6138824461,-0.7818818131,0.07573230014
6.4950,-0.07827257663,-0.6137483881,-0.7820253847,0.07498411469
6.5000,-0.07860740705,-0.613610199,-0.7821718199,0.07423370782
6.5050,-0.07893801,-0.6134685503,-0.7823206776,0.07348119382
6.5100,-0.07926248607,-0.6133225966,-0.7824727459,0.07272724974
6.5150,-0.07957970578,-0.613172842,-0.7826279303,0.07196984782
6.5200,-0.07988902895,-0.6130188805,-0.7827864455,0.07121078561
6.5250,-0.08018908643,-0.6128616138,-0.7829475941,0.07045152642
6.5300,-0.08047991475,-0.6127024778,-0.783110072,0.06969413294
6.5350,-0.08076101959,-0.6125409845,-0.7832745483,0.0689360721
6.5400,-0.08102961595,-0.6123783476,-0.7834401578,0.06817976118
6.5450,-0.08128450737,-0.6122140723,-0.7836073597,0.0674259915
6.5500,-0.08152235763,-0.6120472458,-0.7837771024,0.06667629177
6.5550,-0.08174065733,-0.6118788723,-0.7839487047,0.0659328367
6.5600,-0.08193680956,-0.6117081956,-0.7841228995,0.06519755406
6.5650,-0.08210946525,-0.6115353763,-0.7842996596,0.06447141349
6.5700,-0.08225665565,-0.6113618189,-0.784478115,0.06375465567
6.5750,-0.08237645556,-0.611189464,-0.7846570571,0.06304650153
6.5800,-0.08246619711,-0.6110182028,-0.7848370161,0.06234533094
6.5850,-0.0825264661,-0.6108503346,-0.7850162792,0.06164975766
6.5900,-0.08255205718,-0.6106885863,-0.7851935257,0.06095683336
6.5950,-0.08254150266,-0.6105341377,-0.7853682573,0.0602633183
6.6000,-0.08249829293,-0.6103882031,-0.7855391085,0.0595699772
6.6050,-0.08242434075,-0.6102503573,-0.7857063409,0.05887508218
6.6100,-0.08232210528,-0.6101220087,-0.7858685193,0.05817968648
6.6150,-0.08219283673,-0.6100022421,-0.7860260746,0.05748575715
6.6200,-0.08203684294,-0.6098911382,-0.7861789751,0.0567923861
6.6250,-0.08185395811,-0.6097862949,-0.7863291962,0.05609812097
6.6300,-0.08164330602,-0.6096886371,-0.7864760893,0.05540304449
6.6350,-0.08140466474,-0.6095955447,-0.7866217932,0.05470563914
6.6400,-0.08113693454,-0.6095070899,-0.786766291,0.05400656066
6.6450,-0.08084001053,-0.6094219866,-0.7869106126,0.05330499703
6.6500,-0.08051094816,-0.6093385861,-0.7870562169,0.05260215077
6.6550,-0.0801503536,-0.6092567531,-0.7872030228,0.05189923445
6.6600,-0.07975783871,-0.6091760658,-0.7873514356,0.05119496886
6.6650,-0.07933404525,-0.6090960048,-0.7875015348,0.05049256315
6.6700,-0.07887940718,-0.6090145459,-0.7876548457,0.04979122528
6.6750,-0.07839215603,-0.6089316306,-0.7878113119,0.04909456179
6.6800,-0.07787577735,-0.6088466249,-0.7879709734,0.0484034683
6.6850,-0.07733249148,-0.6087579084,-0.7881347666,0.04771880537
6.6900,-0.07676678246,-0.6086655093,-0.7883022828,0.04703902576
6.6950,-0.0761813974,-0.6085694854,-0.7884731793,0.04636401235
6.7000,-0.07558048975,-0.6084695935,-0.7886472383,0.04569329113
6.7050,-0.07496960572,-0.6083669646,-0.7888231274,0.04502519539
6.7100,-0.07435436493,-0.6082631615,-0.7889993201,0.04435569461
6.7150,-0.07373992584,-0.6081588922,-0.7891748821,0.04368284158
6.7200,-0.07313265747,-0.6080562793,-0.7893476122,0.04300607793
6.7250,-0.07253759223,-0.6079552076,-0.7895173615,0.04232137934
6.7300,-0.07196350646,-0.6078572064,-0.7896823136,0.04162588159
6.7350,-0.07141688137,-0.6077622135,-0.7898419962,0.04091872333
6.7400,-0.07090447014,-0.6076721354,-0.789994502,0.04019724883
6.7450,-0.0704323004,-0.6075866372,-0.7901395664,0.03946181528
6.7500,-0.07000591538,-0.6075059574,-0.790276549,0.03871252601
6.7550,-0.06962815029,-0.6074297559,-0.7904054159,0.03795116255
6.7600,-0.06930115978,-0.6073584026,-0.7905257218,0.03717799437
6.7650,-0.06902379587,-0.6072898986,-0.7906390633,0.03639459218
6.7700,-0.06879281945,-0.6072251929,-0.7907449922,0.0356015504
6.7750,-0.06860562725,-0.6071625809,-0.7908449944,0.0348003313
6.7800,-0.06845598366,-0.6071001374,-0.790941069,0.03399157012
6.7850,-0.06833866652,-0.6070382465,-0.7910332567,0.03317801634
6.7900,-0.06825111852,-0.6069763326,-0.7911221101,0.03236237512
6.7950,-0.06818822903,-0.6069128328,-0.7912091682,0.03154728256
6.8000,-0.068147984,-0.6068481363,-0.791294326,0.03073241682
6.8050,-0.06812438065,-0.6067812663,-0.7913787409,0.02992076361
6.8100,-0.06811378953,-0.6067126886,-0.7914623072,0.02911428214
6.8150,-0.06811098452,-0.6066417634,-0.79154599,0.02831272557
6.8200,-0.06811401197,-0.6065695341,-0.7916290491,0.02751963341
6.8250,-0.06811850478,-0.6064938971,-0.7917135628,0.02673305952
6.8300,-0.0681209769,-0.6064151979,-0.7917995731,0.02595334953
6.8350,-0.06811762644,-0.606333724,-0.7918871717,0.02518156866
6.8400,-0.06811129095,-0.606249162,-0.7919764466,0.02441543805
6.8450,-0.0680992286,-0.6061613832,-0.7920677579,0.02365458632
6.8500,-0.06808352135,-0.6060715104,-0.7921601993,0.02289491262
6.8550,-0.06806637766,-0.6059796933,-0.7922535883,0.02213213393
6.8600,-0.06804749937,-0.6058868354,-0.7923472214,0.02136729444
6.8650,-0.06802789999,-0.6057942633,-0.7924401342,0.02059488169
6.8700,-0.06800663995,-0.6057013768,-0.7925328517,0.0198145923
6.8750,-0.06798265895,-0.6056075654,-0.7926259076,0.01902644252
6.8800,-0.06795627443,-0.605513243,-0.7927189359,0.01823035941
6.8850,-0.06792692582,-0.6054171966,-0.7928128265,0.01742908008
6.8900,-0.06789694671,-0.605318025,-0.7929083897,0.01662464235
6.8950,-0.06786436332,-0.605217373,-0.7930044561,0.01582062567
6.9000,-0.06782458887,-0.6051135608,-0.7931026395,0.01502021637
6.9050,-0.06776977113,-0.6050069905,-0.793203251,0.01422681598
6.9100,-0.06769474079,-0.6048968974,-0.7933072988,0.01344229107
6.9150,-0.06759473654,-0.6047830337,-0.7934154136,0.01266551368
6.9200,-0.06746660785,-0.6046670148,-0.7935265925,0.01189979032
6.9250,-0.06730864707,-0.6045487724,-0.7936410346,0.01114612316
6.9300,-0.06712120273,-0.6044286355,-0.793758457,0.01040580297
6.9350,-0.0669024147,-0.6043059833,-0.7938794973,0.009679316161
6.9400,-0.06665284558,-0.6041817819,-0.7940033913,0.008965893524
6.9450,-0.06637308713,-0.6040572526,-0.7941291764,0.008264385037
6.9500,-0.0660659766,-0.6039335747,-0.7942557069,0.007576023242
6.9550,-0.06573132312,-0.6038099991,-0.7943835718,0.006900649928
6.9600,-0.06537182101,-0.6036866699,-0.7945124361,0.006238462597
6.9650,-0.06498832842,-0.6035643766,-0.7946416353,0.005588552553
6.9700,-0.06458451117,-0.6034436572,-0.7947704619,0.004950394095
6.9750,-0.06416432959,-0.6033236883,-0.7948992226,0.004323403775
6.9800,-0.0637310163,-0.6032045506,-0.7950276171,0.003703463025
6.9850,-0.06328901014,-0.6030876604,-0.795154221,0.003088666228
6.9900,-0.06284063576,-0.6029732542,-0.7952786696,0.002479304572
6.9950,-0.06238880816,-0.6028611545,-0.7954008714,0.001875824565
7.0000,-0.06193781139,-0.6027520935,-0.7955199508,0.001276428718
7.0050,-0.06149100342,-0.6026446174,-0.7956367642,0.0006790331133
7.0100,-0.06104889462,-0.6025405651,-0.7957498933,8.550711399e-5
7.0150,0.06061233717,0.6024398427,0.7958593627,0.0005052348628
7.0200,0.06018179865,0.6023401649,0.7959668871,0.001091555525
7.0250,0.05975716433,0.6022425056,0.7960717606,0.001672655761
7.0300,0.0593369462,0.6021458733,0.7961748732,0.002246193977
7.0350,0.05891933947,0.6020496139,0.7962768855,0.002809886687
7.0400,0.05850377249,0.601953444,0.7963780886,0.003361520265
7.0450,0.05808869763,0.6018578178,0.7964782911,0.003898999726
7.0500,0.05767314257,0.6017622441,0.7965779662,0.004421998715
7.0550,0.05725690911,0.6016667633,0.7966771232,0.004930898418
7.0600,0.05684085866,0.6015715915,0.7967755807,0.005423211088
7.0650,0.05642657685,0.6014787312,0.7968717309,0.005901003447
7.0700,0.05601706413,0.6013886789,0.7969650048,0.006366054758
7.0750,0.05561403238,0.6013012666,0.7970554567,0.00681653194
7.0800,0.05521943039,0.6012183333,0.7971415762,0.007255175906
7.0850,0.05483636345,0.6011403752,0.7972228138,0.007681647981
7.0900,0.05446521785,0.6010691554,0.7972978515,0.008096074294
7.0950,0.05410580626,0.6010047295,0.7973666815,0.008500126262
7.1000,0.05375831666,0.6009470922,0.7974293386,0.008893014273
7.1050,0.05342456395,0.6008977401,0.7974846009,0.009275413526
7.1100,0.05310477992,0.6008564866,0.7975325879,0.009650700149
7.1150,0.05280261722,0.6008242525,0.7975724207,0.01001673008
7.1200,0.05251680146,0.6008002214,0.7976047806,0.01037754649
7.1250,0.05225002888,0.600785738,0.7976285316,0.01073112247
7.1300,0.05200314564,0.6007807868,0.7976436314,0.01107954524
7.1350,0.05177613126,0.6007844451,0.7976508224,0.01142139691
7.1400,0.05156597425,0.6007973051,0.7976498714,0.01175717566
7.1450,0.051375464,0.6008198882,0.7976402189,0.01208738498
7.1500,0.05120377093,0.6008514354,0.7976225429,0.01240989221
7.1550,0.05104784223,0.6008911813,0.7975976397,0.01272443116
7.1600,0.05090642204,0.6009389082,0.7975657603,0.0130316039
7.1650,0.05077786173,0.600994118,0.7975274172,0.01333032781
7.1700,0.05066070314,0.601057171,0.7974824572,0.01361986798
7.1750,0.05055514543,0.6011282497,0.7974307121,0.01390194378
7.1800,0.05046081809,0.6012059796,0.7973732662,0.01417569363
7.1850,0.0503769926,0.6012917941,0.797309085,0.01444160766
7.1900,0.05030137375,0.6013845008,0.7972392371,0.01469873505
7.1950,0.05023388771,0.6014827921,0.7971647384,0.0149461414
7.2000,0.05017339441,0.6015873093,0.7970851259,0.01518689462
7.2050,0.05012090789,0.6016974894,0.7970007824,0.01542007433
7.2100,0.05007647257,0.6018139829,0.7969112167,0.01564575272
7.2150,0.05003913068,0.6019380841,0.7968155536,0.01586196248
7.2200,0.05000964181,0.6020686071,0.79671463,0.01606942702
7.2250,0.04998604208,0.6022075057,0.7966071342,0.01626620468
7.2300,0.04996704404,0.6023531078,0.7964944168,0.01645211294
7.2350,0.04995223031,0.6025072529,0.7963750988,0.01662789552
7.2400,0.04994131894,0.6026681469,0.7962505774,0.01679247971
7.2450,0.04993393859,0.602835744,0.7961209132,0.016945769
7.2500,0.0499301217,0.6030100504,0.795986068,0.01708922556
7.2550,0.0499309614,0.6031903608,0.7958464737,0.01722434611
7.2600,0.0499355855,0.6033764541,0.7957023407,0.01735156788
7.2650,0.04994407573,0.6035675491,0.7955542438,0.01747135272
7.2700,0.04995610225,0.6037627635,0.7954028933,0.01758267822
7.2750,0.04997280428,0.6039624245,0.7952479332,0.01768709496
7.2800,0.04999329555,0.604166962,0.7950891449,0.01778212782
7.2850,0.05001495682,0.6043754897,0.7949273702,0.01786750358
7.2900,0.05003953953,0.6045867427,0.794763451,0.01794358019
7.2950,0.0500664936,0.604800996,0.7945971226,0.01801427744
7.3000,0.05009466415,0.6050164126,0.7944298897,0.01807803783
7.3050,0.05012350923,0.6052338513,0.7942611582,0.01813371516
7.3100,0.05015183313,0.6054515127,0.7940923644,0.01818175777
7.3150,0.05018006065,0.6056690846,0.7939237246,0.0182219904
7.3200,0.0502094835,0.6058875047,0.7937544268,0.01825511965
7.3250,0.05023995837,0.6061064977,0.7935846866,0.01828128342
7.3300,0.05026683964,0.6063253512,0.7934153061,0.01830205797
7.3350,0.05029022864,0.606543177,0.7932469344,0.01831852559
7.3400,0.05030973571,0.6067604558,0.793079242,0.01833018519
7.3450,0.05032685281,0.6069763773,0.7929127056,0.01833921109
7.3500,0.05034222182,0.6071908017,0.792747389,0.01834579709
7.3550,0.05035869897,0.6074047485,0.7925823248,0.01835024119
7.3600,0.05037575317,0.6076176542,0.7924179568,0.01835351347
7.3650,0.05039508054,0.6078282862,0.7922551215,0.01835573179
7.3700,0.05041787186,0.6080361244,0.7920941997,0.01835452169
7.3750,0.05044533193,0.6082423885,0.7919340715,0.01835461274
7.3800,0.05047981995,0.608446422,0.7917751688,0.01835269545
7.3850,0.0505213973,0.6086489308,0.791616932,0.01834939966
7.3900,0.05057212477,0.608848195,0.7914605372,0.01834540036
7.3950,0.05063423369,0.6090465218,0.7913040939,0.01833956263
7.4000,0.05070730817,0.6092444664,0.7911471919,0.01833220712
7.4050,0.05079156616,0.6094404211,0.7909910224,0.01832463924
7.4100,0.05088769641,0.6096342997,0.7908356611,0.01831447792
7.4150,0.05099349861,0.6098256826,0.7906815446,0.01830286749
7.4200,0.05110982554,0.6100139234,0.7905291576,0.01828797412
7.4250,0.05123528645,0.6102002303,0.7903776286,0.01827097586
7.4300,0.05137145783,0.6103834687,0.7902277211,0.01825221133
7.4350,0.05151830866,0.6105642208,0.7900789662,0.01823248164
7.4400,0.05167468376,0.6107426085,0.789931323,0.01821258038
7.4450,0.05184052064,0.6109174318,0.7897857253,0.01819230509
7.4500,0.05201313468,0.6110898734,0.78964143,0.01817175026
7.4550,0.05219339472,0.61126043,0.7894980036,0.01815044198
7.4600,0.05238069513,0.6114290394,0.7893555338,0.01812826145
7.4650,0.05257398107,0.6115956643,0.7892141592,0.01810333784
7.4700,0.05277143775,0.6117601693,0.7890740825,0.01807658755
7.4750,0.05297244413,0.6119213206,0.7889364023,0.01804357502
7.4800,0.05317623962,0.6120817768,0.7887991381,0.0180029389
7.4850,0.05338222443,0.6122398451,0.7886636759,0.01795317617
7.4900,0.05359216491,0.6123970848,0.7885287268,0.01789238522
7.4950,0.05380678065,0.6125530293,0.7883945766,0.0178215697
7.5000,0.05402690849,0.6127083235,0.7882607347,0.0177374626
7.5050,0.05425547967,0.6128635566,0.7881264701,0.01764287351
7.5100,0.05449145028,0.6130193672,0.7879914205,0.01753449498
7.5150,0.05473864379,0.6131764508,0.7878548126,0.01741021032
7.5200,0.0549963231,0.6133355911,0.7877160999,0.01726855636
7.5250,0.05526619848,0.6134952081,0.787576361,0.01711001179
7.5300,0.05554918574,0.6136572754,0.7874340324,0.01693165572
7.5350,0.0558436797,0.6138213574,0.7872895784,0.01673153937
7.5400,0.05614975292,0.6139893735,0.7871414568,0.01651004042
7.5450,0.05646492425,0.6141602987,0.7869906448,0.01626544934
7.5500,0.05678893612,0.6143337624,0.7868374326,0.01599687005
7.5550,0.0571179985,0.6145110835,0.7866810719,0.01570202564
7.5600,0.05745159055,0.6146920364,0.7865217452,0.01538048972
7.5650,0.0577881651,0.6148775226,0.7863588041,0.0150330077
7.5700,0.05812585788,0.6150681894,0.7861918002,0.01466152852
7.5750,0.05846285652,0.6152646326,0.7860203588,0.01426611033
7.5800,0.05879782706,0.6154668531,0.7858444872,0.01384955733
7.5850,0.05913168097,0.6156757035,0.7856633873,0.01341321369
7.5900,0.05946240167,0.6158925168,0.7854761021,0.0129585304
7.5950,0.05978741087,0.6161176235,0.7852825294,0.01248552986
7.6000,0.06010753224,0.6163524824,0.7850813823,0.01199687908
7.6050,0.06042228031,0.6165972729,0.7848724869,0.01149479961
7.6100,0.06073046746,0.6168523184,0.7846556073,0.01098205883
7.6150,0.0610305099,0.6171178269,0.7844306299,0.01046190542
7.6200,0.06131932907,0.6173951181,0.7841967004,0.009936959677
7.6250,0.06159619873,0.6176823191,0.7839553142,0.009408843097
7.6300,0.06186394349,0.617981374,0.7837046948,0.008878356148
7.6350,0.06212192532,0.6182930817,0.7834442437,0.008345569188
7.6400,0.06236975402,0.6186168925,0.7831743882,0.007812287168
7.6450,0.06260547254,0.6189523035,0.7828956769,0.007277356526
7.6500,0.06282742763,0.6193007242,0.7826071072,0.006741149875
7.6550,0.06303432278,0.6196613426,0.7823094109,0.006203241537
7.6600,0.06322636864,0.6200337424,0.7820028765,0.005664426526
7.6650,0.06340237273,0.6204184425,0.7816871842,0.005122638512
7.6700,0.06356173254,0.6208146981,0.7813629541,0.004577197326
7.6750,0.06370232459,0.621221753,0.7810309418,0.004026834898
7.6800,0.06382510346,0.6216382084,0.7806921616,0.003470292673
7.6850,0.06392878529,0.6220625237,0.7803479129,0.002908941621
7.6900,0.06401346,0.6224933305,0.7799992575,0.00234279086
7.6950,0.06407820487,0.6229289489,0.7796475934,0.001771560036
7.7000,0.06412361274,0.6233667331,0.7792949688,0.001195782082
7.7050,0.06415169186,0.6238065408,0.7789413218,0.0006142235812
7.7100,0.06416278071,0.6242475283,0.7785872849,2.751869699e-5
7.7150,-0.06415720189,-0.62468857,-0.7782337212,0.0005648981437
7.7200,-0.0641363033,-0.625129277,-0.7778808219,0.001161322086
7.7250,-0.06410285956,-0.625567696,-0.7775299241,0.001760160788
7.7300,-0.06405544776,-0.6260032825,-0.7771815825,0.002361727371
7.7350,-0.06399691417,-0.6264363689,-0.7768353083,0.002962190312
7.7400,-0.06392830875,-0.626865822,-0.7764919386,0.003561165443
7.7450,-0.06385021835,-0.6272914174,-0.7761516357,0.004155201702
7.7500,-0.06376315291,-0.6277134667,-0.7758141381,0.004742071855
7.7550,-0.06366673819,-0.6281318966,-0.7754795554,0.005322225638
7.7600,-0.06356095008,-0.6285473345,-0.775147431,0.005891869083
7.7650,-0.06344346147,-0.6289595218,-0.7748182052,0.006449503313
7.7700,-0.06331501823,-0.6293680243,-0.7744921821,0.006997022106
7.7750,-0.06317412435,-0.6297738682,-0.7741686929,0.007532595086
7.7800,-0.06301935491,-0.6301752899,-0.7738493213,0.008055603387
7.7850,-0.06285042241,-0.6305742896,-0.7735324698,0.008567840416
7.7900,-0.06266748128,-0.63097022,-0.7732186569,0.009070659225
7.7950,-0.06246940997,-0.6313639602,-0.7729072338,0.009567164344
7.8000,-0.0622571331,-0.6317558152,-0.7725978553,0.01005949231
7.8050,-0.06202814556,-0.6321455552,-0.7722908614,0.01055137626
7.8100,-0.06178395926,-0.6325335461,-0.7719858431,0.01104144614
7.8150,-0.06152330192,-0.6329177846,-0.7716845153,0.01153127039
7.8200,-0.06124683745,-0.6332985319,-0.7713865803,0.01202240214
7.8250,-0.06095488595,-0.6336764966,-0.7710913879,0.01251682718
7.8300,-0.06064612224,-0.6340515441,-0.7707991655,0.01301283098
7.8350,-0.06032373507,-0.6344238978,-0.770509434,0.01351210674
7.8400,-0.05998731023,-0.6347928618,-0.7702227813,0.01401471975
7.8450,-0.05963668859,-0.6351595618,-0.7699382849,0.01452011511
7.8500,-0.05927221638,-0.6355233699,-0.7696564023,0.01502907162
7.8550,-0.0588959414,-0.6358849628,-0.7693764253,0.01554021563
7.8600,-0.05850786339,-0.636245036,-0.7690977928,0.0160520751
7.8650,-0.05810825079,-0.6366037934,-0.7688203037,0.01656448364
7.8700,-0.05769687745,-0.6369624614,-0.7685429574,0.0170767601
7.8750,-0.05727310775,-0.6373214295,-0.7682655267,0.01758599187
7.8800,-0.05683690601,-0.6376818414,-0.7679870099,0.0180938653
7.8850,-0.0563854859,-0.638043918,-0.7677074272,0.01859951338
7.8900,-0.05591708524,-0.6384082498,-0.7674264111,0.01910208651
7.8950,-0.05543179813,-0.638775372,-0.767143501,0.01960073696
7.9000,-0.05492679339,-0.6391462523,-0.7668580821,0.02009471279
7.9050,-0.05439969213,-0.6395201082,-0.7665709179,0.02058476358
7.9100,-0.05384899782,-0.6398974648,-0.766281619,0.02107131569
7.9150,-0.05327432635,-0.6402787262,-0.765989782,0.02155580639
7.9200,-0.0526756049,-0.6406625018,-0.7656965054,0.02203862545
7.9250,-0.05205188366,-0.6410496464,-0.7654010952,0.02251922874
7.9300,-0.05140356077,-0.641438559,-0.7651047309,0.02299999462
7.9350,-0.0507314306,-0.6418286788,-0.7648078145,0.02347926354
7.9400,-0.05003753251,-0.6422187551,-0.7645111924,0.02395730823
7.9450,-0.04932217073,-0.6426080646,-0.7642154197,0.02443340186
7.9500,-0.04858875449,-0.6429947386,-0.7639217931,0.02490769156
7.9550,-0.04783682892,-0.6433786303,-0.7636304475,0.02537943186
7.9600,-0.04706916393,-0.6437577493,-0.763342807,0.02584981574
7.9650,-0.04628846971,-0.6441319602,-0.7630588493,0.0263170672
7.9700,-0.04549589613,-0.6445001382,-0.7627794784,0.02677989224
7.9750,-0.04469581306,-0.6448603642,-0.762506019,0.02723905123
7.9800,-0.04388773207,-0.6452139191,-0.7622375131,0.02769186193
7.9850,-0.04307482163,-0.6455595859,-0.761974782,0.02813916214
7.9900,-0.04225764869,-0.6458978488,-0.7617173401,0.02858240407
7.9950,-0.04143755218,-0.6462272456,-0.7614664301,0.02901985701
8.0000,-0.04061677719,-0.6465478627,-0.7612218609,0.0294519479
8.0050,-0.03979441098,-0.6468588254,-0.7609844711,0.02987807968
8.0100,-0.03897095348,-0.6471608681,-0.7607536347,0.03029823298
8.0150,-0.03814981598,-0.6474525693,-0.7605304595,0.03071127292
8.0200,-0.03733017144,-0.6477342605,-0.7603147408,0.03111721317
8.0250,-0.03651234783,-0.6480055852,-0.7601068002,0.03151606527
8.0300,-0.03569759142,-0.6482663039,-0.759906865,0.031906703
8.0350,-0.03488445172,-0.6485151606,-0.7597160982,0.03228949706
8.0400,-0.03407450973,-0.6487530942,-0.7595336889,0.03266383304
8.0450,-0.03326650891,-0.6489792505,-0.7593603997,0.03303112373
8.0500,-0.03246399644,-0.6491930535,-0.7591966832,0.0333895869
8.0550,-0.03166515506,-0.6493943573,-0.7590427898,0.03373914499
8.0600,-0.03087210071,-0.649582535,-0.7588991746,0.03408058654
8.0650,-0.03008613182,-0.6497574417,-0.7587659137,0.03441482027
8.0700,-0.02930786442,-0.6499182282,-0.7586438397,0.03474003798
8.0750,-0.0285382184,-0.650065393,-0.7585324722,0.03505771719
8.0800,-0.02777960312,-0.6502000825,-0.7584306975,0.03536981013
8.0850,-0.02703241973,-0.6503215595,-0.7583392864,0.03567414052
8.0900,-0.02629715575,-0.6504295047,-0.7582585042,0.0359716533
8.0950,-0.02557622235,-0.6505243312,-0.7581879744,0.03626219608
8.1000,-0.02486957241,-0.6506075059,-0.7581265185,0.0365453083
8.1050,-0.02417862742,-0.6506793658,-0.7580738094,0.0368219559
8.1100,-0.02350325856,-0.650740199,-0.7580295836,0.03709367242
8.1150,-0.02284672802,-0.6507920403,-0.7579920478,0.03736044287
8.1200,-0.02220766409,-0.6508347758,-0.7579614232,0.03762173962
8.1250,-0.02158712096,-0.6508688342,-0.7579374148,0.03787653781
8.1300,-0.02098659702,-0.6508955517,-0.7579188069,0.03812644333
8.1350,-0.02040487882,-0.6509138098,-0.7579067543,0.03836932249
8.1400,-0.01984270452,-0.6509249997,-0.7579000392,0.03860624721
8.1450,-0.01930025042,-0.6509284068,-0.7578992996,0.03883762686
8.1500,-0.01877665804,-0.6509260491,-0.7579029389,0.03906214159
8.1550,-0.01827147904,-0.6509177619,-0.7579111011,0.03928082319
8.1600,-0.0177822268,-0.6509038585,-0.7579235021,0.0394958772
8.1650,-0.01730998167,-0.6508852699,-0.7579393136,0.03970802102
8.1700,-0.01685374884,-0.6508618715,-0.7579586556,0.0399180623
8.1750,-0.01641410273,-0.6508351511,-0.7579801909,0.04012746618
8.1800,-0.01598859961,-0.6508050651,-0.7580040601,0.04033580141
8.1850,-0.01557829485,-0.6507716012,-0.7580302187,0.0405441399
8.1900,-0.01518333038,-0.6507358181,-0.758057762,0.04075280348
8.1950,-0.01480342306,-0.6506986525,-0.7580858063,0.04096379701
8.2000,-0.0144383594,-0.6506588544,-0.7581153415,0.04117909534
8.2050,-0.01408787811,-0.6506180765,-0.7581450212,0.0413977914
8.2100,-0.013753263,-0.6505762618,-0.758174807,0.04162135636
8.2150,-0.01343296774,-0.6505332427,-0.7582048531,0.04185040448
8.2200,-0.01312592953,-0.650489543,-0.758234748,0.04208481053
8.2250,-0.01283333467,-0.6504460143,-0.7582637034,0.04232545452
8.2300,-0.01255595589,-0.6504035119,-0.7582909741,0.04257250661
8.2350,-0.01229318162,-0.6503621932,-0.7583163603,0.04282748124
8.2400,-0.01204343093,-0.650322825,-0.7583392762,0.04308968811
8.2450,-0.0118088192,-0.6502864069,-0.7583587379,0.04336087406
8.2500,-0.01158738851,-0.6502522909,-0.758375307,0.04364154377
8.2550,-0.01138066259,-0.650219783,-0.7583895699,0.04393147747
8.2600,-0.01118754746,-0.6501902466,-0.7584004127,0.04423003499
8.2650,-0.01100694147,-0.6501604132,-0.7584105832,0.0445384287
8.2700,-0.01083946782,-0.6501304716,-0.7584199581,0.04485580192
8.2750,-0.01068309593,-0.6501020721,-0.7584271551,0.04518205037
8.2800,-0.01053726066,-0.6500723551,-0.7584345543,0.04551841482
8.2850,-0.01040110768,-0.6500418834,-0.7584417172,0.04586423861
8.2900,-0.01027264292,-0.6500079998,-0.7584510515,0.04621769542
8.2950,-0.01015287036,-0.6499705266,-0.7584626647,0.04657918018
8.3000,-0.01003848589,-0.6499299812,-0.7584761935,0.04694797369
8.3050,-0.009929180193,-0.6498852116,-0.7584926773,0.04732316125
8.3100,-0.009826122995,-0.6498349473,-0.7585131508,0.0477052267
8.3150,-0.009725744606,-0.6497791858,-0.7585377869,0.04809205188
8.3200,-0.009627913303,-0.6497162465,-0.7585680135,0.04848372078
8.3250,-0.009530900426,-0.6496461628,-0.7586039671,0.0488778706
8.3300,-0.00943452631,-0.649568255,-0.7586462188,0.04927460285
8.3350,-0.009338392537,-0.6494826071,-0.7586947614,0.04967289526
8.3400,-0.009241529409,-0.6493882697,-0.7587505143,0.05007121329
8.3450,-0.009142863318,-0.6492854549,-0.758813399,0.05046812415
8.3500,-0.009039787531,-0.6491731811,-0.7588842022,0.050864829
8.3550,-0.008931615277,-0.6490512933,-0.7589631724,0.05125961317
8.3600,-0.008815620037,-0.6489207675,-0.7590494698,0.05165292544
8.3650,-0.008691780034,-0.6487804106,-0.7591441649,0.05204391106
8.3700,-0.008558227203,-0.6486316962,-0.7592459761,0.05243307377
8.3750,-0.008415191221,-0.6484742047,-0.7593553642,0.05281875758
8.3800,-0.008261676967,-0.6483069115,-0.7594733459,0.05319896622
8.3850,-0.008096477765,-0.6481302584,-0.7595995018,0.0535743608
8.3900,-0.007920198217,-0.6479447401,-0.7597333865,0.05394502491
8.3950,-0.00773287677,-0.6477490865,-0.7598760663,0.05431102545
8.4000,-0.007533786135,-0.6475426717,-0.7600280737,0.0546722744
8.4050,-0.007325649267,-0.6473259493,-0.7601890594,0.05502766722
8.4100,-0.007107952528,-0.6470977435,-0.7603600018,0.05537738796
8.4150,-0.006878988603,-0.6468585936,-0.7605404664,0.05572107654
8.4200,-0.006642521556,-0.6466083959,-0.7607305166,0.05605836588
8.4250,-0.006397957379,-0.6463471254,-0.7609300883,0.05639025026
8.4300,-0.006147997034,-0.6460743425,-0.7611395923,0.05671566874
8.4350,-0.005894532505,-0.6457916944,-0.7613574437,0.05703669803
8.4400,-0.005638541254,-0.6454988865,-0.7615839421,0.05735236241
8.4450,-0.005384183985,-0.6451966756,-0.7618183868,0.0576628641
8.4500,-0.005131924118,-0.644886038,-0.7620598872,0.05796886773
8.4550,-0.00488481181,-0.6445674762,-0.7623081145,0.05826873808
8.4600,-0.004648295833,-0.6442415624,-0.7625626282,0.05856142704
8.4650,-0.004424143411,-0.6439088527,-0.7628229764,0.0588466068
8.4700,-0.004216863331,-0.643570629,-0.7630880819,0.05912396115
8.4750,-0.004027253755,-0.6432274904,-0.7633574829,0.05939301461
8.4800,-0.00385876598,-0.6428779781,-0.7636323745,0.05965410152
8.4850,-0.003710008048,-0.6425254402,-0.7639099992,0.05990665883
8.4900,-0.003582308084,-0.6421676327,-0.7641920786,0.06015285241
8.4950,-0.003475024077,-0.6418052523,-0.7644780526,0.06039246162
8.5000,-0.003387238184,-0.6414416138,-0.7647652197,0.06062459347
8.5050,-0.003318778928,-0.6410759413,-0.7650540095,0.06085216343
8.5100,-0.003267620109,-0.6407092153,-0.7653435743,0.06107566951
8.5150,-0.003233484061,-0.640341779,-0.7656335163,0.06129656812
8.5200,-0.003216970933,-0.6399747887,-0.7659224998,0.06151947067
8.5250,-0.003215910072,-0.6396084313,-0.7662102133,0.06174642928
8.5300,-0.003227999048,-0.6392419179,-0.7664973277,0.06197739183
8.5350,-0.003252408209,-0.6388759264,-0.7667830746,0.06221486174
8.5400,-0.003287802577,-0.6385111113,-0.7670667499,0.06246080549
8.5450,-0.003333296387,-0.6381467152,-0.767349052,0.06271436395
8.5500,-0.003388035844,-0.6377841699,-0.7676288616,0.06297463561
8.5550,-0.003452391845,-0.6374229458,-0.7679065301,0.06324263019
8.5600,-0.003525770453,-0.6370626164,-0.7681824305,0.06351807047
8.5650,-0.003608154769,-0.6367044675,-0.7684555729,0.06379995977
8.5700,-0.003697799278,-0.6363483097,-0.7687260374,0.06408926852
8.5750,-0.003795008661,-0.6359930963,-0.7689948117,0.06438446185
8.5800,-0.003899812449,-0.6356391057,-0.7692617372,0.06468460737
8.5850,-0.004010736091,-0.6352855412,-0.7695275442,0.06498887552
8.5900,-0.004129457657,-0.6349335702,-0.769791239,0.06529745313
8.5950,-0.004255592043,-0.6345821239,-0.7700537097,0.06561022885
8.6000,-0.004390245104,-0.6342311382,-0.770315047,0.06592660658
8.6050,-0.004533431502,-0.6338798631,-0.7705759085,0.06624602854
8.6100,-0.004683411178,-0.6335281923,-0.7708364774,0.0665674117
8.6150,-0.004838338597,-0.6331768444,-0.771096063,0.06689197168
8.6200,-0.004997694841,-0.6328245971,-0.7713557866,0.06721832201
8.6250,-0.00515781125,-0.6324706873,-0.7716162178,0.06754731002
8.6300,-0.005318045582,-0.6321150947,-0.7718774558,0.06787796884
8.6350,-0.005476323217,-0.6317566728,-0.7721404701,0.06821004887
8.6400,-0.005631670316,-0.63139484,-0.7724055678,0.0685454527
8.6450,-0.005783232261,-0.6310292235,-0.7726730464,0.06888422708
8.6500,-0.005930275335,-0.6306612944,-0.7729417727,0.06922557042
8.6550,-0.006074871453,-0.6302902633,-0.7732123936,0.06956920513
8.6600,-0.006214764869,-0.629914284,-0.7734864884,0.06991440269
8.6650,-0.006352467567,-0.6295343022,-0.7737631863,0.070261939
8.6700,-0.006488177718,-0.6291508755,-0.7740420965,0.07061099162
8.6750,-0.006620945019,-0.6287631484,-0.7743237517,0.07096332761
8.6800,-0.00675045815,-0.6283716962,-0.7746076696,0.07131900758
8.6850,-0.006877778222,-0.6279751515,-0.7748947403,0.07168016992
8.6900,-0.007001465074,-0.627573657,-0.7751848883,0.07204632867
8.6950,-0.007123245813,-0.627168462,-0.7754770152,0.07241808136
8.7000,-0.007243465226,-0.626759109,-0.7757714477,0.07279568961
8.7050,-0.007361924686,-0.6263458408,-0.7760678988,0.07317995789
8.7100,-0.007480471558,-0.6259295707,-0.7763656,0.07357085157
8.7150,-0.007600509317,-0.6255094941,-0.7766651118,0.07396897443
8.7200,-0.007723300933,-0.6250873004,-0.7769649825,0.07437495238
8.7250,-0.007852213255,-0.6246635821,-0.7772647978,0.07478760651
8.7300,-0.007987423922,-0.6242378761,-0.7775647528,0.07520857869
8.7350,-0.008131103797,-0.6238103787,-0.7778647654,0.07563665266
8.7400,-0.008286241613,-0.6233818751,-0.7781640962,0.07607243446
8.7450,-0.008452204364,-0.6229530479,-0.7784622586,0.07651517648
8.7500,-0.008631323384,-0.6225237864,-0.7787591839,0.07696602566
8.7550,-0.008824696107,-0.6220946474,-0.7790543062,0.07742585159
8.7600,-0.009031293684,-0.6216662284,-0.7793472607,0.07789341162
8.7650,-0.009250575505,-0.6212378376,-0.779638674,0.07836781148
8.7700,-0.009479928776,-0.6208102335,-0.7799279359,0.07884922155
8.7750,-0.009721171217,-0.6203825768,-0.7802157434,0.0793369461
8.7800,-0.009972960289,-0.6199571147,-0.7805002494,0.07983155198
8.7850,-0.01023679185,-0.6195326916,-0.7807822109,0.08033424683
8.7900,-0.01051186919,-0.6191108895,-0.7810603198,0.08084543271
8.7950,-0.01079817341,-0.6186914633,-0.7813347108,0.08136548619
8.8000,-0.0110948833,-0.6182728684,-0.7816064006,0.08189626558
8.8050,-0.01140028109,-0.6178548966,-0.7818756168,0.08243712805
8.8100,-0.01171349208,-0.6174370729,-0.7821426626,0.08298861604
8.8150,-0.0120339257,-0.6170201475,-0.782407025,0.08354980162
8.8200,-0.01235986476,-0.6166028715,-0.7826701333,0.08411655608
8.8250,-0.01268966583,-0.6161853082,-0.7829318496,0.08468977037
8.8300,-0.01302339988,-0.6157675265,-0.7831920705,0.08526971974
8.8350,-0.0133614153,-0.6153492216,-0.7834513258,0.08585352761
8.8400,-0.01370178381,-0.6149283875,-0.7837112933,0.08644043115
8.8450,-0.01404343801,-0.6145051732,-0.7839718895,0.08703016983
8.8500,-0.0143846927,-0.6140784126,-0.7842339714,0.0876234092
8.8550,-0.01472598102,-0.613648668,-0.7844974977,0.08821640382
8.8600,-0.01506653876,-0.6132155492,-0.7847628033,0.08880896446
8.8650,-0.01540781474,-0.6127792546,-0.7850298316,0.08939993217
8.8700,-0.01575073462,-0.6123397276,-0.7852989278,0.08998647825
8.8750,-0.01609430738,-0.6118976173,-0.7855694337,0.09057010521
8.8800,-0.01644094089,-0.6114528901,-0.7858414653,0.09114960206
8.8850,-0.01679101766,-0.6110058731,-0.7861147396,0.09172513825
8.8900,-0.01714526886,-0.610556011,-0.7863898258,0.09229538997
8.8950,-0.01750229917,-0.6101044837,-0.7866660701,0.09285840095
8.9000,-0.01786052469,-0.6096492944,-0.786945315,0.09341204766
8.9050,-0.01821979142,-0.6091922026,-0.7872261162,0.09395712629
8.9100,-0.01857997302,-0.6087320828,-0.7875093541,0.09449366704
8.9150,-0.01894176245,-0.6082682084,-0.7877957125,0.09502058531
8.9200,-0.01930496806,-0.6078006588,-0.788085092,0.09553829143
8.9250,-0.0196703653,-0.6073295852,-0.7883771991,0.0960481315
8.9300,-0.02003670487,-0.6068553425,-0.7886718738,0.09654946464
8.9350,-0.02040324204,-0.6063775883,-0.7889690811,0.09704492419
8.9400,-0.02076940754,-0.605897147,-0.7892683413,0.09753340145
8.9450,-0.02113455129,-0.6054144545,-0.7895694031,0.09801442119
8.9500,-0.02149917406,-0.6049285793,-0.7898729091,0.09848851145
8.9550,-0.02186170541,-0.6044409763,-0.7901777286,0.09895619903
8.9600,-0.02222216916,-0.6039513801,-0.7904841942,0.0994165195
8.9650,-0.02257906875,-0.603459327,-0.7907925126,0.09987105865
8.9700,-0.02293235046,-0.6029644598,-0.7911028358,0.1003208392
8.9750,-0.02328261781,-0.6024673463,-0.7914147269,0.1007657999
8.9800,-0.02363082955,-0.6019687731,-0.791727537,0.1012061622
8.9850,-0.02397847288,-0.6014696743,-0.7920406777,0.1016406833
8.9900,-0.02432778043,-0.6009688621,-0.7923549235,0.1020698832
8.9950,-0.02467795747,-0.6004671051,-0.7926698917,0.1024924234
9.0000,-0.02502976078,-0.5999633565,-0.7929862279,0.1029093015
9.0050,-0.02538346035,-0.5994572426,-0.7933042604,0.1033201077
9.0100,-0.02573996798,-0.5989497113,-0.7936230593,0.1037262605
9.0150,-0.02609912544,-0.5984402142,-0.7939431408,0.1041270132
9.0200,-0.02646024432,-0.5979279,-0.7942648165,0.104525036
9.0250,-0.02682420859,-0.5974128889,-0.7945876613,0.1049225933
9.0300,-0.02719040936,-0.5968957233,-0.7949110296,0.1053215654
9.0350,-0.02756010132,-0.5963764822,-0.7952344765,0.1057244515
9.0400,-0.02793255785,-0.5958552423,-0.7955578699,0.1061318899
9.0450,-0.02831007528,-0.5953326689,-0.7958805437,0.1065444184
9.0500,-0.02869333848,-0.59480685,-0.7962039306,0.1069616963
9.0550,-0.02908171181,-0.5942784638,-0.7965275761,0.107383342
9.0600,-0.02947650424,-0.5937465164,-0.7968518631,0.1078114939
9.0650,-0.02987758417,-0.5932112729,-0.7971764739,0.1082468707
9.0700,-0.0302864492,-0.5926707355,-0.7975028024,0.1086895139
9.0750,-0.03070103475,-0.5921262865,-0.7978295064,0.1091420452
9.0800,-0.03112181519,-0.5915769258,-0.7981575778,0.1096022559
9.0850,-0.03155029899,-0.5910214248,-0.7984877341,0.1100708525
9.0900,-0.0319858974,-0.5904612511,-0.7988193085,0.1105446773
9.0950,-0.03242893053,-0.5898959105,-0.7991525316,0.111024369
9.1000,-0.03288018766,-0.5893249292,-0.7994877838,0.1115092129
9.1050,-0.03333837048,-0.5887488736,-0.7998247225,0.1119987954
9.1100,-0.03380393901,-0.588167932,-0.8001631124,0.112493427
9.1150,-0.03427573723,-0.5875827445,-0.8005022237,0.1129950537
9.1200,-0.03475460782,-0.586992668,-0.8008421704,0.1135056962
9.1250,-0.03524080884,-0.5863979463,-0.8011829148,0.114023993
9.1300,-0.03573291483,-0.5857983595,-0.8015246432,0.114549933
9.1350,-0.03623054621,-0.5851958624,-0.8018657323,0.115084741
9.1400,-0.03673546096,-0.5845901918,-0.8022063676,0.1156276664
9.1450,-0.03724852797,-0.5839832891,-0.8025449852,0.1161792236
9.1500,-0.03777013515,-0.5833755484,-0.8028811337,0.1167401884
9.1550,-0.03829937713,-0.5827664997,-0.8032148073,0.1173129914
9.1600,-0.03883831743,-0.5821568586,-0.8035456291,0.1178957129
9.1650,-0.03938528439,-0.581546132,-0.8038737977,0.1184897168
9.1700,-0.03994012843,-0.5809344912,-0.8041992018,0.1190946973
9.1750,-0.04050409062,-0.5803217456,-0.8045222075,0.1197084285
9.1800,-0.0410763641,-0.5797078027,-0.8048427709,0.1203316662
9.1850,-0.04165657227,-0.5790913104,-0.8051619739,0.1209635482
9.1900,-0.04224154853,-0.5784719389,-0.8054800932,0.1216046336
9.1950,-0.0428299217,-0.5778486242,-0.805797717,0.1222563067
9.2000,-0.04342223544,-0.5772213751,-0.8061148294,0.1229181659
9.2050,-0.04401681052,-0.5765886511,-0.8064328112,0.1235887087
9.2100,-0.04461139514,-0.5759505762,-0.8067517796,0.1242671449
9.2150,-0.04520672705,-0.5753072186,-0.8070715856,0.1249536383
9.2200,-0.04580146282,-0.5746591095,-0.8073921879,0.1256462844
9.2250,-0.0463945531,-0.574005854,-0.8077139924,0.1263444952
9.2300,-0.04698652715,-0.5733470812,-0.8080370813,0.1270490691
9.2350,-0.04757713052,-0.572683756,-0.808361054,0.1277581257
9.2400,-0.04816641946,-0.5720156109,-0.808686242,0.1284706151
9.2450,-0.04875440188,-0.5713435046,-0.809011995,0.1291866867
9.2500,-0.04934099855,-0.5706679757,-0.8093377958,0.1299071195
9.2550,-0.04992582092,-0.569987754,-0.8096646469,0.1306312834
9.2600,-0.05050988028,-0.5693043921,-0.8099910924,0.1313609201
9.2650,-0.05109015247,-0.568617907,-0.8103174851,0.1320948349
9.2700,-0.05166662202,-0.5679281449,-0.8106442719,0.1328308957
9.2750,-0.05223880927,-0.5672352758,-0.8109714729,0.1335684052
9.2800,-0.05280788803,-0.5665381694,-0.8112997522,0.1343076379
9.2850,-0.05337171859,-0.5658382751,-0.8116283342,0.1350479661
9.2900,-0.05393000422,-0.5651357993,-0.8119572129,0.1357886866
9.2950,-0.05448265089,-0.5644304315,-0.8122865213,0.1365303484
9.3000,-0.05503014706,-0.5637228287,-0.8126158557,0.1372724534
9.3050,-0.0555714585,-0.5630133621,-0.8129446603,0.1380171961
9.3100,-0.05610629549,-0.5623008904,-0.8132739658,0.1387632833
9.3150,-0.05663303966,-0.5615855814,-0.8136033226,0.139513322
9.3200,-0.05715283981,-0.560867361,-0.8139329946,0.1402655928
9.3250,-0.05766282016,-0.5601460221,-0.8142634902,0.1410191531
9.3300,-0.05816380633,-0.5594216678,-0.8145949818,0.1417722996
9.3350,-0.05865312946,-0.5586954162,-0.8149271126,0.142523835
9.3400,-0.05913179756,-0.557967547,-0.8152596892,0.1432734663
9.3450,-0.05959662251,-0.5572379649,-0.8155929884,0.1440214229
9.3500,-0.06004995021,-0.5565080709,-0.8159258251,0.1447681542
9.3550,-0.06049170152,-0.5557784162,-0.8162575615,0.1455152893
9.3600,-0.06092311082,-0.5550509148,-0.8165870276,0.1462616932
9.3650,-0.0613455202,-0.5543269207,-0.8169132738,0.1470071264
9.3700,-0.06176082644,-0.55360899,-0.8172344056,0.1477518623
9.3750,-0.06217094024,-0.5528975526,-0.8175503583,0.1484940477
9.3800,-0.06257902025,-0.5521940911,-0.8178598091,0.1492343282
9.3850,-0.06298540847,-0.5515004869,-0.8181615172,0.1499726074
9.3900,-0.06339196591,-0.5508169605,-0.8184549569,0.1507103783
9.3950,-0.06380106059,-0.5501441925,-0.8187396477,0.1514469588
9.4000,-0.0642137446,-0.5494833998,-0.8190145135,0.1521834913
9.4050,-0.06463295855,-0.548835814,-0.8192786872,0.1529191375
9.4100,-0.06506062859,-0.5482010456,-0.8195322473,0.1536542351
9.4150,-0.06549699932,-0.5475776762,-0.8197763769,0.1543875752
9.4200,-0.06594069634,-0.5469669115,-0.820010294,0.1551197601
9.4250,-0.06639207012,-0.5463676241,-0.8202347069,0.1558510121
9.4300,-0.06685065711,-0.5457796697,-0.8204495833,0.1565823203
9.4350,-0.06731754554,-0.5452019926,-0.8206554771,0.157314091
9.4400,-0.06779222078,-0.5446355669,-0.8208515619,0.1580475483
9.4450,-0.06827433911,-0.5440774109,-0.8210398269,0.1587828334
9.4500,-0.06876517614,-0.5435275662,-0.8212201126,0.1595200991
9.4550,-0.06926387619,-0.542986026,-0.8213924743,0.160259459
9.4600,-0.06976893562,-0.5424507468,-0.8215579435,0.1610031936
9.4650,-0.07028167046,-0.5419207105,-0.8217170933,0.1617511944
9.4700,-0.07080159902,-0.5413950307,-0.8218702844,0.1625047381
9.4750,-0.07132830019,-0.5408708503,-0.8220189832,0.1632660045
9.4800,-0.07186058125,-0.540348053,-0.8221636722,0.164033334
9.4850,-0.07239962448,-0.5398265296,-0.8223043469,0.1648064726
9.4900,-0.07294638678,-0.5393062267,-0.8224412849,0.1655836686
9.4950,-0.07350215249,-0.5387860665,-0.8225751425,0.1663644885
9.5000,-0.074066187,-0.5382657459,-0.8227060542,0.1671494397
9.5050,-0.07463832221,-0.5377445744,-0.8228344756,0.167938439
9.5100,-0.075219925,-0.5372221532,-0.822960663,0.1687307567
9.5150,-0.07581056123,-0.5366968951,-0.823085773,0.1695258444
9.5200,-0.07640933436,-0.5361696957,-0.8232090617,0.1703247247
9.5250,-0.07701809647,-0.5356391973,-0.8233313114,0.1711268965
9.5300,-0.07763606194,-0.5351051373,-0.8234527735,0.1719321487
9.5350,-0.07826509758,-0.5345679569,-0.8235730913,0.1727397963
9.5400,-0.07890490037,-0.5340271602,-0.8236925146,0.1735501376
9.5450,-0.07955438662,-0.5334820205,-0.8238110997,0.1743654363
9.5500,-0.08021204641,-0.5329323816,-0.8239294836,0.1751836476
9.5550,-0.08087887662,-0.5323802371,-0.8240461355,0.1760052755
9.5600,-0.08155396984,-0.5318251202,-0.8241612739,0.1768309537
9.5650,-0.08223835233,-0.5312682019,-0.8242743143,0.177659241
9.5700,-0.0829332152,-0.5307098864,-0.8243842355,0.1784929426
9.5750,-0.08363861639,-0.530150655,-0.8244909564,0.1793307775
9.5800,-0.08435257733,-0.5295909484,-0.8245946072,0.1801715955
