type,name,time_units,begin_time,frequency,count,units
signal,"Noraxon Ultium-RT BICEPS BR.","s",0.00000,2000,51720,"uV"

time,value
0.00000,0.6674316482
0.00050,0.6674316482
0.00100,0.6674316482
0.00150,1.277820464
0.00200,1.888209279
0.00250,2.193403687
0.00300,2.193403687
0.00350,1.583014871
0.00400,0.3622372405
0.00450,-0.8585403903
0.00500,-0.8585403903
0.00550,0.3622372405
0.00600,1.277820464
0.00650,0.6674316482
0.00700,-0.5533459826
0.00750,-0.5533459826
0.00800,0.05704283282
0.00850,0.05704283282
0.00900,-0.5533459826
0.00950,-0.8585403903
0.01000,-0.5533459826
0.01050,0.05704283282
0.01100,0.3622372405
0.01150,0.05704283282
0.01200,-0.2481515749
0.01250,0.05704283282
0.01300,1.888209279
0.01350,2.498598094
0.01400,1.583014871
0.01450,0.3622372405
0.01500,0.05704283282
0.01550,0.6674316482
0.01600,0.9726260559
0.01650,0.9726260559
0.01700,0.9726260559
0.01750,1.277820464
0.01800,0.05704283282
0.01850,-1.163734798
0.01900,-1.163734798
0.01950,0.05704283282
0.02000,0.6674316482
0.02050,0.9726260559
0.02100,1.583014871
0.02150,2.803792502
0.02200,3.414181318
0.02250,3.10898691
0.02300,2.498598094
0.02350,2.498598094
0.02400,2.498598094
0.02450,2.498598094
0.02500,2.498598094
0.02550,2.803792502
0.02600,2.498598094
0.02650,1.583014871
0.02700,1.277820464
0.02750,1.888209279
0.02800,2.498598094
0.02850,2.193403687
0.02900,0.9726260559
0.02950,0.3622372405
0.03000,0.05704283282
0.03050,0.05704283282
0.03100,0.6674316482
0.03150,1.583014871
0.03200,2.193403687
0.03250,0.9726260559
0.03300,-0.2481515749
0.03350,-0.5533459826
0.03400,0.05704283282
0.03450,0.3622372405
0.03500,0.3622372405
0.03550,0.3622372405
0.03600,0.3622372405
0.03650,0.3622372405
0.03700,0.3622372405
0.03750,0.9726260559
0.03800,1.888209279
0.03850,1.583014871
0.03900,0.05704283282
0.03950,-1.468929206
0.04000,-1.468929206
0.04050,0.05704283282
0.04100,1.583014871
0.04150,2.193403687
0.04200,2.498598094
0.04250,2.193403687
0.04300,2.193403687
0.04350,1.888209279
0.04400,1.888209279
0.04450,1.888209279
0.04500,1.888209279
0.04550,1.583014871
0.04600,1.583014871
0.04650,1.583014871
0.04700,2.498598094
0.04750,3.10898691
0.04800,2.498598094
0.04850,0.9726260559
0.04900,0.05704283282
0.04950,0.3622372405
0.05000,0.3622372405
0.05050,-0.2481515749
0.05100,-1.163734798
0.05150,0.05704283282
0.05200,1.277820464
0.05250,1.277820464
0.05300,-0.2481515749
0.05350,-1.163734798
0.05400,-0.8585403903
0.05450,-0.2481515749
0.05500,-0.8585403903
0.05550,-0.8585403903
0.05600,-0.8585403903
0.05650,-1.163734798
0.05700,-2.079318021
0.05750,-2.079318021
0.05800,-1.163734798
0.05850,-0.8585403903
0.05900,-2.079318021
0.05950,-2.994901244
0.06000,-2.384512429
0.06050,-1.163734798
0.06100,-0.8585403903
0.06150,-1.163734798
0.06200,-1.468929206
0.06250,-1.468929206
0.06300,-1.774123613
0.06350,-1.774123613
0.06400,-1.468929206
0.06450,-1.163734798
0.06500,-1.163734798
0.06550,-0.8585403903
0.06600,-0.8585403903
0.06650,-1.774123613
0.06700,-2.384512429
0.06750,-1.774123613
0.06800,0.05704283282
0.06850,1.277820464
0.06900,0.9726260559
0.06950,0.05704283282
0.07000,-1.774123613
0.07050,-2.689706836
0.07100,-2.384512429
0.07150,-1.468929206
0.07200,-0.5533459826
0.07250,-0.2481515749
0.07300,-0.2481515749
0.07350,0.05704283282
0.07400,0.05704283282
0.07450,0.05704283282
0.07500,-0.5533459826
0.07550,-1.163734798
0.07600,-0.8585403903
0.07650,-1.163734798
0.07700,-1.774123613
0.07750,-1.774123613
0.07800,-0.8585403903
0.07850,-0.2481515749
0.07900,-1.163734798
0.07950,-2.079318021
0.08000,-2.689706836
0.08050,-2.384512429
0.08100,-1.774123613
0.08150,-1.774123613
0.08200,-2.079318021
0.08250,-2.079318021
0.08300,-2.384512429
0.08350,-2.384512429
0.08400,-2.079318021
0.08450,-2.079318021
0.08500,-2.689706836
0.08550,-2.994901244
0.08600,-2.384512429
0.08650,-0.8585403903
0.08700,-0.2481515749
0.08750,-1.163734798
0.08800,-2.384512429
0.08850,-2.689706836
0.08900,-2.079318021
0.08950,-1.468929206
0.09000,-1.163734798
0.09050,-0.5533459826
0.09100,-0.2481515749
0.09150,-0.5533459826
0.09200,-0.8585403903
0.09250,-0.8585403903
0.09300,-0.2481515749
0.09350,-1.163734798
0.09400,-2.384512429
0.09450,-2.079318021
0.09500,-0.2481515749
0.09550,0.6674316482
0.09600,0.05704283282
0.09650,0.05704283282
0.09700,1.583014871
0.09750,3.10898691
0.09800,2.803792502
0.09850,1.277820464
0.09900,0.9726260559
0.09950,1.583014871
0.10000,1.583014871
0.10050,0.6674316482
0.10100,0.05704283282
0.10150,0.05704283282
0.10200,0.05704283282
0.10250,0.05704283282
0.10300,-0.5533459826
0.10350,-0.8585403903
0.10400,-0.8585403903
0.10450,-0.8585403903
0.10500,-0.8585403903
0.10550,-0.8585403903
0.10600,-1.163734798
0.10650,-1.163734798
0.10700,-0.5533459826
0.10750,-0.2481515749
0.10800,0.05704283282
0.10850,0.05704283282
0.10900,-0.5533459826
0.10950,-1.468929206
0.11000,-1.774123613
0.11050,-1.163734798
0.11100,0.05704283282
0.11150,0.9726260559
0.11200,0.9726260559
0.11250,0.3622372405
0.11300,0.05704283282
0.11350,0.3622372405
0.11400,0.3622372405
0.11450,0.05704283282
0.11500,-0.5533459826
0.11550,-0.5533459826
0.11600,0.05704283282
0.11650,0.6674316482
0.11700,0.6674316482
0.11750,0.05704283282
0.11800,-1.774123613
0.11850,-2.994901244
0.11900,-2.994901244
0.11950,-2.079318021
0.12000,-1.163734798
0.12050,0.05704283282
0.12100,0.3622372405
0.12150,0.05704283282
0.12200,-0.5533459826
0.12250,-0.8585403903
0.12300,0.05704283282
0.12350,0.6674316482
0.12400,0.3622372405
0.12450,-0.5533459826
0.12500,-0.8585403903
0.12550,-0.2481515749
0.12600,0.3622372405
0.12650,0.05704283282
0.12700,0.05704283282
0.12750,0.05704283282
0.12800,-0.2481515749
0.12850,-1.468929206
0.12900,-2.689706836
0.12950,-2.079318021
0.13000,-1.468929206
0.13050,-2.079318021
0.13100,-3.300095652
0.13150,-3.300095652
0.13200,-1.774123613
0.13250,-0.8585403903
0.13300,-1.468929206
0.13350,-2.384512429
0.13400,-3.300095652
0.13450,-3.60529006
0.13500,-3.300095652
0.13550,-2.079318021
0.13600,-1.163734798
0.13650,-1.468929206
0.13700,-2.994901244
0.13750,-2.994901244
0.13800,-1.774123613
0.13850,-0.5533459826
0.13900,-0.8585403903
0.13950,-1.163734798
0.14000,-1.163734798
0.14050,-1.468929206
0.14100,-1.774123613
0.14150,-0.5533459826
0.14200,0.6674316482
0.14250,0.6674316482
0.14300,-0.5533459826
0.14350,-1.163734798
0.14400,0.3622372405
0.14450,1.583014871
0.14500,0.3622372405
0.14550,-0.8585403903
0.14600,0.05704283282
0.14650,1.583014871
0.14700,2.193403687
0.14750,1.583014871
0.14800,1.583014871
0.14850,2.193403687
0.14900,1.583014871
0.14950,0.6674316482
0.15000,0.9726260559
0.15050,2.803792502
0.15100,3.719375725
0.15150,2.803792502
0.15200,1.277820464
0.15250,0.6674316482
0.15300,0.9726260559
0.15350,2.193403687
0.15400,3.10898691
0.15450,2.803792502
0.15500,1.583014871
0.15550,1.583014871
0.15600,3.414181318
0.15650,4.940153356
0.15700,4.634958948
0.15750,3.10898691
0.15800,2.803792502
0.15850,3.719375725
0.15900,4.024570133
0.15950,3.10898691
0.16000,1.888209279
0.16050,1.583014871
0.16100,2.193403687
0.16150,2.803792502
0.16200,3.10898691
0.16250,2.803792502
0.16300,2.803792502
0.16350,3.10898691
0.16400,3.414181318
0.16450,3.414181318
0.16500,2.803792502
0.16550,2.193403687
0.16600,2.498598094
0.16650,2.803792502
0.16700,2.498598094
0.16750,1.888209279
0.16800,1.888209279
0.16850,1.583014871
0.16900,1.277820464
0.16950,0.3622372405
0.17000,-0.2481515749
0.17050,-0.5533459826
0.17100,0.05704283282
0.17150,0.6674316482
0.17200,0.9726260559
0.17250,0.3622372405
0.17300,-0.2481515749
0.17350,-0.5533459826
0.17400,-0.2481515749
0.17450,-0.2481515749
0.17500,-0.2481515749
0.17550,0.05704283282
0.17600,1.277820464
0.17650,1.277820464
0.17700,0.3622372405
0.17750,0.05704283282
0.17800,0.9726260559
0.17850,1.888209279
0.17900,1.583014871
0.17950,0.9726260559
0.18000,0.6674316482
0.18050,0.9726260559
0.18100,0.9726260559
0.18150,0.9726260559
0.18200,0.9726260559
0.18250,0.6674316482
0.18300,0.05704283282
0.18350,-0.2481515749
0.18400,0.05704283282
0.18450,0.6674316482
0.18500,0.9726260559
0.18550,0.05704283282
0.18600,-0.5533459826
0.18650,-0.8585403903
0.18700,-0.5533459826
0.18750,0.3622372405
0.18800,1.277820464
0.18850,0.9726260559
0.18900,0.05704283282
0.18950,-0.5533459826
0.19000,0.05704283282
0.19050,1.888209279
0.19100,2.803792502
0.19150,2.498598094
0.19200,2.193403687
0.19250,1.888209279
0.19300,1.583014871
0.19350,1.277820464
0.19400,0.9726260559
0.19450,0.3622372405
0.19500,0.05704283282
0.19550,-0.5533459826
0.19600,-0.5533459826
0.19650,0.05704283282
0.19700,0.05704283282
0.19750,-0.5533459826
0.19800,-0.8585403903
0.19850,0.05704283282
0.19900,0.9726260559
0.19950,1.277820464
0.20000,0.6674316482
0.20050,0.3622372405
0.20100,0.3622372405
0.20150,0.3622372405
0.20200,0.3622372405
0.20250,0.3622372405
0.20300,0.05704283282
0.20350,-0.2481515749
0.20400,-0.8585403903
0.20450,-1.468929206
0.20500,-1.774123613
0.20550,-1.468929206
0.20600,-0.2481515749
0.20650,0.6674316482
0.20700,0.3622372405
0.20750,-0.8585403903
0.20800,-1.468929206
0.20850,-0.5533459826
0.20900,0.05704283282
0.20950,0.05704283282
0.21000,-0.8585403903
0.21050,0.05704283282
0.21100,1.277820464
0.21150,1.888209279
0.21200,0.9726260559
0.21250,0.05704283282
0.21300,0.05704283282
0.21350,-0.5533459826
0.21400,-1.468929206
0.21450,-1.468929206
0.21500,-0.8585403903
0.21550,-0.2481515749
0.21600,-0.2481515749
0.21650,0.05704283282
0.21700,0.05704283282
0.21750,-0.2481515749
0.21800,-0.8585403903
0.21850,-0.5533459826
0.21900,-0.5533459826
0.21950,-0.5533459826
0.22000,-0.2481515749
0.22050,0.3622372405
0.22100,0.6674316482
0.22150,-0.2481515749
0.22200,-2.079318021
0.22250,-2.384512429
0.22300,-0.8585403903
0.22350,-0.5533459826
0.22400,-1.468929206
0.22450,-2.079318021
0.22500,-0.8585403903
0.22550,0.3622372405
0.22600,0.9726260559
0.22650,0.6674316482
0.22700,0.05704283282
0.22750,0.05704283282
0.22800,-0.5533459826
0.22850,-0.2481515749
0.22900,0.05704283282
0.22950,0.3622372405
0.23000,-0.2481515749
0.23050,-0.8585403903
0.23100,0.05704283282
0.23150,1.888209279
0.23200,2.498598094
0.23250,0.9726260559
0.23300,-0.2481515749
0.23350,-0.2481515749
0.23400,0.6674316482
0.23450,0.9726260559
0.23500,1.277820464
0.23550,1.583014871
0.23600,2.193403687
0.23650,2.193403687
0.23700,1.277820464
0.23750,0.3622372405
0.23800,0.05704283282
0.23850,0.3622372405
0.23900,0.6674316482
0.23950,1.277820464
0.24000,2.193403687
0.24050,2.193403687
0.24100,1.888209279
0.24150,1.888209279
0.24200,2.193403687
0.24250,2.193403687
0.24300,1.277820464
0.24350,0.6674316482
0.24400,0.9726260559
0.24450,1.277820464
0.24500,0.6674316482
0.24550,0.05704283282
0.24600,0.05704283282
0.24650,0.3622372405
0.24700,-0.2481515749
0.24750,-1.163734798
0.24800,-0.8585403903
0.24850,0.05704283282
0.24900,-0.2481515749
0.24950,-1.774123613
0.25000,-1.774123613
0.25050,-0.2481515749
0.25100,0.6674316482
0.25150,0.6674316482
0.25200,0.3622372405
0.25250,0.3622372405
0.25300,0.3622372405
0.25350,0.05704283282
0.25400,-0.2481515749
0.25450,-0.2481515749
0.25500,0.05704283282
0.25550,0.6674316482
0.25600,1.277820464
0.25650,1.277820464
0.25700,0.3622372405
0.25750,0.05704283282
0.25800,0.3622372405
0.25850,1.583014871
0.25900,1.583014871
0.25950,0.3622372405
0.26000,0.05704283282
0.26050,0.6674316482
0.26100,1.277820464
0.26150,0.6674316482
0.26200,0.6674316482
0.26250,0.6674316482
0.26300,0.05704283282
0.26350,-1.468929206
0.26400,-2.384512429
0.26450,-1.774123613
0.26500,-1.163734798
0.26550,-1.163734798
0.26600,-1.468929206
0.26650,-1.163734798
0.26700,-0.8585403903
0.26750,-0.8585403903
0.26800,-0.8585403903
0.26850,-0.8585403903
0.26900,-1.163734798
0.26950,-2.079318021
0.27000,-2.994901244
0.27050,-3.300095652
0.27100,-3.300095652
0.27150,-2.689706836
0.27200,-1.163734798
0.27250,0.05704283282
0.27300,0.3622372405
0.27350,-0.5533459826
0.27400,-1.163734798
0.27450,0.05704283282
0.27500,0.9726260559
0.27550,0.6674316482
0.27600,0.05704283282
0.27650,-0.5533459826
0.27700,-0.5533459826
0.27750,-0.8585403903
0.27800,-2.079318021
0.27850,-2.384512429
0.27900,-2.689706836
0.27950,-3.60529006
0.28000,-3.910484467
0.28050,-2.689706836
0.28100,-0.8585403903
0.28150,-0.2481515749
0.28200,-0.8585403903
0.28250,-0.8585403903
0.28300,-0.2481515749
0.28350,-0.5533459826
0.28400,-1.774123613
0.28450,-2.384512429
0.28500,-1.163734798
0.28550,-0.2481515749
0.28600,-0.5533459826
0.28650,-2.079318021
0.28700,-2.994901244
0.28750,-2.384512429
0.28800,-0.8585403903
0.28850,0.6674316482
0.28900,0.9726260559
0.28950,-0.5533459826
0.29000,-2.689706836
0.29050,-2.689706836
0.29100,-1.163734798
0.29150,-0.8585403903
0.29200,-2.079318021
0.29250,-2.384512429
0.29300,-1.163734798
0.29350,0.05704283282
0.29400,-0.5533459826
0.29450,-1.774123613
0.29500,-0.5533459826
0.29550,1.583014871
0.29600,2.193403687
0.29650,1.277820464
0.29700,0.3622372405
0.29750,0.3622372405
0.29800,0.3622372405
0.29850,0.05704283282
0.29900,0.3622372405
0.29950,1.583014871
0.30000,1.583014871
0.30050,0.05704283282
0.30100,-0.8585403903
0.30150,0.05704283282
0.30200,1.583014871
0.30250,2.193403687
0.30300,1.277820464
0.30350,-0.2481515749
0.30400,-1.468929206
0.30450,-1.774123613
0.30500,-1.468929206
0.30550,-0.2481515749
0.30600,0.3622372405
0.30650,0.6674316482
0.30700,0.6674316482
0.30750,0.6674316482
0.30800,0.6674316482
0.30850,0.3622372405
0.30900,0.05704283282
0.30950,0.3622372405
0.31000,0.3622372405
0.31050,0.3622372405
0.31100,0.6674316482
0.31150,1.277820464
0.31200,1.583014871
0.31250,0.9726260559
0.31300,0.05704283282
0.31350,0.05704283282
0.31400,0.6674316482
0.31450,0.9726260559
0.31500,0.6674316482
0.31550,0.6674316482
0.31600,0.9726260559
0.31650,0.9726260559
0.31700,0.6674316482
0.31750,0.6674316482
0.31800,1.277820464
0.31850,1.277820464
0.31900,1.277820464
0.31950,1.277820464
0.32000,1.583014871
0.32050,0.9726260559
0.32100,0.6674316482
0.32150,0.6674316482
0.32200,0.9726260559
0.32250,0.05704283282
0.32300,-1.163734798
0.32350,-1.774123613
0.32400,-0.8585403903
0.32450,-0.2481515749
0.32500,-0.2481515749
0.32550,-0.2481515749
0.32600,0.05704283282
0.32650,-0.2481515749
0.32700,-0.8585403903
0.32750,-1.163734798
0.32800,-0.5533459826
0.32850,0.05704283282
0.32900,0.05704283282
0.32950,0.05704283282
0.33000,0.05704283282
0.33050,-0.2481515749
0.33100,-0.5533459826
0.33150,0.05704283282
0.33200,0.9726260559
0.33250,0.6674316482
0.33300,-0.5533459826
0.33350,-1.163734798
0.33400,0.05704283282
0.33450,0.6674316482
0.33500,0.6674316482
0.33550,0.3622372405
0.33600,0.05704283282
0.33650,-0.2481515749
0.33700,-1.468929206
0.33750,-1.774123613
0.33800,-0.8585403903
0.33850,0.05704283282
0.33900,-0.2481515749
0.33950,-1.163734798
0.34000,-1.468929206
0.34050,-1.468929206
0.34100,-1.468929206
0.34150,-0.5533459826
0.34200,0.3622372405
0.34250,0.3622372405
0.34300,-0.5533459826
0.34350,-0.8585403903
0.34400,0.6674316482
0.34450,1.888209279
0.34500,1.277820464
0.34550,0.05704283282
0.34600,0.05704283282
0.34650,0.3622372405
0.34700,0.05704283282
0.34750,-0.2481515749
0.34800,0.6674316482
0.34850,2.193403687
0.34900,2.193403687
0.34950,0.6674316482
0.35000,0.05704283282
0.35050,1.277820464
0.35100,3.10898691
0.35150,3.10898691
0.35200,1.888209279
0.35250,0.6674316482
0.35300,1.583014871
0.35350,3.10898691
0.35400,3.414181318
0.35450,1.888209279
0.35500,0.05704283282
0.35550,0.05704283282
0.35600,2.803792502
0.35650,4.024570133
0.35700,2.193403687
0.35750,0.05704283282
0.35800,0.6674316482
0.35850,3.719375725
0.35900,4.634958948
0.35950,2.803792502
0.36000,1.277820464
0.36050,1.888209279
0.36100,2.193403687
0.36150,0.3622372405
0.36200,-1.468929206
0.36250,-0.5533459826
0.36300,1.583014871
0.36350,2.803792502
0.36400,1.583014871
0.36450,0.6674316482
0.36500,1.277820464
0.36550,1.277820464
0.36600,0.6674316482
0.36650,0.3622372405
0.36700,1.277820464
0.36750,1.888209279
0.36800,1.583014871
0.36850,1.277820464
0.36900,1.583014871
0.36950,1.277820464
0.37000,0.6674316482
0.37050,0.6674316482
0.37100,1.583014871
0.37150,1.583014871
0.37200,0.9726260559
0.37250,0.3622372405
0.37300,1.583014871
0.37350,2.193403687
0.37400,1.583014871
0.37450,0.6674316482
0.37500,0.6674316482
0.37550,1.277820464
0.37600,1.583014871
0.37650,0.9726260559
0.37700,0.05704283282
0.37750,-1.163734798
0.37800,-1.468929206
0.37850,-0.5533459826
0.37900,0.05704283282
0.37950,0.6674316482
0.38000,1.277820464
0.38050,2.498598094
0.38100,3.719375725
0.38150,3.414181318
0.38200,2.193403687
0.38250,1.277820464
0.38300,1.277820464
0.38350,1.888209279
0.38400,2.193403687
0.38450,2.498598094
0.38500,2.498598094
0.38550,1.888209279
0.38600,0.6674316482
0.38650,0.05704283282
0.38700,0.3622372405
0.38750,0.6674316482
0.38800,0.6674316482
0.38850,0.3622372405
0.38900,0.3622372405
0.38950,0.05704283282
0.39000,0.05704283282
0.39050,-0.2481515749
0.39100,-0.2481515749
0.39150,0.05704283282
0.39200,0.6674316482
0.39250,0.9726260559
0.39300,0.6674316482
0.39350,0.6674316482
0.39400,0.9726260559
0.39450,1.583014871
0.39500,1.888209279
0.39550,1.583014871
0.39600,0.9726260559
0.39650,0.3622372405
0.39700,0.05704283282
0.39750,-0.5533459826
0.39800,-0.5533459826
0.39850,-0.2481515749
0.39900,0.05704283282
0.39950,0.05704283282
0.40000,0.05704283282
0.40050,0.3622372405
0.40100,0.6674316482
0.40150,0.05704283282
0.40200,0.05704283282
0.40250,0.3622372405
0.40300,0.9726260559
0.40350,0.3622372405
0.40400,-1.468929206
0.40450,-2.384512429
0.40500,-1.163734798
0.40550,0.05704283282
0.40600,-0.5533459826
0.40650,-2.689706836
0.40700,-3.910484467
0.40750,-2.689706836
0.40800,-1.468929206
0.40850,-2.079318021
0.40900,-2.994901244
0.40950,-2.079318021
0.41000,-0.5533459826
0.41050,-0.2481515749
0.41100,-0.5533459826
0.41150,-0.2481515749
0.41200,0.6674316482
0.41250,1.277820464
0.41300,0.9726260559
0.41350,0.3622372405
0.41400,0.05704283282
0.41450,0.05704283282
0.41500,-0.5533459826
0.41550,-1.163734798
0.41600,-0.8585403903
0.41650,-0.2481515749
0.41700,0.05704283282
0.41750,0.3622372405
0.41800,0.05704283282
0.41850,-0.2481515749
0.41900,-0.5533459826
0.41950,-0.2481515749
0.42000,0.6674316482
0.42050,1.277820464
0.42100,0.6674316482
0.42150,0.05704283282
0.42200,0.05704283282
0.42250,0.05704283282
0.42300,0.05704283282
0.42350,0.05704283282
0.42400,-0.2481515749
0.42450,-0.8585403903
0.42500,-1.163734798
0.42550,-0.5533459826
0.42600,0.05704283282
0.42650,0.05704283282
0.42700,-1.468929206
0.42750,-2.994901244
0.42800,-2.994901244
0.42850,-1.468929206
0.42900,-0.8585403903
0.42950,-1.468929206
0.43000,-2.079318021
0.43050,-2.079318021
0.43100,-2.384512429
0.43150,-2.079318021
0.43200,-1.774123613
0.43250,-1.774123613
0.43300,-2.994901244
0.43350,-4.215678875
0.43400,-4.215678875
0.43450,-3.300095652
0.43500,-2.384512429
0.43550,-2.384512429
0.43600,-2.079318021
0.43650,-2.079318021
0.43700,-2.994901244
0.43750,-4.215678875
0.43800,-4.215678875
0.43850,-2.689706836
0.43900,-1.774123613
0.43950,-1.774123613
0.44000,-2.384512429
0.44050,-2.384512429
0.44100,-2.079318021
0.44150,-2.689706836
0.44200,-3.60529006
0.44250,-3.60529006
0.44300,-2.689706836
0.44350,-2.079318021
0.44400,-2.079318021
0.44450,-1.774123613
0.44500,-1.468929206
0.44550,-1.163734798
0.44600,-1.163734798
0.44650,-1.468929206
0.44700,-1.774123613
0.44750,-2.384512429
0.44800,-2.994901244
0.44850,-2.994901244
0.44900,-2.079318021
0.44950,-1.163734798
0.45000,-0.8585403903
0.45050,-0.8585403903
0.45100,-0.5533459826
0.45150,-0.2481515749
0.45200,0.05704283282
0.45250,-0.5533459826
0.45300,-0.8585403903
0.45350,-0.8585403903
0.45400,-1.163734798
0.45450,-1.468929206
0.45500,-1.774123613
0.45550,-0.8585403903
0.45600,0.05704283282
0.45650,0.05704283282
0.45700,-0.8585403903
0.45750,-1.774123613
0.45800,-1.163734798
0.45850,0.05704283282
0.45900,0.05704283282
0.45950,-0.8585403903
0.46000,-0.8585403903
0.46050,0.05704283282
0.46100,0.9726260559
0.46150,0.05704283282
0.46200,-0.8585403903
0.46250,-0.8585403903
0.46300,0.05704283282
0.46350,0.6674316482
0.46400,0.9726260559
0.46450,0.9726260559
0.46500,0.9726260559
0.46550,1.277820464
0.46600,1.583014871
0.46650,1.277820464
0.46700,0.6674316482
0.46750,0.05704283282
0.46800,0.05704283282
0.46850,0.05704283282
0.46900,0.6674316482
0.46950,0.9726260559
0.47000,0.9726260559
0.47050,1.277820464
0.47100,1.277820464
0.47150,0.6674316482
0.47200,0.05704283282
0.47250,0.05704283282
0.47300,0.05704283282
0.47350,0.05704283282
0.47400,0.05704283282
0.47450,0.05704283282
0.47500,0.05704283282
0.47550,-0.8585403903
0.47600,-1.468929206
0.47650,-0.2481515749
0.47700,1.277820464
0.47750,1.888209279
0.47800,0.6674316482
0.47850,-0.5533459826
0.47900,-1.163734798
0.47950,-1.774123613
0.48000,-1.468929206
0.48050,0.05704283282
0.48100,1.277820464
0.48150,0.9726260559
0.48200,0.05704283282
0.48250,0.6674316482
0.48300,2.193403687
0.48350,2.193403687
0.48400,0.05704283282
0.48450,-1.468929206
0.48500,-0.8585403903
0.48550,0.05704283282
0.48600,0.05704283282
0.48650,-0.8585403903
0.48700,-0.5533459826
0.48750,-0.2481515749
0.48800,0.05704283282
0.48850,0.05704283282
0.48900,0.6674316482
0.48950,0.3622372405
0.49000,-0.5533459826
0.49050,-0.8585403903
0.49100,0.05704283282
0.49150,1.277820464
0.49200,1.277820464
0.49250,1.277820464
0.49300,2.193403687
0.49350,2.803792502
0.49400,1.888209279
0.49450,0.6674316482
0.49500,0.05704283282
0.49550,0.05704283282
0.49600,0.3622372405
0.49650,1.277820464
0.49700,1.888209279
0.49750,1.277820464
0.49800,0.05704283282
0.49850,-0.2481515749
0.49900,0.3622372405
0.49950,0.6674316482
0.50000,-0.5533459826
0.50050,-1.774123613
0.50100,-1.163734798
0.50150,0.05704283282
0.50200,0.6674316482
0.50250,0.05704283282
0.50300,0.05704283282
0.50350,-0.2481515749
0.50400,-0.8585403903
0.50450,-0.8585403903
0.50500,-0.2481515749
0.50550,-0.5533459826
0.50600,-1.163734798
0.50650,-1.468929206
0.50700,-0.5533459826
0.50750,0.3622372405
0.50800,0.6674316482
0.50850,0.05704283282
0.50900,-0.2481515749
0.50950,-1.163734798
0.51000,-1.774123613
0.51050,-0.2481515749
0.51100,1.583014871
0.51150,2.498598094
0.51200,0.9726260559
0.51250,-0.2481515749
0.51300,0.05704283282
0.51350,1.277820464
0.51400,1.277820464
0.51450,0.6674316482
0.51500,0.6674316482
0.51550,1.583014871
0.51600,1.583014871
0.51650,0.3622372405
0.51700,0.05704283282
0.51750,1.583014871
0.51800,2.193403687
0.51850,1.888209279
0.51900,1.583014871
0.51950,2.193403687
0.52000,2.803792502
0.52050,1.888209279
0.52100,0.3622372405
0.52150,0.05704283282
0.52200,0.3622372405
0.52250,0.3622372405
0.52300,0.05704283282
0.52350,0.05704283282
0.52400,0.9726260559
0.52450,1.277820464
0.52500,0.05704283282
0.52550,-1.163734798
0.52600,-0.8585403903
0.52650,0.05704283282
0.52700,0.3622372405
0.52750,0.05704283282
0.52800,-0.5533459826
0.52850,-1.163734798
0.52900,-1.163734798
0.52950,-0.8585403903
0.53000,-1.468929206
0.53050,-2.079318021
0.53100,-2.384512429
0.53150,-1.774123613
0.53200,-1.163734798
0.53250,-1.774123613
0.53300,-2.384512429
0.53350,-2.384512429
0.53400,-1.774123613
0.53450,-1.163734798
0.53500,-0.5533459826
0.53550,0.05704283282
0.53600,0.05704283282
0.53650,-0.5533459826
0.53700,-1.163734798
0.53750,-1.163734798
0.53800,-1.468929206
0.53850,-2.384512429
0.53900,-3.60529006
0.53950,-3.60529006
0.54000,-2.994901244
0.54050,-2.994901244
0.54100,-3.910484467
0.54150,-3.910484467
0.54200,-3.300095652
0.54250,-2.689706836
0.54300,-2.689706836
0.54350,-3.300095652
0.54400,-3.300095652
0.54450,-3.60529006
0.54500,-4.215678875
0.54550,-4.520873283
0.54600,-4.215678875
0.54650,-2.994901244
0.54700,-1.163734798
0.54750,0.05704283282
0.54800,1.583014871
0.54850,2.803792502
0.54900,4.634958948
0.54950,5.550542171
0.55000,5.550542171
0.55050,4.329764541
0.55100,3.719375725
0.55150,3.719375725
0.55200,3.10898691
0.55250,1.888209279
0.55300,0.9726260559
0.55350,0.3622372405
0.55400,0.05704283282
0.55450,-0.5533459826
0.55500,-0.8585403903
0.55550,-0.2481515749
0.55600,-0.5533459826
0.55650,-1.163734798
0.55700,-0.8585403903
0.55750,0.05704283282
0.55800,0.05704283282
0.55850,-0.2481515749
0.55900,0.05704283282
0.55950,1.277820464
0.56000,2.803792502
0.56050,2.498598094
0.56100,2.498598094
0.56150,3.10898691
0.56200,3.10898691
0.56250,1.583014871
0.56300,0.9726260559
0.56350,1.888209279
0.56400,2.498598094
0.56450,0.9726260559
0.56500,-0.2481515749
0.56550,0.3622372405
0.56600,3.10898691
0.56650,3.719375725
0.56700,2.193403687
0.56750,1.277820464
0.56800,1.277820464
0.56850,0.3622372405
0.56900,-0.2481515749
0.56950,0.3622372405
0.57000,3.10898691
0.57050,5.245347764
0.57100,5.245347764
0.57150,4.329764541
0.57200,3.414181318
0.57250,2.193403687
0.57300,0.3622372405
0.57350,-0.2481515749
0.57400,0.05704283282
0.57450,0.3622372405
0.57500,0.05704283282
0.57550,-0.5533459826
0.57600,-0.5533459826
0.57650,0.6674316482
0.57700,1.888209279
0.57750,2.193403687
0.57800,1.888209279
0.57850,1.583014871
0.57900,1.888209279
0.57950,1.888209279
0.58000,1.583014871
0.58050,1.277820464
0.58100,1.583014871
0.58150,1.888209279
0.58200,1.583014871
0.58250,1.277820464
0.58300,1.888209279
0.58350,3.414181318
0.58400,3.719375725
0.58450,2.193403687
0.58500,0.6674316482
0.58550,1.277820464
0.58600,2.193403687
0.58650,1.583014871
0.58700,0.05704283282
0.58750,0.05704283282
0.58800,2.193403687
0.58850,4.329764541
0.58900,4.024570133
0.58950,2.498598094
0.59000,2.193403687
0.59050,2.498598094
0.59100,1.888209279
0.59150,0.3622372405
0.59200,0.05704283282
0.59250,0.05704283282
0.59300,0.05704283282
0.59350,-0.5533459826
0.59400,-1.468929206
0.59450,-1.163734798
0.59500,-0.5533459826
0.59550,0.05704283282
0.59600,1.277820464
0.59650,2.193403687
0.59700,1.583014871
0.59750,1.277820464
0.59800,1.277820464
0.59850,1.888209279
0.59900,0.9726260559
0.59950,0.05704283282
0.60000,0.05704283282
0.60050,1.888209279
0.60100,1.888209279
0.60150,0.3622372405
0.60200,0.05704283282
0.60250,1.277820464
0.60300,2.803792502
0.60350,1.583014871
0.60400,0.05704283282
0.60450,0.6674316482
0.60500,1.888209279
0.60550,1.888209279
0.60600,0.9726260559
0.60650,0.6674316482
0.60700,1.583014871
0.60750,1.277820464
0.60800,0.3622372405
0.60850,0.3622372405
0.60900,1.583014871
0.60950,1.888209279
0.61000,0.9726260559
0.61050,0.3622372405
0.61100,0.9726260559
0.61150,1.277820464
0.61200,0.05704283282
0.61250,-0.5533459826
0.61300,-0.5533459826
0.61350,0.05704283282
0.61400,0.05704283282
0.61450,-0.2481515749
0.61500,0.05704283282
0.61550,0.9726260559
0.61600,0.9726260559
0.61650,-0.2481515749
0.61700,-0.8585403903
0.61750,-0.5533459826
0.61800,0.05704283282
0.61850,0.05704283282
0.61900,-0.2481515749
0.61950,-0.2481515749
0.62000,0.05704283282
0.62050,0.05704283282
0.62100,-0.2481515749
0.62150,-0.2481515749
0.62200,-0.8585403903
0.62250,-1.468929206
0.62300,-1.774123613
0.62350,-1.468929206
0.62400,-1.468929206
0.62450,-2.384512429
0.62500,-3.300095652
0.62550,-3.300095652
0.62600,-2.994901244
0.62650,-4.215678875
0.62700,-6.352039729
0.62750,-7.267622952
0.62800,-5.436456506
0.62850,-3.60529006
0.62900,-2.994901244
0.62950,-3.300095652
0.63000,-2.079318021
0.63050,0.05704283282
0.63100,0.9726260559
0.63150,0.3622372405
0.63200,0.05704283282
0.63250,1.583014871
0.63300,3.719375725
0.63350,4.634958948
0.63400,4.634958948
0.63450,4.634958948
0.63500,4.634958948
0.63550,3.719375725
0.63600,1.583014871
0.63650,0.05704283282
0.63700,0.05704283282
0.63750,0.6674316482
0.63800,0.9726260559
0.63850,1.277820464
0.63900,0.9726260559
0.63950,0.3622372405
0.64000,-0.2481515749
0.64050,-0.5533459826
0.64100,0.05704283282
0.64150,0.6674316482
0.64200,0.05704283282
0.64250,-0.5533459826
0.64300,-0.8585403903
0.64350,-1.163734798
0.64400,-1.468929206
0.64450,-2.079318021
0.64500,-1.774123613
0.64550,-0.5533459826
0.64600,0.05704283282
0.64650,0.05704283282
0.64700,0.05704283282
0.64750,0.3622372405
0.64800,0.9726260559
0.64850,0.3622372405
0.64900,-0.2481515749
0.64950,-0.8585403903
0.65000,-0.8585403903
0.65050,-0.5533459826
0.65100,-0.5533459826
0.65150,-0.2481515749
0.65200,0.3622372405
0.65250,1.583014871
0.65300,1.888209279
0.65350,1.277820464
0.65400,0.3622372405
0.65450,0.6674316482
0.65500,1.277820464
0.65550,1.277820464
0.65600,0.05704283282
0.65650,-1.468929206
0.65700,-1.468929206
0.65750,-0.8585403903
0.65800,-0.8585403903
0.65850,-0.5533459826
0.65900,0.3622372405
0.65950,0.9726260559
0.66000,-0.5533459826
0.66050,-2.994901244
0.66100,-2.994901244
0.66150,-0.5533459826
0.66200,0.3622372405
0.66250,-0.2481515749
0.66300,-1.468929206
0.66350,-0.8585403903
0.66400,0.3622372405
0.66450,0.05704283282
0.66500,-1.163734798
0.66550,-1.774123613
0.66600,-0.8585403903
0.66650,0.05704283282
0.66700,0.3622372405
0.66750,0.3622372405
0.66800,0.6674316482
0.66850,0.6674316482
0.66900,0.05704283282
0.66950,0.05704283282
0.67000,0.05704283282
0.67050,0.05704283282
0.67100,-0.2481515749
0.67150,-1.163734798
0.67200,-1.774123613
0.67250,-1.774123613
0.67300,-0.5533459826
0.67350,-0.2481515749
0.67400,-1.468929206
0.67450,-2.689706836
0.67500,-2.689706836
0.67550,-0.8585403903
0.67600,0.9726260559
0.67650,1.277820464
0.67700,0.9726260559
0.67750,0.3622372405
0.67800,0.6674316482
0.67850,0.6674316482
0.67900,0.6674316482
0.67950,0.05704283282
0.68000,-0.2481515749
0.68050,-0.5533459826
0.68100,-0.5533459826
0.68150,-0.8585403903
0.68200,-0.5533459826
0.68250,-0.5533459826
0.68300,-1.163734798
0.68350,-2.689706836
0.68400,-3.910484467
0.68450,-2.689706836
0.68500,0.05704283282
0.68550,1.583014871
0.68600,0.6674316482
0.68650,-0.5533459826
0.68700,-0.8585403903
0.68750,-0.8585403903
0.68800,-1.163734798
0.68850,-1.774123613
0.68900,-1.163734798
0.68950,0.05704283282
0.69000,0.9726260559
0.69050,0.6674316482
0.69100,0.6674316482
0.69150,1.277820464
0.69200,2.498598094
0.69250,2.803792502
0.69300,2.498598094
0.69350,2.803792502
0.69400,3.719375725
0.69450,3.10898691
0.69500,1.277820464
0.69550,0.05704283282
0.69600,-0.2481515749
0.69650,0.3622372405
0.69700,0.9726260559
0.69750,0.9726260559
0.69800,1.583014871
0.69850,2.498598094
0.69900,3.10898691
0.69950,2.803792502
0.70000,2.498598094
0.70050,2.498598094
0.70100,2.498598094
0.70150,2.498598094
0.70200,2.803792502
0.70250,2.803792502
0.70300,2.193403687
0.70350,1.277820464
0.70400,1.888209279
0.70450,3.719375725
0.70500,4.024570133
0.70550,2.803792502
0.70600,1.583014871
0.70650,1.583014871
0.70700,1.583014871
0.70750,0.3622372405
0.70800,-0.5533459826
0.70850,-0.5533459826
0.70900,-0.5533459826
0.70950,-1.774123613
0.71000,-2.994901244
0.71050,-2.079318021
0.71100,0.05704283282
0.71150,0.05704283282
0.71200,-2.079318021
0.71250,-3.910484467
0.71300,-2.994901244
0.71350,-1.468929206
0.71400,-0.8585403903
0.71450,-1.468929206
0.71500,-1.163734798
0.71550,-0.8585403903
0.71600,-1.163734798
0.71650,-2.079318021
0.71700,-2.079318021
0.71750,-2.079318021
0.71800,-2.384512429
0.71850,-2.689706836
0.71900,-2.079318021
0.71950,-0.8585403903
0.72000,-0.5533459826
0.72050,-0.8585403903
0.72100,0.05704283282
0.72150,0.6674316482
0.72200,0.9726260559
0.72250,0.05704283282
0.72300,-0.5533459826
0.72350,-0.5533459826
0.72400,-0.8585403903
0.72450,-2.079318021
0.72500,-2.994901244
0.72550,-2.384512429
0.72600,-1.468929206
0.72650,-1.163734798
0.72700,-1.774123613
0.72750,-1.774123613
0.72800,-1.163734798
0.72850,-0.8585403903
0.72900,-1.468929206
0.72950,-2.079318021
0.73000,-2.689706836
0.73050,-2.384512429
0.73100,-1.468929206
0.73150,-1.163734798
0.73200,-1.774123613
0.73250,-2.994901244
0.73300,-3.60529006
0.73350,-2.994901244
0.73400,-1.468929206
0.73450,-0.8585403903
0.73500,-0.5533459826
0.73550,-0.8585403903
0.73600,-0.8585403903
0.73650,-0.8585403903
0.73700,-1.774123613
0.73750,-2.689706836
0.73800,-2.994901244
0.73850,-2.384512429
0.73900,-1.468929206
0.73950,-1.468929206
0.74000,-2.689706836
0.74050,-3.910484467
0.74100,-3.60529006
0.74150,-2.384512429
0.74200,-1.468929206
0.74250,-1.163734798
0.74300,-0.5533459826
0.74350,0.6674316482
0.74400,1.583014871
0.74450,0.9726260559
0.74500,0.05704283282
0.74550,0.05704283282
0.74600,0.9726260559
0.74650,1.277820464
0.74700,0.05704283282
0.74750,-0.5533459826
0.74800,0.05704283282
0.74850,0.9726260559
0.74900,1.583014871
0.74950,0.9726260559
0.75000,0.6674316482
0.75050,0.6674316482
0.75100,0.9726260559
0.75150,0.9726260559
0.75200,0.3622372405
0.75250,0.05704283282
0.75300,-0.5533459826
0.75350,-0.8585403903
0.75400,-1.163734798
0.75450,-1.163734798
0.75500,-0.5533459826
0.75550,0.05704283282
0.75600,0.05704283282
0.75650,0.05704283282
0.75700,0.05704283282
0.75750,0.05704283282
0.75800,-0.2481515749
0.75850,-0.2481515749
0.75900,0.05704283282
0.75950,0.6674316482
0.76000,1.277820464
0.76050,0.9726260559
0.76100,0.05704283282
0.76150,-0.2481515749
0.76200,-0.2481515749
0.76250,-0.2481515749
0.76300,0.05704283282
0.76350,0.3622372405
0.76400,0.6674316482
0.76450,0.6674316482
0.76500,-0.2481515749
0.76550,-1.163734798
0.76600,-1.163734798
0.76650,-0.2481515749
0.76700,1.277820464
0.76750,2.803792502
0.76800,2.803792502
0.76850,1.583014871
0.76900,0.6674316482
0.76950,0.9726260559
0.77000,1.277820464
0.77050,0.6674316482
0.77100,0.3622372405
0.77150,0.6674316482
0.77200,0.9726260559
0.77250,0.6674316482
0.77300,0.05704283282
0.77350,0.05704283282
0.77400,1.277820464
0.77450,1.888209279
0.77500,0.9726260559
0.77550,0.05704283282
0.77600,0.3622372405
0.77650,0.9726260559
0.77700,0.9726260559
0.77750,0.6674316482
0.77800,0.6674316482
0.77850,0.05704283282
0.77900,-0.2481515749
0.77950,-0.8585403903
0.78000,-0.8585403903
0.78050,-0.8585403903
0.78100,-1.163734798
0.78150,-1.163734798
0.78200,-0.5533459826
0.78250,0.05704283282
0.78300,0.05704283282
0.78350,0.05704283282
0.78400,0.3622372405
0.78450,0.3622372405
0.78500,0.05704283282
0.78550,-0.5533459826
0.78600,-0.5533459826
0.78650,0.05704283282
0.78700,0.6674316482
0.78750,0.9726260559
0.78800,1.277820464
0.78850,1.888209279
0.78900,2.803792502
0.78950,3.719375725
0.79000,3.719375725
0.79050,2.193403687
0.79100,0.9726260559
0.79150,0.3622372405
0.79200,0.6674316482
0.79250,0.9726260559
0.79300,0.9726260559
0.79350,0.6674316482
0.79400,0.3622372405
0.79450,0.05704283282
0.79500,0.05704283282
0.79550,0.3622372405
0.79600,0.9726260559
0.79650,0.6674316482
0.79700,0.05704283282
0.79750,0.05704283282
0.79800,1.277820464
0.79850,2.193403687
0.79900,1.888209279
0.79950,0.3622372405
0.80000,-0.5533459826
0.80050,-0.5533459826
0.80100,-0.2481515749
0.80150,-0.8585403903
0.80200,-2.079318021
0.80250,-2.689706836
0.80300,-2.384512429
0.80350,-1.774123613
0.80400,-1.163734798
0.80450,-0.2481515749
0.80500,0.6674316482
0.80550,1.888209279
0.80600,0.9726260559
0.80650,-0.2481515749
0.80700,-1.163734798
0.80750,-0.8585403903
0.80800,-0.2481515749
0.80850,-0.5533459826
0.80900,-0.5533459826
0.80950,0.05704283282
0.81000,1.583014871
0.81050,1.888209279
0.81100,2.193403687
0.81150,2.498598094
0.81200,3.414181318
0.81250,3.719375725
0.81300,3.10898691
0.81350,1.888209279
0.81400,0.3622372405
0.81450,0.05704283282
0.81500,0.9726260559
0.81550,2.193403687
0.81600,2.498598094
0.81650,1.888209279
0.81700,1.888209279
0.81750,2.498598094
0.81800,2.498598094
0.81850,1.277820464
0.81900,0.05704283282
0.81950,0.3622372405
0.82000,1.277820464
0.82050,1.583014871
0.82100,0.9726260559
0.82150,0.6674316482
0.82200,0.05704283282
0.82250,-1.163734798
0.82300,-1.774123613
0.82350,-0.8585403903
0.82400,-0.5533459826
0.82450,-1.774123613
0.82500,-4.215678875
0.82550,-4.82606769
0.82600,-2.994901244
0.82650,-0.5533459826
0.82700,0.3622372405
0.82750,0.9726260559
0.82800,1.583014871
0.82850,2.193403687
0.82900,2.193403687
0.82950,1.277820464
0.83000,0.6674316482
0.83050,0.05704283282
0.83100,0.05704283282
0.83150,-0.2481515749
0.83200,-0.5533459826
0.83250,-0.8585403903
0.83300,0.05704283282
0.83350,2.803792502
0.83400,5.245347764
0.83450,5.855736579
0.83500,4.634958948
0.83550,2.803792502
0.83600,1.277820464
0.83650,1.277820464
0.83700,2.193403687
0.83750,2.498598094
0.83800,1.277820464
0.83850,0.05704283282
0.83900,0.05704283282
0.83950,1.888209279
0.84000,1.888209279
0.84050,-0.5533459826
0.84100,-2.384512429
0.84150,-2.079318021
0.84200,-1.163734798
0.84250,-1.774123613
0.84300,-2.689706836
0.84350,-1.774123613
0.84400,-0.2481515749
0.84450,-0.2481515749
0.84500,-1.468929206
0.84550,-1.774123613
0.84600,-2.079318021
0.84650,-2.689706836
0.84700,-3.60529006
0.84750,-2.689706836
0.84800,-0.8585403903
0.84850,-0.5533459826
0.84900,-1.774123613
0.84950,-1.774123613
0.85000,-0.5533459826
0.85050,0.05704283282
0.85100,-0.2481515749
0.85150,-0.8585403903
0.85200,-0.8585403903
0.85250,-0.8585403903
0.85300,-1.468929206
0.85350,-1.774123613
0.85400,-1.468929206
0.85450,-1.468929206
0.85500,-1.468929206
0.85550,-1.774123613
0.85600,-1.774123613
0.85650,-1.774123613
0.85700,-2.079318021
0.85750,-1.774123613
0.85800,-1.468929206
0.85850,-1.774123613
0.85900,-2.689706836
0.85950,-2.689706836
0.86000,-2.384512429
0.86050,-2.994901244
0.86100,-5.436456506
0.86150,-7.57281736
0.86200,-7.267622952
0.86250,-4.82606769
0.86300,-1.468929206
0.86350,0.9726260559
0.86400,2.803792502
0.86450,2.803792502
0.86500,1.583014871
0.86550,0.3622372405
0.86600,0.05704283282
0.86650,0.6674316482
0.86700,1.583014871
0.86750,1.583014871
0.86800,0.9726260559
0.86850,0.3622372405
0.86900,0.6674316482
0.86950,0.9726260559
0.87000,0.3622372405
0.87050,-0.5533459826
0.87100,-0.5533459826
0.87150,1.277820464
0.87200,3.414181318
0.87250,3.719375725
0.87300,2.498598094
0.87350,1.583014871
0.87400,1.583014871
0.87450,1.277820464
0.87500,0.05704283282
0.87550,-0.2481515749
0.87600,0.3622372405
0.87650,2.193403687
0.87700,2.803792502
0.87750,2.498598094
0.87800,1.277820464
0.87850,0.6674316482
0.87900,0.05704283282
0.87950,-0.5533459826
0.88000,-1.774123613
0.88050,-2.384512429
0.88100,-1.163734798
0.88150,1.277820464
0.88200,4.634958948
0.88250,6.771319802
0.88300,6.771319802
0.88350,4.940153356
0.88400,2.498598094
0.88450,0.9726260559
0.88500,0.6674316482
0.88550,1.583014871
0.88600,2.193403687
0.88650,2.193403687
0.88700,2.193403687
0.88750,2.193403687
0.88800,2.498598094
0.88850,2.193403687
0.88900,2.193403687
0.88950,1.583014871
0.89000,0.6674316482
0.89050,0.05704283282
0.89100,0.05704283282
0.89150,0.3622372405
0.89200,0.05704283282
0.89250,-0.2481515749
0.89300,-1.163734798
0.89350,-1.468929206
0.89400,-1.468929206
0.89450,-0.2481515749
0.89500,0.6674316482
0.89550,0.9726260559
0.89600,0.3622372405
0.89650,0.3622372405
0.89700,1.888209279
0.89750,4.024570133
0.89800,4.634958948
0.89850,4.329764541
0.89900,4.329764541
0.89950,4.024570133
0.90000,3.10898691
0.90050,1.583014871
0.90100,0.05704283282
0.90150,-0.2481515749
0.90200,-0.5533459826
0.90250,-0.5533459826
0.90300,-0.8585403903
0.90350,-1.774123613
0.90400,-2.994901244
0.90450,-3.300095652
0.90500,-2.994901244
0.90550,-2.689706836
0.90600,-2.384512429
0.90650,-1.774123613
0.90700,-0.2481515749
0.90750,0.9726260559
0.90800,1.583014871
0.90850,0.3622372405
0.90900,-0.5533459826
0.90950,0.05704283282
0.91000,1.583014871
0.91050,3.10898691
0.91100,2.803792502
0.91150,1.277820464
0.91200,0.05704283282
0.91250,-0.5533459826
0.91300,-0.5533459826
0.91350,-0.8585403903
0.91400,-1.163734798
0.91450,-0.8585403903
0.91500,-0.2481515749
0.91550,0.05704283282
0.91600,0.05704283282
0.91650,0.05704283282
0.91700,0.3622372405
0.91750,0.05704283282
0.91800,-0.8585403903
0.91850,-2.079318021
0.91900,-2.689706836
0.91950,-2.994901244
0.92000,-2.689706836
0.92050,-1.774123613
0.92100,-1.468929206
0.92150,-2.384512429
0.92200,-3.910484467
0.92250,-4.520873283
0.92300,-4.520873283
0.92350,-4.215678875
0.92400,-3.60529006
0.92450,-2.384512429
0.92500,-0.5533459826
0.92550,0.05704283282
0.92600,0.05704283282
0.92650,-0.5533459826
0.92700,-0.8585403903
0.92750,-0.8585403903
0.92800,-0.5533459826
0.92850,0.6674316482
0.92900,1.583014871
0.92950,0.9726260559
0.93000,-0.8585403903
0.93050,-2.079318021
0.93100,-1.468929206
0.93150,-1.163734798
0.93200,-2.384512429
0.93250,-3.300095652
0.93300,-2.689706836
0.93350,-2.384512429
0.93400,-3.910484467
0.93450,-3.60529006
0.93500,2.803792502
0.93550,13.79079118
0.93600,21.72584578
0.93650,23.55701223
0.93700,22.94662341
0.93750,22.641429
0.93800,21.72584578
0.93850,18.06351289
0.93900,13.48559677
0.93950,10.12845829
0.94000,6.160930987
0.94050,-1.163734798
0.94100,-10.92995584
0.94150,-18.86501044
0.94200,-23.13773215
0.94250,-26.18967623
0.94300,-29.24162031
0.94350,-32.59875879
0.94400,-34.12473083
0.94450,-32.59875879
0.94500,-28.9364259
0.94550,-24.9688986
0.94600,-21.61176011
0.94650,-18.86501044
0.94700,-16.11826078
0.94750,-14.59228874
0.94800,-13.67670551
0.94850,-12.45592788
0.94900,-9.098789398
0.94950,-5.131262098
0.95000,-1.774123613
0.95050,0.05704283282
0.95100,0.3622372405
0.95150,1.277820464
0.95200,2.193403687
0.95250,4.024570133
0.95300,7.07651421
0.95350,11.34923592
0.95400,18.6739017
0.95450,31.18687242
0.95500,45.22581517
0.95550,53.77125859
0.95600,53.46606418
0.95650,51.94009214
0.95700,55.90761944
0.95750,63.53747963
0.95800,65.67384049
0.95850,59.87514674
0.95900,51.63489773
0.95950,44.00503754
0.96000,35.45959413
0.96050,25.08298426
0.96100,15.31676322
0.96150,8.297291841
0.96200,2.498598094
0.96250,-3.60529006
0.96300,-10.62476144
0.96350,-17.64423281
0.96400,-24.9688986
0.96450,-30.76759235
0.96500,-33.51434201
0.96550,-33.81953642
0.96600,-33.51434201
0.96650,-32.9039532
0.96700,-31.68317557
0.96750,-30.15720353
0.96800,-30.46239794
0.96850,-31.68317557
0.96900,-31.37798116
0.96950,-28.63123149
0.97000,-25.57928741
0.97050,-24.35850978
0.97100,-24.05331538
0.97150,-24.66370419
0.97200,-25.57928741
0.97250,-26.80006504
0.97300,-26.49487064
0.97350,-25.57928741
0.97400,-25.27409301
0.97450,-26.18967623
0.97500,-25.88448182
0.97550,-24.05331538
0.97600,-22.22214893
0.97650,-21.30656571
0.97700,-20.39098248
0.97750,-18.25462163
0.97800,-16.11826078
0.97850,-15.20267755
0.97900,-14.28709433
0.97950,-12.76112229
0.98000,-11.54034466
0.98050,-10.92995584
0.98100,-10.92995584
0.98150,-10.01437262
0.98200,-8.488400583
0.98250,-7.57281736
0.98300,-6.962428544
0.98350,-5.436456506
0.98400,-3.300095652
0.98450,-2.079318021
0.98500,-1.468929206
0.98550,-0.5533459826
0.98600,0.6674316482
0.98650,1.888209279
0.98700,3.10898691
0.98750,4.634958948
0.98800,6.160930987
0.98850,6.466125395
0.98900,5.550542171
0.98950,4.940153356
0.99000,4.940153356
0.99050,5.550542171
0.99100,5.245347764
0.99150,4.329764541
0.99200,3.719375725
0.99250,3.414181318
0.99300,4.024570133
0.99350,4.940153356
0.99400,5.855736579
0.99450,6.466125395
0.99500,5.855736579
0.99550,4.634958948
0.99600,4.634958948
0.99650,5.855736579
0.99700,6.466125395
0.99750,5.245347764
0.99800,3.719375725
0.99850,3.719375725
0.99900,4.634958948
0.99950,4.634958948
1.00000,3.414181318
1.00050,3.414181318
1.00100,5.245347764
1.00150,7.07651421
1.00200,6.466125395
1.00250,5.550542171
1.00300,6.771319802
1.00350,9.212875064
1.00400,10.7388471
1.00450,10.12845829
1.00500,9.823263879
1.00550,9.823263879
1.00600,9.212875064
1.00650,8.297291841
1.00700,8.602486248
1.00750,10.43365269
1.00800,11.04404151
1.00850,9.823263879
1.00900,8.297291841
1.00950,8.602486248
1.01000,9.518069472
1.01050,8.907680656
1.01100,7.686903025
1.01150,7.381708618
1.01200,7.686903025
1.01250,7.07651421
1.01300,6.160930987
1.01350,6.160930987
1.01400,6.771319802
1.01450,5.855736579
1.01500,4.940153356
1.01550,5.245347764
1.01600,7.381708618
1.01650,9.518069472
1.01700,9.823263879
1.01750,9.212875064
1.01800,7.992097433
1.01850,7.07651421
1.01900,6.466125395
1.01950,7.07651421
1.02000,7.686903025
1.02050,7.07651421
1.02100,5.855736579
1.02150,4.940153356
1.02200,4.940153356
1.02250,4.634958948
1.02300,4.634958948
1.02350,4.940153356
1.02400,5.855736579
1.02450,6.160930987
1.02500,5.855736579
1.02550,5.550542171
1.02600,4.634958948
1.02650,4.024570133
1.02700,4.329764541
1.02750,5.550542171
1.02800,6.160930987
1.02850,4.329764541
1.02900,2.803792502
1.02950,3.414181318
1.03000,5.550542171
1.03050,6.771319802
1.03100,5.855736579
1.03150,4.634958948
1.03200,4.634958948
1.03250,4.024570133
1.03300,2.498598094
1.03350,1.583014871
1.03400,2.193403687
1.03450,3.10898691
1.03500,3.10898691
1.03550,2.193403687
1.03600,0.9726260559
1.03650,0.6674316482
1.03700,0.6674316482
1.03750,1.583014871
1.03800,2.803792502
1.03850,4.024570133
1.03900,4.634958948
1.03950,4.940153356
1.04000,4.634958948
1.04050,4.024570133
1.04100,3.414181318
1.04150,2.803792502
1.04200,2.498598094
1.04250,1.888209279
1.04300,1.583014871
1.04350,2.498598094
1.04400,4.329764541
1.04450,4.940153356
1.04500,3.719375725
1.04550,1.583014871
1.04600,0.05704283282
1.04650,-1.163734798
1.04700,-1.163734798
1.04750,-0.2481515749
1.04800,1.888209279
1.04850,4.940153356
1.04900,7.07651421
1.04950,7.381708618
1.05000,5.855736579
1.05050,4.634958948
1.05100,4.634958948
1.05150,3.10898691
1.05200,0.05704283282
1.05250,-0.5533459826
1.05300,4.329764541
1.05350,13.79079118
1.05400,21.11545696
1.05450,23.25181782
1.05500,22.641429
1.05550,23.86220663
1.05600,28.13492834
1.05650,36.37517735
1.05700,48.27775925
1.05750,60.48553556
1.05800,65.67384049
1.05850,60.48553556
1.05900,51.02450892
1.05950,46.1413984
1.06000,45.22581517
1.06050,41.25828787
1.06100,32.71284446
1.06150,25.99856749
1.06200,26.6089563
1.06250,31.18687242
1.06300,31.18687242
1.06350,23.86220663
1.06400,11.34923592
1.06450,-1.468929206
1.06500,-10.92995584
1.06550,-15.81306637
1.06600,-16.42345518
1.06650,-16.42345518
1.06700,-18.55981604
1.06750,-23.74812097
1.06800,-29.24162031
1.06850,-33.20914761
1.06900,-35.34550846
1.06950,-37.78706372
1.07000,-42.05978543
1.07050,-46.94289595
1.07100,-49.99484003
1.07150,-49.68964562
1.07200,-48.16367358
1.07250,-47.85847918
1.07300,-48.7740624
1.07350,-49.68964562
1.07400,-51.21561766
1.07450,-54.87795055
1.07500,-59.15067226
1.07550,-60.6766443
1.07600,-58.84547785
1.07650,-56.40392259
1.07700,-55.48833937
1.07750,-54.57275615
1.07800,-51.52081207
1.07850,-45.72211832
1.07900,-37.78706372
1.07950,-27.41045386
1.08000,-17.33903841
1.08050,-10.62476144
1.08100,-8.183206175
1.08150,-7.267622952
1.08200,-5.741650914
1.08250,-4.520873283
1.08300,-4.82606769
1.08350,-5.131262098
1.08400,-5.131262098
1.08450,-5.131262098
1.08500,-4.215678875
1.08550,0.3622372405
1.08600,9.212875064
1.08650,17.45312407
1.08700,20.81026256
1.08750,19.89467933
1.08800,19.58948493
1.08850,20.50506815
1.08900,19.58948493
1.08950,15.01156881
1.09000,8.907680656
1.09050,4.329764541
1.09100,1.888209279
1.09150,-0.2481515749
1.09200,-3.300095652
1.09250,-6.046845321
1.09300,-8.183206175
1.09350,-10.31956703
1.09400,-13.37151111
1.09450,-16.42345518
1.09500,-17.94942722
1.09550,-18.55981604
1.09600,-19.47539926
1.09650,-19.78059367
1.09700,-18.25462163
1.09750,-14.59228874
1.09800,-10.92995584
1.09850,-8.793594991
1.09900,-7.267622952
1.09950,-6.352039729
1.10000,-6.962428544
1.10050,-8.793594991
1.10100,-9.709178214
1.10150,-7.878011767
1.10200,-4.520873283
1.10250,-2.384512429
1.10300,-1.468929206
1.10350,-0.5533459826
1.10400,0.3622372405
1.10450,0.3622372405
1.10500,0.05704283282
1.10550,0.3622372405
1.10600,2.193403687
1.10650,3.719375725
1.10700,4.329764541
1.10750,4.024570133
1.10800,4.024570133
1.10850,4.634958948
1.10900,4.634958948
1.10950,4.329764541
1.11000,3.414181318
1.11050,3.414181318
1.11100,4.024570133
1.11150,4.329764541
1.11200,3.719375725
1.11250,2.803792502
1.11300,3.10898691
1.11350,4.329764541
1.11400,4.634958948
1.11450,3.719375725
1.11500,3.414181318
1.11550,4.634958948
1.11600,6.466125395
1.11650,7.381708618
1.11700,7.07651421
1.11750,7.07651421
1.11800,7.381708618
1.11850,7.07651421
1.11900,6.160930987
1.11950,5.245347764
1.12000,5.855736579
1.12050,6.771319802
1.12100,6.771319802
1.12150,5.245347764
1.12200,3.719375725
1.12250,2.803792502
1.12300,3.10898691
1.12350,4.024570133
1.12400,6.466125395
1.12450,8.907680656
1.12500,10.12845829
1.12550,9.823263879
1.12600,10.12845829
1.12650,11.95962473
1.12700,13.79079118
1.12750,13.48559677
1.12800,11.04404151
1.12850,9.212875064
1.12900,9.212875064
1.12950,9.212875064
1.13000,7.992097433
1.13050,6.771319802
1.13100,5.855736579
1.13150,4.634958948
1.13200,3.10898691
1.13250,4.329764541
1.13300,11.65443033
1.13350,21.72584578
1.13400,27.82973393
1.13450,26.3037619
1.13500,21.72584578
1.13550,19.28429052
1.13600,18.06351289
1.13650,14.09598559
1.13700,7.07651421
1.13750,1.583014871
1.13800,-1.163734798
1.13850,-5.131262098
1.13900,-9.709178214
1.13950,-7.267622952
1.14000,7.686903025
1.14050,30.2712892
1.14100,47.97256484
1.14150,56.51800826
1.14200,58.65436911
1.14250,57.73878589
1.14300,54.076453
1.14350,50.4141201
1.14400,51.94009214
1.14450,56.82320267
1.14500,56.82320267
1.14550,50.1089257
1.14600,40.34270465
1.14650,29.35570597
1.14700,13.48559677
1.14750,-3.60529006
1.14800,-11.84553907
1.14850,-6.657234137
1.14900,4.024570133
1.14950,13.79079118
1.15000,24.16740104
1.15050,38.81673261
1.15100,54.3816474
1.15150,66.2842293
1.15200,75.74525594
1.15250,82.1543385
1.15300,80.62836647
1.15350,72.38811746
1.15400,68.72578457
1.15450,74.52447831
1.15500,80.93356087
1.15550,75.44006154
1.15600,60.48553556
1.15650,47.66737043
1.15700,41.86867669
1.15750,38.81673261
1.15800,33.62842768
1.15850,25.69337308
1.15900,14.7063744
1.15950,3.10898691
1.16000,-2.384512429
1.16050,-0.5533459826
1.16100,0.05704283282
1.16150,-10.62476144
1.16200,-29.54681471
1.16250,-46.63770155
1.16300,-58.54028345
1.16350,-71.66364298
1.16400,-89.36491862
1.16450,-107.9817775
1.16500,-123.5466923
1.16550,-137.2804406
1.16600,-150.0986058
1.16650,-159.5596324
1.16700,-164.7479373
1.16750,-167.494687
1.16800,-170.2414367
1.16850,-171.7674087
1.16900,-170.2414367
1.16950,-165.0531317
1.17000,-156.2024939
1.17050,-144.6051064
1.17100,-132.3973301
1.17150,-121.4103314
1.17200,-112.2544992
1.17250,-102.4882782
1.17300,-91.80647389
1.17350,-82.65064165
1.17400,-76.5467535
1.17450,-72.5792262
1.17500,-69.22208772
1.17550,-64.6441716
1.17600,-60.06625548
1.17650,-55.18314496
1.17700,-49.38445121
1.17750,-43.28056306
1.17800,-37.17667491
1.17850,-30.15720353
1.17900,-21.0013713
1.17950,-11.23515025
1.18000,-3.910484467
1.18050,-1.163734798
1.18100,-1.163734798
1.18150,-1.163734798
1.18200,-1.468929206
1.18250,-2.994901244
1.18300,-3.910484467
1.18350,-2.384512429
1.18400,0.6674316482
1.18450,3.414181318
1.18500,4.329764541
1.18550,6.466125395
1.18600,10.7388471
1.18650,14.7063744
1.18700,16.23234644
1.18750,16.53754085
1.18800,17.45312407
1.18850,19.28429052
1.18900,20.81026256
1.18950,21.11545696
1.19000,20.19987374
1.19050,18.97909611
1.19100,18.97909611
1.19150,19.89467933
1.19200,20.50506815
1.19250,19.58948493
1.19300,19.28429052
1.19350,21.11545696
1.19400,23.86220663
1.19450,24.77778986
1.19500,23.55701223
1.19550,22.94662341
1.19600,24.77778986
1.19650,26.91415071
1.19700,27.82973393
1.19750,28.44012275
1.19800,29.96609479
1.19850,32.40765005
1.19900,34.84920531
1.19950,35.76478853
1.20000,35.45959413
1.20050,33.32323327
1.20100,30.88167801
1.20150,29.66090038
1.20200,29.35570597
1.20250,28.74531716
1.20300,27.52453953
1.20350,26.91415071
1.20400,27.21934512
1.20450,28.13492834
1.20500,28.74531716
1.20550,28.74531716
1.20600,28.44012275
1.20650,27.52453953
1.20700,26.6089563
1.20750,25.99856749
1.20800,25.08298426
1.20850,23.55701223
1.20900,22.03104019
1.20950,21.72584578
1.21000,22.641429
1.21050,23.55701223
1.21100,24.16740104
1.21150,23.86220663
1.21200,22.94662341
1.21250,22.03104019
1.21300,22.3362346
1.21350,26.6089563
1.21400,34.5440109
1.21450,43.69984313
1.21500,49.19334247
1.21550,46.4465928
1.21600,35.45959413
1.21650,24.47259545
1.21700,21.72584578
1.21750,28.44012275
1.21800,36.37517735
1.21850,39.42712143
1.21900,39.42712143
1.21950,39.73231583
1.22000,39.73231583
1.22050,38.2063438
1.22100,37.59595498
1.22150,41.25828787
1.22200,46.75178721
1.22250,51.02450892
1.22300,53.77125859
1.22350,56.21281385
1.22400,57.12839707
1.22450,56.51800826
1.22500,61.09592437
1.22550,75.44006154
1.22600,93.14133718
1.22650,102.9075582
1.22700,103.517947
1.22750,103.2127526
1.22800,104.7387247
1.22850,100.7711974
1.22900,86.42706021
1.22950,65.9790349
1.23000,47.36217603
1.23050,33.62842768
1.23100,22.3362346
1.23150,12.87520796
1.23200,3.719375725
1.23250,-5.436456506
1.23300,-13.37151111
1.23350,-17.33903841
1.23400,-17.64423281
1.23450,-17.94942722
1.23500,-18.25462163
1.23550,-14.28709433
1.23600,-5.436456506
1.23650,2.193403687
1.23700,3.10898691
1.23750,-2.079318021
1.23800,-11.23515025
1.23850,-23.44292656
1.23900,-40.8390078
1.23950,-58.84547785
1.24000,-71.05325416
1.24050,-75.63117028
1.24100,-77.15714232
1.24150,-79.59869758
1.24200,-81.42986402
1.24250,-81.73505843
1.24300,-81.73505843
1.24350,-83.56622488
1.24400,-87.22855777
1.24450,-89.67011303
1.24500,-88.75452981
1.24550,-85.39739132
1.24600,-81.12466962
1.24650,-77.76753113
1.24700,-74.71558705
1.24750,-71.66364298
1.24800,-68.91689331
1.24850,-67.08572686
1.24900,-66.47533805
1.24950,-66.17014364
1.25000,-66.17014364
1.25050,-66.17014364
1.25100,-65.25456042
1.25150,-63.42339397
1.25200,-61.28703312
1.25250,-57.92989463
1.25300,-52.13120088
1.25350,-41.44939661
1.25400,-28.32603708
1.25450,-17.033844
1.25500,-10.62476144
1.25550,-8.488400583
1.25600,-7.57281736
1.25650,-5.436456506
1.25700,-2.079318021
1.25750,0.3622372405
1.25800,0.9726260559
1.25850,1.583014871
1.25900,4.940153356
1.25950,11.34923592
1.26000,15.62195763
1.26050,15.62195763
1.26100,15.62195763
1.26150,22.641429
1.26200,34.5440109
1.26250,42.4790655
1.26300,41.86867669
1.26350,38.2063438
1.26400,36.68037176
1.26450,34.84920531
1.26500,28.13492834
1.26550,21.11545696
1.26600,22.641429
1.26650,33.01803886
1.26700,44.61542636
1.26750,49.80373129
1.26800,49.19334247
1.26850,45.83620399
1.26900,40.64789906
1.26950,34.84920531
1.27000,31.18687242
1.27050,29.96609479
1.27100,30.2712892
1.27150,31.18687242
1.27200,32.10245564
1.27250,32.40765005
1.27300,31.18687242
1.27350,29.05051156
1.27400,27.82973393
1.27450,25.38817867
1.27500,19.58948493
1.27550,11.65443033
1.27600,4.940153356
1.27650,0.05704283282
1.27700,-4.215678875
1.27750,-6.352039729
1.27800,-2.994901244
1.27850,1.583014871
1.27900,3.10898691
1.27950,1.583014871
1.28000,0.9726260559
1.28050,0.6674316482
1.28100,-0.2481515749
1.28150,0.9726260559
1.28200,8.907680656
1.28250,16.84273526
1.28300,18.06351289
1.28350,23.25181782
1.28400,53.46606418
1.28450,111.4530016
1.28500,172.1866888
1.28550,210.0307953
1.28600,219.7970164
1.28650,210.6411841
1.28700,186.8360203
1.28750,150.2126914
1.28800,106.8750855
1.28850,64.45306286
1.28900,23.25181782
1.28950,-20.08578808
1.29000,-62.81300515
1.29050,-97.29997322
1.29100,-118.9687762
1.29150,-126.9038308
1.29200,-122.6311091
1.29250,-107.9817775
1.29300,-86.92336336
1.29350,-63.42339397
1.29400,-40.22861898
1.29450,-19.17020485
1.29500,-2.994901244
1.29550,7.07651421
1.29600,11.04404151
1.29650,6.771319802
1.29700,-6.962428544
1.29750,-28.02084268
1.29800,-52.7415897
1.29850,-79.59869758
1.29900,-108.5921663
1.29950,-135.7544686
1.30000,-155.5921051
1.30050,-166.5791038
1.30100,-170.8518255
1.30150,-168.1050758
1.30200,-158.0336604
1.30250,-143.3843288
1.30300,-129.345386
1.30350,-117.4428041
1.30400,-105.8454166
1.30450,-92.72205711
1.30500,-77.15714232
1.30550,-57.92989463
1.30600,-35.65070287
1.30650,-17.33903841
1.30700,-8.488400583
1.30750,-5.131262098
1.30800,1.583014871
1.30850,13.48559677
1.30900,23.55701223
1.30950,28.44012275
1.31000,29.66090038
1.31050,28.44012275
1.31100,22.3362346
1.31150,13.79079118
1.31200,8.297291841
1.31250,7.381708618
1.31300,7.686903025
1.31350,8.297291841
1.31400,11.34923592
1.31450,14.7063744
1.31500,14.7063744
1.31550,12.26481914
1.31600,14.40117999
1.31650,22.641429
1.31700,29.35570597
1.31750,28.13492834
1.31800,23.25181782
1.31850,22.3362346
1.31900,27.21934512
1.31950,31.49206683
1.32000,31.18687242
1.32050,29.96609479
1.32100,33.32323327
1.32150,42.1738711
1.32200,53.46606418
1.32250,63.84267404
1.32300,72.99850627
1.32350,80.32317206
1.32400,83.06992173
1.32450,79.10239443
1.32500,69.9465622
1.32550,60.48553556
1.32600,52.24528655
1.32650,41.56348228
1.32700,25.69337308
1.32750,7.992097433
1.32800,-5.131262098
1.32850,-14.89748314
1.32900,-25.57928741
1.32950,-37.78706372
1.33000,-49.68964562
1.33050,-58.84547785
1.33100,-65.55975482
1.33150,-69.52728212
1.33200,-70.13767094
1.33250,-68.91689331
1.33300,-67.69611568
1.33350,-66.78053245
1.33400,-64.03378278
1.33450,-59.45586667
1.33500,-51.82600648
1.33550,-40.22861898
1.33600,-27.41045386
1.33650,-18.86501044
1.33700,-17.33903841
1.33750,-15.81306637
1.33800,-6.352039729
1.33850,7.07651421
1.33900,17.45312407
1.33950,24.77778986
1.34000,36.68037176
1.34050,52.24528655
1.34100,61.09592437
1.34150,60.79072997
1.34200,63.23228523
1.34250,79.10239443
1.34300,103.517947
1.34350,124.2711668
1.34400,137.0893319
1.34450,144.1088033
1.34500,143.4984145
1.34550,134.3425822
1.34600,120.3036395
1.34650,106.8750855
1.34700,92.83614277
1.34750,73.30370068
1.34800,49.80373129
1.34850,28.74531716
1.34900,12.26481914
1.34950,-2.994901244
1.35000,-20.39098248
1.35050,-37.78706372
1.35100,-50.30003444
1.35150,-54.87795055
1.35200,-49.99484003
1.35250,-39.61823017
1.35300,-28.32603708
1.35350,-20.69617689
1.35400,-16.72864959
1.35450,-15.81306637
1.35500,-18.25462163
1.35550,-23.13773215
1.35600,-28.9364259
1.35650,-31.37798116
1.35700,-25.57928741
1.35750,-7.878011767
1.35800,20.81026256
1.35850,51.32970333
1.35900,72.69331187
1.35950,85.20628258
1.36000,97.41405889
1.36050,111.7581961
1.36100,119.0828618
1.36150,109.3166408
1.36200,81.54394969
1.36250,43.69984313
1.36300,1.583014871
1.36350,-39.61823017
1.36400,-76.24155909
1.36450,-104.3194446
1.36500,-125.0726643
1.36550,-140.3323847
1.36600,-147.3518561
1.36650,-143.3843288
1.36700,-131.4817469
1.36750,-117.4428041
1.36800,-101.8778893
1.36850,-81.73505843
1.36900,-57.62470022
1.36950,-36.56628609
1.37000,-21.0013713
1.37050,-6.657234137
1.37100,9.212875064
1.37150,22.94662341
1.37200,30.2712892
1.37250,36.68037176
1.37300,47.36217603
1.37350,57.43359148
1.37400,58.0439803
1.37450,51.02450892
1.37500,45.53100958
1.37550,40.34270465
1.37600,24.47259545
1.37650,-1.468929206
1.37700,-18.55981604
1.37750,-12.45592788
1.37800,6.160930987
1.37850,18.36870729
1.37900,21.72584578
1.37950,25.38817867
1.38000,29.96609479
1.38050,24.16740104
1.38100,4.634958948
1.38150,-17.94942722
1.38200,-33.51434201
1.38250,-42.97536865
1.38300,-50.60522885
1.38350,-54.26756174
1.38400,-47.85847918
1.38450,-30.46239794
1.38500,-6.352039729
1.38550,19.58948493
1.38600,45.83620399
1.38650,70.55695101
1.38700,91.61536514
1.38750,105.9595023
1.38800,111.1478072
1.38850,106.8750855
1.38900,92.53094837
1.38950,68.11539575
1.39000,32.71284446
1.39050,-10.62476144
1.39100,-57.92989463
1.39150,-102.7934726
1.39200,-140.6375791
1.39250,-169.3258534
1.39300,-188.2479067
1.39350,-198.6245166
1.39400,-202.2868495
1.39450,-199.8452942
1.39500,-191.6050452
1.39550,-178.1764913
1.39600,-160.1700212
1.39650,-137.585635
1.39700,-110.7285272
1.39750,-83.26103047
1.39800,-59.15067226
1.39850,-40.53381339
1.39900,-27.71564827
1.39950,-19.47539926
1.40000,-13.67670551
1.40050,-6.352039729
1.40100,4.024570133
1.40150,16.84273526
1.40200,29.05051156
1.40250,39.42712143
1.40300,47.05698162
1.40350,49.80373129
1.40400,46.4465928
1.40450,38.5115382
1.40500,27.52453953
1.40550,14.40117999
1.40600,0.6674316482
1.40650,-10.31956703
1.40700,-18.86501044
1.40750,-27.41045386
1.40800,-36.8714805
1.40850,-42.36497984
1.40900,-39.31303576
1.40950,-28.63123149
1.41000,-14.89748314
1.41050,-1.163734798
1.41100,11.04404151
1.41150,22.94662341
1.41200,34.5440109
1.41250,49.19334247
1.41300,68.11539575
1.41350,88.56342107
1.41400,105.3491135
1.41450,114.8101401
1.41500,120.3036395
1.41550,127.0179164
1.41600,136.4789431
1.41650,144.1088033
1.41700,143.8036089
1.41750,132.5114158
1.41800,111.7581961
1.41850,84.90108817
1.41900,56.51800826
1.41950,31.79726123
1.42000,13.18040236
1.42050,-3.60529006
1.42100,-24.35850978
1.42150,-45.41692391
1.42200,-57.31950582
1.42250,-55.48833937
1.42300,-46.02731273
1.42350,-37.78706372
1.42400,-33.81953642
1.42450,-33.20914761
1.42500,-36.26109168
1.42550,-45.11172951
1.42600,-59.15067226
1.42650,-73.18961502
1.42700,-81.12466962
1.42750,-74.10519824
1.42800,-49.99484003
1.42850,-18.55981604
1.42900,1.583014871
1.42950,3.719375725
1.43000,0.9726260559
1.43050,11.04404151
1.43100,33.93362209
1.43150,52.85567537
1.43200,54.68684181
1.43250,44.31023195
1.43300,32.71284446
1.43350,22.94662341
1.43400,6.771319802
1.43450,-17.33903841
1.43500,-40.8390078
1.43550,-52.13120088
1.43600,-50.60522885
1.43650,-44.19614628
1.43700,-39.31303576
1.43750,-36.56628609
1.43800,-35.95589728
1.43850,-39.00784135
1.43900,-43.89095188
1.43950,-45.11172951
1.44000,-39.92342458
1.44050,-31.68317557
1.44100,-26.49487064
1.44150,-24.35850978
1.44200,-22.52734334
1.44250,-19.78059367
1.44300,-15.20267755
1.44350,-6.657234137
1.44400,6.160930987
1.44450,19.58948493
1.44500,32.40765005
1.44550,52.24528655
1.44600,83.98550495
1.44650,117.2516954
1.44700,132.5114158
1.44750,124.5763612
1.44800,108.0958632
1.44850,95.88808685
1.44900,83.37511614
1.44950,63.23228523
1.45000,42.1738711
1.45050,33.32323327
1.45100,36.06998294
1.45150,37.59595498
1.45200,30.2712892
1.45250,17.75831848
1.45300,3.10898691
1.45350,-13.98189992
1.45400,-32.9039532
1.45450,-47.24809036
1.45500,-57.62470022
1.45550,-70.44286535
1.45600,-83.26103047
1.45650,-80.20908639
1.45700,-52.7415897
1.45750,-15.20267755
1.45800,13.48559677
1.45850,34.84920531
1.45900,62.316702
1.45950,95.58289244
1.46000,117.8620842
1.46050,119.9984451
1.46100,110.232224
1.46150,98.94003093
1.46200,86.73225462
1.46250,72.38811746
1.46300,61.09592437
1.46350,58.65436911
1.46400,62.0115076
1.46450,66.58942371
1.46500,71.77772864
1.46550,77.57642239
1.46600,81.23875528
1.46650,79.71278324
1.46700,72.38811746
1.46750,58.0439803
1.46800,33.62842768
1.46850,0.05704283282
1.46900,-34.12473083
1.46950,-62.20261634
1.47000,-84.4818081
1.47050,-101.2675005
1.47100,-105.8454166
1.47150,-95.46880678
1.47200,-76.85194791
1.47250,-59.15067226
1.47300,-44.50134069
1.47350,-32.29356438
1.47400,-27.41045386
1.47450,-35.04031405
1.47500,-50.30003444
1.47550,-65.25456042
1.47600,-76.24155909
1.47650,-81.42986402
1.47700,-75.63117028
1.47750,-58.84547785
1.47800,-44.8065351
1.47850,-44.19614628
1.47900,-46.94289595
1.47950,-32.9039532
1.48000,-2.079318021
1.48050,20.50506815
1.48100,17.14792966
1.48150,-3.300095652
1.48200,-20.39098248
1.48250,-27.41045386
1.48300,-31.98836998
1.48350,-40.53381339
1.48400,-50.60522885
1.48450,-59.15067226
1.48500,-66.47533805
1.48550,-71.35844857
1.48600,-73.80000383
1.48650,-74.10519824
1.48700,-73.80000383
1.48750,-72.27403179
1.48800,-67.39092127
1.48850,-59.76106108
1.48900,-51.82600648
1.48950,-45.41692391
1.49000,-40.53381339
1.49050,-36.56628609
1.49100,-33.51434201
1.49150,-28.9364259
1.49200,-17.64423281
1.49250,2.498598094
1.49300,26.91415071
1.49350,46.75178721
1.49400,58.3491747
1.49450,64.75825727
1.49500,70.55695101
1.49550,75.13486713
1.49600,74.82967272
1.49650,71.16733983
1.49700,68.42059016
1.49750,69.03097897
1.49800,67.50500693
1.49850,59.26475793
1.49900,45.22581517
1.49950,29.35570597
1.50000,12.87520796
1.50050,-4.520873283
1.50100,-21.91695452
1.50150,-35.95589728
1.50200,-44.50134069
1.50250,-45.72211832
1.50300,-39.31303576
1.50350,-29.85200912
1.50400,-24.05331538
1.50450,-23.44292656
1.50500,-22.52734334
1.50550,-18.55981604
1.50600,-12.76112229
1.50650,-3.60529006
1.50700,18.06351289
1.50750,56.82320267
1.50800,97.10886448
1.50850,120.9140283
1.50900,129.7646661
1.50950,141.3620536
1.51000,167.3035783
1.51050,199.0437967
1.51100,223.1541549
1.51150,237.1930976
1.51200,247.2645131
1.51250,255.8099565
1.51300,261.3034558
1.51350,260.3878726
1.51400,247.2645131
1.51450,214.303517
1.51500,159.9789125
1.51550,90.69978192
1.51600,15.31676322
1.51650,-59.76106108
1.51700,-132.0921357
1.51750,-197.0985445
1.51800,-249.8971771
1.51850,-285.9101172
1.51900,-304.2217816
1.51950,-306.9685313
1.52000,-300.8646432
1.52050,-290.1828389
1.52100,-273.3971465
1.52150,-249.5919827
1.52200,-224.8712356
1.52250,-206.8647656
1.52300,-194.3517949
1.52350,-178.4816857
1.52400,-156.2024939
1.52450,-133.6181077
1.52500,-112.2544992
1.52550,-83.87141929
1.52600,-42.05978543
1.52650,5.550542171
1.52700,44.00503754
1.52750,67.81020134
1.52800,80.93356087
1.52850,87.95303225
1.52900,87.03744903
1.52950,76.66083917
1.53000,59.26475793
1.53050,39.73231583
1.53100,20.19987374
1.53150,1.888209279
1.53200,-13.98189992
1.53250,-28.9364259
1.53300,-45.41692391
1.53350,-64.03378278
1.53400,-80.81947521
1.53450,-91.50127948
1.53500,-95.46880678
1.53550,-94.85841796
1.53600,-86.00778014
1.53650,-62.81300515
1.53700,-24.66370419
1.53750,17.14792966
1.53800,49.19334247
1.53850,66.89461812
1.53900,73.60889509
1.53950,73.9140895
1.54000,67.81020134
1.54050,57.12839707
1.54100,46.1413984
1.54150,38.2063438
1.54200,33.62842768
1.54250,29.66090038
1.54300,25.38817867
1.54350,22.94662341
1.54400,23.86220663
1.54450,27.82973393
1.54500,34.84920531
1.54550,43.69984313
1.54600,52.85567537
1.54650,59.87514674
1.54700,64.14786845
1.54750,66.89461812
1.54800,70.55695101
1.54850,73.9140895
1.54900,73.30370068
1.54950,67.81020134
1.55000,60.79072997
1.55050,54.68684181
1.55100,47.97256484
1.55150,38.81673261
1.55200,27.82973393
1.55250,15.31676322
1.55300,-0.8585403903
1.55350,-21.30656571
1.55400,-38.70264695
1.55450,-46.02731273
1.55500,-45.41692391
1.55550,-45.11172951
1.55600,-46.33250714
1.55650,-40.8390078
1.55700,-24.66370419
1.55750,-5.131262098
1.55800,8.602486248
1.55850,15.92715203
1.55900,21.11545696
1.55950,26.6089563
1.56000,31.18687242
1.56050,35.15439972
1.56100,37.29076057
1.56150,36.37517735
1.56200,33.01803886
1.56250,30.5764836
1.56300,31.49206683
1.56350,34.5440109
1.56400,36.37517735
1.56450,33.93362209
1.56500,27.21934512
1.56550,17.75831848
1.56600,9.518069472
1.56650,3.414181318
1.56700,-0.8585403903
1.56750,-5.131262098
1.56800,-8.488400583
1.56850,-11.84553907
1.56900,-15.20267755
1.56950,-17.33903841
1.57000,-19.17020485
1.57050,-26.18967623
1.57100,-40.8390078
1.57150,-48.16367358
1.57200,-24.66370419
1.57250,33.01803886
1.57300,96.80367007
1.57350,134.0373878
1.57400,141.3620536
1.57450,136.7841375
1.57500,131.901027
1.57550,122.7451947
1.57600,104.7387247
1.57650,83.37511614
1.57700,68.11539575
1.57750,66.58942371
1.57800,83.37511614
1.57850,116.0309178
1.57900,148.6867194
1.57950,160.5893013
1.58000,145.0243865
1.58050,114.8101401
1.58100,85.51147699
1.58150,57.73878589
1.58200,24.47259545
1.58250,-16.42345518
1.58300,-60.06625548
1.58350,-98.52075085
1.58400,-126.5986364
1.58450,-142.1635512
1.58500,-146.1310785
1.58550,-141.8583567
1.58600,-130.8713581
1.58650,-116.8324153
1.58700,-105.2350278
1.58750,-101.8778893
1.58800,-102.7934726
1.58850,-98.21555645
1.58900,-85.39739132
1.58950,-71.05325416
1.59000,-61.89742193
1.59050,-54.26756174
1.59100,-42.97536865
1.59150,-30.15720353
1.59200,-22.83253774
1.59250,-23.13773215
1.59300,-30.15720353
1.59350,-42.67017425
1.59400,-57.01431141
1.59450,-63.42339397
1.59500,-55.18314496
1.59550,-37.78706372
1.59600,-22.83253774
1.59650,-15.20267755
1.59700,-11.54034466
1.59750,-10.31956703
1.59800,-15.50787196
1.59850,-27.71564827
1.59900,-44.19614628
1.59950,-63.72858838
1.60000,-86.00778014
1.60050,-105.2350278
1.60100,-112.5596936
1.60150,-106.150611
1.60200,-93.94283474
1.60250,-80.20908639
1.60300,-62.20261634
1.60350,-39.61823017
1.60400,-18.55981604
1.60450,-2.079318021
1.60500,15.62195763
1.60550,41.56348228
1.60600,72.08292305
1.60650,99.85561415
1.60700,121.8296115
1.60750,139.8360816
1.60800,153.2646355
1.60850,158.147746
1.60900,152.9594411
1.60950,139.5308872
1.61000,121.2192227
1.61050,99.85561415
1.61100,77.8816168
1.61150,56.51800826
1.61200,35.15439972
1.61250,13.18040236
1.61300,-7.267622952
1.61350,-26.49487064
1.61400,-44.19614628
1.61450,-60.6766443
1.61500,-71.96883738
1.61550,-77.46233672
1.61600,-82.95583606
1.61650,-93.33244592
1.61700,-104.624639
1.61750,-107.6765831
1.61800,-100.6571117
1.61850,-89.36491862
1.61900,-77.76753113
1.61950,-61.59222752
1.62000,-38.39745254
1.62050,-13.67670551
1.62100,5.245347764
1.62150,16.23234644
1.62200,22.94662341
1.62250,27.52453953
1.62300,28.74531716
1.62350,26.6089563
1.62400,23.86220663
1.62450,22.641429
1.62500,22.03104019
1.62550,18.6739017
1.62600,12.57001355
1.62650,6.771319802
1.62700,2.193403687
1.62750,-0.8585403903
1.62800,-0.8585403903
1.62850,7.686903025
1.62900,26.6089563
1.62950,47.97256484
1.63000,62.92709082
1.63050,70.55695101
1.63100,74.82967272
1.63150,77.57642239
1.63200,77.57642239
1.63250,75.74525594
1.63300,74.2192839
1.63350,69.9465622
1.63400,61.09592437
1.63450,51.94009214
1.63500,44.31023195
1.63550,30.2712892
1.63600,4.634958948
1.63650,-14.59228874
1.63700,0.3622372405
1.63750,49.49853688
1.63800,94.36211481
1.63850,101.3815862
1.63900,75.74525594
1.63950,44.31023195
1.64000,17.14792966
1.64050,-15.20267755
1.64100,-54.57275615
1.64150,-85.70258573
1.64200,-97.91036204
1.64250,-95.77400119
1.64300,-90.28050185
1.64350,-87.22855777
1.64400,-88.14414099
1.64450,-91.19608507
1.64500,-89.97530744
1.64550,-75.63117028
1.64600,-50.91042325
1.64650,-28.63123149
1.64700,-18.86501044
1.64750,-16.42345518
1.64800,-13.37151111
1.64850,-10.31956703
1.64900,-14.89748314
1.64950,-28.9364259
1.65000,-45.11172951
1.65050,-53.96236733
1.65100,-50.60522885
1.65150,-35.04031405
1.65200,-8.793594991
1.65250,22.03104019
1.65300,49.80373129
1.65350,69.9465622
1.65400,84.59589377
1.65450,97.41405889
1.65500,108.0958632
1.65550,112.9789737
1.65600,110.8426128
1.65650,102.9075582
1.65700,92.22575396
1.65750,80.93356087
1.65800,70.86214542
1.65850,62.316702
1.65900,52.55048096
1.65950,42.78425991
1.66000,39.42712143
1.66050,46.4465928
1.66100,53.46606418
1.66150,44.92062076
1.66200,17.14792966
1.66250,-15.20267755
1.66300,-42.36497984
1.66350,-69.52728212
1.66400,-105.8454166
1.66450,-144.9103008
1.66500,-170.5466311
1.66550,-177.5661024
1.66600,-173.5985751
1.66650,-165.3583261
1.66700,-153.7609386
1.66750,-141.2479679
1.66800,-131.4817469
1.66850,-118.9687762
1.66900,-90.28050185
1.66950,-43.58575747
1.67000,4.634958948
1.67050,35.15439972
1.67100,42.1738711
1.67150,34.2388165
1.67200,18.97909611
1.67250,0.6674316482
1.67300,-14.59228874
1.67350,-22.22214893
1.67400,-21.61176011
1.67450,-17.33903841
1.67500,-12.45592788
1.67550,-6.962428544
1.67600,1.277820464
1.67650,13.48559677
1.67700,28.13492834
1.67750,41.86867669
1.67800,53.46606418
1.67850,65.67384049
1.67900,84.29069936
1.67950,106.2646967
1.68000,117.2516954
1.68050,106.8750855
1.68100,78.79720002
1.68150,46.75178721
1.68200,18.97909611
1.68250,-8.183206175
1.68300,-38.39745254
1.68350,-67.39092127
1.68400,-87.83894659
1.68450,-96.68958441
1.68500,-94.24802915
1.68550,-83.56622488
1.68600,-68.91689331
1.68650,-54.57275615
1.68700,-42.36497984
1.68750,-28.9364259
1.68800,-13.98189992
1.68850,-2.079318021
1.68900,0.6674316482
1.68950,-3.300095652
1.69000,-9.709178214
1.69050,-15.50787196
1.69100,-22.52734334
1.69150,-31.07278675
1.69200,-36.8714805
1.69250,-33.81953642
1.69300,-20.69617689
1.69350,-3.910484467
1.69400,10.43365269
1.69450,19.58948493
1.69500,25.08298426
1.69550,29.35570597
1.69600,33.01803886
1.69650,37.29076057
1.69700,42.1738711
1.69750,46.1413984
1.69800,47.97256484
1.69850,49.19334247
1.69900,53.46606418
1.69950,60.48553556
1.70000,65.67384049
1.70050,64.14786845
1.70100,56.82320267
1.70150,46.75178721
1.70200,34.84920531
1.70250,21.42065137
1.70300,5.550542171
1.70350,-13.0663167
1.70400,-37.48186931
1.70450,-65.86494923
1.70500,-94.55322355
1.70550,-119.8843594
1.70600,-139.1116071
1.70650,-150.0986058
1.70700,-148.5726337
1.70750,-136.059663
1.70800,-118.9687762
1.70850,-102.4882782
1.70900,-86.61816895
1.70950,-70.44286535
1.71000,-54.26756174
1.71050,-38.09225813
1.71100,-21.0013713
1.71150,-4.520873283
1.71200,7.686903025
1.71250,14.40117999
1.71300,18.97909611
1.71350,21.11545696
1.71400,20.19987374
1.71450,18.06351289
1.71500,23.86220663
1.71550,40.95309346
1.71600,62.62189641
1.71650,78.49200561
1.71700,84.29069936
1.71750,82.76472732
1.71800,79.71278324
1.71850,79.10239443
1.71900,80.62836647
1.71950,78.49200561
1.72000,68.11539575
1.72050,51.63489773
1.72100,34.5440109
1.72150,19.28429052
1.72200,4.634958948
1.72250,-8.793594991
1.72300,-20.08578808
1.72350,-28.9364259
1.72400,-35.65070287
1.72450,-40.22861898
1.72500,-43.28056306
1.72550,-45.41692391
1.72600,-42.05978543
1.72650,-23.74812097
1.72700,5.245347764
1.72750,29.35570597
1.72800,38.81673261
1.72850,45.22581517
1.72900,63.84267404
1.72950,90.69978192
1.73000,112.0633905
1.73050,125.18675
1.73100,136.7841375
1.73150,145.9399697
1.73200,146.5503585
1.73250,142.8880256
1.73300,147.4659418
1.73350,159.0633292
1.73400,162.7256621
1.73450,148.6867194
1.73500,120.3036395
1.73550,86.73225462
1.73600,55.90761944
1.73650,39.73231583
1.73700,45.22581517
1.73750,61.09592437
1.73800,66.2842293
1.73850,54.3816474
1.73900,36.37517735
1.73950,23.55701223
1.74000,13.48559677
1.74050,2.803792502
1.74100,-4.520873283
1.74150,-2.079318021
1.74200,8.602486248
1.74250,20.81026256
1.74300,26.3037619
1.74350,22.3362346
1.74400,12.57001355
1.74450,1.583014871
1.74500,-9.403983806
1.74550,-26.18967623
1.74600,-48.7740624
1.74650,-69.22208772
1.74700,-79.59869758
1.74750,-83.87141929
1.74800,-91.50127948
1.74850,-104.0142502
1.74900,-116.8324153
1.74950,-131.7869413
1.75000,-155.2869107
1.75050,-183.975185
1.75100,-204.1180159
1.75150,-206.8647656
1.75200,-198.6245166
1.75250,-187.0271291
1.75300,-167.7998814
1.75350,-132.3973301
1.75400,-84.78700251
1.75450,-42.05978543
1.75500,-17.64423281
1.75550,-8.183206175
1.75600,-3.910484467
1.75650,-1.468929206
1.75700,-4.215678875
1.75750,-13.37151111
1.75800,-25.57928741
1.75850,-38.09225813
1.75900,-47.85847918
1.75950,-49.99484003
1.76000,-39.00784135
1.76050,-19.17020485
1.76100,-1.163734798
1.76150,7.992097433
1.76200,14.40117999
1.76250,23.25181782
1.76300,31.79726123
1.76350,32.10245564
1.76400,23.86220663
1.76450,13.18040236
1.76500,3.719375725
1.76550,-4.520873283
1.76600,-12.15073348
1.76650,-16.11826078
1.76700,-14.89748314
1.76750,-11.84553907
1.76800,-10.01437262
1.76850,-9.098789398
1.76900,-7.878011767
1.76950,-7.878011767
1.77000,-9.709178214
1.77050,-13.67670551
1.77100,-17.033844
1.77150,-17.033844
1.77200,-12.76112229
1.77250,-8.488400583
1.77300,-10.31956703
1.77350,-19.78059367
1.77400,-30.15720353
1.77450,-33.20914761
1.77500,-30.15720353
1.77550,-28.32603708
1.77600,-30.46239794
1.77650,-30.76759235
1.77700,-20.39098248
1.77750,0.05704283282
1.77800,23.86220663
1.77850,43.08945432
1.77900,54.68684181
1.77950,59.87514674
1.78000,62.92709082
1.78050,67.19981253
1.78100,70.55695101
1.78150,68.11539575
1.78200,67.19981253
1.78250,84.29069936
1.78300,123.660778
1.78350,165.7776062
1.78400,188.6671868
1.78450,194.7710749
1.78500,208.1996289
1.78550,238.7190697
1.78600,266.7969552
1.78650,268.0177328
1.78700,242.3814025
1.78750,208.5048233
1.78800,178.2905769
1.78850,149.6023026
1.78900,119.9984451
1.78950,91.61536514
1.79000,66.58942371
1.79050,41.86867669
1.79100,17.14792966
1.79150,-5.436456506
1.79200,-27.41045386
1.79250,-55.18314496
1.79300,-90.89089066
1.79350,-129.9557748
1.79400,-164.7479373
1.79450,-193.4362116
1.79500,-215.1050146
1.79550,-228.2283741
1.79600,-234.6374567
1.79650,-238.2997896
1.79700,-238.2997896
1.79750,-227.0075965
1.79800,-200.1504886
1.79850,-165.968715
1.79900,-136.6700518
1.79950,-115.0012489
1.80000,-98.21555645
1.80050,-83.56622488
1.80100,-71.96883738
1.80150,-62.81300515
1.80200,-56.709117
1.80250,-57.62470022
1.80300,-62.81300515
1.80350,-57.01431141
1.80400,-28.63123149
1.80450,9.823263879
1.80500,32.40765005
1.80550,28.13492834
1.80600,13.79079118
1.80650,7.381708618
1.80700,5.245347764
1.80750,-4.520873283
1.80800,-19.17020485
1.80850,-23.44292656
1.80900,-13.98189992
1.80950,-4.82606769
1.81000,-6.657234137
1.81050,-15.20267755
1.81100,-22.22214893
1.81150,-28.9364259
1.81200,-38.09225813
1.81250,-42.97536865
1.81300,-34.73511965
1.81350,-18.86501044
1.81400,-7.878011767
1.81450,-2.994901244
1.81500,10.12845829
1.81550,39.42712143
1.81600,72.38811746
1.81650,90.0893931
1.81700,86.42706021
1.81750,71.47253423
1.81800,56.21281385
1.81850,43.08945432
1.81900,29.66090038
1.81950,19.28429052
1.82000,23.55701223
1.82050,51.02450892
1.82100,93.751726
1.82150,130.9854437
1.82200,154.1802187
1.82250,178.2905769
1.82300,220.4074052
1.82350,267.7125384
1.82400,291.2125078
1.82450,282.6670644
1.82500,267.407344
1.82550,264.9657887
1.82600,267.1021496
1.82650,255.8099565
1.82700,235.6671256
1.82750,219.491822
1.82800,200.8749631
1.82850,156.621774
1.82900,77.8816168
1.82950,-18.25462163
1.83000,-109.8129439
1.83050,-186.4167403
1.83100,-246.2348442
1.83150,-285.2997284
1.83200,-301.475032
1.83250,-297.2023103
1.83300,-276.4490905
1.83350,-244.7088721
1.83400,-210.8322929
1.83450,-182.1440186
1.83500,-158.3388548
1.83550,-135.4492742
1.83600,-116.5272209
1.83650,-110.4233328
1.83700,-119.2739706
1.83750,-130.5661637
1.83800,-131.4817469
1.83850,-122.6311091
1.83900,-112.2544992
1.83950,-104.3194446
1.84000,-95.46880678
1.84050,-84.78700251
1.84100,-76.85194791
1.84150,-73.18961502
1.84200,-67.08572686
1.84250,-51.52081207
1.84300,-28.63123149
1.84350,-4.82606769
1.84400,17.45312407
1.84450,41.25828787
1.84500,63.84267404
1.84550,76.35564476
1.84600,74.82967272
1.84650,65.06345167
1.84700,57.12839707
1.84750,52.55048096
1.84800,45.83620399
1.84850,32.40765005
1.84900,16.23234644
1.84950,4.940153356
1.85000,4.024570133
1.85050,10.7388471
1.85100,16.84273526
1.85150,16.84273526
1.85200,10.7388471
1.85250,2.803792502
1.85300,-5.436456506
1.85350,-14.28709433
1.85400,-22.83253774
1.85450,-30.46239794
1.85500,-39.92342458
1.85550,-48.7740624
1.85600,-47.55328477
1.85650,-31.37798116
1.85700,-9.098789398
1.85750,7.992097433
1.85800,19.89467933
1.85850,28.74531716
1.85900,29.66090038
1.85950,16.84273526
1.86000,1.583014871
1.86050,-2.384512429
1.86100,-3.300095652
1.86150,-16.42345518
1.86200,-29.85200912
1.86250,-9.098789398
1.86300,51.63489773
1.86350,116.6413066
1.86400,152.3490523
1.86450,165.7776062
1.86500,177.3749937
1.86550,179.816549
1.86600,152.6542467
1.86650,98.02444771
1.86700,40.03751024
1.86750,-6.046845321
1.86800,-41.14420221
1.86850,-63.72858838
1.86900,-69.83247653
1.86950,-66.47533805
1.87000,-66.78053245
1.87050,-72.5792262
1.87100,-75.02078146
1.87150,-71.96883738
1.87200,-70.44286535
1.87250,-71.35844857
1.87300,-70.13767094
1.87350,-68.00131008
1.87400,-71.05325416
1.87450,-78.68311435
1.87500,-82.34544725
1.87550,-79.59869758
1.87600,-74.71558705
1.87650,-64.33897719
1.87700,-40.8390078
1.87750,-8.183206175
1.87800,16.84273526
1.87850,27.82973393
1.87900,39.42712143
1.87950,65.36864608
1.88000,98.32964211
1.88050,119.9984451
1.88100,127.6283053
1.88150,134.952971
1.88200,147.7711362
1.88250,156.9269684
1.88300,153.5698299
1.88350,138.9204983
1.88400,117.8620842
1.88450,93.44653159
1.88500,69.03097897
1.88550,49.19334247
1.88600,30.5764836
1.88650,4.940153356
1.88700,-24.05331538
1.88750,-41.14420221
1.88800,-39.61823017
1.88850,-30.76759235
1.88900,-28.32603708
1.88950,-29.85200912
1.89000,-27.71564827
1.89050,-24.05331538
1.89100,-24.35850978
1.89150,-20.69617689
1.89200,-1.774123613
1.89250,29.05051156
1.89300,57.73878589
1.89350,75.13486713
1.89400,81.8491441
1.89450,78.49200561
1.89500,64.14786845
1.89550,43.69984313
1.89600,22.3362346
1.89650,-1.163734798
1.89700,-30.46239794
1.89750,-57.01431141
1.89800,-70.74805975
1.89850,-75.63117028
1.89900,-85.70258573
1.89950,-101.8778893
1.90000,-111.6441104
1.90050,-111.0337216
1.90100,-109.8129439
1.90150,-114.3908601
1.90200,-116.8324153
1.90250,-107.6765831
1.90300,-90.58569625
1.90350,-74.41039265
1.90400,-61.28703312
1.90450,-48.7740624
1.90500,-37.78706372
1.90550,-30.46239794
1.90600,-25.27409301
1.90650,-17.64423281
1.90700,-6.657234137
1.90750,4.329764541
1.90800,12.26481914
1.90850,17.75831848
1.90900,28.44012275
1.90950,51.02450892
1.91000,83.98550495
1.91050,112.3685849
1.91100,119.9984451
1.91150,101.991975
1.91200,66.58942371
1.91250,26.3037619
1.91300,-6.657234137
1.91350,-22.52734334
1.91400,-20.39098248
1.91450,-11.23515025
1.91500,-7.878011767
1.91550,-10.62476144
1.91600,-9.403983806
1.91650,1.583014871
1.91700,18.06351289
1.91750,33.32323327
1.91800,45.53100958
1.91850,56.21281385
1.91900,63.53747963
1.91950,66.89461812
1.92000,69.33617338
1.92050,71.16733983
1.92100,65.67384049
1.92150,47.97256484
1.92200,23.86220663
1.92250,4.634958948
1.92300,-8.793594991
1.92350,-23.13773215
1.92400,-39.00784135
1.92450,-49.68964562
1.92500,-52.43639529
1.92550,-52.43639529
1.92600,-52.43639529
1.92650,-45.72211832
1.92700,-27.41045386
1.92750,-7.57281736
1.92800,-2.689706836
1.92850,-17.64423281
1.92900,-42.67017425
1.92950,-66.47533805
1.93000,-85.39739132
1.93050,-98.52075085
1.93100,-98.82594526
1.93150,-79.29350317
1.93200,-44.50134069
1.93250,-12.45592788
1.93300,3.414181318
1.93350,8.297291841
1.93400,15.62195763
1.93450,25.69337308
1.93500,28.74531716
1.93550,28.44012275
1.93600,43.69984313
1.93650,79.40758884
1.93700,111.4530016
1.93750,120.3036395
1.93800,121.8296115
1.93850,146.2451641
1.93900,189.58277
1.93950,217.6606555
1.94000,211.8619618
1.94050,185.3100483
1.94100,154.4854131
1.94150,118.1672786
1.94200,72.69331187
1.94250,28.13492834
1.94300,-6.046845321
1.94350,-36.56628609
1.94400,-71.66364298
1.94450,-108.5921663
1.94500,-139.7219959
1.94550,-162.0011877
1.94600,-172.3777975
1.94650,-161.3907988
1.94700,-123.5466923
1.94750,-70.13767094
1.94800,-20.39098248
1.94850,14.40117999
1.94900,36.37517735
1.94950,49.80373129
1.95000,56.82320267
1.95050,56.51800826
1.95100,49.80373129
1.95150,40.03751024
1.95200,33.32323327
1.95250,33.93362209
1.95300,42.4790655
1.95350,57.12839707
1.95400,73.60889509
1.95450,83.98550495
1.95500,80.32317206
1.95550,59.87514674
1.95600,26.91415071
1.95650,-15.81306637
1.95700,-67.69611568
1.95750,-117.7479985
1.95800,-148.8778281
1.95850,-154.9817163
1.95900,-151.014189
1.95950,-154.6765219
1.96000,-166.2739094
1.96050,-174.208964
1.96100,-171.7674087
1.96150,-160.1700212
1.96200,-140.9427735
1.96250,-112.864888
1.96300,-79.90389198
1.96350,-50.30003444
1.96400,-27.71564827
1.96450,-7.57281736
1.96500,15.92715203
1.96550,44.61542636
1.96600,71.77772864
1.96650,87.34264344
1.96700,85.51147699
1.96750,71.77772864
1.96800,61.40111878
1.96850,62.92709082
1.96900,69.03097897
1.96950,65.9790349
1.97000,47.36217603
1.97050,19.28429052
1.97100,-9.709178214
1.97150,-36.56628609
1.97200,-58.84547785
1.97250,-74.10519824
1.97300,-81.42986402
1.97350,-79.59869758
1.97400,-66.47533805
1.97450,-44.19614628
1.97500,-20.69617689
1.97550,-4.520873283
1.97600,2.498598094
1.97650,6.771319802
1.97700,12.57001355
1.97750,18.6739017
1.97800,21.11545696
1.97850,22.641429
1.97900,28.13492834
1.97950,38.2063438
1.98000,47.66737043
1.98050,50.4141201
1.98100,44.92062076
1.98150,34.84920531
1.98200,26.3037619
1.98250,21.72584578
1.98300,17.14792966
1.98350,7.992097433
1.98400,-6.046845321
1.98450,-18.55981604
1.98500,-23.13773215
1.98550,-18.25462163
1.98600,-7.878011767
1.98650,2.498598094
1.98700,7.992097433
1.98750,7.07651421
1.98800,3.719375725
1.98850,2.193403687
1.98900,0.05704283282
1.98950,-5.741650914
1.99000,-12.15073348
1.99050,-10.62476144
1.99100,0.3622372405
1.99150,10.7388471
1.99200,12.57001355
1.99250,7.381708618
1.99300,-0.2481515749
1.99350,-10.01437262
1.99400,-19.47539926
1.99450,-21.91695452
1.99500,-14.89748314
1.99550,-3.300095652
1.99600,7.992097433
1.99650,24.47259545
1.99700,50.71931451
1.99750,79.10239443
1.99800,96.80367007
1.99850,98.02444771
1.99900,86.42706021
1.99950,70.2517566
2.00000,57.73878589
2.00050,55.29723063
2.00100,62.316702
2.00150,65.06345167
2.00200,51.32970333
2.00250,25.08298426
2.00300,1.277820464
2.00350,-13.67670551
2.00400,-29.24162031
2.00450,-53.04678411
2.00500,-79.59869758
2.00550,-98.52075085
2.00600,-108.2869719
2.00650,-112.2544992
2.00700,-108.2869719
2.00750,-92.72205711
2.00800,-70.13767094
2.00850,-51.21561766
2.00900,-36.56628609
2.00950,-17.64423281
2.01000,7.992097433
2.01050,31.79726123
2.01100,41.25828787
2.01150,33.93362209
2.01200,15.62195763
2.01250,-4.215678875
2.01300,-15.81306637
2.01350,-15.81306637
2.01400,-14.28709433
2.01450,-22.83253774
2.01500,-32.9039532
2.01550,-24.9688986
2.01600,3.10898691
2.01650,28.74531716
2.01700,37.59595498
2.01750,44.92062076
2.01800,72.38811746
2.01850,114.1997513
2.01900,143.19322
2.01950,144.4139977
2.02000,127.0179164
2.02050,105.6543079
2.02100,87.34264344
2.02150,74.82967272
2.02200,71.47253423
2.02250,75.74525594
2.02300,78.1868112
2.02350,66.58942371
2.02400,33.62842768
2.02450,-13.37151111
2.02500,-53.96236733
2.02550,-64.94936601
2.02600,-42.36497984
2.02650,-7.57281736
2.02700,14.09598559
2.02750,18.06351289
2.02800,16.23234644
2.02850,18.06351289
2.02900,22.03104019
2.02950,18.36870729
2.03000,1.583014871
2.03050,-24.05331538
2.03100,-46.02731273
2.03150,-53.04678411
2.03200,-44.8065351
2.03250,-33.20914761
2.03300,-29.54681471
2.03350,-36.26109168
2.03400,-49.99484003
2.03450,-66.78053245
2.03500,-86.31297455
2.03550,-108.5921663
2.03600,-131.7869413
2.03650,-149.1830225
2.03700,-154.6765219
2.03750,-146.7414673
2.03800,-131.4817469
2.03850,-111.338916
2.03900,-83.56622488
2.03950,-47.55328477
2.04000,-12.15073348
2.04050,9.823263879
2.04100,16.84273526
2.04150,16.53754085
2.04200,14.7063744
2.04250,9.518069472
2.04300,0.3622372405
2.04350,-10.01437262
2.04400,-19.78059367
2.04450,-30.15720353
2.04500,-43.89095188
2.04550,-59.15067226
2.04600,-73.49480942
2.04650,-85.39739132
2.04700,-96.68958441
2.04750,-108.2869719
2.04800,-116.5272209
2.04850,-115.6116377
2.04900,-102.1830837
2.04950,-80.5142808
2.05000,-56.709117
2.05050,-34.12473083
2.05100,-11.54034466
2.05150,10.7388471
2.05200,30.2712892
2.05250,44.61542636
2.05300,56.51800826
2.05350,69.9465622
2.05400,85.20628258
2.05450,98.32964211
2.05500,105.9595023
2.05550,107.7906688
2.05600,103.2127526
2.05650,91.31017074
2.05700,71.16733983
2.05750,44.61542636
2.05800,16.84273526
2.05850,-7.267622952
2.05900,-28.32603708
2.05950,-45.72211832
2.06000,-57.01431141
2.06050,-56.09872818
2.06100,-41.75459102
2.06150,-18.86501044
2.06200,4.634958948
2.06250,25.38817867
2.06300,45.22581517
2.06350,65.36864608
2.06400,84.59589377
2.06450,101.0763918
2.06500,113.8945569
2.06550,123.0503891
2.06600,127.3231108
2.06650,126.712722
2.06700,122.1348059
2.06750,113.2841681
2.06800,98.32964211
2.06850,75.13486713
2.06900,46.75178721
2.06950,20.19987374
2.07000,2.193403687
2.07050,-6.352039729
2.07100,-10.62476144
2.07150,-14.89748314
2.07200,-18.55981604
2.07250,-17.94942722
2.07300,-15.20267755
2.07350,-16.72864959
2.07400,-24.05331538
2.07450,-28.63123149
2.07500,-21.61176011
2.07550,-6.046845321
2.07600,5.855736579
2.07650,9.823263879
2.07700,12.87520796
2.07750,21.11545696
2.07800,29.66090038
2.07850,30.5764836
2.07900,25.38817867
2.07950,21.42065137
2.08000,21.72584578
2.08050,22.94662341
2.08100,21.42065137
2.08150,15.92715203
2.08200,8.907680656
2.08250,3.414181318
2.08300,-0.5533459826
2.08350,-5.436456506
2.08400,-11.54034466
2.08450,-16.11826078
2.08500,-15.50787196
2.08550,-13.67670551
2.08600,-17.64423281
2.08650,-26.18967623
2.08700,-33.81953642
2.08750,-38.09225813
2.08800,-40.8390078
2.08850,-40.8390078
2.08900,-31.98836998
2.08950,-16.72864959
2.09000,-4.82606769
2.09050,-0.8585403903
2.09100,-2.689706836
2.09150,-12.45592788
2.09200,-39.92342458
2.09250,-79.59869758
2.09300,-106.150611
2.09350,-99.13113967
2.09400,-70.13767094
2.09450,-45.11172951
2.09500,-29.85200912
2.09550,-9.403983806
2.09600,19.58948493
2.09650,44.00503754
2.09700,53.46606418
2.09750,54.3816474
2.09800,56.82320267
2.09850,59.56995233
2.09900,57.43359148
2.09950,51.02450892
2.10000,42.1738711
2.10050,27.82973393
2.10100,9.518069472
2.10150,-2.689706836
2.10200,-4.215678875
2.10250,-2.384512429
2.10300,-3.60529006
2.10350,-0.8585403903
2.10400,11.34923592
2.10450,20.50506815
2.10500,5.855736579
2.10550,-30.15720353
2.10600,-62.50781075
2.10650,-72.88442061
2.10700,-69.83247653
2.10750,-66.47533805
2.10800,-57.92989463
2.10850,-32.9039532
2.10900,3.10898691
2.10950,31.49206683
2.11000,43.69984313
2.11050,49.49853688
2.11100,60.79072997
2.11150,75.74525594
2.11200,84.59589377
2.11250,83.37511614
2.11300,75.74525594
2.11350,64.14786845
2.11400,49.80373129
2.11450,34.2388165
2.11500,18.97909611
2.11550,1.277820464
2.11600,-19.47539926
2.11650,-38.70264695
2.11700,-46.02731273
2.11750,-40.53381339
2.11800,-33.81953642
2.11850,-36.8714805
2.11900,-48.16367358
2.11950,-57.92989463
2.12000,-61.89742193
2.12050,-61.89742193
2.12100,-59.15067226
2.12150,-54.57275615
2.12200,-52.13120088
2.12250,-57.62470022
2.12300,-70.13767094
2.12350,-82.04025284
2.12400,-88.4493354
2.12450,-89.67011303
2.12500,-86.61816895
2.12550,-75.63117028
2.12600,-53.96236733
2.12650,-27.10525945
2.12700,-3.910484467
2.12750,10.12845829
2.12800,15.92715203
2.12850,16.53754085
2.12900,16.23234644
2.12950,22.3362346
2.13000,38.5115382
2.13050,57.12839707
2.13100,64.45306286
2.13150,55.60242503
2.13200,41.86867669
2.13250,35.15439972
2.13300,35.45959413
2.13350,30.88167801
2.13400,15.92715203
2.13450,-1.468929206
2.13500,-12.76112229
2.13550,-17.033844
2.13600,-18.25462163
2.13650,-16.42345518
2.13700,-10.31956703
2.13750,-0.5533459826
2.13800,7.381708618
2.13850,11.04404151
2.13900,10.7388471
2.13950,8.297291841
2.14000,7.992097433
2.14050,15.31676322
2.14100,33.01803886
2.14150,56.51800826
2.14200,78.79720002
2.14250,96.49847567
2.14300,112.0633905
2.14350,125.7971388
2.14400,137.3945263
2.14450,144.4139977
2.14500,143.4984145
2.14550,130.3750549
2.14600,105.9595023
2.14650,73.9140895
2.14700,34.84920531
2.14750,-12.15073348
2.14800,-57.62470022
2.14850,-86.00778014
2.14900,-93.33244592
2.14950,-94.24802915
2.15000,-101.8778893
2.15050,-111.0337216
2.15100,-110.7285272
2.15150,-100.0467229
2.15200,-84.4818081
2.15250,-64.03378278
2.15300,-40.22861898
2.15350,-23.74812097
2.15400,-25.57928741
2.15450,-40.53381339
2.15500,-53.04678411
2.15550,-56.09872818
2.15600,-53.04678411
2.15650,-46.33250714
2.15700,-37.17667491
2.15750,-30.46239794
2.15800,-28.9364259
2.15850,-23.44292656
2.15900,-5.131262098
2.15950,19.89467933
2.16000,37.90114939
2.16050,45.83620399
2.16100,52.24528655
2.16150,60.79072997
2.16200,65.36864608
2.16250,63.53747963
2.16300,61.40111878
2.16350,62.316702
2.16400,60.79072997
2.16450,51.32970333
2.16500,34.2388165
2.16550,12.26481914
2.16600,-10.01437262
2.16650,-24.9688986
2.16700,-24.9688986
2.16750,-13.67670551
2.16800,-5.741650914
2.16850,-15.50787196
2.16900,-43.89095188
2.16950,-80.20908639
2.17000,-111.338916
2.17050,-129.0401916
2.17100,-132.0921357
2.17150,-121.105137
2.17200,-97.60516763
2.17250,-66.17014364
2.17300,-37.78706372
2.17350,-20.08578808
2.17400,-12.15073348
2.17450,-6.657234137
2.17500,-0.8585403903
2.17550,5.245347764
2.17600,15.62195763
2.17650,31.49206683
2.17700,46.4465928
2.17750,51.32970333
2.17800,47.66737043
2.17850,43.39464873
2.17900,41.56348228
2.17950,41.86867669
2.18000,46.4465928
2.18050,56.51800826
2.18100,64.14786845
2.18150,60.18034115
2.18200,49.49853688
2.18250,47.36217603
2.18300,59.26475793
2.18350,73.9140895
2.18400,77.8816168
2.18450,65.67384049
2.18500,42.1738711
2.18550,18.97909611
2.18600,6.771319802
2.18650,3.719375725
2.18700,-2.994901244
2.18750,-18.86501044
2.18800,-28.63123149
2.18850,-17.94942722
2.18900,3.414181318
2.18950,12.26481914
2.19000,1.888209279
2.19050,-11.84553907
2.19100,-10.92995584
2.19150,4.940153356
2.19200,25.69337308
2.19250,40.03751024
2.19300,45.53100958
2.19350,46.4465928
2.19400,47.36217603
2.19450,47.97256484
2.19500,45.22581517
2.19550,44.00503754
2.19600,51.63489773
2.19650,63.53747963
2.19700,65.06345167
2.19750,55.60242503
2.19800,51.94009214
2.19850,64.14786845
2.19900,79.71278324
2.19950,85.20628258
2.20000,86.42706021
2.20050,95.58289244
2.20100,106.8750855
2.20150,101.6867806
2.20200,74.82967272
2.20250,37.59595498
2.20300,0.9726260559
2.20350,-33.81953642
2.20400,-67.39092127
2.20450,-94.55322355
2.20500,-108.8973607
2.20550,-111.6441104
2.20600,-109.2025551
2.20650,-108.8973607
2.20700,-115.6116377
2.20750,-128.1246084
2.20800,-140.6375791
2.20850,-148.5726337
2.20900,-149.7934113
2.20950,-143.6895232
2.21000,-129.6505804
2.21050,-109.5077495
2.21100,-86.61816895
2.21150,-63.42339397
2.21200,-42.97536865
2.21250,-31.37798116
2.21300,-31.68317557
2.21350,-37.48186931
2.21400,-40.8390078
2.21450,-39.61823017
2.21500,-37.78706372
2.21550,-34.42992524
2.21600,-26.18967623
2.21650,-15.20267755
2.21700,-9.709178214
2.21750,-13.37151111
2.21800,-20.08578808
2.21850,-18.55981604
2.21900,-0.8585403903
2.21950,30.88167801
2.22000,65.36864608
2.22050,85.8166714
2.22100,87.64783784
2.22150,80.93356087
2.22200,78.1868112
2.22250,77.27122798
2.22300,70.2517566
2.22350,57.12839707
2.22400,46.1413984
2.22450,40.95309346
2.22500,38.5115382
2.22550,36.06998294
2.22600,33.62842768
2.22650,24.77778986
2.22700,3.719375725
2.22750,-24.35850978
2.22800,-45.11172951
2.22850,-50.60522885
2.22900,-48.16367358
2.22950,-48.16367358
2.23000,-51.82600648
2.23050,-54.26756174
2.23100,-53.96236733
2.23150,-57.01431141
2.23200,-69.83247653
2.23250,-89.97530744
2.23300,-103.098667
2.23350,-96.99477882
2.23400,-74.41039265
2.23450,-48.7740624
2.23500,-27.41045386
2.23550,-5.741650914
2.23600,18.97909611
2.23650,42.78425991
2.23700,64.14786845
2.23750,88.86861547
2.23800,112.0633905
2.23850,117.2516954
2.23900,98.63483652
2.23950,75.44006154
2.24000,65.67384049
2.24050,60.18034115
2.24100,40.64789906
2.24150,16.53754085
2.24200,15.62195763
2.24250,42.1738711
2.24300,67.19981253
2.24350,67.50500693
2.24400,49.49853688
2.24450,29.96609479
2.24500,13.18040236
2.24550,0.05704283282
2.24600,0.9726260559
2.24650,24.47259545
2.24700,56.51800826
2.24750,74.82967272
2.24800,72.99850627
2.24850,58.3491747
2.24900,37.90114939
2.24950,15.01156881
2.25000,-4.82606769
2.25050,-19.17020485
2.25100,-32.9039532
2.25150,-52.13120088
2.25200,-75.02078146
2.25250,-93.63764033
2.25300,-104.0142502
2.25350,-101.5726949
2.25400,-81.12466962
2.25450,-48.46886799
2.25500,-22.83253774
2.25550,-13.37151111
2.25600,-5.741650914
2.25650,17.75831848
2.25700,51.63489773
2.25750,73.60889509
2.25800,77.8816168
2.25850,77.8816168
2.25900,80.32317206
2.25950,77.57642239
2.26000,63.23228523
2.26050,40.64789906
2.26100,11.65443033
2.26150,-22.83253774
2.26200,-54.26756174
2.26250,-67.69611568
2.26300,-64.03378278
2.26350,-60.06625548
2.26400,-66.47533805
2.26450,-75.63117028
2.26500,-79.29350317
2.26550,-75.02078146
2.26600,-62.20261634
2.26650,-39.31303576
2.26700,-16.42345518
2.26750,-12.45592788
2.26800,-29.54681471
2.26850,-46.02731273
2.26900,-42.97536865
2.26950,-28.9364259
2.27000,-20.08578808
2.27050,-14.89748314
2.27100,1.888209279
2.27150,33.32323327
2.27200,61.70631319
2.27250,76.35564476
2.27300,83.37511614
2.27350,94.0569204
2.27400,104.7387247
2.27450,103.8231415
2.27500,86.73225462
2.27550,62.0115076
2.27600,38.81673261
2.27650,19.58948493
2.27700,5.550542171
2.27750,0.05704283282
2.27800,3.414181318
2.27850,9.518069472
2.27900,8.297291841
2.27950,-0.5533459826
2.28000,-7.267622952
2.28050,-5.741650914
2.28100,-2.689706836
2.28150,-8.488400583
2.28200,-23.13773215
2.28250,-37.17667491
2.28300,-42.97536865
2.28350,-39.00784135
2.28400,-26.18967623
2.28450,-7.267622952
2.28500,7.992097433
2.28550,8.602486248
2.28600,-6.962428544
2.28650,-23.74812097
2.28700,-23.74812097
2.28750,-9.098789398
2.28800,0.3622372405
2.28850,-8.793594991
2.28900,-29.85200912
2.28950,-45.72211832
2.29000,-52.43639529
2.29050,-58.23508904
2.29100,-67.69611568
2.29150,-75.93636468
2.29200,-79.90389198
2.29250,-80.81947521
2.29300,-74.10519824
2.29350,-50.91042325
2.29400,-14.59228874
2.29450,15.01156881
2.29500,26.91415071
2.29550,31.79726123
2.29600,46.1413984
2.29650,67.19981253
2.29700,79.40758884
2.29750,82.1543385
2.29800,90.69978192
2.29850,111.4530016
2.29900,130.6802493
2.29950,131.901027
2.30000,113.8945569
2.30050,87.95303225
2.30100,67.19981253
2.30150,60.18034115
2.30200,68.11539575
2.30250,79.71278324
2.30300,79.10239443
2.30350,57.12839707
2.30400,21.11545696
2.30450,-14.59228874
2.30500,-41.44939661
2.30550,-60.37144989
2.30600,-75.32597587
2.30650,-88.75452981
2.30700,-101.2675005
2.30750,-112.2544992
2.30800,-119.2739706
2.30850,-121.7155258
2.30900,-119.8843594
2.30950,-117.1376097
2.31000,-112.864888
2.31050,-101.2675005
2.31100,-80.81947521
2.31150,-61.28703312
2.31200,-52.13120088
2.31250,-49.38445121
2.31300,-38.09225813
2.31350,-15.81306637
2.31400,3.719375725
2.31450,11.95962473
2.31500,19.58948493
2.31550,39.12192702
2.31600,63.53747963
2.31650,77.57642239
2.31700,79.40758884
2.31750,80.32317206
2.31800,83.37511614
2.31850,83.98550495
2.31900,83.06992173
2.31950,86.42706021
2.32000,91.00497633
2.32050,83.06992173
2.32100,56.82320267
2.32150,23.55701223
2.32200,0.05704283282
2.32250,-8.183206175
2.32300,-6.962428544
2.32350,-4.520873283
2.32400,-6.657234137
2.32450,-14.28709433
2.32500,-23.44292656
2.32550,-30.76759235
2.32600,-37.17667491
2.32650,-45.41692391
2.32700,-55.48833937
2.32750,-63.42339397
2.32800,-66.47533805
2.32850,-66.17014364
2.32900,-66.17014364
2.32950,-70.44286535
2.33000,-79.59869758
2.33050,-82.04025284
2.33100,-63.42339397
2.33150,-28.9364259
2.33200,-2.994901244
2.33250,-3.910484467
2.33300,-20.69617689
2.33350,-29.54681471
2.33400,-22.83253774
2.33450,-13.37151111
2.33500,-11.23515025
2.33550,-11.84553907
2.33600,-7.57281736
2.33650,0.05704283282
2.33700,2.803792502
2.33750,-4.215678875
2.33800,-22.22214893
2.33850,-41.75459102
2.33900,-49.38445121
2.33950,-38.70264695
2.34000,-17.94942722
2.34050,0.9726260559
2.34100,19.28429052
2.34150,40.64789906
2.34200,58.0439803
2.34250,54.3816474
2.34300,27.82973393
2.34350,-0.5533459826
2.34400,-9.709178214
2.34450,0.05704283282
2.34500,11.95962473
2.34550,16.53754085
2.34600,19.89467933
2.34650,30.88167801
2.34700,46.1413984
2.34750,57.73878589
2.34800,66.89461812
2.34850,79.10239443
2.34900,88.86861547
2.34950,79.10239443
2.35000,42.4790655
2.35050,-1.774123613
2.35100,-22.83253774
2.35150,-8.183206175
2.35200,24.47259545
2.35250,50.4141201
2.35300,57.12839707
2.35350,49.19334247
2.35400,39.73231583
2.35450,39.42712143
2.35500,52.24528655
2.35550,67.81020134
2.35600,72.99850627
2.35650,66.58942371
2.35700,56.21281385
2.35750,42.78425991
2.35800,18.97909611
2.35850,-11.23515025
2.35900,-32.9039532
2.35950,-42.67017425
2.36000,-57.01431141
2.36050,-83.56622488
2.36100,-103.098667
2.36150,-95.46880678
2.36200,-70.44286535
2.36250,-53.35197851
2.36300,-48.46886799
2.36350,-42.97536865
2.36400,-35.34550846
2.36450,-36.8714805
2.36500,-44.8065351
2.36550,-44.19614628
2.36600,-35.04031405
2.36650,-35.95589728
2.36700,-54.26756174
2.36750,-75.02078146
2.36800,-84.17661369
2.36850,-87.53375218
2.36900,-90.58569625
2.36950,-82.04025284
2.37000,-47.85847918
2.37050,4.940153356
2.37100,54.3816474
2.37150,82.1543385
2.37200,87.03744903
2.37250,82.1543385
2.37300,84.29069936
2.37350,98.94003093
2.37400,116.6413066
2.37450,123.3555835
2.37500,117.8620842
2.37550,105.9595023
2.37600,84.29069936
2.37650,46.4465928
2.37700,7.686903025
2.37750,-1.468929206
2.37800,26.91415071
2.37850,67.81020134
2.37900,89.7841987
2.37950,88.56342107
2.38000,75.44006154
2.38050,55.60242503
2.38100,28.44012275
2.38150,3.10898691
2.38200,-10.62476144
2.38250,-18.25462163
2.38300,-31.68317557
2.38350,-49.07925681
2.38400,-59.15067226
2.38450,-64.03378278
2.38500,-78.68311435
2.38550,-105.2350278
2.38600,-121.4103314
2.38650,-109.5077495
2.38700,-81.12466962
2.38750,-63.11819956
2.38800,-64.33897719
2.38850,-69.83247653
2.38900,-67.69611568
2.38950,-64.6441716
2.39000,-71.05325416
2.39050,-82.04025284
2.39100,-81.12466962
2.39150,-62.20261634
2.39200,-38.70264695
2.39250,-26.49487064
2.39300,-26.18967623
2.39350,-20.08578808
2.39400,6.771319802
2.39450,51.02450892
2.39500,90.69978192
2.39550,110.232224
2.39600,112.9789737
2.39650,114.8101401
2.39700,119.0828618
2.39750,117.2516954
2.39800,104.4335303
2.39850,85.8166714
2.39900,65.67384049
2.39950,39.42712143
2.40000,7.992097433
2.40050,-16.11826078
2.40100,-24.66370419
2.40150,-26.80006504
2.40200,-31.07278675
2.40250,-29.54681471
2.40300,-12.15073348
2.40350,9.212875064
2.40400,15.62195763
2.40450,8.602486248
2.40500,10.12845829
2.40550,27.82973393
2.40600,44.31023195
2.40650,45.53100958
2.40700,36.68037176
2.40750,30.5764836
2.40800,25.08298426
2.40850,12.87520796
2.40900,-6.962428544
2.40950,-28.9364259
2.41000,-51.82600648
2.41050,-77.76753113
2.41100,-104.9298334
2.41150,-124.1570811
2.41200,-126.5986364
2.41250,-110.7285272
2.41300,-86.61816895
2.41350,-68.30650449
2.41400,-58.54028345
2.41450,-48.16367358
2.41500,-31.98836998
2.41550,-20.08578808
2.41600,-23.74812097
2.41650,-36.8714805
2.41700,-41.14420221
2.41750,-30.15720353
2.41800,-9.098789398
2.41850,20.81026256
2.41900,68.11539575
2.41950,128.2386941
2.42000,174.9334384
2.42050,183.4788819
2.42100,157.5373572
2.42150,121.8296115
2.42200,92.83614277
2.42250,63.84267404
2.42300,23.86220663
2.42350,-20.69617689
2.42400,-53.35197851
2.42450,-66.47533805
2.42500,-68.6116989
2.42550,-68.00131008
2.42600,-61.59222752
2.42650,-45.41692391
2.42700,-24.66370419
2.42750,-4.82606769
2.42800,15.62195763
2.42850,40.03751024
2.42900,58.3491747
2.42950,56.82320267
2.43000,38.2063438
2.43050,25.08298426
2.43100,35.45959413
2.43150,62.62189641
2.43200,82.1543385
2.43250,74.82967272
2.43300,46.75178721
2.43350,22.03104019
2.43400,15.31676322
2.43450,14.09598559
2.43500,-7.57281736
2.43550,-53.04678411
2.43600,-95.16361237
2.43650,-112.5596936
2.43700,-118.0531929
2.43750,-132.0921357
2.43800,-143.3843288
2.43850,-123.5466923
2.43900,-75.63117028
2.43950,-39.61823017
2.44000,-43.89095188
2.44050,-72.27403179
2.44100,-86.92336336
2.44150,-71.35844857
2.44200,-39.00784135
2.44250,-10.01437262
2.44300,4.329764541
2.44350,9.823263879
2.44400,22.03104019
2.44450,50.71931451
2.44500,83.06992173
2.44550,96.80367007
2.44600,88.56342107
2.44650,76.96603357
2.44700,75.74525594
2.44750,75.74525594
2.44800,65.36864608
2.44850,49.49853688
2.44900,39.12192702
2.44950,33.93362209
2.45000,25.99856749
2.45050,15.62195763
2.45100,5.245347764
2.45150,-10.01437262
2.45200,-35.95589728
2.45250,-59.76106108
2.45300,-61.28703312
2.45350,-39.00784135
2.45400,-11.84553907
2.45450,1.277820464
2.45500,2.803792502
2.45550,3.414181318
2.45600,7.07651421
2.45650,8.907680656
2.45700,4.634958948
2.45750,0.05704283282
2.45800,4.940153356
2.45850,20.19987374
2.45900,34.5440109
2.45950,35.45959413
2.46000,25.38817867
2.46050,15.31676322
2.46100,9.518069472
2.46150,0.9726260559
2.46200,-15.81306637
2.46250,-36.26109168
2.46300,-50.60522885
2.46350,-55.48833937
2.46400,-51.82600648
2.46450,-44.8065351
2.46500,-43.28056306
2.46550,-51.82600648
2.46600,-60.37144989
2.46650,-50.60522885
2.46700,-19.17020485
2.46750,15.01156881
2.46800,30.88167801
2.46850,24.47259545
2.46900,6.771319802
2.46950,-10.92995584
2.47000,-19.17020485
2.47050,-12.15073348
2.47100,3.10898691
2.47150,9.212875064
2.47200,-4.215678875
2.47250,-26.18967623
2.47300,-39.92342458
2.47350,-44.19614628
2.47400,-43.89095188
2.47450,-34.73511965
2.47500,-11.54034466
2.47550,15.31676322
2.47600,33.93362209
2.47650,51.32970333
2.47700,79.10239443
2.47750,102.9075582
2.47800,94.36211481
2.47850,59.87514674
2.47900,46.1413984
2.47950,82.1543385
2.48000,137.0893319
2.48050,161.5048845
2.48100,145.3295809
2.48150,119.6932507
2.48200,106.8750855
2.48250,95.27769804
2.48300,64.45306286
2.48350,14.09598559
2.48400,-36.56628609
2.48450,-70.74805975
2.48500,-85.09219692
2.48550,-87.83894659
2.48600,-86.00778014
2.48650,-80.20908639
2.48700,-72.27403179
2.48750,-71.96883738
2.48800,-83.56622488
2.48850,-96.07919559
2.48900,-94.85841796
2.48950,-82.04025284
2.49000,-71.96883738
2.49050,-66.78053245
2.49100,-57.62470022
2.49150,-50.60522885
2.49200,-62.50781075
2.49250,-86.31297455
2.49300,-87.83894659
2.49350,-50.91042325
2.49400,0.05704283282
2.49450,38.5115382
2.49500,70.55695101
2.49550,112.6737793
2.49600,152.9594411
2.49650,165.4724118
2.49700,147.1607473
2.49750,116.6413066
2.49800,84.90108817
2.49850,48.27775925
2.49900,6.771319802
2.49950,-31.98836998
2.50000,-66.78053245
2.50050,-96.99477882
2.50100,-112.5596936
2.50150,-104.3194446
2.50200,-82.65064165
2.50250,-66.47533805
2.50300,-57.01431141
2.50350,-35.95589728
2.50400,0.9726260559
2.50450,32.10245564
2.50500,36.06998294
2.50550,20.50506815
2.50600,7.07651421
2.50650,3.10898691
2.50700,-1.774123613
2.50750,-15.20267755
2.50800,-28.02084268
2.50850,-29.85200912
2.50900,-23.44292656
2.50950,-20.39098248
2.51000,-25.57928741
2.51050,-34.42992524
2.51100,-42.97536865
2.51150,-48.46886799
2.51200,-44.50134069
2.51250,-23.13773215
2.51300,11.04404151
2.51350,44.31023195
2.51400,68.11539575
2.51450,87.34264344
2.51500,103.517947
2.51550,104.4335303
2.51600,85.8166714
2.51650,63.53747963
2.51700,55.29723063
2.51750,55.90761944
2.51800,51.32970333
2.51850,43.39464873
2.51900,43.08945432
2.51950,41.25828787
2.52000,15.92715203
2.52050,-31.68317557
2.52100,-72.88442061
2.52150,-89.05972422
2.52200,-98.82594526
2.52250,-125.9882475
2.52300,-162.9167709
2.52350,-179.3972689
2.52400,-161.6959932
2.52450,-125.3778587
2.52500,-89.36491862
2.52550,-57.62470022
2.52600,-25.27409301
2.52650,7.381708618
2.52700,35.15439972
2.52750,52.55048096
2.52800,59.56995233
2.52850,62.0115076
2.52900,65.36864608
2.52950,67.50500693
2.53000,58.0439803
2.53050,35.45959413
2.53100,15.31676322
2.53150,12.87520796
2.53200,20.19987374
2.53250,15.01156881
2.53300,-5.741650914
2.53350,-24.9688986
2.53400,-31.68317557
2.53450,-32.59875879
2.53500,-30.76759235
2.53550,-14.59228874
2.53600,18.6739017
2.53650,48.27775925
2.53700,56.51800826
2.53750,56.51800826
2.53800,71.47253423
2.53850,99.55041974
2.53900,117.8620842
2.53950,115.7257234
2.54000,103.8231415
2.54050,96.19328126
2.54100,98.02444771
2.54150,110.5374184
2.54200,129.4594717
2.54250,139.2256927
2.54300,126.1023332
2.54350,93.751726
2.54400,58.3491747
2.54450,29.96609479
2.54500,9.823263879
2.54550,-1.163734798
2.54600,-4.82606769
2.54650,-10.62476144
2.54700,-26.80006504
2.54750,-49.68964562
2.54800,-69.22208772
2.54850,-79.59869758
2.54900,-80.81947521
2.54950,-75.32597587
2.55000,-68.6116989
2.55050,-67.69611568
2.55100,-68.91689331
2.55150,-58.54028345
2.55200,-34.73511965
2.55250,-12.76112229
2.55300,-3.300095652
2.55350,0.9726260559
2.55400,5.245347764
2.55450,1.277820464
2.55500,-8.488400583
2.55550,0.05704283282
2.55600,39.73231583
2.55650,80.01797765
2.55700,81.8491441
2.55750,48.27775925
2.55800,16.53754085
2.55850,4.329764541
2.55900,-2.994901244
2.55950,-19.78059367
2.56000,-40.53381339
2.56050,-60.98183871
2.56100,-85.39739132
2.56150,-111.0337216
2.56200,-116.5272209
2.56250,-89.67011303
2.56300,-47.55328477
2.56350,-18.86501044
2.56400,-13.37151111
2.56450,-16.42345518
2.56500,-10.31956703
2.56550,4.634958948
2.56600,18.06351289
2.56650,21.11545696
2.56700,15.92715203
2.56750,8.602486248
2.56800,0.3622372405
2.56850,-9.709178214
2.56900,-23.74812097
2.56950,-42.67017425
2.57000,-65.55975482
2.57050,-83.56622488
2.57100,-81.42986402
2.57150,-54.26756174
2.57200,-19.78059367
2.57250,2.193403687
2.57300,12.57001355
2.57350,26.91415071
2.57400,45.83620399
2.57450,54.3816474
2.57500,45.53100958
2.57550,33.62842768
2.57600,32.40765005
2.57650,37.90114939
2.57700,37.29076057
2.57750,24.77778986
2.57800,2.803792502
2.57850,-21.61176011
2.57900,-37.48186931
2.57950,-36.56628609
2.58000,-25.57928741
2.58050,-23.44292656
2.58100,-36.26109168
2.58150,-49.99484003
2.58200,-51.21561766
2.58250,-46.94289595
2.58300,-50.30003444
2.58350,-54.57275615
2.58400,-44.19614628
2.58450,-24.35850978
2.58500,-19.47539926
2.58550,-39.61823017
2.58600,-63.72858838
2.58650,-67.69611568
2.58700,-50.60522885
2.58750,-26.49487064
2.58800,-2.384512429
2.58850,23.86220663
2.58900,48.27775925
2.58950,59.87514674
2.59000,55.90761944
2.59050,44.31023195
2.59100,33.62842768
2.59150,29.96609479
2.59200,35.15439972
2.59250,44.61542636
2.59300,46.1413984
2.59350,36.98556616
2.59400,31.49206683
2.59450,42.1738711
2.59500,55.29723063
2.59550,45.22581517
2.59600,10.43365269
2.59650,-26.80006504
2.59700,-50.91042325
2.59750,-63.42339397
2.59800,-62.81300515
2.59850,-40.8390078
2.59900,-2.079318021
2.59950,29.96609479
2.60000,41.86867669
2.60050,40.03751024
2.60100,33.62842768
2.60150,22.03104019
2.60200,7.07651421
2.60250,1.583014871
2.60300,8.907680656
2.60350,17.14792966
2.60400,20.19987374
2.60450,32.40765005
2.60500,62.0115076
2.60550,91.61536514
2.60600,98.02444771
2.60650,82.45953291
2.60700,64.75825727
2.60750,54.99203622
2.60800,46.1413984
2.60850,32.40765005
2.60900,15.31676322
2.60950,-4.215678875
2.61000,-29.54681471
2.61050,-56.709117
2.61100,-74.41039265
2.61150,-77.76753113
2.61200,-78.68311435
2.61250,-90.58569625
2.61300,-107.6765831
2.61350,-104.0142502
2.61400,-61.28703312
2.61450,2.803792502
2.61500,47.97256484
2.61550,52.24528655
2.61600,33.32323327
2.61650,21.42065137
2.61700,23.55701223
2.61750,26.6089563
2.61800,22.3362346
2.61850,16.23234644
2.61900,12.87520796
2.61950,9.212875064
2.62000,2.803792502
2.62050,-4.82606769
2.62100,-14.89748314
2.62150,-30.76759235
2.62200,-46.02731273
2.62250,-46.02731273
2.62300,-24.35850978
2.62350,8.602486248
2.62400,37.59595498
2.62450,56.21281385
2.62500,65.06345167
2.62550,61.70631319
2.62600,43.08945432
2.62650,15.31676322
2.62700,-4.520873283
2.62750,-1.468929206
2.62800,25.08298426
2.62850,61.09592437
2.62900,86.1218658
2.62950,85.51147699
2.63000,58.65436911
2.63050,18.06351289
2.63100,-22.83253774
2.63150,-60.06625548
2.63200,-91.50127948
2.63250,-108.5921663
2.63300,-102.7934726
2.63350,-78.98830876
2.63400,-56.40392259
2.63450,-48.16367358
2.63500,-49.68964562
2.63550,-49.68964562
2.63600,-43.28056306
2.63650,-33.20914761
2.63700,-20.08578808
2.63750,-7.267622952
2.63800,-1.774123613
2.63850,-4.215678875
2.63900,-1.774123613
2.63950,16.23234644
2.64000,42.4790655
2.64050,54.99203622
2.64100,44.00503754
2.64150,19.28429052
2.64200,-1.163734798
2.64250,-9.098789398
2.64300,-4.82606769
2.64350,4.634958948
2.64400,10.7388471
2.64450,5.855736579
2.64500,-10.62476144
2.64550,-35.04031405
2.64600,-57.01431141
2.64650,-63.72858838
2.64700,-47.85847918
2.64750,-17.33903841
2.64800,7.686903025
2.64850,19.28429052
2.64900,25.99856749
2.64950,38.2063438
2.65000,49.19334247
2.65050,48.27775925
2.65100,38.2063438
2.65150,29.66090038
2.65200,23.55701223
2.65250,10.7388471
2.65300,-10.92995584
2.65350,-28.63123149
2.65400,-28.9364259
2.65450,-16.11826078
2.65500,-13.0663167
2.65550,-39.31303576
2.65600,-88.14414099
2.65650,-127.819414
2.65700,-128.4298028
2.65750,-96.38439
2.65800,-68.00131008
2.65850,-70.44286535
2.65900,-92.4168627
2.65950,-103.4038614
2.66000,-89.67011303
2.66050,-60.6766443
2.66100,-29.24162031
2.66150,-3.300095652
2.66200,4.940153356
2.66250,-9.098789398
2.66300,-28.9364259
2.66350,-24.05331538
2.66400,12.26481914
2.66450,52.55048096
2.66500,72.08292305
2.66550,77.27122798
2.66600,85.20628258
2.66650,94.66730922
2.66700,94.0569204
2.66750,89.47900429
2.66800,98.32964211
2.66850,119.9984451
2.66900,131.5958326
2.66950,120.3036395
2.67000,99.24522534
2.67050,89.7841987
2.67100,92.53094837
2.67150,88.56342107
2.67200,64.75825727
2.67250,29.66090038
2.67300,7.992097433
2.67350,16.84273526
2.67400,47.97256484
2.67450,76.05045035
2.67500,81.54394969
2.67550,65.67384049
2.67600,43.39464873
2.67650,27.21934512
2.67700,19.28429052
2.67750,10.43365269
2.67800,-9.098789398
2.67850,-36.8714805
2.67900,-52.7415897
2.67950,-42.67017425
2.68000,-19.17020485
2.68050,-7.267622952
2.68100,-17.94942722
2.68150,-36.56628609
2.68200,-48.16367358
2.68250,-48.7740624
2.68300,-42.05978543
2.68350,-30.46239794
2.68400,-18.25462163
2.68450,-10.31956703
2.68500,-2.689706836
2.68550,10.7388471
2.68600,25.99856749
2.68650,30.88167801
2.68700,27.82973393
2.68750,32.10245564
2.68800,47.97256484
2.68850,55.60242503
2.68900,37.90114939
2.68950,0.05704283282
2.69000,-38.09225813
2.69050,-63.42339397
2.69100,-73.49480942
2.69150,-69.83247653
2.69200,-57.31950582
2.69250,-45.11172951
2.69300,-40.8390078
2.69350,-43.89095188
2.69400,-48.46886799
2.69450,-45.11172951
2.69500,-26.49487064
2.69550,7.686903025
2.69600,40.95309346
2.69650,50.4141201
2.69700,32.10245564
2.69750,6.771319802
2.69800,-1.774123613
2.69850,7.686903025
2.69900,22.94662341
2.69950,35.45959413
2.70000,45.83620399
2.70050,54.3816474
2.70100,56.82320267
2.70150,53.77125859
2.70200,52.55048096
2.70250,55.60242503
2.70300,53.46606418
2.70350,36.37517735
2.70400,9.518069472
2.70450,-10.92995584
2.70500,-18.86501044
2.70550,-24.05331538
2.70600,-39.61823017
2.70650,-67.39092127
2.70700,-96.99477882
2.70750,-118.6635818
2.70800,-127.5142196
2.70850,-124.1570811
2.70900,-113.1700824
2.70950,-100.0467229
2.71000,-88.14414099
2.71050,-78.68311435
2.71100,-73.49480942
2.71150,-73.80000383
2.71200,-76.24155909
2.71250,-70.13767094
2.71300,-46.63770155
2.71350,-13.0663167
2.71400,11.65443033
2.71450,19.89467933
2.71500,21.72584578
2.71550,31.49206683
2.71600,48.58295366
2.71650,61.40111878
2.71700,63.23228523
2.71750,59.26475793
2.71800,54.076453
2.71850,45.83620399
2.71900,31.49206683
2.71950,10.43365269
2.72000,-18.55981604
2.72050,-54.87795055
2.72100,-82.34544725
2.72150,-82.95583606
2.72200,-60.06625548
2.72250,-40.8390078
2.72300,-40.22861898
2.72350,-43.28056306
2.72400,-32.9039532
2.72450,-17.64423281
2.72500,-14.89748314
2.72550,-17.033844
2.72600,-4.82606769
2.72650,18.36870729
2.72700,32.40765005
2.72750,33.62842768
2.72800,39.12192702
2.72850,54.99203622
2.72900,67.81020134
2.72950,71.77772864
2.73000,72.69331187
2.73050,64.14786845
2.73100,29.66090038
2.73150,-20.39098248
2.73200,-44.19614628
2.73250,-21.0013713
2.73300,15.31676322
2.73350,23.25181782
2.73400,7.07651421
2.73450,6.466125395
2.73500,36.98556616
2.73550,71.16733983
2.73600,76.66083917
2.73650,48.27775925
2.73700,5.855736579
2.73750,-28.63123149
2.73800,-41.14420221
2.73850,-33.51434201
2.73900,-25.88448182
2.73950,-40.53381339
2.74000,-76.85194791
2.74050,-108.2869719
2.74100,-112.2544992
2.74150,-94.85841796
2.74200,-79.29350317
2.74250,-70.13767094
2.74300,-48.46886799
2.74350,-2.384512429
2.74400,47.97256484
2.74450,73.30370068
2.74500,69.64136779
2.74550,63.84267404
2.74600,78.49200561
2.74650,106.5698911
2.74700,123.9659724
2.74750,118.472473
2.74800,99.85561415
2.74850,86.42706021
2.74900,87.03744903
2.74950,91.92055955
2.75000,84.59589377
2.75050,58.3491747
2.75100,26.3037619
2.75150,5.855736579
2.75200,2.498598094
2.75250,6.771319802
2.75300,5.245347764
2.75350,-6.657234137
2.75400,-23.74812097
2.75450,-30.15720353
2.75500,-9.098789398
2.75550,31.18687242
2.75600,57.43359148
2.75650,43.08945432
2.75700,4.329764541
2.75750,-17.033844
2.75800,-7.57281736
2.75850,6.160930987
2.75900,-0.2481515749
2.75950,-21.30656571
2.76000,-38.39745254
2.76050,-49.07925681
2.76100,-58.84547785
2.76150,-61.28703312
2.76200,-47.85847918
2.76250,-25.27409301
2.76300,-10.62476144
2.76350,-5.741650914
2.76400,-1.163734798
2.76450,2.498598094
2.76500,-6.657234137
2.76550,-29.24162031
2.76600,-42.05978543
2.76650,-26.18967623
2.76700,11.65443033
2.76750,51.02450892
2.76800,81.8491441
2.76850,110.232224
2.76900,134.952971
2.76950,141.667248
2.77000,122.7451947
2.77050,90.69978192
2.77100,65.36864608
2.77150,50.71931451
2.77200,39.73231583
2.77250,30.88167801
2.77300,29.96609479
2.77350,31.79726123
2.77400,22.3362346
2.77450,0.05704283282
2.77500,-16.42345518
2.77550,-13.98189992
2.77600,-2.384512429
2.77650,-1.163734798
2.77700,-12.45592788
2.77750,-23.13773215
2.77800,-26.18967623
2.77850,-30.15720353
2.77900,-44.50134069
2.77950,-66.47533805
2.78000,-84.17661369
2.78050,-91.19608507
2.78100,-86.61816895
2.78150,-70.74805975
2.78200,-43.28056306
2.78250,-11.23515025
2.78300,9.518069472
2.78350,7.686903025
2.78400,-11.54034466
2.78450,-24.9688986
2.78500,-14.59228874
2.78550,13.18040236
2.78600,35.15439972
2.78650,36.68037176
2.78700,22.641429
2.78750,4.024570133
2.78800,-18.25462163
2.78850,-49.07925681
2.78900,-82.95583606
2.78950,-107.3713887
2.79000,-116.5272209
2.79050,-113.4752768
2.79100,-99.43633408
2.79150,-75.93636468
2.79200,-53.35197851
2.79250,-45.41692391
2.79300,-49.99484003
2.79350,-46.94289595
2.79400,-25.57928741
2.79450,-0.2481515749
2.79500,10.43365269
2.79550,14.09598559
2.79600,32.40765005
2.79650,61.09592437
2.79700,72.38811746
2.79750,53.16086977
2.79800,26.3037619
2.79850,15.92715203
2.79900,14.09598559
2.79950,-0.5533459826
2.80000,-29.85200912
2.80050,-53.35197851
2.80100,-60.06625548
2.80150,-56.09872818
2.80200,-47.24809036
2.80250,-33.20914761
2.80300,-20.08578808
2.80350,-18.55981604
2.80400,-24.05331538
2.80450,-17.033844
2.80500,9.823263879
2.80550,36.98556616
2.80600,40.34270465
2.80650,25.08298426
2.80700,19.58948493
2.80750,43.08945432
2.80800,80.32317206
2.80850,97.41405889
2.80900,73.60889509
2.80950,21.72584578
2.81000,-22.52734334
2.81050,-37.48186931
2.81100,-31.68317557
2.81150,-28.02084268
2.81200,-32.9039532
2.81250,-33.51434201
2.81300,-24.35850978
2.81350,-21.61176011
2.81400,-37.78706372
2.81450,-62.81300515
2.81500,-74.10519824
2.81550,-63.72858838
2.81600,-41.75459102
2.81650,-19.47539926
2.81700,-2.689706836
2.81750,0.05704283282
2.81800,-15.81306637
2.81850,-37.78706372
2.81900,-42.67017425
2.81950,-23.13773215
2.82000,5.245347764
2.82050,29.05051156
2.82100,50.71931451
2.82150,74.82967272
2.82200,92.53094837
2.82250,93.14133718
2.82300,80.93356087
2.82350,69.33617338
2.82400,63.84267404
2.82450,61.70631319
2.82500,62.92709082
2.82550,70.55695101
2.82600,78.79720002
2.82650,76.35564476
2.82700,62.0115076
2.82750,45.83620399
2.82800,34.84920531
2.82850,23.25181782
2.82900,5.550542171
2.82950,-14.89748314
2.83000,-28.32603708
2.83050,-30.46239794
2.83100,-25.27409301
2.83150,-17.94942722
2.83200,-10.92995584
2.83250,-6.657234137
2.83300,-8.183206175
2.83350,-13.67670551
2.83400,-14.28709433
2.83450,-3.300095652
2.83500,15.31676322
2.83550,29.66090038
2.83600,33.01803886
2.83650,31.49206683
2.83700,33.93362209
2.83750,41.86867669
2.83800,50.71931451
2.83850,54.68684181
2.83900,46.75178721
2.83950,20.81026256
2.84000,-18.86501044
2.84050,-58.84547785
2.84100,-82.95583606
2.84150,-83.26103047
2.84200,-63.42339397
2.84250,-35.95589728
2.84300,-17.033844
2.84350,-12.15073348
2.84400,-11.23515025
2.84450,-2.079318021
2.84500,8.602486248
2.84550,9.212875064
2.84600,5.550542171
2.84650,16.84273526
2.84700,45.22581517
2.84750,68.72578457
2.84800,72.38811746
2.84850,62.62189641
2.84900,43.69984313
2.84950,7.381708618
2.85000,-36.8714805
2.85050,-51.21561766
2.85100,-10.92995584
2.85150,54.3816474
2.85200,89.7841987
2.85250,73.60889509
2.85300,29.35570597
2.85350,-11.54034466
2.85400,-39.31303576
2.85450,-57.92989463
2.85500,-69.22208772
2.85550,-72.5792262
2.85600,-69.83247653
2.85650,-66.17014364
2.85700,-67.08572686
2.85750,-67.08572686
2.85800,-49.07925681
2.85850,-6.046845321
2.85900,37.29076057
2.85950,45.22581517
2.86000,12.57001355
2.86050,-24.05331538
2.86100,-29.85200912
2.86150,-9.098789398
2.86200,8.602486248
2.86250,8.907680656
2.86300,0.05704283282
2.86350,-3.300095652
2.86400,0.3622372405
2.86450,4.940153356
2.86500,4.329764541
2.86550,2.498598094
2.86600,7.992097433
2.86650,18.06351289
2.86700,17.75831848
2.86750,0.9726260559
2.86800,-15.50787196
2.86850,-16.11826078
2.86900,-7.878011767
2.86950,-3.910484467
2.87000,5.245347764
2.87050,35.15439972
2.87100,67.19981253
2.87150,64.45306286
2.87200,19.58948493
2.87250,-35.95589728
2.87300,-73.18961502
2.87350,-86.31297455
2.87400,-79.29350317
2.87450,-58.23508904
2.87500,-46.02731273
2.87550,-67.39092127
2.87600,-112.2544992
2.87650,-138.1960239
2.87700,-121.4103314
2.87750,-80.81947521
2.87800,-45.11172951
2.87850,-18.55981604
2.87900,7.686903025
2.87950,33.62842768
2.88000,50.4141201
2.88050,56.82320267
2.88100,57.12839707
2.88150,59.87514674
2.88200,75.74525594
2.88250,101.991975
2.88300,114.1997513
2.88350,91.31017074
2.88400,42.1738711
2.88450,-3.300095652
2.88500,-32.29356438
2.88550,-50.91042325
2.88600,-57.92989463
2.88650,-42.05978543
2.88700,-7.57281736
2.88750,21.72584578
2.88800,29.05051156
2.88850,11.65443033
2.88900,-28.02084268
2.88950,-79.29350317
2.89000,-107.0661943
2.89050,-83.56622488
2.89100,-31.98836998
2.89150,-7.878011767
2.89200,-27.41045386
2.89250,-47.24809036
2.89300,-26.80006504
2.89350,18.36870729
2.89400,47.36217603
2.89450,47.36217603
2.89500,39.12192702
2.89550,44.61542636
2.89600,69.9465622
2.89650,103.517947
2.89700,122.4400003
2.89750,105.3491135
2.89800,62.92709082
2.89850,36.98556616
2.89900,57.43359148
2.89950,105.6543079
2.90000,134.952971
2.90050,120.9140283
2.90100,79.40758884
2.90150,38.81673261
2.90200,8.602486248
2.90250,-16.11826078
2.90300,-36.8714805
2.90350,-47.24809036
2.90400,-50.91042325
2.90450,-60.37144989
2.90500,-78.37791995
2.90550,-82.95583606
2.90600,-56.40392259
2.90650,-12.76112229
2.90700,13.48559677
2.90750,10.7388471
