type,name,time_units,begin_time,frequency,count,units
signal,"Noraxon Ultium-RT BRACHIORAD.","s",0.00000,2000,51720,"uV"

time,value
0.00000,-31.11686531
0.00050,-47.90255773
0.00100,-55.53241792
0.00150,-64.07786134
0.00200,-77.81160968
0.00250,-93.07133007
0.00300,-105.8894952
0.00350,-115.9609106
0.00400,-120.5388268
0.00450,-111.3829945
0.00500,-84.22069225
0.00550,-45.46100247
0.00600,-7.616895912
0.00650,20.15579519
0.00700,37.85707084
0.00750,51.89601359
0.00800,69.29209483
0.00850,91.57128659
0.00900,112.6297007
0.00950,123.311505
0.01000,118.1232001
0.01050,97.67517474
0.01100,68.68170601
0.01150,40.6038205
0.01200,21.07137841
0.01250,10.38957414
0.01300,4.285685988
0.01350,-1.513007758
0.01400,-6.701312689
0.01450,-8.837673543
0.01500,-10.36364558
0.01550,-14.02597847
0.01600,-18.909089
0.01650,-20.74025544
0.01700,-17.07792255
0.01750,-10.66883999
0.01800,-5.785729466
0.01850,-2.733785389
0.01900,0.3181586879
0.01950,7.337630065
0.02000,18.32462874
0.02050,29.92201623
0.02100,36.94148761
0.02150,38.46745965
0.02200,37.55187643
0.02250,36.6362932
0.02300,34.80512676
0.02350,29.92201623
0.02400,24.7337113
0.02450,23.81812808
0.02500,29.00643301
0.02550,36.3310988
0.02600,40.90901491
0.02650,40.6038205
0.02700,35.11032117
0.02750,25.95448893
0.02800,16.18826789
0.02850,11.61035177
0.02900,12.8311294
0.02950,14.96749026
0.03000,13.74671263
0.03050,10.69476855
0.03100,10.08437973
0.03150,11.61035177
0.03200,11.91554618
0.03250,10.69476855
0.03300,9.473990919
0.03350,9.168796511
0.03400,8.558407696
0.03450,7.337630065
0.03500,6.116852434
0.03550,3.98049158
0.03600,-0.9026189429
0.03650,-7.616895912
0.03700,-11.2792288
0.03750,-8.837673543
0.03800,-3.649368612
0.03850,-1.513007758
0.03900,-5.175340651
0.03950,-12.19481203
0.04000,-19.21428341
0.04050,-21.35064426
0.04100,-18.60389459
0.04150,-14.33117288
0.04200,-13.72078407
0.04250,-16.46753374
0.04300,-17.99350577
0.04350,-15.85714492
0.04400,-14.02597847
0.04450,-14.63636729
0.04500,-15.55195051
0.04550,-14.9415617
0.04600,-15.55195051
0.04650,-19.21428341
0.04700,-22.57142189
0.04750,-20.43506104
0.04800,-14.63636729
0.04850,-10.36364558
0.04900,-10.66883999
0.04950,-14.02597847
0.05000,-18.29870018
0.05050,-22.26622748
0.05100,-24.40258834
0.05150,-22.57142189
0.05200,-18.60389459
0.05250,-15.85714492
0.05300,-15.85714492
0.05350,-17.68831137
0.05400,-20.12986663
0.05450,-21.96103307
0.05500,-19.51947781
0.05550,-12.80520084
0.05600,-6.701312689
0.05650,-7.311701505
0.05700,-12.80520084
0.05750,-17.68831137
0.05800,-21.65583867
0.05850,-29.28569886
0.05900,-38.44153109
0.05950,-43.01944721
0.06000,-43.01944721
0.06050,-45.46100247
0.06100,-51.87008503
0.06150,-52.78566825
0.06200,-42.10386398
0.06250,-28.98050445
0.06300,-25.62336597
0.06350,-32.03244853
0.06400,-38.44153109
0.06450,-39.96750313
0.06500,-40.27269754
0.06550,-43.32464161
0.06600,-47.59736332
0.06650,-50.95450181
0.06700,-54.92202911
0.06750,-60.11033404
0.06800,-62.24669489
0.06850,-56.14280674
0.06900,-42.10386398
0.06950,-22.26622748
0.07000,0.6233530956
0.07050,25.34410012
0.07100,47.31809747
0.07150,63.79859549
0.07200,74.78559417
0.07250,81.80506554
0.07300,84.55181521
0.07350,84.85700962
0.07400,85.77259284
0.07450,89.43492574
0.07500,92.48686981
0.07550,88.82453692
0.07600,76.0063718
0.07650,58.30509615
0.07700,42.12979254
0.07750,31.14279387
0.07800,25.03890571
0.07850,20.766184
0.07900,16.18826789
0.07950,11.61035177
0.08000,8.558407696
0.08050,7.642824473
0.08100,6.422046842
0.08150,4.285685988
0.08200,3.675297173
0.08250,8.863602104
0.08300,18.62982315
0.08350,27.48046097
0.08400,30.83759946
0.08450,29.00643301
0.08500,26.25968334
0.08550,23.81812808
0.08600,21.68176723
0.08650,18.01943433
0.08700,14.05190703
0.08750,11.61035177
0.08800,8.558407696
0.08850,2.149325134
0.08900,-6.396118282
0.08950,-12.19481203
0.09000,-10.36364558
0.09050,-4.870146243
0.09100,-1.818202166
0.09150,-1.818202166
0.09200,-1.513007758
0.09250,0.3181586879
0.09300,0.3181586879
0.09350,-1.513007758
0.09400,-2.428590981
0.09450,-1.513007758
0.09500,-1.513007758
0.09550,-2.428590981
0.09600,-1.818202166
0.09650,0.6233530956
0.09700,0.9285475033
0.09750,-3.038979797
0.09800,-7.006507097
0.09850,-7.616895912
0.09900,-8.532479135
0.09950,-12.19481203
0.10000,-15.55195051
0.10050,-13.11039525
0.10100,-7.616895912
0.10150,-5.175340651
0.10200,-6.396118282
0.10250,-7.006507097
0.10300,-5.175340651
0.10350,-3.649368612
0.10400,-2.123396574
0.10450,0.3181586879
0.10500,1.233741911
0.10550,-1.513007758
0.10600,-6.396118282
0.10650,-6.396118282
0.10700,-1.207813351
0.10750,3.064908357
0.10800,5.201269211
0.10850,7.032435657
0.10900,9.473990919
0.10950,8.863602104
0.11000,4.896074803
0.11050,2.454519542
0.11100,3.370102765
0.11150,2.454519542
0.11200,-3.649368612
0.11250,-9.448062359
0.11300,-7.311701505
0.11350,-0.5974245352
0.11400,0.3181586879
0.11450,-7.616895912
0.11500,-17.38311696
0.11550,-20.74025544
0.11600,-17.68831137
0.11650,-13.41558966
0.11700,-10.66883999
0.11750,-7.92209032
0.11800,-2.428590981
0.11850,4.590880396
0.11900,10.69476855
0.11950,13.44151822
0.12000,13.44151822
0.12050,11.61035177
0.12100,9.779185327
0.12150,10.08437973
0.12200,12.525935
0.12250,15.27268467
0.12300,14.66229585
0.12350,10.99996296
0.12400,9.168796511
0.12450,10.69476855
0.12500,11.91554618
0.12550,7.94801888
0.12600,2.75971395
0.12650,3.064908357
0.12700,5.201269211
0.12750,0.6233530956
0.12800,-9.753256766
0.12850,-14.63636729
0.12900,-6.701312689
0.12950,3.98049158
0.13000,7.337630065
0.13050,7.032435657
0.13100,12.8311294
0.13150,23.51293367
0.13200,29.61682183
0.13250,28.3960442
0.13300,27.48046097
0.13350,29.92201623
0.13400,29.92201623
0.13450,23.81812808
0.13500,18.01943433
0.13550,18.01943433
0.13600,21.37657282
0.13650,22.29215604
0.13700,19.85060078
0.13750,18.01943433
0.13800,18.01943433
0.13850,18.01943433
0.13900,17.40904552
0.13950,15.88307348
0.14000,14.66229585
0.14050,14.05190703
0.14100,13.44151822
0.14150,12.22074059
0.14200,10.08437973
0.14250,8.558407696
0.14300,8.558407696
0.14350,8.558407696
0.14400,6.422046842
0.14450,3.675297173
0.14500,3.675297173
0.14550,6.116852434
0.14600,7.032435657
0.14650,3.370102765
0.14700,-2.428590981
0.14750,-9.142867951
0.14800,-15.55195051
0.14850,-20.12986663
0.14900,-20.43506104
0.14950,-16.46753374
0.15000,-12.80520084
0.15050,-12.80520084
0.15100,-13.11039525
0.15150,-10.9740344
0.15200,-8.227284728
0.15250,-8.837673543
0.15300,-11.58442321
0.15350,-11.2792288
0.15400,-7.006507097
0.15450,-3.344174205
0.15500,-5.785729466
0.15550,-14.63636729
0.15600,-23.48700511
0.15650,-25.62336597
0.15700,-20.12986663
0.15750,-10.66883999
0.15800,-1.513007758
0.15850,8.253213288
0.15900,20.766184
0.15950,34.80512676
0.16000,44.87654221
0.16050,48.84406951
0.16100,49.14926392
0.16150,48.2336807
0.16200,45.48693103
0.16250,39.38304287
0.16300,30.53240505
0.16350,21.37657282
0.16400,14.66229585
0.16450,11.30515737
0.16500,10.69476855
0.16550,10.38957414
0.16600,8.253213288
0.16650,5.201269211
0.16700,1.538936319
0.16750,-1.207813351
0.16800,-2.428590981
0.16850,0.3181586879
0.16900,2.75971395
0.16950,-4.259757428
0.17000,-22.8766163
0.17050,-39.05191991
0.17100,-40.88308635
0.17150,-33.25322616
0.17200,-30.8116709
0.17250,-34.7791982
0.17300,-34.47400379
0.17350,-27.14933801
0.17400,-21.96103307
0.17450,-20.43506104
0.17500,-10.05845117
0.17550,14.05190703
0.17600,39.38304287
0.17650,51.59081918
0.17700,54.94795767
0.17750,59.52587378
0.17800,63.79859549
0.17850,58.91548497
0.17900,46.40251425
0.17950,36.02590439
0.18000,31.75318268
0.18050,27.48046097
0.18100,20.4609896
0.18150,16.4934623
0.18200,17.40904552
0.18250,18.62982315
0.18300,16.18826789
0.18350,13.13632381
0.18400,12.8311294
0.18450,13.74671263
0.18500,12.8311294
0.18550,10.38957414
0.18600,7.94801888
0.18650,5.506463619
0.18700,1.844130726
0.18750,-1.818202166
0.18800,-3.649368612
0.18850,-5.175340651
0.18900,-9.448062359
0.18950,-15.2467561
0.19000,-17.99350577
0.19050,-14.9415617
0.19100,-11.2792288
0.19150,-11.88961762
0.19200,-15.2467561
0.19250,-14.33117288
0.19300,-5.480535058
0.19350,5.811658027
0.19400,13.74671263
0.19450,16.4934623
0.19500,16.18826789
0.19550,13.44151822
0.19600,7.032435657
0.19650,-0.9026189429
0.19700,-6.090923874
0.19750,-6.701312689
0.19800,-5.480535058
0.19850,-6.396118282
0.19900,-10.9740344
0.19950,-18.60389459
0.20000,-28.06492123
0.20050,-38.13633668
0.20100,-46.07139128
0.20150,-48.51294654
0.20200,-45.76619688
0.20250,-42.10386398
0.20300,-41.18828076
0.20350,-43.62983602
0.20400,-43.62983602
0.20450,-37.22075346
0.20500,-28.06492123
0.20550,-24.70778274
0.20600,-31.42205971
0.20650,-38.7467255
0.20700,-34.47400379
0.20750,-18.29870018
0.20800,-2.428590981
0.20850,3.370102765
0.20900,4.590880396
0.20950,10.99996296
0.21000,23.20773927
0.21050,31.14279387
0.21100,30.53240505
0.21150,25.64929453
0.21200,20.766184
0.21250,12.525935
0.21300,-1.207813351
0.21350,-15.55195051
0.21400,-24.09739393
0.21450,-26.8441436
0.21500,-27.75972682
0.21550,-25.62336597
0.21600,-16.16233933
0.21650,-2.123396574
0.21700,9.168796511
0.21750,14.35710144
0.21800,17.71423993
0.21850,23.81812808
0.21900,31.44798827
0.21950,35.72070998
0.22000,35.41551557
0.22050,30.83759946
0.22100,21.98696163
0.22150,10.99996296
0.22200,2.149325134
0.22250,-1.818202166
0.22300,-2.733785389
0.22350,-3.344174205
0.22400,-4.870146243
0.22450,-6.396118282
0.22500,-7.311701505
0.22550,-8.837673543
0.22600,-11.2792288
0.22650,-13.72078407
0.22700,-14.63636729
0.22750,-14.63636729
0.22800,-14.9415617
0.22850,-16.77272814
0.22900,-19.21428341
0.22950,-21.35064426
0.23000,-22.26622748
0.23050,-21.65583867
0.23100,-21.04544985
0.23150,-21.96103307
0.23200,-24.40258834
0.23250,-25.62336597
0.23300,-23.48700511
0.23350,-21.35064426
0.23400,-22.26622748
0.23450,-25.01297715
0.23500,-25.62336597
0.23550,-22.26622748
0.23600,-18.909089
0.23650,-20.43506104
0.23700,-26.23375478
0.23750,-32.33764294
0.23800,-36.30517024
0.23850,-38.7467255
0.23900,-39.35711431
0.23950,-36.91555905
0.24000,-32.03244853
0.24050,-24.70778274
0.24100,-14.63636729
0.24150,-4.259757428
0.24200,0.9285475033
0.24250,-0.2922301275
0.24300,-4.564951835
0.24350,-5.175340651
0.24400,-2.428590981
0.24450,-2.123396574
0.24500,-4.870146243
0.24550,-5.175340651
0.24600,-2.428590981
0.24650,-0.5974245352
0.24700,-4.259757428
0.24750,-11.2792288
0.24800,-17.99350577
0.24850,-22.57142189
0.24900,-24.40258834
0.24950,-23.48700511
0.25000,-22.26622748
0.25050,-24.40258834
0.25100,-29.59089327
0.25150,-32.94803175
0.25200,-33.55842057
0.25250,-35.08439261
0.25300,-39.05191991
0.25350,-41.49347517
0.25400,-40.27269754
0.25450,-36.61036464
0.25500,-31.72725412
0.25550,-22.57142189
0.25600,-10.66883999
0.25650,-1.207813351
0.25700,2.454519542
0.25750,4.590880396
0.25800,9.168796511
0.25850,14.05190703
0.25900,14.35710144
0.25950,10.69476855
0.26000,8.558407696
0.26050,8.558407696
0.26100,8.558407696
0.26150,6.72724125
0.26200,3.675297173
0.26250,0.3181586879
0.26300,-1.818202166
0.26350,-2.123396574
0.26400,-1.207813351
0.26450,-0.9026189429
0.26500,-2.123396574
0.26550,-2.123396574
0.26600,0.01296428019
0.26650,1.538936319
0.26700,-1.513007758
0.26750,-10.05845117
0.26800,-18.29870018
0.26850,-22.26622748
0.26900,-22.8766163
0.26950,-23.79219952
0.27000,-28.06492123
0.27050,-33.55842057
0.27100,-34.16880938
0.27150,-26.8441436
0.27200,-14.63636729
0.27250,-5.480535058
0.27300,-4.259757428
0.27350,-10.9740344
0.27400,-21.04544985
0.27450,-29.28569886
0.27500,-32.94803175
0.27550,-31.72725412
0.27600,-27.45453241
0.27650,-21.65583867
0.27700,-17.07792255
0.27750,-14.9415617
0.27800,-14.33117288
0.27850,-10.05845117
0.27900,0.9285475033
0.27950,16.7986567
0.28000,30.83759946
0.28050,39.38304287
0.28100,43.65576458
0.28150,44.5713478
0.28200,41.82459814
0.28250,35.72070998
0.28300,29.31162742
0.28350,25.95448893
0.28400,24.7337113
0.28450,22.29215604
0.28500,17.71423993
0.28550,11.61035177
0.28600,5.811658027
0.28650,1.844130726
0.28700,-1.207813351
0.28750,-5.175340651
0.28800,-10.05845117
0.28850,-12.80520084
0.28900,-10.05845117
0.28950,-3.649368612
0.29000,1.844130726
0.29050,4.285685988
0.29100,6.422046842
0.29150,10.38957414
0.29200,13.13632381
0.29250,11.91554618
0.29300,8.253213288
0.29350,5.506463619
0.29400,3.370102765
0.29450,-2.123396574
0.29500,-11.58442321
0.29550,-18.909089
0.29600,-20.43506104
0.29650,-17.99350577
0.29700,-16.46753374
0.29750,-15.85714492
0.29800,-13.11039525
0.29850,-7.616895912
0.29900,-2.428590981
0.29950,-0.2922301275
0.30000,-0.5974245352
0.30050,0.01296428019
0.30100,1.844130726
0.30150,6.116852434
0.30200,10.99996296
0.30250,12.525935
0.30300,5.506463619
0.30350,-10.05845117
0.30400,-27.14933801
0.30450,-34.7791982
0.30500,-31.11686531
0.30550,-23.79219952
0.30600,-20.43506104
0.30650,-20.74025544
0.30700,-20.43506104
0.30750,-18.29870018
0.30800,-14.9415617
0.30850,-8.532479135
0.30900,3.370102765
0.30950,19.85060078
0.31000,33.88954354
0.31050,37.24668202
0.31100,28.3960442
0.31150,10.08437973
0.31200,-10.36364558
0.31250,-25.31817156
0.31300,-29.59089327
0.31350,-24.40258834
0.31400,-15.55195051
0.31450,-7.92209032
0.31500,-3.649368612
0.31550,-1.207813351
0.31600,1.844130726
0.31650,8.558407696
0.31700,18.93501756
0.31750,29.31162742
0.31800,37.55187643
0.31850,42.12979254
0.31900,43.65576458
0.31950,41.21420932
0.32000,34.49993235
0.32050,25.95448893
0.32100,18.32462874
0.32150,14.66229585
0.32200,14.05190703
0.32250,14.96749026
0.32300,13.74671263
0.32350,10.08437973
0.32400,5.811658027
0.32450,4.285685988
0.32500,4.896074803
0.32550,6.72724125
0.32600,8.863602104
0.32650,10.99996296
0.32700,12.8311294
0.32750,12.525935
0.32800,11.30515737
0.32850,10.69476855
0.32900,10.69476855
0.32950,9.473990919
0.33000,7.032435657
0.33050,6.116852434
0.33100,6.72724125
0.33150,7.337630065
0.33200,6.116852434
0.33250,4.590880396
0.33300,4.590880396
0.33350,5.811658027
0.33400,6.422046842
0.33450,5.811658027
0.33500,4.590880396
0.33550,3.064908357
0.33600,1.844130726
0.33650,1.538936319
0.33700,1.538936319
0.33750,0.3181586879
0.33800,-2.428590981
0.33850,-5.480535058
0.33900,-5.175340651
0.33950,0.01296428019
0.34000,6.72724125
0.34050,10.38957414
0.34100,8.558407696
0.34150,3.675297173
0.34200,0.9285475033
0.34250,0.9285475033
0.34300,-0.9026189429
0.34350,-8.837673543
0.34400,-19.21428341
0.34450,-28.37011564
0.34500,-35.38958701
0.34550,-39.96750313
0.34600,-40.88308635
0.34650,-36.30517024
0.34700,-30.20128208
0.34750,-27.45453241
0.34800,-27.14933801
0.34850,-21.35064426
0.34900,-7.006507097
0.34950,9.168796511
0.35000,20.766184
0.35050,26.56487775
0.35100,29.92201623
0.35150,31.14279387
0.35200,27.48046097
0.35250,18.32462874
0.35300,8.253213288
0.35350,0.9285475033
0.35400,-3.649368612
0.35450,-6.701312689
0.35500,-5.480535058
0.35550,0.01296428019
0.35600,4.285685988
0.35650,4.896074803
0.35700,6.72724125
0.35750,16.4934623
0.35800,31.14279387
0.35850,42.43498695
0.35900,45.79212544
0.35950,42.74018136
0.36000,36.02590439
0.36050,28.7012386
0.36100,24.12332249
0.36150,24.4285169
0.36200,24.12332249
0.36250,18.62982315
0.36300,12.8311294
0.36350,14.66229585
0.36400,23.51293367
0.36450,28.7012386
0.36500,25.34410012
0.36550,19.85060078
0.36600,18.32462874
0.36650,18.62982315
0.36700,16.4934623
0.36750,12.525935
0.36800,9.779185327
0.36850,6.72724125
0.36900,1.538936319
0.36950,-4.564951835
0.37000,-8.837673543
0.37050,-10.36364558
0.37100,-8.532479135
0.37150,-4.259757428
0.37200,0.6233530956
0.37250,2.75971395
0.37300,0.6233530956
0.37350,-0.9026189429
0.37400,-0.2922301275
0.37450,0.01296428019
0.37500,-1.818202166
0.37550,-3.344174205
0.37600,-1.207813351
0.37650,3.98049158
0.37700,9.473990919
0.37750,14.35710144
0.37800,18.93501756
0.37850,21.98696163
0.37900,21.07137841
0.37950,16.7986567
0.38000,11.61035177
0.38050,5.506463619
0.38100,-1.207813351
0.38150,-8.532479135
0.38200,-14.33117288
0.38250,-17.99350577
0.38300,-19.51947781
0.38350,-18.909089
0.38400,-16.77272814
0.38450,-15.2467561
0.38500,-13.72078407
0.38550,-9.753256766
0.38600,-2.123396574
0.38650,5.506463619
0.38700,9.473990919
0.38750,9.779185327
0.38800,10.08437973
0.38850,10.69476855
0.38900,7.642824473
0.38950,0.6233530956
0.39000,-3.649368612
0.39050,-0.2922301275
0.39100,7.337630065
0.39150,11.91554618
0.39200,10.99996296
0.39250,7.642824473
0.39300,3.675297173
0.39350,-2.123396574
0.39400,-8.227284728
0.39450,-8.227284728
0.39500,-1.207813351
0.39550,4.285685988
0.39600,1.844130726
0.39650,-5.175340651
0.39700,-8.837673543
0.39750,-6.090923874
0.39800,-2.733785389
0.39850,-2.733785389
0.39900,-5.480535058
0.39950,-8.532479135
0.40000,-11.2792288
0.40050,-12.80520084
0.40100,-14.02597847
0.40150,-18.29870018
0.40200,-25.01297715
0.40250,-28.98050445
0.40300,-26.53894919
0.40350,-21.04544985
0.40400,-20.12986663
0.40450,-24.09739393
0.40500,-26.53894919
0.40550,-25.01297715
0.40600,-22.57142189
0.40650,-22.57142189
0.40700,-23.79219952
0.40750,-24.40258834
0.40800,-24.40258834
0.40850,-21.65583867
0.40900,-10.36364558
0.40950,8.253213288
0.41000,25.95448893
0.41050,33.58434913
0.41100,31.75318268
0.41150,28.09084979
0.41200,29.31162742
0.41250,34.80512676
0.41300,40.2986261
0.41350,42.43498695
0.41400,41.51940373
0.41450,39.38304287
0.41500,36.6362932
0.41550,32.05837709
0.41600,26.25968334
0.41650,23.51293367
0.41700,25.64929453
0.41750,29.92201623
0.41800,31.44798827
0.41850,29.61682183
0.41900,26.87007216
0.41950,24.12332249
0.42000,20.4609896
0.42050,16.4934623
0.42100,11.91554618
0.42150,5.201269211
0.42200,-4.564951835
0.42250,-13.11039525
0.42300,-14.02597847
0.42350,-8.837673543
0.42400,-5.175340651
0.42450,-4.564951835
0.42500,-3.038979797
0.42550,-1.818202166
0.42600,-7.616895912
0.42650,-20.12986663
0.42700,-27.45453241
0.42750,-22.26622748
0.42800,-11.88961762
0.42850,-8.227284728
0.42900,-9.448062359
0.42950,-5.480535058
0.43000,4.285685988
0.43050,11.91554618
0.43100,12.8311294
0.43150,12.8311294
0.43200,17.71423993
0.43250,24.7337113
0.43300,29.31162742
0.43350,30.22721064
0.43400,28.3960442
0.43450,22.90254486
0.43500,14.35710144
0.43550,7.032435657
0.43600,3.370102765
0.43650,1.538936319
0.43700,-1.513007758
0.43750,-4.564951835
0.43800,-3.344174205
0.43850,1.233741911
0.43900,5.506463619
0.43950,6.116852434
0.44000,3.98049158
0.44050,0.3181586879
0.44100,-3.344174205
0.44150,-6.396118282
0.44200,-6.396118282
0.44250,-3.344174205
0.44300,0.3181586879
0.44350,1.844130726
0.44400,1.233741911
0.44450,-1.513007758
0.44500,-5.480535058
0.44550,-7.616895912
0.44600,-6.396118282
0.44650,-3.649368612
0.44700,-5.175340651
0.44750,-12.80520084
0.44800,-23.18181071
0.44850,-29.89608767
0.44900,-30.50647649
0.44950,-29.28569886
0.45000,-29.59089327
0.45050,-29.89608767
0.45100,-25.01297715
0.45150,-14.9415617
0.45200,-5.785729466
0.45250,0.01296428019
0.45300,6.116852434
0.45350,17.10385111
0.45400,29.00643301
0.45450,34.49993235
0.45500,30.53240505
0.45550,22.59735045
0.45600,18.01943433
0.45650,19.24021197
0.45700,22.59735045
0.45750,22.90254486
0.45800,17.10385111
0.45850,7.642824473
0.45900,0.9285475033
0.45950,0.6233530956
0.46000,4.590880396
0.46050,7.94801888
0.46100,9.473990919
0.46150,11.91554618
0.46200,14.66229585
0.46250,15.27268467
0.46300,11.91554618
0.46350,7.642824473
0.46400,5.201269211
0.46450,5.811658027
0.46500,8.863602104
0.46550,11.30515737
0.46600,10.99996296
0.46650,7.642824473
0.46700,4.285685988
0.46750,1.233741911
0.46800,-2.733785389
0.46850,-6.701312689
0.46900,-6.396118282
0.46950,-1.818202166
0.47000,0.3181586879
0.47050,-5.785729466
0.47100,-17.07792255
0.47150,-25.92856037
0.47200,-29.59089327
0.47250,-30.50647649
0.47300,-31.11686531
0.47350,-31.11686531
0.47400,-30.20128208
0.47450,-27.75972682
0.47500,-21.96103307
0.47550,-13.72078407
0.47600,-9.448062359
0.47650,-15.2467561
0.47700,-28.06492123
0.47750,-38.7467255
0.47800,-41.49347517
0.47850,-38.13633668
0.47900,-33.55842057
0.47950,-29.59089327
0.48000,-28.37011564
0.48050,-28.98050445
0.48100,-27.14933801
0.48150,-18.909089
0.48200,-4.259757428
0.48250,10.69476855
0.48300,23.20773927
0.48350,33.88954354
0.48400,42.74018136
0.48450,47.92848629
0.48500,47.01290307
0.48550,41.82459814
0.48600,34.80512676
0.48650,28.3960442
0.48700,22.59735045
0.48750,18.01943433
0.48800,15.57787907
0.48850,14.05190703
0.48900,10.08437973
0.48950,3.370102765
0.49000,-1.513007758
0.49050,0.01296428019
0.49100,7.642824473
0.49150,16.7986567
0.49200,22.29215604
0.49250,23.20773927
0.49300,21.98696163
0.49350,21.07137841
0.49400,20.4609896
0.49450,19.54540637
0.49500,18.01943433
0.49550,17.10385111
0.49600,17.10385111
0.49650,16.7986567
0.49700,14.35710144
0.49750,9.168796511
0.49800,1.844130726
0.49850,-4.259757428
0.49900,-6.396118282
0.49950,-3.95456302
0.50000,-2.428590981
0.50050,-8.227284728
0.50100,-21.96103307
0.50150,-35.69478142
0.50200,-41.18828076
0.50250,-38.7467255
0.50300,-35.08439261
0.50350,-34.7791982
0.50400,-34.7791982
0.50450,-30.50647649
0.50500,-20.74025544
0.50550,-8.532479135
0.50600,3.064908357
0.50650,13.13632381
0.50700,21.07137841
0.50750,27.48046097
0.50800,32.05837709
0.50850,32.6687659
0.50900,27.17526657
0.50950,14.05190703
0.51000,-1.207813351
0.51050,-13.11039525
0.51100,-18.29870018
0.51150,-19.51947781
0.51200,-20.43506104
0.51250,-20.43506104
0.51300,-17.68831137
0.51350,-12.80520084
0.51400,-7.92209032
0.51450,-3.95456302
0.51500,0.3181586879
0.51550,6.116852434
0.51600,12.525935
0.51650,17.71423993
0.51700,20.4609896
0.51750,20.766184
0.51800,19.24021197
0.51850,16.7986567
0.51900,14.05190703
0.51950,10.08437973
0.52000,4.590880396
0.52050,0.6233530956
0.52100,0.6233530956
0.52150,3.370102765
0.52200,4.590880396
0.52250,1.233741911
0.52300,-2.733785389
0.52350,-2.733785389
0.52400,0.3181586879
0.52450,2.454519542
0.52500,2.75971395
0.52550,3.675297173
0.52600,6.422046842
0.52650,7.94801888
0.52700,5.506463619
0.52750,3.064908357
0.52800,4.285685988
0.52850,7.94801888
0.52900,7.642824473
0.52950,1.844130726
0.53000,-3.649368612
0.53050,-5.175340651
0.53100,-4.564951835
0.53150,-7.616895912
0.53200,-16.16233933
0.53250,-25.31817156
0.53300,-28.37011564
0.53350,-26.8441436
0.53400,-27.45453241
0.53450,-32.33764294
0.53500,-36.30517024
0.53550,-33.55842057
0.53600,-28.67531004
0.53650,-30.20128208
0.53700,-37.52594787
0.53750,-38.7467255
0.53800,-25.92856037
0.53850,-6.090923874
0.53900,8.253213288
0.53950,15.88307348
0.54000,23.51293367
0.54050,33.58434913
0.54100,41.82459814
0.54150,47.01290307
0.54200,54.03237444
0.54250,62.27262345
0.54300,64.40898431
0.54350,56.4739297
0.54400,44.2661534
0.54450,36.3310988
0.54500,32.05837709
0.54550,27.17526657
0.54600,20.15579519
0.54650,13.74671263
0.54700,8.863602104
0.54750,4.285685988
0.54800,1.538936319
0.54850,1.538936319
0.54900,2.149325134
0.54950,0.3181586879
0.55000,-3.344174205
0.55050,-6.090923874
0.55100,-6.090923874
0.55150,-6.396118282
0.55200,-8.837673543
0.55250,-12.50000644
0.55300,-15.2467561
0.55350,-14.33117288
0.55400,-9.142867951
0.55450,-1.818202166
0.55500,3.675297173
0.55550,5.506463619
0.55600,5.811658027
0.55650,7.642824473
0.55700,10.69476855
0.55750,11.61035177
0.55800,9.168796511
0.55850,5.201269211
0.55900,3.064908357
0.55950,3.064908357
0.56000,3.370102765
0.56050,1.233741911
0.56100,-4.564951835
0.56150,-13.41558966
0.56200,-21.65583867
0.56250,-25.62336597
0.56300,-25.01297715
0.56350,-23.48700511
0.56400,-22.57142189
0.56450,-20.74025544
0.56500,-16.77272814
0.56550,-13.41558966
0.56600,-13.41558966
0.56650,-15.2467561
0.56700,-12.80520084
0.56750,-3.95456302
0.56800,6.422046842
0.56850,11.91554618
0.56900,11.30515737
0.56950,9.473990919
0.57000,8.863602104
0.57050,8.863602104
0.57100,7.642824473
0.57150,4.590880396
0.57200,-0.5974245352
0.57250,-7.616895912
0.57300,-14.02597847
0.57350,-16.16233933
0.57400,-15.2467561
0.57450,-13.41558966
0.57500,-11.58442321
0.57550,-8.837673543
0.57600,-7.006507097
0.57650,-9.753256766
0.57700,-16.46753374
0.57750,-21.96103307
0.57800,-22.26622748
0.57850,-18.60389459
0.57900,-14.9415617
0.57950,-13.41558966
0.58000,-13.11039525
0.58050,-12.50000644
0.58100,-10.36364558
0.58150,-8.227284728
0.58200,-7.006507097
0.58250,-4.870146243
0.58300,0.3181586879
0.58350,7.337630065
0.58400,12.22074059
0.58450,12.525935
0.58500,10.69476855
0.58550,7.032435657
0.58600,0.3181586879
0.58650,-5.785729466
0.58700,-6.396118282
0.58750,-3.038979797
0.58800,-6.396118282
0.58850,-18.909089
0.58900,-29.59089327
0.58950,-29.59089327
0.59000,-24.09739393
0.59050,-21.96103307
0.59100,-21.04544985
0.59150,-15.2467561
0.59200,-7.92209032
0.59250,-8.227284728
0.59300,-13.11039525
0.59350,-10.36364558
0.59400,2.454519542
0.59450,15.57787907
0.59500,19.85060078
0.59550,16.7986567
0.59600,11.91554618
0.59650,7.032435657
0.59700,1.844130726
0.59750,-1.513007758
0.59800,-4.564951835
0.59850,-8.532479135
0.59900,-12.19481203
0.59950,-10.36364558
0.60000,-3.038979797
0.60050,3.98049158
0.60100,5.811658027
0.60150,2.454519542
0.60200,-1.818202166
0.60250,-6.090923874
0.60300,-9.142867951
0.60350,-10.36364558
0.60400,-10.36364558
0.60450,-10.66883999
0.60500,-10.66883999
0.60550,-8.227284728
0.60600,-3.95456302
0.60650,-0.2922301275
0.60700,3.675297173
0.60750,10.69476855
0.60800,19.85060078
0.60850,23.81812808
0.60900,16.7986567
0.60950,3.675297173
0.61000,-3.95456302
0.61050,-1.818202166
0.61100,4.896074803
0.61150,6.422046842
0.61200,-1.513007758
0.61250,-15.85714492
0.61300,-29.28569886
0.61350,-35.99997583
0.61400,-32.03244853
0.61450,-18.29870018
0.61500,-0.9026189429
0.61550,11.61035177
0.61600,16.7986567
0.61650,18.32462874
0.61700,21.37657282
0.61750,29.31162742
0.61800,39.38304287
0.61850,48.84406951
0.61900,53.11679122
0.61950,50.98043037
0.62000,44.5713478
0.62050,37.55187643
0.62100,31.44798827
0.62150,26.25968334
0.62200,21.68176723
0.62250,17.40904552
0.62300,13.13632381
0.62350,8.558407696
0.62400,5.811658027
0.62450,7.94801888
0.62500,14.96749026
0.62550,21.68176723
0.62600,23.20773927
0.62650,19.24021197
0.62700,13.44151822
0.62750,9.779185327
0.62800,7.94801888
0.62850,6.116852434
0.62900,3.064908357
0.62950,-0.2922301275
0.63000,-3.038979797
0.63050,-4.259757428
0.63100,-5.785729466
0.63150,-9.142867951
0.63200,-13.11039525
0.63250,-14.02597847
0.63300,-10.9740344
0.63350,-7.006507097
0.63400,-6.396118282
0.63450,-8.532479135
0.63500,-9.142867951
0.63550,-6.396118282
0.63600,-0.9026189429
0.63650,4.896074803
0.63700,9.473990919
0.63750,11.91554618
0.63800,13.13632381
0.63850,13.44151822
0.63900,12.8311294
0.63950,12.22074059
0.64000,11.91554618
0.64050,11.61035177
0.64100,9.473990919
0.64150,6.116852434
0.64200,3.370102765
0.64250,2.454519542
0.64300,1.538936319
0.64350,-0.2922301275
0.64400,-3.038979797
0.64450,-4.870146243
0.64500,-7.006507097
0.64550,-10.9740344
0.64600,-14.02597847
0.64650,-13.41558966
0.64700,-10.05845117
0.64750,-7.616895912
0.64800,-6.396118282
0.64850,-2.733785389
0.64900,1.538936319
0.64950,2.149325134
0.65000,-2.733785389
0.65050,-8.227284728
0.65100,-8.227284728
0.65150,-4.259757428
0.65200,-1.818202166
0.65250,-2.123396574
0.65300,-3.95456302
0.65350,-4.870146243
0.65400,-5.785729466
0.65450,-7.92209032
0.65500,-12.19481203
0.65550,-19.21428341
0.65600,-26.8441436
0.65650,-31.42205971
0.65700,-31.42205971
0.65750,-28.37011564
0.65800,-25.01297715
0.65850,-20.43506104
0.65900,-14.63636729
0.65950,-10.36364558
0.66000,-9.753256766
0.66050,-10.05845117
0.66100,-6.701312689
0.66150,-0.2922301275
0.66200,4.285685988
0.66250,4.896074803
0.66300,1.844130726
0.66350,-2.428590981
0.66400,-7.311701505
0.66450,-10.66883999
0.66500,-10.9740344
0.66550,-8.532479135
0.66600,-5.480535058
0.66650,-1.818202166
0.66700,2.149325134
0.66750,5.201269211
0.66800,3.98049158
0.66850,-0.9026189429
0.66900,-4.870146243
0.66950,-3.649368612
0.67000,0.3181586879
0.67050,2.75971395
0.67100,2.149325134
0.67150,0.9285475033
0.67200,-0.5974245352
0.67250,-5.175340651
0.67300,-11.88961762
0.67350,-15.85714492
0.67400,-14.63636729
0.67450,-10.36364558
0.67500,-7.616895912
0.67550,-5.785729466
0.67600,-1.207813351
0.67650,3.370102765
0.67700,1.233741911
0.67750,-7.616895912
0.67800,-14.33117288
0.67850,-11.58442321
0.67900,-3.038979797
0.67950,3.064908357
0.68000,5.506463619
0.68050,7.032435657
0.68100,6.72724125
0.68150,0.9285475033
0.68200,-8.227284728
0.68250,-14.63636729
0.68300,-14.9415617
0.68350,-12.19481203
0.68400,-9.142867951
0.68450,-6.396118282
0.68500,-5.785729466
0.68550,-9.448062359
0.68600,-15.2467561
0.68650,-17.99350577
0.68700,-18.60389459
0.68750,-19.21428341
0.68800,-17.07792255
0.68850,-4.259757428
0.68900,16.7986567
0.68950,36.02590439
0.69000,45.79212544
0.69050,49.75965274
0.69100,53.42198563
0.69150,54.64276326
0.69200,49.45445833
0.69250,38.77265406
0.69300,28.3960442
0.69350,18.93501756
0.69400,10.99996296
0.69450,5.811658027
0.69500,2.454519542
0.69550,-2.428590981
0.69600,-11.58442321
0.69650,-20.43506104
0.69700,-23.18181071
0.69750,-20.74025544
0.69800,-15.55195051
0.69850,-7.616895912
0.69900,2.75971395
0.69950,12.525935
0.70000,18.32462874
0.70050,22.29215604
0.70100,27.17526657
0.70150,28.09084979
0.70200,20.4609896
0.70250,8.863602104
0.70300,1.844130726
0.70350,1.538936319
0.70400,0.3181586879
0.70450,-5.175340651
0.70500,-9.142867951
0.70550,-8.227284728
0.70600,-7.92209032
0.70650,-11.58442321
0.70700,-14.02597847
0.70750,-9.448062359
0.70800,-1.818202166
0.70850,1.844130726
0.70900,2.75971395
0.70950,7.642824473
0.71000,16.7986567
0.71050,23.51293367
0.71100,24.4285169
0.71150,21.68176723
0.71200,16.4934623
0.71250,9.473990919
0.71300,5.201269211
0.71350,10.38957414
0.71400,21.68176723
0.71450,25.95448893
0.71500,17.71423993
0.71550,6.72724125
0.71600,3.370102765
0.71650,5.506463619
0.71700,4.285685988
0.71750,-0.5974245352
0.71800,-4.870146243
0.71850,-7.616895912
0.71900,-12.19481203
0.71950,-18.909089
0.72000,-24.70778274
0.72050,-29.89608767
0.72100,-36.30517024
0.72150,-41.49347517
0.72200,-40.88308635
0.72250,-35.69478142
0.72300,-30.20128208
0.72350,-25.01297715
0.72400,-14.63636729
0.72450,0.3181586879
0.72500,13.13632381
0.72550,18.32462874
0.72600,19.24021197
0.72650,22.29215604
0.72700,25.95448893
0.72750,24.7337113
0.72800,15.88307348
0.72850,3.370102765
0.72900,-7.616895912
0.72950,-17.99350577
0.73000,-26.8441436
0.73050,-32.64283734
0.73100,-31.72725412
0.73150,-25.62336597
0.73200,-17.99350577
0.73250,-11.58442321
0.73300,-6.396118282
0.73350,-2.733785389
0.73400,0.6233530956
0.73450,5.811658027
0.73500,14.35710144
0.73550,25.03890571
0.73600,33.58434913
0.73650,37.55187643
0.73700,39.07784847
0.73750,39.38304287
0.73800,37.24668202
0.73850,33.58434913
0.73900,29.00643301
0.73950,23.51293367
0.74000,15.57787907
0.74050,7.337630065
0.74100,2.149325134
0.74150,0.9285475033
0.74200,0.3181586879
0.74250,-2.428590981
0.74300,-5.175340651
0.74350,-4.870146243
0.74400,-4.259757428
0.74450,-5.175340651
0.74500,-6.701312689
0.74550,-4.564951835
0.74600,0.01296428019
0.74650,3.675297173
0.74700,5.201269211
0.74750,5.201269211
0.74800,3.675297173
0.74850,1.233741911
0.74900,-0.2922301275
0.74950,-1.818202166
0.75000,-6.396118282
0.75050,-14.63636729
0.75100,-21.96103307
0.75150,-24.40258834
0.75200,-23.79219952
0.75250,-24.09739393
0.75300,-23.79219952
0.75350,-19.51947781
0.75400,-12.80520084
0.75450,-8.227284728
0.75500,-5.785729466
0.75550,-3.344174205
0.75600,-3.344174205
0.75650,-8.837673543
0.75700,-16.46753374
0.75750,-18.60389459
0.75800,-14.63636729
0.75850,-11.88961762
0.75900,-14.02597847
0.75950,-17.68831137
0.76000,-19.21428341
0.76050,-20.43506104
0.76100,-22.57142189
0.76150,-20.43506104
0.76200,-11.58442321
0.76250,0.3181586879
0.76300,9.779185327
0.76350,14.35710144
0.76400,13.74671263
0.76450,6.422046842
0.76500,-4.564951835
0.76550,-12.80520084
0.76600,-14.33117288
0.76650,-14.33117288
0.76700,-17.38311696
0.76750,-20.74025544
0.76800,-19.51947781
0.76850,-15.85714492
0.76900,-14.9415617
0.76950,-14.63636729
0.77000,-7.92209032
0.77050,6.422046842
0.77100,21.68176723
0.77150,31.44798827
0.77200,36.94148761
0.77250,39.07784847
0.77300,35.72070998
0.77350,25.34410012
0.77400,13.13632381
0.77450,5.811658027
0.77500,3.370102765
0.77550,1.233741911
0.77600,-1.818202166
0.77650,-3.649368612
0.77700,-2.733785389
0.77750,-0.2922301275
0.77800,1.844130726
0.77850,4.590880396
0.77900,6.422046842
0.77950,6.116852434
0.78000,4.896074803
0.78050,6.116852434
0.78100,9.473990919
0.78150,10.69476855
0.78200,7.337630065
0.78250,1.844130726
0.78300,-2.733785389
0.78350,-7.006507097
0.78400,-8.532479135
0.78450,-4.564951835
0.78500,2.75971395
0.78550,5.506463619
0.78600,0.9285475033
0.78650,-4.870146243
0.78700,-7.006507097
0.78750,-8.532479135
0.78800,-13.41558966
0.78850,-15.55195051
0.78900,-11.2792288
0.78950,-7.311701505
0.79000,-14.02597847
0.79050,-27.75972682
0.79100,-33.25322616
0.79150,-25.62336597
0.79200,-15.55195051
0.79250,-11.2792288
0.79300,-8.837673543
0.79350,0.01296428019
0.79400,12.525935
0.79450,21.98696163
0.79500,25.34410012
0.79550,28.09084979
0.79600,33.58434913
0.79650,41.21420932
0.79700,47.01290307
0.79750,48.5388751
0.79800,44.2661534
0.79850,36.02590439
0.79900,27.48046097
0.79950,21.37657282
0.80000,17.10385111
0.80050,14.05190703
0.80100,11.30515737
0.80150,8.863602104
0.80200,6.72724125
0.80250,4.896074803
0.80300,3.98049158
0.80350,2.75971395
0.80400,0.01296428019
0.80450,-5.480535058
0.80500,-11.88961762
0.80550,-18.60389459
0.80600,-22.8766163
0.80650,-21.35064426
0.80700,-12.50000644
0.80750,0.3181586879
0.80800,11.91554618
0.80850,18.01943433
0.80900,16.7986567
0.80950,9.779185327
0.81000,2.149325134
0.81050,0.3181586879
0.81100,4.590880396
0.81150,10.99996296
0.81200,14.66229585
0.81250,16.7986567
0.81300,18.93501756
0.81350,16.4934623
0.81400,5.201269211
0.81450,-9.448062359
0.81500,-17.99350577
0.81550,-17.38311696
0.81600,-14.02597847
0.81650,-13.41558966
0.81700,-12.50000644
0.81750,-7.311701505
0.81800,-2.123396574
0.81850,-2.733785389
0.81900,-8.837673543
0.81950,-13.41558966
0.82000,-11.58442321
0.82050,-6.090923874
0.82100,-3.344174205
0.82150,-4.870146243
0.82200,-8.227284728
0.82250,-10.66883999
0.82300,-10.9740344
0.82350,-11.2792288
0.82400,-13.11039525
0.82450,-14.9415617
0.82500,-13.11039525
0.82550,-7.311701505
0.82600,-1.513007758
0.82650,0.3181586879
0.82700,-0.5974245352
0.82750,0.9285475033
0.82800,6.116852434
0.82850,10.69476855
0.82900,10.99996296
0.82950,7.032435657
0.83000,2.149325134
0.83050,0.6233530956
0.83100,5.201269211
0.83150,14.66229585
0.83200,23.81812808
0.83250,26.25968334
0.83300,21.98696163
0.83350,15.57787907
0.83400,10.08437973
0.83450,5.506463619
0.83500,1.233741911
0.83550,-2.428590981
0.83600,-7.311701505
0.83650,-14.63636729
0.83700,-23.18181071
0.83750,-29.89608767
0.83800,-33.25322616
0.83850,-35.69478142
0.83900,-38.44153109
0.83950,-40.27269754
0.84000,-38.44153109
0.84050,-32.33764294
0.84100,-22.57142189
0.84150,-11.58442321
0.84200,-1.513007758
0.84250,6.72724125
0.84300,15.57787907
0.84350,23.20773927
0.84400,26.87007216
0.84450,25.95448893
0.84500,23.81812808
0.84550,21.98696163
0.84600,18.93501756
0.84650,14.96749026
0.84700,12.22074059
0.84750,12.22074059
0.84800,11.61035177
0.84850,4.896074803
0.84900,-9.142867951
0.84950,-30.50647649
0.85000,-53.09086266
0.85050,-68.04538864
0.85100,-68.96097186
0.85150,-58.88955641
0.85200,-46.07139128
0.85250,-33.55842057
0.85300,-18.909089
0.85350,-5.785729466
0.85400,0.3181586879
0.85450,1.844130726
0.85500,11.30515737
0.85550,30.22721064
0.85600,45.18173662
0.85650,44.87654221
0.85700,33.88954354
0.85750,21.37657282
0.85800,9.779185327
0.85850,-0.9026189429
0.85900,-7.006507097
0.85950,-3.95456302
0.86000,2.149325134
0.86050,4.285685988
0.86100,3.370102765
0.86150,4.896074803
0.86200,9.779185327
0.86250,14.35710144
0.86300,15.57787907
0.86350,11.91554618
0.86400,3.98049158
0.86450,-3.038979797
0.86500,-2.733785389
0.86550,6.116852434
0.86600,14.66229585
0.86650,14.96749026
0.86700,11.30515737
0.86750,12.22074059
0.86800,18.32462874
0.86850,23.20773927
0.86900,25.95448893
0.86950,31.14279387
0.87000,38.77265406
0.87050,42.43498695
0.87100,38.16226524
0.87150,29.92201623
0.87200,22.29215604
0.87250,16.4934623
0.87300,10.69476855
0.87350,4.590880396
0.87400,-1.207813351
0.87450,-5.175340651
0.87500,-4.259757428
0.87550,0.9285475033
0.87600,6.116852434
0.87650,5.201269211
0.87700,0.3181586879
0.87750,-1.818202166
0.87800,1.538936319
0.87850,5.201269211
0.87900,3.064908357
0.87950,-2.123396574
0.88000,-3.95456302
0.88050,-2.123396574
0.88100,-3.038979797
0.88150,-8.227284728
0.88200,-11.88961762
0.88250,-9.142867951
0.88300,-3.95456302
0.88350,-3.344174205
0.88400,-8.837673543
0.88450,-15.55195051
0.88500,-18.909089
0.88550,-18.60389459
0.88600,-16.77272814
0.88650,-14.33117288
0.88700,-12.50000644
0.88750,-12.50000644
0.88800,-15.2467561
0.88850,-17.68831137
0.88900,-16.46753374
0.88950,-10.9740344
0.89000,-4.870146243
0.89050,-0.2922301275
0.89100,1.538936319
0.89150,1.538936319
0.89200,-1.207813351
0.89250,-7.311701505
0.89300,-11.88961762
0.89350,-10.36364558
0.89400,-4.564951835
0.89450,-1.207813351
0.89500,-1.818202166
0.89550,-2.123396574
0.89600,1.844130726
0.89650,8.253213288
0.89700,12.22074059
0.89750,13.74671263
0.89800,17.40904552
0.89850,23.51293367
0.89900,28.09084979
0.89950,27.78565538
0.90000,24.7337113
0.90050,21.68176723
0.90100,18.01943433
0.90150,12.22074059
0.90200,6.116852434
0.90250,3.064908357
0.90300,3.064908357
0.90350,2.454519542
0.90400,-2.428590981
0.90450,-10.05845117
0.90500,-14.02597847
0.90550,-12.50000644
0.90600,-8.837673543
0.90650,-7.311701505
0.90700,-7.311701505
0.90750,-6.701312689
0.90800,-5.175340651
0.90850,-4.870146243
0.90900,-6.396118282
0.90950,-7.616895912
0.91000,-7.311701505
0.91050,-5.785729466
0.91100,-4.870146243
0.91150,-7.006507097
0.91200,-13.11039525
0.91250,-22.26622748
0.91300,-30.8116709
0.91350,-34.47400379
0.91400,-31.72725412
0.91450,-23.48700511
0.91500,-10.66883999
0.91550,2.149325134
0.91600,9.779185327
0.91650,11.30515737
0.91700,12.22074059
0.91750,18.01943433
0.91800,25.64929453
0.91850,27.78565538
0.91900,25.95448893
0.91950,26.87007216
0.92000,30.83759946
0.92050,26.56487775
0.92100,8.863602104
0.92150,-12.50000644
0.92200,-23.48700511
0.92250,-21.96103307
0.92300,-17.38311696
0.92350,-14.9415617
0.92400,-12.50000644
0.92450,-8.837673543
0.92500,-7.311701505
0.92550,-10.05845117
0.92600,-12.19481203
0.92650,-10.36364558
0.92700,-7.311701505
0.92750,-6.701312689
0.92800,-8.227284728
0.92850,-8.227284728
0.92900,-6.090923874
0.92950,-3.95456302
0.93000,-3.038979797
0.93050,-1.818202166
0.93100,-1.513007758
0.93150,-4.870146243
0.93200,-10.9740344
0.93250,-15.85714492
0.93300,-15.85714492
0.93350,-11.88961762
0.93400,-6.396118282
0.93450,0.01296428019
0.93500,4.896074803
0.93550,7.337630065
0.93600,7.032435657
0.93650,6.116852434
0.93700,7.337630065
0.93750,13.13632381
0.93800,21.98696163
0.93850,28.7012386
0.93900,28.09084979
0.93950,19.54540637
0.94000,10.08437973
0.94050,6.422046842
0.94100,7.032435657
0.94150,5.201269211
0.94200,0.3181586879
0.94250,-2.123396574
0.94300,-1.207813351
0.94350,-2.428590981
0.94400,-10.36364558
0.94450,-21.35064426
0.94500,-27.75972682
0.94550,-25.62336597
0.94600,-14.9415617
0.94650,0.6233530956
0.94700,15.57787907
0.94750,23.20773927
0.94800,23.51293367
0.94850,21.68176723
0.94900,21.68176723
0.94950,21.98696163
0.95000,22.90254486
0.95050,30.22721064
0.95100,45.79212544
0.95150,59.22067937
0.95200,58.61029056
0.95250,43.65576458
0.95300,25.34410012
0.95350,11.61035177
0.95400,4.285685988
0.95450,2.75971395
0.95500,5.506463619
0.95550,8.863602104
0.95600,10.08437973
0.95650,9.779185327
0.95700,9.168796511
0.95750,7.337630065
0.95800,3.370102765
0.95850,1.538936319
0.95900,5.506463619
0.95950,10.69476855
0.96000,9.168796511
0.96050,2.454519542
0.96100,-0.2922301275
0.96150,0.9285475033
0.96200,-0.2922301275
0.96250,-10.36364558
0.96300,-22.26622748
0.96350,-26.23375478
0.96400,-21.35064426
0.96450,-16.16233933
0.96500,-16.46753374
0.96550,-18.60389459
0.96600,-16.77272814
0.96650,-10.36364558
0.96700,-4.259757428
0.96750,0.01296428019
0.96800,6.422046842
0.96850,20.4609896
0.96900,36.3310988
0.96950,42.12979254
0.97000,33.88954354
0.97050,19.54540637
0.97100,7.94801888
0.97150,-2.428590981
0.97200,-17.07792255
0.97250,-31.42205971
0.97300,-38.13633668
0.97350,-36.61036464
0.97400,-35.38958701
0.97450,-36.91555905
0.97500,-35.69478142
0.97550,-27.75972682
0.97600,-16.46753374
0.97650,-7.616895912
0.97700,-2.428590981
0.97750,1.844130726
0.97800,7.032435657
0.97850,10.38957414
0.97900,10.08437973
0.97950,7.337630065
0.98000,6.72724125
0.98050,10.99996296
0.98100,17.10385111
0.98150,18.62982315
0.98200,14.96749026
0.98250,10.99996296
0.98300,10.69476855
0.98350,10.99996296
0.98400,7.94801888
0.98450,4.590880396
0.98500,7.032435657
0.98550,13.13632381
0.98600,15.27268467
0.98650,11.91554618
0.98700,10.08437973
0.98750,12.8311294
0.98800,15.27268467
0.98850,13.74671263
0.98900,11.30515737
0.98950,10.69476855
0.99000,10.38957414
0.99050,6.422046842
0.99100,2.149325134
0.99150,1.538936319
0.99200,3.370102765
0.99250,1.844130726
0.99300,-3.344174205
0.99350,-8.532479135
0.99400,-10.36364558
0.99450,-10.36364558
0.99500,-9.753256766
0.99550,-8.837673543
0.99600,-6.396118282
0.99650,-3.95456302
0.99700,-2.123396574
0.99750,-1.207813351
0.99800,-0.9026189429
0.99850,-1.513007758
0.99900,-2.733785389
0.99950,-3.649368612
1.00000,-5.175340651
1.00050,-9.753256766
1.00100,-17.38311696
1.00150,-24.70778274
1.00200,-27.14933801
1.00250,-25.62336597
1.00300,-24.09739393
1.00350,-24.40258834
1.00400,-24.09739393
1.00450,-21.96103307
1.00500,-21.65583867
1.00550,-24.09739393
1.00600,-25.01297715
1.00650,-19.82467222
1.00700,-11.88961762
1.00750,-6.396118282
1.00800,-3.95456302
1.00850,-1.513007758
1.00900,0.3181586879
1.00950,-0.5974245352
1.01000,-2.733785389
1.01050,-0.2922301275
1.01100,6.72724125
1.01150,11.30515737
1.01200,10.08437973
1.01250,8.863602104
1.01300,11.61035177
1.01350,12.8311294
1.01400,4.896074803
1.01450,-8.227284728
1.01500,-17.68831137
1.01550,-20.43506104
1.01600,-21.96103307
1.01650,-25.31817156
1.01700,-26.53894919
1.01750,-24.09739393
1.01800,-21.35064426
1.01850,-20.74025544
1.01900,-19.21428341
1.01950,-11.2792288
1.02000,0.9285475033
1.02050,14.05190703
1.02100,23.51293367
1.02150,27.17526657
1.02200,23.51293367
1.02250,12.22074059
1.02300,-0.5974245352
1.02350,-7.311701505
1.02400,-3.95456302
1.02450,3.370102765
1.02500,6.422046842
1.02550,1.538936319
1.02600,-5.785729466
1.02650,-11.58442321
1.02700,-16.46753374
1.02750,-24.09739393
1.02800,-32.94803175
1.02850,-40.27269754
1.02900,-45.15580806
1.02950,-46.07139128
1.03000,-35.99997583
1.03050,-14.63636729
1.03100,5.811658027
1.03150,13.74671263
1.03200,15.27268467
1.03250,28.09084979
1.03300,53.42198563
1.03350,70.20767805
1.03400,63.18820667
1.03450,43.04537577
1.03500,27.48046097
1.03550,19.24021197
1.03600,12.22074059
1.03650,7.642824473
1.03700,7.642824473
1.03750,4.590880396
1.03800,-8.227284728
1.03850,-24.09739393
1.03900,-31.72725412
1.03950,-33.86361497
1.04000,-38.7467255
1.04050,-41.49347517
1.04100,-30.50647649
1.04150,-8.837673543
1.04200,6.72724125
1.04250,15.57787907
1.04300,30.83759946
1.04350,57.38951293
1.04400,80.58428791
1.04450,86.68817607
1.04500,80.27909351
1.04550,70.20767805
1.04600,54.33756885
1.04650,28.7012386
1.04700,1.538936319
1.04750,-12.80520084
1.04800,-13.72078407
1.04850,-11.88961762
1.04900,-14.33117288
1.04950,-16.46753374
1.05000,-13.41558966
1.05050,-8.227284728
1.05100,-5.175340651
1.05150,-1.513007758
1.05200,7.642824473
1.05250,21.37657282
1.05300,29.92201623
1.05350,28.3960442
1.05400,22.29215604
1.05450,19.24021197
1.05500,18.01943433
1.05550,11.91554618
1.05600,0.01296428019
1.05650,-13.11039525
1.05700,-22.57142189
1.05750,-27.14933801
1.05800,-25.62336597
1.05850,-19.21428341
1.05900,-16.46753374
1.05950,-22.8766163
1.06000,-32.03244853
1.06050,-32.64283734
1.06100,-25.31817156
1.06150,-20.74025544
1.06200,-21.96103307
1.06250,-17.99350577
1.06300,-3.344174205
1.06350,10.08437973
1.06400,9.779185327
1.06450,0.3181586879
1.06500,-2.123396574
1.06550,7.032435657
1.06600,19.54540637
1.06650,26.25968334
1.06700,25.95448893
1.06750,21.68176723
1.06800,13.74671263
1.06850,4.285685988
1.06900,-0.9026189429
1.06950,0.01296428019
1.07000,4.590880396
1.07050,7.337630065
1.07100,6.72724125
1.07150,4.590880396
1.07200,0.6233530956
1.07250,-5.480535058
1.07300,-12.50000644
1.07350,-15.85714492
1.07400,-16.46753374
1.07450,-18.60389459
1.07500,-23.18181071
1.07550,-25.01297715
1.07600,-21.35064426
1.07650,-16.16233933
1.07700,-16.16233933
1.07750,-19.21428341
1.07800,-19.21428341
1.07850,-15.2467561
1.07900,-9.142867951
1.07950,0.3181586879
1.08000,14.35710144
1.08050,25.34410012
1.08100,22.90254486
1.08150,9.168796511
1.08200,-2.428590981
1.08250,-4.259757428
1.08300,-2.428590981
1.08350,-6.396118282
1.08400,-13.41558966
1.08450,-15.85714492
1.08500,-12.80520084
1.08550,-9.753256766
1.08600,-8.227284728
1.08650,-4.564951835
1.08700,0.9285475033
1.08750,4.896074803
1.08800,4.285685988
1.08850,1.233741911
1.08900,-1.513007758
1.08950,-4.870146243
1.09000,-7.92209032
1.09050,-8.227284728
1.09100,-6.090923874
1.09150,-4.259757428
1.09200,-5.175340651
1.09250,-6.701312689
1.09300,-4.870146243
1.09350,-1.207813351
1.09400,-1.207813351
1.09450,-9.448062359
1.09500,-24.40258834
1.09550,-39.35711431
1.09600,-49.12333536
1.09650,-52.48047384
1.09700,-51.87008503
1.09750,-48.81814095
1.09800,-42.7142528
1.09850,-36.30517024
1.09900,-32.64283734
1.09950,-31.72725412
1.10000,-25.62336597
1.10050,-7.311701505
1.10100,20.4609896
1.10150,45.79212544
1.10200,58.91548497
1.10250,57.08431852
1.10300,46.09731984
1.10350,32.6687659
1.10400,22.29215604
1.10450,17.40904552
1.10500,15.57787907
1.10550,13.44151822
1.10600,11.30515737
1.10650,12.525935
1.10700,15.57787907
1.10750,15.27268467
1.10800,9.168796511
1.10850,1.233741911
1.10900,-3.344174205
1.10950,-6.090923874
1.11000,-11.2792288
1.11050,-20.12986663
1.11100,-29.59089327
1.11150,-35.38958701
1.11200,-35.08439261
1.11250,-28.06492123
1.11300,-17.38311696
1.11350,-9.448062359
1.11400,-7.311701505
1.11450,-7.006507097
1.11500,-4.259757428
1.11550,-0.2922301275
1.11600,1.844130726
1.11650,1.538936319
1.11700,1.538936319
1.11750,3.98049158
1.11800,7.032435657
1.11850,9.779185327
1.11900,11.30515737
1.11950,10.99996296
1.12000,7.94801888
1.12050,2.454519542
1.12100,-3.038979797
1.12150,-6.090923874
1.12200,-6.701312689
1.12250,-5.175340651
1.12300,-3.95456302
1.12350,-7.311701505
1.12400,-19.51947781
1.12450,-37.83114227
1.12500,-50.6493074
1.12550,-48.20775214
1.12600,-30.8116709
1.12650,-9.448062359
1.12700,6.422046842
1.12750,14.35710144
1.12800,13.74671263
1.12850,7.032435657
1.12900,-0.2922301275
1.12950,-0.9026189429
1.13000,7.337630065
1.13050,20.766184
1.13100,32.05837709
1.13150,37.24668202
1.13200,35.11032117
1.13250,26.56487775
1.13300,15.57787907
1.13350,6.116852434
1.13400,-0.9026189429
1.13450,-5.785729466
1.13500,-7.006507097
1.13550,-4.259757428
1.13600,-4.259757428
1.13650,-12.19481203
1.13700,-18.909089
1.13750,-10.36364558
1.13800,11.91554618
1.13850,29.92201623
1.13900,29.92201623
1.13950,21.98696163
1.14000,21.68176723
1.14050,30.53240505
1.14100,38.77265406
1.14150,43.04537577
1.14200,43.96095899
1.14250,37.55187643
1.14300,20.15579519
1.14350,-0.5974245352
1.14400,-13.41558966
1.14450,-16.77272814
1.14500,-16.46753374
1.14550,-12.80520084
1.14600,-1.207813351
1.14650,15.57787907
1.14700,26.25968334
1.14750,27.48046097
1.14800,27.48046097
1.14850,33.58434913
1.14900,42.43498695
1.14950,48.84406951
1.15000,51.28562477
1.15050,50.98043037
1.15100,47.01290307
1.15150,39.68823728
1.15200,34.80512676
1.15250,35.72070998
1.15300,38.16226524
1.15350,37.24668202
1.15400,34.80512676
1.15450,34.80512676
1.15500,36.02590439
1.15550,32.3635715
1.15600,22.90254486
1.15650,15.27268467
1.15700,13.74671263
1.15750,11.61035177
1.15800,0.3181586879
1.15850,-15.85714492
1.15900,-22.26622748
1.15950,-9.448062359
1.16000,11.61035177
1.16050,26.56487775
1.16100,33.27915472
1.16150,40.6038205
1.16200,50.67523596
1.16250,54.33756885
1.16300,45.79212544
1.16350,33.58434913
1.16400,27.48046097
1.16450,24.12332249
1.16500,12.8311294
1.16550,-8.837673543
1.16600,-32.33764294
1.16650,-48.20775214
1.16700,-56.14280674
1.16750,-63.16227811
1.16800,-73.53888798
1.16850,-87.27263632
1.16900,-100.0908014
1.16950,-108.6362449
1.17000,-111.0778001
1.17050,-108.025856
1.17100,-101.0063847
1.17150,-90.01938599
1.17200,-77.81160968
1.17250,-68.96097186
1.17300,-62.85708371
1.17350,-51.56489062
1.17400,-29.59089327
1.17450,-2.733785389
1.17500,14.35710144
1.17550,14.35710144
1.17600,3.370102765
1.17650,-5.480535058
1.17700,-4.564951835
1.17750,4.285685988
1.17800,12.22074059
1.17850,10.99996296
1.17900,0.3181586879
1.17950,-9.448062359
1.18000,-10.05845117
1.18050,-3.649368612
1.18100,0.01296428019
1.18150,-1.818202166
1.18200,-3.038979797
1.18250,0.3181586879
1.18300,4.285685988
1.18350,3.370102765
1.18400,-0.2922301275
1.18450,-2.428590981
1.18500,-2.428590981
1.18550,-2.123396574
1.18600,-1.818202166
1.18650,0.3181586879
1.18700,2.149325134
1.18750,3.064908357
1.18800,3.370102765
1.18850,2.454519542
1.18900,-2.428590981
1.18950,-11.58442321
1.19000,-17.99350577
1.19050,-15.85714492
1.19100,-7.006507097
1.19150,2.149325134
1.19200,10.38957414
1.19250,16.7986567
1.19300,18.93501756
1.19350,14.35710144
1.19400,7.642824473
1.19450,4.590880396
1.19500,4.590880396
1.19550,4.896074803
1.19600,5.506463619
1.19650,9.779185327
1.19700,15.88307348
1.19750,20.4609896
1.19800,22.59735045
1.19850,23.51293367
1.19900,22.29215604
1.19950,16.4934623
1.20000,9.473990919
1.20050,5.506463619
1.20100,5.201269211
1.20150,5.506463619
1.20200,7.337630065
1.20250,13.44151822
1.20300,19.24021197
1.20350,17.40904552
1.20400,9.168796511
1.20450,0.3181586879
1.20500,-7.006507097
1.20550,-17.99350577
1.20600,-31.42205971
1.20650,-37.83114227
1.20700,-33.55842057
1.20750,-26.23375478
1.20800,-22.26622748
1.20850,-17.99350577
1.20900,-8.532479135
1.20950,2.454519542
1.21000,8.863602104
1.21050,11.91554618
1.21100,16.7986567
1.21150,24.12332249
1.21200,30.22721064
1.21250,34.49993235
1.21300,40.2986261
1.21350,45.48693103
1.21400,42.74018136
1.21450,29.92201623
1.21500,15.57787907
1.21550,10.08437973
1.21600,15.27268467
1.21650,23.81812808
1.21700,27.78565538
1.21750,24.7337113
1.21800,18.32462874
1.21850,14.96749026
1.21900,18.62982315
1.21950,25.95448893
1.22000,29.00643301
1.22050,22.90254486
1.22100,11.30515737
1.22150,2.149325134
1.22200,-0.5974245352
1.22250,2.454519542
1.22300,9.779185327
1.22350,18.62982315
1.22400,22.90254486
1.22450,16.4934623
1.22500,0.6233530956
1.22550,-17.07792255
1.22600,-31.11686531
1.22650,-40.27269754
1.22700,-43.62983602
1.22750,-36.91555905
1.22800,-19.51947781
1.22850,0.01296428019
1.22900,10.99996296
1.22950,14.35710144
1.23000,18.62982315
1.23050,27.78565538
1.23100,39.68823728
1.23150,53.11679122
1.23200,67.46092838
1.23250,77.22714943
1.23300,76.0063718
1.23350,67.15573397
1.23400,60.1362626
1.23450,54.33756885
1.23500,38.46745965
1.23550,12.525935
1.23600,-8.837673543
1.23650,-17.07792255
1.23700,-20.12986663
1.23750,-26.23375478
1.23800,-26.23375478
1.23850,-9.753256766
1.23900,11.91554618
1.23950,17.71423993
1.24000,4.590880396
1.24050,-7.616895912
1.24100,-5.785729466
1.24150,2.75971395
1.24200,8.253213288
1.24250,10.08437973
1.24300,12.8311294
1.24350,14.66229585
1.24400,10.99996296
1.24450,3.064908357
1.24500,-3.95456302
1.24550,-7.616895912
1.24600,-3.344174205
1.24650,11.30515737
1.24700,34.80512676
1.24750,57.69470734
1.24800,71.73365009
1.24850,76.61676061
1.24900,72.95442772
1.24950,57.99990174
1.25000,31.14279387
1.25050,0.01296428019
1.25100,-24.70778274
1.25150,-38.7467255
1.25200,-46.98697451
1.25250,-54.00644588
1.25300,-57.97397318
1.25350,-55.53241792
1.25400,-48.20775214
1.25450,-41.49347517
1.25500,-36.91555905
1.25550,-29.59089327
1.25600,-14.9415617
1.25650,3.064908357
1.25700,14.66229585
1.25750,14.35710144
1.25800,7.94801888
1.25850,5.201269211
1.25900,4.590880396
1.25950,-1.207813351
1.26000,-15.55195051
1.26050,-32.03244853
1.26100,-46.6817801
1.26150,-60.41552844
1.26200,-70.79213831
1.26250,-68.65577745
1.26300,-50.03891858
1.26350,-26.23375478
1.26400,-11.58442321
1.26450,-7.311701505
1.26500,-2.123396574
1.26550,9.473990919
1.26600,22.90254486
1.26650,32.6687659
1.26700,38.77265406
1.26750,40.90901491
1.26800,34.49993235
1.26850,18.93501756
1.26900,1.233741911
1.26950,-9.753256766
1.27000,-13.41558966
1.27050,-13.11039525
1.27100,-10.05845117
1.27150,-3.649368612
1.27200,6.422046842
1.27250,17.10385111
1.27300,25.34410012
1.27350,30.53240505
1.27400,32.3635715
1.27450,32.3635715
1.27500,32.05837709
1.27550,30.83759946
1.27600,25.64929453
1.27650,15.57787907
1.27700,4.285685988
1.27750,-2.733785389
1.27800,-6.701312689
1.27850,-10.66883999
1.27900,-15.2467561
1.27950,-16.46753374
1.28000,-12.50000644
1.28050,-8.837673543
1.28100,-12.19481203
1.28150,-19.51947781
1.28200,-21.04544985
1.28250,-11.88961762
1.28300,1.538936319
1.28350,10.38957414
1.28400,12.22074059
1.28450,15.27268467
1.28500,24.7337113
1.28550,35.72070998
1.28600,36.6362932
1.28650,23.81812808
1.28700,6.72724125
1.28750,-2.428590981
1.28800,-2.428590981
1.28850,-0.9026189429
1.28900,-4.564951835
1.28950,-9.142867951
1.29000,-8.227284728
1.29050,-2.428590981
1.29100,1.538936319
1.29150,-0.5974245352
1.29200,-7.006507097
1.29250,-10.9740344
1.29300,-10.9740344
1.29350,-10.05845117
1.29400,-10.05845117
1.29450,-10.9740344
1.29500,-10.36364558
1.29550,-12.19481203
1.29600,-25.01297715
1.29650,-52.48047384
1.29700,-87.27263632
1.29750,-113.8245498
1.29800,-124.5063541
1.29850,-122.980382
1.29900,-115.9609106
1.29950,-104.3635232
1.30000,-88.49341395
1.30050,-71.70772153
1.30100,-57.36358437
1.30150,-40.88308635
1.30200,-17.07792255
1.30250,9.168796511
1.30300,28.09084979
1.30350,33.88954354
1.30400,29.61682183
1.30450,19.54540637
1.30500,3.064908357
1.30550,-14.9415617
1.30600,-27.14933801
1.30650,-31.11686531
1.30700,-35.99997583
1.30750,-48.51294654
1.30800,-61.94150048
1.30850,-66.21422219
1.30900,-58.88955641
1.30950,-44.54541924
1.31000,-26.53894919
1.31050,-7.616895912
1.31100,8.253213288
1.31150,18.62982315
1.31200,27.17526657
1.31250,36.6362932
1.31300,44.2661534
1.31350,47.01290307
1.31400,48.84406951
1.31450,53.72718004
1.31500,57.38951293
1.31550,52.201208
1.31600,40.90901491
1.31650,32.97396031
1.31700,29.92201623
1.31750,24.4285169
1.31800,14.66229585
1.31850,4.896074803
1.31900,-2.123396574
1.31950,-10.36364558
1.32000,-19.51947781
1.32050,-27.45453241
1.32100,-37.52594787
1.32150,-54.31164029
1.32200,-71.40252712
1.32250,-78.4219985
1.32300,-76.89602646
1.32350,-77.20122087
1.32400,-77.50641528
1.32450,-64.07786134
1.32500,-37.52594787
1.32550,-18.60389459
1.32600,-18.909089
1.32650,-21.65583867
1.32700,-6.701312689
1.32750,20.4609896
1.32800,39.68823728
1.32850,43.35057017
1.32900,41.51940373
1.32950,40.2986261
1.33000,36.94148761
1.33050,31.44798827
1.33100,30.83759946
1.33150,35.11032117
1.33200,35.72070998
1.33250,29.00643301
1.33300,21.07137841
1.33350,17.10385111
1.33400,14.96749026
1.33450,9.473990919
1.33500,0.3181586879
1.33550,-9.142867951
1.33600,-17.68831137
1.33650,-25.31817156
1.33700,-29.89608767
1.33750,-30.50647649
1.33800,-28.06492123
1.33850,-25.31817156
1.33900,-23.18181071
1.33950,-18.60389459
1.34000,-9.448062359
1.34050,2.75971395
1.34100,14.66229585
1.34150,21.98696163
1.34200,23.81812808
1.34250,20.766184
1.34300,14.35710144
1.34350,7.94801888
1.34400,7.032435657
1.34450,12.22074059
1.34500,19.54540637
1.34550,22.90254486
1.34600,22.29215604
1.34650,20.766184
1.34700,20.15579519
1.34750,18.62982315
1.34800,14.35710144
1.34850,9.779185327
1.34900,8.863602104
1.34950,11.91554618
1.35000,14.35710144
1.35050,13.13632381
1.35100,10.69476855
1.35150,10.99996296
1.35200,12.22074059
1.35250,9.168796511
1.35300,5.811658027
1.35350,11.30515737
1.35400,24.7337113
1.35450,31.44798827
1.35500,24.12332249
1.35550,17.10385111
1.35600,26.56487775
1.35650,44.5713478
1.35700,47.01290307
1.35750,28.3960442
1.35800,9.473990919
1.35850,8.253213288
1.35900,16.7986567
1.35950,15.57787907
1.36000,0.3181586879
1.36050,-17.68831137
1.36100,-28.67531004
1.36150,-33.86361497
1.36200,-36.61036464
1.36250,-35.08439261
1.36300,-25.62336597
1.36350,-10.9740344
1.36400,1.538936319
1.36450,10.08437973
1.36500,19.54540637
1.36550,34.49993235
1.36600,50.67523596
1.36650,60.1362626
1.36700,62.27262345
1.36750,64.71417871
1.36800,68.68170601
1.36850,68.0713172
1.36900,58.91548497
1.36950,46.40251425
1.37000,36.6362932
1.37050,27.78565538
1.37100,16.4934623
1.37150,5.506463619
1.37200,-0.2922301275
1.37250,-4.870146243
1.37300,-12.80520084
1.37350,-21.65583867
1.37400,-25.01297715
1.37450,-24.70778274
1.37500,-26.8441436
1.37550,-31.11686531
1.37600,-31.72725412
1.37650,-27.14933801
1.37700,-22.26622748
1.37750,-22.57142189
1.37800,-25.92856037
1.37850,-28.67531004
1.37900,-29.59089327
1.37950,-30.8116709
1.38000,-33.86361497
1.38050,-39.35711431
1.38100,-45.76619688
1.38150,-49.42852977
1.38200,-47.90255773
1.38250,-43.01944721
1.38300,-36.61036464
1.38350,-32.03244853
1.38400,-32.33764294
1.38450,-40.88308635
1.38500,-52.78566825
1.38550,-58.584362
1.38600,-53.70125148
1.38650,-43.62983602
1.38700,-34.7791982
1.38750,-25.92856037
1.38800,-14.33117288
1.38850,-3.344174205
1.38900,1.233741911
1.38950,2.454519542
1.39000,7.032435657
1.39050,16.4934623
1.39100,25.03890571
1.39150,26.56487775
1.39200,20.766184
1.39250,10.69476855
1.39300,1.233741911
1.39350,-1.207813351
1.39400,3.370102765
1.39450,10.08437973
1.39500,12.8311294
1.39550,15.88307348
1.39600,25.95448893
1.39650,42.43498695
1.39700,55.25315207
1.39750,58.30509615
1.39800,51.59081918
1.39850,39.68823728
1.39900,25.03890571
1.39950,9.168796511
1.40000,-5.480535058
1.40050,-16.77272814
1.40100,-21.35064426
1.40150,-18.909089
1.40200,-14.63636729
1.40250,-14.9415617
1.40300,-20.12986663
1.40350,-23.48700511
1.40400,-22.26622748
1.40450,-22.57142189
1.40500,-28.37011564
1.40550,-33.86361497
1.40600,-33.25322616
1.40650,-30.20128208
1.40700,-28.98050445
1.40750,-25.31817156
1.40800,-14.02597847
1.40850,-0.2922301275
1.40900,5.201269211
1.40950,5.506463619
1.41000,12.525935
1.41050,29.61682183
1.41100,46.40251425
1.41150,53.72718004
1.41200,54.94795767
1.41250,55.25315207
1.41300,51.59081918
1.41350,39.38304287
1.41400,23.20773927
1.41450,13.13632381
1.41500,12.525935
1.41550,15.27268467
1.41600,15.57787907
1.41650,14.96749026
1.41700,16.7986567
1.41750,20.4609896
1.41800,19.85060078
1.41850,12.8311294
1.41900,6.72724125
1.41950,11.30515737
1.42000,27.17526657
1.42050,45.18173662
1.42100,54.64276326
1.42150,53.42198563
1.42200,47.62329188
1.42250,44.2661534
1.42300,42.43498695
1.42350,36.6362932
1.42400,23.20773927
1.42450,7.642824473
1.42500,0.3181586879
1.42550,4.285685988
1.42600,13.13632381
1.42650,16.7986567
1.42700,13.44151822
1.42750,7.642824473
1.42800,3.675297173
1.42850,1.233741911
1.42900,0.01296428019
1.42950,0.3181586879
1.43000,3.675297173
1.43050,5.811658027
1.43100,1.538936319
1.43150,-11.2792288
1.43200,-28.98050445
1.43250,-43.93503043
1.43300,-51.87008503
1.43350,-52.48047384
1.43400,-50.34411299
1.43450,-49.73372418
1.43500,-49.42852977
1.43550,-46.37658569
1.43600,-41.18828076
1.43650,-37.52594787
1.43700,-34.16880938
1.43750,-27.14933801
1.43800,-18.29870018
1.43850,-16.46753374
1.43900,-25.62336597
1.43950,-38.13633668
1.44000,-41.79866957
1.44050,-36.91555905
1.44100,-31.42205971
1.44150,-27.14933801
1.44200,-17.68831137
1.44250,-3.95456302
1.44300,4.285685988
1.44350,5.201269211
1.44400,11.30515737
1.44450,33.88954354
1.44500,65.01937312
1.44550,87.29856488
1.44600,94.92842508
1.44650,96.45439711
1.44700,96.75959152
1.44750,91.876481
1.44800,79.9738991
1.44850,68.37651161
1.44900,63.49340108
1.44950,61.96742904
1.45000,54.94795767
1.45050,37.85707084
1.45100,14.35710144
1.45150,-10.05845117
1.45200,-30.50647649
1.45250,-41.79866957
1.45300,-43.01944721
1.45350,-36.30517024
1.45400,-23.48700511
1.45450,-8.227284728
1.45500,5.811658027
1.45550,14.66229585
1.45600,20.15579519
1.45650,26.87007216
1.45700,36.3310988
1.45750,43.65576458
1.45800,44.2661534
1.45850,37.85707084
1.45900,25.95448893
1.45950,10.08437973
1.46000,-6.701312689
1.46050,-20.43506104
1.46100,-28.98050445
1.46150,-32.94803175
1.46200,-32.94803175
1.46250,-27.45453241
1.46300,-19.51947781
1.46350,-14.9415617
1.46400,-14.33117288
1.46450,-9.448062359
1.46500,4.896074803
1.46550,22.29215604
1.46600,31.44798827
1.46650,30.53240505
1.46700,27.48046097
1.46750,28.7012386
1.46800,31.44798827
1.46850,29.31162742
1.46900,22.29215604
1.46950,14.66229585
1.47000,9.473990919
1.47050,3.370102765
1.47100,-6.701312689
1.47150,-21.65583867
1.47200,-35.99997583
1.47250,-43.01944721
1.47300,-43.32464161
1.47350,-41.49347517
1.47400,-42.10386398
1.47450,-43.32464161
1.47500,-41.79866957
1.47550,-38.13633668
1.47600,-34.16880938
1.47650,-30.50647649
1.47700,-23.18181071
1.47750,-10.9740344
1.47800,0.3181586879
1.47850,3.675297173
1.47900,-0.9026189429
1.47950,-4.870146243
1.48000,-2.428590981
1.48050,2.454519542
1.48100,1.844130726
1.48150,-3.649368612
1.48200,-6.701312689
1.48250,-3.649368612
1.48300,0.3181586879
1.48350,3.675297173
1.48400,12.22074059
1.48450,27.17526657
1.48500,36.3310988
1.48550,27.78565538
1.48600,7.032435657
1.48650,-10.05845117
1.48700,-16.77272814
1.48750,-18.60389459
1.48800,-19.82467222
1.48850,-16.16233933
1.48900,-5.785729466
1.48950,6.72724125
1.49000,17.10385111
1.49050,27.78565538
1.49100,40.90901491
1.49150,54.03237444
1.49200,61.05184582
1.49250,61.66223464
1.49300,57.69470734
1.49350,50.67523596
1.49400,39.68823728
1.49450,24.7337113
1.49500,9.779185327
1.49550,0.01296428019
1.49600,-2.733785389
1.49650,-0.2922301275
1.49700,1.844130726
1.49750,2.149325134
1.49800,2.75971395
1.49850,5.506463619
1.49900,5.811658027
1.49950,-0.5974245352
1.50000,-12.19481203
1.50050,-20.43506104
1.50100,-21.96103307
1.50150,-18.29870018
1.50200,-11.2792288
1.50250,-2.428590981
1.50300,3.064908357
1.50350,1.233741911
1.50400,-4.870146243
1.50450,-9.142867951
1.50500,-10.05845117
1.50550,-12.80520084
1.50600,-16.77272814
1.50650,-16.46753374
1.50700,-14.9415617
1.50750,-22.8766163
1.50800,-42.7142528
1.50850,-61.33111167
1.50900,-65.90902778
1.50950,-59.19475081
1.51000,-50.34411299
1.51050,-40.88308635
1.51100,-27.75972682
1.51150,-14.63636729
1.51200,-7.616895912
1.51250,-4.259757428
1.51300,4.285685988
1.51350,22.59735045
1.51400,43.96095899
1.51450,58.30509615
1.51500,61.35704023
1.51550,54.33756885
1.51600,44.87654221
1.51650,39.38304287
1.51700,39.07784847
1.51750,37.85707084
1.51800,32.97396031
1.51850,28.09084979
1.51900,27.17526657
1.51950,25.95448893
1.52000,19.85060078
1.52050,10.99996296
1.52100,5.201269211
1.52150,3.98049158
1.52200,1.538936319
1.52250,-5.480535058
1.52300,-15.85714492
1.52350,-25.31817156
1.52400,-31.42205971
1.52450,-31.42205971
1.52500,-21.96103307
1.52550,-2.428590981
1.52600,20.4609896
1.52650,38.77265406
1.52700,46.09731984
1.52750,44.2661534
1.52800,39.68823728
1.52850,34.49993235
1.52900,26.25968334
1.52950,13.44151822
1.53000,-0.9026189429
1.53050,-13.11039525
1.53100,-21.96103307
1.53150,-30.50647649
1.53200,-36.30517024
1.53250,-36.30517024
1.53300,-31.11686531
1.53350,-24.40258834
1.53400,-17.99350577
1.53450,-11.58442321
1.53500,-9.142867951
1.53550,-18.60389459
1.53600,-40.27269754
1.53650,-63.77266693
1.53700,-79.03238731
1.53750,-84.22069225
1.53800,-81.47394258
1.53850,-69.57136068
1.53900,-51.25969621
1.53950,-37.83114227
1.54000,-36.91555905
1.54050,-39.96750313
1.54100,-31.11686531
1.54150,-7.616895912
1.54200,15.27268467
1.54250,24.7337113
1.54300,22.29215604
1.54350,20.15579519
1.54400,21.98696163
1.54450,20.766184
1.54500,12.22074059
1.54550,3.98049158
1.54600,7.642824473
1.54650,25.03890571
1.54700,45.48693103
1.54750,55.25315207
1.54800,51.59081918
1.54850,42.74018136
1.54900,35.72070998
1.54950,32.6687659
1.55000,30.83759946
1.55050,27.78565538
1.55100,21.98696163
1.55150,12.525935
1.55200,2.75971395
1.55250,-0.5974245352
1.55300,0.3181586879
1.55350,-2.733785389
1.55400,-18.909089
1.55450,-42.40905839
1.55500,-61.33111167
1.55550,-69.57136068
1.55600,-70.18174949
1.55650,-65.90902778
1.55700,-55.22722351
1.55750,-38.13633668
1.55800,-20.12986663
1.55850,-5.175340651
1.55900,7.642824473
1.55950,23.20773927
1.56000,41.51940373
1.56050,59.22067937
1.56100,74.78559417
1.56150,86.38298166
1.56200,91.876481
1.56250,90.04531455
1.56300,83.02584317
1.56350,74.17520535
1.56400,64.1037899
1.56450,53.11679122
1.56500,43.04537577
1.56550,35.41551557
1.56600,28.09084979
1.56650,18.62982315
1.56700,7.337630065
1.56750,-3.038979797
1.56800,-14.63636729
1.56850,-30.50647649
1.56900,-49.42852977
1.56950,-68.04538864
1.57000,-82.69472021
1.57050,-90.62977481
1.57100,-90.3245804
1.57150,-81.77913698
1.57200,-70.18174949
1.57250,-59.49994522
1.57300,-48.81814095
1.57350,-34.16880938
1.57400,-14.9415617
1.57450,4.896074803
1.57500,22.59735045
1.57550,34.49993235
1.57600,38.16226524
1.57650,34.19473794
1.57700,27.48046097
1.57750,21.98696163
1.57800,16.4934623
1.57850,8.253213288
1.57900,-0.2922301275
1.57950,-6.701312689
1.58000,-11.88961762
1.58050,-18.60389459
1.58100,-25.92856037
1.58150,-30.8116709
1.58200,-32.64283734
1.58250,-32.33764294
1.58300,-29.28569886
1.58350,-23.79219952
1.58400,-20.43506104
1.58450,-21.35064426
1.58500,-19.21428341
1.58550,-8.532479135
1.58600,1.844130726
1.58650,-1.513007758
1.58700,-20.74025544
1.58750,-40.27269754
1.58800,-48.20775214
1.58850,-49.12333536
1.58900,-51.25969621
1.58950,-55.53241792
1.59000,-57.36358437
1.59050,-54.31164029
1.59100,-47.90255773
1.59150,-37.22075346
1.59200,-21.65583867
1.59250,-1.513007758
1.59300,19.54540637
1.59350,35.72070998
1.59400,39.68823728
1.59450,28.7012386
1.59500,6.72724125
1.59550,-19.21428341
1.59600,-45.76619688
1.59650,-68.96097186
1.59700,-82.08433139
1.59750,-83.30510902
1.59800,-79.03238731
1.59850,-77.50641528
1.59900,-75.37005442
1.59950,-65.60383338
1.60000,-52.48047384
1.60050,-49.73372418
1.60100,-59.19475081
1.60150,-66.21422219
1.60200,-58.88955641
1.60250,-42.10386398
1.60300,-28.98050445
1.60350,-21.04544985
1.60400,-11.88961762
1.60450,0.3181586879
1.60500,8.863602104
1.60550,11.61035177
1.60600,15.57787907
1.60650,29.00643301
1.60700,48.2336807
1.60750,60.44145701
1.60800,56.4739297
1.60850,42.43498695
1.60900,32.6687659
1.60950,34.80512676
1.61000,43.96095899
1.61050,49.75965274
1.61100,47.01290307
1.61150,39.99343169
1.61200,35.41551557
1.61250,35.41551557
1.61300,36.6362932
1.61350,34.80512676
1.61400,29.00643301
1.61450,23.20773927
1.61500,19.85060078
1.61550,15.57787907
1.61600,5.811658027
1.61650,-7.311701505
1.61700,-17.07792255
1.61750,-22.26622748
1.61800,-28.37011564
1.61850,-38.13633668
1.61900,-44.85061365
1.61950,-43.62983602
1.62000,-38.7467255
1.62050,-39.35711431
1.62100,-46.98697451
1.62150,-57.05838996
1.62200,-68.04538864
1.62250,-82.99991461
1.62300,-101.9219679
1.62350,-117.1816883
1.62400,-120.8440212
1.62450,-110.1622169
1.62500,-89.71419158
1.62550,-69.26616627
1.62600,-56.44800114
1.62650,-49.12333536
1.62700,-39.05191991
1.62750,-21.96103307
1.62800,-4.564951835
1.62850,6.116852434
1.62900,9.473990919
1.62950,8.253213288
1.63000,1.233741911
1.63050,-10.9740344
1.63100,-20.12986663
1.63150,-15.85714492
1.63200,-0.9026189429
1.63250,11.61035177
1.63300,15.57787907
1.63350,14.66229585
1.63400,14.66229585
1.63450,13.44151822
1.63500,6.72724125
1.63550,-1.513007758
1.63600,-6.396118282
1.63650,-5.785729466
1.63700,-4.564951835
1.63750,-5.480535058
1.63800,-6.090923874
1.63850,-3.038979797
1.63900,0.9285475033
1.63950,1.844130726
1.64000,-0.5974245352
1.64050,0.3181586879
1.64100,7.94801888
1.64150,13.13632381
1.64200,4.590880396
1.64250,-14.02597847
1.64300,-25.92856037
1.64350,-23.18181071
1.64400,-16.77272814
1.64450,-18.909089
1.64500,-24.70778274
1.64550,-24.40258834
1.64600,-20.12986663
1.64650,-19.82467222
1.64700,-21.96103307
1.64750,-17.38311696
1.64800,-7.006507097
1.64850,-0.5974245352
1.64900,-1.207813351
1.64950,-0.5974245352
1.65000,7.032435657
1.65050,18.62982315
1.65100,28.3960442
1.65150,34.80512676
1.65200,34.80512676
1.65250,25.03890571
1.65300,9.473990919
1.65350,-1.207813351
1.65400,-4.564951835
1.65450,-7.311701505
1.65500,-13.72078407
1.65550,-19.21428341
1.65600,-17.99350577
1.65650,-11.2792288
1.65700,-0.5974245352
1.65750,16.4934623
1.65800,43.04537577
1.65850,71.42845568
1.65900,90.35050896
1.65950,94.62323067
1.66000,87.60375929
1.66050,75.39598298
1.66100,62.27262345
1.66150,50.06484714
1.66200,36.3310988
1.66250,16.18826789
1.66300,-12.50000644
1.66350,-42.40905839
1.66400,-63.16227811
1.66450,-73.84408238
1.66500,-84.22069225
1.66550,-100.0908014
1.66600,-117.4868827
1.66650,-127.5582981
1.66700,-129.3894646
1.66750,-126.3375205
1.66800,-117.1816883
1.66850,-100.3959959
1.66900,-80.25316495
1.66950,-63.16227811
1.67000,-46.07139128
1.67050,-17.68831137
1.67100,21.37657282
1.67150,57.69470734
1.67200,78.75312147
1.67250,87.29856488
1.67300,94.01284185
1.67350,101.0323132
1.67400,102.5582853
1.67450,95.23361948
1.67500,81.49987114
1.67550,68.68170601
1.67600,64.40898431
1.67650,71.12326127
1.67700,80.27909351
1.67750,83.02584317
1.67800,82.41545436
1.67850,91.876481
1.67900,114.1556728
1.67950,133.6881149
1.68000,137.0452533
1.68050,128.8050043
1.68100,120.2595609
1.68150,109.5777566
1.68200,88.21414811
1.68250,58.61029056
1.68300,32.97396031
1.68350,14.66229585
1.68400,-3.344174205
1.68450,-23.79219952
1.68500,-39.05191991
1.68550,-46.07139128
1.68600,-50.03891858
1.68650,-51.87008503
1.68700,-44.24022484
1.68750,-25.92856037
1.68800,-7.92209032
1.68850,-1.513007758
1.68900,-2.428590981
1.68950,2.75971395
1.69000,18.62982315
1.69050,39.38304287
1.69100,58.30509615
1.69150,73.56481654
1.69200,83.02584317
1.69250,83.63623199
1.69300,76.92195502
1.69350,67.46092838
1.69400,59.22067937
1.69450,52.81159681
1.69500,48.2336807
1.69550,44.2661534
1.69600,36.94148761
1.69650,24.12332249
1.69700,10.99996296
1.69750,5.506463619
1.69800,8.253213288
1.69850,12.22074059
1.69900,12.525935
1.69950,9.168796511
1.70000,5.201269211
1.70050,1.844130726
1.70100,1.538936319
1.70150,3.064908357
1.70200,0.01296428019
1.70250,-12.50000644
1.70300,-30.20128208
1.70350,-43.93503043
1.70400,-52.48047384
1.70450,-59.80513963
1.70500,-63.16227811
1.70550,-56.44800114
1.70600,-43.62983602
1.70650,-37.22075346
1.70700,-42.7142528
1.70750,-51.56489062
1.70800,-56.75319555
1.70850,-61.63630608
1.70900,-70.79213831
1.70950,-80.55835935
1.71000,-86.66224751
1.71050,-90.01938599
1.71100,-90.62977481
1.71150,-80.86355376
1.71200,-58.584362
1.71250,-32.33764294
1.71300,-11.88961762
1.71350,2.75971395
1.71400,18.01943433
1.71450,33.58434913
1.71500,47.31809747
1.71550,61.05184582
1.71600,73.25962213
1.71650,76.0063718
1.71700,65.01937312
1.71750,48.2336807
1.71800,36.94148761
1.71850,31.75318268
1.71900,26.87007216
1.71950,21.68176723
1.72000,18.93501756
1.72050,17.40904552
1.72100,13.13632381
1.72150,6.72724125
1.72200,5.201269211
1.72250,12.22074059
1.72300,23.81812808
1.72350,35.11032117
1.72400,42.74018136
1.72450,43.04537577
1.72500,37.55187643
1.72550,35.41551557
1.72600,44.87654221
1.72650,61.05184582
1.72700,71.12326127
1.72750,69.90248364
1.72800,64.40898431
1.72850,62.27262345
1.72900,60.44145701
1.72950,52.5064024
1.73000,38.46745965
1.73050,24.4285169
1.73100,15.27268467
1.73150,10.08437973
1.73200,8.253213288
1.73250,10.38957414
1.73300,16.7986567
1.73350,25.64929453
1.73400,33.88954354
1.73450,39.68823728
1.73500,41.82459814
1.73550,38.77265406
1.73600,30.22721064
1.73650,19.54540637
1.73700,10.08437973
1.73750,3.675297173
1.73800,1.844130726
1.73850,5.506463619
1.73900,13.74671263
1.73950,22.90254486
1.74000,28.3960442
1.74050,31.14279387
1.74100,33.58434913
1.74150,36.02590439
1.74200,35.11032117
1.74250,32.97396031
1.74300,32.97396031
1.74350,30.22721064
1.74400,13.74671263
1.74450,-17.68831137
1.74500,-50.6493074
1.74550,-68.35058304
1.74600,-70.79213831
1.74650,-68.04538864
1.74700,-66.5194166
1.74750,-66.21422219
1.74800,-65.29863897
1.74850,-64.68825015
1.74900,-57.97397318
1.74950,-37.52594787
1.75000,-6.090923874
1.75050,20.4609896
1.75100,29.00643301
1.75150,19.54540637
1.75200,3.98049158
1.75250,-5.480535058
1.75300,-4.259757428
1.75350,4.896074803
1.75400,16.18826789
1.75450,23.81812808
1.75500,29.61682183
1.75550,36.02590439
1.75600,44.5713478
1.75650,54.64276326
1.75700,66.85053957
1.75750,81.49987114
1.75800,93.70764744
1.75850,98.59075797
1.75900,98.28556356
1.75950,97.98036915
1.76000,96.14920271
1.76050,84.85700962
1.76100,61.96742904
1.76150,34.80512676
1.76200,10.38957414
1.76250,-7.92209032
1.76300,-20.12986663
1.76350,-25.62336597
1.76400,-28.06492123
1.76450,-32.64283734
1.76500,-36.30517024
1.76550,-29.89608767
1.76600,-12.50000644
1.76650,-0.9026189429
1.76700,-10.66883999
1.76750,-36.30517024
1.76800,-54.6168347
1.76850,-50.6493074
1.76900,-29.89608767
1.76950,-7.311701505
1.77000,6.72724125
1.77050,15.27268467
1.77100,24.4285169
1.77150,40.2986261
1.77200,62.27262345
1.77250,80.88948232
1.77300,87.60375929
1.77350,81.49987114
1.77400,71.12326127
1.77450,63.49340108
1.77500,59.22067937
1.77550,55.25315207
1.77600,49.45445833
1.77650,42.43498695
1.77700,34.80512676
1.77750,27.78565538
1.77800,24.4285169
1.77850,26.87007216
1.77900,33.58434913
1.77950,40.2986261
1.78000,43.65576458
1.78050,43.04537577
1.78100,41.82459814
1.78150,40.90901491
1.78200,38.16226524
1.78250,28.3960442
1.78300,8.863602104
1.78350,-16.16233933
1.78400,-42.40905839
1.78450,-67.12980541
1.78500,-88.79860836
1.78550,-102.8375511
1.78600,-103.7531343
1.78650,-93.37652448
1.78700,-78.11680409
1.78750,-64.07786134
1.78800,-52.78566825
1.78850,-45.15580806
1.78900,-43.62983602
1.78950,-48.81814095
1.79000,-56.75319555
1.79050,-62.24669489
1.79100,-61.63630608
1.79150,-54.00644588
1.79200,-40.27269754
1.79250,-25.31817156
1.79300,-16.46753374
1.79350,-16.46753374
1.79400,-19.21428341
1.79450,-16.77272814
1.79500,-7.311701505
1.79550,2.149325134
1.79600,3.064908357
1.79650,-6.701312689
1.79700,-21.96103307
1.79750,-31.11686531
1.79800,-30.20128208
1.79850,-25.92856037
1.79900,-26.8441436
1.79950,-32.64283734
1.80000,-33.55842057
1.80050,-22.8766163
1.80100,-4.259757428
1.80150,16.7986567
1.80200,40.6038205
1.80250,66.85053957
1.80300,89.12973133
1.80350,101.0323132
1.80400,104.3894517
1.80450,110.1881455
1.80500,121.785533
1.80550,129.4153931
1.80600,121.1751441
1.80650,96.14920271
1.80700,65.62976194
1.80750,41.51940373
1.80800,28.09084979
1.80850,20.766184
1.80900,13.13632381
1.80950,3.675297173
1.81000,-5.480535058
1.81050,-13.11039525
1.81100,-21.65583867
1.81150,-34.47400379
1.81200,-48.81814095
1.81250,-57.05838996
1.81300,-55.83761233
1.81350,-49.42852977
1.81400,-43.62983602
1.81450,-38.7467255
1.81500,-32.03244853
1.81550,-25.01297715
1.81600,-22.57142189
1.81650,-23.18181071
1.81700,-18.29870018
1.81750,-4.870146243
1.81800,10.69476855
1.81850,19.54540637
1.81900,20.766184
1.81950,19.24021197
1.82000,16.4934623
1.82050,10.69476855
1.82100,3.370102765
1.82150,3.370102765
1.82200,14.66229585
1.82250,31.44798827
1.82300,43.35057017
1.82350,47.92848629
1.82400,51.28562477
1.82450,61.05184582
1.82500,79.9738991
1.82550,102.5582853
1.82600,118.7335889
1.82650,119.0387833
1.82700,103.7790629
1.82750,86.07778725
1.82800,80.58428791
1.82850,88.82453692
1.82900,96.75959152
1.82950,91.26609218
1.83000,73.56481654
1.83050,51.59081918
1.83100,29.31162742
1.83150,3.98049158
1.83200,-19.82467222
1.83250,-32.33764294
1.83300,-31.72725412
1.83350,-32.64283734
1.83400,-50.34411299
1.83450,-82.99991461
1.83500,-114.4349386
1.83550,-130.9154366
1.83600,-130.9154366
1.83650,-119.3180491
1.83700,-99.17521822
1.83750,-72.92849916
1.83800,-43.32464161
1.83850,-14.63636729
1.83900,10.38957414
1.83950,31.75318268
1.84000,52.201208
1.84050,75.39598298
1.84100,98.59075797
1.84150,112.3245063
1.84200,109.8829511
1.84250,97.06478593
1.84300,86.68817607
1.84350,82.41545436
1.84400,75.70117739
1.84450,58.61029056
1.84500,35.11032117
1.84550,14.35710144
1.84600,0.6233530956
1.84650,-7.92209032
1.84700,-11.58442321
1.84750,-7.006507097
1.84800,4.285685988
1.84850,16.7986567
1.84900,26.56487775
1.84950,35.72070998
1.85000,48.2336807
1.85050,64.40898431
1.85100,78.44792706
1.85150,83.02584317
1.85200,73.25962213
1.85250,54.03237444
1.85300,35.41551557
1.85350,25.34410012
1.85400,20.4609896
1.85450,13.13632381
1.85500,0.3181586879
1.85550,-16.46753374
1.85600,-37.52594787
1.85650,-62.5518893
1.85700,-84.83108106
1.85750,-95.81807974
1.85800,-93.98691329
1.85850,-84.83108106
1.85900,-72.31811035
1.85950,-58.27916759
1.86000,-48.20775214
1.86050,-46.6817801
1.86100,-52.17527944
1.86150,-59.80513963
1.86200,-68.35058304
1.86250,-76.89602646
1.86300,-79.03238731
1.86350,-67.74019423
1.86400,-47.90255773
1.86450,-32.94803175
1.86500,-26.23375478
1.86550,-20.43506104
1.86600,-12.50000644
1.86650,-8.837673543
1.86700,-10.36364558
1.86750,-8.532479135
1.86800,-1.207813351
1.86850,0.9285475033
1.86900,-9.448062359
1.86950,-28.06492123
1.87000,-44.85061365
1.87050,-58.27916759
1.87100,-68.96097186
1.87150,-73.53888798
1.87200,-72.31811035
1.87250,-72.01291594
1.87300,-74.14927679
1.87350,-66.21422219
1.87400,-40.27269754
1.87450,-10.05845117
1.87500,1.233741911
1.87550,-8.837673543
1.87600,-23.79219952
1.87650,-28.98050445
1.87700,-29.28569886
1.87750,-35.38958701
1.87800,-47.29216891
1.87850,-58.584362
1.87900,-69.26616627
1.87950,-83.91549784
1.88000,-101.0063847
1.88050,-110.4674113
1.88100,-108.025856
1.88150,-97.95444059
1.88200,-85.44146988
1.88250,-68.96097186
1.88300,-47.29216891
1.88350,-27.14933801
1.88400,-18.60389459
1.88450,-19.82467222
1.88500,-17.07792255
1.88550,-2.123396574
1.88600,14.96749026
1.88650,19.24021197
1.88700,5.811658027
1.88750,-16.46753374
1.88800,-38.13633668
1.88850,-56.44800114
1.88900,-71.40252712
1.88950,-83.91549784
1.89000,-93.68171888
1.89050,-100.7011903
1.89100,-101.3115791
1.89150,-91.24016362
1.89200,-72.31811035
1.89250,-53.09086266
1.89300,-39.96750313
1.89350,-32.03244853
1.89400,-25.01297715
1.89450,-20.43506104
1.89500,-22.57142189
1.89550,-28.37011564
1.89600,-26.53894919
1.89650,-9.753256766
1.89700,16.7986567
1.89750,40.90901491
1.89800,54.94795767
1.89850,59.22067937
1.89900,58.30509615
1.89950,57.38951293
1.90000,59.83106819
1.90050,64.40898431
1.90100,63.79859549
1.90150,50.06484714
1.90200,26.87007216
1.90250,6.116852434
1.90300,-3.95456302
1.90350,-10.36364558
1.90400,-20.12986663
1.90450,-28.37011564
1.90500,-24.09739393
1.90550,-6.090923874
1.90600,11.30515737
1.90650,19.85060078
1.90700,23.51293367
1.90750,30.83759946
1.90800,35.72070998
1.90850,26.87007216
1.90900,5.201269211
1.90950,-15.2467561
1.91000,-23.79219952
1.91050,-24.09739393
1.91100,-25.31817156
1.91150,-27.45453241
1.91200,-25.92856037
1.91250,-20.12986663
1.91300,-16.16233933
1.91350,-18.909089
1.91400,-25.92856037
1.91450,-29.89608767
1.91500,-25.01297715
1.91550,-11.88961762
1.91600,0.3181586879
1.91650,3.675297173
1.91700,-3.344174205
1.91750,-13.11039525
1.91800,-17.07792255
1.91850,-11.2792288
1.91900,1.538936319
1.91950,16.7986567
1.92000,29.00643301
1.92050,33.58434913
1.92100,29.31162742
1.92150,18.62982315
1.92200,6.116852434
1.92250,-4.870146243
1.92300,-12.80520084
1.92350,-18.909089
1.92400,-28.06492123
1.92450,-41.79866957
1.92500,-54.31164029
1.92550,-56.44800114
1.92600,-46.98697451
1.92650,-34.16880938
1.92700,-26.8441436
1.92750,-24.40258834
1.92800,-21.35064426
1.92850,-13.41558966
1.92900,2.149325134
1.92950,24.12332249
1.93000,46.09731984
1.93050,58.30509615
1.93100,58.91548497
1.93150,55.25315207
1.93200,55.55834648
1.93250,58.91548497
1.93300,58.30509615
1.93350,50.37004155
1.93400,34.49993235
1.93450,7.337630065
1.93500,-28.37011564
1.93550,-62.85708371
1.93600,-81.77913698
1.93650,-81.77913698
1.93700,-71.40252712
1.93750,-61.63630608
1.93800,-57.05838996
1.93850,-57.05838996
1.93900,-55.22722351
1.93950,-41.18828076
1.94000,-13.41558966
1.94050,15.57787907
1.94100,29.31162742
1.94150,27.17526657
1.94200,23.20773927
1.94250,25.64929453
1.94300,30.53240505
1.94350,33.88954354
1.94400,43.35057017
1.94450,60.74665141
1.94500,72.64923331
1.94550,64.1037899
1.94600,41.51940373
1.94650,21.98696163
1.94700,10.69476855
1.94750,-1.207813351
1.94800,-17.68831137
1.94850,-29.28569886
1.94900,-29.89608767
1.94950,-24.40258834
1.95000,-18.29870018
1.95050,-12.80520084
1.95100,-9.142867951
1.95150,-10.05845117
1.95200,-14.02597847
1.95250,-13.72078407
1.95300,-6.396118282
1.95350,4.285685988
1.95400,14.96749026
1.95450,24.7337113
1.95500,33.27915472
1.95550,38.46745965
1.95600,41.51940373
1.95650,42.43498695
1.95700,38.16226524
1.95750,26.56487775
1.95800,14.96749026
1.95850,12.22074059
1.95900,14.96749026
1.95950,13.44151822
1.96000,7.337630065
1.96050,10.99996296
1.96100,30.53240505
1.96150,53.72718004
1.96200,63.18820667
1.96250,55.55834648
1.96300,39.68823728
1.96350,25.95448893
1.96400,22.59735045
1.96450,35.11032117
1.96500,60.44145701
1.96550,86.68817607
1.96600,104.9998405
1.96650,116.2920336
1.96700,122.7011162
1.96750,120.2595609
1.96800,103.7790629
1.96850,79.05831587
1.96900,57.99990174
1.96950,41.82459814
1.97000,23.51293367
1.97050,0.3181586879
1.97100,-21.04544985
1.97150,-34.7791982
1.97200,-43.32464161
1.97250,-50.95450181
1.97300,-55.22722351
1.97350,-54.92202911
1.97400,-55.22722351
1.97450,-59.49994522
1.97500,-60.41552844
1.97550,-50.03891858
1.97600,-33.25322616
1.97650,-24.09739393
1.97700,-25.62336597
1.97750,-28.67531004
1.97800,-26.53894919
1.97850,-23.18181071
1.97900,-28.06492123
1.97950,-44.54541924
1.98000,-70.18174949
1.98050,-96.12327415
1.98100,-110.4674113
1.98150,-107.4154672
1.98200,-94.2921077
1.98250,-80.86355376
1.98300,-65.60383338
1.98350,-45.15580806
1.98400,-27.75972682
1.98450,-26.8441436
1.98500,-38.13633668
1.98550,-43.32464161
1.98600,-36.30517024
1.98650,-28.67531004
1.98700,-26.53894919
1.98750,-21.65583867
1.98800,-12.80520084
1.98850,-13.72078407
1.98900,-25.92856037
1.98950,-27.14933801
1.99000,0.3181586879
1.99050,43.35057017
1.99100,73.25962213
1.99150,84.24662081
1.99200,89.12973133
1.99250,94.01284185
1.99300,92.48686981
1.99350,84.55181521
1.99400,80.58428791
1.99450,85.77259284
1.99500,91.876481
1.99550,89.12973133
1.99600,75.39598298
1.99650,53.72718004
1.99700,29.00643301
1.99750,6.72724125
1.99800,-7.616895912
1.99850,-14.9415617
1.99900,-18.909089
1.99950,-20.74025544
2.00000,-19.82467222
2.00050,-15.85714492
2.00100,-9.448062359
2.00150,-0.5974245352
2.00200,10.08437973
2.00250,25.03890571
2.00300,45.48693103
2.00350,69.90248364
2.00400,90.04531455
2.00450,97.06478593
2.00500,90.96089778
2.00550,76.92195502
2.00600,57.38951293
2.00650,31.75318268
2.00700,5.201269211
2.00750,-11.88961762
2.00800,-18.909089
2.00850,-21.35064426
2.00900,-22.57142189
2.00950,-19.21428341
2.01000,-11.2792288
2.01050,-4.564951835
2.01100,-3.038979797
2.01150,-6.396118282
2.01200,-17.38311696
2.01250,-38.7467255
2.01300,-61.63630608
2.01350,-70.4869439
2.01400,-63.16227811
2.01450,-51.87008503
2.01500,-45.76619688
2.01550,-39.05191991
2.01600,-26.53894919
2.01650,-10.9740344
2.01700,5.201269211
2.01750,25.64929453
2.01800,45.18173662
2.01850,47.31809747
2.01900,25.64929453
2.01950,-2.123396574
2.02000,-19.51947781
2.02050,-31.42205971
2.02100,-53.09086266
2.02150,-80.86355376
2.02200,-93.37652448
2.02250,-80.86355376
2.02300,-55.83761233
2.02350,-35.99997583
2.02400,-25.62336597
2.02450,-22.26622748
2.02500,-23.79219952
2.02550,-28.37011564
2.02600,-31.11686531
2.02650,-30.8116709
2.02700,-33.86361497
2.02750,-44.54541924
2.02800,-54.92202911
2.02850,-53.09086266
2.02900,-36.30517024
2.02950,-13.11039525
2.03000,7.642824473
2.03050,23.20773927
2.03100,30.83759946
2.03150,23.81812808
2.03200,3.98049158
2.03250,-13.41558966
2.03300,-13.72078407
2.03350,0.01296428019
2.03400,10.38957414
2.03450,8.558407696
2.03500,0.3181586879
2.03550,-6.090923874
2.03600,-7.92209032
2.03650,-5.785729466
2.03700,1.844130726
2.03750,14.35710144
2.03800,23.51293367
2.03850,27.48046097
2.03900,32.6687659
2.03950,43.04537577
2.04000,49.45445833
2.04050,41.21420932
2.04100,23.81812808
2.04150,10.38957414
2.04200,3.675297173
2.04250,-4.259757428
2.04300,-17.99350577
2.04350,-28.98050445
2.04400,-25.92856037
2.04450,-3.344174205
2.04500,34.49993235
2.04550,73.25962213
2.04600,94.31803626
2.04650,91.57128659
2.04700,76.61676061
2.04750,66.54534516
2.04800,64.71417871
2.04850,62.57781786
2.04900,54.03237444
2.04950,43.65576458
2.05000,35.72070998
2.05050,29.00643301
2.05100,22.29215604
2.05150,19.54540637
2.05200,25.64929453
2.05250,39.68823728
2.05300,54.33756885
2.05350,61.35704023
2.05400,58.91548497
2.05450,52.81159681
2.05500,47.92848629
2.05550,42.43498695
2.05600,32.6687659
2.05650,22.90254486
2.05700,20.4609896
2.05750,20.4609896
2.05800,9.473990919
2.05850,-18.29870018
2.05900,-51.25969621
2.05950,-75.67524883
2.06000,-89.40899718
2.06050,-100.0908014
2.06100,-111.9933833
2.06150,-123.2855764
2.06200,-129.9998534
2.06250,-126.9479093
2.06300,-112.2985778
2.06350,-95.20769092
2.06400,-87.57783073
2.06450,-91.85055244
2.06500,-95.81807974
2.06550,-90.3245804
2.06600,-78.11680409
2.06650,-67.12980541
2.06700,-56.75319555
2.06750,-41.79866957
2.06800,-23.79219952
2.06850,-6.396118282
2.06900,11.30515737
2.06950,32.05837709
2.07000,49.14926392
2.07050,51.59081918
2.07100,39.07784847
2.07150,21.68176723
2.07200,8.558407696
2.07250,0.3181586879
2.07300,-2.123396574
2.07350,5.506463619
2.07400,23.81812808
2.07450,41.82459814
2.07500,47.01290307
2.07550,34.80512676
2.07600,9.779185327
2.07650,-20.12986663
2.07700,-44.85061365
2.07750,-54.6168347
2.07800,-50.03891858
2.07850,-43.62983602
2.07900,-43.01944721
2.07950,-40.88308635
2.08000,-31.72725412
2.08050,-26.53894919
2.08100,-39.96750313
2.08150,-62.5518893
2.08200,-70.18174949
2.08250,-56.44800114
2.08300,-41.79866957
2.08350,-38.7467255
2.08400,-35.08439261
2.08450,-18.60389459
2.08500,0.3181586879
2.08550,4.590880396
2.08600,-2.123396574
2.08650,-6.396118282
2.08700,-5.480535058
2.08750,-7.616895912
2.08800,-8.532479135
2.08850,2.454519542
2.08900,23.81812808
2.08950,38.16226524
2.09000,35.41551557
2.09050,24.12332249
2.09100,18.01943433
2.09150,19.54540637
2.09200,22.90254486
2.09250,22.29215604
2.09300,15.57787907
2.09350,3.064908357
2.09400,-13.11039525
2.09450,-29.28569886
2.09500,-41.18828076
2.09550,-48.51294654
2.09600,-55.83761233
2.09650,-65.60383338
2.09700,-74.4544712
2.09750,-76.28563765
2.09800,-73.53888798
2.09850,-72.31811035
2.09900,-71.40252712
2.09950,-61.94150048
2.10000,-43.01944721
2.10050,-27.45453241
2.10100,-28.06492123
2.10150,-38.7467255
2.10200,-43.93503043
2.10250,-35.38958701
2.10300,-16.46753374
2.10350,6.422046842
2.10400,25.95448893
2.10450,34.19473794
2.10500,29.31162742
2.10550,20.4609896
2.10600,17.71423993
2.10650,18.32462874
2.10700,14.05190703
2.10750,3.064908357
2.10800,-10.66883999
2.10850,-28.06492123
2.10900,-49.42852977
2.10950,-68.65577745
2.11000,-79.33758172
2.11050,-82.08433139
2.11100,-82.08433139
2.11150,-80.25316495
2.11200,-78.11680409
2.11250,-78.11680409
2.11300,-77.20122087
2.11350,-60.41552844
2.11400,-21.04544985
2.11450,21.98696163
2.11500,41.51940373
2.11550,32.97396031
2.11600,20.4609896
2.11650,23.51293367
2.11700,36.3310988
2.11750,43.04537577
2.11800,40.90901491
2.11850,39.07784847
2.11900,41.21420932
2.11950,43.04537577
2.12000,45.79212544
2.12050,55.86354089
2.12100,69.90248364
2.12150,71.42845568
2.12200,49.14926392
2.12250,13.13632381
2.12300,-14.02597847
2.12350,-24.70778274
2.12400,-29.89608767
2.12450,-41.18828076
2.12500,-52.17527944
2.12550,-52.17527944
2.12600,-42.7142528
2.12650,-33.25322616
2.12700,-25.01297715
2.12750,-10.66883999
2.12800,8.863602104
2.12850,22.59735045
2.12900,22.59735045
2.12950,14.35710144
2.13000,7.94801888
2.13050,4.896074803
2.13100,3.675297173
2.13150,6.422046842
2.13200,15.27268467
2.13250,25.95448893
2.13300,33.27915472
2.13350,38.77265406
2.13400,45.48693103
2.13450,51.59081918
2.13500,49.14926392
2.13550,37.24668202
2.13600,21.98696163
2.13650,10.08437973
2.13700,0.3181586879
2.13750,-9.448062359
2.13800,-17.68831137
2.13850,-18.60389459
2.13900,-10.05845117
2.13950,4.285685988
2.14000,19.85060078
2.14050,32.6687659
2.14100,40.6038205
2.14150,40.2986261
2.14200,31.44798827
2.14250,18.62982315
2.14300,10.69476855
2.14350,9.779185327
2.14400,10.38957414
2.14450,9.473990919
2.14500,10.69476855
2.14550,20.15579519
2.14600,33.58434913
2.14650,39.99343169
2.14700,32.6687659
2.14750,15.27268467
2.14800,-4.870146243
2.14850,-25.31817156
2.14900,-45.15580806
2.14950,-62.85708371
2.15000,-76.59083205
2.15050,-84.83108106
2.15100,-86.96744191
2.15150,-83.91549784
2.15200,-79.03238731
2.15250,-77.81160968
2.15300,-81.16874817
2.15350,-81.47394258
2.15400,-68.65577745
2.15450,-39.05191991
2.15500,1.538936319
2.15550,42.43498695
2.15600,73.25962213
2.15650,89.74012014
2.15700,95.23361948
2.15750,96.75959152
2.15800,100.11673
2.15850,105.3050349
2.15900,103.4738685
2.15950,86.38298166
2.16000,55.25315207
2.16050,22.90254486
2.16100,1.538936319
2.16150,-8.532479135
2.16200,-18.909089
2.16250,-38.13633668
2.16300,-61.63630608
2.16350,-76.28563765
2.16400,-72.62330475
2.16450,-49.73372418
2.16500,-11.88961762
2.16550,31.14279387
2.16600,67.46092838
2.16650,86.38298166
2.16700,87.60375929
2.16750,77.22714943
2.16800,60.44145701
2.16850,40.6038205
2.16900,21.07137841
2.16950,6.116852434
2.17000,-3.95456302
2.17050,-9.753256766
2.17100,-6.396118282
2.17150,8.253213288
2.17200,29.31162742
2.17250,48.5388751
2.17300,68.0713172
2.17350,93.09725863
2.17400,114.1556728
2.17450,112.6297007
2.17500,88.82453692
2.17550,69.59728924
2.17600,73.87001094
2.17650,86.68817607
2.17700,84.24662081
2.17750,67.76612279
2.17800,56.1687353
2.17850,50.98043037
2.17900,34.80512676
2.17950,5.201269211
2.18000,-15.2467561
2.18050,-12.50000644
2.18100,-1.207813351
2.18150,-2.123396574
2.18200,-14.9415617
2.18250,-24.09739393
2.18300,-19.51947781
2.18350,-4.870146243
2.18400,13.74671263
2.18450,30.83759946
2.18500,39.07784847
2.18550,38.77265406
2.18600,39.99343169
2.18650,51.89601359
2.18700,69.90248364
2.18750,83.63623199
2.18800,88.21414811
2.18850,84.85700962
2.18900,73.87001094
2.18950,52.201208
2.19000,22.29215604
2.19050,-5.785729466
2.19100,-25.31817156
2.19150,-35.38958701
2.19200,-40.27269754
2.19250,-44.54541924
2.19300,-49.73372418
2.19350,-52.78566825
2.19400,-51.25969621
2.19450,-45.15580806
2.19500,-36.61036464
2.19550,-26.53894919
2.19600,-13.72078407
2.19650,1.844130726
2.19700,19.24021197
2.19750,36.3310988
2.19800,50.98043037
2.19850,59.52587378
2.19900,60.44145701
2.19950,57.99990174
2.20000,56.1687353
2.20050,51.28562477
2.20100,37.85707084
2.20150,19.85060078
2.20200,6.116852434
2.20250,-0.2922301275
2.20300,-2.428590981
2.20350,1.233741911
2.20400,14.66229585
2.20450,30.83759946
2.20500,35.72070998
2.20550,25.03890571
2.20600,6.116852434
2.20650,-12.80520084
2.20700,-29.59089327
2.20750,-37.52594787
2.20800,-33.25322616
2.20850,-28.98050445
2.20900,-39.35711431
2.20950,-54.6168347
2.21000,-44.54541924
2.21050,-0.5974245352
2.21100,50.67523596
2.21150,81.49987114
2.21200,92.18167541
2.21250,97.06478593
2.21300,98.28556356
2.21350,91.876481
2.21400,82.11025995
2.21450,75.39598298
2.21500,66.54534516
2.21550,50.67523596
2.21600,37.24668202
2.21650,37.55187643
2.21700,45.48693103
2.21750,47.01290307
2.21800,41.82459814
2.21850,37.24668202
2.21900,32.6687659
2.21950,21.07137841
2.22000,5.506463619
2.22050,-7.92209032
2.22100,-20.12986663
2.22150,-32.94803175
2.22200,-34.16880938
2.22250,-10.9740344
2.22300,24.12332249
2.22350,44.5713478
2.22400,38.77265406
2.22450,22.59735045
2.22500,15.57787907
2.22550,19.85060078
2.22600,25.95448893
2.22650,27.78565538
2.22700,24.12332249
2.22750,16.4934623
2.22800,6.72724125
2.22850,-3.038979797
2.22900,-15.85714492
2.22950,-33.86361497
2.23000,-50.03891858
2.23050,-54.92202911
2.23100,-49.12333536
2.23150,-41.18828076
2.23200,-34.16880938
2.23250,-22.57142189
2.23300,-3.344174205
2.23350,17.10385111
2.23400,32.6687659
2.23450,43.35057017
2.23500,48.2336807
2.23550,41.21420932
2.23600,20.4609896
2.23650,-3.344174205
2.23700,-17.99350577
2.23750,-23.18181071
2.23800,-32.33764294
2.23850,-55.22722351
2.23900,-87.88302514
2.23950,-117.1816883
2.24000,-131.5258254
2.24050,-129.0842702
2.24100,-117.7920771
2.24150,-109.8570225
2.24200,-110.4674113
2.24250,-111.0778001
2.24300,-97.03885737
2.24350,-64.38305574
2.24400,-28.06492123
2.24450,-8.227284728
2.24500,-8.837673543
2.24550,-17.68831137
2.24600,-22.57142189
2.24650,-23.48700511
2.24700,-25.62336597
2.24750,-26.53894919
2.24800,-18.60389459
2.24850,-1.207813351
2.24900,20.4609896
2.24950,45.18173662
2.25000,73.87001094
2.25050,99.8115356
2.25100,112.3245063
2.25150,107.7465902
2.25200,96.14920271
2.25250,87.9089537
2.25300,83.33103758
2.25350,74.17520535
2.25400,53.42198563
2.25450,18.01943433
2.25500,-27.14933801
2.25550,-71.70772153
2.25600,-103.1427455
2.25650,-117.4868827
2.25700,-118.7076603
2.25750,-110.4674113
2.25800,-96.73366296
2.25850,-82.69472021
2.25900,-72.31811035
2.25950,-62.85708371
2.26000,-49.12333536
2.26050,-34.47400379
2.26100,-27.14933801
2.26150,-28.06492123
2.26200,-29.89608767
2.26250,-28.98050445
2.26300,-27.45453241
2.26350,-24.70778274
2.26400,-17.68831137
2.26450,-7.92209032
2.26500,0.01296428019
2.26550,7.337630065
2.26600,15.88307348
2.26650,18.32462874
2.26700,5.201269211
2.26750,-14.33117288
2.26800,-20.12986663
2.26850,-6.701312689
2.26900,7.337630065
2.26950,5.201269211
2.27000,-7.616895912
2.27050,-17.38311696
2.27100,-20.43506104
2.27150,-21.35064426
2.27200,-19.51947781
2.27250,-8.227284728
2.27300,14.35710144
2.27350,39.38304287
2.27400,50.98043037
2.27450,41.82459814
2.27500,18.62982315
2.27550,0.3181586879
2.27600,-2.428590981
2.27650,1.538936319
2.27700,0.6233530956
2.27750,-3.649368612
2.27800,-0.5974245352
2.27850,9.168796511
2.27900,14.35710144
2.27950,7.032435657
2.28000,-6.090923874
2.28050,-19.21428341
2.28100,-33.25322616
2.28150,-47.90255773
2.28200,-57.97397318
2.28250,-63.46747252
2.28300,-72.31811035
2.28350,-85.44146988
2.28400,-94.2921077
2.28450,-93.07133007
2.28500,-87.27263632
2.28550,-81.16874817
2.28600,-69.87655508
2.28650,-50.34411299
2.28700,-31.72725412
2.28750,-23.18181071
2.28800,-20.74025544
2.28850,-15.85714492
2.28900,-10.05845117
2.28950,-7.616895912
2.29000,-2.733785389
2.29050,16.18826789
2.29100,47.62329188
2.29150,78.75312147
2.29200,104.3894517
2.29250,129.4153931
2.29300,152.6101681
2.29350,159.9348339
2.29400,145.5906968
2.29450,123.6166994
2.29500,108.356979
2.29550,94.01284185
2.29600,66.24015075
2.29650,27.17526657
2.29700,-5.175340651
2.29750,-22.8766163
2.29800,-31.42205971
2.29850,-33.55842057
2.29900,-24.40258834
2.29950,-4.870146243
2.30000,13.13632381
2.30050,24.12332249
2.30100,36.6362932
2.30150,55.55834648
2.30200,68.37651161
2.30250,61.05184582
2.30300,39.07784847
2.30350,19.24021197
2.30400,9.779185327
2.30450,7.337630065
2.30500,6.422046842
2.30550,0.3181586879
2.30600,-17.68831137
2.30650,-43.62983602
2.30700,-55.53241792
2.30750,-39.35711431
2.30800,-8.532479135
2.30850,11.61035177
2.30900,18.01943433
2.30950,18.93501756
2.31000,10.99996296
2.31050,-17.38311696
2.31100,-57.36358437
2.31150,-85.74666428
2.31200,-98.87002382
2.31250,-120.2336324
2.31300,-159.9089054
2.31350,-193.7854846
2.31400,-192.2595126
2.31450,-157.7725445
2.31500,-117.7920771
2.31550,-92.76613566
2.31600,-82.99991461
2.31650,-74.75966561
2.31700,-56.14280674
2.31750,-27.14933801
2.31800,-0.9026189429
2.31850,11.61035177
2.31900,14.35710144
2.31950,16.18826789
2.32000,15.57787907
2.32050,9.168796511
2.32100,8.863602104
2.32150,31.44798827
2.32200,69.29209483
2.32250,94.62323067
2.32300,93.40245304
2.32350,79.36351028
2.32400,69.29209483
2.32450,67.46092838
2.32500,74.48039976
2.32550,94.01284185
2.32600,119.3439777
2.32650,132.4673372
2.32700,127.2790323
2.32750,115.9868392
2.32800,107.7465902
2.32850,92.48686981
2.32900,61.96742904
2.32950,29.61682183
2.33000,12.22074059
2.33050,10.08437973
2.33100,10.99996296
2.33150,8.863602104
2.33200,4.896074803
2.33250,-0.2922301275
2.33300,-7.616895912
2.33350,-11.88961762
2.33400,-11.2792288
2.33450,-10.9740344
2.33500,-12.80520084
2.33550,-8.532479135
2.33600,7.94801888
2.33650,29.00643301
2.33700,40.6038205
2.33750,40.90901491
2.33800,37.85707084
2.33850,40.2986261
2.33900,50.37004155
2.33950,65.01937312
2.34000,73.25962213
2.34050,66.85053957
2.34100,53.72718004
2.34150,52.5064024
2.34200,67.76612279
2.34250,79.66870469
2.34300,70.20767805
2.34350,43.65576458
2.34400,14.35710144
2.34450,-19.82467222
2.34500,-65.90902778
2.34550,-112.6037722
2.34600,-138.8504912
2.34650,-140.0712689
2.34700,-133.6621863
2.34750,-130.9154366
2.34800,-124.8115485
2.34850,-105.2791064
2.34900,-77.20122087
2.34950,-52.78566825
2.35000,-35.69478142
2.35050,-23.18181071
2.35100,-13.11039525
2.35150,-6.090923874
2.35200,-0.5974245352
2.35250,7.642824473
2.35300,19.85060078
2.35350,32.05837709
2.35400,38.77265406
2.35450,37.55187643
2.35500,28.7012386
2.35550,18.32462874
2.35600,13.13632381
2.35650,14.05190703
2.35700,14.05190703
2.35750,6.422046842
2.35800,-5.785729466
2.35850,-12.19481203
2.35900,-3.95456302
2.35950,14.05190703
2.36000,26.56487775
2.36050,24.4285169
2.36100,18.32462874
2.36150,24.12332249
2.36200,40.6038205
2.36250,50.37004155
2.36300,43.65576458
2.36350,30.22721064
2.36400,24.4285169
2.36450,25.03890571
2.36500,22.59735045
2.36550,14.96749026
2.36600,6.72724125
2.36650,-2.733785389
2.36700,-18.909089
2.36750,-37.52594787
2.36800,-46.98697451
2.36850,-43.01944721
2.36900,-33.55842057
2.36950,-26.8441436
2.37000,-24.70778274
2.37050,-26.53894919
2.37100,-32.03244853
2.37150,-35.99997583
2.37200,-31.72725412
2.37250,-19.21428341
2.37300,-7.311701505
2.37350,-0.9026189429
2.37400,6.72724125
2.37450,25.95448893
2.37500,54.33756885
2.37550,78.44792706
2.37600,86.38298166
2.37650,81.49987114
2.37700,76.61676061
2.37750,79.66870469
2.37800,85.46739844
2.37850,83.33103758
2.37900,67.15573397
2.37950,40.2986261
2.38000,7.642824473
2.38050,-27.14933801
2.38100,-58.88955641
2.38150,-81.16874817
2.38200,-95.20769092
2.38250,-109.5518281
2.38300,-123.5907708
2.38350,-124.8115485
2.38400,-102.2271623
2.38450,-65.29863897
2.38500,-32.64283734
2.38550,-12.50000644
2.38600,0.01296428019
2.38650,8.558407696
2.38700,10.08437973
2.38750,3.370102765
2.38800,-4.564951835
2.38850,-8.227284728
2.38900,-8.227284728
2.38950,-9.753256766
2.39000,-13.11039525
2.39050,-14.33117288
2.39100,-11.58442321
2.39150,-7.616895912
2.39200,-5.480535058
2.39250,-4.564951835
2.39300,-2.428590981
2.39350,-1.818202166
2.39400,-7.006507097
2.39450,-15.85714492
2.39500,-19.82467222
2.39550,-14.02597847
2.39600,-7.92209032
2.39650,-12.80520084
2.39700,-25.62336597
2.39750,-28.67531004
2.39800,-8.227284728
2.39850,27.48046097
2.39900,58.91548497
2.39950,68.68170601
2.40000,54.64276326
2.40050,27.78565538
2.40100,3.675297173
2.40150,-8.837673543
2.40200,-17.99350577
2.40250,-34.16880938
2.40300,-54.00644588
2.40350,-60.72072285
2.40400,-45.76619688
2.40450,-23.18181071
2.40500,-12.50000644
2.40550,-12.19481203
2.40600,-5.480535058
2.40650,11.91554618
2.40700,24.12332249
2.40750,15.88307348
2.40800,-4.870146243
2.40850,-19.82467222
2.40900,-24.09739393
2.40950,-28.67531004
2.41000,-40.27269754
2.41050,-51.87008503
2.41100,-53.39605707
2.41150,-44.54541924
2.41200,-30.8116709
2.41250,-16.46753374
2.41300,-3.649368612
2.41350,5.506463619
2.41400,11.61035177
2.41450,15.88307348
2.41500,14.35710144
2.41550,2.75971395
2.41600,-16.16233933
2.41650,-32.03244853
2.41700,-40.27269754
2.41750,-47.29216891
2.41800,-57.05838996
2.41850,-61.94150048
2.41900,-53.09086266
2.41950,-37.22075346
2.42000,-26.53894919
2.42050,-20.43506104
2.42100,-10.66883999
2.42150,1.538936319
2.42200,8.863602104
2.42250,18.32462874
2.42300,47.31809747
2.42350,94.92842508
2.42400,132.4673372
2.42450,135.5192813
2.42500,113.2400895
2.42550,89.74012014
2.42600,69.29209483
2.42650,43.35057017
2.42700,16.7986567
2.42750,0.9285475033
2.42800,-11.58442321
2.42850,-39.96750313
2.42900,-75.37005442
2.42950,-79.94797054
2.43000,-42.7142528
2.43050,-3.649368612
2.43100,-2.428590981
2.43150,-22.57142189
2.43200,-17.38311696
2.43250,22.59735045
2.43300,58.61029056
2.43350,60.1362626
2.43400,40.90901491
2.43450,34.80512676
2.43500,49.45445833
2.43550,67.15573397
2.43600,70.81806687
2.43650,63.18820667
2.43700,54.64276326
2.43750,49.14926392
2.43800,42.12979254
2.43850,29.92201623
2.43900,16.18826789
2.43950,3.064908357
2.44000,-14.33117288
2.44050,-43.93503043
2.44100,-78.72719291
2.44150,-103.4479399
2.44200,-112.6037722
2.44250,-113.214161
2.44300,-107.7206616
2.44350,-82.99991461
2.44400,-32.94803175
2.44450,24.12332249
2.44500,59.83106819
2.44550,63.18820667
2.44600,45.48693103
2.44650,21.98696163
2.44700,2.75971395
2.44750,-4.259757428
2.44800,1.844130726
2.44850,15.88307348
2.44900,28.3960442
2.44950,39.99343169
2.45000,57.38951293
2.45050,78.14273265
2.45100,88.21414811
2.45150,82.41545436
2.45200,70.51287246
2.45250,65.01937312
2.45300,63.79859549
2.45350,55.25315207
2.45400,35.11032117
2.45450,12.8311294
2.45500,-1.513007758
2.45550,-10.36364558
2.45600,-24.70778274
2.45650,-51.87008503
2.45700,-85.74666428
2.45750,-114.1297442
2.45800,-126.6427149
2.45850,-121.1492156
2.45900,-99.48041263
2.45950,-65.60383338
2.46000,-26.8441436
2.46050,3.98049158
2.46100,18.01943433
2.46150,18.93501756
2.46200,18.62982315
2.46250,21.68176723
2.46300,22.90254486
2.46350,21.37657282
2.46400,24.7337113
2.46450,37.24668202
2.46500,47.31809747
2.46550,41.21420932
2.46600,22.59735045
2.46650,4.590880396
2.46700,-11.2792288
2.46750,-31.72725412
2.46800,-52.78566825
2.46850,-59.49994522
2.46900,-46.37658569
2.46950,-25.31817156
2.47000,-8.837673543
2.47050,3.064908357
2.47100,12.525935
2.47150,12.525935
2.47200,1.233741911
2.47250,-8.837673543
2.47300,-3.038979797
2.47350,14.66229585
2.47400,29.92201623
2.47450,35.11032117
2.47500,36.6362932
2.47550,39.99343169
2.47600,40.6038205
2.47650,33.88954354
2.47700,25.64929453
2.47750,26.25968334
2.47800,35.72070998
2.47850,41.21420932
2.47900,35.41551557
2.47950,26.87007216
2.48000,27.17526657
2.48050,34.19473794
2.48100,34.49993235
2.48150,23.81812808
2.48200,11.30515737
2.48250,6.72724125
2.48300,7.032435657
2.48350,7.337630065
2.48400,10.08437973
2.48450,18.93501756
2.48500,29.61682183
2.48550,32.97396031
2.48600,25.34410012
2.48650,13.44151822
2.48700,8.253213288
2.48750,13.13632381
2.48800,20.766184
2.48850,20.15579519
2.48900,8.863602104
2.48950,-2.428590981
2.49000,-3.344174205
2.49050,1.538936319
2.49100,-1.818202166
2.49150,-21.35064426
2.49200,-45.76619688
2.49250,-59.49994522
2.49300,-58.88955641
2.49350,-56.14280674
2.49400,-61.02591726
2.49450,-69.26616627
2.49500,-66.82461101
2.49550,-43.93503043
2.49600,-6.090923874
2.49650,30.83759946
2.49700,54.33756885
2.49750,59.52587378
2.49800,50.37004155
2.49850,36.3310988
2.49900,24.4285169
2.49950,12.22074059
2.50000,-9.142867951
2.50050,-41.79866957
2.50100,-75.06486001
2.50150,-98.259635
2.50200,-110.4674113
2.50250,-112.9089666
2.50300,-98.56482941
2.50350,-63.46747252
2.50400,-21.65583867
2.50450,6.72724125
2.50500,18.93501756
2.50550,26.87007216
2.50600,36.02590439
2.50650,40.6038205
2.50700,39.99343169
2.50750,41.21420932
2.50800,45.48693103
2.50850,48.84406951
2.50900,55.55834648
2.50950,76.0063718
2.51000,101.9478965
2.51050,105.6102293
2.51100,75.09078857
2.51150,35.41551557
2.51200,17.10385111
2.51250,21.68176723
2.51300,32.05837709
2.51350,40.2986261
2.51400,49.14926392
2.51450,53.11679122
2.51500,41.82459814
2.51550,23.81812808
2.51600,23.81812808
2.51650,51.89601359
2.51700,87.60375929
2.51750,101.3375076
2.51800,85.46739844
2.51850,53.42198563
2.51900,21.98696163
2.51950,-1.818202166
2.52000,-20.12986663
2.52050,-34.16880938
2.52100,-43.62983602
2.52150,-44.24022484
2.52200,-32.33764294
2.52250,-14.02597847
2.52300,-2.428590981
2.52350,-6.396118282
2.52400,-17.99350577
2.52450,-24.40258834
2.52500,-24.40258834
2.52550,-27.75972682
2.52600,-33.55842057
2.52650,-21.04544985
2.52700,22.90254486
2.52750,81.49987114
2.52800,120.5647553
2.52850,127.8894211
2.52900,118.1232001
2.52950,110.1881455
2.53000,104.6946461
2.53050,94.31803626
2.53100,79.05831587
2.53150,63.79859549
2.53200,49.75965274
2.53250,34.80512676
2.53300,20.15579519
2.53350,7.032435657
2.53400,-6.090923874
2.53450,-21.35064426
2.53500,-34.7791982
2.53550,-42.10386398
2.53600,-44.85061365
2.53650,-44.85061365
2.53700,-40.27269754
2.53750,-29.89608767
2.53800,-18.60389459
2.53850,-11.2792288
2.53900,-8.837673543
2.53950,-9.142867951
2.54000,-11.58442321
2.54050,-15.55195051
2.54100,-18.29870018
2.54150,-19.51947781
2.54200,-23.48700511
2.54250,-32.03244853
2.54300,-40.88308635
2.54350,-42.40905839
2.54400,-34.7791982
2.54450,-22.57142189
2.54500,-10.05845117
2.54550,-1.513007758
2.54600,0.3181586879
2.54650,-5.785729466
2.54700,-14.63636729
2.54750,-17.38311696
2.54800,-9.448062359
2.54850,7.94801888
2.54900,27.78565538
2.54950,38.16226524
2.55000,35.11032117
2.55050,25.95448893
2.55100,25.03890571
2.55150,33.88954354
2.55200,40.6038205
2.55250,36.3310988
2.55300,26.87007216
2.55350,21.98696163
2.55400,22.29215604
2.55450,21.37657282
2.55500,16.4934623
2.55550,8.558407696
2.55600,-0.2922301275
2.55650,-7.616895912
2.55700,-6.701312689
2.55750,1.844130726
2.55800,10.08437973
2.55850,11.30515737
2.55900,8.558407696
2.55950,8.253213288
2.56000,7.337630065
2.56050,0.01296428019
2.56100,-14.9415617
2.56150,-30.8116709
2.56200,-42.10386398
2.56250,-47.29216891
2.56300,-47.29216891
2.56350,-42.7142528
2.56400,-36.91555905
2.56450,-34.47400379
2.56500,-39.66230872
2.56550,-50.03891858
2.56600,-52.78566825
2.56650,-33.55842057
2.56700,3.370102765
2.56750,33.88954354
2.56800,41.82459814
2.56850,39.07784847
2.56900,41.82459814
2.56950,39.07784847
2.57000,8.863602104
2.57050,-40.57789194
2.57100,-74.4544712
2.57150,-76.28563765
2.57200,-68.96097186
2.57250,-75.98044324
2.57300,-90.93496921
2.57350,-96.12327415
2.57400,-88.18821955
2.57450,-73.84408238
2.57500,-59.49994522
2.57550,-54.31164029
2.57600,-67.12980541
2.57650,-89.71419158
2.57700,-96.73366296
2.57750,-75.67524883
2.57800,-41.79866957
2.57850,-11.88961762
2.57900,14.35710144
2.57950,44.87654221
2.58000,73.56481654
2.58050,90.65570337
2.58100,97.36998034
2.58150,97.67517474
2.58200,89.43492574
2.58250,69.59728924
2.58300,37.85707084
2.58350,-2.428590981
2.58400,-43.01944721
2.58450,-64.38305574
2.58500,-60.11033404
2.58550,-50.95450181
2.58600,-65.29863897
2.58650,-94.90249651
2.58700,-105.2791064
2.58750,-86.66224751
2.58800,-68.96097186
2.58850,-74.14927679
2.58900,-86.96744191
2.58950,-84.22069225
2.59000,-68.04538864
2.59050,-52.78566825
2.59100,-41.18828076
2.59150,-31.72725412
2.59200,-31.72725412
2.59250,-41.49347517
2.59300,-42.40905839
2.59350,-18.909089
2.59400,18.62982315
2.59450,48.84406951
2.59500,64.40898431
2.59550,69.29209483
2.59600,62.88301227
2.59650,43.96095899
2.59700,22.29215604
2.59750,9.779185327
2.59800,9.779185327
2.59850,19.54540637
2.59900,38.77265406
2.59950,61.05184582
2.60000,71.12326127
2.60050,60.74665141
2.60100,39.99343169
2.60150,18.62982315
2.60200,-8.837673543
2.60250,-49.42852977
2.60300,-86.05185869
2.60350,-96.42846855
2.60400,-81.16874817
2.60450,-60.41552844
2.60500,-45.46100247
2.60550,-32.64283734
2.60600,-20.43506104
2.60650,-14.63636729
2.60700,-13.11039525
2.60750,-6.396118282
2.60800,2.75971395
2.60850,0.01296428019
2.60900,-14.63636729
2.60950,-20.43506104
2.61000,-6.701312689
2.61050,7.337630065
2.61100,0.3181586879
2.61150,-20.12986663
2.61200,-30.20128208
2.61250,-21.65583867
2.61300,-10.9740344
2.61350,-10.36364558
2.61400,-13.41558966
2.61450,-6.701312689
2.61500,11.91554618
2.61550,34.49993235
2.61600,54.64276326
2.61650,72.0388445
2.61700,87.60375929
2.61750,100.11673
2.61800,105.3050349
2.61850,96.75959152
2.61900,75.39598298
2.61950,52.201208
2.62000,39.68823728
2.62050,38.77265406
2.62100,36.94148761
2.62150,24.4285169
2.62200,5.201269211
2.62250,-11.2792288
2.62300,-20.12986663
2.62350,-22.26622748
2.62400,-20.43506104
2.62450,-18.60389459
2.62500,-21.65583867
2.62550,-28.98050445
2.62600,-34.16880938
2.62650,-32.33764294
2.62700,-22.26622748
2.62750,-3.649368612
2.62800,19.24021197
2.62850,34.49993235
2.62900,27.78565538
2.62950,5.201269211
2.63000,-9.448062359
2.63050,-6.396118282
2.63100,-1.818202166
2.63150,-9.448062359
2.63200,-14.9415617
2.63250,1.844130726
2.63300,31.14279387
2.63350,38.46745965
2.63400,14.35710144
2.63450,-14.33117288
2.63500,-22.8766163
2.63550,-15.85714492
2.63600,-12.80520084
2.63650,-18.29870018
2.63700,-25.31817156
2.63750,-27.75972682
2.63800,-24.09739393
2.63850,-12.80520084
2.63900,1.233741911
2.63950,6.422046842
2.64000,-2.123396574
2.64050,-12.80520084
2.64100,-10.05845117
2.64150,1.233741911
2.64200,3.064908357
2.64250,-11.2792288
2.64300,-28.67531004
2.64350,-32.33764294
2.64400,-21.35064426
2.64450,-9.753256766
2.64500,-9.448062359
2.64550,-16.77272814
2.64600,-14.63636729
2.64650,10.08437973
2.64700,51.28562477
2.64750,86.38298166
2.64800,100.4219244
2.64850,101.0323132
2.64900,104.6946461
2.64950,111.4089231
2.65000,106.5258126
2.65050,80.27909351
2.65100,45.48693103
2.65150,21.37657282
2.65200,12.22074059
2.65250,6.72724125
2.65300,-1.207813351
2.65350,-5.785729466
2.65400,-3.95456302
2.65450,-7.006507097
2.65500,-28.67531004
2.65550,-63.16227811
2.65600,-90.3245804
2.65650,-100.0908014
2.65700,-100.3959959
2.65750,-98.56482941
2.65800,-91.85055244
2.65850,-78.4219985
2.65900,-61.63630608
2.65950,-39.35711431
2.66000,0.3181586879
2.66050,56.77912411
2.66100,106.2206182
2.66150,119.6491721
2.66200,97.06478593
2.66250,64.40898431
2.66300,46.70770866
2.66350,52.5064024
2.66400,74.78559417
2.66450,94.01284185
2.66500,89.43492574
2.66550,57.38951293
2.66600,17.71423993
2.66650,-9.753256766
2.66700,-32.03244853
2.66750,-64.07786134
2.66800,-101.0063847
2.66850,-125.4219373
2.66900,-135.4933527
2.66950,-141.5972409
2.67000,-140.9868521
2.67050,-116.2661051
2.67100,-69.26616627
2.67150,-29.59089327
2.67200,-17.38311696
2.67250,-18.60389459
2.67300,-7.311701505
2.67350,18.93501756
2.67400,41.82459814
2.67450,47.62329188
2.67500,42.43498695
2.67550,41.82459814
2.67600,53.72718004
2.67650,70.20767805
2.67700,77.83753824
2.67750,72.95442772
2.67800,67.46092838
2.67850,72.64923331
2.67900,81.49987114
2.67950,78.75312147
2.68000,60.74665141
2.68050,35.72070998
2.68100,9.168796511
2.68150,-19.21428341
2.68200,-47.29216891
2.68250,-68.65577745
2.68300,-83.91549784
2.68350,-97.34405178
2.68400,-106.1946896
2.68450,-103.4479399
2.68500,-93.68171888
2.68550,-88.49341395
2.68600,-86.96744191
2.68650,-75.06486001
2.68700,-49.73372418
2.68750,-27.14933801
2.68800,-18.909089
2.68850,-16.77272814
2.68900,-7.616895912
2.68950,7.032435657
2.69000,18.32462874
2.69050,23.81812808
2.69100,29.00643301
2.69150,32.3635715
2.69200,25.95448893
2.69250,9.473990919
2.69300,-5.175340651
2.69350,-7.616895912
2.69400,3.064908357
2.69450,19.24021197
2.69500,34.19473794
2.69550,42.43498695
2.69600,41.21420932
2.69650,29.92201623
2.69700,14.35710144
2.69750,2.75971395
2.69800,-1.207813351
2.69850,-2.733785389
2.69900,-10.9740344
2.69950,-30.50647649
2.70000,-57.97397318
2.70050,-83.91549784
2.70100,-99.48041263
2.70150,-103.4479399
2.70200,-103.1427455
2.70250,-103.7531343
2.70300,-101.9219679
2.70350,-88.18821955
2.70400,-61.63630608
2.70450,-32.03244853
2.70500,-9.142867951
2.70550,5.201269211
2.70600,13.74671263
2.70650,14.35710144
2.70700,4.285685988
2.70750,-10.9740344
2.70800,-21.65583867
2.70850,-22.57142189
2.70900,-18.60389459
2.70950,-17.68831137
2.71000,-20.12986663
2.71050,-21.96103307
2.71100,-19.51947781
2.71150,-13.11039525
2.71200,-5.175340651
2.71250,2.149325134
2.71300,10.99996296
2.71350,24.4285169
2.71400,40.90901491
2.71450,51.89601359
2.71500,51.59081918
2.71550,44.2661534
2.71600,39.07784847
2.71650,38.46745965
2.71700,39.07784847
2.71750,39.99343169
2.71800,43.04537577
2.71850,47.62329188
2.71900,47.01290307
2.71950,38.46745965
2.72000,23.81812808
2.72050,5.506463619
2.72100,-17.38311696
2.72150,-40.88308635
2.72200,-53.09086266
2.72250,-49.12333536
2.72300,-39.66230872
2.72350,-38.13633668
2.72400,-39.66230872
2.72450,-29.89608767
2.72500,-10.05845117
2.72550,3.064908357
2.72600,1.844130726
2.72650,-2.123396574
2.72700,0.9285475033
2.72750,1.844130726
2.72800,-13.72078407
2.72850,-38.7467255
2.72900,-50.6493074
2.72950,-39.96750313
2.73000,-19.82467222
2.73050,-5.785729466
2.73100,-0.9026189429
2.73150,0.3181586879
2.73200,1.538936319
2.73250,3.064908357
2.73300,7.337630065
2.73350,16.4934623
2.73400,25.34410012
2.73450,24.12332249
2.73500,8.558407696
2.73550,-14.9415617
2.73600,-35.99997583
2.73650,-48.20775214
2.73700,-53.09086266
2.73750,-50.34411299
2.73800,-36.61036464
2.73850,-9.448062359
2.73900,25.34410012
2.73950,61.96742904
2.74000,97.36998034
2.74050,126.6686435
2.74100,138.266031
2.74150,124.2270882
2.74200,90.96089778
2.74250,54.03237444
2.74300,23.51293367
2.74350,-1.207813351
2.74400,-18.60389459
2.74450,-19.51947781
2.74500,1.844130726
2.74550,39.68823728
2.74600,74.48039976
2.74650,86.68817607
2.74700,68.68170601
2.74750,30.53240505
2.74800,-7.311701505
2.74850,-33.55842057
2.74900,-50.6493074
2.74950,-63.46747252
2.75000,-71.40252712
2.75050,-71.40252712
2.75100,-68.96097186
2.75150,-69.87655508
2.75200,-72.01291594
2.75250,-68.65577745
2.75300,-57.97397318
2.75350,-42.10386398
2.75400,-24.70778274
2.75450,-10.05845117
2.75500,-2.123396574
2.75550,2.75971395
2.75600,18.01943433
2.75650,46.40251425
2.75700,72.95442772
2.75750,80.58428791
2.75800,75.39598298
2.75850,75.39598298
2.75900,83.9414264
2.75950,87.60375929
2.76000,79.05831587
2.76050,67.46092838
2.76100,59.22067937
2.76150,48.5388751
2.76200,30.83759946
2.76250,11.30515737
2.76300,-4.564951835
2.76350,-24.09739393
2.76400,-55.22722351
2.76450,-91.24016362
2.76500,-120.2336324
2.76550,-141.5972409
2.76600,-163.5712382
2.76650,-188.2919853
2.76700,-204.4672889
2.76750,-202.330928
2.76800,-180.6621251
2.76850,-142.8180185
2.76900,-93.98691329
2.76950,-43.93503043
2.77000,-4.870146243
2.77050,21.07137841
2.77100,44.5713478
2.77150,71.42845568
2.77200,92.18167541
2.77250,91.876481
2.77300,71.12326127
2.77350,43.65576458
2.77400,19.85060078
2.77450,0.9285475033
2.77500,-15.55195051
2.77550,-25.62336597
2.77600,-24.40258834
2.77650,-14.63636729
2.77700,-3.95456302
2.77750,1.844130726
2.77800,3.98049158
2.77850,3.675297173
2.77900,0.6233530956
2.77950,-6.701312689
2.78000,-18.29870018
2.78050,-31.72725412
2.78100,-44.85061365
2.78150,-56.14280674
2.78200,-63.77266693
2.78250,-65.90902778
2.78300,-61.33111167
2.78350,-52.78566825
2.78400,-43.62983602
2.78450,-35.08439261
2.78500,-25.31817156
2.78550,-14.33117288
2.78600,-3.649368612
2.78650,7.032435657
2.78700,19.85060078
2.78750,35.41551557
2.78800,48.84406951
2.78850,56.4739297
2.78900,60.1362626
2.78950,64.1037899
2.79000,68.98690042
2.79050,70.20767805
2.79100,65.32456753
2.79150,54.03237444
2.79200,39.07784847
2.79250,24.7337113
2.79300,14.35710144
2.79350,6.116852434
2.79400,-5.175340651
2.79450,-21.96103307
2.79500,-38.13633668
2.79550,-48.81814095
2.79600,-55.53241792
2.79650,-63.46747252
2.79700,-70.4869439
2.79750,-70.4869439
2.79800,-62.5518893
2.79850,-49.73372418
2.79900,-33.25322616
2.79950,-11.2792288
2.80000,11.61035177
2.80050,26.56487775
2.80100,28.09084979
2.80150,23.20773927
2.80200,22.29215604
2.80250,29.00643301
2.80300,39.68823728
2.80350,47.92848629
2.80400,49.14926392
2.80450,46.09731984
2.80500,46.09731984
2.80550,51.28562477
2.80600,55.25315207
2.80650,52.81159681
2.80700,48.2336807
2.80750,50.37004155
2.80800,55.55834648
2.80850,54.94795767
2.80900,49.14926392
2.80950,50.06484714
2.81000,61.66223464
2.81050,74.17520535
2.81100,76.31156621
2.81150,65.62976194
2.81200,42.43498695
2.81250,10.69476855
2.81300,-16.46753374
2.81350,-22.8766163
2.81400,-8.227284728
2.81450,10.38957414
2.81500,21.68176723
2.81550,30.83759946
2.81600,42.74018136
2.81650,47.92848629
2.81700,37.24668202
2.81750,16.7986567
2.81800,-0.2922301275
2.81850,-11.88961762
2.81900,-20.43506104
2.81950,-22.26622748
2.82000,-12.80520084
2.82050,-1.818202166
2.82100,-5.480535058
2.82150,-27.75972682
2.82200,-57.66877878
2.82250,-84.52588665
2.82300,-103.1427455
2.82350,-106.499884
2.82400,-91.54535803
2.82450,-68.65577745
2.82500,-53.09086266
2.82550,-45.76619688
2.82600,-28.06492123
2.82650,12.525935
2.82700,64.40898431
2.82750,102.8634797
2.82800,117.8180057
2.82850,120.8699497
2.82900,125.1426714
2.82950,130.025782
2.83000,130.3309764
2.83050,128.8050043
2.83100,131.551754
2.83150,134.2985037
2.83200,125.7530603
2.83250,105.6102293
2.83300,84.55181521
2.83350,69.29209483
2.83400,51.59081918
2.83450,23.81812808
2.83500,-12.50000644
2.83550,-50.34411299
2.83600,-84.22069225
2.83650,-110.7726057
2.83700,-125.4219373
2.83750,-127.2531037
2.83800,-122.6751876
2.83850,-119.3180491
2.83900,-116.2661051
2.83950,-110.1622169
2.84000,-101.6167735
2.84050,-92.76613566
2.84100,-80.55835935
2.84150,-61.33111167
2.84200,-38.13633668
2.84250,-16.16233933
2.84300,0.6233530956
2.84350,14.35710144
2.84400,25.03890571
2.84450,35.11032117
2.84500,48.84406951
2.84550,66.24015075
2.84600,83.63623199
2.84650,99.20114678
2.84700,115.6816448
2.84750,131.551754
2.84800,137.9608366
2.84850,127.8894211
2.84900,107.7465902
2.84950,93.40245304
2.85000,92.79206422
2.85050,100.7271188
2.85100,107.4413958
2.85150,109.2725622
2.85200,108.6621734
2.85250,108.9673678
2.85300,109.8829511
2.85350,105.9154238
2.85400,92.48686981
2.85450,72.0388445
2.85500,50.37004155
2.85550,29.92201623
2.85600,8.558407696
2.85650,-14.33117288
2.85700,-35.08439261
2.85750,-50.6493074
2.85800,-60.11033404
2.85850,-64.68825015
2.85900,-63.46747252
2.85950,-57.36358437
2.86000,-48.81814095
2.86050,-41.18828076
2.86100,-35.69478142
2.86150,-31.72725412
2.86200,-27.14933801
2.86250,-20.43506104
2.86300,-11.88961762
2.86350,-4.259757428
2.86400,-1.513007758
2.86450,-2.733785389
2.86500,-2.428590981
2.86550,4.590880396
2.86600,18.62982315
2.86650,33.88954354
2.86700,45.48693103
2.86750,53.72718004
2.86800,62.27262345
2.86850,70.51287246
2.86900,72.0388445
2.86950,62.27262345
2.87000,45.79212544
2.87050,27.48046097
2.87100,2.149325134
2.87150,-35.38958701
2.87200,-75.67524883
2.87250,-97.64924618
2.87300,-93.68171888
2.87350,-79.94797054
2.87400,-74.14927679
2.87450,-72.62330475
2.87500,-60.72072285
2.87550,-34.7791982
2.87600,-7.006507097
2.87650,8.863602104
2.87700,13.44151822
2.87750,15.27268467
2.87800,20.766184
2.87850,31.14279387
2.87900,41.82459814
2.87950,49.14926392
2.88000,53.72718004
2.88050,55.86354089
2.88100,54.94795767
2.88150,48.84406951
2.88200,37.24668202
2.88250,20.766184
2.88300,1.233741911
2.88350,-16.16233933
2.88400,-25.92856037
2.88450,-26.8441436
2.88500,-25.92856037
2.88550,-27.45453241
2.88600,-28.67531004
2.88650,-29.28569886
2.88700,-36.30517024
2.88750,-49.42852977
2.88800,-56.14280674
2.88850,-48.51294654
2.88900,-34.16880938
2.88950,-21.04544985
2.89000,-3.344174205
2.89050,21.68176723
2.89100,37.55187643
2.89150,31.14279387
2.89200,21.68176723
2.89250,41.21420932
2.89300,86.99337048
2.89350,123.9218938
2.89400,130.9413652
2.89450,123.311505
2.89500,121.785533
2.89550,122.0907274
2.89600,109.2725622
2.89650,81.49987114
2.89700,48.84406951
2.89750,19.54540637
2.89800,-1.818202166
2.89850,-13.72078407
2.89900,-23.18181071
2.89950,-42.7142528
2.90000,-75.67524883
2.90050,-112.6037722
2.90100,-140.9868521
2.90150,-154.415406
2.90200,-148.3115179
2.90250,-119.0128547
2.90300,-74.14927679
2.90350,-32.33764294
2.90400,-9.753256766
2.90450,-3.344174205
2.90500,0.01296428019
2.90550,7.94801888
2.90600,17.10385111
2.90650,18.93501756
2.90700,12.525935
2.90750,7.337630065
2.90800,12.525935
2.90850,22.90254486
2.90900,23.51293367
2.90950,11.91554618
2.91000,3.370102765
2.91050,8.253213288
2.91100,14.96749026
2.91150,7.642824473
2.91200,-7.006507097
2.91250,-8.227284728
2.91300,9.779185327
2.91350,29.61682183
2.91400,36.02590439
2.91450,35.41551557
2.91500,41.51940373
2.91550,53.72718004
2.91600,61.05184582
2.91650,59.52587378
2.91700,56.77912411
2.91750,57.38951293
2.91800,54.64276326
2.91850,41.82459814
2.91900,23.20773927
2.91950,10.38957414
2.92000,7.642824473
2.92050,7.032435657
2.92100,3.370102765
2.92150,-0.9026189429
2.92200,-3.649368612
2.92250,-11.2792288
2.92300,-33.86361497
2.92350,-70.79213831
2.92400,-110.7726057
2.92450,-141.5972409
2.92500,-160.8244886
2.92550,-172.7270705
2.92600,-180.9673195
2.92650,-186.7660132
2.92700,-184.324458
2.92750,-162.655655
2.92800,-117.1816883
2.92850,-59.19475081
2.92900,-10.05845117
2.92950,18.01943433
2.93000,28.3960442
2.93050,30.53240505
2.93100,28.7012386
2.93150,24.12332249
2.93200,18.32462874
2.93250,11.30515737
2.93300,1.233741911
2.93350,-10.36364558
2.93400,-15.55195051
2.93450,-8.837673543
2.93500,8.863602104
