type,name,time_units,begin_time,frequency,count,units
signal_4d,"Noraxon MyoMotion-Segments-Forearm RT-Orientation","s",0.0000,200,5172,""

time,x,y,z,w
0.0000,0.07138195148,-0.6354995926,-0.7587448216,0.1238998808
0.0050,0.07162061032,-0.6354697028,-0.7587129085,0.1241107065
0.0100,0.07185926116,-0.6354397475,-0.7586809171,0.1243215185
0.0150,0.072097904,-0.6354097268,-0.7586488472,0.1245323168
0.0200,0.07234969755,-0.635375698,-0.7586159715,0.1247599751
0.0250,0.07261217604,-0.6353375016,-0.758582812,0.125003393
0.0300,0.07288272043,-0.635294995,-0.7585499136,0.1252613548
0.0350,0.07315866824,-0.6352480616,-0.7585178165,0.125532592
0.0400,0.07343739112,-0.6351966182,-0.7584870369,0.1258158206
0.0450,0.07371635615,-0.6351406208,-0.7584580547,0.1261097536
0.0500,0.07399318434,-0.6350800686,-0.7584313037,0.1264131033
0.0550,0.07426570433,-0.6350150098,-0.7584071614,0.126724583
0.0600,0.07453199442,-0.6349455473,-0.7583859395,0.1270429081
0.0650,0.07479040634,-0.6348718448,-0.7583678761,0.1273667943
0.0700,0.07503956471,-0.634794135,-0.7583531296,0.1276949518
0.0750,0.07527834003,-0.6347127278,-0.7583417766,0.1280260699
0.0800,0.07550580152,-0.6346280156,-0.7583338161,0.1283587902
0.0850,0.07572116387,-0.6345404748,-0.7583291798,0.1286916714
0.0900,0.07592373908,-0.634450662,-0.7583277453,0.1290231532
0.0950,0.07611289734,-0.6343592004,-0.7583293558,0.129351536
0.1000,0.07628803921,-0.6342667626,-0.758333835,0.129674992
0.1050,0.07644858836,-0.6341740543,-0.7583409951,0.129991605
0.1100,0.07659401235,-0.6340817961,-0.7583506389,0.1302994309
0.1150,0.07672386344,-0.6339907059,-0.7583625581,0.1305965698
0.1200,0.07683782473,-0.6339014863,-0.7583765273,0.130881233
0.1250,0.07693575702,-0.6338148126,-0.7583922986,0.1311517975
0.1300,0.07701774491,-0.6337313173,-0.7584096026,0.1314068455
0.1350,0.07708412907,-0.6336515767,-0.7584281497,0.1316451977
0.1400,0.07713551324,-0.6335761072,-0.7584476268,0.1318659409
0.1450,0.07717275605,-0.6335053639,-0.758467694,0.1320684553
0.1500,0.07719696805,-0.6334397287,-0.758487987,0.1322524549
0.1550,0.07742821684,-0.6333005702,-0.7584970767,0.1327307187
0.1600,0.07764484395,-0.6331666882,-0.7585063047,0.1331893724
0.1650,0.07784678098,-0.6330378644,-0.7585161821,0.1336268778
0.1700,0.07803675815,-0.6329147709,-0.7585255125,0.1340455295
0.1750,0.07821582857,-0.632797848,-0.7585336549,0.1344465029
0.1800,0.07838834919,-0.632684775,-0.7585416048,0.1348327701
0.1850,0.07855854778,-0.6325761894,-0.7585482744,0.1352051573
0.1900,0.07872780745,-0.6324718936,-0.7585533279,0.1355657955
0.1950,0.07889636595,-0.6323715994,-0.7585565869,0.1359169903
0.2000,0.07906546744,-0.6322746373,-0.7585585813,0.1362582605
0.2050,0.07923614511,-0.6321806486,-0.7585593018,0.1365907996
0.2100,0.07940966248,-0.6320902844,-0.7585579548,0.136915328
0.2150,0.07958684885,-0.6320030829,-0.7585548108,0.1372320504
0.2200,0.07976907014,-0.6319178603,-0.7585504908,0.1375422346
0.2250,0.07995746215,-0.6318354614,-0.7585436863,0.1378485764
0.2300,0.08015139981,-0.6317555924,-0.7585348815,0.1381501288
0.2350,0.080351944,-0.6316770372,-0.7585249472,0.1384470669
0.2400,0.08055694904,-0.6316015485,-0.7585123995,0.1387407715
0.2450,0.08076743006,-0.6315283944,-0.7584983169,0.1390280997
0.2500,0.08098261622,-0.631456509,-0.7584833739,0.1393106767
0.2550,0.08119979287,-0.6313871186,-0.7584671381,0.1395868926
0.2600,0.08141912446,-0.6313195738,-0.7584502897,0.1398559258
0.2650,0.08163934885,-0.6312529304,-0.7584333459,0.1401200004
0.2700,0.08185937646,-0.6311875058,-0.7584162634,0.1403785823
0.2750,0.08207838241,-0.6311230668,-0.7583993188,0.140631742
0.2800,0.08229533224,-0.6310602653,-0.7583818639,0.1408806882
0.2850,0.08251141168,-0.6309971994,-0.7583652037,0.1411262525
0.2900,0.08272671674,-0.6309333939,-0.7583497642,0.141368235
0.2950,0.08294225686,-0.6308695288,-0.7583349411,0.141606274
0.3000,0.08315530004,-0.6308061711,-0.7583206542,0.1418398957
0.3050,0.08336714533,-0.6307437579,-0.758306409,0.142069071
0.3100,0.08357734808,-0.630680652,-0.7582934503,0.1422947131
0.3150,0.08378406715,-0.6306179529,-0.7582811226,0.1425165489
0.3200,0.08398760576,-0.6305558817,-0.7582693747,0.1427337297
0.3250,0.08418889612,-0.6304937947,-0.7582584031,0.1429475383
0.3300,0.08438681986,-0.6304318119,-0.7582484138,0.1431570404
0.3350,0.08458160963,-0.6303685844,-0.7582406444,0.1433615163
0.3400,0.0847718362,-0.6303056241,-0.7582342191,0.1435598305
0.3450,0.08495593953,-0.6302424471,-0.7582294977,0.1437531743
0.3500,0.08513302633,-0.6301799584,-0.7582260775,0.1439402767
0.3550,0.08530416498,-0.6301185889,-0.7582233528,0.1441218604
0.3600,0.08546825196,-0.6300574634,-0.758222412,0.1442967242
0.3650,0.0856255775,-0.6299966393,-0.7582233257,0.1444641248
0.3700,0.08577562467,-0.6299361212,-0.7582258538,0.144625655
0.3750,0.0859181611,-0.6298771748,-0.7582291874,0.1447802254
0.3800,0.08605327639,-0.6298200536,-0.758232942,0.1449287388
0.3850,0.08618099809,-0.6297650093,-0.758237139,0.1450700164
0.3900,0.08630315805,-0.6297106706,-0.758242227,0.1452066164
0.3950,0.08641869239,-0.6296582133,-0.7582474956,0.1453378116
0.4000,0.08652876525,-0.6296062198,-0.7582537951,0.1454646451
0.4050,0.08663137653,-0.6295566788,-0.7582599176,0.1455860231
0.4100,0.08672901658,-0.6295090512,-0.7582657433,0.1457034477
0.4150,0.08682141397,-0.6294629016,-0.7582716535,0.1458169987
0.4200,0.0869082376,-0.6294189837,-0.7582772306,0.1459258129
0.4250,0.0869883019,-0.629377212,-0.7582824897,0.1460309084
0.4300,0.08706378804,-0.6293366028,-0.7582877219,0.146133733
0.4350,0.08713444851,-0.6292994378,-0.7582914357,0.1462323631
0.4400,0.08720129518,-0.6292624596,-0.7582960024,0.1463279324
0.4450,0.08726369679,-0.6292280254,-0.7582997819,0.1464191926
0.4500,0.08732145882,-0.6291949244,-0.7583038688,0.1465058101
0.4550,0.08737499842,-0.6291631659,-0.7583077614,0.1465901067
0.4600,0.08742501441,-0.6291334661,-0.7583111714,0.1466700921
0.4650,0.08747095495,-0.6291051517,-0.7583145303,0.1467467658
0.4700,0.08751481913,-0.6290781945,-0.7583175108,0.1468207562
0.4750,0.08755558861,-0.6290515779,-0.7583213069,0.146890867
0.4800,0.08759135768,-0.6290268271,-0.7583248145,0.1469574107
0.4850,0.08762200952,-0.6290037681,-0.7583283856,0.1470193962
0.4900,0.08764705323,-0.6289824327,-0.7583319416,0.1470773939
0.4950,0.08766625188,-0.6289627611,-0.7583355936,0.1471312371
0.5000,0.0876802868,-0.6289450649,-0.7583391378,0.147180246
0.5050,0.08768911278,-0.6289280801,-0.7583434589,0.1472252963
0.5100,0.08769328011,-0.6289127062,-0.7583479809,0.1472651907
0.5150,0.08769277732,-0.6288984876,-0.7583528286,0.1473012437
0.5200,0.08768686498,-0.6288862039,-0.7583576768,0.1473322447
0.5250,0.08767653976,-0.6288747312,-0.7583636153,0.1473567907
0.5300,0.0876616063,-0.6288649984,-0.7583696869,0.1473759637
0.5350,0.08763986402,-0.6288573211,-0.7583757266,0.1473905738
0.5400,0.08761437423,-0.6288512533,-0.7583819969,0.1473993533
0.5450,0.08758316707,-0.628846571,-0.7583886541,0.1474036239
0.5500,0.08754745671,-0.6288440855,-0.758395034,0.1474026164
0.5550,0.0875068557,-0.6288436216,-0.7584012167,0.1473968938
0.5600,0.08746167195,-0.6288451438,-0.7584073801,0.1473855045
0.5650,0.08741231139,-0.6288490527,-0.7584131713,0.1473683082
0.5700,0.08735916397,-0.6288552776,-0.7584187666,0.1473444631
0.5750,0.08730252933,-0.628862921,-0.7584243496,0.1473166688
0.5800,0.08724265562,-0.6288729025,-0.7584296432,0.1472822725
0.5850,0.08718125093,-0.6288853959,-0.7584342786,0.1472414119
0.5900,0.08711892018,-0.628899863,-0.7584384861,0.1471948332
0.5950,0.08705353347,-0.6289171238,-0.7584417265,0.1471430639
0.6000,0.08698845875,-0.6289362245,-0.7584443173,0.147086543
0.6050,0.08692076448,-0.6289570781,-0.7584467553,0.1470248073
0.6100,0.08685157055,-0.6289809933,-0.758448022,0.1469568395
0.6150,0.08678145483,-0.6290068782,-0.7584487127,0.1468838881
0.6200,0.08671128248,-0.6290363264,-0.7584472881,0.1468065554
0.6250,0.08664008068,-0.6290674305,-0.7584459076,0.1467224238
0.6300,0.08656644639,-0.629101434,-0.7584433137,0.1466334748
0.6350,0.08649141692,-0.6291384691,-0.758439307,0.146539548
0.6400,0.08641344086,-0.629178232,-0.758434509,0.1464396295
0.6450,0.08633439301,-0.6292199974,-0.7584292665,0.1463339169
0.6500,0.08625427892,-0.6292643054,-0.7584229803,0.1462231724
0.6550,0.08617134531,-0.6293102063,-0.7584167508,0.146106795
0.6600,0.08608602051,-0.6293583578,-0.7584097737,0.1459858546
0.6650,0.08599780032,-0.6294080793,-0.7584026101,0.1458606493
0.6700,0.08590633936,-0.6294605802,-0.7583944782,0.1457302105
0.6750,0.08581130008,-0.6295151999,-0.7583858847,0.1455949306
0.6800,0.08571455558,-0.6295721238,-0.7583765482,0.1454543469
0.6850,0.08561621295,-0.6296313711,-0.7583660154,0.145310658
0.6900,0.085515162,-0.6296931594,-0.7583546243,0.1451617922
0.6950,0.08541019884,-0.6297569024,-0.7583427236,0.145009156
0.7000,0.08530348637,-0.6298237194,-0.7583293359,0.1448517037
0.7050,0.08519457478,-0.6298931671,-0.7583148982,0.1446893138
0.7100,0.08508320898,-0.6299650157,-0.7582994598,0.1445228557
0.7150,0.08496987856,-0.6300400912,-0.7582825096,0.1443510958
0.7200,0.08485373603,-0.6301172407,-0.758264703,0.1441760961
0.7250,0.08473727744,-0.6301970078,-0.7582453704,0.1439975118
0.7300,0.08462103022,-0.6302797617,-0.7582241044,0.1438155438
0.7350,0.08450413178,-0.6303643396,-0.7582015555,0.143632351
0.7400,0.08438720376,-0.6304522255,-0.7581766977,0.1434464577
0.7450,0.08427028154,-0.6305418526,-0.7581505926,0.1432591035
0.7500,0.08415539497,-0.6306344098,-0.7581220372,0.1430702184
0.7550,0.0840430447,-0.6307293361,-0.7580912753,0.1428806829
0.7600,0.08393195227,-0.6308265478,-0.7580583237,0.1426915269
0.7650,0.08382515425,-0.6309246811,-0.7580238845,0.1425032659
0.7700,0.08371862517,-0.6310254268,-0.7579871106,0.1423152934
0.7750,0.08361498241,-0.6311280717,-0.7579481818,0.1421282716
0.7800,0.0835140885,-0.6312320306,-0.7579077464,0.1419414265
0.7850,0.08341463653,-0.6313380013,-0.7578651212,0.1417560743
0.7900,0.08331669775,-0.6314448885,-0.7578212587,0.1415719621
0.7950,0.08322078538,-0.6315535475,-0.7577756256,0.141387831
0.8000,0.08312557274,-0.6316639887,-0.7577282101,0.1412044766
0.8050,0.08303121582,-0.6317770816,-0.7576781982,0.1410222829
0.8100,0.08293675359,-0.6318922265,-0.7576261025,0.140841747
0.8150,0.0828414561,-0.6320088759,-0.7575727056,0.1406615432
0.8200,0.08274560413,-0.6321265989,-0.7575182562,0.1404820963
0.8250,0.08264685265,-0.6322462001,-0.7574624597,0.1403027525
0.8300,0.08254603246,-0.6323669293,-0.7574058214,0.1401236635
0.8350,0.08244293454,-0.6324893195,-0.7573482226,0.1399431774
0.8400,0.08233737281,-0.6326125388,-0.7572899359,0.1397636783
0.8450,0.08223039072,-0.6327372358,-0.7572306116,0.1395835024
0.8500,0.08212161265,-0.6328641563,-0.7571696471,0.1394027473
0.8550,0.082013263,-0.6329908035,-0.7571085753,0.1392231037
0.8600,0.08190419161,-0.6331190513,-0.7570460017,0.1390443148
0.8650,0.08179459805,-0.6332475649,-0.7569829825,0.138866589
0.8700,0.08168423027,-0.6333765427,-0.7569194117,0.1386897467
0.8750,0.08157197145,-0.6335067601,-0.75685482,0.1385134646
0.8800,0.08145817474,-0.6336364162,-0.7567906995,0.1383376125
0.8850,0.08134080448,-0.6337647108,-0.7567277199,0.1381633919
0.8900,0.08121858758,-0.6338933288,-0.7566647686,0.1379899154
0.8950,0.0810911641,-0.6340206953,-0.7566033272,0.1378164953
0.9000,0.08095578038,-0.6341471655,-0.7565433894,0.1376431403
0.9050,0.08081526305,-0.634272768,-0.7564846394,0.1374697764
0.9100,0.08066585735,-0.6343966212,-0.7564280177,0.137297489
0.9150,0.08050678754,-0.6345186743,-0.7563740125,0.1371242587
0.9200,0.08033587517,-0.6346376402,-0.7563240083,0.1369496526
0.9250,0.0801515622,-0.6347541695,-0.7562774911,0.1367743684
0.9300,0.07995243239,-0.63486768,-0.7562351677,0.1365979817
0.9350,0.07973765524,-0.6349781321,-0.7561974179,0.1364189987
0.9400,0.07950658549,-0.6350844057,-0.7561648066,0.1362398098
0.9450,0.07925958642,-0.6351885945,-0.7561357617,0.1360590948
0.9500,0.0789961474,-0.6352885495,-0.7561119717,0.1358777162
0.9550,0.078717812,-0.6353845376,-0.7560930974,0.1356953335
0.9600,0.07842630404,-0.6354774355,-0.756077979,0.1355132225
0.9650,0.07812245383,-0.6355674395,-0.7560663824,0.1353312137
0.9700,0.0778082019,-0.6356525444,-0.7560597305,0.1351495853
0.9750,0.07748661665,-0.6357345776,-0.756055921,0.1349696835
0.9800,0.07715761085,-0.6358130756,-0.7560552935,0.1347917991
0.9850,0.07682286262,-0.6358880541,-0.7560577564,0.134615376
0.9900,0.0764845621,-0.6359598685,-0.7560626811,0.1344409896
0.9950,0.07614542159,-0.6360283078,-0.7560698701,0.1342691992
1.0000,0.07580303426,-0.636093696,-0.7560791317,0.1341009192
1.0050,0.07546014911,-0.6361553695,-0.7560905609,0.1339372071
1.0100,0.07511553029,-0.6362132964,-0.7561044111,0.1337774944
1.0150,0.0747685431,-0.6362664223,-0.7561215,0.1336225355
1.0200,0.07441758133,-0.6363148625,-0.7561418425,0.1334725943
1.0250,0.07406242847,-0.6363583232,-0.7561655529,0.133328533
1.0300,0.07370217242,-0.6363959102,-0.7561934927,0.1331902282
1.0350,0.07333665975,-0.6364270541,-0.7562262614,0.1330570579
1.0400,0.07296626533,-0.6364520833,-0.7562634733,0.1329294128
1.0450,0.07259060138,-0.6364715773,-0.7563045547,0.1328079681
1.0500,0.07220805783,-0.6364854783,-0.756350015,0.1326909458
1.0550,0.07181655677,-0.6364946722,-0.756399251,0.1325786088
1.0600,0.0714170046,-0.6364982826,-0.756453234,0.1324690624
1.0650,0.07100687436,-0.6364981091,-0.7565106191,0.1323626236
1.0700,0.07058634813,-0.6364924451,-0.756572768,0.1322595233
1.0750,0.07015378326,-0.636482005,-0.7566392277,0.1321596878
1.0800,0.06970879438,-0.6364660922,-0.7567104235,0.1320641226
1.0850,0.0692512682,-0.6364443357,-0.7567864721,0.1319738802
1.0900,0.06878242624,-0.6364160357,-0.7568677614,0.1318893445
1.0950,0.06830073713,-0.636380873,-0.7569541747,0.1318133952
1.1000,0.06780641997,-0.6363381307,-0.7570463325,0.131745676
1.1050,0.06730029646,-0.6362870726,-0.757144541,0.1316874154
1.1100,0.0667810677,-0.6362274912,-0.7572486897,0.1316407626
1.1150,0.06625047622,-0.6361588233,-0.7573590816,0.1316056511
1.1200,0.06570729532,-0.6360811376,-0.7574757311,0.1315821208
1.1250,0.06515318727,-0.6359950661,-0.7575977459,0.1315712487
1.1300,0.06458725279,-0.6358989316,-0.757726314,0.1315745748
1.1350,0.06401068275,-0.6357929577,-0.7578609806,0.1315928631
1.1400,0.06342191506,-0.6356759504,-0.7580028062,0.1316263365
1.1450,0.0628186311,-0.6355485401,-0.7581515766,0.1316740659
1.1500,0.06220125972,-0.63540752,-0.7583095792,0.1317378797
1.1550,0.06156827108,-0.6352552166,-0.7584751594,0.1318165027
1.1600,0.06092042698,-0.6350900391,-0.7586493202,0.1319111547
1.1650,0.06025874196,-0.6349134548,-0.7588307245,0.1320216667
1.1700,0.05958413533,-0.6347244109,-0.7590200912,0.1321482282
1.1750,0.05889797643,-0.6345228124,-0.7592175781,0.132289448
1.1800,0.05820150729,-0.6343098684,-0.7594217824,0.1324467129
1.1850,0.05749643722,-0.6340872221,-0.7596319731,0.1326153076
1.1900,0.05678281941,-0.6338547971,-0.7598477834,0.132797416
1.1950,0.0560637944,-0.6336127679,-0.7600692014,0.1329906781
1.2000,0.0553394723,-0.6333624969,-0.7602951766,0.1331943498
1.2050,0.05461116007,-0.6331035755,-0.7605257911,0.1334091637
1.2100,0.05388182265,-0.6328378905,-0.7607596743,0.1336325991
1.2150,0.05315146775,-0.6325652558,-0.7609968364,0.1338653565
1.2200,0.05242239972,-0.632286435,-0.7612362735,0.1341085083
1.2250,0.05169663123,-0.6320009462,-0.7614784564,0.1343607933
1.2300,0.05097590464,-0.631708334,-0.7617233244,0.1346239761
1.2350,0.05026081892,-0.631408268,-0.7619711586,0.1348977487
1.2400,0.04955568618,-0.6311008725,-0.7622212672,0.1351838105
1.2450,0.04885871258,-0.6307846718,-0.762474666,0.1354839758
1.2500,0.04817090785,-0.6304596346,-0.7627312604,0.1357985172
1.2550,0.04749410908,-0.6301248394,-0.7629915441,0.1361282485
1.2600,0.04682700759,-0.6297794261,-0.7632562379,0.1364735181
1.2650,0.04617086448,-0.6294236452,-0.7635248714,0.1368352909
1.2700,0.04552382356,-0.6290565993,-0.763798019,0.1372150227
1.2750,0.04488427074,-0.6286771201,-0.7640767006,0.1376127773
1.2800,0.04425267944,-0.6282845941,-0.7643610462,0.1380302872
1.2850,0.04362901169,-0.6278787458,-0.7646508399,0.1384697907
1.2900,0.04301267921,-0.6274584338,-0.7649467219,0.1389328465
1.2950,0.04240325582,-0.6270230324,-0.7652490912,0.1394199024
1.3000,0.04180066502,-0.6265725554,-0.7655576436,0.1399322393
1.3050,0.04120308379,-0.626105806,-0.7658734321,0.140469611
1.3100,0.04061100765,-0.6256226947,-0.7661960771,0.1410339016
1.3150,0.04002333074,-0.6251227683,-0.7665257958,0.1416257809
1.3200,0.03944017483,-0.6246061909,-0.7668624836,0.1422445437
1.3250,0.0388587803,-0.6240716151,-0.7672071192,0.1428910448
1.3300,0.03827681261,-0.6235187185,-0.767560281,0.1435636035
1.3350,0.03769111399,-0.6229480336,-0.7679215793,0.1442621759
1.3400,0.03710084516,-0.6223584659,-0.7682916141,0.1449878026
1.3450,0.03650276124,-0.6217488676,-0.7686711504,0.1457414035
1.3500,0.03589778546,-0.6211177594,-0.7690608758,0.1465245619
1.3550,0.03528435548,-0.6204640307,-0.7694615585,0.1473374044
1.3600,0.03466006534,-0.6197864535,-0.7698736474,0.1481823168
1.3650,0.03402440613,-0.6190830679,-0.7702984563,0.1490596628
1.3700,0.03337767295,-0.6183547473,-0.7707350451,0.1499694227
1.3750,0.03271828883,-0.6175988353,-0.7711852428,0.1509122705
1.3800,0.03204473376,-0.6168159732,-0.7716484541,0.1518876344
1.3850,0.03135673126,-0.6160051015,-0.7721253888,0.1528949122
1.3900,0.03065165026,-0.6151663071,-0.7726158951,0.153933653
1.3950,0.02992820822,-0.6142992258,-0.7731206468,0.1550007386
1.4000,0.02918419402,-0.6134047014,-0.773638721,0.1560963949
1.4050,0.02841680998,-0.6124819735,-0.7741707838,0.15721932
1.4100,0.02762548162,-0.6115306009,-0.7747176138,0.158365955
1.4150,0.02680798483,-0.6105500334,-0.7752792046,0.1595372797
1.4200,0.02596297352,-0.6095418239,-0.775853976,0.1607336208
1.4250,0.02508862269,-0.6085033623,-0.7764439527,0.1619537197
1.4300,0.02418551075,-0.607436271,-0.7770477015,0.1631965296
1.4350,0.02325273429,-0.606338774,-0.7776664624,0.1644611648
1.4400,0.0222893625,-0.6052116024,-0.7782994488,0.1657470018
1.4450,0.02129522087,-0.6040550669,-0.7789459906,0.1670542829
1.4500,0.02026894092,-0.6028697749,-0.7796058686,0.1683802072
1.4550,0.01920893964,-0.6016550944,-0.7802794335,0.1697238042
1.4600,0.01811455877,-0.6004122225,-0.7809655622,0.171084238
1.4650,0.01698417328,-0.5991407347,-0.7816647121,0.1724592583
1.4700,0.0158171586,-0.5978414002,-0.7823759492,0.173848646
1.4750,0.01461627732,-0.5965156975,-0.7830976707,0.1752524612
1.4800,0.01337921877,-0.5951625655,-0.7838306874,0.1766690993
1.4850,0.01210863966,-0.593782211,-0.7845739389,0.1781005365
1.4900,0.01080505753,-0.5923753737,-0.7853270043,0.1795443223
1.4950,0.009468829743,-0.5909428825,-0.7860884944,0.1810020162
1.5000,0.008100943231,-0.5894830631,-0.7868593377,0.1824732191
1.5050,0.006701292417,-0.5879982783,-0.787637755,0.1839562023
1.5100,0.005268916386,-0.5864867374,-0.788424444,0.1854519924
1.5150,0.003805070008,-0.5849501231,-0.7892180114,0.1869593685
1.5200,0.002308306969,-0.5833875179,-0.7900189146,0.188477559
1.5250,0.0007781432452,-0.5818007046,-0.7908253217,0.1900069609
1.5300,-0.0007840641856,-0.5801900728,-0.7916370983,0.1915452145
1.5350,-0.002378156167,-0.5785553665,-0.7924537215,0.1930935825
1.5400,-0.004005378293,-0.5768967356,-0.7932750124,0.1946506309
1.5450,-0.005662861403,-0.5752147106,-0.7941004991,0.1962151015
1.5500,-0.007350055451,-0.5735092768,-0.7949297178,0.197787335
1.5550,-0.009065886439,-0.571781786,-0.7957616601,0.1993659427
1.5600,-0.01080825721,-0.5700315613,-0.7965959864,0.2009528184
1.5650,-0.01257723395,-0.5682581032,-0.7974327892,0.2025474959
1.5700,-0.01436971805,-0.5664629246,-0.7982703246,0.2041513043
1.5750,-0.0161841743,-0.5646443096,-0.7991094986,0.2057641501
1.5800,-0.01801788542,-0.5628027733,-0.7999492173,0.2073876657
1.5850,-0.01987071043,-0.5609379825,-0.8007896133,0.209020884
1.5900,-0.0217413522,-0.5590508536,-0.8016296886,0.2106639484
1.5950,-0.02362825494,-0.557142037,-0.8024680574,0.2123192714
1.6000,-0.02552842859,-0.5552103577,-0.8033054821,0.213986122
1.6050,-0.02744131536,-0.5532564827,-0.804140764,0.2156661082
1.6100,-0.02936519755,-0.5512807104,-0.8049734714,0.2173590898
1.6150,-0.03129986503,-0.5492835486,-0.8058027187,0.2190659266
1.6200,-0.03324074781,-0.5472650178,-0.8066282782,0.2207869421
1.6250,-0.03518694161,-0.5452250188,-0.8074500389,0.2225218927
1.6300,-0.03713573722,-0.5431645263,-0.8082665735,0.2242730045
1.6350,-0.03908305819,-0.5410829428,-0.8090779774,0.2260411248
1.6400,-0.04102854177,-0.5389805648,-0.8098841179,0.2278252073
1.6450,-0.0429716854,-0.5368587498,-0.8106841285,0.2296243907
1.6500,-0.04491568822,-0.5347164864,-0.8114780638,0.2314394351
1.6550,-0.04685691642,-0.5325541743,-0.8122659863,0.2332690468
1.6600,-0.04879601036,-0.5303741264,-0.8130462805,0.2351126989
1.6650,-0.050731536,-0.5281751129,-0.8138199828,0.2369691898
1.6700,-0.05266408178,-0.5259572418,-0.8145863201,0.2388401166
1.6750,-0.05459255509,-0.5237224161,-0.815344353,0.2407240535
1.6800,-0.05651467028,-0.5214701989,-0.8160942154,0.242621424
1.6850,-0.0584297093,-0.5192008855,-0.8168355619,0.2445323586
1.6900,-0.06033601986,-0.5169152609,-0.8175680719,0.2464561333
1.6950,-0.06223166197,-0.5146126111,-0.8182913968,0.2483953918
1.7000,-0.06411526448,-0.512292728,-0.8190059158,0.2503491633
1.7050,-0.06598362407,-0.5099572741,-0.8197105828,0.2523178558
1.7100,-0.06783637807,-0.5076063549,-0.8204052575,0.2543014505
1.7150,-0.06967237333,-0.505240821,-0.82108938,0.2563000259
1.7200,-0.07148966132,-0.5028605044,-0.8217629325,0.2583141966
1.7250,-0.07328801337,-0.5004668225,-0.8224257377,0.260341569
1.7300,-0.0750687338,-0.4980595529,-0.8230776278,0.2623825176
1.7350,-0.07683255042,-0.4956407482,-0.8237171807,0.2644371647
1.7400,-0.07857942564,-0.4932110951,-0.8243443893,0.2665040662
1.7450,-0.08030920357,-0.4907691642,-0.8249600744,0.2685831991
1.7500,-0.08202197277,-0.4883170168,-0.8255627469,0.2706751521
1.7550,-0.08371561571,-0.4858548936,-0.8261525033,0.2727796899
1.7600,-0.08539228272,-0.4833822834,-0.8267298952,0.2748952646
1.7650,-0.08705169056,-0.4809002276,-0.8272940277,0.2770226813
1.7700,-0.08869355192,-0.4784078069,-0.8278457489,0.2791609575
1.7750,-0.09032156779,-0.4759052053,-0.8283851731,0.2813081139
1.7800,-0.09193478902,-0.4733943188,-0.8289112865,0.2834640939
1.7850,-0.09353621479,-0.4708752555,-0.8294240467,0.2856277665
1.7900,-0.09512685706,-0.4683465155,-0.8299243001,0.2877986771
1.7950,-0.09670796923,-0.4658095121,-0.830411531,0.2899754408
1.8000,-0.09828165389,-0.4632652104,-0.8308850934,0.2921575309
1.8050,-0.09984965864,-0.4607120908,-0.8313453536,0.294345576
1.8100,-0.1014113946,-0.458151071,-0.831792459,0.2965377386
1.8150,-0.1029682557,-0.4555817668,-0.8322259188,0.2987353545
1.8200,-0.1045206629,-0.4530057524,-0.8326452779,0.300936971
1.8250,-0.1060684293,-0.4504208018,-0.833051724,0.3031425651
1.8300,-0.1076130013,-0.4478287915,-0.8334438871,0.3053524234
1.8350,-0.109154271,-0.445229195,-0.8338220987,0.3075662803
1.8400,-0.1106924561,-0.4426237349,-0.8341858736,0.3097827268
1.8450,-0.1122284567,-0.4400113545,-0.8345353958,0.312002331
1.8500,-0.1137629473,-0.4373935884,-0.8348698644,0.3142246811
1.8550,-0.115298433,-0.4347690535,-0.8351891386,0.3164510138
1.8600,-0.1168340495,-0.4321380494,-0.8354931349,0.3186812399
1.8650,-0.1183702574,-0.4295008436,-0.8357814614,0.3209156531
1.8700,-0.1199075698,-0.4268570537,-0.8360548267,0.3231525292
1.8750,-0.1214448736,-0.4242091724,-0.8363115861,0.3253930725
1.8800,-0.1229843274,-0.4215564755,-0.8365518422,0.3276370072
1.8850,-0.1245243885,-0.4189003949,-0.8367750811,0.3298842212
1.8900,-0.1260667538,-0.416239652,-0.836981429,0.3321352331
1.8950,-0.1276120671,-0.413574344,-0.8371712129,0.3343886701
1.9000,-0.1291595629,-0.4109050596,-0.8373440135,0.3366449798
1.9050,-0.1307087254,-0.408231956,-0.8375000797,0.3389034018
1.9100,-0.1322610461,-0.405554253,-0.8376398545,0.3411630661
1.9150,-0.1338137583,-0.4028721193,-0.837763518,0.3434242588
1.9200,-0.1353686411,-0.4001847083,-0.83787106,0.3456871664
1.9250,-0.1369257868,-0.3974922153,-0.8379624131,0.3479515223
1.9300,-0.1384863027,-0.394794923,-0.8380375133,0.3502165602
1.9350,-0.1400503635,-0.3920936812,-0.8380963652,0.3524810966
1.9400,-0.1416190328,-0.389387933,-0.8381387301,0.3547457629
1.9450,-0.1431905816,-0.3866767065,-0.8381653266,0.3570104583
1.9500,-0.1447632857,-0.3839616261,-0.8381757347,0.3592749623
1.9550,-0.146336902,-0.3812424007,-0.8381695525,0.3615405153
1.9600,-0.1479077784,-0.3785167258,-0.8381485888,0.3638067075
1.9650,-0.1494762278,-0.3757863145,-0.8381116083,0.3660743576
1.9700,-0.1510404293,-0.3730479902,-0.8380606788,0.3683426183
1.9750,-0.1526002065,-0.3703039314,-0.8379940888,0.3706131171
1.9800,-0.1541549335,-0.3675534916,-0.8379127807,0.372884512
1.9850,-0.1557055912,-0.3647965251,-0.8378167255,0.3751564988
1.9900,-0.1572508248,-0.3620334616,-0.8377057612,0.3774294748
1.9950,-0.1587898466,-0.3592647922,-0.8375806206,0.3797015903
2.0000,-0.1603222478,-0.3564901281,-0.8374414215,0.3819730762
2.0050,-0.1618499333,-0.3537088409,-0.8372884068,0.3842431244
2.0100,-0.1633712081,-0.3509212704,-0.8371208801,0.3865135734
2.0150,-0.1648849525,-0.348126964,-0.8369396162,0.3887835494
2.0200,-0.1663919522,-0.3453261891,-0.8367455029,0.3910505143
2.0250,-0.1678915078,-0.3425196935,-0.8365373139,0.3933166965
2.0300,-0.1693855641,-0.3397063081,-0.8363153445,0.3955815964
2.0350,-0.1708729301,-0.336886014,-0.8360798432,0.3978451345
2.0400,-0.1723525505,-0.3340578224,-0.835831607,0.4001068537
2.0450,-0.1738247792,-0.3312224467,-0.8355698761,0.4023675175
2.0500,-0.1752894698,-0.3283806752,-0.8352956809,0.4046243437
2.0550,-0.176748202,-0.3255315626,-0.8350086075,0.4068782376
2.0600,-0.1782018273,-0.3226756544,-0.8347084663,0.4091287171
2.0650,-0.1796491751,-0.3198115786,-0.8343961995,0.4113753887
2.0700,-0.1810916441,-0.3169422534,-0.8340710702,0.4136168205
2.0750,-0.1825290698,-0.314065741,-0.8337336863,0.4158533267
2.0800,-0.1839607952,-0.3111813214,-0.8333845394,0.418084705
2.0850,-0.1853879602,-0.308290338,-0.8330233671,0.4203099351
2.0900,-0.1868105311,-0.305394071,-0.8326499956,0.4225284272
2.0950,-0.188230723,-0.3024920734,-0.8322643893,0.4247395988
2.1000,-0.1896479498,-0.2995862939,-0.8318659658,0.4269434653
2.1050,-0.1910632409,-0.2966771227,-0.8314553075,0.4291381998
2.1100,-0.1924766999,-0.2937653959,-0.8310315574,0.4313248924
2.1150,-0.1938872129,-0.290852603,-0.8305955661,0.4335014622
2.1200,-0.1952936971,-0.2879377793,-0.8301478292,0.4356682095
2.1250,-0.1966966078,-0.2850230775,-0.8296878311,0.4378246141
2.1300,-0.1980942191,-0.2821069544,-0.8292163874,0.4399710553
2.1350,-0.199487885,-0.2791913682,-0.8287331858,0.4421064017
2.1400,-0.2008781748,-0.2762751081,-0.8282393099,0.4442292977
2.1450,-0.2022661156,-0.2733604287,-0.827733594,0.4463402198
2.1500,-0.2036511095,-0.2704460321,-0.8272169932,0.4484386418
2.1550,-0.2050331315,-0.2675347208,-0.8266897093,0.4505227105
2.1600,-0.2064126732,-0.2646267976,-0.8261525483,0.4525908012
2.1650,-0.2077888463,-0.261723045,-0.8256054985,0.4546431611
2.1700,-0.2091626804,-0.258824491,-0.8250477811,0.4566804297
2.1750,-0.2105345667,-0.2559304359,-0.8244798047,0.4587023652
2.1800,-0.211904702,-0.2530420487,-0.8239021138,0.4607075273
2.1850,-0.213271561,-0.2501569061,-0.8233156382,0.4626965782
2.1900,-0.2146341354,-0.247277347,-0.8227204771,0.4646688264
2.1950,-0.2159920149,-0.2444027836,-0.8221164481,0.4666254116
2.2000,-0.217346692,-0.2415335739,-0.8215033695,0.4685660701
2.2050,-0.2186979591,-0.2386695604,-0.82088158,0.470490675
2.2100,-0.2200457155,-0.2358125918,-0.8202511293,0.4723985495
2.2150,-0.2213916703,-0.2329629775,-0.8196117323,0.4742895611
2.2200,-0.2227357099,-0.230120835,-0.8189636746,0.4761635271
2.2250,-0.2240774043,-0.2272869326,-0.8183065406,0.4780213099
2.2300,-0.2254164939,-0.2244615614,-0.8176410139,0.4798620471
2.2350,-0.2267515502,-0.2216426385,-0.8169672392,0.4816874562
2.2400,-0.2280819089,-0.218830161,-0.8162857638,0.4834972133
2.2450,-0.2294072421,-0.2160256115,-0.8155966218,0.4852910497
2.2500,-0.2307271343,-0.2132284612,-0.8149001143,0.4870692113
2.2550,-0.2320430706,-0.2104382754,-0.8141959386,0.4888319948
2.2600,-0.2333556633,-0.2076585493,-0.8134834116,0.490579046
2.2650,-0.2346671259,-0.2048892907,-0.8127619575,0.4923105921
2.2700,-0.2359776136,-0.202130641,-0.812032106,0.4940259392
2.2750,-0.2372866931,-0.1993816982,-0.8112942214,0.4957253777
2.2800,-0.2385963284,-0.1966431472,-0.8105474525,0.4974093807
2.2850,-0.2399056762,-0.1939149214,-0.809791721,0.4990787898
2.2900,-0.241217544,-0.1911977717,-0.8090267627,0.5007326691
2.2950,-0.2425312939,-0.1884912943,-0.8082521612,0.502372419
2.3000,-0.2438453445,-0.1857957209,-0.8074690128,0.5039972137
2.3050,-0.245160001,-0.1831105557,-0.8066768252,0.5056081467
2.3100,-0.2464749114,-0.1804352666,-0.8058775021,0.5072028038
2.3150,-0.2477901278,-0.1777710778,-0.8050695678,0.5087833403
2.3200,-0.24910504,-0.1751160521,-0.8042533303,0.5103504953
2.3250,-0.2504200967,-0.1724683648,-0.8034288054,0.5119048671
2.3300,-0.2517327317,-0.1698306256,-0.8025963502,0.5134464813
2.3350,-0.2530445602,-0.1672020087,-0.8017560256,0.5149749646
2.3400,-0.2543576255,-0.1645838262,-0.8009068204,0.5164906849
2.3450,-0.2556699586,-0.1619748248,-0.8000496033,0.5179938809
2.3500,-0.2569831275,-0.1593753094,-0.7991822624,0.5194871456
2.3550,-0.2582956187,-0.156785178,-0.7983061306,0.5209693879
2.3600,-0.259606336,-0.1542028375,-0.7974211116,0.5224419643
2.3650,-0.2609166644,-0.1516294899,-0.7965271463,0.5239040917
2.3700,-0.2622241662,-0.1490652555,-0.7956236914,0.5253579522
2.3750,-0.2635285569,-0.146510795,-0.7947112252,0.5268029566
2.3800,-0.2648313477,-0.1439664312,-0.7937888398,0.5282398147
2.3850,-0.266131069,-0.1414321211,-0.7928567369,0.5296691458
2.3900,-0.2674271489,-0.1389067811,-0.7919149259,0.5310916836
2.3950,-0.2687183177,-0.1363911738,-0.7909641546,0.5325069198
2.4000,-0.2700024312,-0.133883622,-0.7900047793,0.5339160154
2.4050,-0.271278429,-0.1313860639,-0.7890376226,0.5353179862
2.4100,-0.2725461055,-0.1288971592,-0.7880631487,0.5367127875
2.4150,-0.2738059712,-0.1264157663,-0.7870810705,0.5381010431
2.4200,-0.2750580824,-0.1239410895,-0.7860917946,0.5394824817
2.4250,-0.2763014834,-0.1214733236,-0.7850949501,0.5408582451
2.4300,-0.2775379936,-0.1190126263,-0.7840912327,0.5422265169
2.4350,-0.2787657384,-0.1165600608,-0.7830808326,0.5435879182
2.4400,-0.2799847213,-0.1141148781,-0.7820630843,0.5449437427
2.4450,-0.2811944305,-0.1116757184,-0.781039318,0.5462927878
2.4500,-0.2823948568,-0.1092432676,-0.7800102812,0.5476340152
2.4550,-0.2835851428,-0.1068175399,-0.7789756781,0.5489684626
2.4600,-0.284764741,-0.1043981321,-0.7779365532,0.5502951858
2.4650,-0.2859338666,-0.1019844155,-0.7768925445,0.5516148812
2.4700,-0.2870927491,-0.09957650832,-0.7758445417,0.5529263237
2.4750,-0.2882406037,-0.09717225018,-0.7747931998,0.5542295604
2.4800,-0.2893769504,-0.09477169402,-0.7737386636,0.5555247852
2.4850,-0.2905026032,-0.09237670768,-0.7726807116,0.556811727
2.4900,-0.2916173933,-0.08998617238,-0.7716202936,0.5580895154
2.4950,-0.2927239455,-0.08760144916,-0.7705565711,0.5593578895
2.5000,-0.2938196121,-0.08522168295,-0.7694908649,0.5606167221
2.5050,-0.2949060362,-0.08284641265,-0.7684226752,0.5618660819
2.5100,-0.2959830986,-0.08047584576,-0.7673528661,0.5631049835
2.5150,-0.297052073,-0.07810872919,-0.7662806108,0.5643342253
2.5200,-0.2981121686,-0.07574590403,-0.7652066601,0.5655532339
2.5250,-0.2991627472,-0.07338685113,-0.764132049,0.5667611776
2.5300,-0.300205158,-0.07103245033,-0.7630559705,0.5679584844
2.5350,-0.3012403553,-0.068682814,-0.7619791093,0.5691438803
2.5400,-0.3022674263,-0.06633756152,-0.7609018071,0.5703176052
2.5450,-0.3032861201,-0.06399541596,-0.7598244081,0.5714796452
2.5500,-0.3042965135,-0.06165529298,-0.7587464151,0.5726308884
2.5550,-0.3052976025,-0.05931726981,-0.7576697839,0.5737694084
2.5600,-0.3062897641,-0.05698034086,-0.7565945629,0.5748951978
2.5650,-0.3072722471,-0.05464358222,-0.7555208852,0.5760087128
2.5700,-0.3082445257,-0.05230897814,-0.7544482174,0.5771108824
2.5750,-0.3092094545,-0.04997646497,-0.7533763137,0.5782006538
2.5800,-0.3101649718,-0.04764540889,-0.7523053505,0.5792790907
2.5850,-0.3111136582,-0.04531662295,-0.7512349992,0.5803453036
2.5900,-0.3120544529,-0.04299049,-0.7501645635,0.5814008633
2.5950,-0.3129879899,-0.04066674396,-0.7490947681,0.5824446433
2.6000,-0.3139159877,-0.0383462561,-0.7480239858,0.5834778779
2.6050,-0.3148383659,-0.0360294699,-0.7469529195,0.5844998005
2.6100,-0.3157547856,-0.03371624938,-0.7458802732,0.5855123807
2.6150,-0.3166669636,-0.03140578827,-0.7448067933,0.5865138969
2.6200,-0.317572839,-0.02909852051,-0.74373329,0.5875045202
2.6250,-0.3184730475,-0.02679267897,-0.7426600234,0.5884837806
2.6300,-0.3193654577,-0.02448856327,-0.74158851,0.5894510128
2.6350,-0.3202478415,-0.02218433921,-0.7405186556,0.590407737
2.6400,-0.3211189164,-0.01988098443,-0.7394510032,0.591354041
2.6450,-0.321980943,-0.01757904583,-0.7383853295,0.5922890803
2.6500,-0.3228324933,-0.01527817764,-0.7373232957,0.5932116959
2.6550,-0.3236761394,-0.01297976181,-0.7362631947,0.5941227067
2.6600,-0.3245125958,-0.01068540562,-0.7352054657,0.5950212773
2.6650,-0.3253412338,-0.008394686388,-0.7341490763,0.5959091748
2.6700,-0.3261650365,-0.006106408846,-0.7330935182,0.5967855346
2.6750,-0.3269836262,-0.003821108417,-0.7320381887,0.5976514014
2.6800,-0.3277956749,-0.001539330499,-0.7309839691,0.598506527
2.6850,-0.3286011696,0.000740193278,-0.7299318862,0.5993497851
2.6900,-0.3293996517,0.003015355236,-0.7288817032,0.600181839
2.6950,-0.3301899207,0.00528679348,-0.727833649,0.6010031992
2.7000,-0.3309750245,0.007552644505,-0.7267871071,0.601813087
2.7050,-0.3317560166,0.009813197226,-0.7257405442,0.6026129016
2.7100,-0.332534573,0.01206667397,-0.7246927029,0.6034033804
2.7150,-0.3333097533,0.01431185486,-0.7236439932,0.6041846988
2.7200,-0.3340818049,0.01654815602,-0.7225942665,0.6049570499
2.7250,-0.3348525003,0.01877422093,-0.7215444802,0.6057184946
2.7300,-0.3356205212,0.02099008892,-0.7204935107,0.6064712548
2.7350,-0.3363862667,0.02319691716,-0.719441588,0.6072149406
2.7400,-0.3371482049,0.02539437286,-0.7183905204,0.6079484139
2.7450,-0.3379060364,0.02758299842,-0.7173399722,0.6086723692
2.7500,-0.3386593517,0.02976246109,-0.7162895145,0.6093877016
2.7550,-0.3394052567,0.03193456278,-0.7152407934,0.6100941426
2.7600,-0.3401462832,0.03409842546,-0.7141923685,0.6107921611
2.7650,-0.3408819792,0.036254566,-0.7131451863,0.6114810104
2.7700,-0.3416115864,0.03840278324,-0.7120995011,0.6121609681
2.7750,-0.3423365436,0.04054207073,-0.7110542081,0.6128327215
2.7800,-0.3430563665,0.04267190211,-0.7100098835,0.6134960501
2.7850,-0.3437729672,0.04479285918,-0.7089654933,0.6141511835
2.7900,-0.3444878232,0.04690498288,-0.707919794,0.6147988513
2.7950,-0.345199378,0.04900946809,-0.7068749321,0.6154374801
2.8000,-0.3459103114,0.05110496491,-0.7058285176,0.6160685374
2.8050,-0.3466203806,0.05319160381,-0.7047809426,0.6166918096
2.8100,-0.3473290918,0.05527024288,-0.7037314444,0.6173084775
2.8150,-0.3480362317,0.05733899123,-0.7026808127,0.6179180342
2.8200,-0.3487425508,0.05940082565,-0.701627871,0.618521225
2.8250,-0.3494495732,0.06145302676,-0.700571981,0.6191182608
2.8300,-0.3501554619,0.06349812955,-0.6995135542,0.6197095509
2.8350,-0.3508618681,0.06553458436,-0.6984521795,0.6202948659
2.8400,-0.3515705423,0.06756172055,-0.6973875524,0.6208737146
2.8450,-0.352280318,0.06958089286,-0.6963197299,0.6214466274
2.8500,-0.3529925355,0.0715891533,-0.6952489845,0.622012952
2.8550,-0.3537080295,0.07358772947,-0.6941737037,0.6225739675
2.8600,-0.3544269825,0.07557740563,-0.6930940021,0.62312942
2.8650,-0.3551478408,0.07755880175,-0.6920106458,0.6236793323
2.8700,-0.3558717643,0.07953187211,-0.6909234836,0.6242232842
2.8750,-0.3565957481,0.0814973434,-0.6898342821,0.6247610092
2.8800,-0.3573211597,0.08345598814,-0.6887421915,0.6252926359
2.8850,-0.3580446906,0.08540659923,-0.687648929,0.6258183945
2.8900,-0.3587665213,0.0873524286,-0.686554815,0.6263374669
2.8950,-0.35948676,0.08929249625,-0.6854605272,0.6268492523
2.9000,-0.3602032701,0.09122746741,-0.6843658069,0.6273552388
2.9050,-0.3609163958,0.09315714511,-0.6832706863,0.6278552944
2.9100,-0.3616287527,0.09508011791,-0.6821757703,0.628347543
2.9150,-0.3623397625,0.09699640648,-0.6810805967,0.6288328986
2.9200,-0.3630517985,0.09890448513,-0.6799828046,0.6293128633
2.9250,-0.3637634853,0.1008017714,-0.6788839953,0.6297869883
2.9300,-0.3644766443,0.1026905256,-0.6777832171,0.630254982
2.9350,-0.3651918811,0.1045688012,-0.6766810779,0.6307162393
2.9400,-0.3659082008,0.1064390262,-0.6755775782,0.6311710213
2.9450,-0.3666241106,0.1083000918,-0.6744732481,0.631619893
2.9500,-0.3673387472,0.1101538553,-0.6733694125,0.6320617116
2.9550,-0.3680508915,0.1120019117,-0.6722666266,0.6324963999
2.9600,-0.3687581878,0.1138423916,-0.671166242,0.6329243117
2.9650,-0.3694602138,0.1156779596,-0.6700697413,0.633343747
2.9700,-0.3701560254,0.1175069447,-0.6689790514,0.6337536301
2.9750,-0.3708448448,0.1193293127,-0.6678939716,0.6341547595
2.9800,-0.3715261747,0.1211460983,-0.6668153099,0.6345465048
2.9850,-0.3722016427,0.1229557565,-0.6657432051,0.634928188
2.9900,-0.3728706289,0.1247596087,-0.6646774749,0.6353002349
2.9950,-0.3735338388,0.1265576492,-0.6636185466,0.6356619049
3.0000,-0.3741899058,0.1283499715,-0.6625674893,0.6360129883
3.0050,-0.37483819,0.1301375295,-0.6615248701,0.6363532045
3.0100,-0.3754775545,0.1319201495,-0.6604915967,0.6366824412
3.0150,-0.3761094894,0.1336971322,-0.6594666625,0.6370011381
3.0200,-0.3767353455,0.1354673404,-0.6584497653,0.6373091759
3.0250,-0.377353677,0.1372326633,-0.6574403688,0.6376076851
3.0300,-0.3779650067,0.1389907072,-0.6564395193,0.637895912
3.0350,-0.3785701048,0.1407436363,-0.6554464213,0.638173874
3.0400,-0.3791688646,0.142490435,-0.6544608159,0.6384422359
3.0450,-0.3797615202,0.1442306296,-0.6534831644,0.6387006084
3.0500,-0.3803470343,0.1459640068,-0.6525143469,0.6389488785
3.0550,-0.3809286416,0.1476889636,-0.6515521673,0.6391878545
3.0600,-0.3815041342,0.1494075285,-0.6505977548,0.63941735
3.0650,-0.3820747452,0.151118225,-0.6496511836,0.6396370148
3.0700,-0.3826401847,0.1528208764,-0.6487108353,0.6398488266
3.0750,-0.3832001785,0.1545151726,-0.647778523,0.6400513025
3.0800,-0.383754874,0.1562023335,-0.6468528849,0.6402455568
3.0850,-0.3843047718,0.1578820144,-0.6459348809,0.6404305126
3.0900,-0.3848475038,0.1595547281,-0.6450250324,0.640607052
3.0950,-0.3853830379,0.1612210704,-0.6441233895,0.6407751085
3.1000,-0.3859114708,0.1628819218,-0.643231713,0.6409327419
3.1050,-0.386432703,0.1645371026,-0.6423484852,0.6410816886
3.1100,-0.3869469348,0.1661871159,-0.6414735868,0.6412219192
3.1150,-0.3874544581,0.1678316292,-0.6406062115,0.641354246
3.1200,-0.3879567782,0.1694686041,-0.6397467677,0.6414779838
3.1250,-0.3884519512,0.1711001997,-0.6388961619,0.6415929376
3.1300,-0.3889419644,0.1727249926,-0.6380531636,0.6416996071
3.1350,-0.3894274664,0.1743433664,-0.6372160608,0.6417992918
3.1400,-0.389906793,0.175955054,-0.636386336,0.641891691
3.1450,-0.3903815051,0.1775601746,-0.6355628637,0.6419770333
3.1500,-0.3908515692,0.1791600277,-0.6347452888,0.6420554133
3.1550,-0.3913180902,0.1807536286,-0.6339340979,0.6421260293
3.1600,-0.391780615,0.1823413758,-0.6331282402,0.6421901618
3.1650,-0.3922406594,0.1839239513,-0.6323271517,0.6422473188
3.1700,-0.3926981139,0.1855004049,-0.6315298742,0.6422988472
3.1750,-0.3931540639,0.1870697007,-0.6307350326,0.6423458008
3.1800,-0.3936079055,0.1886316166,-0.6299439937,0.6423873401
3.1850,-0.3940620907,0.190188446,-0.6291546094,0.6424234594
3.1900,-0.3945162873,0.1917377349,-0.628366579,0.6424554323
3.1950,-0.3949709964,0.193279826,-0.6275788046,0.6424839803
3.2000,-0.3954281767,0.1948152061,-0.6267906443,0.6425084285
3.2050,-0.395886676,0.19634399,-0.6260029908,0.6425286242
3.2100,-0.3963458388,0.1978681239,-0.6252149759,0.6425452634
3.2150,-0.3968044352,0.1993884203,-0.6244275084,0.6425580012
3.2200,-0.3972609992,0.2009055525,-0.6236423018,0.6425659008
3.2250,-0.3977150496,0.2024213854,-0.622858869,0.6425691803
3.2300,-0.3981676981,0.2039334057,-0.6220760507,0.6425690915
3.2350,-0.3986187464,0.2054424962,-0.6212940821,0.6425652803
3.2400,-0.3990683623,0.2069490012,-0.6205138518,0.6425567001
3.2450,-0.3995165702,0.2084529169,-0.6197350671,0.6425436469
3.2500,-0.3999650251,0.2099536662,-0.6189562295,0.6425267487
3.2550,-0.400412553,0.211449526,-0.6181791382,0.6425055941
3.2600,-0.4008603509,0.212942623,-0.6174023635,0.6424801475
3.2650,-0.4013075028,0.2144297392,-0.6166260641,0.6424519221
3.2700,-0.4017527432,0.2159133303,-0.6158500788,0.6424210828
3.2750,-0.4021973296,0.2173919962,-0.6150761092,0.6423857158
3.2800,-0.4026404599,0.2188667986,-0.6143038666,0.6423462804
3.2850,-0.4030795804,0.2203376254,-0.6135339625,0.6423038685
3.2900,-0.4035162483,0.2218041499,-0.6127667872,0.6422572856
3.2950,-0.4039492048,0.2232659839,-0.6120024928,0.6422073568
3.3000,-0.4043800521,0.2247239846,-0.611239781,0.6421540581
3.3050,-0.4048075052,0.2261761159,-0.6104794124,0.6420982287
3.3100,-0.4052336466,0.2276233971,-0.6097208045,0.6420388004
3.3150,-0.4056572412,0.2290664525,-0.6089650364,0.641975348
3.3200,-0.4060774902,0.2305043457,-0.6082113998,0.6419094264
3.3250,-0.4064942208,0.231937493,-0.6074609726,0.6418400226
3.3300,-0.4069076805,0.2333680202,-0.6067136566,0.6417663481
3.3350,-0.407317349,0.2347947209,-0.6059697501,0.6416889263
3.3400,-0.4077248783,0.2362173263,-0.605229221,0.64160688
3.3450,-0.4081275531,0.2376369063,-0.6044934209,0.6415203078
3.3500,-0.4085277663,0.2390519882,-0.603761348,0.6414292211
3.3550,-0.4089256632,0.2404639365,-0.6030331854,0.641332889
3.3600,-0.4093202778,0.2418708135,-0.6023092867,0.6412323626
3.3650,-0.4097124345,0.2432736611,-0.6015895937,0.6411268264
3.3700,-0.4101016909,0.2446721209,-0.6008751216,0.6410157912
3.3750,-0.4104889163,0.2460664164,-0.6001658688,0.6408986645
3.3800,-0.4108749965,0.2474540573,-0.5994617515,0.6407759634
3.3850,-0.4112583302,0.2488356929,-0.5987628732,0.6406484258
3.3900,-0.4116408138,0.2502103924,-0.5980696264,0.6405148882
3.3950,-0.412022767,0.25157765,-0.5973802009,0.6403770928
3.4000,-0.4124055582,0.252936175,-0.5966925374,0.6402366459
3.4050,-0.4127891494,0.2542858,-0.596008201,0.640092239
3.4100,-0.4131738749,0.2556249931,-0.5953269469,0.6399445587
3.4150,-0.413559283,0.2569548418,-0.5946495562,0.6397928056
3.4200,-0.4139436349,0.258275814,-0.5939758292,0.6396381676
3.4250,-0.4143274837,0.2595891211,-0.5933058298,0.6394798017
3.4300,-0.4147094977,0.2608926508,-0.5926412344,0.639317937
3.4350,-0.4150897104,0.2621891857,-0.5919820101,0.639151518
3.4400,-0.415468503,0.2634774972,-0.5913263346,0.6389825487
3.4450,-0.415847167,0.2647573803,-0.5906748362,0.6388097534
3.4500,-0.4162251997,0.2660282512,-0.5900263218,0.6386348661
3.4550,-0.4166018234,0.2672899098,-0.5893809905,0.6384583564
3.4600,-0.416978419,0.2685425675,-0.5887381044,0.6382799793
3.4650,-0.4173544792,0.269785096,-0.588098683,0.6380996628
3.4700,-0.4177278959,0.2710204178,-0.5874640234,0.6379164203
3.4750,-0.4180981782,0.2722498771,-0.5868351238,0.6377291394
3.4800,-0.4184659384,0.2734733175,-0.5862098651,0.6375394867
3.4850,-0.4188295702,0.2746892724,-0.5855899903,0.637347596
3.4900,-0.4191905112,0.2758982522,-0.5849741214,0.6371536291
3.4950,-0.4195476163,0.2770991827,-0.5843639735,0.6369572882
3.5000,-0.4198994089,0.2782927566,-0.5837599059,0.6367589813
3.5050,-0.420246643,0.2794781515,-0.5831611241,0.636559365
3.5100,-0.4205870479,0.2806540451,-0.5825688692,0.636359454
3.5150,-0.4209217153,0.2818188679,-0.5819824428,0.6361599419
3.5200,-0.4212516966,0.2829737787,-0.5814010923,0.6359603907
3.5250,-0.4215767246,0.2841171059,-0.580825709,0.6357609859
3.5300,-0.4218958177,0.2852505124,-0.5802552144,0.6355627037
3.5350,-0.4222089378,0.2863739002,-0.5796896259,0.6353656741
3.5400,-0.4225166079,0.2874856649,-0.579128497,0.6351707585
3.5450,-0.4228173678,0.2885860191,-0.5785720144,0.6349787455
3.5500,-0.4231123266,0.2896730936,-0.5780202771,0.6347897425
3.5550,-0.4233991049,0.2907498963,-0.57747311,0.6346042097
3.5600,-0.4236766374,0.2918165922,-0.5769322861,0.6344212486
3.5650,-0.4239465215,0.2928742497,-0.5763968613,0.6342402376
3.5700,-0.424207813,0.2939216349,-0.5758668835,0.6340624073
3.5750,-0.4244613084,0.2949592836,-0.5753415045,0.6338878228
3.5800,-0.424706808,0.2959864575,-0.5748206257,0.6337171233
3.5850,-0.4249473946,0.2970025777,-0.574303087,0.6335496389
3.5900,-0.4251820955,0.2980085212,-0.5737886339,0.6333859097
3.5950,-0.4254124552,0.2990038611,-0.5732770355,0.6332253742
3.6000,-0.4256369134,0.2999893587,-0.5727690061,0.6330681387
3.6050,-0.4258565498,0.3009659539,-0.5722644654,0.6329131657
3.6100,-0.4260713078,0.3019332263,-0.5717628126,0.6327612928
3.6150,-0.4262839459,0.3028911439,-0.5712617994,0.6326127638
3.6200,-0.4264957637,0.3038398758,-0.5707617224,0.632466402
3.6250,-0.4267085733,0.3047788119,-0.5702605067,0.6323231956
3.6300,-0.4269228547,0.3057072201,-0.5697583335,0.6321830535
3.6350,-0.4271407567,0.3066255223,-0.569254387,0.6320450981
3.6400,-0.4273631738,0.3075323197,-0.5687465412,0.6319113561
3.6450,-0.4275927194,0.3084274979,-0.5682339575,0.631780907
3.6500,-0.4278292791,0.3093134321,-0.5677162121,0.6316530782
3.6550,-0.4280726033,0.3101885317,-0.5671937691,0.6315284233
3.6600,-0.4283250716,0.3110555345,-0.5666657518,0.6314047935
3.6650,-0.4285860144,0.3119148144,-0.5661315372,0.6312830264
3.6700,-0.4288560912,0.3127663841,-0.5655900886,0.631163603
3.6750,-0.4291351646,0.3136115055,-0.5650416873,0.6310457398
3.6800,-0.4294245366,0.3144518161,-0.5644859346,0.6309280881
3.6850,-0.4297247566,0.3152876802,-0.5639214133,0.6308113441
3.6900,-0.4300356592,0.3161207729,-0.5633469624,0.6306957973
3.6950,-0.4303569427,0.3169505582,-0.5627642056,0.6305804425
3.7000,-0.4306891323,0.3177781565,-0.5621728729,0.6304645712
3.7050,-0.4310312711,0.3186043696,-0.5615727115,0.6303486247
3.7100,-0.431382364,0.3194312764,-0.5609634087,0.6302324728
3.7150,-0.4317426586,0.3202595551,-0.5603455957,0.6301149955
3.7200,-0.4321123716,0.3210892403,-0.5597194573,0.6299958152
3.7250,-0.4324904929,0.3219198011,-0.559084174,0.6298765766
3.7300,-0.4328789928,0.3227539721,-0.5584383841,0.6297556845
3.7350,-0.4332747722,0.3235889767,-0.5577836027,0.62963529
3.7400,-0.4336789211,0.3244272979,-0.5571196554,0.6295134719
3.7450,-0.4340897729,0.3252677558,-0.5564473557,0.629391211
3.7500,-0.4345067832,0.3261096989,-0.555767567,0.6292684094
3.7550,-0.4349307293,0.3269527202,-0.5550788394,0.6291459779
3.7600,-0.4353585551,0.3277988637,-0.5543833836,0.6290229705
3.7650,-0.4357890797,0.3286476609,-0.5536831413,0.6288986978
3.7700,-0.4362240029,0.3294973508,-0.5529765013,0.6287742871
3.7750,-0.4366631093,0.3303475249,-0.5522626425,0.6286507897
3.7800,-0.437106128,0.3311969687,-0.5515438094,0.6285270298
3.7850,-0.4375524532,0.3320443161,-0.5508204171,0.6284037642
3.7900,-0.4379974251,0.3328917659,-0.5500959068,0.6282800499
3.7950,-0.4384416153,0.3337407532,-0.5493693123,0.6281555686
3.8000,-0.4388836784,0.334589243,-0.5486419844,0.6280311523
3.8050,-0.4393209562,0.3354384057,-0.5479171864,0.6279051921
3.8100,-0.4397552159,0.3362890316,-0.5471929458,0.6277777611
3.8150,-0.4401836549,0.3371414514,-0.5464704526,0.6276496126
3.8200,-0.4406054578,0.3379946787,-0.5457514688,0.627520328
3.8250,-0.4410194736,0.3388486871,-0.54503444,0.6273921026
3.8300,-0.441424256,0.3397040185,-0.5443225462,0.6272629207
3.8350,-0.4418187266,0.3405594209,-0.5436176259,0.6271326578
3.8400,-0.4422014739,0.3414157356,-0.5429191726,0.6270023318
3.8450,-0.4425720841,0.3422724317,-0.5422290934,0.6268709143
3.8500,-0.4429275738,0.3431305822,-0.541548752,0.626738795
3.8550,-0.4432714166,0.3439873237,-0.540876183,0.6266068361
3.8600,-0.4436029864,0.3448409718,-0.5402107501,0.6264770068
3.8650,-0.4439224205,0.3456895478,-0.5395536156,0.626349357
3.8700,-0.4442313419,0.3465331145,-0.5389038535,0.626223564
3.8750,-0.4445284055,0.3473702665,-0.5382622683,0.6261007309
3.8800,-0.4448161557,0.3481983092,-0.5376283811,0.6259810292
3.8850,-0.4450946945,0.3490178238,-0.5370016606,0.6258645925
3.8900,-0.4453657385,0.3498270719,-0.5363816596,0.6257516232
3.8950,-0.4456301081,0.3506253838,-0.5357672995,0.6256429075
3.9000,-0.44589175,0.3514095338,-0.5351583549,0.6255377063
3.9050,-0.4461519843,0.3521796812,-0.5345521792,0.6254373244
3.9100,-0.4464130542,0.3529342754,-0.5339484401,0.6253413833
3.9150,-0.4466733248,0.3536737183,-0.5333491866,0.6252491399
3.9200,-0.4469351711,0.3543984404,-0.5327532824,0.6251596904
3.9250,-0.4471993282,0.355108724,-0.5321603621,0.625072719
3.9300,-0.4474673947,0.3558040882,-0.5315686254,0.6249889423
3.9350,-0.4477402466,0.3564854919,-0.5309784361,0.6249069259
3.9400,-0.4480175803,0.3571541173,-0.5303899306,0.6248261404
3.9450,-0.4483014443,0.3578112693,-0.529801046,0.6247461582
3.9500,-0.4485923902,0.3584547498,-0.5292101873,0.6246692224
3.9550,-0.4488908264,0.3590889233,-0.5286169967,0.624592861
3.9600,-0.4491963039,0.3597126738,-0.5280209865,0.624518463
3.9650,-0.4495096259,0.3603263062,-0.5274216762,0.624445694
3.9700,-0.4498316341,0.3609302277,-0.5268188491,0.624373904
3.9750,-0.4501624462,0.3615248231,-0.5262101759,0.6243047534
3.9800,-0.4505015807,0.3621109369,-0.5255965733,0.6242373244
3.9850,-0.4508481661,0.3626875628,-0.5249780524,0.6241728185
3.9900,-0.4512030138,0.3632547277,-0.5243544783,0.6241107468
3.9950,-0.4515674988,0.36381226,-0.5237245574,0.6240512971
4.0000,-0.4519403551,0.3643611558,-0.5230859768,0.6239967344
4.0050,-0.4523226197,0.3649006257,-0.5224399909,0.6239457004
4.0100,-0.4527149449,0.3654301856,-0.5217866277,0.6238979671
4.0150,-0.4531182719,0.3659484502,-0.5211254402,0.6238540207
4.0200,-0.4535318672,0.3664556512,-0.5204562722,0.6238143714
4.0250,-0.4539573416,0.3669526678,-0.5197788381,0.6237775494
4.0300,-0.4543912343,0.3674403101,-0.5190956511,0.6237434807
4.0350,-0.4548352924,0.3679185943,-0.5184075835,0.6237101427
4.0400,-0.455289144,0.3683862763,-0.5177134605,0.6236795006
4.0450,-0.4557517754,0.3688442182,-0.5170145371,0.6236507279
4.0500,-0.4562229748,0.3692930471,-0.5163122028,0.6236224434
4.0550,-0.4567006645,0.3697342286,-0.5156084828,0.6235936142
4.0600,-0.4571853514,0.3701670109,-0.5149035122,0.6235642001
4.0650,-0.4576751484,0.3705928108,-0.5141974497,0.6235346099
4.0700,-0.4581682135,0.3710130704,-0.5134928308,0.6235032498
4.0750,-0.458662378,0.3714276452,-0.5127914601,0.6234703248
4.0800,-0.4591548558,0.3718384471,-0.5120949848,0.623435413
4.0850,-0.4596451948,0.3722473692,-0.5114028641,0.6233981886
4.0900,-0.4601325887,0.372651785,-0.510717122,0.6233591815
4.0950,-0.4606140221,0.3730521785,-0.5100378584,0.623320285
4.1000,-0.461087411,0.3734505905,-0.5093680832,0.623279401
4.1050,-0.4615534261,0.3738455055,-0.5087063061,0.6232382106
4.1100,-0.4620080062,0.3742367797,-0.5080562696,0.6231968082
4.1150,-0.4624505081,0.3746240551,-0.5074188481,0.6231552435
4.1200,-0.4628775154,0.3750092473,-0.5067961186,0.6231132837
4.1250,-0.4632877623,0.3753925319,-0.5061905151,0.6230698667
4.1300,-0.4636795251,0.3757736066,-0.5056020426,0.6230265397
4.1350,-0.4640514896,0.376151749,-0.5050311022,0.6229844802
4.1400,-0.4644047709,0.3765260051,-0.5044791881,0.6229423127
4.1450,-0.464739128,0.3768965109,-0.503947668,0.6228991177
4.1500,-0.4650534033,0.3772635742,-0.5034369219,0.622855355
4.1550,-0.4653456455,0.3776263522,-0.5029505796,0.6228101499
4.1600,-0.4656166959,0.3779849103,-0.5024895368,0.6227622062
4.1650,-0.4658660353,0.3783403543,-0.5020544867,0.6227107722
4.1700,-0.4660917942,0.3786907344,-0.50164779,0.6226566163
4.1750,-0.4662957813,0.3790358956,-0.5012690034,0.6225989242
4.1800,-0.4664770274,0.3793763769,-0.5009197225,0.6225368898
4.1850,-0.466633962,0.3797106125,-0.5006007373,0.6224720862
4.1900,-0.4667656071,0.3800375664,-0.5003119534,0.6224060294
4.1950,-0.4668733706,0.3803566631,-0.5000547069,0.6223370106
4.2000,-0.4669534627,0.380668189,-0.4998303476,0.6222666769
4.2050,-0.4670070951,0.3809704843,-0.4996388013,0.6221952518
4.2100,-0.467034328,0.3812624356,-0.4994809695,0.6221226992
4.2150,-0.4670361337,0.3815432127,-0.4993556729,0.6220497879
4.2200,-0.4670128216,0.381809685,-0.4992632578,0.6219779645
4.2250,-0.4669651294,0.3820611301,-0.4992043018,0.6219066858
4.2300,-0.4668927285,0.382297737,-0.4991780202,0.6218367346
4.2350,-0.4667971894,0.3825148804,-0.4991846609,0.6217695911
4.2400,-0.4666801727,0.382713461,-0.4992233293,0.6217041826
4.2450,-0.4665421441,0.382891037,-0.4992935505,0.6216420449
4.2500,-0.4663834927,0.3830496507,-0.4993964345,0.6215807301
4.2550,-0.4662058152,0.3831867439,-0.4995314227,0.6215210495
4.2600,-0.4660113238,0.3833011708,-0.4996974892,0.6214628531
4.2650,-0.4658003835,0.3833932097,-0.4998928972,0.6214070654
4.2700,-0.4655755904,0.3834635154,-0.5001172615,0.6213516129
4.2750,-0.4653364866,0.3835114314,-0.5003711386,0.6212967567
4.2800,-0.4650848297,0.383535645,-0.5006517784,0.6212441605
4.2850,-0.4648233315,0.3835372623,-0.5009579588,0.6211920495
4.2900,-0.4645527416,0.3835154117,-0.5012883904,0.621141392
4.2950,-0.4642749321,0.3834699851,-0.501641569,0.6210920174
4.3000,-0.4639907094,0.3834009271,-0.5020197806,0.6210414564
4.3050,-0.4637009667,0.3833094115,-0.5024193507,0.6209912274
4.3100,-0.4634076559,0.3831937268,-0.5028393604,0.6209416155
4.3150,-0.4631108599,0.3830555924,-0.503278529,0.620892476
4.3200,-0.4628116055,0.3828951631,-0.503736798,0.6208429352
4.3250,-0.462510133,0.3827117305,-0.5042149065,0.6207925872
4.3300,-0.4622076079,0.3825044237,-0.504711504,0.6207421291
4.3350,-0.4619056249,0.382274881,-0.5052248787,0.6206906886
4.3400,-0.4616024544,0.3820228902,-0.505757542,0.6206375708
4.3450,-0.4612998007,0.381748901,-0.5063073157,0.6205829297
4.3500,-0.4609972829,0.381452994,-0.5068746707,0.6205265399
4.3550,-0.4606959444,0.3811350039,-0.5074584224,0.6204686174
4.3600,-0.4603952124,0.3807943352,-0.5080587954,0.6204096897
4.3650,-0.4600975085,0.3804292464,-0.5086745588,0.6203499532
4.3700,-0.4598027239,0.3800400147,-0.509305266,0.6202896004
4.3750,-0.4595109302,0.3796272239,-0.509951259,0.6202278527
4.3800,-0.4592218368,0.3791919802,-0.5106116719,0.620164871
4.3850,-0.4589340707,0.3787342516,-0.5112879078,0.6201004441
4.3900,-0.4586473111,0.378256732,-0.5119797174,0.6200332715
4.3950,-0.4583615706,0.3777591942,-0.5126873756,0.6199631576
4.4000,-0.4580761764,0.3772401862,-0.5134100372,0.6198920811
4.4050,-0.4577907023,0.376701279,-0.5141465835,0.6198202239
4.4100,-0.4575049311,0.3761422398,-0.5148971797,0.6197476484
4.4150,-0.4572168234,0.3755650178,-0.5156608965,0.6196753454
4.4200,-0.4569275517,0.3749683721,-0.516436521,0.6196041092
4.4250,-0.4566359915,0.3743525023,-0.5172241273,0.6195344844
4.4300,-0.4563416455,0.3737182779,-0.518022956,0.619466842
4.4350,-0.4560439667,0.3730671143,-0.5188335043,0.6194002127
4.4400,-0.4557421898,0.3723995064,-0.5196550276,0.6193353829
4.4450,-0.4554341391,0.3717150034,-0.5204871377,0.619274447
4.4500,-0.4551218817,0.3710130116,-0.5213285909,0.6192171819
4.4550,-0.4548047963,0.3702965529,-0.5221784514,0.6191629229
4.4600,-0.4544812741,0.3695647039,-0.5230383094,0.6191119672
4.4650,-0.4541517408,0.368816665,-0.5239069783,0.6190653779
4.4700,-0.4538166817,0.3680540368,-0.5247844559,0.6190217447
4.4750,-0.4534747762,0.3672770301,-0.5256694927,0.6189828712
4.4800,-0.4531266034,0.3664856286,-0.526562074,0.6189482592
4.4850,-0.4527722373,0.3656803807,-0.5274618685,0.6189177147
4.4900,-0.4524138967,0.3648619734,-0.5283692383,0.6188888062
4.4950,-0.452050111,0.3640296906,-0.5292833173,0.6188636777
4.5000,-0.4516830773,0.3631853881,-0.5302027829,0.6188406746
4.5050,-0.4513126312,0.3623281631,-0.5311285102,0.6188196158
4.5100,-0.4509380529,0.3614599204,-0.5320603018,0.6187999948
4.5150,-0.4505607048,0.3605807519,-0.5329964119,0.6187821891
4.5200,-0.4501812479,0.3596899794,-0.5339353454,0.6187673308
4.5250,-0.4498010325,0.3587868195,-0.534876775,0.618755109
4.5300,-0.4494220251,0.3578710472,-0.5358195708,0.6187451369
4.5350,-0.4490437306,0.3569436525,-0.5367632625,0.618737551
4.5400,-0.4486663227,0.3560049334,-0.5377066196,0.618733068
4.5450,-0.4482914554,0.3550538673,-0.5386510303,0.6187298198
4.5500,-0.4479191528,0.3540912071,-0.5395955412,0.6187281321
4.5550,-0.4475511033,0.3531155268,-0.5405389552,0.6187285937
4.5600,-0.4471868658,0.3521284813,-0.541482081,0.6187298245
4.5650,-0.4468279482,0.3511298943,-0.5424262736,0.6187296014
4.5700,-0.4464713099,0.3501188997,-0.543372456,0.6187297468
4.5750,-0.4461213966,0.3490950027,-0.5443184896,0.6187291495
4.5800,-0.4457772866,0.3480586145,-0.5452657825,0.6187269495
4.5850,-0.4454396546,0.3470081424,-0.5462153805,0.6187225722
4.5900,-0.4451089154,0.3459439484,-0.5471678301,0.6187149617
4.5950,-0.4447832966,0.3448669892,-0.5481234129,0.6187045361
4.6000,-0.4444647635,0.3437751408,-0.5490821199,0.6186909989
4.6050,-0.444154491,0.3426669554,-0.5500436881,0.6186744596
4.6100,-0.4438494198,0.3415452032,-0.5510099446,0.6186538674
4.6150,-0.4435476128,0.340411337,-0.5519822619,0.6186284986
4.6200,-0.4432490939,0.3392649986,-0.5529613644,0.6185977942
4.6250,-0.4429513299,0.3381071358,-0.5539485587,0.6185617822
4.6300,-0.4426544167,0.3369375431,-0.5549436334,0.6185205923
4.6350,-0.4423561805,0.3357554346,-0.5559481525,0.6184746959
4.6400,-0.4420563009,0.3345606844,-0.5569621985,0.6184241947
4.6450,-0.4417544876,0.3333537225,-0.5579852835,0.6183693813
4.6500,-0.4414500527,0.3321350959,-0.55901734,0.6183103935
4.6550,-0.4411415166,0.3309043363,-0.5600596429,0.6182472636
4.6600,-0.4408297648,0.3296608829,-0.5611121277,0.6181795864
4.6650,-0.4405153902,0.3284038574,-0.5621740149,0.6181079795
4.6700,-0.4401967152,0.3271326288,-0.5632458094,0.6180333756
4.6750,-0.4398732668,0.3258465722,-0.5643275597,0.6179562491
4.6800,-0.439544644,0.3245451332,-0.5654206287,0.6178757764
4.6850,-0.4392096465,0.3232288865,-0.566526043,0.6177914017
4.6900,-0.4388696339,0.3218958377,-0.5676428366,0.617703913
4.6950,-0.4385236024,0.3205446768,-0.5687714405,0.6176141261
4.7000,-0.4381736129,0.3191752456,-0.5699099496,0.6175222238
4.7050,-0.4378172525,0.3177890274,-0.5710611016,0.6174264376
4.7100,-0.4374543364,0.3163852231,-0.5722230058,0.6173288635
4.7150,-0.4370864453,0.3149628097,-0.5733970006,0.6172274682
4.7200,-0.4367104388,0.3135241757,-0.5745837987,0.6171223883
4.7250,-0.436327568,0.3120679243,-0.5757823555,0.6170142163
4.7300,-0.4359367164,0.3105953202,-0.5769939162,0.6169017321
4.7350,-0.4355386073,0.3091065258,-0.5782175884,0.6167849688
4.7400,-0.4351310834,0.3076016985,-0.5794555353,0.6166631317
4.7450,-0.43471512,0.306083329,-0.5807058882,0.6165358315
4.7500,-0.4342890827,0.3045529644,-0.5819702074,0.6164017864
4.7550,-0.4338531604,0.3030087567,-0.5832485974,0.6162614723
4.7600,-0.4334087178,0.3014518029,-0.5845388477,0.6161152728
4.7650,-0.4329561564,0.299881248,-0.5858408514,0.6159632299
4.7700,-0.4324971887,0.2982966211,-0.5871521113,0.615806549
4.7750,-0.4320340472,0.2966962827,-0.5884721046,0.6156447676
4.7800,-0.4315662296,0.2950813893,-0.5897995823,0.6154786884
4.7850,-0.4310946821,0.2934517412,-0.5911343825,0.6153077218
4.7900,-0.4306182457,0.2918068442,-0.5924762947,0.6151329388
4.7950,-0.4301382053,0.290146206,-0.5938254425,0.61495337
4.8000,-0.4296549505,0.288468471,-0.5951813685,0.6147696343
4.8050,-0.4291704099,0.2867728505,-0.5965432592,0.6145813464
4.8100,-0.4286858123,0.2850576189,-0.5979095883,0.6143897399
4.8150,-0.4282014769,0.2833216707,-0.5992808225,0.6141944495
4.8200,-0.4277178421,0.281567738,-0.6006577322,0.6139929521
4.8250,-0.4272333581,0.2797948809,-0.6020406573,0.6137862244
4.8300,-0.4267491078,0.2780026371,-0.6034310317,0.6135721007
4.8350,-0.4262647961,0.2761914732,-0.6048267439,0.6133524302
4.8400,-0.4257818588,0.2743619837,-0.6062285184,0.6131250231
4.8450,-0.4252983301,0.2725153899,-0.6076360837,0.6128907591
4.8500,-0.4248135374,0.2706532147,-0.6090501704,0.612648501
4.8550,-0.4243258468,0.2687774348,-0.6104704958,0.6123985957
4.8600,-0.4238340741,0.2668885759,-0.6118972558,0.6121412534
4.8650,-0.4233372726,0.26498808,-0.6133292939,0.6118774782
4.8700,-0.4228365269,0.2630786213,-0.6147662604,0.6116055555
4.8750,-0.4223306967,0.2611602823,-0.6162089567,0.6113252909
4.8800,-0.4218186789,0.2592350542,-0.6176559729,0.6110378776
4.8850,-0.4213002274,0.2573048201,-0.6191071536,0.6107427283
4.8900,-0.4207764513,0.2553680541,-0.6205612999,0.6104408309
4.8950,-0.4202488071,0.2534239486,-0.6220184729,0.610131348
4.9000,-0.4197151986,0.2514751769,-0.6234782418,0.6098149469
4.9050,-0.4191742724,0.2495215301,-0.6249420167,0.6094911083
4.9100,-0.4186278461,0.2475637292,-0.6264084342,0.609159585
4.9150,-0.4180756551,0.2455997137,-0.627877642,0.608821151
4.9200,-0.4175170045,0.2436301745,-0.6293497648,0.6084757699
4.9250,-0.4169520049,0.2416540872,-0.630823438,0.608125084
4.9300,-0.4163826341,0.2396708746,-0.6322983866,0.60776815
4.9350,-0.415807587,0.2376796508,-0.6337734159,0.6074073523
4.9400,-0.4152290738,0.2356809745,-0.6352481204,0.6070412836
4.9450,-0.414645385,0.233673817,-0.6367235193,0.6066703486
4.9500,-0.4140568219,0.2316583439,-0.6381993343,0.6062944578
4.9550,-0.4134635351,0.2296335664,-0.639675386,0.6059139632
4.9600,-0.4128660842,0.2276014947,-0.6411504551,0.605528901
4.9650,-0.4122618003,0.2255615281,-0.6426254128,0.605140301
4.9700,-0.4116508677,0.2235163538,-0.64409987,0.6047473523
4.9750,-0.4110309661,0.2214661548,-0.6455746192,0.6043506418
4.9800,-0.4104026302,0.2194097293,-0.6470490072,0.603950854
4.9850,-0.4097654498,0.217348295,-0.6485219065,0.6035489472
4.9900,-0.4091199298,0.2152815212,-0.6499921042,0.6031459311
4.9950,-0.4084658607,0.2132100697,-0.6514597427,0.6027414956
5.0000,-0.407801609,0.2111363048,-0.6529263144,0.6023342398
5.0050,-0.407127112,0.2090581612,-0.6543896583,0.6019272174
5.0100,-0.4064431525,0.2069770506,-0.6558501959,0.6015188982
5.0150,-0.4057490117,0.2048937515,-0.6573073962,0.6011100374
5.0200,-0.4050458869,0.2028052363,-0.6587601348,0.600702048
5.0250,-0.4043341715,0.2007133747,-0.660209537,0.6002927504
5.0300,-0.4036144728,0.1986154031,-0.6616547445,0.5998835537
5.0350,-0.4028871985,0.1965101744,-0.6630946269,0.599475748
5.0400,-0.4021536039,0.1943977853,-0.6645278192,0.5990699103
5.0450,-0.4014145613,0.1922761447,-0.665954194,0.5986662222
5.0500,-0.4006695326,0.1901450987,-0.6673732156,0.5982656251
5.0550,-0.3999172709,0.188005068,-0.6687851445,0.5978684649
5.0600,-0.3991565708,0.1858566336,-0.6701913078,0.5974738109
5.0650,-0.3983852904,0.1837004415,-0.6715934478,0.5970808564
5.0700,-0.3976028721,0.1815370294,-0.6729925808,0.5966885697
5.0750,-0.3968061352,0.1793691222,-0.674390738,0.5962958507
5.0800,-0.3959952072,0.1771947017,-0.6757879479,0.5959030819
5.0850,-0.3951697283,0.1750137541,-0.6771844626,0.5955100968
5.0900,-0.3943312084,0.1728250528,-0.6785809398,0.5951153731
5.0950,-0.3934798833,0.1706289521,-0.6799760607,0.5947200173
5.1000,-0.3926153386,0.1684247252,-0.6813702625,0.594323879
5.1050,-0.3917382488,0.1662132447,-0.6827625233,0.5939273007
5.1100,-0.3908488407,0.1639931236,-0.6841537625,0.5935293323
5.1150,-0.3899480277,0.1617646876,-0.685544387,0.5931286664
5.1200,-0.3890352862,0.1595255676,-0.6869347377,0.5927257423
5.1250,-0.3881116308,0.1572754846,-0.6883242328,0.5923204661
5.1300,-0.3871761334,0.1550151824,-0.6897125191,0.5919134869
5.1350,-0.3862292412,0.1527442702,-0.69110118,0.5915025953
5.1400,-0.3852686178,0.1504608829,-0.6924904992,0.5910892685
5.1450,-0.3842944218,0.1481664988,-0.6938813414,0.5906717955
5.1500,-0.3833066207,0.1458582771,-0.6952727128,0.5902518551
5.1550,-0.3823053759,0.1435370393,-0.6966666805,0.5898264611
5.1600,-0.3812918492,0.1412002729,-0.6980627069,0.5893958482
5.1650,-0.3802658956,0.1388474863,-0.6994612409,0.5889594185
5.1700,-0.3792277179,0.1364766177,-0.7008625826,0.5885168741
5.1750,-0.3781769076,0.134089367,-0.7022659671,0.5880686862
5.1800,-0.3771141011,0.1316859566,-0.7036717855,0.5876136332
5.1850,-0.3760402327,0.1292667464,-0.7050790679,0.5871519051
5.1900,-0.3749539385,0.1268313331,-0.7064892386,0.5866824632
5.1950,-0.3738557175,0.1243798435,-0.7079008068,0.5862064524
5.2000,-0.3727476061,0.1219113025,-0.7093140358,0.5857221654
5.2050,-0.371628632,0.1194273271,-0.7107278794,0.5852308561
5.2100,-0.3704959583,0.1169272943,-0.7121439808,0.5847321638
5.2150,-0.3693472799,0.1144135531,-0.7135633627,0.5842255156
5.2200,-0.3681824992,0.1118847186,-0.7149857976,0.583711201
5.2250,-0.3670028277,0.109341079,-0.7164109691,0.5831884569
5.2300,-0.3658071351,0.1067816656,-0.7178393534,0.5826572565
5.2350,-0.3645965807,0.1042071517,-0.719271246,0.5821160345
5.2400,-0.3633700737,0.1016159085,-0.7207070672,0.5815648888
5.2450,-0.3621292174,0.09900700907,-0.7221468781,0.5810025203
5.2500,-0.3608757688,0.09637923408,-0.7235895984,0.5804289929
5.2550,-0.3596120885,0.09373119618,-0.7250339751,0.5798442408
5.2600,-0.3583372755,0.09106130392,-0.7264800423,0.5792486374
5.2650,-0.3570517934,0.08836942001,-0.7279285972,0.5786404928
5.2700,-0.3557558742,0.08565410932,-0.729379012,0.5780202318
5.2750,-0.3544514271,0.08291599062,-0.7308307472,0.5773868229
5.2800,-0.3531379101,0.08015497493,-0.7322828353,0.5767414028
5.2850,-0.351815504,0.07737170268,-0.7337356975,0.5760828039
5.2900,-0.3504803836,0.07456792841,-0.7351902689,0.5754114991
5.2950,-0.3491313116,0.07174523436,-0.7366477038,0.5747261166
5.3000,-0.3477681369,0.06890320889,-0.7381073822,0.5740271449
5.3050,-0.346390407,0.06604179182,-0.7395699478,0.573313579
5.3100,-0.3449982505,0.06315896817,-0.7410356356,0.5725847873
5.3150,-0.3435928257,0.06025421621,-0.7425033498,0.57184104
5.3200,-0.3421748638,0.05732821354,-0.7439735623,0.5710807099
5.3250,-0.3407447176,0.05437924204,-0.7454436952,0.5703066129
5.3300,-0.339303644,0.05141017929,-0.7469143907,0.5695163945
5.3350,-0.3378513256,0.04842181008,-0.7483850411,0.5687105067
5.3400,-0.3363873006,0.0454147165,-0.7498563466,0.5678877944
5.3450,-0.334909941,0.04239007929,-0.7513292667,0.5670473928
5.3500,-0.3334198751,0.03934922857,-0.7528025424,0.5661900363
5.3550,-0.3319181684,0.03628982095,-0.7542770066,0.5653136967
5.3600,-0.3304058943,0.03321336315,-0.7557505983,0.5644199241
5.3650,-0.3288834538,0.03012029421,-0.757221759,0.5635101147
5.3700,-0.3273514566,0.02701027024,-0.7586899666,0.5625842193
5.3750,-0.3258104019,0.0238810416,-0.7601543094,0.5616428615
5.3800,-0.3242623883,0.02073296551,-0.7616133477,0.5606863261
5.3850,-0.3227094645,0.01756359274,-0.7630644438,0.5597166929
5.3900,-0.3211507666,0.01437535242,-0.7645058496,0.5587363781
5.3950,-0.3195879831,0.01116917706,-0.7659361698,0.5577459587
5.4000,-0.3180213417,0.007945306839,-0.7673545841,0.5567461186
5.4050,-0.3164504828,0.004703627729,-0.7687610848,0.5557367744
5.4100,-0.314875056,0.001446826515,-0.7701547845,0.5547190403
5.4150,-0.3132926804,-0.001824480763,-0.771535395,0.5536944121
5.4200,-0.3117037311,-0.005108271491,-0.7729026932,0.552662751
5.4250,-0.3101065019,-0.008402889115,-0.774256619,0.551624906
5.4300,-0.3084976633,-0.01170551788,-0.7755981959,0.5505811576
5.4350,-0.3068741291,-0.01501464295,-0.7769281132,0.5495321066
5.4400,-0.3052375349,-0.01832866939,-0.7782467521,0.5484761617
5.4450,-0.3035888559,-0.0216491992,-0.7795517975,0.5474158509
5.4500,-0.3019329949,-0.02497665543,-0.7808429367,0.5463487362
5.4550,-0.3002710692,-0.02831227338,-0.7821178689,0.545277305
5.4600,-0.2986066786,-0.0316544456,-0.7833751817,0.5442015916
5.4650,-0.2969418551,-0.0350037649,-0.7846143146,0.5431212097
5.4700,-0.2952794533,-0.03835998619,-0.7858331327,0.5420376772
5.4750,-0.2936232549,-0.04172415735,-0.7870295995,0.5409518355
5.4800,-0.2919760105,-0.0450961708,-0.7882034325,0.5398626618
5.4850,-0.2903355399,-0.04847422196,-0.7893542518,0.5387721126
5.4900,-0.288701874,-0.05185636139,-0.7904812321,0.5376816599
5.4950,-0.2870714829,-0.05523885461,-0.7915865795,0.5365904581
5.5000,-0.2854421842,-0.05862026204,-0.7926704212,0.5354997925
5.5050,-0.2838131959,-0.06199998403,-0.7937338159,0.5344087399
5.5100,-0.2821875016,-0.06537900851,-0.7947751271,0.5333181944
5.5150,-0.2805698242,-0.0687586496,-0.7957917641,0.5322295463
5.5200,-0.2789609947,-0.07213931174,-0.7967838686,0.5311423067
5.5250,-0.2773632976,-0.07552256107,-0.797751979,0.5300544537
5.5300,-0.275775549,-0.07890805144,-0.7986961879,0.5289666959
5.5350,-0.274198624,-0.08229559515,-0.7996172453,0.5278776474
5.5400,-0.2726327419,-0.08568514318,-0.8005165434,0.5267852581
5.5450,-0.2710744281,-0.08907638936,-0.8013948475,0.5256903553
5.5500,-0.2695220147,-0.09247014218,-0.8022537384,0.5245913607
5.5550,-0.2679705984,-0.09586291992,-0.8030962248,0.5234868793
5.5600,-0.2664174643,-0.09925498085,-0.8039242694,0.5223752985
5.5650,-0.2648581938,-0.1026432109,-0.8047401623,0.5212559636
5.5700,-0.2632889645,-0.1060290387,-0.8055462846,0.5201268571
5.5750,-0.2617071417,-0.1094117377,-0.806343535,0.518988003
5.5800,-0.2601117749,-0.1127921728,-0.807133402,0.5178372927
5.5850,-0.2585004119,-0.1161711928,-0.8079161629,0.5166752023
5.5900,-0.256874274,-0.1195481952,-0.8086919773,0.515500846
5.5950,-0.2552330704,-0.1229245489,-0.8094611273,0.5143134437
5.6000,-0.2535749643,-0.1263023309,-0.8102243131,0.5131120941
5.6050,-0.2518999246,-0.1296793146,-0.810981364,0.5118973829
5.6100,-0.2502052429,-0.133055245,-0.8117333131,0.5106688424
5.6150,-0.2484891072,-0.1364285344,-0.8124809537,0.509426264
5.6200,-0.2467510278,-0.1397985703,-0.8132241011,0.5081701009
5.6250,-0.2449882888,-0.1431647006,-0.8139644085,0.5068989529
5.6300,-0.2432001049,-0.1465280812,-0.8147012963,0.5056135166
5.6350,-0.2413863659,-0.1498889161,-0.8154354806,0.504312316
5.6400,-0.23954806,-0.1532461085,-0.8161662086,0.5029961005
5.6450,-0.2376867715,-0.1566009313,-0.8168927548,0.5016646032
5.6500,-0.2358013767,-0.1599541621,-0.8176161777,0.5003160628
5.6550,-0.2338928224,-0.1633034378,-0.818335954,0.4989513014
5.6600,-0.2319617078,-0.1666518894,-0.8190524793,0.4975680355
5.6650,-0.2300113907,-0.1700010916,-0.8197662529,0.4961629568
5.6700,-0.22804375,-0.1733516435,-0.8204757517,0.4947370986
5.6750,-0.2260591548,-0.1767020332,-0.8211813415,0.493289828
5.6800,-0.2240591089,-0.1800515771,-0.8218837949,0.4918190449
5.6850,-0.2220453687,-0.1834005518,-0.8225833406,0.4903230971
5.6900,-0.220020958,-0.1867508055,-0.8232784673,0.4888020867
5.6950,-0.2179858397,-0.1901004836,-0.8239690119,0.4872566544
5.7000,-0.2159389064,-0.1934492358,-0.8246546141,0.4856877076
5.7050,-0.2138812391,-0.1967966102,-0.8253347315,0.4840955388
5.7100,-0.2118130494,-0.2001434233,-0.8260097103,0.4824788085
5.7150,-0.2097391641,-0.2034884598,-0.8266783985,0.480837556
5.7200,-0.2076594397,-0.2068323725,-0.8273395501,0.4791734504
5.7250,-0.2055774436,-0.2101741002,-0.8279921146,0.4774869846
5.7300,-0.2034951849,-0.2135151536,-0.8286340757,0.4757799465
5.7350,-0.2014162543,-0.2168543094,-0.829264014,0.4740536849
5.7400,-0.1993390421,-0.2201906229,-0.8298816157,0.4723097923
5.7450,-0.1972624024,-0.2235236787,-0.8304869087,0.4705488329
5.7500,-0.195186447,-0.2268524438,-0.8310785732,0.4687735326
5.7550,-0.1931119629,-0.2301755862,-0.8316558862,0.4669854989
5.7600,-0.1910406073,-0.2334922117,-0.832218721,0.4651847738
5.7650,-0.1889718239,-0.2368032216,-0.8327663378,0.4633725397
5.7700,-0.1869069155,-0.2401076686,-0.833298012,0.4615501442
5.7750,-0.1848421029,-0.2434038522,-0.8338153034,0.4597173061
5.7800,-0.1827769744,-0.2466936193,-0.8343166458,0.4578761517
5.7850,-0.1807125985,-0.2499783667,-0.8348016886,0.4560262203
5.7900,-0.1786489507,-0.2532557946,-0.8352708615,0.4541680779
5.7950,-0.1765867524,-0.2565286186,-0.835721935,0.4523041389
5.8000,-0.1745246216,-0.2597941064,-0.8361549125,0.4504366115
5.8050,-0.1724621376,-0.2630530562,-0.8365688976,0.4485670298
5.8100,-0.1703997331,-0.2663038273,-0.8369644372,0.4466953474
5.8150,-0.1683339635,-0.2695471481,-0.8373414554,0.4448227724
5.8200,-0.1662653465,-0.2727808522,-0.8376992734,0.4429518807
5.8250,-0.1641921688,-0.2760039894,-0.8380378905,0.4410841457
5.8300,-0.1621141713,-0.2792124525,-0.8383581467,0.4392209236
5.8350,-0.1600284518,-0.2824061129,-0.83865967,0.4373644247
5.8400,-0.157933856,-0.2855842327,-0.8389416777,0.4355173987
5.8450,-0.1558320152,-0.2887455493,-0.8392044368,0.4336799557
5.8500,-0.1537208124,-0.2918869227,-0.8394486055,0.431854113
5.8550,-0.1516015914,-0.2950097086,-0.839674161,0.4300389896
5.8600,-0.1494750632,-0.2981115356,-0.8398811129,0.428236423
5.8650,-0.1473441993,-0.3011938115,-0.8400684602,0.4264468982
5.8700,-0.1452117034,-0.304255481,-0.8402367911,0.4246696344
5.8750,-0.1430780363,-0.3072967524,-0.8403871329,0.4229028828
5.8800,-0.1409429731,-0.3103163109,-0.8405205385,0.421146162
5.8850,-0.1388093022,-0.3133161839,-0.8406373798,0.4193968791
5.8900,-0.1366799968,-0.3162973901,-0.8407385899,0.417651964
5.8950,-0.1345558611,-0.3192598907,-0.840824279,0.4159114982
5.9000,-0.1324410504,-0.3222023061,-0.8408956986,0.4141732321
5.9050,-0.1303374201,-0.3251281163,-0.8409525472,0.4124350594
5.9100,-0.1282472665,-0.328034605,-0.8409957471,0.410697078
5.9150,-0.1261723435,-0.3309237992,-0.8410253987,0.4089575254
5.9200,-0.1241130007,-0.3337948476,-0.8410424349,0.4072156498
5.9250,-0.1220703245,-0.3366468637,-0.8410469894,0.4054721774
5.9300,-0.120043196,-0.3394795757,-0.8410401345,0.4037260716
5.9350,-0.1180301207,-0.3422909595,-0.8410235779,0.4019765305
5.9400,-0.1160290792,-0.3450812222,-0.8409980816,0.4002229749
5.9450,-0.1140401675,-0.347849714,-0.8409643108,0.398465111
5.9500,-0.1120658352,-0.3505971057,-0.840922683,0.3967013478
5.9550,-0.110106945,-0.3533227439,-0.8408744102,0.3949300262
5.9600,-0.1081646496,-0.3560269767,-0.8408193968,0.3931512971
5.9650,-0.1062391604,-0.358707357,-0.840758232,0.3913666672
5.9700,-0.1043302634,-0.3613655448,-0.8406923736,0.3895721655
5.9750,-0.1024415061,-0.3640015248,-0.8406214077,0.3877683286
5.9800,-0.1005735073,-0.3666167335,-0.840544493,0.38595608
5.9850,-0.09872368567,-0.3692087382,-0.8404638296,0.3841342117
5.9900,-0.09689150381,-0.3717770138,-0.8403806588,0.3823012382
5.9950,-0.09507632665,-0.3743237444,-0.8402950983,0.3804554826
6.0000,-0.09327896063,-0.3768485025,-0.8402069892,0.3785980151
6.0050,-0.09149865761,-0.3793499425,-0.8401178975,0.3767274016
6.0100,-0.08973380238,-0.3818287182,-0.840027742,0.3748440575
6.0150,-0.08798108173,-0.384286545,-0.839936615,0.3729472661
6.0200,-0.08623910147,-0.3867225919,-0.83984556,0.3710362378
6.0250,-0.08450702402,-0.3891379878,-0.8397546094,0.3691102619
6.0300,-0.08278485452,-0.3915338117,-0.8396642492,0.367167388
6.0350,-0.08107321467,-0.3939129445,-0.8395739399,0.3652058673
6.0400,-0.07937320117,-0.3962762424,-0.8394827941,0.3632267516
6.0450,-0.0776867756,-0.3986254588,-0.8393897885,0.3612302472
6.0500,-0.07601102393,-0.4009588085,-0.8392964037,0.3592156801
6.0550,-0.0743437335,-0.4032777818,-0.839201329,0.3571850633
6.0600,-0.0726821656,-0.4055816885,-0.839104194,0.3551407446
6.0650,-0.07102445141,-0.4078673945,-0.8390052182,0.3530863346
6.0700,-0.06936652785,-0.4101344305,-0.8389042744,0.3510237202
6.0750,-0.06770753382,-0.4123823156,-0.838800943,0.3489548591
6.0800,-0.06604521406,-0.4146086453,-0.8386955657,0.3468824713
6.0850,-0.06437945808,-0.4168138474,-0.8385869443,0.3448092788
6.0900,-0.0627098033,-0.4189976699,-0.8384751271,0.3427358959
6.0950,-0.06103883165,-0.4211594113,-0.8383598619,0.3406636953
6.1000,-0.05936600293,-0.423300982,-0.8382401441,0.3385932917
6.1050,-0.0576944991,-0.4254221905,-0.8381158021,0.336525195
6.1100,-0.05602500449,-0.4275224977,-0.837986393,0.3344615343
6.1150,-0.0543571916,-0.4296012645,-0.8378522223,0.3324029224
6.1200,-0.05269173753,-0.4316587573,-0.8377130857,0.3303499418
6.1250,-0.05102786585,-0.4336931852,-0.8375694639,0.328304388
6.1300,-0.049365162,-0.4357055178,-0.8374201418,0.3262687368
6.1350,-0.04770456019,-0.4376958975,-0.8372657453,0.3242416506
6.1400,-0.04604767585,-0.4396637435,-0.8371064288,0.3222238833
6.1450,-0.04439479727,-0.4416099063,-0.8369414751,0.320216739
6.1500,-0.04274672401,-0.4435364734,-0.8367703272,0.3182193173
6.1550,-0.04110568746,-0.4454431743,-0.8365928543,0.3162326628
6.1600,-0.03947128601,-0.4473325607,-0.8364083943,0.3142556216
6.1650,-0.03784469923,-0.4492042479,-0.8362175377,0.3122876111
6.1700,-0.03622730052,-0.4510597791,-0.836019326,0.3103294134
6.1750,-0.03461911351,-0.4528993232,-0.8358133649,0.3083824561
6.1800,-0.03302253103,-0.4547239266,-0.8355999096,0.3064448631
6.1850,-0.03143766567,-0.4565315223,-0.835379823,0.3045179692
6.1900,-0.02986449989,-0.4583234536,-0.8351524912,0.3026021149
6.1950,-0.02830540114,-0.4601005052,-0.8349178894,0.3006966035
6.2000,-0.02676043394,-0.4618638185,-0.8346750801,0.29880295
6.2050,-0.02522879088,-0.4636115538,-0.834424899,0.2969224197
6.2100,-0.02371093566,-0.4653438852,-0.8341679135,0.2950538122
6.2150,-0.02220795002,-0.4670607415,-0.8339041972,0.2931976476
6.2200,-0.02071923002,-0.4687627171,-0.8336332172,0.2913552602
6.2250,-0.01924641623,-0.4704487884,-0.8333566387,0.2895241367
6.2300,-0.01779083842,-0.4721195013,-0.833074412,0.2877041651
6.2350,-0.01635395971,-0.4737761098,-0.8327860098,0.2858954488
6.2400,-0.01493840182,-0.475419487,-0.8324916243,0.2840965523
6.2450,-0.01354499531,-0.4770481067,-0.8321932045,0.28230499
6.2500,-0.01217347327,-0.4786628369,-0.8318899676,0.2805223288
6.2550,-0.01082515642,-0.4802650622,-0.8315819351,0.2787467871
6.2600,-0.009499002427,-0.4818522291,-0.8312706768,0.2769788083
6.2650,-0.008194813367,-0.4834268846,-0.8309550877,0.2752179763
6.2700,-0.006911582992,-0.4849869199,-0.8306366593,0.2734641801
6.2750,-0.00564783107,-0.4865333878,-0.8303145518,0.2717188061
6.2800,-0.004401926392,-0.4880649766,-0.8299903676,0.2699799832
6.2850,-0.003174755307,-0.4895833538,-0.8296628133,0.2682492812
6.2900,-0.001964015158,-0.491089869,-0.8293310361,0.266527514
6.2950,-0.0007681328868,-0.4925830091,-0.8289964926,0.2648135276
6.3000,0.0004126458457,-0.4940642533,-0.8286586821,0.2631066931
6.3050,0.001581616608,-0.4955337517,-0.8283174579,0.2614077054
6.3100,0.002738314159,-0.4969910241,-0.8279734113,0.2597161024
6.3150,0.003883372569,-0.4984363862,-0.8276267619,0.2580310666
6.3200,0.00501741088,-0.4998704217,-0.8272771747,0.2563530053
6.3250,0.006141860909,-0.5012932798,-0.8269249479,0.2546810862
6.3300,0.007256650535,-0.5027056462,-0.8265701793,0.2530140568
6.3350,0.008364321086,-0.5041061627,-0.8262137773,0.2513519624
6.3400,0.009465828715,-0.5054966042,-0.8258548935,0.2496943655
6.3450,0.01056335361,-0.5068752378,-0.8254949344,0.2480403641
6.3500,0.01165906037,-0.5082434132,-0.8251328713,0.2463908359
6.3550,0.01275300574,-0.5096008298,-0.8247700958,0.2447419953
6.3600,0.01384871974,-0.5109484381,-0.824405615,0.2430952253
6.3650,0.01494650848,-0.5122868572,-0.8240394486,0.2414493009
6.3700,0.01604653776,-0.5136160216,-0.8236718795,0.2398035152
6.3750,0.01714988759,-0.5149365563,-0.8233026905,0.2381573097
6.3800,0.01825725145,-0.5162504081,-0.8229310881,0.2365092244
6.3850,0.01936886307,-0.5175556798,-0.8225586382,0.2348579404
6.3900,0.02048383588,-0.5188535439,-0.8221844456,0.2332040949
6.3950,0.02160568415,-0.5201438029,-0.8218087553,0.2315469465
6.4000,0.02273283229,-0.5214249058,-0.8214328615,0.229885493
6.4050,0.0238654824,-0.5226978556,-0.8210558809,0.228220575
6.4100,0.02500535231,-0.5239634337,-0.820677675,0.2265506703
6.4150,0.02615236445,-0.5252205569,-0.8202989074,0.2248757943
6.4200,0.02730840577,-0.5264692408,-0.8199189491,0.2231979084
6.4250,0.02847307136,-0.5277105777,-0.8195374543,0.2215156686
6.4300,0.0296479995,-0.5289447859,-0.8191545014,0.2198279156
6.4350,0.03083109147,-0.5301715234,-0.818770093,0.2181355871
6.4400,0.03202460873,-0.5313912441,-0.8183837047,0.2164390953
6.4450,0.03322732247,-0.532603798,-0.81799602,0.2147362351
6.4500,0.03443634528,-0.5338086235,-0.817607292,0.2130277157
6.4550,0.03565214316,-0.5350054832,-0.817218012,0.2113120404
6.4600,0.03687255378,-0.5361938237,-0.8168290218,0.2095875649
6.4650,0.038096308,-0.5373750522,-0.8164391797,0.2078552151
6.4700,0.03932247741,-0.5385478202,-0.8160495875,0.206114189
6.4750,0.04054975299,-0.5397125063,-0.8156605893,0.2043622546
6.4800,0.04177762578,-0.5408695496,-0.8152710275,0.2026028432
6.4850,0.04300697254,-0.542019418,-0.814880576,0.2008357481
6.4900,0.04423952114,-0.5431603381,-0.8144897156,0.1990633443
6.4950,0.04547496664,-0.544292771,-0.8140978862,0.1972866914
6.5000,0.04671353046,-0.5454160642,-0.813705107,0.195507447
6.5050,0.04795441556,-0.5465292645,-0.8133120445,0.193725722
6.5100,0.04919527408,-0.5476332269,-0.8129178665,0.1919432629
6.5150,0.05043562585,-0.5487273834,-0.8125229043,0.1901605541
6.5200,0.05167234903,-0.5498110297,-0.8121277704,0.1883780361
6.5250,0.05290420218,-0.5508850427,-0.8117317633,0.1865967833
6.5300,0.05412811917,-0.5519481964,-0.811335789,0.1848176742
6.5350,0.05534149694,-0.5529987892,-0.8109410704,0.1830416298
6.5400,0.05654334055,-0.5540366233,-0.8105474568,0.1812707668
6.5450,0.05773106479,-0.5550622547,-0.8101543868,0.1795073454
6.5500,0.05890385128,-0.5560742455,-0.8097632449,0.1777505473
6.5550,0.06005935943,-0.5570721216,-0.8093737955,0.1760044996
6.5600,0.06119542089,-0.5580578264,-0.8089851462,0.1742688043
6.5650,0.06231138069,-0.5590281857,-0.8085994886,0.1725446214
6.5700,0.06340710298,-0.5599848395,-0.8082154024,0.1708343705
6.5750,0.06448072513,-0.5609275348,-0.807833638,0.1691370746
6.5800,0.0655313325,-0.5618572282,-0.8074536446,0.1674536097
6.5850,0.06655755615,-0.5627725677,-0.8070766873,0.1657840448
6.5900,0.06755780219,-0.5636738994,-0.8067028224,0.164128714
6.5950,0.06853010108,-0.5645621786,-0.8063316573,0.1624882464
6.6000,0.0694727563,-0.5654369654,-0.8059643839,0.1608601447
6.6050,0.0703842761,-0.5663003674,-0.8055997217,0.159245207
6.6100,0.07126485737,-0.567151917,-0.8052384726,0.15764208
6.6150,0.07211502602,-0.5679926847,-0.8048798762,0.1560516516
6.6200,0.07293601348,-0.5688224758,-0.8045241704,0.1544739078
6.6250,0.07372701157,-0.5696418473,-0.8041714826,0.1529075539
6.6300,0.07448889082,-0.5704518467,-0.8038208864,0.1513541487
6.6350,0.07522095879,-0.5712543278,-0.8034715382,0.1498125079
6.6400,0.07592441791,-0.5720490529,-0.803123574,0.1482831372
6.6450,0.07659887897,-0.5728365427,-0.8027772339,0.1467638231
6.6500,0.0772423437,-0.5736176778,-0.8024322241,0.1452546243
6.6550,0.07785394248,-0.5743932134,-0.8020884157,0.1437545601
6.6600,0.07843280663,-0.5751643669,-0.8017455771,0.1422612931
6.6650,0.07897766646,-0.575932072,-0.8014035405,0.1407733706
6.6700,0.07949012795,-0.5766972552,-0.8010619745,0.1392885792
6.6750,0.07996927424,-0.5774611173,-0.800720285,0.1378063798
6.6800,0.08041642207,-0.5782229687,-0.8003788197,0.1363273357
6.6850,0.08083485566,-0.5789840859,-0.8000364327,0.1348512544
6.6900,0.08122662033,-0.5797455395,-0.79969206,0.1333789892
6.6950,0.08159349782,-0.5805063332,-0.7993463105,0.1319104776
6.7000,0.08193854158,-0.5812690043,-0.798997307,0.1304443307
6.7050,0.08226308711,-0.5820325287,-0.7986457617,0.1289801048
6.7100,0.08256837447,-0.5827960961,-0.7982919402,0.1275192221
6.7150,0.08285425896,-0.5835610903,-0.7979352279,0.126059501
6.7200,0.08312089118,-0.5843263692,-0.7975769536,0.1245978118
6.7250,0.08336866663,-0.5850911305,-0.7972175066,0.1231352163
6.7300,0.08359493037,-0.5858554371,-0.7968575762,0.1216688033
6.7350,0.08380032877,-0.5866177832,-0.7964980337,0.1201996825
6.7400,0.08398209015,-0.5873769123,-0.796140215,0.1187271221
6.7450,0.08414237824,-0.588131784,-0.7957843108,0.1172535526
6.7500,0.08428294107,-0.5888806336,-0.7954316423,0.1157777515
6.7550,0.0844055671,-0.589623629,-0.7950815464,0.1143022789
6.7600,0.08451182111,-0.5903597268,-0.7947343283,0.1128294845
6.7650,0.08460210766,-0.5910875978,-0.794391164,0.1113580425
6.7700,0.08467897729,-0.5918065417,-0.7940520515,0.1098900702
6.7750,0.08474200275,-0.5925148803,-0.7937178901,0.1084288729
6.7800,0.08479446493,-0.5932105224,-0.7933901617,0.1069730156
6.7850,0.08483462115,-0.5938931083,-0.7930689644,0.1055257351
6.7900,0.0848635391,-0.5945623227,-0.7927545826,0.1040864832
6.7950,0.0848839586,-0.5952159238,-0.7924480856,0.1026584102
6.8000,0.08489804731,-0.5958530374,-0.7921499387,0.1012420565
6.8050,0.08490566206,-0.5964732737,-0.7918602856,0.09983962332
6.8100,0.08491106996,-0.5970750479,-0.791579782,0.09845276085
6.8150,0.08491570192,-0.5976575303,-0.7913088466,0.09708300201
6.8200,0.08492047001,-0.5982202669,-0.7910477702,0.09573114065
6.8250,0.08492783489,-0.5987621286,-0.7907969809,0.09439974191
6.8300,0.08494094651,-0.5992833785,-0.7905558366,0.09309101473
6.8350,0.08496218503,-0.5997843393,-0.7903240847,0.09180421884
6.8400,0.08499031093,-0.600265906,-0.7901015731,0.09053724864
6.8450,0.08502748363,-0.6007274521,-0.7898885925,0.08929091064
6.8500,0.08507175453,-0.6011692146,-0.7896854508,0.08806395811
6.8550,0.08512449049,-0.6015908159,-0.7894924256,0.08685632536
6.8600,0.08518681437,-0.6019909199,-0.7893104918,0.08566846891
6.8650,0.08525860676,-0.6023723177,-0.7891378231,0.08449885783
6.8700,0.08533884654,-0.6027347353,-0.7889749848,0.08334622632
6.8750,0.08542907072,-0.6030793602,-0.7888208011,0.08221254678
6.8800,0.08553160861,-0.6034059419,-0.7886751572,0.08109938105
6.8850,0.08564863183,-0.6037161227,-0.7885366854,0.08000656715
6.8900,0.0857826181,-0.6040089359,-0.7884059463,0.07893422358
6.8950,0.08593663051,-0.604286967,-0.7882805317,0.07788427578
6.9000,0.08611387651,-0.6045505529,-0.7881596512,0.07685956976
6.9050,0.08631732958,-0.6048003535,-0.7880427345,0.07585841794
6.9100,0.08654957428,-0.6050371074,-0.7879288156,0.07488291745
6.9150,0.08681131226,-0.6052609702,-0.787817684,0.07393409819
6.9200,0.08710321436,-0.6054726126,-0.7877088397,0.07301184319
6.9250,0.08742560966,-0.6056730498,-0.7876014995,0.07211655545
6.9300,0.0877791845,-0.6058623597,-0.7874954274,0.071250037
6.9350,0.08816257183,-0.6060413043,-0.7873903856,0.07041078824
6.9400,0.08857449764,-0.6062102567,-0.7872863537,0.06959799083
6.9450,0.08901304867,-0.6063700799,-0.7871828941,0.06881202333
6.9500,0.08947727598,-0.6065211839,-0.7870799401,0.06805173381
6.9550,0.08996542126,-0.606664619,-0.786977027,0.06731583721
6.9600,0.09047537545,-0.6067997321,-0.7868750232,0.06660322388
6.9650,0.09100617733,-0.606927683,-0.7867732931,0.06591243074
6.9700,0.0915549821,-0.6070480487,-0.7866724973,0.06524364957
6.9750,0.09212026461,-0.6071609708,-0.78657283,0.06459563069
6.9800,0.09269839383,-0.6072671433,-0.7864743865,0.06396611436
6.9850,0.09328279408,-0.6073672209,-0.7863775228,0.06335432933
6.9900,0.09387146145,-0.6074613748,-0.7862825194,0.06275847749
6.9950,0.09445846805,-0.6075509764,-0.7861893675,0.06217465121
7.0000,0.09503968171,-0.6076364105,-0.7860982751,0.06160319317
7.0050,0.09561270432,-0.6077178516,-0.7860095484,0.06104271803
7.0100,0.0961762095,-0.6077967035,-0.7859224022,0.06049199638
7.0150,0.09672911458,-0.6078724763,-0.7858373932,0.05995100015
7.0200,0.09727222221,-0.6079458492,-0.7857538705,0.05942065431
7.0250,0.09780471261,-0.6080180194,-0.7856709732,0.05890202108
7.0300,0.09832840006,-0.6080885164,-0.7855888609,0.0583954074
7.0350,0.09884347681,-0.6081584826,-0.7855067541,0.05789962346
7.0400,0.09935065639,-0.6082292909,-0.7854234519,0.05741583334
7.0450,0.09984752479,-0.608300559,-0.785339615,0.05694375173
7.0500,0.100333225,-0.608373591,-0.7852544715,0.05648214515
7.0550,0.100805112,-0.608449361,-0.7851676707,0.05603064576
7.0600,0.1012619465,-0.6085273105,-0.7850798461,0.05558926036
7.0650,0.1017040714,-0.6086074855,-0.7849909152,0.05515862111
7.0700,0.1021284987,-0.6086903551,-0.7849009756,0.05473828522
7.0750,0.1025355308,-0.6087764006,-0.7848097861,0.05432640849
7.0800,0.1029235809,-0.6088660732,-0.7847170781,0.05392539969
7.0850,0.1032934598,-0.608959638,-0.7846227502,0.05353279653
7.0900,0.1036448861,-0.6090572829,-0.7845265483,0.05315128127
7.0950,0.1039755029,-0.6091592529,-0.7844288631,0.05277743916
7.1000,0.1042845595,-0.6092654254,-0.7843298977,0.05241167506
7.1050,0.104573728,-0.6093764657,-0.7842289629,0.05205374252
7.1100,0.1048390292,-0.6094923971,-0.7841266199,0.05170338302
7.1150,0.1050822281,-0.6096127767,-0.7840229505,0.05136147353
7.1200,0.1053029913,-0.6097388734,-0.7839170419,0.05102801015
7.1250,0.1055003958,-0.6098704846,-0.7838093041,0.05070141312
7.1300,0.105674822,-0.6100071442,-0.7837000941,0.0503813316
7.1350,0.1058248159,-0.610149716,-0.7835889493,0.0500678634
7.1400,0.105953803,-0.6102953864,-0.7834775025,0.04976279864
7.1450,0.1060604404,-0.6104461873,-0.7833644207,0.04946534007
7.1500,0.1061463726,-0.610601531,-0.7832499259,0.04917592315
7.1550,0.1062129238,-0.6107627097,-0.7831328608,0.04889426942
7.1600,0.1062591076,-0.6109293597,-0.7830136529,0.04862035481
7.1650,0.1062868325,-0.6111006054,-0.7828927617,0.04835372672
7.1700,0.1062975121,-0.6112762199,-0.7827701184,0.04809535904
7.1750,0.1062903448,-0.6114554399,-0.7826465379,0.04784353989
7.1800,0.1062649394,-0.6116389646,-0.7825215449,0.04759802003
7.1850,0.1062222951,-0.6118255847,-0.782395865,0.04736019749
7.1900,0.1061620961,-0.6120168543,-0.7822683917,0.04712900199
7.1950,0.1060850523,-0.6122111815,-0.7821403726,0.04690275618
7.2000,0.1059920198,-0.6124095605,-0.7820108864,0.0466818541
7.2050,0.1058849205,-0.612609242,-0.7818817064,0.04646824074
7.2100,0.1057648156,-0.6128123728,-0.7817508879,0.04626390386
7.2150,0.1056340676,-0.6130180211,-0.7816189072,0.04606770629
7.2200,0.1054939007,-0.6132271018,-0.7814848961,0.04587935966
7.2250,0.105348329,-0.6134388033,-0.7813488667,0.04570024794
7.2300,0.10519618,-0.6136519976,-0.7812119753,0.0455284452
7.2350,0.1050398648,-0.6138667241,-0.7810737126,0.04536658786
7.2400,0.1048793333,-0.6140825699,-0.7809345587,0.04521214321
7.2450,0.1047148958,-0.6142993496,-0.7807945546,0.0450662087
7.2500,0.1045472844,-0.6145174344,-0.7806533743,0.04492769004
7.2550,0.1043770359,-0.6147353091,-0.7805120662,0.04479786506
7.2600,0.1042042111,-0.6149541753,-0.7803696957,0.04467642291
7.2650,0.1040303539,-0.6151735533,-0.780226478,0.04456262727
7.2700,0.1038530605,-0.6153936529,-0.7800825946,0.04445603931
7.2750,0.103672901,-0.6156151371,-0.7799374507,0.04435657274
7.2800,0.1034917155,-0.6158360992,-0.7797922804,0.0442646951
7.2850,0.1033104305,-0.6160580443,-0.7796458469,0.0441791167
7.2900,0.1031291734,-0.6162801231,-0.7794988337,0.0440993398
7.2950,0.1029495874,-0.616501544,-0.7793515415,0.04402730308
7.3000,0.102773015,-0.6167224043,-0.7792037244,0.04396293214
7.3050,0.102599603,-0.6169425167,-0.7790555608,0.04390541736
7.3100,0.1024314677,-0.6171612656,-0.778907208,0.04385576411
7.3150,0.1022681328,-0.6173784346,-0.7787588613,0.04381476271
7.3200,0.1021080558,-0.617594352,-0.7786105082,0.04378170671
7.3250,0.1019515506,-0.617808027,-0.77846297,0.04375531291
7.3300,0.1017977445,-0.6180202902,-0.778315734,0.04373509142
7.3350,0.1016473948,-0.6182308566,-0.7781687735,0.04372385101
7.3400,0.1015006216,-0.6184391118,-0.7780227182,0.04371885953
7.3450,0.1013581279,-0.61864419,-0.777878163,0.04372024179
7.3500,0.1012199577,-0.6188467132,-0.7777345807,0.04372856861
7.3550,0.1010870181,-0.6190450189,-0.7775932336,0.04374291252
7.3600,0.1009564685,-0.6192401459,-0.7774537385,0.04376205745
7.3650,0.1008275544,-0.6194315957,-0.7773166022,0.04378587106
7.3700,0.1007005859,-0.6196195598,-0.7771816833,0.04381351579
7.3750,0.1005736742,-0.6198037676,-0.7770494679,0.04384461473
7.3800,0.1004439652,-0.6199843707,-0.7769202794,0.04387789155
7.3850,0.1003116796,-0.6201602666,-0.7767949152,0.04391435311
7.3900,0.100175327,-0.6203320204,-0.7766732795,0.04395116735
7.3950,0.1000361662,-0.6204998699,-0.7765549087,0.04399034694
7.4000,0.09989234466,-0.6206636721,-0.7764401971,0.04403119319
7.4050,0.09974385642,-0.6208227095,-0.776329683,0.0440743669
7.4100,0.09959183137,-0.6209778941,-0.7762224899,0.04411993268
7.4150,0.09943532062,-0.6211289856,-0.776118967,0.04416728764
7.4200,0.09927532453,-0.6212748584,-0.7760199199,0.04421588164
7.4250,0.09911133744,-0.621416264,-0.7759246822,0.04426801539
7.4300,0.09894059783,-0.6215525481,-0.7758341811,0.04432281031
7.4350,0.09876426776,-0.6216834532,-0.7757484513,0.04438066738
7.4400,0.09858061054,-0.6218093793,-0.7756673744,0.04444190955
7.4450,0.09839057093,-0.6219293605,-0.7755915658,0.04450718156
7.4500,0.09819489243,-0.6220425669,-0.775521516,0.04457786679
7.4550,0.09799242453,-0.6221481999,-0.7754579549,0.04465492343
7.4600,0.09778358428,-0.6222471402,-0.7754001229,0.04473831302
7.4650,0.09756950957,-0.6223379065,-0.7753489791,0.04482947273
7.4700,0.09734928391,-0.6224208558,-0.7753042677,0.04492980849
7.4750,0.09712284917,-0.6224958733,-0.7752660545,0.04503981127
7.4800,0.0968916995,-0.6225624777,-0.7752344672,0.04516061182
7.4850,0.0966533938,-0.6226204343,-0.7752100142,0.045291833
7.4900,0.09640720506,-0.6226690757,-0.775193154,0.04543618635
7.4950,0.0961526131,-0.6227076426,-0.775184508,0.0455943572
7.5000,0.09588707576,-0.6227357961,-0.7751847152,0.04576520838
7.5050,0.09560748247,-0.6227554946,-0.7751925734,0.04594863877
7.5100,0.09531356967,-0.6227649036,-0.7752096404,0.04614338295
7.5150,0.09500295049,-0.6227636169,-0.7752364329,0.04635072848
7.5200,0.09467399708,-0.622751755,-0.7752730068,0.04657092344
7.5250,0.09432414287,-0.6227294458,-0.7753194982,0.04680458398
7.5300,0.09395634874,-0.6226970735,-0.7753750797,0.04705363975
7.5350,0.09357133649,-0.6226536255,-0.7754404361,0.04731804825
7.5400,0.09317005213,-0.6225992785,-0.7755150514,0.04760131081
7.5450,0.09275350869,-0.6225337689,-0.7755988646,0.04790505649
7.5500,0.09232232098,-0.6224562011,-0.7756924266,0.04822992942
7.5550,0.09187824025,-0.6223667685,-0.7757951984,0.04857782
7.5600,0.09142123162,-0.6222648576,-0.7759075539,0.04894969971
7.5650,0.0909481591,-0.6221505639,-0.7760297361,0.04934528244
7.5700,0.09046054315,-0.6220225724,-0.7761625123,0.04976508936
7.5750,0.08995759681,-0.6218814387,-0.7763054982,0.05020837056
7.5800,0.08943652327,-0.6217283249,-0.7764579949,0.05067524489
7.5850,0.08889790043,-0.6215603936,-0.7766220749,0.05116632808
7.5900,0.08834093394,-0.6213781768,-0.7767973551,0.05168084573
7.5950,0.08776691245,-0.6211825063,-0.7769828736,0.05221950835
7.6000,0.08717443888,-0.6209722848,-0.7771795787,0.05278201606
7.6050,0.08656684249,-0.6207478362,-0.7773866089,0.05337008531
7.6100,0.08594130375,-0.6205091646,-0.7776042504,0.05398239256
7.6150,0.08529917217,-0.6202559964,-0.7778323541,0.05462031688
7.6200,0.08464047209,-0.6199887069,-0.77807059,0.05528246371
7.6250,0.08396674414,-0.6197070608,-0.7783187545,0.05597018081
7.6300,0.08327767426,-0.6194101936,-0.7785773571,0.05668456621
7.6350,0.08257321484,-0.6190991181,-0.7788456935,0.05742239872
7.6400,0.08185325993,-0.6187723033,-0.7791247475,0.05818512055
7.6450,0.08111840873,-0.6184315273,-0.7794130052,0.05897132503
7.6500,0.08036932919,-0.6180766563,-0.7797102869,0.0597819898
7.6550,0.07960714295,-0.6177070579,-0.7800168009,0.06061751937
7.6600,0.07883546768,-0.6173233071,-0.7803316028,0.06147758273
7.6650,0.07805605318,-0.6169237129,-0.7806555836,0.06236380976
7.6700,0.07727032157,-0.6165087302,-0.7809882054,0.06327484468
7.6750,0.07647898717,-0.6160783714,-0.7813291294,0.0642121199
7.6800,0.07568461342,-0.6156329096,-0.7816777721,0.06517530563
7.6850,0.07488796117,-0.6151734478,-0.7820332725,0.06616179447
7.6900,0.07408977161,-0.6147001949,-0.7823953366,0.06717077789
7.6950,0.07328902612,-0.6142125585,-0.7827644684,0.06820145628
7.7000,0.07248636113,-0.6137114125,-0.7831399891,0.06925162144
7.7050,0.07168006323,-0.6131971685,-0.7835218919,0.07031817636
7.7100,0.07087238178,-0.612669092,-0.7839104009,0.07140148906
7.7150,0.07006247096,-0.612128286,-0.7843048564,0.07249899206
7.7200,0.06925099243,-0.61157503,-0.7847049195,0.07361027218
7.7250,0.06843824483,-0.6110086026,-0.7851111401,0.0747341414
7.7300,0.0676255456,-0.6104301552,-0.7855225478,0.07586921689
7.7350,0.06681132991,-0.6098389108,-0.7859399377,0.07701404645
7.7400,0.06599648316,-0.6092361784,-0.786362102,0.07816896902
7.7450,0.06518052716,-0.608620092,-0.7867905952,0.07933247588
7.7500,0.06436290604,-0.6079916553,-0.7872245421,0.08050517852
7.7550,0.0635435357,-0.6073499476,-0.7876647495,0.08168538813
7.7600,0.06272320602,-0.6066952324,-0.7881108285,0.08287349634
7.7650,0.06189853494,-0.6060275633,-0.78856301,0.08406868133
7.7700,0.06107010973,-0.6053455532,-0.7890220495,0.08527255332
7.7750,0.06023837405,-0.604648996,-0.7894882219,0.08648281624
7.7800,0.05939994498,-0.6039378508,-0.7899617818,0.08769892885
7.7850,0.05855527593,-0.6032122398,-0.7904423036,0.08892265241
7.7900,0.05770438285,-0.6024716912,-0.7909301772,0.09015276115
7.7950,0.05684586788,-0.6017154556,-0.7914258592,0.09139019227
7.8000,0.05597989764,-0.6009437094,-0.7919290101,0.09263558783
7.8050,0.05510689183,-0.6001552751,-0.7924402771,0.09388974094
7.8100,0.05422716693,-0.59934891,-0.7929603393,0.09515355413
7.8150,0.05334103,-0.598525944,-0.7934879063,0.09642806328
7.8200,0.0524469944,-0.5976843008,-0.7940245038,0.09771323731
7.8250,0.05154638154,-0.5968243978,-0.7945693887,0.09901058197
7.8300,0.05063799244,-0.595946097,-0.7951228712,0.1003178094
7.8350,0.04971971912,-0.5950489364,-0.7956850061,0.1016370206
7.8400,0.04879008079,-0.5941324382,-0.7962562281,0.1029669515
7.8450,0.04784791438,-0.5931964001,-0.7968367431,0.1043063417
7.8500,0.04689332584,-0.592240469,-0.7974265066,0.1056560898
7.8550,0.04592373435,-0.5912639359,-0.7980261552,0.1070150657
7.8600,0.04493971061,-0.5902661432,-0.7986355783,0.1083859566
7.8650,0.04394222417,-0.5892466636,-0.7992545723,0.1097705751
7.8700,0.04293100179,-0.5882047691,-0.7998833197,0.1111699307
7.8750,0.04190626191,-0.5871379187,-0.8005232144,0.11258558
7.8800,0.04086877789,-0.5860455511,-0.8011742307,0.114018451
7.8850,0.03981779332,-0.5849280943,-0.8018355749,0.11547025
7.8900,0.03875394436,-0.5837847512,-0.8025072371,0.1169428512
7.8950,0.03767578511,-0.582613768,-0.80319032,0.1184358155
7.9000,0.03658181863,-0.5814152283,-0.8038844768,0.1199493676
7.9050,0.03547004578,-0.5801891505,-0.8045897896,0.1214812576
7.9100,0.03434153006,-0.5789350178,-0.8053060019,0.1230331169
7.9150,0.03319463903,-0.5776537513,-0.8060322904,0.1246041989
7.9200,0.0320298582,-0.5763447315,-0.8067687557,0.1261943478
7.9250,0.03084685619,-0.5750081864,-0.8075149671,0.1278031101
7.9300,0.0296462381,-0.5736454547,-0.8082698615,0.1294288373
7.9350,0.02842871864,-0.5722562569,-0.8090330589,0.1310728572
7.9400,0.02719396157,-0.5708412431,-0.8098037961,0.1327349821
7.9450,0.02594460173,-0.5694015801,-0.8105808558,0.1344150083
7.9500,0.02468126447,-0.5679357615,-0.8113651732,0.1361115784
7.9550,0.02340468893,-0.5664462438,-0.8121544717,0.1378259317
7.9600,0.02211529928,-0.5649319296,-0.8129494912,0.1395562723
7.9650,0.02081209646,-0.56339537,-0.8137486028,0.1413001243
7.9700,0.01949672397,-0.5618369218,-0.8145510114,0.1430587322
7.9750,0.01817048991,-0.5602574447,-0.8153562238,0.1448297528
7.9800,0.01683391179,-0.5586559298,-0.8161646152,0.1466134114
7.9850,0.01548774176,-0.5570329693,-0.8169756191,0.1484090255
7.9900,0.01413326376,-0.5553879411,-0.817789256,0.1502172376
7.9950,0.01277193281,-0.5537217583,-0.8186046472,0.1520379023
8.0000,0.01140580524,-0.5520333745,-0.8194221028,0.1538716297
8.0050,0.01003706319,-0.550323649,-0.8202404637,0.1557200064
8.0100,0.008665072744,-0.5485930243,-0.8210594879,0.157581495
8.0150,0.007292897969,-0.5468406019,-0.8218792133,0.159457607
8.0200,0.005920334222,-0.5450657948,-0.8226998846,0.1613478505
8.0250,0.004548788592,-0.5432693169,-0.8235209337,0.1632514306
8.0300,0.003179057694,-0.5414506183,-0.8243421665,0.1651699551
8.0350,0.001811715201,-0.5396104225,-0.8251627733,0.1671038816
8.0400,0.0004470789981,-0.5377486422,-0.8259831969,0.1690501594
8.0450,-0.0009151916818,-0.5358650353,-0.8268030765,0.171010231
8.0500,-0.002274838932,-0.5339616593,-0.8276213294,0.1729818104
8.0550,-0.00363169908,-0.532039533,-0.8284370662,0.1749650634
8.0600,-0.0049856935,-0.5300967398,-0.8292516685,0.1769583559
8.0650,-0.006336873506,-0.5281359008,-0.8300634151,0.1789610048
8.0700,-0.007686157598,-0.5261581222,-0.830871763,0.1809714531
8.0750,-0.009032965149,-0.5241637418,-0.8316762152,0.1829903015
8.0800,-0.01037719826,-0.5221526182,-0.8324768282,0.1850169925
8.0850,-0.01171830552,-0.5201264198,-0.8332727232,0.1870501468
8.0900,-0.01305626452,-0.5180852535,-0.8340638353,0.1890891924
8.0950,-0.01439099608,-0.5160304292,-0.8348497732,0.1911317649
8.1000,-0.01572300705,-0.5139617712,-0.8356305492,0.1931778198
8.1050,-0.01705394238,-0.5118806744,-0.8364053642,0.195226548
8.1100,-0.01838653642,-0.5097881338,-0.8371738702,0.1972762147
8.1150,-0.01972278359,-0.5076838511,-0.8379366446,0.1993246066
8.1200,-0.02106115816,-0.5055683425,-0.8386930068,0.201373084
8.1250,-0.02240177837,-0.5034414764,-0.8394436215,0.203418894
8.1300,-0.02374668943,-0.5013041901,-0.840187378,0.205463801
8.1350,-0.02509498485,-0.4991564292,-0.8409245369,0.2075066847
8.1400,-0.0264453477,-0.4969991182,-0.8416548424,0.2095462868
8.1450,-0.02779738239,-0.4948313137,-0.8423783502,0.2115844789
8.1500,-0.02915194005,-0.4926545495,-0.8430945002,0.2136195753
8.1550,-0.03050774906,-0.4904686888,-0.8438028423,0.2156536712
8.1600,-0.03186645918,-0.4882735875,-0.8445040035,0.217684222
8.1650,-0.03322709216,-0.4860693933,-0.8451976692,0.2197120963
8.1700,-0.03459240084,-0.4838568719,-0.8458840583,0.2217341951
8.1750,-0.03596332889,-0.4816376371,-0.8465619115,0.2237515484
8.1800,-0.03734005552,-0.4794115373,-0.8472315642,0.2257630944
8.1850,-0.03872234478,-0.4771788577,-0.847893403,0.2277667553
8.1900,-0.04011225019,-0.4749387694,-0.8485483993,0.2297602809
8.1950,-0.04150894125,-0.4726928947,-0.8491952925,0.2317450979
8.2000,-0.04291282187,-0.4704412826,-0.8498344103,0.2337198418
8.2050,-0.04432303356,-0.4681829141,-0.8504660362,0.2356856995
8.2100,-0.04574139975,-0.4659190115,-0.8510900625,0.237640284
8.2150,-0.04716906238,-0.4636492003,-0.8517066655,0.2395835024
8.2200,-0.04860525,-0.4613734889,-0.8523162123,0.2415141977
8.2250,-0.05005203435,-0.4590923125,-0.8529184627,0.2434319995
8.2300,-0.05151054897,-0.4568051746,-0.8535135287,0.2453372213
8.2350,-0.05298141102,-0.4545112328,-0.8541026515,0.2472269604
8.2400,-0.05446440232,-0.4522110773,-0.8546852216,0.249102273
8.2450,-0.05596188784,-0.4499045046,-0.8552614925,0.2509621154
8.2500,-0.05747322401,-0.4475913333,-0.8558315175,0.2528067258
8.2550,-0.05900005176,-0.4452708924,-0.8563957693,0.2546352539
8.2600,-0.06054237949,-0.4429443612,-0.8569531522,0.256449231
8.2650,-0.06209801619,-0.4406101603,-0.8575042394,0.2582498837
8.2700,-0.06366824296,-0.4382679066,-0.8580492186,0.2600367962
8.2750,-0.06525162576,-0.4359164417,-0.8585880246,0.2618123091
8.2800,-0.0668475599,-0.4335568745,-0.8591202779,0.2635757734
8.2850,-0.06845457587,-0.4311898444,-0.8596450249,0.2653294561
8.2900,-0.07007025472,-0.4288146453,-0.8601624162,0.2670744785
8.2950,-0.07169552566,-0.4264311579,-0.8606722108,0.2688113924
8.3000,-0.07332879525,-0.4240396958,-0.8611737924,0.270541907
8.3050,-0.07496934296,-0.4216399951,-0.8616676179,0.2722649967
8.3100,-0.07661543078,-0.4192322743,-0.8621528821,0.2739831816
8.3150,-0.07826701551,-0.4168182471,-0.8626286482,0.2756966421
8.3200,-0.07992208976,-0.414398227,-0.8630938134,0.2774087929
8.3250,-0.0815791226,-0.4119709454,-0.8635494078,0.2791186255
8.3300,-0.08323624204,-0.4095376765,-0.86399444,0.2808277535
8.3350,-0.08489057933,-0.4070984975,-0.8644290497,0.2825364063
8.3400,-0.0865414877,-0.4046538867,-0.8648520783,0.2842475778
8.3450,-0.08818617226,-0.4022045333,-0.8652638432,0.2859601267
8.3500,-0.08982347442,-0.3997504811,-0.865663614,0.2876765608
8.3550,-0.09145241957,-0.3972910455,-0.8660521355,0.2893958859
8.3600,-0.0930726673,-0.3948282339,-0.8664279321,0.291119877
8.3650,-0.09468119379,-0.3923608539,-0.8667916035,0.2928493604
8.3700,-0.09627669214,-0.3898896613,-0.8671430812,0.2945839903
8.3750,-0.09785863168,-0.3874149919,-0.8674820209,0.2963245782
8.3800,-0.09942575884,-0.3849373541,-0.8678076439,0.2980732211
8.3850,-0.1009765993,-0.3824551146,-0.8681208517,0.2998299495
8.3900,-0.1025103335,-0.3799680537,-0.8684218104,0.3015948756
8.3950,-0.1040269507,-0.3774765908,-0.8687094431,0.3033705992
8.4000,-0.1055235977,-0.3749798783,-0.8689843763,0.3051573611
8.4050,-0.1070006282,-0.3724778841,-0.8692465355,0.306955293
8.4100,-0.1084576989,-0.3699702435,-0.8694963562,0.308763717
8.4150,-0.1098919945,-0.3674558235,-0.8697340388,0.3105843994
8.4200,-0.111306115,-0.3649355786,-0.8699596516,0.3124150714
8.4250,-0.1127001433,-0.3624098438,-0.8701730085,0.3142558164
8.4300,-0.1140743657,-0.3598777371,-0.8703747162,0.3161058477
8.4350,-0.1154304782,-0.3573393839,-0.8705646997,0.3179645785
8.4400,-0.1167710852,-0.3547942677,-0.8707432449,0.3198308033
8.4450,-0.1180970099,-0.3522435067,-0.8709105713,0.3217023236
8.4500,-0.1194094959,-0.3496858163,-0.8710668363,0.3235796176
8.4550,-0.1207106683,-0.3471222199,-0.8712124161,0.3254597133
8.4600,-0.1220007501,-0.3445513431,-0.8713482123,0.3273415371
8.4650,-0.1232833716,-0.3419745012,-0.8714735765,0.3292240214
8.4700,-0.1245586913,-0.3393925519,-0.8715881667,0.331107076
8.4750,-0.1258277419,-0.3368041403,-0.8716932878,0.3329882317
8.4800,-0.1270927883,-0.3342110002,-0.8717882274,0.3348667155
8.4850,-0.1283558908,-0.3316120831,-0.8718733064,0.3367419325
8.4900,-0.1296177949,-0.3290086966,-0.8719475283,0.3386148442
8.4950,-0.1308802989,-0.3264001985,-0.8720122192,0.3404819339
8.5000,-0.1321424665,-0.3237881751,-0.8720663433,0.3423446787
8.5050,-0.1334069104,-0.3211720401,-0.8721102478,0.3442017325
8.5100,-0.134672976,-0.3185505829,-0.8721442434,0.3460536581
8.5150,-0.1359407901,-0.3159258734,-0.872168132,0.3478989704
8.5200,-0.137211442,-0.3132967072,-0.8721815463,0.3497392511
8.5250,-0.1384848228,-0.310663863,-0.8721848208,0.3515729747
8.5300,-0.139761774,-0.308027701,-0.8721772126,0.3534013182
8.5350,-0.1410429615,-0.3053877378,-0.872158603,0.3552246948
8.5400,-0.1423276258,-0.3027452062,-0.8721288918,0.3570425508
8.5450,-0.1436162941,-0.3000993555,-0.8720880938,0.3588552543
8.5500,-0.1449101531,-0.2974500609,-0.8720358144,0.3606633433
8.5550,-0.1462070853,-0.2947987963,-0.871972045,0.3624664269
8.5600,-0.1475091121,-0.2921434056,-0.8718970333,0.3642648155
8.5650,-0.1488147456,-0.2894859992,-0.8718102744,0.3660585653
8.5700,-0.1501243644,-0.2868266816,-0.8717112718,0.3678485947
8.5750,-0.1514377295,-0.2841661309,-0.8715999964,0.3696345091
8.5800,-0.1527536016,-0.2815049646,-0.8714761484,0.3714170363
8.5850,-0.1540731906,-0.2788409315,-0.8713405283,0.3731954858
8.5900,-0.1553981196,-0.2761754499,-0.8711927135,0.374969067
8.5950,-0.15672494,-0.2735080873,-0.871032426,0.3767401389
8.6000,-0.1580533061,-0.2708397881,-0.8708595736,0.3785083417
8.6050,-0.1593826396,-0.2681692204,-0.8706739505,0.3802753151
8.6100,-0.1607122694,-0.2654971803,-0.870475693,0.3820404188
8.6150,-0.1620402439,-0.2628231982,-0.8702650985,0.3838040961
8.6200,-0.1633663266,-0.2601468955,-0.8700422387,0.385566517
8.6250,-0.1646906692,-0.2574690201,-0.8698061156,0.387329328
8.6300,-0.1660126709,-0.2547903617,-0.8695569259,0.3890917852
8.6350,-0.1673318758,-0.2521096322,-0.8692944905,0.3908553
8.6400,-0.1686472682,-0.2494268561,-0.8690190978,0.3926195997
8.6450,-0.1699589084,-0.2467435925,-0.868729805,0.3943857185
8.6500,-0.1712669622,-0.2440575854,-0.8684272302,0.396153592
8.6550,-0.172568757,-0.2413717988,-0.8681105152,0.3979243801
8.6600,-0.1738633373,-0.2386855893,-0.8677802445,0.3996976066
8.6650,-0.1751525187,-0.2359988013,-0.8674360947,0.4014732651
8.6700,-0.1764353868,-0.23331156,-0.8670778504,0.4032521191
8.6750,-0.1777116418,-0.2306249548,-0.8667056195,0.4050334204
8.6800,-0.1789817622,-0.2279392299,-0.866319599,0.4068164067
8.6850,-0.1802475025,-0.2252557342,-0.8659192335,0.4086007503
8.6900,-0.1815092793,-0.2225739241,-0.8655044073,0.4103868306
8.6950,-0.1827668,-0.2198937445,-0.865075952,0.4121730646
8.7000,-0.1840230723,-0.2172166038,-0.8646337986,0.4139575463
8.7050,-0.1852763984,-0.2145420826,-0.8641786207,0.4157398976
8.7100,-0.1865281651,-0.2118695974,-0.8637097355,0.417521269
8.7150,-0.1877799468,-0.2092010924,-0.8632275825,0.4192991002
8.7200,-0.1890318432,-0.2065353043,-0.8627322513,0.4210738567
8.7250,-0.1902857755,-0.2038727522,-0.8622234932,0.4228449744
8.7300,-0.191541215,-0.2012137066,-0.8617017689,0.4246116682
8.7350,-0.1927984978,-0.1985572127,-0.8611685282,0.4263713622
8.7400,-0.1940583922,-0.1959048854,-0.8606223111,0.4281259791
8.7450,-0.1953203219,-0.1932557058,-0.8600642055,0.4298741287
8.7500,-0.1965855235,-0.1906102879,-0.8594941049,0.4316152613
8.7550,-0.1978531723,-0.187966981,-0.8589126242,0.4333493282
8.7600,-0.1991237134,-0.1853277586,-0.8583198455,0.435075179
8.7650,-0.2003959395,-0.1826911373,-0.8577163674,0.4367929131
8.7700,-0.2016694971,-0.1800568275,-0.857102269,0.4385027404
8.7750,-0.2029444691,-0.1774259108,-0.8564767476,0.4402058263
8.7800,-0.2042194584,-0.1747971357,-0.8558413836,0.4419003284
8.7850,-0.2054938211,-0.1721718908,-0.8551958312,0.4435867669
8.7900,-0.2067678783,-0.1695510802,-0.8545409178,0.4452631756
8.7950,-0.2080427198,-0.1669352077,-0.853875131,0.4469319006
8.8000,-0.2093185028,-0.1643233183,-0.8531992678,0.44859182
8.8050,-0.2105954024,-0.1617183876,-0.8525131502,0.450242233
8.8100,-0.2118725859,-0.1591206602,-0.8518168664,0.4518834461
8.8150,-0.2131488426,-0.1565299574,-0.8511105118,0.4535160858
8.8200,-0.2144237334,-0.1539457304,-0.85039497,0.4551390662
8.8250,-0.2156947691,-0.1513684196,-0.8496696162,0.4567547607
8.8300,-0.2169604239,-0.1487969052,-0.8489358598,0.4583618236
8.8350,-0.2182195358,-0.1462324723,-0.8481932882,0.4599613506
8.8400,-0.2194713905,-0.1436736479,-0.8474421744,0.461553846
8.8450,-0.2207154347,-0.1411195645,-0.8466832449,0.4631386922
8.8500,-0.2219516564,-0.1385726501,-0.8459156454,0.464716907
8.8550,-0.2231785449,-0.1360306305,-0.8451405716,0.4662879141
8.8600,-0.224395745,-0.1334956024,-0.8443581098,0.4678513184
8.8650,-0.2256036981,-0.1309662319,-0.8435683458,0.4694073534
8.8700,-0.226801954,-0.1284413213,-0.8427720751,0.4709553377
8.8750,-0.227990915,-0.1259230041,-0.8419689932,0.4724952426
8.8800,-0.229170665,-0.1234094065,-0.8411592177,0.4740275257
8.8850,-0.2303405475,-0.1209016411,-0.8403430956,0.4755517921
8.8900,-0.2315002291,-0.1183976933,-0.8395207878,0.4770686292
8.8950,-0.2326488274,-0.1158987554,-0.8386933133,0.4785765642
8.9000,-0.2337882903,-0.1134049677,-0.8378600083,0.4800759889
8.9050,-0.234916815,-0.1109166991,-0.8370211972,0.481567328
8.9100,-0.2360348183,-0.1084331287,-0.8361768523,0.4830508181
8.9150,-0.2371423018,-0.1059534027,-0.8353267164,0.4845272769
8.9200,-0.2382392056,-0.1034779041,-0.8344712958,0.4859959472
8.9250,-0.2393244897,-0.1010082409,-0.8336103895,0.4874575289
8.9300,-0.2403987904,-0.09854207874,-0.8327443418,0.4889117931
8.9350,-0.24146163,-0.09608043679,-0.831873052,0.4903591095
8.9400,-0.2425129014,-0.09362366582,-0.8309969643,0.491798889
8.9450,-0.2435534742,-0.09117236447,-0.8301153527,0.4932320005
8.9500,-0.2445824032,-0.08872724256,-0.8292288032,0.4946579792
8.9550,-0.2456006025,-0.08628790693,-0.8283367388,0.4960776031
8.9600,-0.2466081976,-0.08385311178,-0.8274394307,0.4974907448
8.9650,-0.2476032143,-0.08142427917,-0.8265371812,0.4988978084
8.9700,-0.2485892745,-0.07900201265,-0.8256291949,0.5002983982
8.9750,-0.2495667733,-0.07658511586,-0.8247156599,0.5016923618
8.9800,-0.2505358428,-0.07417333252,-0.823795992,0.5030807805
8.9850,-0.2514960458,-0.0717666513,-0.8228708565,0.5044629225
8.9900,-0.2524499889,-0.06936627193,-0.8219398091,0.5058381892
8.9950,-0.2533970641,-0.06697238964,-0.821002835,0.5072070305
9.0000,-0.2543355554,-0.06458284749,-0.8200598257,0.508570903
9.0050,-0.2552669,-0.06219840118,-0.8191106736,0.5099292824
9.0100,-0.2561919322,-0.05981899637,-0.8181557629,0.5112812622
9.0150,-0.2571117999,-0.05744466243,-0.817194527,0.5126272896
9.0200,-0.2580261928,-0.05507593955,-0.8162269023,0.5139676728
9.0250,-0.2589352304,-0.05271182601,-0.8152535736,0.5153014852
9.0300,-0.259840117,-0.050352906,-0.8142743907,0.5166284111
9.0350,-0.2607418074,-0.04799918963,-0.8132887111,0.5179490903
9.0400,-0.2616419204,-0.04564831417,-0.8122964331,0.5192631719
9.0450,-0.2625410308,-0.0433016895,-0.8112971445,0.5205709502
9.0500,-0.2634381358,-0.04095882832,-0.810291055,0.5218727136
9.0550,-0.2643350549,-0.0386197867,-0.8092779075,0.523168003
9.0600,-0.2652335303,-0.03628444829,-0.8082564102,0.5244579951
9.0650,-0.2661345938,-0.03395212269,-0.8072271597,0.525741328
9.0700,-0.2670361872,-0.03162276797,-0.8061902207,0.5270189781
9.0750,-0.267939455,-0.02929488957,-0.8051462645,0.5282894573
9.0800,-0.2688453986,-0.02696847642,-0.8040944446,0.5295535639
9.0850,-0.2697531073,-0.02464313341,-0.8030347282,0.5308118333
9.0900,-0.2706617686,-0.02231760921,-0.80196717,0.5320646479
9.0950,-0.2715705212,-0.01999144596,-0.800892901,0.5333107493
9.1000,-0.2724797836,-0.01766539426,-0.799812151,0.5345495529
9.1050,-0.2733870794,-0.01533609856,-0.7987247071,0.5357827463
9.1100,-0.2742946691,-0.01300532211,-0.7976299158,0.5370100684
9.1150,-0.275202893,-0.0106716913,-0.7965277699,0.5382313578
9.1200,-0.2761124131,-0.008337170706,-0.7954175649,0.5394472396
9.1250,-0.2770256917,-0.006001000947,-0.794299085,0.5406567466
9.1300,-0.2779431163,-0.003664479524,-0.7931712706,0.5418611734
9.1350,-0.2788663461,-0.001328723546,-0.7920341142,0.543059626
9.1400,-0.2797958555,0.001005214899,-0.7908866831,0.5442531794
9.1450,-0.2807317269,0.003336520153,-0.7897293439,0.5454412238
9.1500,-0.2816731381,0.005665332081,-0.7885626232,0.5466233956
9.1550,-0.2826213267,0.007989459151,-0.7873865368,0.547799047
9.1600,-0.2835757075,0.01031076203,-0.7862002489,0.5489696485
9.1650,-0.2845368723,0.01262771909,-0.7850040636,0.5501344646
9.1700,-0.2855031351,0.01493930377,-0.7837986014,0.5512935058
9.1750,-0.2864749368,0.01724709612,-0.7825836731,0.5524467783
9.1800,-0.287451129,0.0195504401,-0.7813607045,0.5535928813
9.1850,-0.2884326623,0.02184717134,-0.7801289231,0.5547325155
9.1900,-0.2894192743,0.0241372365,-0.7788882119,0.5558660187
9.1950,-0.2904114249,0.02641978443,-0.7776388085,0.5569928929
9.2000,-0.2914049276,0.02869637136,-0.7763824574,0.5581128617
9.2050,-0.2924014308,0.03096728156,-0.775118981,0.5592253536
9.2100,-0.2933972615,0.03323211166,-0.7738505574,0.5603293572
9.2150,-0.2943917396,0.03549073224,-0.7725772055,0.5614253051
9.2200,-0.2953838832,0.03774230609,-0.7712995588,0.5625129958
9.2250,-0.2963727095,0.03998862437,-0.7700192855,0.5635906554
9.2300,-0.2973559886,0.04222750845,-0.7687360994,0.5646601306
9.2350,-0.2983348018,0.04446026477,-0.7674507107,0.5657199286
9.2400,-0.2993053965,0.04668666334,-0.7661637676,0.5667713087
9.2450,-0.3002688297,0.04890762206,-0.7648763836,0.5678122861
9.2500,-0.3012249312,0.05111989966,-0.7635890352,0.5688427569
9.2550,-0.3021745195,0.05332457825,-0.7623008154,0.5698635942
9.2600,-0.3031191041,0.05551855923,-0.7610120092,0.5708740844
9.2650,-0.3040597634,0.05770208557,-0.7597220159,0.5718746262
9.2700,-0.3049924173,0.0598759931,-0.7584326817,0.5728650436
9.2750,-0.3059181495,0.06203911857,-0.7571424428,0.5738471529
9.2800,-0.3068356418,0.06419162986,-0.7558535193,0.5748189114
9.2850,-0.3077452011,0.06633240165,-0.7545644212,0.5757824571
9.2900,-0.3086443296,0.06846278022,-0.7532761406,0.5767378795
9.2950,-0.3095331127,0.07058126188,-0.7519890202,0.5776850795
9.3000,-0.3104142909,0.07268683646,-0.750702027,0.5786242809
9.3050,-0.3112871207,0.07478039673,-0.7494157873,0.5795551729
9.3100,-0.3121501241,0.07685984255,-0.7481293363,0.5804802846
9.3150,-0.3130029203,0.07892880697,-0.7468435817,0.5813983831
9.3200,-0.313845005,0.08098664185,-0.7455588856,0.5823095609
9.3250,-0.3146759686,0.08303416542,-0.7442745195,0.5832150562
9.3300,-0.3154959225,0.08507327273,-0.742990424,0.5841147927
9.3350,-0.316303836,0.08710394298,-0.7417065497,0.585009556
9.3400,-0.3170966098,0.08912768074,-0.7404251531,0.5858981048
9.3450,-0.3178765328,0.09114504365,-0.7391453289,0.5867804305
9.3500,-0.31864497,0.09315681446,-0.7378663798,0.5876566996
9.3550,-0.3194032442,0.09516252345,-0.7365880361,0.5885267426
9.3600,-0.3201513392,0.09716420114,-0.7353105585,0.5893900411
9.3650,-0.3208896699,0.09916137975,-0.7340344671,0.5902459162
9.3700,-0.3216203121,0.101153796,-0.7327589547,0.5910944076
9.3750,-0.322344704,0.1031415533,-0.7314840116,0.5919348382
9.3800,-0.3230643708,0.1051239875,-0.7302094618,0.5927668188
9.3850,-0.3237809931,0.1071032646,-0.7289354868,0.5935889279
9.3900,-0.3244957788,0.1090789745,-0.7276613343,0.5944015894
9.3950,-0.3252112306,0.1110509195,-0.7263869018,0.5952036775
9.4000,-0.3259281027,0.1130197258,-0.7251123031,0.5959945984
9.4050,-0.3266491749,0.1149826177,-0.7238364744,0.596774725
9.4100,-0.3273743332,0.1169418418,-0.7225597378,0.5975433683
9.4150,-0.3281045446,0.1188970091,-0.7212827079,0.5982993936
9.4200,-0.3288404143,0.1208483077,-0.7200033063,0.5990449961
9.4250,-0.3295806501,0.1227955152,-0.7187231101,0.5997790823
9.4300,-0.3303264551,0.1247390618,-0.717442085,0.6005010027
9.4350,-0.3310770485,0.1266808089,-0.7161596294,0.601211565
9.4400,-0.3318309721,0.128620155,-0.714877879,0.6019091956
9.4450,-0.3325890564,0.1305571674,-0.7135946154,0.6025961089
9.4500,-0.3333518865,0.1324911492,-0.7123095089,0.6032725576
9.4550,-0.3341199581,0.1344247959,-0.7110211208,0.6039393957
9.4600,-0.3348923189,0.1363547177,-0.7097310645,0.6045960153
9.4650,-0.3356681904,0.1382831471,-0.7084379506,0.6052440065
9.4700,-0.3364489359,0.1402098325,-0.7071413448,0.6058831858
9.4750,-0.3372311815,0.1421349259,-0.705842665,0.606513747
9.4800,-0.338016009,0.1440585574,-0.7045408474,0.6071363143
9.4850,-0.3388017697,0.145983237,-0.7032358616,0.6077512471
9.4900,-0.3395862633,0.1479086464,-0.7019290346,0.6083583093
9.4950,-0.3403697336,0.1498353226,-0.7006209237,0.6089566009
9.5000,-0.3411526237,0.1517631261,-0.699309714,0.6095480004
9.5050,-0.3419345733,0.1536897485,-0.6979959652,0.6101326424
9.5100,-0.3427181998,0.1556167272,-0.6966766254,0.6107121657
9.5150,-0.3435023486,0.1575432583,-0.6953524637,0.61128652
9.5200,-0.3442861044,0.1594706682,-0.6940244275,0.6118547854
9.5250,-0.3450701084,0.1613976247,-0.6926917696,0.6124177816
9.5300,-0.3458543551,0.163325191,-0.6913553504,0.6129742463
9.5350,-0.3466385458,0.1652519144,-0.6900153343,0.6135245405
9.5400,-0.3474250478,0.1671780913,-0.6886709132,0.6140681519
9.5450,-0.3482112565,0.1691019705,-0.68732401,0.6146048728
9.5500,-0.3489970939,0.1710248264,-0.6859742137,0.6151348757
9.5550,-0.3497842203,0.1729463556,-0.6846223556,0.6156563875
9.5600,-0.3505714232,0.1748652449,-0.6832682051,0.616170742
9.5650,-0.3513589499,0.1767817144,-0.6819105438,0.6166791095
9.5700,-0.3521489679,0.1786946363,-0.6805502699,0.6171796024
9.5750,-0.3529398761,0.1806049563,-0.6791888124,0.6176713129
9.5800,-0.3537321417,0.1825106804,-0.6778250276,0.6181558504
9.5850,-0.3545254844,0.1844131128,-0.6764607554,0.6186310137
9.5900,-0.3553195665,0.1863092164,-0.6750948679,0.619099185
9.5950,-0.3561154978,0.1882009676,-0.673726977,0.6195596084
9.6000,-0.356910492,0.1900877551,-0.6723583971,0.6200126869
9.6050,-0.35770432,0.1919699703,-0.6709884319,0.6204592446
9.6100,-0.3584960877,0.1938488057,-0.6696181694,0.6208983031
9.6150,-0.359285316,0.1957215684,-0.6682460567,0.6213327105
9.6200,-0.3600714123,0.1975889249,-0.6668728307,0.6217618696
9.6250,-0.360852858,0.1994525625,-0.6654983828,0.6221863006
9.6300,-0.3616280421,0.2013110248,-0.6641239117,0.622606184
9.6350,-0.3623980954,0.2031651722,-0.6627479818,0.6230221874
9.6400,-0.3631631498,0.2050124791,-0.6613699089,0.6234358457
9.6450,-0.3639225084,0.2068542524,-0.6599900668,0.6238468064
9.6500,-0.3646744371,0.2086914701,-0.658608419,0.6242558575
9.6550,-0.3654162708,0.2105238864,-0.6572255882,0.6246640445
9.6600,-0.3661470332,0.2123523509,-0.6558416487,0.6250716447
9.6650,-0.3668651546,0.214177383,-0.6544564702,0.6254796045
9.6700,-0.3675705947,0.2159997139,-0.6530701408,0.6258876679
9.6750,-0.3682623705,0.2178184369,-0.6516821543,0.6262973134
9.6800,-0.368938429,0.219636126,-0.6502925213,0.6267088994
9.6850,-0.3695994555,0.2214501595,-0.6489005711,0.6271236865
9.6900,-0.3702449613,0.2232604755,-0.6475067658,0.6275415659
9.6950,-0.3708721826,0.225067064,-0.6461108669,0.6279644804
9.7000,-0.3714819302,0.2268688991,-0.6447132597,0.6283919882
9.7050,-0.3720721979,0.2286696753,-0.6433141157,0.6288238288
9.7100,-0.3726417107,0.2304663895,-0.6419149531,0.6292603529
9.7150,-0.3731901319,0.232258841,-0.6405145653,0.6297031427
9.7200,-0.3737172321,0.2340478116,-0.6391146034,0.6301504393
9.7250,-0.3742245462,0.2358316144,-0.6377146216,0.6306024898
9.7300,-0.374711643,0.2376107224,-0.6363152046,0.6310588638
