type,name,time_units,begin_time,frequency,count,units
signal,"Noraxon MyoMotion-Segments-Forearm RT-Course","s",0.0000,200,5172,"deg"

time,value
0.0000,-15.68314337
0.0050,-15.72058149
0.0100,-15.75801958
0.0150,-15.79545765
0.0200,-15.83535674
0.0250,-15.87741187
0.0300,-15.9212955
0.0350,-15.96667218
0.0400,-16.01320829
0.0450,-16.06057856
0.0500,-16.10847143
0.0550,-16.15659408
0.0600,-16.20467622
0.0650,-16.25247216
0.0700,-16.29976032
0.0750,-16.34633956
0.0800,-16.39202299
0.0850,-16.43663046
0.0900,-16.47998151
0.0950,-16.52189033
0.1000,-16.56216409
0.1050,-16.60060529
0.1100,-16.63701827
0.1150,-16.6712183
0.1200,-16.70304093
0.1250,-16.73235026
0.1300,-16.75904617
0.1350,-16.78306979
0.1400,-16.80440619
0.1450,-16.82308576
0.1500,-16.839187
0.1550,-16.89625461
0.1600,-16.95052158
0.1650,-17.00186479
0.1700,-17.05070378
0.1750,-17.09722202
0.1800,-17.14203841
0.1850,-17.18559778
0.1900,-17.22818631
0.1950,-17.26999973
0.2000,-17.31111449
0.2050,-17.35171444
0.2100,-17.39196841
0.2150,-17.43196717
0.2200,-17.47193064
0.2250,-17.51216536
0.2300,-17.55254334
0.2350,-17.59317438
0.2400,-17.63396794
0.2450,-17.6747789
0.2500,-17.71566045
0.2550,-17.75624444
0.2600,-17.79648387
0.2650,-17.83643247
0.2700,-17.8759509
0.2750,-17.91496964
0.2800,-17.95348581
0.2850,-17.99167041
0.2900,-18.02951722
0.2950,-18.06709028
0.3000,-18.10410552
0.3050,-18.14067842
0.3100,-18.17683824
0.3150,-18.21239665
0.3200,-18.24731686
0.3250,-18.28178065
0.3300,-18.31561575
0.3350,-18.3487895
0.3400,-18.38108548
0.3450,-18.41245212
0.3500,-18.4427116
0.3550,-18.47201519
0.3600,-18.50017217
0.3650,-18.52715256
0.3700,-18.5530296
0.3750,-18.57769891
0.3800,-18.6012365
0.3850,-18.62355542
0.3900,-18.6450162
0.3950,-18.66546628
0.4000,-18.68509109
0.4050,-18.7036247
0.4100,-18.72140721
0.4150,-18.73842016
0.4200,-18.75456757
0.4250,-18.76981851
0.4300,-18.78448128
0.4350,-18.79838631
0.4400,-18.81171354
0.4450,-18.82430946
0.4500,-18.83613198
0.4550,-18.84739439
0.4600,-18.8580093
0.4650,-18.86800246
0.4700,-18.8776032
0.4750,-18.8866292
0.4800,-18.89492953
0.4850,-18.90241875
0.4900,-18.90909521
0.4950,-18.91492475
0.5000,-18.91991774
0.5050,-18.92413713
0.5100,-18.92754184
0.5150,-18.93023044
0.5200,-18.9320436
0.5250,-18.93296683
0.5300,-18.9330634
0.5350,-18.93219402
0.5400,-18.93054185
0.5450,-18.92802762
0.5500,-18.92470316
0.5550,-18.92057589
0.5600,-18.91560198
0.5650,-18.90980755
0.5700,-18.90316459
0.5750,-18.89590497
0.5800,-18.88785028
0.5850,-18.87916634
0.5900,-18.86996497
0.5950,-18.86009169
0.6000,-18.84988687
0.6050,-18.83904882
0.6100,-18.82760181
0.6150,-18.81569351
0.6200,-18.80344717
0.6250,-18.79059291
0.6300,-18.777152
0.6350,-18.7632067
0.6400,-18.74853953
0.6450,-18.73333648
0.6500,-18.71765537
0.6550,-18.70129191
0.6600,-18.68436557
0.6650,-18.66685349
0.6700,-18.64865045
0.6750,-18.62975588
0.6800,-18.61030515
0.6850,-18.59047416
0.6900,-18.57000539
0.6950,-18.54889611
0.7000,-18.52726341
0.7050,-18.50505756
0.7100,-18.4823213
0.7150,-18.45900556
0.7200,-18.43518985
0.7250,-18.41107473
0.7300,-18.38672315
0.7350,-18.3622205
0.7400,-18.33751109
0.7450,-18.31269258
0.7500,-18.28794348
0.7550,-18.263376
0.7600,-18.23895195
0.7650,-18.21498645
0.7700,-18.19106753
0.7750,-18.16748306
0.7800,-18.14416224
0.7850,-18.12108566
0.7900,-18.09824109
0.7950,-18.07557953
0.8000,-18.05304079
0.8050,-18.03066776
0.8100,-18.00841117
0.8150,-17.98610491
0.8200,-17.96380675
0.8250,-17.94125465
0.8300,-17.91853572
0.8350,-17.89550605
0.8400,-17.87232955
0.8450,-17.84897473
0.8500,-17.82541489
0.8550,-17.80198007
0.8600,-17.77854626
0.8650,-17.75514775
0.8700,-17.73174813
0.8750,-17.70822186
0.8800,-17.68459154
0.8850,-17.66076439
0.8900,-17.63655802
0.8950,-17.61188835
0.9000,-17.58650748
0.9050,-17.56066541
0.9100,-17.53410562
0.9150,-17.50660548
0.9200,-17.477936
0.9250,-17.44800968
0.9300,-17.41666703
0.9350,-17.3837203
0.9400,-17.34929279
0.9450,-17.31331753
0.9500,-17.2758141
0.9550,-17.23689611
0.9600,-17.19681585
0.9650,-17.15563545
0.9700,-17.11355068
0.9750,-17.0709403
0.9800,-17.02781823
0.9850,-16.98429338
0.9900,-16.94060662
0.9950,-16.89704444
1.0000,-16.85345898
1.0050,-16.81017757
1.0100,-16.76704533
1.0150,-16.72406133
1.0200,-16.68110036
1.0250,-16.63820758
1.0300,-16.59529033
1.0350,-16.55228659
1.0400,-16.50925916
1.0450,-16.46622388
1.0500,-16.42290017
1.0550,-16.37912063
1.0600,-16.33482194
1.0650,-16.28980114
1.0700,-16.24408983
1.0750,-16.19753411
1.0800,-16.15017369
1.0850,-16.10207651
1.0900,-16.05337965
1.0950,-16.00416118
1.1000,-15.95441128
1.1050,-15.90429415
1.1100,-15.85385283
1.1150,-15.80323626
1.1200,-15.75233433
1.1250,-15.70137678
1.1300,-15.65039348
1.1350,-15.59954684
1.1400,-15.54870723
1.1450,-15.49759235
1.1500,-15.44636894
1.1550,-15.39480215
1.1600,-15.34304498
1.1650,-15.29117438
1.1700,-15.2392805
1.1750,-15.18737668
1.1800,-15.13567768
1.1850,-15.08398173
1.1900,-15.03245385
1.1950,-14.98119679
1.2000,-14.93016431
1.2050,-14.87952531
1.2100,-14.82936116
1.2150,-14.77972208
1.2200,-14.7308979
1.2250,-14.68297283
1.2300,-14.63623443
1.2350,-14.59071076
1.2400,-14.54692062
1.2450,-14.50482984
1.2500,-14.46454845
1.2550,-14.42629934
1.2600,-14.38998352
1.2650,-14.35578692
1.2700,-14.32364292
1.2750,-14.29340063
1.2800,-14.26522685
1.2850,-14.23928071
1.2900,-14.2156157
1.2950,-14.19421862
1.3000,-14.1751734
1.3050,-14.15828323
1.3100,-14.14372825
1.3150,-14.13144854
1.3200,-14.121397
1.3250,-14.11336978
1.3300,-14.10701684
1.3350,-14.10203815
1.3400,-14.09841875
1.3450,-14.09591082
1.3500,-14.09469789
1.3550,-14.09462607
1.3600,-14.09562921
1.3650,-14.09766021
1.3700,-14.10073426
1.3750,-14.10472156
1.3800,-14.10942378
1.3850,-14.11474448
1.3900,-14.12038488
1.3950,-14.1259699
1.4000,-14.13129264
1.4050,-14.1359652
1.4100,-14.1396417
1.4150,-14.14215494
1.4200,-14.14338546
1.4250,-14.14301882
1.4300,-14.14101343
1.4350,-14.13717259
1.4400,-14.13133431
1.4450,-14.12346776
1.4500,-14.1132062
1.4550,-14.10028517
1.4600,-14.08455244
1.4650,-14.0656442
1.4700,-14.04345056
1.4750,-14.01821401
1.4800,-13.98954353
1.4850,-13.95779906
1.4900,-13.92281655
1.4950,-13.8847103
1.5000,-13.84348623
1.5050,-13.79898935
1.5100,-13.75113657
1.5150,-13.6999345
1.5200,-13.64512875
1.5250,-13.58667351
1.5300,-13.52448851
1.5350,-13.45863015
1.5400,-13.38882432
1.5450,-13.3152223
1.5500,-13.23785486
1.5550,-13.15669892
1.5600,-13.07204375
1.5650,-12.983794
1.5700,-12.89233028
1.5750,-12.79772844
1.5800,-12.70034064
1.5850,-12.60006022
1.5900,-12.49699698
1.5950,-12.39144667
1.6000,-12.28359787
1.6050,-12.173589
1.6100,-12.06154741
1.6150,-11.94752133
1.6200,-11.83196349
1.6250,-11.7149079
1.6300,-11.59677283
1.6350,-11.47799405
1.6400,-11.35850553
1.6450,-11.23829169
1.6500,-11.11701385
1.6550,-10.99493454
1.6600,-10.87196462
1.6650,-10.74811099
1.6700,-10.62339188
1.6750,-10.49783356
1.6800,-10.37166878
1.6850,-10.24496049
1.6900,-10.11782578
1.6950,-9.99061386
1.7000,-9.863372478
1.7050,-9.736496104
1.7100,-9.610004106
1.7150,-9.484030159
1.7200,-9.358807114
1.7250,-9.234215767
1.7300,-9.11011574
1.7350,-8.986477909
1.7400,-8.863211243
1.7450,-8.740273074
1.7500,-8.617741878
1.7550,-8.495832966
1.7600,-8.374168238
1.7650,-8.252854922
1.7700,-8.131813438
1.7750,-8.010476796
1.7800,-7.888996707
1.7850,-7.766940263
1.7900,-7.644087645
1.7950,-7.52022792
1.8000,-7.395095624
1.8050,-7.268451147
1.8100,-7.140243921
1.8150,-7.010362122
1.8200,-6.878690092
1.8250,-6.745131966
1.8300,-6.609582403
1.8350,-6.471984356
1.8400,-6.332257088
1.8450,-6.190258723
1.8500,-6.04591565
1.8550,-5.898920926
1.8600,-5.749349985
1.8650,-5.597144887
1.8700,-5.442072363
1.8750,-5.284431674
1.8800,-5.123875759
1.8850,-4.960621232
1.8900,-4.794402335
1.8950,-4.625016304
1.9000,-4.452583347
1.9050,-4.277090435
1.9100,-4.098219643
1.9150,-3.916307857
1.9200,-3.731067156
1.9250,-3.542442145
1.9300,-3.350221653
1.9350,-3.1543155
1.9400,-2.954566315
1.9450,-2.751090892
1.9500,-2.54415296
1.9550,-2.333818989
1.9600,-2.120348569
1.9650,-1.903831122
1.9700,-1.684204713
1.9750,-1.461706845
1.9800,-1.236250075
1.9850,-1.007643708
1.9900,-0.7760827768
1.9950,-0.541542904
2.0000,-0.30403334
2.0050,-0.06317510528
2.0100,0.1806982881
2.0150,0.4275696471
2.0200,0.6777294508
2.0250,0.9309118873
2.0300,1.187526747
2.0350,1.447463382
2.0400,1.710732422
2.0450,1.977309387
2.0500,2.247338361
2.0550,2.521077676
2.0600,2.798663574
2.0650,3.080126668
2.0700,3.365532099
2.0750,3.655040896
2.0800,3.948684633
2.0850,4.246598511
2.0900,4.548733404
2.0950,4.855489191
2.1000,5.166629954
2.1050,5.482397555
2.1100,5.802664485
2.1150,6.127291565
2.1200,6.456221111
2.1250,6.789332611
2.1300,7.126536022
2.1350,7.467878263
2.1400,7.813649392
2.1450,8.163696102
2.1500,8.518104782
2.1550,8.876671021
2.1600,9.239507175
2.1650,9.606360357
2.1700,9.977158413
2.1750,10.35200485
2.1800,10.73083791
2.1850,11.113663
2.1900,11.5000709
2.1950,11.88995091
2.2000,12.2834068
2.2050,12.68038248
2.2100,13.08061191
2.2150,13.48419896
2.2200,13.89104797
2.2250,14.30086183
2.2300,14.71354351
2.2350,15.12900084
2.2400,15.54710018
2.2450,15.96753479
2.2500,16.39022809
2.2550,16.81530628
2.2600,17.24226798
2.2650,17.67123634
2.2700,18.10214043
2.2750,18.53492791
2.2800,18.9695602
2.2850,19.40577076
2.2900,19.84368376
2.2950,20.2830559
2.3000,20.72360823
2.3050,21.16523908
2.3100,21.60803521
2.3150,22.05152232
2.3200,22.49576343
2.3250,22.94092785
2.3300,23.38621964
2.3350,23.83183153
2.3400,24.27758355
2.3450,24.72334973
2.3500,25.16890776
2.3550,25.61408661
2.3600,26.05883898
2.3650,26.50301839
2.3700,26.94612083
2.3750,27.38794002
2.3800,27.82837887
2.3850,28.26716829
2.3900,28.70429269
2.3950,29.13945949
2.4000,29.57262931
2.4050,30.00337793
2.4100,30.4318583
2.4150,30.85819524
2.4200,31.28248821
2.4250,31.70449461
2.4300,32.12437637
2.4350,32.54171879
2.4400,32.9565092
2.4450,33.36900191
2.4500,33.77910471
2.4550,34.18665034
2.4600,34.59171724
2.4650,34.99434926
2.4700,35.39459745
2.4750,35.79278829
2.4800,36.1888552
2.4850,36.58249463
2.4900,36.97394895
2.4950,37.36307641
2.5000,37.74991208
2.5050,38.13458265
2.5100,38.51709902
2.5150,38.89765705
2.5200,39.27609683
2.5250,39.65253974
2.5300,40.02681796
2.5350,40.39901465
2.5400,40.76913827
2.5450,41.13740426
2.5500,41.50393435
2.5550,41.86882747
2.5600,42.23227044
2.5650,42.59437849
2.5700,42.95470647
2.5750,43.31338771
2.5800,43.67042036
2.5850,44.02575125
2.5900,44.37916945
2.5950,44.73080925
2.6000,45.08042163
2.6050,45.42797115
2.6100,45.77331885
2.6150,46.11673695
2.6200,46.45811727
2.6250,46.79780829
2.6300,47.13580414
2.6350,47.47232665
2.6400,47.8072106
2.6450,48.14042519
2.6500,48.47214225
2.6550,48.80204311
2.6600,49.12990715
2.6650,49.45568579
2.6700,49.77962507
2.6750,50.10155138
2.6800,50.42140989
2.6850,50.73951676
2.6900,51.05546787
2.6950,51.36936927
2.7000,51.68091031
2.7050,51.99001426
2.7100,52.29628181
2.7150,52.59951646
2.7200,52.89960576
2.7250,53.19643472
2.7300,53.48987976
2.7350,53.78016814
2.7400,54.06739383
2.7450,54.35162012
2.7500,54.63275296
2.7550,54.91123383
2.7600,55.18681851
2.7650,55.45969071
2.7700,55.7298473
2.7750,55.99704015
2.7800,56.26124573
2.7850,56.52248942
2.7900,56.78067864
2.7950,57.03621598
2.8000,57.28867112
2.8050,57.53810904
2.8100,57.78460878
2.8150,58.02794181
2.8200,58.2684995
2.8250,58.50578267
2.8300,58.74025719
2.8350,58.9716374
2.8400,59.1997885
2.8450,59.42494811
2.8500,59.64666736
2.8550,59.8650008
2.8600,60.08009198
2.8650,60.29212999
2.8700,60.50109456
2.8750,60.70729857
2.8800,60.91078692
2.8850,61.11157025
2.8900,61.31020499
2.8950,61.50661133
2.9000,61.70090884
2.9050,61.89308253
2.9100,62.08295192
2.9150,62.27050055
2.9200,62.45526144
2.9250,62.63701879
2.9300,62.81602617
2.9350,62.99204818
2.9400,63.16548737
2.9450,63.33626373
2.9500,63.50481156
2.9550,63.67145954
2.9600,63.83610737
2.9650,63.99931705
2.9700,64.16104918
2.9750,64.3213163
2.9800,64.48037596
2.9850,64.63800179
2.9900,64.79440474
2.9950,64.94962769
3.0000,65.10382705
3.0050,65.25722551
3.0100,65.40992201
3.0150,65.5617122
3.0200,65.71239416
3.0250,65.86224225
3.0300,66.01101319
3.0350,66.1589471
3.0400,66.3058948
3.0450,66.45184242
3.0500,66.59688099
3.0550,66.7405284
3.0600,66.8832427
3.0650,67.02481005
3.0700,67.16508553
3.0750,67.30421305
3.0800,67.44225478
3.0850,67.57925249
3.0900,67.71540103
3.0950,67.85080495
3.1000,67.9857563
3.1050,68.1201122
3.1100,68.25394036
3.1150,68.38712962
3.1200,68.51941286
3.1250,68.65123198
3.1300,68.78224391
3.1350,68.91234358
3.1400,69.04168721
3.1450,69.17016062
3.1500,69.29791979
3.1550,69.42485701
3.1600,69.55095637
3.1650,69.67622579
3.1700,69.80046742
3.1750,69.92340134
3.1800,70.04514951
3.1850,70.16576046
3.1900,70.28490467
3.1950,70.40252492
3.2000,70.5185789
3.2050,70.63320488
3.2100,70.74660657
3.2150,70.859015
3.2200,70.97072174
3.2250,71.08194479
3.2300,71.19223001
3.2350,71.30172475
3.2400,71.41055357
3.2450,71.51869531
3.2500,71.62589758
3.2550,71.73214568
3.2600,71.83755105
3.2650,71.94175713
3.2700,72.04510692
3.2750,72.14754378
3.2800,72.24920798
3.2850,72.35022846
3.2900,72.4505573
3.2950,72.55020769
3.3000,72.64912653
3.3050,72.74717833
3.3100,72.84437833
3.3150,72.94094694
3.3200,73.03673892
3.3250,73.13191495
3.3300,73.22672543
3.3350,73.3210725
3.3400,73.41487334
3.3450,73.50847377
3.3500,73.60153373
3.3550,73.6942364
3.3600,73.7864171
3.3650,73.87817605
3.3700,73.96958177
3.3750,74.06063873
3.3800,74.15101863
3.3850,74.24086901
3.3900,74.33005887
3.3950,74.41836346
3.4000,74.50540809
3.4050,74.59132295
3.4100,74.67590285
3.4150,74.75937065
3.4200,74.84183027
3.4250,74.92341992
3.4300,75.0040942
3.4350,75.08418371
3.4400,75.16337606
3.4450,75.24166843
3.4500,75.31891034
3.4550,75.3951303
3.4600,75.47024861
3.4650,75.54425078
3.4700,75.61766958
3.4750,75.69077268
3.4800,75.76333695
3.4850,75.83540962
3.4900,75.90688394
3.4950,75.97783525
3.5000,76.04843086
3.5050,76.11848641
3.5100,76.18804476
3.5150,76.25683506
3.5200,76.32489402
3.5250,76.39212801
3.5300,76.4586686
3.5350,76.52451412
3.5400,76.58943214
3.5450,76.65351907
3.5500,76.71654325
3.5550,76.77891396
3.5600,76.84085117
3.5650,76.9023425
3.5700,76.96329059
3.5750,77.0236581
3.5800,77.08336556
3.5850,77.14214684
3.5900,77.20011464
3.5950,77.25715454
3.6000,77.31347279
3.6050,77.36913573
3.6100,77.42404859
3.6150,77.47791735
3.6200,77.53074888
3.6250,77.58223189
3.6300,77.63229025
3.6350,77.68083001
3.6400,77.72747886
3.6450,77.77206642
3.6500,77.81482414
3.6550,77.85563141
3.6600,77.89463528
3.6650,77.93184598
3.6700,77.96715256
3.6750,78.00072682
3.6800,78.03267199
3.6850,78.06288397
3.6900,78.09144834
3.6950,78.11846634
3.7000,78.14402087
3.7050,78.16820986
3.7100,78.19126526
3.7150,78.2133113
3.7200,78.23436271
3.7250,78.25432146
3.7300,78.27329712
3.7350,78.29122833
3.7400,78.30833342
3.7450,78.32461347
3.7500,78.34009517
3.7550,78.35457879
3.7600,78.36858444
3.7650,78.38227637
3.7700,78.3952648
3.7750,78.40743885
3.7800,78.41888267
3.7850,78.42950861
3.7900,78.4400141
3.7950,78.45044644
3.8000,78.46075381
3.8050,78.47144205
3.8100,78.48235948
3.8150,78.4937366
3.8200,78.50565364
3.8250,78.51800059
3.8300,78.53116881
3.8350,78.54522549
3.8400,78.56025568
3.8450,78.57638869
3.8500,78.59395263
3.8550,78.61235744
3.8600,78.63138595
3.8650,78.65093182
3.8700,78.67086808
3.8750,78.69116237
3.8800,78.71141162
3.8850,78.73162723
3.8900,78.75153596
3.8950,78.77094658
3.9000,78.78938426
3.9050,78.80658726
3.9100,78.8222993
3.9150,78.83680364
3.9200,78.8499737
3.9250,78.86178747
3.9300,78.87198585
3.9350,78.88067999
3.9400,78.88801854
3.9450,78.89389055
3.9500,78.89790847
3.9550,78.90048462
3.9600,78.90147501
3.9650,78.90084673
3.9700,78.89860063
3.9750,78.89456284
3.9800,78.8889225
3.9850,78.88160539
3.9900,78.8725814
3.9950,78.86167725
4.0000,78.84882411
4.0050,78.83402885
4.0100,78.81722889
4.0150,78.79821719
4.0200,78.77702904
4.0250,78.75368664
4.0300,78.72860832
4.0350,78.70182958
4.0400,78.67312956
4.0450,78.64274534
4.0500,78.610879
4.0550,78.57792961
4.0600,78.54382134
4.0650,78.50877036
4.0700,78.47321148
4.0750,78.43735824
4.0800,78.40163631
4.0850,78.36620215
4.0900,78.33099554
4.0950,78.29615808
4.1000,78.2622309
4.1050,78.22890235
4.1100,78.19661126
4.1150,78.16541674
4.1200,78.13579515
4.1250,78.10801914
4.1300,78.08210151
4.1350,78.05803754
4.1400,78.03583436
4.1450,78.01563523
4.1500,77.99753463
4.1550,77.9818303
4.1600,77.9685864
4.1650,77.95799058
4.1700,77.95010997
4.1750,77.94483853
4.1800,77.94240222
4.1850,77.94275573
4.1900,77.94581065
4.1950,77.9515944
4.2000,77.96036036
4.2050,77.9719023
4.2100,77.98619001
4.2150,78.00300673
4.2200,78.02206133
4.2250,78.04331669
4.2300,78.06673075
4.2350,78.09181989
4.2400,78.11855166
4.2450,78.14662598
4.2500,78.17634415
4.2550,78.20735661
4.2600,78.23939696
4.2650,78.2723259
4.2700,78.30610729
4.2750,78.34074019
4.2800,78.3757931
4.2850,78.41119398
4.2900,78.44671654
4.2950,78.48216134
4.3000,78.5177121
4.3050,78.55312445
4.3100,78.58808709
4.3150,78.62265282
4.3200,78.65680298
4.3250,78.69052614
4.3300,78.723576
4.3350,78.75591521
4.3400,78.78779909
4.3450,78.81902343
4.3500,78.84964787
4.3550,78.87951497
4.3600,78.90859786
4.3650,78.93653586
4.3700,78.96331521
4.3750,78.98902106
4.3800,79.01369029
4.3850,79.03748346
4.3900,79.06065752
4.3950,79.08321095
4.4000,79.10493245
4.4050,79.12588718
4.4100,79.14606895
4.4150,79.16564445
4.4200,79.18433826
4.4250,79.2022052
4.4300,79.2192743
4.4350,79.23574844
4.4400,79.2516276
4.4450,79.26688727
4.4500,79.2812896
4.4550,79.29507301
4.4600,79.30833164
4.4650,79.32085783
4.4700,79.33279938
4.4750,79.34409649
4.4800,79.35472645
4.4850,79.36470995
4.4900,79.37408529
4.4950,79.38273646
4.5000,79.39066747
4.5050,79.3978668
4.5100,79.40453139
4.5150,79.41046695
4.5200,79.415442
4.5250,79.41930182
4.5300,79.42185735
4.5350,79.42317819
4.5400,79.42317229
4.5450,79.42180866
4.5500,79.41907238
4.5550,79.41464886
4.5600,79.40879437
4.5650,79.40156687
4.5700,79.39304395
4.5750,79.38284015
4.5800,79.37115025
4.5850,79.35787698
4.5900,79.34309065
4.5950,79.32696437
4.6000,79.30920802
4.6050,79.28960182
4.6100,79.26869217
4.6150,79.24681158
4.6200,79.22398244
4.6250,79.20049559
4.6300,79.17630111
4.6350,79.15151788
4.6400,79.1261434
4.6450,79.10018094
4.6500,79.07369722
4.6550,79.0467975
4.6600,79.01938286
4.6650,78.99126197
4.6700,78.96245543
4.6750,78.9329062
4.6800,78.90268407
4.6850,78.87197351
4.6900,78.84041916
4.6950,78.80793783
4.7000,78.7742642
4.7050,78.73987472
4.7100,78.70450136
4.7150,78.66809828
4.7200,78.63107503
4.7250,78.59313302
4.7300,78.55454855
4.7350,78.51522413
4.7400,78.47543002
4.7450,78.43522915
4.7500,78.39497647
4.7550,78.35446056
4.7600,78.31354768
4.7650,78.27210991
4.7700,78.22980074
4.7750,78.18630978
4.7800,78.14165266
4.7850,78.09575127
4.7900,78.04855076
4.7950,77.99995535
4.8000,77.9497424
4.8050,77.89767411
4.8100,77.84335849
4.8150,77.78668478
4.8200,77.72800634
4.8250,77.66727413
4.8300,77.60451859
4.8350,77.53958578
4.8400,77.47255162
4.8450,77.40357042
4.8500,77.33288902
4.8550,77.26074136
4.8600,77.18722503
4.8650,77.11241191
4.8700,77.03653809
4.8750,76.95970773
4.8800,76.88204242
4.8850,76.80374627
4.8900,76.72448345
4.8950,76.64411055
4.9000,76.56295331
4.9050,76.48114611
4.9100,76.39858612
4.9150,76.31503525
4.9200,76.23059541
4.9250,76.14499812
4.9300,76.05807943
4.9350,75.96963965
4.9400,75.8796335
4.9450,75.78806179
4.9500,75.69489398
4.9550,75.59997005
4.9600,75.50339146
4.9650,75.40522016
4.9700,75.30573247
4.9750,75.20507188
4.9800,75.10299562
4.9850,74.99954333
4.9900,74.89452833
4.9950,74.78803611
5.0000,74.68053424
5.0050,74.57153979
5.0100,74.46123635
5.0150,74.34967519
5.0200,74.23631273
5.0250,74.12146928
5.0300,74.00467159
5.0350,73.88563112
5.0400,73.76417699
5.0450,73.6399788
5.0500,73.51295202
5.0550,73.38317974
5.0600,73.25086703
5.0650,73.11628894
5.0700,72.97959971
5.0750,72.8414039
5.0800,72.70140351
5.0850,72.5595993
5.0900,72.41582479
5.0950,72.26996441
5.1000,72.12193774
5.1050,71.97171781
5.1100,71.81916439
5.1150,71.66430743
5.1200,71.50682626
5.1250,71.34656524
5.1300,71.18357199
5.1350,71.01789501
5.1400,70.84930128
5.1450,70.67803304
5.1500,70.50354351
5.1550,70.32609524
5.1600,70.14520232
5.1650,69.9607833
5.1700,69.77250621
5.1750,69.58048679
5.1800,69.38472248
5.1850,69.18509357
5.1900,68.98163853
5.1950,68.77415679
5.2000,68.56243188
5.2050,68.34654969
5.2100,68.12655027
5.2150,67.90284641
5.2200,67.67513412
5.2250,67.44333347
5.2300,67.20727942
5.2350,66.96700893
5.2400,66.72224252
5.2450,66.47273773
5.2500,66.2180914
5.2550,65.95784987
5.2600,65.6916815
5.2650,65.41954151
5.2700,65.14103841
5.2750,64.85610247
5.2800,64.56452725
5.2850,64.26635585
5.2900,63.96188123
5.2950,63.65137492
5.3000,63.3346018
5.3050,63.01150796
5.3100,62.68167115
5.3150,62.34477837
5.3200,62.0008756
5.3250,61.64930254
5.3300,61.29049895
5.3350,60.92443022
5.3400,60.55115945
5.3450,60.17087104
5.3500,59.78356744
5.3550,59.38883686
5.3600,58.98664508
5.3650,58.57682433
5.3700,58.15918211
5.3750,57.7331516
5.3800,57.29860079
5.3850,56.85478971
5.3900,56.40189409
5.3950,55.93991806
5.4000,55.46878438
5.4050,54.98842875
5.4100,54.49921057
5.4150,54.00112543
5.4200,53.49450893
5.4250,52.97959284
5.4300,52.45687681
5.4350,51.92658066
5.4400,51.3890732
5.4450,50.84384203
5.4500,50.29098185
5.4550,49.7301047
5.4600,49.16157905
5.4650,48.58541573
5.4700,48.00168581
5.4750,47.41031374
5.4800,46.81161318
5.4850,46.20595434
5.4900,45.59381336
5.4950,44.97610834
5.5000,44.35316959
5.5050,43.72535193
5.5100,43.09269147
5.5150,42.45522544
5.5200,41.81321394
5.5250,41.166876
5.5300,40.51648932
5.5350,39.86254062
5.5400,39.20552049
5.5450,38.54558079
5.5500,37.88289481
5.5550,37.21825666
5.5600,36.55182902
5.5650,35.88422311
5.5700,35.21526326
5.5750,34.54508555
5.5800,33.87376574
5.5850,33.20108506
5.5900,32.52745069
5.5950,31.85278846
5.6000,31.17678185
5.6050,30.49994741
5.6100,29.82227846
5.6150,29.14404614
5.6200,28.46539392
5.6250,27.78639134
5.6300,27.10679296
5.6350,26.42674141
5.6400,25.74656297
5.6450,25.06630808
5.6500,24.38596009
5.6550,23.70607421
5.6600,23.02645033
5.6650,22.34755221
5.6700,21.66957577
5.6750,20.99302742
5.6800,20.31850584
5.6850,19.64646027
5.6900,18.97713546
5.6950,18.31097846
5.7000,17.64803528
5.7050,16.98867123
5.7100,16.33306375
5.7150,15.68219411
5.7200,15.03602483
5.7250,14.39533437
5.7300,13.76024377
5.7350,13.13151483
5.7400,12.50914612
5.7450,11.89317274
5.7500,11.2837176
5.7550,10.68109584
5.7600,10.08577782
5.7650,9.497604442
5.7700,8.916894288
5.7750,8.343429626
5.7800,7.776849844
5.7850,7.21724507
5.7900,6.664909232
5.7950,6.119522203
5.8000,5.581092559
5.8050,5.049397668
5.8100,4.524707652
5.8150,4.006367903
5.8200,3.494506984
5.8250,2.988854374
5.8300,2.489659467
5.8350,1.996300506
5.8400,1.508429789
5.8450,1.026333561
5.8500,0.5497699427
5.8550,0.07878447716
5.8600,-0.3865237808
5.8650,-0.845966976
5.8700,-1.29909658
5.8750,-1.745843502
5.8800,-2.186205503
5.8850,-2.619859599
5.8900,-3.046334468
5.8950,-3.465612158
5.9000,-3.876924935
5.9050,-4.280214496
5.9100,-4.675057036
5.9150,-5.061326188
5.9200,-5.438969969
5.9250,-5.807933914
5.9300,-6.168412904
5.9350,-6.520564141
5.9400,-6.864781904
5.9450,-7.201117308
5.9500,-7.52927235
5.9550,-7.849097417
5.9600,-8.160584288
5.9650,-8.463798861
5.9700,-8.758724992
5.9750,-9.045019805
5.9800,-9.322862581
5.9850,-9.592540916
5.9900,-9.854132447
5.9950,-10.10784474
6.0000,-10.35373563
6.0050,-10.59186908
6.0100,-10.82264793
6.0150,-11.04667302
6.0200,-11.26414993
6.0250,-11.475294
6.0300,-11.68011034
6.0350,-11.87860052
6.0400,-12.07080194
6.0450,-12.25660911
6.0500,-12.43638064
6.0550,-12.6106844
6.0600,-12.7800926
6.0650,-12.94505566
6.0700,-13.10629755
6.0750,-13.26411213
6.0800,-13.41896485
6.0850,-13.57113131
6.0900,-13.72076509
6.0950,-13.86765569
6.1000,-14.01203521
6.1050,-14.15357202
6.1100,-14.29236507
6.1150,-14.42853945
6.1200,-14.56211347
6.1250,-14.69331865
6.1300,-14.82246238
6.1350,-14.94939258
6.1400,-15.07399478
6.1450,-15.1963997
6.1500,-15.31654976
6.1550,-15.43427881
6.1600,-15.54967081
6.1650,-15.66257613
6.1700,-15.772959
6.1750,-15.88096465
6.1800,-15.98623447
6.1850,-16.08884931
6.1900,-16.18891028
6.1950,-16.28613871
6.2000,-16.380699
6.2050,-16.47278668
6.2100,-16.56231103
6.2150,-16.64921933
6.2200,-16.73373216
6.2250,-16.81550368
6.2300,-16.89441992
6.2350,-16.97037728
6.2400,-17.04302052
6.2450,-17.11210091
6.2500,-17.17781827
6.2550,-17.23995805
6.2600,-17.29868192
6.2650,-17.35406506
6.2700,-17.40623097
6.2750,-17.455505
6.2800,-17.50197067
6.2850,-17.54569105
6.2900,-17.58704357
6.2950,-17.62614505
6.3000,-17.66297206
6.3050,-17.69798499
6.3100,-17.73111857
6.3150,-17.76241869
6.3200,-17.79201558
6.3250,-17.82004028
6.3300,-17.84642611
6.3350,-17.87147256
6.3400,-17.89529387
6.3450,-17.91807446
6.3500,-17.94014755
6.3550,-17.96126631
6.3600,-17.98194384
6.3650,-18.00214282
6.3700,-18.02183949
6.3750,-18.04112753
6.3800,-18.06000307
6.3850,-18.07838953
6.3900,-18.09624606
6.3950,-18.11391206
6.4000,-18.13113515
6.4050,-18.14800646
6.4100,-18.16461586
6.4150,-18.18095028
6.4200,-18.19735445
6.4250,-18.21369667
6.4300,-18.23007468
6.4350,-18.24632317
6.4400,-18.26271778
6.4450,-18.27896896
6.4500,-18.29481225
6.4550,-18.31019335
6.4600,-18.32476444
6.4650,-18.33846284
6.4700,-18.35113176
6.4750,-18.36248077
6.4800,-18.37270306
6.4850,-18.38188329
6.4900,-18.39037113
6.4950,-18.39821429
6.5000,-18.4055559
6.5050,-18.41232332
6.5100,-18.41840079
6.5150,-18.42377871
6.5200,-18.42816979
6.5250,-18.43153151
6.5300,-18.43361765
6.5350,-18.43423687
6.5400,-18.4334522
6.5450,-18.43117358
6.5500,-18.42727805
6.5550,-18.42183715
6.5600,-18.41461964
6.5650,-18.40566586
6.5700,-18.39515433
6.5750,-18.38284848
6.5800,-18.36873858
6.5850,-18.35271601
6.5900,-18.33466593
6.5950,-18.31445548
6.6000,-18.29176122
6.6050,-18.26650815
6.6100,-18.23864516
6.6150,-18.20830833
6.6200,-18.17564308
6.6250,-18.14049558
6.6300,-18.10308098
6.6350,-18.06325831
6.6400,-18.02120317
6.6450,-17.97673471
6.6500,-17.92967235
6.6550,-17.87987425
6.6600,-17.8270993
6.6650,-17.77113072
6.6700,-17.71198103
6.6750,-17.64953076
6.6800,-17.58396825
6.6850,-17.51561048
6.6900,-17.44472624
6.6950,-17.3715021
6.7000,-17.29613432
6.7050,-17.21873554
6.7100,-17.13954132
6.7150,-17.05838104
6.7200,-16.97505826
6.7250,-16.88969943
6.7300,-16.80184457
6.7350,-16.71165284
6.7400,-16.61881892
6.7450,-16.52374211
6.7500,-16.4265221
6.7550,-16.32752248
6.7600,-16.22707681
6.7650,-16.12514353
6.7700,-16.02213116
6.7750,-15.91825396
6.7800,-15.81374213
6.7850,-15.70867077
6.7900,-15.60311055
6.7950,-15.49757091
6.8000,-15.39230853
6.8050,-15.28747646
6.8100,-15.18361523
6.8150,-15.08098128
6.8200,-14.97972555
6.8250,-14.88027847
6.8300,-14.78309989
6.8350,-14.68836172
6.8400,-14.59579015
6.8450,-14.5056543
6.8500,-14.41768042
6.8550,-14.3319979
6.8600,-14.24875784
6.8650,-14.16782011
6.8700,-14.08900111
6.8750,-14.01258225
6.8800,-13.93889989
6.8850,-13.86813563
6.8900,-13.80053938
6.8950,-13.73651956
6.9000,-13.67658149
6.9050,-13.62087592
6.9100,-13.56979108
6.9150,-13.52346577
6.9200,-13.48194833
6.9250,-13.44528995
6.9300,-13.41368458
6.9350,-13.38688859
6.9400,-13.36471999
6.9450,-13.34702023
6.9500,-13.33361332
6.9550,-13.3242325
6.9600,-13.31860648
6.9650,-13.31652904
6.9700,-13.31775374
6.9750,-13.32204722
6.9800,-13.32890182
6.9850,-13.33764558
6.9900,-13.34796151
6.9950,-13.35900321
7.0000,-13.37041063
7.0050,-13.38186107
7.0100,-13.39313016
7.0150,-13.40412276
7.0200,-13.41497588
7.0250,-13.4256805
7.0300,-13.43643357
7.0350,-13.44715544
7.0400,-13.45798329
7.0450,-13.46867826
7.0500,-13.4790579
7.0550,-13.48884118
7.0600,-13.49792137
7.0650,-13.5063769
7.0700,-13.51389572
7.0750,-13.52036689
7.0800,-13.52581601
7.0850,-13.5301362
7.0900,-13.53349641
7.0950,-13.53542862
7.1000,-13.5358962
7.1050,-13.53502853
7.1100,-13.53244185
7.1150,-13.52836949
7.1200,-13.52276687
7.1250,-13.51543774
7.1300,-13.50639872
7.1350,-13.4955147
7.1400,-13.4832671
7.1450,-13.46945139
7.1500,-13.45425924
7.1550,-13.43777753
7.1600,-13.41992019
7.1650,-13.40084144
7.1700,-13.3807465
7.1750,-13.35944764
7.1800,-13.33688382
7.1850,-13.31326545
7.1900,-13.28846775
7.1950,-13.26245406
7.2000,-13.23532083
7.2050,-13.20742164
7.2100,-13.17897413
7.2150,-13.15012367
7.2200,-13.12095092
7.2250,-13.09193498
7.2300,-13.06284224
7.2350,-13.03408651
7.2400,-13.00548319
7.2450,-12.97714404
7.2500,-12.94905168
7.2550,-12.92136778
7.2600,-12.89406108
7.2650,-12.86722452
7.2700,-12.84060485
7.2750,-12.81424029
7.2800,-12.78835607
7.2850,-12.76292417
7.2900,-12.73792999
7.2950,-12.71367515
7.3000,-12.69027525
7.3050,-12.66768632
7.3100,-12.64618189
7.3150,-12.62577914
7.3200,-12.60628203
7.3250,-12.58763608
7.3300,-12.56971619
7.3350,-12.55280112
7.3400,-12.53670763
7.3450,-12.52151842
7.3500,-12.50727208
7.3550,-12.49400128
7.3600,-12.48134651
7.3650,-12.46923505
7.3700,-12.45763079
7.3750,-12.44633759
7.3800,-12.43500081
7.3850,-12.42372704
7.3900,-12.41216584
7.3950,-12.40057685
7.4000,-12.38874226
7.4050,-12.37671816
7.4100,-12.36460126
7.4150,-12.3522637
7.4200,-12.33976758
7.4250,-12.32722842
7.4300,-12.31433853
7.4350,-12.30123516
7.4400,-12.28778045
7.4450,-12.27411765
7.4500,-12.26042468
7.4550,-12.24667637
7.4600,-12.23289748
7.4650,-12.21931224
7.4700,-12.20593708
7.4750,-12.19280338
7.4800,-12.18013393
7.4850,-12.16768162
7.4900,-12.15558695
7.4950,-12.14386008
7.5000,-12.13218903
7.5050,-12.12026305
7.5100,-12.10798178
7.5150,-12.09522636
7.5200,-12.08186398
7.5250,-12.06770372
7.5300,-12.05314898
7.5350,-12.03826863
7.5400,-12.02340151
7.5450,-12.00875831
7.5500,-11.99444674
7.5550,-11.9807586
7.5600,-11.96776354
7.5650,-11.95514983
7.5700,-11.94310039
7.5750,-11.93147699
7.5800,-11.92001717
7.5850,-11.90883768
7.5900,-11.89779639
7.5950,-11.8870473
7.6000,-11.87644248
7.6050,-11.8663998
7.6100,-11.85655577
7.6150,-11.84712772
7.6200,-11.83800216
7.6250,-11.82941091
7.6300,-11.82140275
7.6350,-11.81371738
7.6400,-11.80645224
7.6450,-11.7995336
7.6500,-11.79308449
7.6550,-11.78723086
7.6600,-11.78226514
7.6650,-11.778469
7.6700,-11.77585948
7.6750,-11.77459657
7.6800,-11.7748799
7.6850,-11.77657154
7.6900,-11.77967023
7.6950,-11.78401772
7.7000,-11.78949673
7.7050,-11.79571066
7.7100,-11.80289048
7.7150,-11.81075541
7.7200,-11.81932728
7.7250,-11.82854303
7.7300,-11.83841119
7.7350,-11.84867651
7.7400,-11.85943297
7.7450,-11.87052733
7.7500,-11.8819401
7.7550,-11.89353675
7.7600,-11.90541125
7.7650,-11.91717777
7.7700,-11.92900485
7.7750,-11.94075908
7.7800,-11.95207237
7.7850,-11.96310455
7.7900,-11.97375915
7.7950,-11.98396258
7.8000,-11.9937648
7.8050,-12.00325392
7.8100,-12.01251538
7.8150,-12.02163733
7.8200,-12.03046609
7.8250,-12.0392215
7.8300,-12.04760945
7.8350,-12.05556428
7.8400,-12.06283627
7.8450,-12.06920512
7.8500,-12.0747275
7.8550,-12.07905366
7.8600,-12.0824111
7.8650,-12.08500236
7.8700,-12.08685096
7.8750,-12.08806557
7.8800,-12.0887626
7.8850,-12.08896434
7.8900,-12.08883959
7.8950,-12.08818502
7.9000,-12.086839
7.9050,-12.08441205
7.9100,-12.08109148
7.9150,-12.07663015
7.9200,-12.07102907
7.9250,-12.06418793
7.9300,-12.05601766
7.9350,-12.04664778
7.9400,-12.03599727
7.9450,-12.02428484
7.9500,-12.0114381
7.9550,-11.99759387
7.9600,-11.98263047
7.9650,-11.96624887
7.9700,-11.94867294
7.9750,-11.92984386
7.9800,-11.90979465
7.9850,-11.88852658
7.9900,-11.86618282
7.9950,-11.84287863
8.0000,-11.8188344
8.0050,-11.79436527
8.0100,-11.76927389
8.0150,-11.74395329
8.0200,-11.71831748
8.0250,-11.69243855
8.0300,-11.66648317
8.0350,-11.64052489
8.0400,-11.6143607
8.0450,-11.58802796
8.0500,-11.56139022
8.0550,-11.53446355
8.0600,-11.50710213
8.0650,-11.47925646
8.0700,-11.45070935
8.0750,-11.4215475
8.0800,-11.39172037
8.0850,-11.36119155
8.0900,-11.3299061
8.0950,-11.29770712
8.1000,-11.26451498
8.1050,-11.23008976
8.1100,-11.19399997
8.1150,-11.15584362
8.1200,-11.11586749
8.1250,-11.07384462
8.1300,-11.02965277
8.1350,-10.98329159
8.1400,-10.93481467
8.1450,-10.88435633
8.1500,-10.83170403
8.1550,-10.77712052
8.1600,-10.72021514
8.1650,-10.66113718
8.1700,-10.59934245
8.1750,-10.53479087
8.1800,-10.46735817
8.1850,-10.39690806
8.1900,-10.32299911
8.1950,-10.24582628
8.2000,-10.16521951
8.2050,-10.08130917
8.2100,-9.993707966
8.2150,-9.902229199
8.2200,-9.80685285
8.2250,-9.70727487
8.2300,-9.603326793
8.2350,-9.494675794
8.2400,-9.381389857
8.2450,-9.263056291
8.2500,-9.139718414
8.2550,-9.011047966
8.2600,-8.877125444
8.2650,-8.738214582
8.2700,-8.594062798
8.2750,-8.444920287
8.2800,-8.290797215
8.2850,-8.131998178
8.2900,-7.968835785
8.2950,-7.801172873
8.3000,-7.629287112
8.3050,-7.453144916
8.3100,-7.27309745
8.3150,-7.089172587
8.3200,-6.901826824
8.3250,-6.711107602
8.3300,-6.517373012
8.3350,-6.320984124
8.3400,-6.122209222
8.3450,-5.921340602
8.3500,-5.718673844
8.3550,-5.514220074
8.3600,-5.308198688
8.3650,-5.101002161
8.3700,-4.892796897
8.3750,-4.683705843
8.3800,-4.47404551
8.3850,-4.263931628
8.3900,-4.053457518
8.3950,-3.842799262
8.4000,-3.632311827
8.4050,-3.421937686
8.4100,-3.211645342
8.4150,-3.001870681
8.4200,-2.792130491
8.4250,-2.582417557
8.4300,-2.372572674
8.4350,-2.162300373
8.4400,-1.951095013
8.4450,-1.738727401
8.4500,-1.524945303
8.4550,-1.309271862
8.4600,-1.091484033
8.4650,-0.8710240068
8.4700,-0.6478732355
8.4750,-0.421589857
8.4800,-0.1918560814
8.4850,0.04178595851
8.4900,0.2793475096
8.4950,0.5214197215
8.5000,0.7677101622
8.5050,1.01878572
8.5100,1.2746534
8.5150,1.535333919
8.5200,1.801026945
8.5250,2.071811952
8.5300,2.347762116
8.5350,2.629040053
8.5400,2.915520552
8.5450,3.207367394
8.5500,3.504785081
8.5550,3.807401372
8.5600,4.115731261
8.5650,4.429408259
8.5700,4.748458971
8.5750,5.072847488
8.5800,5.40231049
8.5850,5.737318013
8.5900,6.078070299
8.5950,6.42395281
8.6000,6.77486857
8.6050,7.130775333
8.6100,7.491554433
8.6150,7.85694445
8.6200,8.2269569
8.6250,8.601444429
8.6300,8.980289923
8.6350,9.363481328
8.6400,9.750890283
8.6450,10.14228782
8.6500,10.53796759
8.6550,10.93710268
8.6600,11.33965052
8.6650,11.74590149
8.6700,12.15564426
8.6750,12.56873595
8.6800,12.98525054
8.6850,13.40527505
8.6900,13.82888471
8.6950,14.25611394
8.7000,14.68730582
8.7050,15.12224013
8.7100,15.56107523
8.7150,16.00388013
8.7200,16.45074838
8.7250,16.9018494
8.7300,17.35703765
8.7350,17.81658938
8.7400,18.28015318
8.7450,18.74779465
8.7500,19.21952704
8.7550,19.69538781
8.7600,20.17509392
8.7650,20.65859175
8.7700,21.14575236
8.7750,21.63621338
8.7800,22.12999612
8.7850,22.62662814
8.7900,23.12600105
8.7950,23.62787319
8.8000,24.13235897
8.8050,24.63885591
8.8100,25.14703183
8.8150,25.65656467
8.8200,26.16741434
8.8250,26.6788904
8.8300,27.19096627
8.8350,27.70306232
8.8400,28.21520709
8.8450,28.72742257
8.8500,29.23906097
8.8550,29.75031171
8.8600,30.260654
8.8650,30.77026616
8.8700,31.27927716
8.8750,31.78721072
8.8800,32.2943085
8.8850,32.80021506
8.8900,33.30516638
8.8950,33.8088571
8.9000,34.31132097
8.9050,34.8122057
8.9100,35.31161671
8.9150,35.80959402
8.9200,36.30603084
8.9250,36.80039265
8.9300,37.29315908
8.9350,37.78399258
8.9400,38.27279091
8.9450,38.75936851
8.9500,39.24348151
8.9550,39.72516097
8.9600,40.20462741
8.9650,40.68137841
8.9700,41.1554785
8.9750,41.62715022
8.9800,42.09631727
8.9850,42.56294993
8.9900,43.02690447
8.9950,43.48800889
9.0000,43.94648358
9.0050,44.40221427
9.0100,44.85525286
9.0150,45.30554577
9.0200,45.75288065
9.0250,46.19748224
9.0300,46.63922774
9.0350,47.07803554
9.0400,47.51441469
9.0450,47.94798292
9.0500,48.37872738
9.0550,48.80664044
9.0600,49.2316217
9.0650,49.65384973
9.0700,50.07314885
9.0750,50.489886
9.0800,50.90394081
9.0850,51.3152715
9.0900,51.72403769
9.0950,52.13035536
9.1000,52.53404975
9.1050,52.93564337
9.1100,53.33473436
9.1150,53.73156266
9.1200,54.12561245
9.1250,54.51703569
9.1300,54.90539772
9.1350,55.29044842
9.1400,55.67181795
9.1450,56.0493153
9.1500,56.42294608
9.1550,56.79223698
9.1600,57.15741496
9.1650,57.51816525
9.1700,57.87427524
9.1750,58.22601615
9.1800,58.5733568
9.1850,58.9157705
9.1900,59.25321125
9.1950,59.5855222
9.2000,59.91315014
9.2050,60.236143
9.2100,60.5546289
9.2150,60.86859662
9.2200,61.17796541
9.2250,61.48327634
9.2300,61.78410862
9.2350,62.08082093
9.2400,62.37348091
9.2450,62.66241628
9.2500,62.94710243
9.2550,63.22769472
9.2600,63.50367237
9.2650,63.77505799
9.2700,64.042276
9.2750,64.3049964
9.2800,64.56354069
9.2850,64.817606
9.2900,65.06762887
9.2950,65.31342924
9.3000,65.5547433
9.3050,65.79186458
9.3100,66.02440378
9.3150,66.25317204
9.3200,66.47815623
9.3250,66.6994964
9.3300,66.91757594
9.3350,67.13245963
9.3400,67.34475054
9.3450,67.55446144
9.3500,67.76167708
9.3550,67.96630247
9.3600,68.16875307
9.3650,68.36902512
9.3700,68.5669787
9.3750,68.76262534
9.3800,68.95582472
9.3850,69.14694052
9.3900,69.33581825
9.3950,69.52236386
9.4000,69.70668619
9.4050,69.88815698
9.4100,70.06719572
9.4150,70.24378004
9.4200,70.41773459
9.4250,70.58922542
9.4300,70.75829446
9.4350,70.92522027
9.4400,71.09016627
9.4450,71.25291714
9.4500,71.41332358
9.4550,71.5716717
9.4600,71.72762128
9.4650,71.88143291
9.4700,72.03299196
9.4750,72.18258577
9.4800,72.33011103
9.4850,72.4760236
9.4900,72.62048892
9.4950,72.7636453
9.5000,72.90529617
9.5050,73.04517012
9.5100,73.18313214
9.5150,73.31918885
9.5200,73.45367534
9.5250,73.58631199
9.5300,73.71735105
9.5350,73.84661765
9.5400,73.9740044
9.5450,74.0995484
9.5500,74.22341711
9.5550,74.34559487
9.5600,74.46593304
9.5650,74.58435803
9.5700,74.70072438
9.5750,74.81538035
9.5800,74.92793592
9.5850,75.03877669
9.5900,75.14740304
9.5950,75.25403402
9.6000,75.35883686
9.6050,75.46183148
9.6100,75.56333885
9.6150,75.66288272
9.6200,75.76066871
9.6250,75.85699951
9.6300,75.95187148
9.6350,76.04524341
9.6400,76.13672551
9.6450,76.22657851
9.6500,76.31502093
9.6550,76.4022051
9.6600,76.48830962
9.6650,76.57347332
9.6700,76.65781889
9.6750,76.741237
9.6800,76.82416653
9.6850,76.90618948
9.6900,76.98737685
9.6950,77.06783685
9.7000,77.14745553
9.7050,77.22682404
9.7100,77.3057628
9.7150,77.38416744
9.7200,77.46231426
9.7250,77.53990049
9.7300,77.6170746
9.7350,77.6939504
9.7400,77.77053514
9.7450,77.84672886
9.7500,77.92299954
9.7550,77.99911697
9.7600,78.0752183
9.7650,78.15116167
9.7700,78.22672289
9.7750,78.30166288
9.7800,78.3759699
9.7850,78.44964088
9.7900,78.52225213
9.7950,78.59398948
9.8000,78.6647049
9.8050,78.73427709
9.8100,78.80272705
9.8150,78.87023449
9.8200,78.93651174
9.8250,79.00170068
9.8300,79.06567646
9.8350,79.12841836
9.8400,79.18989659
9.8450,79.25007472
9.8500,79.30908915
9.8550,79.3670426
9.8600,79.4239119
9.8650,79.47983823
9.8700,79.53437102
9.8750,79.58735896
9.8800,79.63859342
9.8850,79.68800353
9.8900,79.73577049
9.8950,79.782023
9.9000,79.82670085
9.9050,79.86969505
9.9100,79.91105257
9.9150,79.95096814
9.9200,79.98925485
9.9250,80.02558246
9.9300,80.06021177
9.9350,80.09329468
9.9400,80.12519273
9.9450,80.15591931
9.9500,80.18586834
9.9550,80.21468587
9.9600,80.24250766
9.9650,80.26935905
9.9700,80.29499994
9.9750,80.31980025
9.9800,80.34356055
9.9850,80.36640971
9.9900,80.38862978
9.9950,80.41016212
10.0000,80.43122293
10.0050,80.45125604
10.0100,80.47024952
10.0150,80.48836468
10.0200,80.50552819
10.0250,80.52189062
10.0300,80.53722368
10.0350,80.55169925
10.0400,80.56522521
10.0450,80.57795079
10.0500,80.58976039
10.0550,80.60072013
10.0600,80.61083935
10.0650,80.62022218
10.0700,80.62931677
10.0750,80.63809238
10.0800,80.64659135
10.0850,80.65483821
10.0900,80.66280104
10.0950,80.6706632
10.1000,80.67877907
10.1050,80.68740624
10.1100,80.69653256
10.1150,80.70619172
10.1200,80.71640922
10.1250,80.72714322
10.1300,80.73835361
10.1350,80.74974127
10.1400,80.76129135
10.1450,80.7731466
10.1500,80.78524361
10.1550,80.79746197
10.1600,80.80989532
10.1650,80.82223522
10.1700,80.83465253
10.1750,80.84705416
10.1800,80.85973573
10.1850,80.87252304
10.1900,80.88510776
10.1950,80.89712502
10.2000,80.90834773
10.2050,80.91861683
10.2100,80.92800174
10.2150,80.93650795
10.2200,80.94416657
10.2250,80.95079506
10.2300,80.95602696
10.2350,80.95963902
10.2400,80.96117989
10.2450,80.96054679
10.2500,80.95726677
10.2550,80.95166823
10.2600,80.94361292
10.2650,80.93290442
10.2700,80.91956493
10.2750,80.90345221
10.2800,80.88455978
10.2850,80.8629072
10.2900,80.83823603
10.2950,80.81051393
10.3000,80.77964433
10.3050,80.7459382
10.3100,80.70932276
10.3150,80.66971579
10.3200,80.62702676
10.3250,80.58131324
10.3300,80.53301735
10.3350,80.4820016
10.3400,80.42855923
10.3450,80.37309469
10.3500,80.31568263
10.3550,80.25657386
10.3600,80.19598492
10.3650,80.1340188
10.3700,80.07068799
10.3750,80.00612076
10.3800,79.94041943
10.3850,79.8739134
10.3900,79.80687713
10.3950,79.73962317
10.4000,79.67228138
10.4050,79.60487222
10.4100,79.53763223
10.4150,79.4706593
10.4200,79.40411117
10.4250,79.3384194
10.4300,79.27378881
10.4350,79.21076114
10.4400,79.14953757
10.4450,79.09009786
10.4500,79.03237553
10.4550,78.97648551
10.4600,78.92253101
10.4650,78.870842
10.4700,78.82155336
10.4750,78.77478709
10.4800,78.7304272
10.4850,78.68837389
10.4900,78.64882516
10.4950,78.61160256
10.5000,78.57691619
10.5050,78.54487593
10.5100,78.51497773
10.5150,78.48708304
10.5200,78.46103396
10.5250,78.43669373
10.5300,78.41388969
10.5350,78.39245521
10.5400,78.37237905
10.5450,78.35359812
10.5500,78.33603805
10.5550,78.31936488
10.5600,78.30326514
10.5650,78.28770747
10.5700,78.27261968
10.5750,78.25773333
10.5800,78.24279978
10.5850,78.2276019
10.5900,78.2120409
10.5950,78.19571109
10.6000,78.17853624
10.6050,78.16014185
10.6100,78.14067093
10.6150,78.12013812
10.6200,78.09868602
10.6250,78.07623522
10.6300,78.05269743
10.6350,78.02789312
10.6400,78.00153013
10.6450,77.97355265
10.6500,77.94382715
10.6550,77.91262615
10.6600,77.88001939
10.6650,77.84617155
10.6700,77.8111059
10.6750,77.77503107
10.6800,77.73799504
10.6850,77.69977778
10.6900,77.66058163
10.6950,77.61991438
10.7000,77.577703
10.7050,77.53408585
10.7100,77.48935301
10.7150,77.44351778
10.7200,77.3967116
10.7250,77.34876426
10.7300,77.2998767
10.7350,77.24975656
10.7400,77.19845035
10.7450,77.14583829
10.7500,77.09197614
10.7550,77.03700958
10.7600,76.98090434
10.7650,76.9235124
10.7700,76.86462315
10.7750,76.80422805
10.7800,76.74223987
10.7850,76.67883403
10.7900,76.61386061
10.7950,76.54733544
10.8000,76.47892167
10.8050,76.40864785
10.8100,76.33673748
10.8150,76.26271846
10.8200,76.18653371
10.8250,76.10816652
10.8300,76.0275012
10.8350,75.94456146
10.8400,75.85915188
10.8450,75.77109924
10.8500,75.6803634
10.8550,75.58710908
10.8600,75.49137691
10.8650,75.39327348
10.8700,75.29290997
10.8750,75.19023866
10.8800,75.08525334
10.8850,74.97811515
10.8900,74.869238
10.8950,74.75893902
10.9000,74.64726272
10.9050,74.53445273
10.9100,74.42036946
10.9150,74.30504507
10.9200,74.1883908
10.9250,74.07028997
10.9300,73.95058739
10.9350,73.82917095
10.9400,73.7060952
10.9450,73.58100337
10.9500,73.45383199
10.9550,73.32470592
10.9600,73.19346981
10.9650,73.06020446
10.9700,72.92475155
10.9750,72.78751998
10.9800,72.64859267
10.9850,72.50820857
10.9900,72.36641033
10.9950,72.22323355
11.0000,72.07897048
11.0050,71.93379232
11.0100,71.78755812
11.0150,71.64018285
11.0200,71.49163127
11.0250,71.34190146
11.0300,71.19057703
11.0350,71.03799084
11.0400,70.88376146
11.0450,70.7280669
11.0500,70.5710196
11.0550,70.41250452
11.0600,70.25260124
11.0650,70.09145961
11.0700,69.92924476
11.0750,69.76536258
11.0800,69.59939995
11.0850,69.43101833
11.0900,69.25986615
11.0950,69.08606973
11.1000,68.90927497
11.1050,68.72899464
11.1100,68.54460584
11.1150,68.35624588
11.1200,68.16383225
11.1250,67.96715759
11.1300,67.7664082
11.1350,67.56154641
11.1400,67.3525531
11.1450,67.13922437
11.1500,66.921538
11.1550,66.69908607
11.1600,66.4717145
11.1650,66.23927699
11.1700,66.00176678
11.1750,65.75921595
11.1800,65.51149478
11.1850,65.2586915
11.1900,65.00005849
11.1950,64.73544759
11.2000,64.46441624
11.2050,64.18640837
11.2100,63.90076384
11.2150,63.60742194
11.2200,63.30614
11.2250,62.99712869
11.2300,62.68003686
11.2350,62.35479184
11.2400,62.02123512
11.2450,61.67979499
11.2500,61.33061936
11.2550,60.97286505
11.2600,60.60657449
11.2650,60.23133903
11.2700,59.84773011
11.2750,59.45573179
11.2800,59.05570946
11.2850,58.64794463
11.2900,58.23267391
11.2950,57.81033006
11.3000,57.38119288
11.3050,56.94570731
11.3100,56.50394229
11.3150,56.0559961
11.3200,55.60173851
11.3250,55.14112238
11.3300,54.67438665
11.3350,54.20158477
11.3400,53.72307648
11.3450,53.23851833
11.3500,52.74803634
11.3550,52.25167563
11.3600,51.7491957
11.3650,51.24032261
11.3700,50.72506708
11.3750,50.2036519
11.3800,49.6761826
11.3850,49.14287117
11.3900,48.60380723
11.3950,48.05877214
11.4000,47.50808882
11.4050,46.95178275
11.4100,46.38989951
11.4150,45.82236248
11.4200,45.24921788
11.4250,44.67036659
11.4300,44.08585149
11.4350,43.49579838
11.4400,42.9003104
11.4450,42.2990316
11.4500,41.69205609
11.4550,41.07934695
11.4600,40.46127443
11.4650,39.83786215
11.4700,39.20919876
11.4750,38.57533096
11.4800,37.93674251
11.4850,37.29348707
11.4900,36.64593563
11.4950,35.99447
11.5000,35.33943706
11.5050,34.68142558
11.5100,34.02100876
11.5150,33.35824666
11.5200,32.69315369
11.5250,32.02594062
11.5300,31.35726784
11.5350,30.68745631
11.5400,30.01721954
11.5450,29.34648066
11.5500,28.67592634
11.5550,28.00649703
11.5600,27.33872402
11.5650,26.67305348
11.5700,26.00975229
11.5750,25.34897943
11.5800,24.69111578
11.5850,24.03670016
11.5900,23.3858485
11.5950,22.73926935
11.6000,22.09734262
11.6050,21.46030723
11.6100,20.82915614
11.6150,20.20402591
11.6200,19.58499682
11.6250,18.97226059
11.6300,18.36624485
11.6350,17.76707614
11.6400,17.17480992
11.6450,16.58962414
11.6500,16.01167751
11.6550,15.44083428
11.6600,14.87704322
11.6650,14.32053884
11.6700,13.77101078
11.6750,13.22848047
11.6800,12.69299636
11.6850,12.16422271
11.6900,11.64230842
11.6950,11.12706414
11.7000,10.61805941
11.7050,10.11487087
11.7100,9.617445453
11.7150,9.12552982
11.7200,8.639203099
11.7250,8.158591184
11.7300,7.683793373
11.7350,7.214860438
11.7400,6.751821875
11.7450,6.295081185
11.7500,5.8444916
11.7550,5.400059254
11.7600,4.961831693
11.7650,4.529952069
11.7700,4.104246163
11.7750,3.684696841
11.7800,3.271571762
11.7850,2.86480239
11.7900,2.464595843
11.7950,2.070824796
11.8000,1.683654983
11.8050,1.302927497
11.8100,0.9291009516
11.8150,0.561908124
11.8200,0.2012655782
11.8250,-0.1529470435
11.8300,-0.5006503905
11.8350,-0.8419971229
11.8400,-1.1770177
11.8450,-1.505658299
11.8500,-1.828008319
11.8550,-2.144001024
11.8600,-2.453570538
11.8650,-2.756580301
11.8700,-3.052866727
11.8750,-3.342334713
11.8800,-3.625019138
11.8850,-3.900814791
11.8900,-4.169796706
11.8950,-4.432198621
11.9000,-4.688296342
11.9050,-4.937743621
11.9100,-5.180798026
11.9150,-5.417403343
11.9200,-5.64743307
11.9250,-5.871402705
11.9300,-6.08941832
11.9350,-6.30176125
11.9400,-6.508294823
11.9450,-6.7093833
11.9500,-6.905336115
11.9550,-7.09619611
11.9600,-7.282163114
11.9650,-7.463826939
11.9700,-7.641338802
11.9750,-7.815233537
11.9800,-7.985703773
11.9850,-8.15310902
11.9900,-8.31753199
11.9950,-8.478988028
12.0000,-8.637642206
12.0050,-8.793293652
12.0100,-8.946223223
12.0150,-9.096477956
12.0200,-9.244200213
12.0250,-9.389330488
12.0300,-9.532123458
12.0350,-9.672779415
12.0400,-9.811304893
12.0450,-9.948012711
12.0500,-10.08320585
12.0550,-10.21663762
12.0600,-10.34840159
12.0650,-10.47853857
12.0700,-10.60704531
12.0750,-10.73412929
12.0800,-10.85999862
12.0850,-10.98506394
12.0900,-11.10941381
12.0950,-11.23340603
12.1000,-11.35730248
12.1050,-11.48117612
12.1100,-11.60568644
12.1150,-11.73057
12.1200,-11.85591414
12.1250,-11.98173643
12.1300,-12.10799126
12.1350,-12.23440233
12.1400,-12.36114044
12.1450,-12.48801035
12.1500,-12.61494776
12.1550,-12.74216351
12.1600,-12.86954686
12.1650,-12.99686912
12.1700,-13.12412569
12.1750,-13.25112554
12.1800,-13.37752401
12.1850,-13.50305895
12.1900,-13.62740588
12.1950,-13.75036793
12.2000,-13.87164382
12.2050,-13.99141427
12.2100,-14.1096501
12.2150,-14.22613222
12.2200,-14.34098886
12.2250,-14.45422338
12.2300,-14.56564101
12.2350,-14.67514461
12.2400,-14.78261415
12.2450,-14.88794313
12.2500,-14.99074742
12.2550,-15.0911402
12.2600,-15.18907881
12.2650,-15.28423124
12.2700,-15.37676286
12.2750,-15.46642963
12.2800,-15.5534499
12.2850,-15.63773753
12.2900,-15.71951849
12.2950,-15.79884065
12.3000,-15.87559609
12.3050,-15.94996905
12.3100,-16.0222262
12.3150,-16.09228694
12.3200,-16.16012066
12.3250,-16.2259035
12.3300,-16.28931149
12.3350,-16.35036569
12.3400,-16.40900357
12.3450,-16.46490658
12.3500,-16.51796889
12.3550,-16.5684005
12.3600,-16.61632121
12.3650,-16.66173851
12.3700,-16.70475962
12.3750,-16.74531783
12.3800,-16.78356175
12.3850,-16.81898421
12.3900,-16.85173213
12.3950,-16.88152835
12.4000,-16.90827467
12.4050,-16.93205052
12.4100,-16.9526066
12.4150,-16.96996164
12.4200,-16.98411885
12.4250,-16.99502388
12.4300,-17.00269139
12.4350,-17.00742338
12.4400,-17.00908668
12.4450,-17.00797195
12.4500,-17.0040971
12.4550,-16.99754744
12.4600,-16.98828828
12.4650,-16.97650407
12.4700,-16.96223357
12.4750,-16.94570901
12.4800,-16.9272252
12.4850,-16.90686358
12.4900,-16.88503362
12.4950,-16.86173054
12.5000,-16.83689912
12.5050,-16.81069947
12.5100,-16.7829782
12.5150,-16.75366697
12.5200,-16.72277087
12.5250,-16.6900302
12.5300,-16.65568121
12.5350,-16.61965952
12.5400,-16.58223512
12.5450,-16.54339578
12.5500,-16.50357439
12.5550,-16.46283392
12.5600,-16.42129356
12.5650,-16.37933566
12.5700,-16.33711132
12.5750,-16.29488109
12.5800,-16.25289498
12.5850,-16.21141833
12.5900,-16.17056072
12.5950,-16.1305331
12.6000,-16.09150206
12.6050,-16.05373817
12.6100,-16.01729021
12.6150,-15.98240974
12.6200,-15.94939537
12.6250,-15.91837847
12.6300,-15.8894422
12.6350,-15.86259428
12.6400,-15.8378162
12.6450,-15.81509903
12.6500,-15.79424527
12.6550,-15.77513371
12.6600,-15.75741239
12.6650,-15.74092743
12.6700,-15.72549081
12.6750,-15.71077598
12.6800,-15.69656558
12.6850,-15.68283841
12.6900,-15.66957059
12.6950,-15.65675536
12.7000,-15.64426313
12.7050,-15.63191292
12.7100,-15.61950697
12.7150,-15.60724094
12.7200,-15.59498498
12.7250,-15.58273332
12.7300,-15.57049522
12.7350,-15.55814167
12.7400,-15.54570442
12.7450,-15.53301571
12.7500,-15.52015456
12.7550,-15.50700779
12.7600,-15.49361097
12.7650,-15.47997967
12.7700,-15.46645381
12.7750,-15.4530906
12.7800,-15.44009534
12.7850,-15.42769561
12.7900,-15.41574689
12.7950,-15.40448543
12.8000,-15.39423329
12.8050,-15.38519064
12.8100,-15.37766267
12.8150,-15.37186891
12.8200,-15.36787877
12.8250,-15.36582345
12.8300,-15.36576257
12.8350,-15.36776699
12.8400,-15.37160622
12.8450,-15.37732138
12.8500,-15.38481974
12.8550,-15.39406263
12.8600,-15.40501183
12.8650,-15.41763282
12.8700,-15.4320155
12.8750,-15.44826463
12.8800,-15.46634959
12.8850,-15.4861898
12.8900,-15.50803436
12.8950,-15.53192123
12.9000,-15.55810344
12.9050,-15.58678651
12.9100,-15.61835612
12.9150,-15.65284885
12.9200,-15.69018791
12.9250,-15.73024504
12.9300,-15.7731081
12.9350,-15.81840941
12.9400,-15.86571868
12.9450,-15.91478923
12.9500,-15.96522098
12.9550,-16.01649873
12.9600,-16.0683508
12.9650,-16.12018027
12.9700,-16.17140269
12.9750,-16.22146534
12.9800,-16.27004526
12.9850,-16.31677557
12.9900,-16.36146408
12.9950,-16.40412168
13.0000,-16.4450321
13.0050,-16.48397085
13.0100,-16.5215125
13.0150,-16.55770547
13.0200,-16.59287818
13.0250,-16.62734204
13.0300,-16.66155041
13.0350,-16.69582886
13.0400,-16.73040607
13.0450,-16.76537349
13.0500,-16.80082242
13.0550,-16.83669261
13.0600,-16.87321138
13.0650,-16.91020294
13.0700,-16.9473005
13.0750,-16.98413551
13.0800,-17.02016897
13.0850,-17.05492246
13.0900,-17.08816474
13.0950,-17.11940889
13.1000,-17.14820961
13.1050,-17.17404026
13.1100,-17.19656131
13.1150,-17.21537366
13.1200,-17.23018797
13.1250,-17.24084797
13.1300,-17.24757776
13.1350,-17.25046073
13.1400,-17.25005353
13.1450,-17.24653977
13.1500,-17.24021433
13.1550,-17.23133856
13.1600,-17.21990246
13.1650,-17.20591248
13.1700,-17.18945596
13.1750,-17.17065576
13.1800,-17.14957786
13.1850,-17.12649404
13.1900,-17.10136111
13.1950,-17.07460427
13.2000,-17.0461398
13.2050,-17.01597121
13.2100,-16.98377095
13.2150,-16.94965768
13.2200,-16.91353782
13.2250,-16.8753762
13.2300,-16.83533709
13.2350,-16.79333354
13.2400,-16.74966628
13.2450,-16.70446093
13.2500,-16.65778424
13.2550,-16.6098167
13.2600,-16.56074874
13.2650,-16.5109027
13.2700,-16.46083216
13.2750,-16.41089874
13.2800,-16.36130003
13.2850,-16.31251344
13.2900,-16.26461402
13.2950,-16.21763436
13.3000,-16.17148702
13.3050,-16.12659292
13.3100,-16.08289306
13.3150,-16.04037258
13.3200,-15.99896225
13.3250,-15.95857218
13.3300,-15.91898152
13.3350,-15.88027434
13.3400,-15.84243057
13.3450,-15.80566597
13.3500,-15.76965522
13.3550,-15.73433258
13.3600,-15.69925664
13.3650,-15.66446101
13.3700,-15.62972143
13.3750,-15.5949227
13.3800,-15.55999677
13.3850,-15.52504956
13.3900,-15.48973793
13.3950,-15.45399485
13.4000,-15.4177514
13.4050,-15.38106685
13.4100,-15.34393577
13.4150,-15.30661724
13.4200,-15.26928283
13.4250,-15.23213393
13.4300,-15.19500952
13.4350,-15.15795311
13.4400,-15.12048802
13.4450,-15.08278591
13.4500,-15.04446851
13.4550,-15.00573038
13.4600,-14.96666258
13.4650,-14.9275761
13.4700,-14.88803776
13.4750,-14.8482636
13.4800,-14.80788073
13.4850,-14.76678235
13.4900,-14.72491267
13.4950,-14.68171919
13.5000,-14.63727639
13.5050,-14.59151166
13.5100,-14.54450043
13.5150,-14.49627197
13.5200,-14.44693604
13.5250,-14.39656817
13.5300,-14.34501692
13.5350,-14.2924117
13.5400,-14.23902134
13.5450,-14.18487662
13.5500,-14.12994045
13.5550,-14.07436813
13.5600,-14.01805907
13.5650,-13.96108606
13.5700,-13.90325599
13.5750,-13.84453033
13.5800,-13.78463201
13.5850,-13.72341147
13.5900,-13.66089214
13.5950,-13.59721033
13.6000,-13.5321652
13.6050,-13.46601212
13.6100,-13.39854762
13.6150,-13.33005444
13.6200,-13.26039956
13.6250,-13.19006431
13.6300,-13.11878222
13.6350,-13.04630988
13.6400,-12.97273026
13.6450,-12.89783057
13.6500,-12.82184557
13.6550,-12.74465892
13.6600,-12.66635898
13.6650,-12.58682044
13.6700,-12.50604402
13.6750,-12.42391732
13.6800,-12.34055948
13.6850,-12.25590349
13.6900,-12.16993176
13.6950,-12.08262011
13.7000,-11.99407308
13.7050,-11.90423493
13.7100,-11.81307967
13.7150,-11.72044766
13.7200,-11.62630988
13.7250,-11.5304044
13.7300,-11.43286934
13.7350,-11.3337936
13.7400,-11.23329906
13.7450,-11.13152511
13.7500,-11.02880381
13.7550,-10.92503231
13.7600,-10.82009146
13.7650,-10.71377473
13.7700,-10.60627837
13.7750,-10.49738046
13.7800,-10.38715693
13.7850,-10.2753432
13.7900,-10.16188638
13.7950,-10.04670362
13.8000,-9.929659596
13.8050,-9.810415313
13.8100,-9.688857152
13.8150,-9.564674997
13.8200,-9.437962875
13.8250,-9.308882604
13.8300,-9.177348697
13.8350,-9.043567434
13.8400,-8.907427065
13.8450,-8.768881712
13.8500,-8.628177332
13.8550,-8.485331815
13.8600,-8.340365009
13.8650,-8.193265468
13.8700,-8.043919917
13.8750,-7.892582632
13.8800,-7.739190505
13.8850,-7.583655209
13.8900,-7.425935665
13.8950,-7.265849305
13.9000,-7.103774341
13.9050,-6.939022678
13.9100,-6.771810212
13.9150,-6.601792461
13.9200,-6.429015419
13.9250,-6.25299097
13.9300,-6.074062233
13.9350,-5.892012539
13.9400,-5.706724678
13.9450,-5.518191125
13.9500,-5.326459589
13.9550,-5.131769241
13.9600,-4.934078222
13.9650,-4.733596914
13.9700,-4.530407519
13.9750,-4.324444073
13.9800,-4.115821671
13.9850,-3.904579984
13.9900,-3.690736028
13.9950,-3.474768193
14.0000,-3.256465258
14.0050,-3.035638623
14.0100,-2.812440966
14.0150,-2.586866657
14.0200,-2.35890575
14.0250,-2.128622273
14.0300,-1.895973865
14.0350,-1.660673714
14.0400,-1.422730437
14.0450,-1.182053846
14.0500,-0.9383886355
14.0550,-0.6916443157
14.0600,-0.4419407432
14.0650,-0.1892261451
14.0700,0.06678564343
14.0750,0.3261414392
14.0800,0.5888448712
14.0850,0.8548968674
14.0900,1.124279892
14.0950,1.397105964
14.1000,1.673276403
14.1050,1.952739774
14.1100,2.235286697
14.1150,2.52086888
14.1200,2.809643386
14.1250,3.101656301
14.1300,3.396857455
14.1350,3.695084539
14.1400,3.996767978
14.1450,4.301633328
14.1500,4.609857244
14.1550,4.921780972
14.1600,5.237306606
14.1650,5.55659814
14.1700,5.879772914
14.1750,6.207387915
14.1800,6.539202042
14.1850,6.875514533
14.1900,7.216321881
14.1950,7.561912796
14.2000,7.912656131
14.2050,8.268511178
14.2100,8.629545558
14.2150,8.996076422
14.2200,9.367976072
14.2250,9.745519314
14.2300,10.12869617
14.2350,10.51745714
14.2400,10.91163873
14.2450,11.31096922
14.2500,11.71554403
14.2550,12.12528711
14.2600,12.53990795
14.2650,12.95951771
14.2700,13.38397874
14.2750,13.81278428
14.2800,14.2461835
14.2850,14.68423239
14.2900,15.12656482
14.2950,15.5736134
14.3000,16.02500872
14.3050,16.48060183
14.3100,16.94044476
14.3150,17.40416204
14.3200,17.87177933
14.3250,18.34315622
14.3300,18.81830901
14.3350,19.29691669
14.3400,19.77901039
14.3450,20.2644536
14.3500,20.75307049
14.3550,21.24448399
14.3600,21.73872435
14.3650,22.23567279
14.3700,22.73480681
14.3750,23.2365952
14.3800,23.740557
14.3850,24.24682513
14.3900,24.75539278
14.3950,25.26568298
14.4000,25.77814392
14.4050,26.29230854
14.4100,26.80812664
14.4150,27.32553405
14.4200,27.84455852
14.4250,28.36529673
14.4300,28.88740292
14.4350,29.41093313
14.4400,29.93581536
14.4450,30.46177297
14.4500,30.98892972
14.4550,31.51674409
14.4600,32.04563553
14.4650,32.57523169
14.4700,33.10544205
14.4750,33.63614731
14.4800,34.1671507
14.4850,34.69803831
14.4900,35.22872445
14.4950,35.75872801
14.5000,36.28789114
14.5050,36.81599595
14.5100,37.34319855
14.5150,37.8689535
14.5200,38.39336195
14.5250,38.91581582
14.5300,39.43629192
14.5350,39.95427779
14.5400,40.46991409
14.5450,40.98306531
14.5500,41.49310045
14.5550,42.00008651
14.5600,42.50391197
14.5650,43.00462393
14.5700,43.50208237
14.5750,43.99680268
14.5800,44.48846045
14.5850,44.97709377
14.5900,45.4624357
14.5950,45.94439943
14.6000,46.4229026
14.6050,46.89751389
14.6100,47.36798376
14.6150,47.83423795
14.6200,48.29599777
14.6250,48.75304241
14.6300,49.20511213
14.6350,49.65208597
14.6400,50.09369536
14.6450,50.53048758
14.6500,50.9623924
14.6550,51.38937903
14.6600,51.81093984
14.6650,52.22689366
14.6700,52.63733613
14.6750,53.04179727
14.6800,53.44039584
14.6850,53.83294084
14.6900,54.21907996
14.6950,54.59899715
14.7000,54.97236148
14.7050,55.33919471
14.7100,55.69950735
14.7150,56.05354414
14.7200,56.40163421
14.7250,56.74382813
14.7300,57.08014788
14.7350,57.41035398
14.7400,57.73474911
14.7450,58.05336823
14.7500,58.36578559
14.7550,58.67227753
14.7600,58.97246454
14.7650,59.26678935
14.7700,59.55525608
14.7750,59.83796756
14.7800,60.11540187
14.7850,60.38781569
14.7900,60.65520179
14.7950,60.91731061
14.8000,61.17410114
14.8050,61.42544066
14.8100,61.67151016
14.8150,61.91196084
14.8200,62.14707598
14.8250,62.37741075
14.8300,62.60338233
14.8350,62.825283
14.8400,63.04317004
14.8450,63.25733957
14.8500,63.46807803
14.8550,63.675558
14.8600,63.88000051
14.8650,64.0816398
14.8700,64.28040816
14.8750,64.47604121
14.8800,64.66870236
14.8850,64.85791879
14.8900,65.04375647
14.8950,65.2260974
14.9000,65.40506729
14.9050,65.5805221
14.9100,65.75284367
14.9150,65.92179836
14.9200,66.0875891
14.9250,66.25028373
14.9300,66.40968151
14.9350,66.56571726
14.9400,66.718264
14.9450,66.86668512
14.9500,67.01090619
14.9550,67.15119073
14.9600,67.28779672
14.9650,67.4210892
14.9700,67.55111318
14.9750,67.67823092
14.9800,67.80256284
14.9850,67.92464194
14.9900,68.04436594
14.9950,68.16223512
15.0000,68.27815121
15.0050,68.3922551
15.0100,68.50441706
15.0150,68.61448191
15.0200,68.72193534
15.0250,68.8267999
15.0300,68.92906457
15.0350,69.02875915
15.0400,69.1256536
15.0450,69.22006681
15.0500,69.31232877
15.0550,69.40283651
15.0600,69.49176982
15.0650,69.57913157
15.0700,69.66496655
15.0750,69.74929768
15.0800,69.83226194
15.0850,69.91369173
15.0900,69.99415544
15.0950,70.07391953
15.1000,70.15312811
15.1050,70.23222587
15.1100,70.31095175
15.1150,70.38949412
15.1200,70.46783645
15.1250,70.5457146
15.1300,70.6229806
15.1350,70.69965438
15.1400,70.77570212
15.1450,70.85126745
15.1500,70.92626668
15.1550,71.00064085
15.1600,71.07428584
15.1650,71.14690929
15.1700,71.21898849
15.1750,71.29046032
15.1800,71.36129876
15.1850,71.43157402
15.1900,71.50155418
15.1950,71.57135185
15.2000,71.64085808
15.2050,71.71041883
15.2100,71.77965802
15.2150,71.84871548
15.2200,71.91747283
15.2250,71.98581354
15.2300,72.05400671
15.2350,72.12196417
15.2400,72.18972132
15.2450,72.25756729
15.2500,72.32530113
15.2550,72.39305849
15.2600,72.46084482
15.2650,72.52851844
15.2700,72.59607101
15.2750,72.66345722
15.2800,72.73078163
15.2850,72.7975535
15.2900,72.86394424
15.2950,72.92966358
15.3000,72.99482409
15.3050,73.05948838
15.3100,73.12395361
15.3150,73.18825664
15.3200,73.25254353
15.3250,73.31691096
15.3300,73.38125006
15.3350,73.44601645
15.3400,73.51095386
15.3450,73.57607632
15.3500,73.64128418
15.3550,73.70632967
15.3600,73.77133847
15.3650,73.83607224
15.3700,73.90065433
15.3750,73.96493895
15.3800,74.02904193
15.3850,74.09302249
15.3900,74.15642561
15.3950,74.21953941
15.4000,74.28233521
15.4050,74.34481254
15.4100,74.40709099
15.4150,74.46931555
15.4200,74.53146159
15.4250,74.59364799
15.4300,74.65574305
15.4350,74.71765664
15.4400,74.77948777
15.4450,74.84106658
15.4500,74.90258293
15.4550,74.96436321
15.4600,75.02624015
15.4650,75.08812423
15.4700,75.14980816
15.4750,75.21124272
15.4800,75.27228234
15.4850,75.33295178
15.4900,75.39315199
15.4950,75.45276888
15.5000,75.51176172
15.5050,75.56993876
15.5100,75.62744687
15.5150,75.68430275
15.5200,75.74040544
15.5250,75.79569513
15.5300,75.85004078
15.5350,75.90335862
15.5400,75.95579889
15.5450,76.00686028
15.5500,76.05659968
15.5550,76.10501555
15.5600,76.15237849
15.5650,76.19874055
15.5700,76.2442977
15.5750,76.28896136
15.5800,76.33275858
15.5850,76.3759441
15.5900,76.41858116
15.5950,76.46072209
15.6000,76.50243497
15.6050,76.54369496
15.6100,76.58454397
15.6150,76.62502755
15.6200,76.6650989
15.6250,76.70484603
15.6300,76.74438735
15.6350,76.78355511
15.6400,76.82250661
15.6450,76.86144518
15.6500,76.90051105
15.6550,76.93989326
15.6600,76.97940769
15.6650,77.01919877
15.6700,77.05902138
15.6750,77.09871829
15.6800,77.1380878
15.6850,77.1774624
15.6900,77.21697724
15.6950,77.25620812
15.7000,77.29536994
15.7050,77.33440752
15.7100,77.37322381
15.7150,77.41197286
15.7200,77.45048661
15.7250,77.48872591
15.7300,77.52679968
15.7350,77.5647486
15.7400,77.60289851
15.7450,77.64104998
15.7500,77.67894479
15.7550,77.71650049
15.7600,77.75381695
15.7650,77.79094712
15.7700,77.82753026
15.7750,77.86353292
15.7800,77.89875908
15.7850,77.93328647
15.7900,77.96691678
15.7950,77.99985599
15.8000,78.03216297
15.8050,78.06343451
15.8100,78.09344569
15.8150,78.12228098
15.8200,78.14974906
15.8250,78.17579944
15.8300,78.20008714
15.8350,78.22233655
15.8400,78.24238895
15.8450,78.26078071
15.8500,78.27743962
15.8550,78.29211657
15.8600,78.30446979
15.8650,78.31448614
15.8700,78.32205305
15.8750,78.32731195
15.8800,78.33010035
15.8850,78.33026376
15.8900,78.32761482
15.8950,78.32206578
15.9000,78.31352572
15.9050,78.30212872
15.9100,78.28758324
15.9150,78.2698753
15.9200,78.24913646
15.9250,78.22546117
15.9300,78.19892897
15.9350,78.16933735
15.9400,78.1369895
15.9450,78.1017676
15.9500,78.063805
15.9550,78.02276428
15.9600,77.97894771
15.9650,77.93269588
15.9700,77.88465163
15.9750,77.83525643
15.9800,77.78473335
15.9850,77.73298401
15.9900,77.6804517
15.9950,77.627666
16.0000,77.57491893
16.0050,77.52230036
16.0100,77.47022959
16.0150,77.41870383
16.0200,77.368347
16.0250,77.31963584
16.0300,77.27289233
16.0350,77.22872443
16.0400,77.18719598
16.0450,77.14858231
16.0500,77.11327119
16.0550,77.0812951
16.0600,77.05300748
16.0650,77.02872558
16.0700,77.00853793
16.0750,76.99249196
16.0800,76.98075509
16.0850,76.97318969
16.0900,76.96967361
16.0950,76.97025414
16.1000,76.97457882
16.1050,76.98305537
16.1100,76.99580591
16.1150,77.01245605
16.1200,77.03294321
16.1250,77.05716394
16.1300,77.08520484
16.1350,77.11705831
16.1400,77.15222194
16.1450,77.19021715
16.1500,77.23071209
16.1550,77.27372297
16.1600,77.31906404
16.1650,77.36663415
16.1700,77.41606267
16.1750,77.4671403
16.1800,77.51951359
16.1850,77.57305961
16.1900,77.6275042
16.1950,77.68275304
16.2000,77.73857716
16.2050,77.79452074
16.2100,77.85036131
16.2150,77.90563428
16.2200,77.95992877
16.2250,78.01274653
16.2300,78.06415213
16.2350,78.11443332
16.2400,78.16320655
16.2450,78.21013021
16.2500,78.25515087
16.2550,78.29851252
16.2600,78.34012062
16.2650,78.37973872
16.2700,78.41672397
16.2750,78.45084893
16.2800,78.48219391
16.2850,78.51060331
16.2900,78.53633375
16.2950,78.55963691
16.3000,78.58046004
16.3050,78.59910728
16.3100,78.61547088
16.3150,78.62984668
16.3200,78.64221488
16.3250,78.6526034
16.3300,78.6610786
16.3350,78.66760686
16.3400,78.67224386
16.3450,78.67537034
16.3500,78.67715422
16.3550,78.67768676
16.3600,78.67692393
16.3650,78.67485035
16.3700,78.67185497
16.3750,78.66821711
16.3800,78.6640413
16.3850,78.65926934
16.3900,78.65410697
16.3950,78.64814446
16.4000,78.64151522
16.4050,78.63402891
16.4100,78.62554765
16.4150,78.61610389
16.4200,78.60574632
16.4250,78.5945547
16.4300,78.58233243
16.4350,78.56941081
16.4400,78.55624685
16.4450,78.54283791
16.4500,78.52925033
16.4550,78.51530511
16.4600,78.50101319
16.4650,78.48606546
16.4700,78.47058913
16.4750,78.454395
16.4800,78.43763049
16.4850,78.42009767
16.4900,78.40184555
16.4950,78.38290323
16.5000,78.36289304
16.5050,78.34205007
16.5100,78.32015775
16.5150,78.29736318
16.5200,78.2734552
16.5250,78.24847975
16.5300,78.22217598
16.5350,78.19429385
16.5400,78.16513651
16.5450,78.13512969
16.5500,78.10400987
16.5550,78.07187931
16.5600,78.03884391
16.5650,78.00499444
16.5700,77.97079696
16.5750,77.93663285
16.5800,77.90230381
16.5850,77.86797548
16.5900,77.83324246
16.5950,77.797761
16.6000,77.76146517
16.6050,77.72418673
16.6100,77.68605849
16.6150,77.64703708
16.6200,77.60712382
16.6250,77.56629571
16.6300,77.52494841
16.6350,77.48293042
16.6400,77.44036269
16.6450,77.39707084
16.6500,77.35294326
16.6550,77.30802414
16.6600,77.26216512
16.6650,77.21510538
16.6700,77.16685019
16.6750,77.11725316
16.6800,77.06635998
16.6850,77.01433463
16.6900,76.96110606
16.6950,76.90685779
16.7000,76.85167977
16.7050,76.79586498
16.7100,76.73927696
16.7150,76.68178199
16.7200,76.6231675
16.7250,76.56339373
16.7300,76.50220139
16.7350,76.43912821
16.7400,76.37355823
16.7450,76.30538826
16.7500,76.23455166
16.7550,76.161118
16.7600,76.08529654
16.7650,76.00731421
16.7700,75.92718709
16.7750,75.84500103
16.7800,75.7607894
16.7850,75.67456082
16.7900,75.58644861
16.7950,75.49619225
16.8000,75.40419648
16.8050,75.30984016
16.8100,75.21318592
16.8150,75.11423499
16.8200,75.01330037
16.8250,74.91025186
16.8300,74.80498573
16.8350,74.69743862
16.8400,74.58750829
16.8450,74.47509691
16.8500,74.36022571
16.8550,74.24266465
16.8600,74.12247156
16.8650,73.99992474
16.8700,73.87504852
16.8750,73.74755792
16.8800,73.61744124
16.8850,73.48485342
16.8900,73.34996551
16.8950,73.21301725
16.9000,73.07419222
16.9050,72.93358387
16.9100,72.79120032
16.9150,72.64693954
16.9200,72.50094855
16.9250,72.3533116
16.9300,72.20377492
16.9350,72.05215984
16.9400,71.89833626
16.9450,71.74236856
16.9500,71.58450141
16.9550,71.42454624
16.9600,71.26295515
16.9650,71.09987248
16.9700,70.93524606
16.9750,70.76916691
16.9800,70.60127016
16.9850,70.43150441
16.9900,70.2596577
16.9950,70.08565461
17.0000,69.90922127
17.0050,69.73006913
17.0100,69.548275
17.0150,69.36387519
17.0200,69.17689648
17.0250,68.98688473
17.0300,68.79401415
17.0350,68.59827225
17.0400,68.39959242
17.0450,68.19791435
17.0500,67.99314294
17.0550,67.78459795
17.0600,67.57181821
17.0650,67.35414268
17.0700,67.13169373
17.0750,66.90402038
17.0800,66.67074417
17.0850,66.43196728
17.0900,66.18733332
17.0950,65.93688281
17.1000,65.68049115
17.1050,65.41813367
17.1100,65.14986948
17.1150,64.87549589
17.1200,64.59490553
17.1250,64.30833035
17.1300,64.01542236
17.1350,63.71621461
17.1400,63.41053096
17.1450,63.09765286
17.1500,62.77806445
17.1550,62.45154095
17.1600,62.11798188
17.1650,61.77678972
17.1700,61.42769293
17.1750,61.07066798
17.1800,60.70575055
17.1850,60.33280632
17.1900,59.95188217
17.1950,59.56293937
17.2000,59.16599638
17.2050,58.76075009
17.2100,58.34736977
17.2150,57.92612813
17.2200,57.49671409
17.2250,57.05974782
17.2300,56.61505633
17.2350,56.16293701
17.2400,55.70344153
17.2450,55.23688595
17.2500,54.76274152
17.2550,54.28091126
17.2600,53.79122807
17.2650,53.29381936
17.2700,52.78860931
17.2750,52.27536958
17.2800,51.75457361
17.2850,51.22574708
17.2900,50.6890987
17.2950,50.14439087
17.3000,49.59145947
17.3050,49.03035632
17.3100,48.46108117
17.3150,47.88339562
17.3200,47.29734915
17.3250,46.70292298
17.3300,46.10056309
17.3350,45.49037291
17.3400,44.87256467
17.3450,44.2471819
17.3500,43.61461161
17.3550,42.97547909
17.3600,42.33016085
17.3650,41.67895654
17.3700,41.02179761
17.3750,40.35914889
17.3800,39.69146879
17.3850,39.01866134
17.3900,38.34094407
17.3950,37.65823425
17.4000,36.97076236
17.4050,36.27890818
17.4100,35.5831392
17.4150,34.88326435
17.4200,34.17981538
17.4250,33.47314255
17.4300,32.76416595
17.4350,32.053369
17.4400,31.34102857
17.4450,30.62825384
17.4500,29.91506308
17.4550,29.20236227
17.4600,28.49024016
17.4650,27.77943818
17.4700,27.07043716
17.4750,26.36385692
17.4800,25.66045835
17.4850,24.96075732
17.4900,24.26510989
17.4950,23.57423171
17.5000,22.88822995
17.5050,22.20808298
17.5100,21.53379547
17.5150,20.86547909
17.5200,20.20404759
17.5250,19.54901763
17.5300,18.90064515
17.5350,18.25941229
17.5400,17.62516858
17.5450,16.9978546
17.5500,16.37772834
17.5550,15.7652769
17.5600,15.16090189
17.5650,14.5643969
17.5700,13.97615419
17.5750,13.39642715
17.5800,12.82469697
17.5850,12.26137908
17.5900,11.70615565
17.5950,11.15908996
17.6000,10.62007537
17.6050,10.0887666
17.6100,9.565388886
17.6150,9.049355566
17.6200,8.541053276
17.6250,8.040396304
17.6300,7.547490014
17.6350,7.061667156
17.6400,6.5827622
17.6450,6.110431422
17.6500,5.644744122
17.6550,5.186060093
17.6600,4.734385748
17.6650,4.289587979
17.6700,3.851752974
17.6750,3.42039515
17.6800,2.995728608
17.6850,2.578409903
17.6900,2.16873073
17.6950,1.766887033
17.7000,1.373224519
17.7050,0.9877092587
17.7100,0.6103800175
17.7150,0.2414009868
17.7200,-0.1194494281
17.7250,-0.4724982244
17.7300,-0.8179978866
17.7350,-1.156117991
17.7400,-1.486887023
17.7450,-1.810653545
17.7500,-2.127496821
17.7550,-2.437472583
17.7600,-2.740656504
17.7650,-3.037359604
17.7700,-3.327666763
17.7750,-3.612128608
17.7800,-3.891045485
17.7850,-4.164378588
17.7900,-4.432244169
17.7950,-4.695034276
17.8000,-4.95261961
17.8050,-5.205418865
17.8100,-5.453531679
17.8150,-5.696969895
17.8200,-5.936087449
17.8250,-6.170604653
17.8300,-6.400396438
17.8350,-6.625270086
17.8400,-6.845011781
17.8450,-7.059323858
17.8500,-7.268163786
17.8550,-7.471802912
17.8600,-7.670966049
17.8650,-7.866035761
17.8700,-8.057347945
17.8750,-8.245316578
17.8800,-8.430074953
17.8850,-8.612023938
17.8900,-8.79125646
17.8950,-8.968300637
17.9000,-9.143455807
17.9050,-9.31700896
17.9100,-9.489024516
17.9150,-9.659794102
17.9200,-9.82953987
17.9250,-9.998269956
17.9300,-10.16631976
17.9350,-10.33321456
17.9400,-10.49917729
17.9450,-10.66457774
17.9500,-10.82959239
17.9550,-10.99460758
17.9600,-11.15939454
17.9650,-11.32305894
17.9700,-11.48561304
17.9750,-11.64638684
17.9800,-11.80504357
17.9850,-11.96135717
17.9900,-12.11513073
17.9950,-12.26599668
18.0000,-12.41408106
18.0050,-12.55925546
18.0100,-12.70137383
18.0150,-12.84030846
18.0200,-12.97612634
18.0250,-13.10858468
18.0300,-13.23734918
18.0350,-13.36225921
18.0400,-13.48310536
18.0450,-13.60009674
18.0500,-13.71306743
18.0550,-13.82206855
18.0600,-13.92723119
18.0650,-14.02868029
18.0700,-14.12669069
18.0750,-14.22126872
18.0800,-14.31271702
18.0850,-14.40134102
18.0900,-14.4870857
18.0950,-14.57007939
18.1000,-14.65009006
18.1050,-14.72698564
18.1100,-14.80060282
18.1150,-14.87080917
18.1200,-14.93723528
18.1250,-14.99953997
18.1300,-15.05755573
18.1350,-15.11121906
18.1400,-15.16061832
18.1450,-15.20591714
18.1500,-15.2470995
18.1550,-15.28464084
18.1600,-15.31869563
18.1650,-15.3495964
18.1700,-15.37723935
18.1750,-15.40150492
18.1800,-15.42232455
18.1850,-15.43967752
18.1900,-15.45364679
18.1950,-15.46387863
18.2000,-15.47058767
18.2050,-15.4739192
18.2100,-15.47430293
18.2150,-15.47200001
18.2200,-15.4677202
18.2250,-15.46176828
18.2300,-15.4545191
18.2350,-15.44637414
18.2400,-15.43754488
18.2450,-15.42821122
18.2500,-15.41876131
18.2550,-15.40927249
18.2600,-15.40004812
18.2650,-15.39133051
18.2700,-15.38314064
18.2750,-15.37553661
18.2800,-15.36873633
18.2850,-15.36282803
18.2900,-15.35780369
18.2950,-15.35380793
18.3000,-15.3510241
18.3050,-15.34961999
18.3100,-15.3498351
18.3150,-15.35174402
18.3200,-15.35502231
18.3250,-15.35992768
18.3300,-15.36654943
18.3350,-15.37501938
18.3400,-15.38538774
18.3450,-15.39755164
18.3500,-15.41155437
18.3550,-15.42749774
18.3600,-15.44512359
18.3650,-15.46400864
18.3700,-15.48416164
18.3750,-15.50544086
18.3800,-15.52760151
18.3850,-15.55054734
18.3900,-15.5741242
18.3950,-15.59824592
18.4000,-15.62303504
18.4050,-15.64813886
18.4100,-15.67352119
18.4150,-15.69920524
18.4200,-15.7250411
18.4250,-15.75116403
18.4300,-15.77733753
18.4350,-15.80337883
18.4400,-15.82919787
18.4450,-15.85449798
18.4500,-15.87912731
18.4550,-15.90265505
18.4600,-15.92448456
18.4650,-15.94408794
18.4700,-15.96146833
18.4750,-15.97628955
18.4800,-15.98839507
18.4850,-15.9975648
18.4900,-16.00396287
18.4950,-16.00771196
18.5000,-16.00874744
18.5050,-16.00721914
18.5100,-16.00300661
18.5150,-15.99593951
18.5200,-15.98581719
18.5250,-15.97245503
18.5300,-15.95569276
18.5350,-15.93535379
18.5400,-15.91099547
18.5450,-15.882773
18.5500,-15.85026812
18.5550,-15.81326474
18.5600,-15.77158188
18.5650,-15.72524855
18.5700,-15.67407672
18.5750,-15.61825062
18.5800,-15.55769531
18.5850,-15.49236942
18.5900,-15.42254351
18.5950,-15.34849259
18.6000,-15.27013968
18.6050,-15.18804983
18.6100,-15.10247874
18.6150,-15.01391553
18.6200,-14.92318565
18.6250,-14.83070918
18.6300,-14.73711863
18.6350,-14.64310487
18.6400,-14.54908854
18.6450,-14.45554666
18.6500,-14.36291983
18.6550,-14.27165073
18.6600,-14.18230603
18.6650,-14.09548225
18.6700,-14.01140489
18.6750,-13.93042419
18.6800,-13.85243313
18.6850,-13.77758492
18.6900,-13.7057971
18.6950,-13.63696691
18.7000,-13.57089089
18.7050,-13.50768885
18.7100,-13.44703239
18.7150,-13.38860516
18.7200,-13.33216924
18.7250,-13.2775782
18.7300,-13.22471827
18.7350,-13.17368373
18.7400,-13.12429763
18.7450,-13.07672609
18.7500,-13.0309177
18.7550,-12.9869246
18.7600,-12.94491934
18.7650,-12.90487468
18.7700,-12.86680051
18.7750,-12.83072966
18.7800,-12.79655715
18.7850,-12.76436812
18.7900,-12.73364559
18.7950,-12.70441329
18.8000,-12.67618773
18.8050,-12.64875099
18.8100,-12.62190688
18.8150,-12.59557595
18.8200,-12.56949419
18.8250,-12.54386146
18.8300,-12.51877394
18.8350,-12.4941914
18.8400,-12.4704427
18.8450,-12.44738017
18.8500,-12.42518226
18.8550,-12.4037668
18.8600,-12.3833491
18.8650,-12.36387518
18.8700,-12.34523141
18.8750,-12.32738817
18.8800,-12.31038566
18.8850,-12.29435845
18.8900,-12.27917498
18.8950,-12.26475766
18.9000,-12.25130342
18.9050,-12.23850848
18.9100,-12.22636065
18.9150,-12.21496041
18.9200,-12.20408723
18.9250,-12.19384057
18.9300,-12.18417579
18.9350,-12.17501697
18.9400,-12.16650481
18.9450,-12.15867946
18.9500,-12.15163946
18.9550,-12.14536069
18.9600,-12.13981916
18.9650,-12.1349361
18.9700,-12.1306753
18.9750,-12.12703483
18.9800,-12.1242682
18.9850,-12.12215058
18.9900,-12.12106096
18.9950,-12.12075438
19.0000,-12.1213214
19.0050,-12.12263268
19.0100,-12.12466295
19.0150,-12.12749105
19.0200,-12.13120246
19.0250,-12.13552135
19.0300,-12.14044806
19.0350,-12.14590727
19.0400,-12.1521584
19.0450,-12.1590299
19.0500,-12.16663157
19.0550,-12.1748157
19.0600,-12.18349605
19.0650,-12.19281294
19.0700,-12.20243406
19.0750,-12.21205823
19.0800,-12.22151605
19.0850,-12.23054298
19.0900,-12.23901852
19.0950,-12.24670689
19.1000,-12.25387154
19.1050,-12.26039627
19.1100,-12.26643038
19.1150,-12.27210933
19.1200,-12.27749661
19.1250,-12.28265639
19.1300,-12.28747199
19.1350,-12.29225868
19.1400,-12.29697435
19.1450,-12.30173054
19.1500,-12.30643036
19.1550,-12.31135202
19.1600,-12.31636815
19.1650,-12.32150869
19.1700,-12.32698334
19.1750,-12.33266443
19.1800,-12.33874735
19.1850,-12.34507935
19.1900,-12.35165343
19.1950,-12.35829177
19.2000,-12.36484571
19.2050,-12.37124732
19.2100,-12.37743131
19.2150,-12.3830599
19.2200,-12.38808955
19.2250,-12.39226038
19.2300,-12.39535855
19.2350,-12.39742155
19.2400,-12.39825334
19.2450,-12.39799037
19.2500,-12.39643051
19.2550,-12.3936542
19.2600,-12.3898959
19.2650,-12.3852335
19.2700,-12.37990351
19.2750,-12.37408035
19.2800,-12.36772937
19.2850,-12.36111045
19.2900,-12.35421158
19.2950,-12.34714795
19.3000,-12.33993171
19.3050,-12.33270905
19.3100,-12.32567394
19.3150,-12.31869747
19.3200,-12.31192888
19.3250,-12.30531882
19.3300,-12.29887221
19.3350,-12.29263658
19.3400,-12.28640409
19.3450,-12.28020214
19.3500,-12.27391167
19.3550,-12.26745836
19.3600,-12.26080617
19.3650,-12.25352957
19.3700,-12.24583664
19.3750,-12.23753666
19.3800,-12.22877783
19.3850,-12.21916184
19.3900,-12.20873041
19.3950,-12.19745626
19.4000,-12.18521522
19.4050,-12.17204434
19.4100,-12.15794001
19.4150,-12.14279526
19.4200,-12.12691326
19.4250,-12.11027382
19.4300,-12.09284144
19.4350,-12.07450243
19.4400,-12.0551216
19.4450,-12.03439041
19.4500,-12.01245911
19.4550,-11.98910839
19.4600,-11.96431071
19.4650,-11.93809685
19.4700,-11.91020532
19.4750,-11.88062786
19.4800,-11.84904358
19.4850,-11.81560378
19.4900,-11.78009295
19.4950,-11.74231978
19.5000,-11.70210459
19.5050,-11.65911607
19.5100,-11.6132713
19.5150,-11.56438335
19.5200,-11.51225035
19.5250,-11.45676941
19.5300,-11.39802008
19.5350,-11.3356948
19.5400,-11.26993638
19.5450,-11.20056016
19.5500,-11.12764089
19.5550,-11.05114456
19.5600,-10.97087809
19.5650,-10.88682509
19.5700,-10.79904498
19.5750,-10.70731383
19.5800,-10.61192572
19.5850,-10.51281973
19.5900,-10.40967479
19.5950,-10.30253246
19.6000,-10.19130904
19.6050,-10.07574966
19.6100,-9.955800607
19.6150,-9.831348546
19.6200,-9.702475894
19.6250,-9.569341113
19.6300,-9.432158489
19.6350,-9.290830083
19.6400,-9.145693487
19.6450,-8.996782783
19.6500,-8.844274384
19.6550,-8.688400136
19.6600,-8.529210446
19.6650,-8.367006898
19.6700,-8.201803948
19.6750,-8.034075659
19.6800,-7.86376168
19.6850,-7.691435061
19.6900,-7.517271764
19.6950,-7.341340411
19.7000,-7.16382063
19.7050,-6.985105629
19.7100,-6.805186344
19.7150,-6.624404517
19.7200,-6.442764627
19.7250,-6.260698679
19.7300,-6.078679377
19.7350,-5.89675161
19.7400,-5.715275676
19.7450,-5.534581457
19.7500,-5.35463473
19.7550,-5.175713949
19.7600,-4.997902816
19.7650,-4.821145951
19.7700,-4.64581884
19.7750,-4.471978453
19.7800,-4.299691682
19.7850,-4.128708651
19.7900,-3.959504632
19.7950,-3.791938128
19.8000,-3.625931792
19.8050,-3.461400712
19.8100,-3.298260163
19.8150,-3.136318469
19.8200,-2.975599115
19.8250,-2.81588333
19.8300,-2.656825606
19.8350,-2.498263438
19.8400,-2.339989219
19.8450,-2.181640693
19.8500,-2.022870837
19.8550,-1.863289235
19.8600,-1.7025017
19.8650,-1.540356181
19.8700,-1.376055703
19.8750,-1.209331196
19.8800,-1.039325938
19.8850,-0.8655695208
19.8900,-0.687827399
19.8950,-0.5056718459
19.9000,-0.3186717839
19.9050,-0.1269833076
19.9100,0.07017453531
19.9150,0.2724992242
19.9200,0.4803686325
19.9250,0.6941084945
19.9300,0.913724095
19.9350,1.139400578
19.9400,1.371712342
19.9450,1.610676211
19.9500,1.856381961
19.9550,2.109152717
19.9600,2.369005917
19.9650,2.636320826
19.9700,2.910916275
19.9750,3.192763054
19.9800,3.481991787
19.9850,3.778386136
19.9900,4.081887201
19.9950,4.392179661
20.0000,4.709285902
20.0050,5.033473816
20.0100,5.364324969
20.0150,5.701747324
20.0200,6.045031306
20.0250,6.394313779
20.0300,6.749247299
20.0350,7.109344133
20.0400,7.474269997
20.0450,7.843811432
20.0500,8.217499662
20.0550,8.5950447
20.0600,8.976276892
20.0650,9.360756531
20.0700,9.748411798
20.0750,10.1392697
20.0800,10.53264053
20.0850,10.92852235
20.0900,11.32708841
20.0950,11.72828785
20.1000,12.13193076
20.1050,12.53779905
20.1100,12.94569946
20.1150,13.35563861
20.1200,13.76766013
20.1250,14.18154381
20.1300,14.59734793
20.1350,15.01486891
20.1400,15.43412876
20.1450,15.85514069
20.1500,16.27754707
20.1550,16.70090395
20.1600,17.12540817
20.1650,17.5508427
20.1700,17.97695493
20.1750,18.40376171
20.1800,18.83113388
20.1850,19.25882352
20.1900,19.6867997
20.1950,20.1150675
20.2000,20.54349286
20.2050,20.97205333
20.2100,21.40048858
20.2150,21.82906387
20.2200,22.25742996
20.2250,22.68513156
20.2300,23.11248616
20.2350,23.53887699
20.2400,23.96405409
20.2450,24.38781071
20.2500,24.81013796
20.2550,25.23090233
20.2600,25.64989314
20.2650,26.06704875
20.2700,26.48252626
20.2750,26.89630744
20.2800,27.30865905
20.2850,27.71962218
20.2900,28.12946103
20.2950,28.5386387
20.3000,28.94716026
20.3050,29.3551793
20.3100,29.76294535
20.3150,30.17054761
20.3200,30.57863865
20.3250,30.98697965
20.3300,31.39617407
20.3350,31.80615182
20.3400,32.21720661
20.3450,32.62920021
20.3500,33.04225967
20.3550,33.45632129
20.3600,33.87149621
20.3650,34.28734736
20.3700,34.70418032
20.3750,35.12146154
20.3800,35.5394469
20.3850,35.9579476
20.3900,36.37690552
20.3950,36.79589897
20.4000,37.21499935
20.4050,37.63384856
20.4100,38.05253559
20.4150,38.47066621
20.4200,38.88813184
20.4250,39.30494096
20.4300,39.7210299
20.4350,40.13651678
20.4400,40.55077495
20.4450,40.96382706
20.4500,41.37552253
20.4550,41.78587151
20.4600,42.19452669
20.4650,42.60169485
20.4700,43.00686235
20.4750,43.41002105
20.4800,43.81061692
20.4850,44.20844104
20.4900,44.60340461
20.4950,44.99530761
20.5000,45.38420229
20.5050,45.77007438
20.5100,46.15303268
20.5150,46.5329585
20.5200,46.91000843
20.5250,47.28419022
20.5300,47.65512647
20.5350,48.02292824
20.5400,48.38778263
20.5450,48.7495527
20.5500,49.10808362
20.5550,49.46382127
20.5600,49.81663769
20.5650,50.16632353
20.5700,50.51315005
20.5750,50.85763026
20.5800,51.19928996
20.5850,51.53844992
20.5900,51.87516441
20.5950,52.20902808
20.6000,52.54046094
20.6050,52.86935845
20.6100,53.19574064
20.6150,53.51940105
20.6200,53.83962261
20.6250,54.15681213
20.6300,54.47025855
20.6350,54.78014462
20.6400,55.08605859
20.6450,55.38796601
20.6500,55.68571256
20.6550,55.97937558
20.6600,56.26889824
20.6650,56.5543836
20.6700,56.83597161
20.6750,57.11374246
20.6800,57.38780277
20.6850,57.65796087
20.6900,57.92398809
20.6950,58.18617164
20.7000,58.44459561
20.7050,58.69946668
20.7100,58.95084767
20.7150,59.19882789
20.7200,59.44319882
20.7250,59.68430973
20.7300,59.92190758
20.7350,60.15599909
20.7400,60.38711416
20.7450,60.61544068
20.7500,60.84078007
20.7550,61.06346618
20.7600,61.28342312
20.7650,61.50060518
20.7700,61.71527794
20.7750,61.92764097
20.7800,62.13804667
20.7850,62.34643325
20.7900,62.55292944
20.7950,62.75744032
20.8000,62.9597691
20.8050,63.15994606
20.8100,63.35780436
20.8150,63.55311621
20.8200,63.74609132
20.8250,63.93669372
20.8300,64.1249892
20.8350,64.31056614
20.8400,64.49358688
20.8450,64.67402936
20.8500,64.85189381
20.8550,65.02690562
20.8600,65.1991188
20.8650,65.36858524
20.8700,65.53511032
20.8750,65.69864428
20.8800,65.85961469
20.8850,66.01779831
20.8900,66.17317957
20.8950,66.32599036
20.9000,66.47576967
20.9050,66.62258336
20.9100,66.76658644
20.9150,66.90787183
20.9200,67.04661808
20.9250,67.18259873
20.9300,67.315791
20.9350,67.44609827
20.9400,67.57384335
20.9450,67.69882102
20.9500,67.82129726
20.9550,67.94093946
20.9600,68.05773712
20.9650,68.17191981
20.9700,68.2829932
20.9750,68.39083164
20.9800,68.49504369
20.9850,68.59599362
20.9900,68.69424091
20.9950,68.78950256
21.0000,68.88204618
21.0050,68.97210353
21.0100,69.05978001
21.0150,69.1454716
21.0200,69.22946683
21.0250,69.31195732
21.0300,69.39292856
21.0350,69.4728764
21.0400,69.55207638
21.0450,69.63064726
21.0500,69.70908177
21.0550,69.78729818
21.0600,69.86562
21.0650,69.94409846
21.0700,70.02285317
21.0750,70.10205955
21.0800,70.18185286
21.0850,70.26253174
21.0900,70.34373038
21.0950,70.42556391
21.1000,70.50788169
21.1050,70.59076426
21.1100,70.67414257
21.1150,70.75799058
21.1200,70.84207343
21.1250,70.92646318
21.1300,71.01123203
21.1350,71.09652905
21.1400,71.18184286
21.1450,71.26685823
21.1500,71.35149819
21.1550,71.43586912
21.1600,71.52002435
21.1650,71.6041858
21.1700,71.68818034
21.1750,71.77190835
21.1800,71.85488009
21.1850,71.93709857
21.1900,72.01816569
21.1950,72.09783419
21.2000,72.176135
21.2050,72.25303375
21.2100,72.32815787
21.2150,72.40120695
21.2200,72.4721196
21.2250,72.5402985
21.2300,72.60569639
21.2350,72.66813625
21.2400,72.72712973
21.2450,72.78306342
21.2500,72.83571476
21.2550,72.88557592
21.2600,72.93271957
21.2650,72.97700427
21.2700,73.01887411
21.2750,73.05828498
21.2800,73.09557057
21.2850,73.13056955
21.2900,73.16296893
21.2950,73.19312289
21.3000,73.22120486
21.3050,73.24715547
21.3100,73.27114071
21.3150,73.29297551
21.3200,73.31270651
21.3250,73.33031304
21.3300,73.34585906
21.3350,73.35891896
21.3400,73.36940303
21.3450,73.37708922
21.3500,73.38186613
21.3550,73.38375806
21.3600,73.38270259
21.3650,73.37872264
21.3700,73.37192965
21.3750,73.36241973
21.3800,73.35019886
21.3850,73.33536063
21.3900,73.31818436
21.3950,73.29887673
21.4000,73.27799552
21.4050,73.2557397
21.4100,73.23230809
21.4150,73.20773599
21.4200,73.18219571
21.4250,73.15577164
21.4300,73.12848458
21.4350,73.10079186
21.4400,73.07312356
21.4450,73.04617998
21.4500,73.01976481
21.4550,72.99376446
21.4600,72.96804898
21.4650,72.94254545
21.4700,72.9172687
21.4750,72.89231603
21.4800,72.86806342
21.4850,72.84476685
21.4900,72.82270568
21.4950,72.80183423
21.5000,72.78226448
21.5050,72.76349797
21.5100,72.74566795
21.5150,72.72880987
21.5200,72.71314153
21.5250,72.69914344
21.5300,72.6869315
21.5350,72.67664981
21.5400,72.66889392
21.5450,72.66361827
21.5500,72.66074491
21.5550,72.66004623
21.5600,72.66127857
21.5650,72.66455993
21.5700,72.66968029
21.5750,72.67686781
21.5800,72.68631943
21.5850,72.69819916
21.5900,72.71246791
21.5950,72.72908305
21.6000,72.74765918
21.6050,72.76852283
21.6100,72.79137393
21.6150,72.81646372
21.6200,72.84371255
21.6250,72.87341634
21.6300,72.9058628
21.6350,72.9410959
21.6400,72.97880074
21.6450,73.01880782
21.6500,73.06099618
21.6550,73.10541822
21.6600,73.15211718
21.6650,73.20102595
21.6700,73.25177165
21.6750,73.30404735
21.6800,73.35771619
21.6850,73.4129929
21.6900,73.46979841
21.6950,73.52819498
21.7000,73.58797704
21.7050,73.64887373
21.7100,73.71065314
21.7150,73.77309492
21.7200,73.83621
21.7250,73.89956294
21.7300,73.96306549
21.7350,74.02626988
21.7400,74.0889037
21.7450,74.15058915
21.7500,74.21164613
21.7550,74.2722391
21.7600,74.33257586
21.7650,74.39270691
21.7700,74.45258844
21.7750,74.51200393
21.7800,74.57067336
21.7850,74.62830263
21.7900,74.68487697
21.7950,74.74022151
21.8000,74.79429051
21.8050,74.84732272
21.8100,74.89926656
21.8150,74.95028534
21.8200,75.00012153
21.8250,75.04861835
21.8300,75.09584896
21.8350,75.14185595
21.8400,75.18651962
21.8450,75.22997461
21.8500,75.2721084
21.8550,75.31324464
21.8600,75.35347413
21.8650,75.39274857
21.8700,75.43106515
21.8750,75.46849325
21.8800,75.50483599
21.8850,75.54000656
21.8900,75.57424344
21.8950,75.60759144
21.9000,75.64059987
21.9050,75.67284211
21.9100,75.70471229
21.9150,75.73601197
21.9200,75.76697512
21.9250,75.79725218
21.9300,75.82666555
21.9350,75.85495594
21.9400,75.88222971
21.9450,75.90868594
21.9500,75.93423591
21.9550,75.95875613
21.9600,75.9820712
21.9650,76.00417037
21.9700,76.02536474
21.9750,76.04562117
21.9800,76.06498344
21.9850,76.08309684
21.9900,76.10024835
21.9950,76.1162653
22.0000,76.13104459
22.0050,76.14462436
22.0100,76.15716169
22.0150,76.16874353
22.0200,76.17937987
22.0250,76.1891231
22.0300,76.19809729
22.0350,76.20634486
22.0400,76.21401231
22.0450,76.22099551
22.0500,76.22712083
22.0550,76.23220885
22.0600,76.23594539
22.0650,76.23829403
22.0700,76.23931374
22.0750,76.23917351
22.0800,76.23785863
22.0850,76.23511713
22.0900,76.23078963
22.0950,76.22496058
22.1000,76.21759368
22.1050,76.20852859
22.1100,76.19784689
22.1150,76.18526459
22.1200,76.17095824
22.1250,76.1549638
22.1300,76.13742691
22.1350,76.11862582
22.1400,76.0987222
22.1450,76.07726724
22.1500,76.05453952
22.1550,76.03041543
22.1600,76.00501921
22.1650,75.97863214
22.1700,75.95137056
22.1750,75.92316224
22.1800,75.89388928
22.1850,75.86340571
22.1900,75.83173575
22.1950,75.79901928
22.2000,75.76512239
22.2050,75.73018467
22.2100,75.69390486
22.2150,75.65637291
22.2200,75.61755479
22.2250,75.5774649
22.2300,75.53589584
22.2350,75.49299762
22.2400,75.44870978
22.2450,75.4028889
22.2500,75.35551321
22.2550,75.30685146
22.2600,75.25674545
22.2650,75.20516938
22.2700,75.15233105
22.2750,75.09821581
22.2800,75.04291603
22.2850,74.98664016
22.2900,74.92906051
22.2950,74.87015396
22.3000,74.80983382
22.3050,74.74756961
22.3100,74.6834819
22.3150,74.61769468
22.3200,74.55004173
22.3250,74.4804442
22.3300,74.40865495
22.3350,74.33456471
22.3400,74.25831483
22.3450,74.18004814
22.3500,74.09999202
22.3550,74.01819293
22.3600,73.93459153
22.3650,73.84900696
22.3700,73.76143712
22.3750,73.67175251
22.3800,73.57989203
22.3850,73.48614009
22.3900,73.39038571
22.3950,73.29288027
22.4000,73.19333912
22.4050,73.09199377
22.4100,72.98885761
22.4150,72.88379275
22.4200,72.77683025
22.4250,72.66820591
22.4300,72.55781176
22.4350,72.44551556
22.4400,72.3312159
22.4450,72.21500516
22.4500,72.09701018
22.4550,71.97699145
22.4600,71.85492721
22.4650,71.73070714
22.4700,71.60428112
22.4750,71.47590673
22.4800,71.3458431
22.4850,71.21468903
22.4900,71.08257427
22.4950,70.94969316
22.5000,70.81606335
22.5050,70.68165229
22.5100,70.54645424
22.5150,70.41056585
22.5200,70.27381681
22.5250,70.13642836
22.5300,69.99864553
22.5350,69.86038521
22.5400,69.72165127
22.5450,69.58262822
22.5500,69.44369382
22.5550,69.3044299
22.5600,69.1651238
22.5650,69.02571792
22.5700,68.88604092
22.5750,68.74628592
22.5800,68.60676343
22.5850,68.46740139
22.5900,68.32807639
22.5950,68.18878307
22.6000,68.04958619
22.6050,67.91081315
22.6100,67.77203983
22.6150,67.632794
22.6200,67.49293414
22.6250,67.3526093
22.6300,67.21175401
22.6350,67.07027675
22.6400,66.92746047
22.6450,66.78295642
22.6500,66.63669831
22.6550,66.48870281
22.6600,66.3391785
22.6650,66.18785973
22.6700,66.03444008
22.6750,65.8784917
22.6800,65.71990299
22.6850,65.55834866
22.6900,65.39376356
22.6950,65.22604346
22.7000,65.05518524
22.7050,64.88094754
22.7100,64.70308456
22.7150,64.52191817
22.7200,64.33747778
22.7250,64.14952554
22.7300,63.95782661
22.7350,63.76208624
22.7400,63.56220332
22.7450,63.35807653
22.7500,63.14899387
22.7550,62.93512794
22.7600,62.71633979
22.7650,62.49230563
22.7700,62.2629744
22.7750,62.02806796
22.7800,61.7872796
22.7850,61.54070843
22.7900,61.28829092
22.7950,61.02979496
22.8000,60.76508322
22.8050,60.49436964
22.8100,60.21764953
22.8150,59.93486231
22.8200,59.64620968
22.8250,59.35174034
22.8300,59.05136179
22.8350,58.74515785
22.8400,58.43310695
22.8450,58.11497524
22.8500,57.79041536
22.8550,57.45966702
22.8600,57.12272984
22.8650,56.77966626
22.8700,56.43053653
22.8750,56.07575469
22.8800,55.71485786
22.8850,55.34815497
22.8900,54.9759597
22.8950,54.59844347
22.9000,54.21545728
22.9050,53.82740775
22.9100,53.43432098
22.9150,53.03661056
22.9200,52.63452103
22.9250,52.22805319
22.9300,51.81733578
22.9350,51.40234806
22.9400,50.98379642
22.9450,50.5616148
22.9500,50.13577073
22.9550,49.70645802
22.9600,49.27373569
22.9650,48.83771524
22.9700,48.39865885
22.9750,47.95667607
22.9800,47.51133335
22.9850,47.06303719
22.9900,46.61186391
22.9950,46.15768527
23.0000,45.70056414
23.0050,45.24071884
23.0100,44.7780964
23.0150,44.31268174
23.0200,43.84441684
23.0250,43.37364656
23.0300,42.90041535
23.0350,42.42447797
23.0400,41.94578756
23.0450,41.46423228
23.0500,40.97989981
23.0550,40.49268597
23.0600,40.00256092
23.0650,39.50968194
23.0700,39.01407524
23.0750,38.5156199
23.0800,38.01451313
23.0850,37.51069918
23.0900,37.00414199
23.0950,36.4948382
23.1000,35.98293268
23.1050,35.46862298
23.1100,34.95207817
23.1150,34.43332218
23.1200,33.91267586
23.1250,33.38988602
23.1300,32.86514083
23.1350,32.3387207
23.1400,31.81093387
23.1450,31.28183254
23.1500,30.75219298
23.1550,30.22211864
23.1600,29.6920313
23.1650,29.16212227
23.1700,28.63268711
23.1750,28.1035393
23.1800,27.5752407
23.1850,27.0477139
23.1900,26.52117413
23.1950,25.99615476
23.2000,25.47305456
23.2050,24.95155409
23.2100,24.43197174
23.2150,23.91473769
23.2200,23.39996314
23.2250,22.88802123
23.2300,22.37937408
23.2350,21.87447487
23.2400,21.37334854
23.2450,20.87660838
23.2500,20.38406203
23.2550,19.89546933
23.2600,19.41138235
23.2650,18.93174962
23.2700,18.45665999
23.2750,17.98620025
23.2800,17.52043726
23.2850,17.05935213
23.2900,16.60290745
23.2950,16.15098879
23.3000,15.70326901
23.3050,15.25971717
23.3100,14.82016508
23.3150,14.38455347
23.3200,13.95243812
23.3250,13.52363105
23.3300,13.09789397
23.3350,12.67480229
23.3400,12.25430626
23.3450,11.83600797
23.3500,11.41984577
23.3550,11.00543225
23.3600,10.59238663
23.3650,10.18071992
23.3700,9.770245562
23.3750,9.360785804
23.3800,8.952588051
23.3850,8.545245931
23.3900,8.138621842
23.3950,7.732967956
23.4000,7.32795594
23.4050,6.923355603
23.4100,6.519393483
23.4150,6.116425705
23.4200,5.714220718
23.4250,5.313319245
23.4300,4.913811074
23.4350,4.515435663
23.4400,4.118441338
23.4450,3.722888767
23.4500,3.328435655
23.4550,2.935324378
23.4600,2.543906912
23.4650,2.154549227
23.4700,1.767609962
23.4750,1.383485336
23.4800,1.002559718
23.4850,0.6248104779
23.4900,0.2504096431
23.4950,-0.1207706168
23.5000,-0.4882004386
23.5050,-0.8510833958
23.5100,-1.208913298
23.5150,-1.561546598
23.5200,-1.908619436
23.5250,-2.250240341
23.5300,-2.586309762
23.5350,-2.916818166
23.5400,-3.241407989
23.5450,-3.559950164
23.5500,-3.872254154
23.5550,-4.178085631
23.5600,-4.477445485
23.5650,-4.769766167
23.5700,-5.055284583
23.5750,-5.334232173
23.5800,-5.606775768
23.5850,-5.873098652
23.5900,-6.133171987
23.5950,-6.387240237
23.6000,-6.635146242
23.6050,-6.877191782
23.6100,-7.113442352
23.6150,-7.344113295
23.6200,-7.569013421
23.6250,-7.788516905
23.6300,-8.002856058
23.6350,-8.211744454
23.6400,-8.415729758
23.6450,-8.614397873
23.6500,-8.807930083
23.6550,-8.996107815
23.6600,-9.179272567
23.6650,-9.357660366
23.6700,-9.531463138
23.6750,-9.700933647
23.6800,-9.866714924
23.6850,-10.02883219
23.6900,-10.18765162
23.6950,-10.3436157
23.7000,-10.49672204
23.7050,-10.6471002
23.7100,-10.79497027
23.7150,-10.94033562
23.7200,-11.08313056
23.7250,-11.22340869
23.7300,-11.3612144
23.7350,-11.49630021
23.7400,-11.62847307
23.7450,-11.75758877
23.7500,-11.88338153
23.7550,-12.00608111
23.7600,-12.12560825
23.7650,-12.24206704
23.7700,-12.35534193
23.7750,-12.46547139
23.7800,-12.57266651
23.7850,-12.67674302
23.7900,-12.77762613
23.7950,-12.87529223
23.8000,-12.96990952
23.8050,-13.06146093
23.8100,-13.1503992
23.8150,-13.23675211
23.8200,-13.32075725
23.8250,-13.40247718
23.8300,-13.48230529
23.8350,-13.56035794
23.8400,-13.63723548
23.8450,-13.71311912
23.8500,-13.78855412
23.8550,-13.86368733
23.8600,-13.93911913
23.8650,-14.01524549
23.8700,-14.09223699
23.8750,-14.17003855
23.8800,-14.248851
23.8850,-14.32885036
23.8900,-14.41020678
23.8950,-14.49294008
23.9000,-14.57707237
23.9050,-14.66275516
23.9100,-14.75019737
23.9150,-14.83942176
23.9200,-14.9303229
23.9250,-15.02284434
23.9300,-15.11650709
23.9350,-15.21125876
23.9400,-15.30676492
23.9450,-15.40308693
23.9500,-15.49994765
23.9550,-15.59712015
23.9600,-15.69441203
23.9650,-15.79173731
23.9700,-15.88891244
23.9750,-15.98565686
23.9800,-16.08168745
23.9850,-16.17697937
23.9900,-16.27119704
23.9950,-16.36394821
24.0000,-16.45533652
24.0050,-16.54510644
24.0100,-16.6331247
24.0150,-16.71907169
24.0200,-16.80267105
24.0250,-16.88389712
24.0300,-16.96228512
24.0350,-17.03755794
24.0400,-17.1096489
24.0450,-17.17848059
24.0500,-17.24396351
24.0550,-17.3064107
24.0600,-17.36578504
24.0650,-17.42192845
24.0700,-17.47505488
24.0750,-17.52529474
24.0800,-17.57259929
24.0850,-17.61693656
24.0900,-17.65832913
24.0950,-17.69685783
24.1000,-17.7324211
24.1050,-17.76523179
24.1100,-17.79546601
24.1150,-17.82316199
24.1200,-17.84871402
24.1250,-17.87241912
24.1300,-17.89457609
24.1350,-17.91548504
24.1400,-17.935076
24.1450,-17.95386551
24.1500,-17.97168772
24.1550,-17.98891187
24.1600,-18.00537764
24.1650,-18.02115398
24.1700,-18.03616273
24.1750,-18.05078325
24.1800,-18.06495692
24.1850,-18.07879248
24.1900,-18.09219118
24.1950,-18.10535202
24.2000,-18.11828626
24.2050,-18.13093579
24.2100,-18.14294166
24.2150,-18.15418896
24.2200,-18.16459403
24.2250,-18.1737895
24.2300,-18.18184166
24.2350,-18.18853988
24.2400,-18.19364851
24.2450,-18.19710903
24.2500,-18.19877719
24.2550,-18.1988604
24.2600,-18.1971116
24.2650,-18.19385216
24.2700,-18.18873544
24.2750,-18.18194258
24.2800,-18.17349152
24.2850,-18.1631866
24.2900,-18.15114493
24.2950,-18.13733728
24.3000,-18.12145908
24.3050,-18.10335309
24.3100,-18.08306092
24.3150,-18.06045537
24.3200,-18.03554479
24.3250,-18.00801386
24.3300,-17.97779621
24.3350,-17.94476211
24.3400,-17.90887302
24.3450,-17.87008345
24.3500,-17.82822778
24.3550,-17.78288497
24.3600,-17.7341837
24.3650,-17.68210173
24.3700,-17.62676424
24.3750,-17.56826044
24.3800,-17.50660334
24.3850,-17.44207732
24.3900,-17.37510448
24.3950,-17.30620694
24.4000,-17.23588127
24.4050,-17.16467702
24.4100,-17.0929434
24.4150,-17.02122699
24.4200,-16.9498204
24.4250,-16.87920592
24.4300,-16.80962235
24.4350,-16.74159948
24.4400,-16.67566422
24.4450,-16.61159458
24.4500,-16.54998779
24.4550,-16.49072368
24.4600,-16.43427363
24.4650,-16.38096705
24.4700,-16.33104601
24.4750,-16.28470284
24.4800,-16.24231635
24.4850,-16.2042981
24.4900,-16.17083249
24.4950,-16.14174554
24.5000,-16.11715489
24.5050,-16.09693148
24.5100,-16.08120997
24.5150,-16.06979514
24.5200,-16.06262237
24.5250,-16.05968091
24.5300,-16.06073288
24.5350,-16.06529961
24.5400,-16.07314882
24.5450,-16.08384996
24.5500,-16.09697576
24.5550,-16.11193931
24.5600,-16.12843825
24.5650,-16.14564078
24.5700,-16.16299495
24.5750,-16.17972662
24.5800,-16.1947686
24.5850,-16.20735394
24.5900,-16.2163611
24.5950,-16.22108599
24.6000,-16.22062349
24.6050,-16.21458468
24.6100,-16.20207376
24.6150,-16.18278444
24.6200,-16.1561851
24.6250,-16.1220967
24.6300,-16.08057726
24.6350,-16.03184649
24.6400,-15.97600785
24.6450,-15.91337457
24.6500,-15.84441916
24.6550,-15.76987056
24.6600,-15.6903455
24.6650,-15.60665316
24.6700,-15.51958712
24.6750,-15.4300519
24.6800,-15.33902189
24.6850,-15.24760583
24.6900,-15.15672347
24.6950,-15.06693792
24.7000,-14.97897311
24.7050,-14.89352916
24.7100,-14.81085049
24.7150,-14.73119252
24.7200,-14.65485965
24.7250,-14.58182687
24.7300,-14.51211796
24.7350,-14.44558081
24.7400,-14.38186993
24.7450,-14.32118618
24.7500,-14.26289626
24.7550,-14.20700065
24.7600,-14.15323971
24.7650,-14.10134511
24.7700,-14.05116277
24.7750,-14.00251155
24.7800,-13.95528415
24.7850,-13.90917898
24.7900,-13.86400747
24.7950,-13.82004065
24.8000,-13.77718183
24.8050,-13.73557222
24.8100,-13.69502133
24.8150,-13.65585754
24.8200,-13.61804322
24.8250,-13.58167679
24.8300,-13.54688713
24.8350,-13.51409398
24.8400,-13.48330457
24.8450,-13.45450396
24.8500,-13.42787862
24.8550,-13.40341338
24.8600,-13.38100268
24.8650,-13.3602991
24.8700,-13.34138887
24.8750,-13.32408771
24.8800,-13.30840674
24.8850,-13.29415869
24.8900,-13.28134127
24.8950,-13.26992502
24.9000,-13.25992666
24.9050,-13.25118504
24.9100,-13.24370603
24.9150,-13.2376091
24.9200,-13.23289749
24.9250,-13.22934993
24.9300,-13.22698837
24.9350,-13.22548494
24.9400,-13.22476307
24.9450,-13.22483003
24.9500,-13.22602563
24.9550,-13.22795199
24.9600,-13.23087935
24.9650,-13.23483056
24.9700,-13.23960006
24.9750,-13.24505334
24.9800,-13.25133449
24.9850,-13.25826964
24.9900,-13.26583541
24.9950,-13.27398199
25.0000,-13.28272248
25.0050,-13.29203555
25.0100,-13.30200323
25.0150,-13.31258459
25.0200,-13.32358811
25.0250,-13.33491076
25.0300,-13.34630837
25.0350,-13.35772877
25.0400,-13.3692756
25.0450,-13.38055301
25.0500,-13.39180007
25.0550,-13.40299721
25.0600,-13.41405267
25.0650,-13.42507794
25.0700,-13.43632062
25.0750,-13.44775602
25.0800,-13.45932086
25.0850,-13.47116817
25.0900,-13.48331928
25.0950,-13.49565349
25.1000,-13.50836038
25.1050,-13.52166487
25.1100,-13.53584588
25.1150,-13.55099574
25.1200,-13.56742966
25.1250,-13.58532003
25.1300,-13.60493073
25.1350,-13.62636662
25.1400,-13.65003207
25.1450,-13.67588499
25.1500,-13.70385171
25.1550,-13.73375488
25.1600,-13.76535437
25.1650,-13.79874508
25.1700,-13.83368105
25.1750,-13.87003411
25.1800,-13.90779085
25.1850,-13.94694896
25.1900,-13.98752621
25.1950,-14.02927287
25.2000,-14.07221027
25.2050,-14.11602852
25.2100,-14.16069217
25.2150,-14.20591433
25.2200,-14.25165686
25.2250,-14.2980825
25.2300,-14.34495394
25.2350,-14.39239088
25.2400,-14.44055166
25.2450,-14.48940033
25.2500,-14.5385643
25.2550,-14.58818116
25.2600,-14.63808686
25.2650,-14.68827122
25.2700,-14.73893336
25.2750,-14.79028739
25.2800,-14.84212466
25.2850,-14.89446688
25.2900,-14.94731012
25.2950,-15.00052295
25.3000,-15.05417172
25.3050,-15.10808929
25.3100,-15.1621994
25.3150,-15.21650443
25.3200,-15.27102425
25.3250,-15.3256841
25.3300,-15.38043601
25.3350,-15.43507565
25.3400,-15.48944028
25.3450,-15.54388945
25.3500,-15.59821478
25.3550,-15.65221392
25.3600,-15.7055688
25.3650,-15.75822557
25.3700,-15.80986884
25.3750,-15.86041151
25.3800,-15.90976443
25.3850,-15.9578476
25.3900,-16.00490045
25.3950,-16.05100015
25.4000,-16.09612356
25.4050,-16.14019596
25.4100,-16.18332815
25.4150,-16.22536715
25.4200,-16.2664455
25.4250,-16.30648081
25.4300,-16.34523445
25.4350,-16.38257053
25.4400,-16.41799087
25.4450,-16.45137982
25.4500,-16.48256725
25.4550,-16.51147827
25.4600,-16.53800802
25.4650,-16.56184939
25.4700,-16.58304616
25.4750,-16.60144667
25.4800,-16.61702746
25.4850,-16.62971389
25.4900,-16.63930233
25.4950,-16.64611328
25.5000,-16.6500727
25.5050,-16.65125878
25.5100,-16.64964465
25.5150,-16.64526933
25.5200,-16.63822084
25.5250,-16.62834076
25.5300,-16.61597721
25.5350,-16.60115417
25.5400,-16.58406653
25.5450,-16.56464066
25.5500,-16.54320095
25.5550,-16.52014998
25.5600,-16.49537133
25.5650,-16.46894327
25.5700,-16.44107964
25.5750,-16.4118072
25.5800,-16.38121461
25.5850,-16.34945247
25.5900,-16.31656137
25.5950,-16.28301326
25.6000,-16.24838928
25.6050,-16.21270717
25.6100,-16.17622072
25.6150,-16.13856591
25.6200,-16.09979032
25.6250,-16.05993087
25.6300,-16.01896486
25.6350,-15.97690092
25.6400,-15.93354488
25.6450,-15.88853682
25.6500,-15.84189043
25.6550,-15.79311534
25.6600,-15.74207376
25.6650,-15.68824207
25.6700,-15.63129433
25.6750,-15.57070281
25.6800,-15.50593559
25.6850,-15.43625525
25.6900,-15.36092014
25.6950,-15.27928943
25.7000,-15.19058933
25.7050,-15.09423924
25.7100,-14.98937502
25.7150,-14.95043761
25.7200,-14.90620511
25.7250,-14.8566367
25.7300,-14.80177405
25.7350,-14.74173411
25.7400,-14.67670543
25.7450,-14.60694897
25.7500,-14.53280197
25.7550,-14.45468226
25.7600,-14.37309275
25.7650,-14.28862504
25.7700,-14.20195971
25.7750,-14.11386319
25.7800,-14.02518211
25.7850,-13.9368338
25.7900,-13.84979238
25.7950,-13.76507064
25.8000,-13.683699
25.8050,-13.60670116
25.8100,-13.53506445
25.8150,-13.46970468
25.8200,-13.41142711
25.8250,-13.36088425
25.8300,-13.31853006
25.8350,-13.28457021
25.8400,-13.25890922
25.8450,-13.24109573
25.8500,-13.23026711
25.8550,-13.22509402
