type,name,time_units,begin_time,frequency,count,units
signal_3d,"Noraxon MyoMotion-Segments-Forearm RT-Acceleration","s",0.0000,200,5172,"mG"

time,x,y,z
0.0000,3.27058773,23.69242145,-8.387124669
0.0050,10.54204499,12.63614784,-5.497528355
0.0100,17.95573027,10.49520791,-10.96975831
0.0150,37.83663252,-0.02125260397,-7.175273236
0.0200,27.20154154,-17.21072324,-3.585311376
0.0250,37.65039726,-4.521167649,1.930949677
0.0300,32.5600292,-7.325179647,0.5635016754
0.0350,31.9420325,-18.74953295,-3.59285474
0.0400,36.90295899,-10.13246673,-1.605074881
0.0450,47.71764551,-14.41754206,-7.904558148
0.0500,52.9463411,-19.63647481,-19.16708145
0.0550,48.5479213,-39.56365277,-27.93538622
0.0600,48.89948811,-46.58843922,-21.31686743
0.0650,41.44494123,-39.8895095,-22.5145168
0.0700,35.02547821,-45.122331,-11.59225035
0.0750,22.16619598,-36.65291096,-18.71923614
0.0800,26.58379765,-24.80605924,-3.445245999
0.0850,21.88484744,-31.36149468,-4.023435683
0.0900,15.41505026,-11.03221852,-4.149601096
0.0950,25.86080979,-25.97196169,-1.39038786
0.1000,34.41906024,-9.602784288,-8.874412516
0.1050,35.79444568,-22.99432379,-13.09983468
0.1100,47.59890597,-23.21782962,-10.22317691
0.1150,53.72461258,-15.7964771,-14.61030021
0.1200,45.9133447,-28.56385428,-13.95084476
0.1250,45.20139996,-25.92574491,-6.766663391
0.1300,31.50676025,-18.49408769,-1.858670439
0.1350,30.99331889,-16.55441056,-1.878647174
0.1400,22.64791302,-5.317212673,-0.9600909384
0.1450,9.124540079,-14.38123653,-6.786927172
0.1500,23.87687712,-3.612270939,-2.658793265
0.1550,17.45574744,-8.181656751,-6.098721839
0.1600,9.50051137,-13.72022987,-14.02474939
0.1650,22.55637586,1.294178457,-15.87135677
0.1700,13.23781381,-4.791434377,-17.17550904
0.1750,25.84798171,-7.937431469,-7.481612902
0.1800,27.09118297,-14.48879734,-2.3712407
0.1850,26.84803396,-4.312993772,-3.811033413
0.1900,31.36853893,-5.766187088,3.328198295
0.1950,21.51012697,-2.297155075,-4.076418214
0.2000,17.81712736,-4.948161363,0.5210262368
0.2050,22.23981839,-11.21583579,7.23614853
0.2100,11.63016233,-7.302893878,5.044846163
0.2150,19.15468508,-12.00237027,13.10180431
0.2200,20.73856189,-0.6088618388,11.11334585
0.2250,15.59166135,-11.39120167,11.32808662
0.2300,22.6090743,-2.7159901,14.06541738
0.2350,22.46627869,-5.573735377,16.0589249
0.2400,30.9690134,-5.50888477,12.32750917
0.2450,26.284442,-4.33221212,8.237356404
0.2500,33.7427974,-0.5557021117,9.400430522
0.2550,34.00183011,-3.65180098,6.763347308
0.2600,28.73495557,-2.839706739,10.73121295
0.2650,34.09925357,-4.779261019,9.557379361
0.2700,25.51005887,-9.982223445,4.280413794
0.2750,21.95222573,-14.70192925,2.879191545
0.2800,15.01200605,-9.085596275,-0.00386970453
0.2850,16.65162988,-15.51043446,2.521908559
0.2900,14.67336471,-10.01606988,-0.1155020165
0.2950,20.20835281,-14.35277477,-8.300528225
0.3000,22.84998592,-28.33107972,-3.362646444
0.3050,32.33948632,-8.066440238,-6.308125877
0.3100,26.02228815,-18.49756321,-16.43833096
0.3150,37.97734217,-16.85014673,-1.291898832
0.3200,37.50108899,-10.88627957,1.453457509
0.3250,33.47438209,-7.368018074,-3.778390797
0.3300,45.08154277,2.664656365,-3.033357733
0.3350,48.60798269,-16.4182598,-3.266621002
0.3400,54.25572128,-11.65416376,-6.687036206
0.3450,44.2835104,-16.79841821,-7.674427233
0.3500,37.59730504,-19.87713229,-7.257939169
0.3550,34.32309989,-11.75116755,-13.20526544
0.3600,47.24706063,-19.80640153,-1.132566839
0.3650,34.98835583,-21.5649244,-4.127814113
0.3700,36.88977641,-19.5575541,-5.008263487
0.3750,41.86927355,-23.35650894,2.066043169
0.3800,27.25358383,-21.47768266,-8.40778892
0.3850,46.44611509,-19.77565485,2.631132899
0.3900,40.18048289,-10.78216192,-12.74967114
0.3950,41.46910738,-19.00351749,-8.989878756
0.4000,43.33178552,-22.74006799,-3.464181618
0.4050,34.19848192,-22.49628881,-3.528628398
0.4100,45.67738529,-24.56719316,4.913115606
0.4150,30.08449171,-19.08827709,-11.76234561
0.4200,36.12341752,-18.15844729,0.6056218591
0.4250,23.45111836,-20.8734784,-0.02517080033
0.4300,29.18693722,-6.699756078,-0.08157836138
0.4350,28.08163042,-17.12459867,-4.45889393
0.4400,19.93723103,-15.86925691,-6.984602267
0.4450,33.38057802,-0.2671907073,-7.96940846
0.4500,34.74982769,-8.910807264,-0.3166547683
0.4550,46.64407167,-11.75465089,4.382193163
0.4600,36.64098978,-2.188525938,-4.799822877
0.4650,47.95408684,-10.82024151,0.8629106908
0.4700,39.21941817,-22.93341945,-3.213978701
0.4750,42.95274094,-8.430737036,-3.950333983
0.4800,43.53283813,-8.53629692,-1.526124464
0.4850,38.65556964,-18.31256643,-9.246770912
0.4900,51.49049049,-20.90307993,7.931382745
0.4950,40.41780151,-16.02142153,0.5132516307
0.5000,43.67171064,-6.489704446,-0.6261761635
0.5050,34.46033161,-12.79846334,-3.462327302
0.5100,41.20254418,-4.192800859,-1.790838762
0.5150,41.98799817,-8.53867732,-4.760549272
0.5200,26.30680426,-11.7755887,-12.56808993
0.5250,42.75669822,-8.317451736,-4.813444111
0.5300,32.54010825,-0.7737891844,-6.785728668
0.5350,33.75450756,-10.76054503,-0.3632378217
0.5400,40.40115468,0.7053733865,0.3757660791
0.5450,39.00042195,-1.958140262,0.6079307991
0.5500,29.78538348,0.7935109277,-4.48921032
0.5550,44.04642105,-4.37320162,2.881009011
0.5600,34.35941954,-15.18568343,-5.296655297
0.5650,48.66740196,-10.97487443,4.397086454
0.5700,39.96749657,-10.20474213,0.3447217763
0.5750,39.1843982,-13.44922884,-9.214617478
0.5800,40.98967707,-8.460014585,-3.011262639
0.5850,40.76769255,-7.389352821,-2.22548799
0.5900,34.61894387,-10.09145223,-9.382019298
0.5950,39.62021514,-2.759873606,-8.68491786
0.6000,25.87320367,-0.4787766432,-11.64586316
0.6050,30.04107225,-2.07314021,-9.579436352
0.6100,29.77350751,-7.345181333,-13.08941865
0.6150,30.08627627,-4.732750106,-13.64861724
0.6200,24.8053552,5.477762623,-15.35929469
0.6250,24.33638386,-8.231610734,-10.9620494
0.6300,36.30583394,-4.390420394,-3.501276408
0.6350,34.90910045,1.867744798,-8.633810907
0.6400,44.2915008,-5.28414112,-1.933445298
0.6450,42.93531142,1.291229037,-10.01520776
0.6500,43.42417873,-6.612112927,-9.627842419
0.6550,38.28521498,-17.65756015,-6.017979889
0.6600,37.8486092,0.4270656386,-5.456094476
0.6650,38.303207,-2.925136202,-6.202442327
0.6700,29.30362618,-13.04649443,-4.824783009
0.6750,38.9518413,-7.622966827,-5.262335484
0.6800,28.81411718,-6.048109868,-9.954618599
0.6850,28.99951706,-4.605480749,-8.731607565
0.6900,26.78061157,-6.323359116,-8.227201411
0.6950,28.76743607,-14.24300657,-3.560675139
0.7000,36.58320936,-2.546097793,-2.991687993
0.7050,11.0982061,-4.502978846,-10.10368268
0.7100,25.26823469,5.429114085,-2.290084353
0.7150,24.85326789,-8.723529207,-7.554569246
0.7200,22.04896263,-5.61228865,-4.508549953
0.7250,28.23845715,-8.926238045,-3.633995551
0.7300,27.48875535,-10.36303932,-1.323477363
0.7350,30.03731313,-1.304359509,-6.008845097
0.7400,29.66796122,-6.892304938,-1.55200055
0.7450,27.16448368,-0.1785358133,-2.437122038
0.7500,21.25629592,-8.732976921,-2.236242984
0.7550,13.88467464,-0.6400602628,-8.16150872
0.7600,17.40051381,-9.764666705,-3.468193364
0.7650,15.53106818,-2.084410316,-8.306424803
0.7700,21.79957532,-3.688759197,-1.045928414
0.7750,13.13393199,-3.869342113,-8.900834031
0.7800,20.03376043,-11.36519369,0.6240853851
0.7850,14.74978127,-4.246030231,-8.83044873
0.7900,20.44018665,-9.314571078,-2.151692757
0.7950,22.00111737,1.952436339,-1.283066629
0.8000,21.63502406,-1.357848868,1.610296358
0.8050,15.1015452,5.556514725,-6.180915298
0.8100,20.82912864,-4.65176884,-1.498924935
0.8150,17.26663588,4.10470538,-4.370601708
0.8200,24.7922044,-0.3025371059,-0.3540459704
0.8250,16.54029455,6.511374052,-5.426504955
0.8300,25.13838264,-4.180381715,1.242957215
0.8350,25.91150884,-6.394709095,-4.376403087
0.8400,20.25775846,-11.68235434,-4.101063671
0.8450,25.25961293,-1.462764305,1.092059131
0.8500,29.34593422,-15.56803904,4.745475258
0.8550,18.78807101,-1.695075515,-3.170103603
0.8600,22.14331666,-11.19145159,0.4744704755
0.8650,17.05918416,3.83797113,2.01922749
0.8700,16.78645995,6.050364003,4.90897798
0.8750,-0.6292118419,-2.003424485,-6.231350777
0.8800,3.660605392,5.087667616,1.946251598
0.8850,1.206311553,-5.938753524,1.653968629
0.8900,5.41831151,12.4350624,1.456903461
0.8950,10.12690333,0.1848589807,-0.1202043658
0.9000,10.33874033,0.9175866481,2.93695479
0.9050,14.7159743,4.119002302,-2.667585144
0.9100,14.45236753,9.312022086,-3.695494208
0.9150,20.35022946,-5.239181546,-7.866102375
0.9200,26.92321198,-0.4589177394,-4.449750444
0.9250,20.08702112,-9.315717872,-6.198585171
0.9300,23.64356772,-7.942555553,-7.006308848
0.9350,21.9322308,-12.26896504,-3.09563967
0.9400,26.94985402,-4.311143736,3.647439968
0.9450,20.16995411,-26.34312842,-1.052819055
0.9500,15.57573781,-9.552399816,7.727061759
0.9550,14.84609016,-13.72961604,8.017811808
0.9600,13.5092358,-16.77245628,10.13561915
0.9650,24.7301988,0.8568343307,5.826398502
0.9700,17.19397927,-11.11568958,2.686561423
0.9750,12.46457126,7.635661221,0.3662401748
0.9800,4.911255736,-2.17491943,2.170233316
0.9850,4.187583403,15.15547309,5.056598368
0.9900,-0.8382171102,18.31936582,1.404068404
0.9950,1.390965364,9.74216395,-6.034245365
1.0000,12.49746664,11.58405165,3.288116848
1.0050,15.95105767,3.336362667,0.7509903198
1.0100,19.65091685,0.8134323791,-0.735128903
1.0150,7.118345844,-0.6418621479,-2.69600666
1.0200,1.73386023,10.22435945,-8.893227189
1.0250,-2.581504776,0.1190159342,-5.129141221
1.0300,2.636637296,1.824289688,-2.489699818
1.0350,-2.719521642,-7.692984064,-8.998979223
1.0400,6.809919997,6.423933371,1.321206281
1.0450,-1.124213769,-4.60429395,0.4551306884
1.0500,0.5598387861,-0.293407076,5.049868189
1.0550,-2.757653966,0.0658137056,9.668470018
1.0600,0.4810790975,-6.58482615,2.48197636
1.0650,-6.531703498,-2.691988322,-8.740516688
1.0700,9.052649624,6.013670389,-2.800261788
1.0750,9.721855326,8.10065729,-6.935525866
1.0800,1.446779064,4.541272972,-4.276033615
1.0850,-2.36151295,4.014982638,-4.166341963
1.0900,9.346350456,12.56385056,-2.736433733
1.0950,5.128283153,1.846155449,-8.521458274
1.1000,12.83201219,6.327303626,1.837644785
1.1050,5.079233823,-5.313794152,1.920210767
1.1100,7.029335582,6.157258801,2.373351273
1.1150,14.842796,-4.062789257,-0.6137911835
1.1200,12.164291,3.304518134,3.268451809
1.1250,12.09319922,4.111953239,-1.483505569
1.1300,6.267854788,0.9198131413,-8.107906801
1.1350,9.508545386,-5.796537909,-0.2186710585
1.1400,-5.061662916,-11.6960545,3.577718928
1.1450,-25.95858765,-3.561904676,2.531122032
1.1500,-34.35562672,1.983213602,-9.997401758
1.1550,-43.12601409,-12.55929671,-18.67243857
1.1600,-43.32505755,-13.71705748,-20.0795225
1.1650,-44.41748092,-18.90876471,-18.5197836
1.1700,-35.6468303,-16.31069959,-9.006953161
1.1750,-26.14936472,-11.36438579,-10.71009924
1.1800,-1.439700669,-17.13511085,1.632884133
1.1850,25.20620033,-22.10678511,6.683585566
1.1900,55.27104461,-27.4393197,19.05348649
1.1950,71.70897283,-26.52256202,23.76716252
1.2000,63.55612415,-15.14304081,23.61229786
1.2050,59.16608924,3.442531095,24.26738179
1.2100,45.97835213,6.744555476,31.52316658
1.2150,28.07412459,27.65533963,27.99663656
1.2200,11.82354325,41.62713973,18.82415264
1.2250,-6.962846445,40.57125203,11.73226713
1.2300,-20.3715683,42.70927816,5.884452934
1.2350,-24.64427207,37.98156986,-4.96967557
1.2400,-27.34128762,29.3066542,0.3151588974
1.2450,-11.21824611,29.06590455,-3.2327345
1.2500,17.32201871,8.559988044,9.522418239
1.2550,16.52973736,0.4527710797,9.963954573
1.2600,8.709656547,-3.587362425,16.61010513
1.2650,10.6269758,6.439613004,23.82523209
1.2700,4.22233036,14.48448412,20.51578588
1.2750,0.8892443339,18.21241505,19.34549281
1.2800,-1.798493235,29.56141583,22.67160964
1.2850,-22.30484129,26.88484796,5.830301302
1.2900,-28.77822038,31.0140906,1.37341422
1.2950,-18.60298818,29.9950713,-0.279961799
1.3000,-5.57784929,19.61028538,4.602632129
1.3050,-12.88144623,7.686062788,-4.02530543
1.3100,2.667927072,10.41243608,1.546665504
1.3150,-2.24595737,-11.10764422,3.11109472
1.3200,11.35499816,8.157275178,8.618186167
1.3250,11.49709911,1.316092534,3.629335221
1.3300,18.69616244,-0.851110909,18.06814596
1.3350,18.49557993,11.42863861,19.90865703
1.3400,12.66256853,10.19305252,23.6589849
1.3450,18.03765314,19.30106236,26.22011718
1.3500,10.41615947,18.19818855,27.41405273
1.3550,11.58237023,29.20095678,28.29885004
1.3600,-3.557889564,21.09165533,24.57312984
1.3650,-16.95513674,38.2606124,21.63331104
1.3700,-19.47454628,31.50722004,28.81943584
1.3750,-9.625127361,22.41817782,26.45272325
1.3800,-20.84018611,29.70319692,18.96187476
1.3850,-13.69811494,22.01508662,21.16983323
1.3900,-20.38709618,11.74982682,19.96993606
1.3950,-19.69805496,1.142448166,20.03496723
1.4000,11.85422381,-12.41905865,24.57983957
1.4050,4.584831282,-15.24529866,28.98794632
1.4100,12.54850771,0.9771946135,39.29382715
1.4150,-2.169855079,-5.632670253,31.44455196
1.4200,-9.433371306,23.73364337,26.38729966
1.4250,-11.66415329,32.44878636,26.49390426
1.4300,-8.640108021,19.64981536,24.52232632
1.4350,4.17367204,20.27496072,24.2540166
1.4400,-10.53647677,19.48722821,29.23578753
1.4450,-22.02282842,18.12860454,25.46110937
1.4500,-9.837788503,26.3761257,29.49248037
1.4550,-20.50738461,13.13123093,22.021746
1.4600,-4.487252243,12.78046871,23.76201192
1.4650,-10.09081713,-9.428980858,22.94758951
1.4700,-0.3380063731,13.07755919,26.42191445
1.4750,-14.63118262,-10.88669108,21.61600756
1.4800,-19.26816716,15.4310121,36.7187318
1.4850,-29.56154807,11.02512089,43.74555355
1.4900,-18.17396588,47.47818345,40.00719114
1.4950,-25.53295024,24.0552328,36.61046204
1.5000,-29.02366939,25.67145846,41.3238108
1.5050,-39.43261983,26.41197107,41.92253882
1.5100,-34.45625911,33.29681665,42.36465252
1.5150,-30.16981014,32.70890638,39.63424906
1.5200,-16.43080797,30.18303988,36.82848099
1.5250,-9.161097826,18.91950454,40.0606852
1.5300,-0.9908109428,14.52472953,31.47643169
1.5350,-9.989561579,6.093275596,26.95886849
1.5400,-31.09529563,1.435462436,23.45029073
1.5450,-32.30362331,12.40209907,30.56821634
1.5500,-29.27339536,13.74645337,32.56502305
1.5550,-59.40803154,17.10269575,27.72615113
1.5600,-38.06233149,28.76025752,38.11168458
1.5650,-50.13228215,32.34257156,40.25409785
1.5700,-46.48778782,36.07767484,43.87523435
1.5750,-56.17595184,39.53852477,49.22551055
1.5800,-47.97841421,31.9137517,44.84191781
1.5850,-43.50672508,37.5356153,40.01767707
1.5900,-34.93236641,28.5778419,42.15295518
1.5950,-26.13561049,30.74098495,36.91180742
1.6000,-29.01720929,29.97087416,36.00956768
1.6050,-23.32788006,24.54981698,40.19534912
1.6100,-26.49324541,35.88388687,43.52777386
1.6150,-20.88516366,25.63517156,42.04746077
1.6200,-11.0277491,31.31951442,46.17726801
1.6250,-7.062007091,32.91348102,41.3785828
1.6300,-4.711177784,24.0441935,46.03749062
1.6350,0.5292881107,27.61646404,46.5212505
1.6400,-3.295389951,26.5647536,52.40883283
1.6450,-3.702080247,24.10242523,47.82231657
1.6500,-13.95722067,20.41739959,43.29210075
1.6550,-27.0423798,20.25185476,41.46607742
1.6600,-21.17438195,19.03459858,50.76670605
1.6650,-19.73872471,14.73858876,59.09235455
1.6700,-15.11371534,13.15737434,63.80862435
1.6750,-22.02695517,17.34226405,59.08884387
1.6800,-8.502819855,17.66089766,61.28460723
1.6850,1.248165204,8.504604066,61.44730633
1.6900,8.4329069,11.2022223,58.57532491
1.6950,13.94519472,6.498326887,49.60517977
1.7000,27.20035073,-1.54199257,40.66502413
1.7050,28.80711087,-4.186067451,37.36174488
1.7100,28.84745971,-1.939769353,43.13433406
1.7150,28.15771998,-3.986773212,45.53955647
1.7200,26.98170331,-1.672568132,50.58709506
1.7250,42.70440528,-4.945066143,46.33982895
1.7300,14.95853798,-13.16543,42.1949508
1.7350,19.41276833,-5.096504386,43.25541683
1.7400,15.25615685,3.211227802,44.89980204
1.7450,15.28492196,3.447146113,46.57436432
1.7500,3.911224992,-9.192185435,44.58817433
1.7550,19.47414812,14.16091226,43.94031687
1.7600,6.724078323,-7.603816552,40.22047361
1.7650,10.39891538,-9.837243555,44.62504799
1.7700,22.44761873,1.712958772,44.91185853
1.7750,29.61237755,-12.47325834,43.18252095
1.7800,49.72558135,-10.8566369,36.96794488
1.7850,46.59734243,-38.13833941,23.02707308
1.7900,39.4950163,-31.22172591,24.24646649
1.7950,45.42921243,-25.48277701,25.99476206
1.8000,44.20825415,-27.72470721,31.87736017
1.8050,32.45175756,-32.4384592,30.63361934
1.8100,29.39037189,-24.65823652,27.45963236
1.8150,40.59043072,-10.32927134,28.53348213
1.8200,24.8016815,-30.81942259,35.35397133
1.8250,28.06198781,-24.56710239,40.32404319
1.8300,14.73628461,-21.52316473,44.3607914
1.8350,15.61120451,-12.18037728,55.64616779
1.8400,6.935387376,-15.46667534,62.24504693
1.8450,13.32357402,-15.99055149,58.87602396
1.8500,25.86701999,-18.22762704,50.80496466
1.8550,36.09770712,-34.16543681,38.3586043
1.8600,33.92421604,-32.09451027,36.64117224
1.8650,39.34912536,-37.90167758,26.59788265
1.8700,56.19314548,-31.05890965,21.88420117
1.8750,39.82195077,-48.10212183,24.07384809
1.8800,46.4407508,-46.3229426,27.85160434
1.8850,41.22396382,-34.73184018,27.00945783
1.8900,27.69181602,-45.51047862,29.84377566
1.8950,22.4994088,-33.02618143,26.75909632
1.9000,29.44585151,-28.90470649,28.08217579
1.9050,35.11993966,-19.02719804,29.67080331
1.9100,39.26722022,-30.3073709,29.86411624
1.9150,47.45024698,-24.46512886,26.80925704
1.9200,50.22245284,-42.23273923,22.44715063
1.9250,37.371112,-22.31521782,26.97603462
1.9300,47.69802966,-24.82272939,24.66540283
1.9350,47.30060553,-29.23858843,24.10531372
1.9400,37.91875424,-27.64316048,26.35908532
1.9450,35.14104527,-25.56977426,28.59620206
1.9500,36.4530772,-21.01838896,29.46404996
1.9550,35.08234148,-41.51174165,24.64014638
1.9600,34.36620165,-51.87153766,21.44118801
1.9650,38.44858058,-34.73747792,18.92988263
1.9700,54.02281687,-30.9013605,12.30759801
1.9750,55.58315433,-30.58710711,12.47912755
1.9800,40.6129917,-28.34052225,28.07753999
1.9850,36.90577666,-29.25402205,30.7782255
1.9900,36.49857491,-23.83417255,37.92997044
1.9950,38.74224964,-23.95100773,37.13931096
2.0000,30.58586081,-19.52476383,47.62301838
2.0050,37.00086144,-13.86169107,45.13437093
2.0100,38.45806579,-24.27549708,38.38858025
2.0150,35.83339089,-27.95982847,36.18993135
2.0200,36.4423877,-24.84056819,30.31366244
2.0250,22.24727289,-40.03691001,26.38377189
2.0300,34.25744916,-36.05148028,27.00583156
2.0350,40.50311936,-24.93318471,35.72761015
2.0400,41.53876941,-20.56303373,40.93447191
2.0450,51.05121232,-34.88640898,35.94709811
2.0500,51.27187555,-29.49063356,33.41542433
2.0550,57.283571,-28.44468058,23.46279534
2.0600,55.57091697,-33.62517861,19.62550596
2.0650,49.11014965,-29.49013582,14.1477548
2.0700,46.96489006,-33.84501546,7.061121659
2.0750,55.70903843,-32.46944975,0.02373210256
2.0800,51.08419371,-32.93028202,6.771555259
2.0850,41.91634289,-32.75901166,13.36589608
2.0900,43.93051601,-24.14456173,28.40126555
2.0950,35.41558769,-23.91685403,35.99865619
2.1000,36.96230374,-19.10652782,35.98478987
2.1050,46.59468636,-20.31198874,24.87761783
2.1100,43.71573265,-22.87687273,18.72593632
2.1150,48.78061564,-26.21763961,10.15011273
2.1200,47.61529435,-22.42470303,11.00061652
2.1250,52.19105964,-29.46026676,-1.886258499
2.1300,39.9788358,-28.18789863,2.698784834
2.1350,41.44939174,-23.30227829,2.20145571
2.1400,42.38398966,-28.71311318,2.180271087
2.1450,42.48368998,-17.9904051,12.37299864
2.1500,30.48046761,-17.71595074,15.5869511
2.1550,37.31811444,-19.61810305,0.2882751574
2.1600,30.50670907,-26.43780787,-7.858891291
2.1650,34.84516573,-30.76625049,-13.24868793
2.1700,27.76182448,-24.18898427,4.467433028
2.1750,14.97351575,-19.88843668,14.58141464
2.1800,31.73269285,-8.363324177,16.69303681
2.1850,37.25229994,-25.41106451,6.06380033
2.1900,28.810407,-24.68560377,17.27614254
2.1950,36.40222251,-23.27282074,11.77758003
2.2000,36.97866149,-23.22704911,7.581440009
2.2050,41.07974059,-17.91564578,-5.339012534
2.2100,31.44779017,-25.44372518,-5.32367327
2.2150,31.02074724,-22.11282646,-1.133731952
2.2200,38.13892694,-31.43088499,-4.36705191
2.2250,43.91124615,-27.77950742,-11.87354479
2.2300,47.850629,-24.3610011,-29.23446274
2.2350,36.79382316,-29.51713911,-37.2819136
2.2400,33.42330595,-23.25446965,-27.41676025
2.2450,42.24591148,-23.76222931,-19.85531664
2.2500,41.59646832,-22.62297454,-17.1256108
2.2550,25.88672382,-21.40506456,-10.08378486
2.2600,38.77329904,-18.7140991,-13.39580559
2.2650,36.22602903,-14.19426523,-0.1727905819
2.2700,33.23845279,-20.5781111,8.408604141
2.2750,47.72387653,-17.9014483,-17.17000575
2.2800,49.54522049,-21.40324063,-27.4415931
2.2850,46.89150625,-33.06217054,-23.65106281
2.2900,50.53969353,-35.2243531,-25.5583882
2.2950,49.69218401,-25.19958201,-23.79199702
2.3000,46.12482487,-26.83847076,-37.22198729
2.3050,40.65633077,-17.06105355,-41.17671632
2.3100,33.44450566,-40.82472398,-33.93038845
2.3150,39.18228257,-45.78981015,-7.200359142
2.3200,47.41244964,-42.10269678,10.36393179
2.3250,52.01541505,-31.77185642,6.520344337
2.3300,52.9794351,-29.22377065,-12.45877254
2.3350,46.82608175,-27.16487453,-18.92374679
2.3400,53.31757723,-37.32920655,-26.70064862
2.3450,67.40464268,-26.36187301,-28.82518491
2.3500,62.09709084,-29.1116726,-25.62489471
2.3550,57.55499225,-23.95103617,-24.11632809
2.3600,38.64503802,-32.93355911,-15.9308482
2.3650,48.67143334,-25.88083405,-11.4379004
2.3700,55.79868765,-20.92614785,5.538072603
2.3750,59.10029468,-27.86255006,8.214922589
2.3800,69.11305367,-18.09074797,4.798075817
2.3850,68.11379351,-21.12378395,-18.65562661
2.3900,60.14419675,-17.24460911,-31.34001207
2.3950,47.14174826,-19.64802076,-31.22826595
2.4000,53.99794848,-12.98013969,-40.75540123
2.4050,48.38839891,-10.31316155,-20.23192265
2.4100,36.14593447,-30.64152631,-2.68223269
2.4150,40.39471413,-19.27547975,-2.768098264
2.4200,30.16203842,-18.23724798,-11.88109464
2.4250,30.36884804,2.253304517,-16.28965552
2.4300,29.86519112,-12.01966016,-14.59943935
2.4350,42.80006993,-6.685579461,-16.2072819
2.4400,38.7732681,-8.33551128,1.77607186
2.4450,54.39760056,7.053151602,6.783838488
2.4500,41.88177973,1.25991516,0.1132641892
2.4550,37.04048061,-3.021997122,-5.158722193
2.4600,44.16111053,-1.339790837,-12.87333581
2.4650,36.90224382,-6.853595789,-16.12003176
2.4700,42.49874505,-0.6105175292,-21.82214624
2.4750,31.41905041,-11.79211964,-17.00551643
2.4800,37.52770994,-7.853469396,-22.45065146
2.4850,28.04340156,-12.15914137,-22.83717697
2.4900,27.6931936,-12.60778304,-23.08287405
2.4950,38.77271247,-1.226171223,-15.59832179
2.5000,30.6925311,-6.65107774,5.423773022
2.5050,28.19093753,-9.039290175,-2.713791836
2.5100,28.70635217,-5.396742535,-11.48326126
2.5150,25.5454922,-1.67831225,-20.68015009
2.5200,26.17737486,-4.180907536,-12.17305779
2.5250,35.53090492,8.420875406,-6.940909336
2.5300,34.06717977,-0.7600622613,-11.70683469
2.5350,49.2439322,15.26070353,-17.88369381
2.5400,48.16412218,5.591861472,-10.36881981
2.5450,49.8677942,4.904353994,-18.11767183
2.5500,52.64181507,7.80648193,-30.71605214
2.5550,34.70038464,-5.112411131,-22.36558547
2.5600,34.9057442,12.21343465,-4.943435245
2.5650,19.75951732,-9.739446055,1.061653662
2.5700,15.48072251,-7.489191313,4.943380014
2.5750,16.11574152,-5.71542408,-16.37446085
2.5800,15.72697803,-11.2808152,-9.859910597
2.5850,18.94435311,-13.07484447,-15.56666839
2.5900,24.17524717,-15.37403653,-18.27314018
2.5950,30.86310789,-8.005953721,-11.8434869
2.6000,35.84320743,-4.907829872,-23.84280855
2.6050,41.84238325,6.896781286,-10.16319527
2.6100,50.15263971,-1.861289494,2.02315115
2.6150,47.71334951,-3.435421472,5.888161612
2.6200,55.89843301,10.7144964,-4.319600763
2.6250,43.91707766,8.591118959,-18.3935394
2.6300,25.61716802,4.185282682,-23.81122105
2.6350,27.0977307,4.530441667,-33.18770118
2.6400,30.79095189,-1.251242223,-1.884222601
2.6450,34.73549328,-13.82806739,-2.504346094
2.6500,37.02603307,-9.292068895,-12.07528278
2.6550,20.1615804,-15.13036946,-5.440746832
2.6600,21.75472892,-10.34664289,-11.81706778
2.6650,34.42915244,-6.047592917,-18.89960433
2.6700,40.11258324,-21.2086351,-20.32446133
2.6750,46.78863079,-9.064595513,-0.8839344542
2.6800,44.50041086,-14.73387691,12.98350183
2.6850,45.83437276,-12.00563154,13.67494468
2.6900,53.87613332,-4.218910886,9.030668929
2.6950,51.58587295,-6.251148809,-9.656366325
2.7000,56.70520205,4.412042574,-38.57277389
2.7050,45.26906511,1.993281784,-56.47067732
2.7100,35.31581978,-3.208816329,-38.98898181
2.7150,28.44886509,-17.46753543,-36.03886542
2.7200,19.84949681,-15.52492914,-35.09552463
2.7250,12.4299003,-3.882328628,-29.86136855
2.7300,13.88081324,-5.241853022,-21.67083541
2.7350,15.01142387,-25.91001016,-16.95303662
2.7400,32.27800874,-17.72086065,-30.79542569
2.7450,42.34185771,5.460093736,-24.41879496
2.7500,37.6830195,-9.282162298,-24.91143073
2.7550,48.79824462,-7.260121218,0.5703916045
2.7600,62.13298917,-14.83864267,11.44432915
2.7650,72.63626458,-8.985877954,16.13440616
2.7700,60.72251199,-4.08927561,10.26340822
2.7750,46.97764984,6.754065384,-7.847432548
2.7800,33.63025456,12.89012279,-37.93173706
2.7850,33.46838988,7.868182025,-58.26961554
2.7900,45.16607731,8.365932338,-56.97186873
2.7950,37.76992628,7.946115261,-52.20726456
2.8000,32.66237101,-3.656780248,-42.97805451
2.8050,19.70532127,-27.06137977,-14.69177552
2.8100,16.63772923,-17.07920332,-3.711856112
2.8150,8.788126549,-17.45413167,16.59315334
2.8200,20.75377765,-16.20615236,12.69352829
2.8250,37.17072318,-13.7535235,8.743860577
2.8300,49.39832139,7.444289042,-6.684393871
2.8350,39.15553674,10.35736927,-41.34465807
2.8400,27.72540658,6.727643493,-35.95930684
2.8450,27.26339777,-5.420105395,-28.44494441
2.8500,27.51219293,-15.98845246,-12.21354188
2.8550,27.48521716,-7.022705149,-15.34933764
2.8600,32.3676537,-0.4827815091,-16.52219007
2.8650,31.00804731,-15.92308117,-15.35513346
2.8700,53.4688198,-2.011483515,-16.38994756
2.8750,49.40718251,-5.343579706,-12.97467109
2.8800,47.04100412,-8.549475624,-22.06724156
2.8850,28.84316127,-27.76740389,-9.005840695
2.8900,27.31090695,-14.60024337,4.503058325
2.8950,22.73054489,-8.94844542,-9.297313277
2.9000,27.6911718,-8.148915284,-25.11187468
2.9050,27.10815994,-7.400815051,-14.47447239
2.9100,40.1412321,-13.18840695,3.00018246
2.9150,33.94569645,-18.62956342,-4.984740745
2.9200,37.62993462,1.525429469,-11.26639058
2.9250,25.9131302,-19.95302845,-21.08051584
2.9300,42.19002333,-6.172487047,-14.02154809
2.9350,41.44918751,-7.396630286,-17.02913582
2.9400,43.68622727,13.63943836,-29.23646272
2.9450,22.48631263,-4.47137451,-38.40122073
2.9500,25.76475871,8.774328916,-19.6886153
2.9550,16.05400794,-14.4766397,-24.7290054
2.9600,27.23161748,-19.08823295,-18.88434139
2.9650,30.72254355,-12.03144163,-15.17533734
2.9700,39.41362817,-6.37764588,-19.98889864
2.9750,32.46585648,4.881196375,-14.66826218
2.9800,29.68931113,-2.734358745,-18.56190858
2.9850,29.40361588,10.85937265,-18.04381322
2.9900,29.01429802,-2.252323005,-30.38889687
2.9950,48.04292839,5.183170638,-14.00885272
3.0000,46.57268229,0.2301591936,-12.72920895
3.0050,27.72976859,-13.05046646,-4.200880344
3.0100,25.00611201,3.426044444,-2.903020546
3.0150,32.31216158,1.131074006,-16.98912873
3.0200,46.22305048,-1.029440437,-18.51786919
3.0250,58.88123592,-12.73376366,-25.96662372
3.0300,55.15126025,-10.86382419,-5.488637688
3.0350,45.59539919,0.1744093114,-8.24775159
3.0400,24.35666182,-5.452174832,-18.60205179
3.0450,17.07435362,-7.855549431,-34.85922617
3.0500,14.65680242,-8.795368326,-32.65636678
3.0550,15.11336227,5.927116452,-33.16408615
3.0600,18.12886532,8.794382942,-29.10394872
3.0650,25.93347474,-5.466873235,-16.13766079
3.0700,44.3235252,-4.273060577,-11.46494489
3.0750,36.90781336,2.975198983,-11.34748863
3.0800,26.35282158,11.15617332,-12.85843018
3.0850,22.6077607,13.42383577,-3.579533942
3.0900,35.376586,6.162882481,-8.94090888
3.0950,32.86201796,0.352087281,-10.52108782
3.1000,30.65833523,16.65412299,-31.91628737
3.1050,19.59925484,7.494207047,-17.93453869
3.1100,13.79670275,1.429552058,-24.30812163
3.1150,20.60270507,-3.421257959,-20.10668818
3.1200,29.71776791,-16.23754449,-23.96206018
3.1250,38.25173841,-2.187765998,-28.85906331
3.1300,32.49321057,-10.96701613,-17.0113598
3.1350,25.80179429,-18.90369051,-13.89103579
3.1400,30.37471135,-5.150191829,-18.23893613
3.1450,20.53966627,-6.688192072,-33.40081322
3.1500,20.10025267,-1.896054109,-26.46216234
3.1550,20.79476345,-17.87629344,-24.85907298
3.1600,38.46977199,-12.70555772,-7.783585613
3.1650,38.8737153,-13.93023455,-15.42667985
3.1700,44.55955805,-11.52925145,-25.47876181
3.1750,38.81670287,-17.94454761,-13.82154999
3.1800,37.67770485,-14.7643691,-14.93781635
3.1850,28.7824376,-0.4664575755,-12.7569647
3.1900,20.76606843,4.434306673,-20.07526805
3.1950,15.47228536,9.142233254,-35.03624343
3.2000,15.08736133,-4.970363143,-28.24883483
3.2050,17.56068394,-15.72685434,-13.48344825
3.2100,19.72127814,-10.30845218,-13.78730346
3.2150,22.20789241,-2.74780834,-15.91135705
3.2200,23.1729788,-3.96153472,-13.29644257
3.2250,29.6339228,-26.43931575,7.908864134
3.2300,45.89214013,-23.63069116,9.918648139
3.2350,41.88884758,-14.28479996,2.063587365
3.2400,34.93708524,8.868125502,-12.92081486
3.2450,12.55689892,-4.047032421,-22.47325877
3.2500,14.66346732,-0.7260978724,-23.68289938
3.2550,15.1225707,-14.66835068,-9.974232269
3.2600,16.95500474,-13.25102906,-8.19803626
3.2650,11.64394967,5.531819887,-13.13503504
3.2700,10.79307627,-4.807476455,-8.003017015
3.2750,16.38228751,-3.480250146,-8.308891243
3.2800,22.20663906,-13.42244653,-2.784195544
3.2850,35.91870974,-1.86130244,10.2991193
3.2900,39.42679575,0.1976588839,-1.779959387
3.2950,31.81464401,7.690721478,-16.62428416
3.3000,31.20852992,-9.27681954,-9.211418984
3.3050,21.70965891,0.07320159032,-13.93464362
3.3100,14.87166081,9.278648642,-20.9997151
3.3150,12.47444623,2.706564011,-21.35212996
3.3200,19.92149539,-1.262754989,-21.63950487
3.3250,17.68264658,-9.083801962,-25.84177226
3.3300,26.69087579,-6.606648004,-10.9193567
3.3350,33.27499675,-14.79468593,-5.775692089
3.3400,32.41603874,-32.84032307,-0.3468249955
3.3450,29.741193,-32.23146005,-0.2499353549
3.3500,23.59648856,-20.27951368,-12.87768722
3.3550,18.08390835,-11.01153741,-6.85348958
3.3600,13.75276183,-9.544656526,-8.316216834
3.3650,11.52220556,-5.91909251,-24.06927065
3.3700,25.32333736,-7.183632052,-8.500601514
3.3750,20.34033428,-14.35950952,-9.182790721
3.3800,26.2035375,-15.23861766,-5.670519448
3.3850,19.29808112,-4.624901178,-27.395195
3.3900,9.190658248,-1.902415401,-24.12737567
3.3950,2.072482201,-14.67128063,-14.30246997
3.4000,-0.7851203377,0.8413160306,-27.04922694
3.4050,-7.304785583,2.770488025,-37.99113647
3.4100,3.664996233,-3.36196084,-11.04418542
3.4150,1.596367069,-7.114036417,-27.5374101
3.4200,14.60848533,-12.79826061,-8.723291681
3.4250,18.9323872,-14.12670524,-13.54067842
3.4300,12.26822471,-16.85777107,-22.98731542
3.4350,6.819702008,-0.2169568317,-17.06731801
3.4400,3.887375648,-6.819767737,-19.56814619
3.4450,2.811855986,-0.8427198809,-19.77847855
3.4500,4.308695019,-12.06305707,-23.45827788
3.4550,25.51603966,-1.758456097,-18.3462485
3.4600,33.8118469,-18.04062757,-11.39411031
3.4650,42.6487335,-19.45468598,-9.65650937
3.4700,42.69918943,-21.74226974,-3.355518074
3.4750,28.66932708,-25.47228989,-11.56965303
3.4800,40.92040821,-16.79758504,-3.80342153
3.4850,28.01323924,-26.52945451,-13.95490674
3.4900,26.25598529,-7.877536416,-21.81722984
3.4950,-5.270534679,-20.47976343,-23.98681094
3.5000,12.43022614,-22.44141722,-34.12765014
3.5050,21.31863605,-17.63813698,-22.50643863
3.5100,18.82855251,-20.40206336,-29.65649589
3.5150,23.85151062,-5.216756717,-18.13114788
3.5200,14.48020347,-17.87405438,-19.84613619
3.5250,25.10675926,-21.89759401,-5.649679
3.5300,29.6418606,-8.21529865,-16.93502266
3.5350,15.51933161,-13.55555226,-23.25281441
3.5400,15.28486352,-4.449043203,-14.3443279
3.5450,6.328686927,-9.500710053,-13.00561835
3.5500,19.0253211,-4.789668497,-4.56581601
3.5550,13.73483333,-15.42840288,-2.323541083
3.5600,18.46422507,-11.83945839,-6.643894125
3.5650,26.08713432,-5.571153908,0.8597769787
3.5700,20.07365301,-8.560897796,-7.105380649
3.5750,10.24922796,-8.54209991,-12.96588992
3.5800,10.89730912,-2.410508434,-7.802581892
3.5850,-3.807708118,-1.299267829,-11.11363683
3.5900,-1.074173482,5.733961303,-12.99983992
3.5950,0.6312261728,5.127259074,-6.093462715
3.6000,3.65828849,-22.7472196,2.576320653
3.6050,24.46758012,-16.28025765,5.040381267
3.6100,33.97667274,-17.13239663,6.356176562
3.6150,20.29753457,-14.01341488,-11.38090346
3.6200,3.792971961,3.056125012,-15.21449293
3.6250,-12.50372825,-6.451721615,-11.93243688
3.6300,-14.03071703,2.100036086,-12.38121463
3.6350,-10.47908341,-11.15431158,-11.14926443
3.6400,-5.796811307,-11.70834758,-12.49851265
3.6450,-4.86280487,-10.80561167,-7.009625532
3.6500,-3.091444887,-20.25977756,-2.821691991
3.6550,-6.620050778,-26.61253983,-11.17758342
3.6600,-5.143253363,-23.91556493,-2.694051747
3.6650,-13.8584121,-18.6942126,-11.17782475
3.6700,-20.08690249,-16.60965468,-14.75351072
3.6750,-14.40241541,-19.11150569,-11.45136422
3.6800,0.607642807,-31.62153195,-3.666748416
3.6850,6.246305376,-24.85458983,3.352187587
3.6900,-0.07726439082,-19.11745076,5.655515128
3.6950,4.950336194,-22.00086792,-9.051276337
3.7000,11.44690007,-7.701872213,-5.257525975
3.7050,-6.539290569,-15.75328107,-1.273756782
3.7100,-11.76539045,-13.89765882,-3.843864758
3.7150,-10.04115057,-15.96096015,0.8061976497
3.7200,-12.45273058,-20.33396061,-4.900138668
3.7250,3.126558464,-11.32857928,0.4931325908
3.7300,9.437997196,-20.07885793,-8.005066438
3.7350,24.50758556,-11.31176293,-1.917039242
3.7400,23.40265394,-25.00688401,0.07163769213
3.7450,27.2336345,-17.68149681,5.611401779
3.7500,9.869116379,-8.149530935,-5.364272581
3.7550,-1.200036252,-15.30972842,-0.9355312249
3.7600,12.57084165,-13.43666081,-5.185107042
3.7650,24.69404039,-19.30848254,5.969779977
3.7700,15.35754505,-9.128909386,-10.57648277
3.7750,3.25996554,-3.377967352,6.482281829
3.7800,11.37494321,5.232877414,0.5903229136
3.7850,24.27302873,-9.146469228,-8.282640526
3.7900,35.19743073,-5.201321918,-13.21942708
3.7950,36.14312686,-14.86971917,-14.65503382
3.8000,41.41123934,-8.396103254,-0.7508770818
3.8050,34.3157338,-5.148590972,-9.034107437
3.8100,34.06497859,-14.03379122,-14.55144207
3.8150,41.97282637,-0.9001476347,-13.04100708
3.8200,34.04899362,-12.9163292,-29.83926205
3.8250,47.34482154,-17.67155352,-9.845019677
3.8300,44.95200988,-13.68314503,-0.5707763562
3.8350,33.22468763,-9.553792661,6.857859876
3.8400,35.81040267,-6.218304431,21.10398458
3.8450,27.2536595,-21.34770837,14.44083597
3.8500,41.34656272,-4.232254945,14.66553761
3.8550,31.32570067,-11.953494,-9.236334739
3.8600,39.60213214,6.051541223,-4.80382911
3.8650,13.37287295,5.245132754,-7.567845783
3.8700,12.05787064,21.17389255,-5.917925772
3.8750,-1.48443778,12.24751554,-10.18144898
3.8800,8.01101912,-5.679383191,-5.233088288
3.8850,2.095361538,11.63754371,-5.564490626
3.8900,2.318595995,9.377275433,-16.01034375
3.8950,18.40691016,-15.12290463,-6.135970736
3.9000,39.39856233,-29.74144604,-4.060606868
3.9050,31.54133592,-18.30919433,-11.89629505
3.9100,-12.22094405,6.84343652,-23.62316899
3.9150,-28.31207176,7.738887989,-25.24217545
3.9200,-17.29308611,-5.944667436,-17.1842703
3.9250,-5.555388796,8.887812813,-12.54062587
3.9300,7.337820845,-14.33055999,-20.39453579
3.9350,16.16481494,-12.21099034,-7.123736534
3.9400,16.91192995,-22.03726316,-17.7443237
3.9450,18.48726883,-4.153751158,-23.38389948
3.9500,-9.92984432,-14.99996477,-35.00840303
3.9550,-9.131895434,-15.47024903,-15.28301867
3.9600,-13.42370857,-35.23718998,-17.24129953
3.9650,-1.884091152,-33.05621566,-16.06409827
3.9700,16.89011423,-36.76493711,-23.27879824
3.9750,33.85105225,-15.86286546,-26.54567402
3.9800,32.09559636,-28.05567475,-23.78486297
3.9850,42.16753094,-30.8326859,-18.92026554
3.9900,42.09082997,-23.18162137,-24.63571495
3.9950,8.303924239,-17.11692277,-28.27088497
4.0000,0.4089107655,-19.31301464,-24.63735153
4.0050,-4.541577506,-27.11481739,-14.83370413
4.0100,4.785142321,-29.84234576,-17.31962019
4.0150,2.513195086,-33.5864993,-13.13586472
4.0200,15.72131219,-27.29372641,-13.93396203
4.0250,25.41603986,-38.61764069,-19.49629212
4.0300,29.63670829,-53.71318462,-18.83166395
4.0350,26.49424309,-60.35582837,-12.58801359
4.0400,10.85876229,-24.09115133,-19.58558336
4.0450,-3.56011618,-16.23935461,-17.47405139
4.0500,5.690942972,-29.55494552,-11.20437233
4.0550,35.61342299,-32.35604744,-12.75191529
4.0600,40.67613295,-28.17922626,-13.56953974
4.0650,41.08758901,-15.28886769,-14.07082325
4.0700,44.71164252,-17.93140064,-19.3918735
4.0750,41.96920587,-15.82936361,-14.39221611
4.0800,26.37199571,-10.31510322,-14.14387348
4.0850,5.661074133,-6.954900991,-18.33805777
4.0900,20.5284858,-2.510770446,-2.903384626
4.0950,31.93194831,-13.66258466,-0.1809348363
4.1000,32.29843868,14.35756849,-3.51726456
4.1050,12.05268166,22.54712268,-7.060726474
4.1100,17.35509255,26.66117471,-0.737785341
4.1150,36.99266458,28.00538948,-0.5598832103
4.1200,43.60836613,9.978067011,-8.268308653
4.1250,37.18516019,11.81900809,5.461262418
4.1300,28.19592756,15.92461329,-3.873239197
4.1350,26.73153174,35.80377326,-2.512973795
4.1400,14.52932971,16.65030801,-3.336179853
4.1450,28.20165408,2.842602469,9.717248909
4.1500,25.81564085,49.12614508,3.437841461
4.1550,10.45871638,43.57298706,-6.052826137
4.1600,23.31197767,50.36257022,-12.74575645
4.1650,44.61837265,22.98755367,3.026387837
4.1700,42.21749946,33.74185498,6.555782189
4.1750,7.208644842,34.99633594,8.130412049
4.1800,8.010377979,41.75797668,6.66425953
4.1850,2.561324411,20.11305707,-11.70696031
4.1900,25.7237176,18.68397459,-12.08232644
4.1950,37.18349921,18.39987824,-14.61203513
4.2000,41.42940297,10.45205718,-17.47733031
4.2050,43.12819291,-1.62002205,-8.708076707
4.2100,37.14585016,6.536024101,-15.60120859
4.2150,23.95296347,25.98544975,-11.62402166
4.2200,12.6584096,27.12651909,-21.78319394
4.2250,18.93766253,31.34095552,-12.00793763
4.2300,18.3117805,27.55423878,-16.59597497
4.2350,21.33955124,21.69752596,-10.89687735
4.2400,21.53470654,20.62739296,-10.44816745
4.2450,12.56818883,31.51045905,-24.12708575
4.2500,14.25678259,31.80234497,-35.76056255
4.2550,24.93640781,27.55811909,-41.66628466
4.2600,26.06911991,3.207115491,-37.87188416
4.2650,28.48823981,0.2135375539,-26.41582139
4.2700,4.829738884,-12.76166182,-15.27870121
4.2750,-2.916635794,-5.366592141,-18.82163597
4.2800,3.600119208,-21.86301564,-26.60489283
4.2850,14.27531786,-29.48534997,-24.63601421
4.2900,19.47636775,-28.34046348,-25.68028655
4.2950,16.23346546,-13.20886255,-28.48890719
4.3000,6.956172204,-25.97619232,-26.52809788
4.3050,0.5405010508,-25.22809199,-30.31851948
4.3100,5.710801093,-4.276106558,-15.58170512
4.3150,-16.72058042,-4.061113258,-21.71353457
4.3200,-9.899842093,12.61559863,-10.98402088
4.3250,-4.517801877,3.814071135,-18.32352486
4.3300,17.68571356,-1.152642495,-15.19899481
4.3350,23.67791967,-10.3624937,-14.24588134
4.3400,27.25949109,-0.6298814367,-20.91188005
4.3450,16.82254794,6.73003473,-28.61209261
4.3500,1.016488969,3.628460602,-35.4935535
4.3550,0.9006587248,-3.316135715,-14.13869606
4.3600,-10.26658257,-10.69345204,-21.2616658
4.3650,-0.9254263608,-0.512711586,-16.81974886
4.3700,8.860512465,5.084709652,-19.19898446
4.3750,-8.280359384,-2.756897728,-17.2820288
4.3800,-4.265438958,-16.48985318,-8.941067484
4.3850,0.739431799,-15.69902558,-9.825460395
4.3900,9.13662165,5.974268024,-11.26517158
4.3950,-7.020530195,6.684696586,-18.12882755
4.4000,-9.73843382,30.7765883,-17.27816584
4.4050,-12.30422605,21.85813348,2.918521803
4.4100,-7.861845841,30.61773546,-6.117120246
4.4150,7.855577805,41.17051347,5.136859469
4.4200,-3.066391032,35.88258533,0.1704719468
4.4250,-2.854213453,46.9546888,0.8164255257
4.4300,1.54253374,48.98624573,-3.58148235
4.4350,10.27751045,26.10410409,-6.362068826
4.4400,18.46474359,17.94592747,-9.796303938
4.4450,17.12794303,14.65708221,-1.783236047
4.4500,15.59168465,13.03888524,4.765038926
4.4550,23.5358945,7.689147952,0.08125385475
4.4600,35.87950698,6.097195673,-0.06132525999
4.4650,37.25020412,7.252846003,1.998268708
4.4700,29.97164192,18.0148507,0.09405906938
4.4750,18.50883124,12.39487095,4.182146311
4.4800,18.19473577,17.88852644,18.18411476
4.4850,2.922153738,32.46644278,6.414949069
4.4900,3.093903083,29.81127255,-1.793404482
4.4950,-6.259140547,13.89251981,-13.47704453
4.5000,-2.1650993,16.65041138,-18.15703436
4.5050,-5.572346245,-7.325029335,-1.827035923
4.5100,-0.3823015073,-2.592557833,-5.473669794
4.5150,14.10529344,-25.12499884,-0.301312958
4.5200,28.16561815,-36.81564832,-2.30820445
4.5250,26.92074766,-20.62142791,-11.44983668
4.5300,26.82832632,-10.38586879,-1.029939841
4.5350,3.882515143,-6.634228339,-4.369965242
4.5400,-3.747248222,-3.759313552,5.302536202
4.5450,-14.60610938,7.912246388,-9.858492472
4.5500,-6.056209597,8.517085035,-18.15747398
4.5550,-7.522858561,0.4639777489,-29.00233883
4.5600,9.839238883,-8.831346598,-22.21989703
4.5650,17.50424513,-0.9176035472,-23.21568199
4.5700,9.079638932,-6.292136615,-35.20552842
4.5750,-8.488365012,-7.734946586,-24.44915097
4.5800,-19.22104539,-5.296686082,-29.8724279
4.5850,-22.66335354,-13.42827182,-25.9045592
4.5900,-6.627877447,-4.2700382,-24.37663886
4.5950,-15.57376902,-15.34579696,-31.12683339
4.6000,-15.81475001,-7.649203039,-26.11933574
4.6050,-15.86840528,4.259715624,-16.74864683
4.6100,-15.72302697,9.012430338,-28.26186363
4.6150,-4.789942337,-1.481832823,-18.42308414
4.6200,6.350906947,-11.65227195,-19.31845938
4.6250,20.16553588,4.329562229,-21.88761071
4.6300,24.18448451,-1.793037628,-28.33315611
4.6350,26.1195566,-2.216579917,-27.16324642
4.6400,30.95308895,8.315924251,-38.30935729
4.6450,27.37464006,2.176740129,-44.98652738
4.6500,21.07577941,10.54197095,-40.02766119
4.6550,1.050262454,11.26588823,-41.02245805
4.6600,-9.368532584,3.97472959,-37.80879666
4.6650,-4.733821114,-6.665684306,-38.56273082
4.6700,13.86805278,0.3112378643,-38.48284915
4.6750,16.62101945,4.310755759,-42.58177222
4.6800,15.2929781,-16.86917441,-33.83877932
4.6850,24.84728994,-12.89336622,-22.40725348
4.6900,28.73071552,-13.38486512,-19.49193466
4.6950,30.84872103,-2.873740464,-23.77949356
4.7000,25.6214083,-6.870548395,-34.08988151
4.7050,29.96687731,10.24903364,-28.05242332
4.7100,15.27496722,15.71129857,-21.96070854
4.7150,2.998942212,26.54621291,-27.12322166
4.7200,-5.557691598,22.20999665,-23.54828952
4.7250,0.08258055998,23.63881981,-26.14789943
4.7300,-5.329293342,22.01587149,-33.97112866
4.7350,-7.252923893,22.52781026,-29.64279347
4.7400,-1.865990819,17.58473423,-28.77061448
4.7450,18.51707403,4.437865554,-17.44220157
4.7500,42.63723601,-23.31036149,-14.87373546
4.7550,75.43855822,-21.05330724,-0.02894137134
4.7600,69.74567488,-15.08400573,-3.673067813
4.7650,57.90382298,-4.435707842,-13.18122707
4.7700,44.57729839,2.076148474,-9.216548656
4.7750,28.23796591,-4.271929458,-19.10713633
4.7800,35.59043959,-5.103420015,-22.23427136
4.7850,30.6766953,-11.76518418,-27.07693108
4.7900,21.97375178,0.4525076337,-37.24309966
4.7950,1.779963837,-4.185004928,-46.1450775
4.8000,0.388750411,5.516667273,-39.56422108
4.8050,-9.966584058,5.218721984,-42.32384612
4.8100,1.782139166,-11.11920318,-28.28545757
4.8150,-0.2948391871,-9.227222005,-21.91299104
4.8200,8.619495426,3.405894018,-39.29950854
4.8250,-2.570499655,7.944023221,-32.93404128
4.8300,-17.98855995,-3.967748616,-26.9021737
4.8350,-25.22755906,1.923954418,-21.35011971
4.8400,-16.23452839,-7.31345331,-15.06951755
4.8450,9.680073345,-10.81911381,-24.47894633
4.8500,27.33747902,-9.216786631,-35.97796314
4.8550,31.43255685,-8.038917748,-32.39509204
4.8600,29.95404012,5.180443607,-29.76843132
4.8650,22.64518812,10.00732044,-18.32683757
4.8700,20.17145345,18.71428568,-10.70441728
4.8750,9.154356264,16.4701641,-23.81541314
4.8800,17.81299636,11.37928367,-22.34874864
4.8850,21.73612943,5.396354611,-27.92655038
4.8900,25.06892938,1.812221878,-26.11887773
4.8950,2.834176365,5.794030077,-25.71462962
4.9000,0.2323338466,17.76737645,-34.71456071
4.9050,0.1675776983,-3.248669619,-29.11997315
4.9100,14.01009326,-2.076303622,-29.96018058
4.9150,30.18654852,-6.235232467,-27.93393958
4.9200,35.79423774,-19.92909789,-28.08462941
4.9250,55.14946592,-15.55182417,9.436163917
4.9300,50.74954796,2.875916004,-17.54150341
4.9350,30.05984636,17.28393842,-19.46802021
4.9400,6.899465501,9.692038316,-21.37737494
4.9450,-8.132640339,6.786673877,-18.80160374
4.9500,-7.419998711,16.2395715,-20.27758069
4.9550,-6.071678269,1.120747406,-26.01216995
4.9600,8.580663329,3.978356625,-41.86504893
4.9650,9.984470154,5.693545315,-31.92914258
4.9700,2.705311615,0.3308372028,-32.47962431
4.9750,2.86703915,-5.810471398,-21.00815877
4.9800,18.25771948,-16.34684614,3.498282844
4.9850,42.48875515,-6.158727947,4.898822348
4.9900,47.26755553,1.922133482,-13.11588682
4.9950,43.80097559,-11.7849507,-5.2000069
5.0000,55.7926513,-2.36969615,-2.976396458
5.0050,50.1415912,-10.91663716,-4.869884319
5.0100,48.73686726,-17.82867391,-12.03071349
5.0150,40.16033623,-22.05674122,-18.35299734
5.0200,38.37156813,3.247478457,-25.12179321
5.0250,8.557575859,-2.396360547,-47.10544104
5.0300,-3.526365558,6.28051222,-37.62461006
5.0350,-5.457301871,-2.32817508,-37.44960399
5.0400,12.52181012,-3.801147767,-32.05575936
5.0450,21.23538543,-22.58909201,-26.94852365
5.0500,43.48943303,-24.34114031,-20.00990971
5.0550,45.89522992,-24.15185036,-18.03609885
5.0600,40.43854346,-2.719873701,-17.71705619
5.0650,17.03787835,11.80363454,-36.46877297
5.0700,1.356869472,0.3760263658,-50.42569452
5.0750,12.42453679,-10.49607483,-14.48083764
5.0800,32.22224424,-41.63847739,-4.749222271
5.0850,58.06139869,-19.84007941,-0.1279824601
5.0900,59.30059297,-6.722340692,-18.30414898
5.0950,48.90462686,-11.88894487,-34.1444139
5.1000,56.40941876,-18.05441031,-13.64329796
5.1050,56.66907732,-33.73640942,-18.88831191
5.1100,64.34298748,-18.4977716,-6.472272641
5.1150,45.12567724,-21.85415422,-25.85347558
5.1200,31.09575554,-19.33221726,-30.03574572
5.1250,25.20936746,-14.95424046,-34.15963074
5.1300,21.6951883,-24.3338747,-37.79571227
5.1350,31.65053784,-20.03418417,-30.97638126
5.1400,39.49704815,-16.14783139,-26.4992895
5.1450,37.91527427,-15.80387277,-44.78136427
5.1500,39.6757958,-13.75264834,-37.04275037
5.1550,26.73388232,-18.35478983,-28.70828217
5.1600,35.60136569,-16.54638175,-19.29643004
5.1650,29.95444566,-4.091654002,-43.55905952
5.1700,25.72428626,7.595981173,-49.06321347
5.1750,7.402285098,12.61749514,-49.92018585
5.1800,4.605120819,6.7451235,-41.23079821
5.1850,15.56409403,0.4581013477,-34.54398152
5.1900,36.84212945,-7.482129315,-20.11623295
5.1950,45.1531282,-11.69132203,-33.00988787
5.2000,44.14402826,-7.62787754,-27.84140744
5.2050,25.44017716,-6.804454205,-21.93813385
5.2100,23.89621731,-11.05612836,-11.87735441
5.2150,36.58657661,2.026955754,-18.55221377
5.2200,45.77312694,-8.765128915,-34.28584836
5.2250,41.73763219,-25.1992169,-22.77805327
5.2300,46.1760108,-24.02225343,-35.15904192
5.2350,31.01570869,-25.98190532,-30.55932043
5.2400,38.98365207,-8.460644672,-32.86205758
5.2450,21.86859893,-17.08577707,-32.33610958
5.2500,27.04335201,-7.645135573,-57.32194041
5.2550,24.84844882,3.339809839,-67.08970298
5.2600,14.61038699,7.783171194,-71.63523832
5.2650,11.91864745,21.71780013,-63.70980002
5.2700,2.631003789,11.35637259,-46.32833697
5.2750,11.04787322,-3.806602855,-29.70796251
5.2800,39.10714373,-9.541466426,-28.12188997
5.2850,49.82946475,-14.89590784,-31.7205551
5.2900,41.56643312,-5.461341869,-33.88349161
5.2950,25.18842195,17.4974558,-65.30816541
5.3000,2.7592357,20.61118405,-57.58528036
5.3050,17.27307675,10.88691937,-57.2584499
5.3100,35.27112334,-22.79949836,-25.5159085
5.3150,50.37684892,-47.11256078,-5.137176164
5.3200,58.29391153,-49.6668222,-20.49497039
5.3250,59.66793998,-15.98225743,-62.52520117
5.3300,38.26382684,18.94550307,-93.36156771
5.3350,6.974745594,6.296132634,-110.64068
5.3400,3.010877339,-10.86893899,-69.66243515
5.3450,19.6166779,-30.51437716,-17.6447997
5.3500,49.7860269,-33.37781548,8.083219686
5.3550,68.23783264,-15.45094064,-8.652170094
5.3600,50.7108833,-9.091489495,-33.8170903
5.3650,20.77178052,-12.90681951,-61.16649297
5.3700,23.91685295,-11.44011945,-65.00007113
5.3750,30.14836643,-19.80640855,-57.13607538
5.3800,43.39078719,-24.6881296,-49.5888387
5.3850,40.61902882,-23.25502664,-52.49560903
5.3900,24.48881741,-23.39073125,-58.39320975
5.3950,17.19028429,-18.18099837,-59.97107033
5.4000,21.15376269,-15.5923347,-41.03384835
5.4050,43.11834702,-8.282988021,-35.86456453
5.4100,52.36176193,-5.954211456,-41.08169061
5.4150,44.01643031,-5.265216377,-30.19028017
5.4200,38.73833095,-9.408975531,0.6309505012
5.4250,39.03515706,-39.54635983,15.70732645
5.4300,60.3043037,-39.49258903,29.62356956
5.4350,83.01647517,-32.88632345,6.742608566
5.4400,69.79461757,-30.10380151,-31.71559192
5.4450,39.79086971,-11.92699904,-48.77843979
5.4500,21.876549,-9.91871655,-45.82471885
5.4550,32.39955214,-15.06939688,-38.15203887
5.4600,48.89918022,-37.92398949,-33.18247129
5.4650,54.02403503,-58.3358074,-5.104094098
5.4700,50.60585297,-72.79943212,18.33999363
5.4750,50.10596239,-63.73274432,25.69785461
5.4800,53.4381684,-48.70395262,14.13551657
5.4850,44.90169815,-53.28172338,-10.05492628
5.4900,30.19114892,-37.66181755,-20.94207797
5.4950,28.12389199,-16.20405814,-32.45136591
5.5000,23.66756703,-18.94589563,-22.40703631
5.5050,31.86403149,-30.33851946,-18.44453786
5.5100,32.10894051,-27.61980866,-34.92620966
5.5150,22.38832521,-13.51435354,-41.6392788
5.5200,10.36089369,-15.05829039,-34.60083154
5.5250,11.6083413,-15.70427449,-6.695466294
5.5300,26.159478,-24.55450843,19.41676348
5.5350,42.34710551,-33.52451771,15.76378676
5.5400,46.31323592,-30.25594657,3.861245843
5.5450,37.89609178,-32.21100678,-16.16614469
5.5500,26.70870183,-16.35210624,-20.6366517
5.5550,26.60212461,-15.01871592,-21.11948334
5.5600,43.2083487,12.07463685,7.911367374
5.5650,34.77499035,-5.401326771,38.69157206
5.5700,35.37936412,10.3034263,50.25956742
5.5750,23.14824241,9.069773358,30.00872412
5.5800,19.56171344,19.69831725,-1.535101941
5.5850,14.25668575,27.21546424,-19.23221709
5.5900,11.67130521,3.259753369,-29.6244464
5.5950,12.26743255,-4.87599744,-24.25032868
5.6000,3.076402644,9.937013117,-9.638128632
5.6050,21.52994454,38.32547934,-28.7488177
5.6100,26.96956764,33.78932293,-39.79749459
5.6150,24.70502107,21.99702842,-22.61124287
5.6200,38.83269059,28.86866477,40.56910806
5.6250,45.6381556,40.32906298,89.44018421
5.6300,70.58250504,42.90187115,80.50026963
5.6350,55.28925247,43.76805797,82.32147372
5.6400,49.77369365,33.66731483,68.74323071
5.6450,30.52097897,25.397736,52.5388365
5.6500,27.83786607,18.70997386,25.12754326
5.6550,29.43893685,7.967665034,-9.716902525
5.6600,32.57344451,6.231488452,-34.69317969
5.6650,25.91637593,-7.74991226,-48.28373374
5.6700,16.35893469,-6.02639935,-23.11806789
5.6750,34.42729286,-13.75181625,-27.10986464
5.6800,44.84770564,-11.56677065,-24.1960014
5.6850,53.66524952,-6.439813089,-16.20311049
5.6900,43.98089034,-21.52543329,-1.807598114
5.6950,35.18169022,-24.1044483,23.7393118
5.7000,42.74681686,-12.78026759,38.11403868
5.7050,48.90589654,1.876674982,40.86621527
5.7100,47.06023414,-0.8320685826,15.88132883
5.7150,45.67755053,-6.336467909,-8.412768017
5.7200,33.8196663,-13.00543509,-13.765396
5.7250,42.47592189,-14.74184487,-7.470845367
5.7300,50.32120631,-19.60371157,9.509314401
5.7350,67.84279236,-30.12558453,-4.448106444
5.7400,58.08689412,-38.21897802,-11.83220553
5.7450,48.3838689,-31.99710033,-18.51048197
5.7500,52.19266801,-25.09769463,-2.525367037
5.7550,35.76403505,-42.38705634,11.43927627
5.7600,36.34712665,-47.04237298,20.51679738
5.7650,56.68107456,-42.34724433,14.00077343
5.7700,47.95552336,-42.40981984,0.4581807118
5.7750,45.13534778,-39.21726579,-12.60964346
5.7800,37.47694547,-41.45459122,8.04184892
5.7850,43.81282276,-19.10219812,39.04027598
5.7900,77.05855076,-20.0552652,33.13702626
5.7950,84.97086,-6.294699764,5.751370852
5.8000,59.23032005,-3.34947623,-5.553963427
5.8050,43.08894774,-12.329945,2.958922692
5.8100,38.48982832,-11.4348636,36.16777012
5.8150,44.47989583,-14.05203487,49.48561269
5.8200,60.66409386,-18.42196457,41.1985988
5.8250,54.68283363,-29.52361562,30.1137735
5.8300,39.44390686,-27.15584175,44.40783985
5.8350,19.38917387,-22.50312446,56.84833136
5.8400,28.59180378,-3.040614637,54.92228012
5.8450,35.83799704,8.903374339,24.38921902
5.8500,53.11515758,3.399417968,-0.5912768961
5.8550,48.54122742,-15.02384146,3.934801612
5.8600,32.78760822,-0.9542050016,42.27944101
5.8650,32.45949399,-6.103336198,63.94619544
5.8700,26.75441537,-2.249380673,90.21782699
5.8750,39.58518873,-3.447151017,93.77569323
5.8800,49.74480604,8.311327191,89.32255886
5.8850,51.34006661,7.447409773,65.88900372
5.8900,49.47958437,-7.192054539,34.95854966
5.8950,38.49318044,-16.89219783,19.08278452
5.9000,46.82509652,-31.63469955,6.101488917
5.9050,52.25347725,-31.10458586,4.093825875
5.9100,39.55634137,-37.57916567,12.49541123
5.9150,50.92006131,-34.20648195,21.0299649
5.9200,33.12389502,-32.27427921,38.4323541
5.9250,21.55572633,-20.31833369,51.95110846
5.9300,-2.807140925,-0.9969465726,67.22641925
5.9350,0.3685043393,6.641752139,64.70164992
5.9400,-1.383191521,-1.367823403,72.43527909
5.9450,7.686737967,5.486649161,79.11723965
5.9500,22.39896273,10.54064158,65.01401376
5.9550,34.0995504,14.22470042,37.71061721
5.9600,24.2918815,-4.054434398,26.91490735
5.9650,28.92514164,3.988734223,30.61298535
5.9700,30.76861114,7.874918323,36.77438781
5.9750,37.01628864,10.68441726,34.72720288
5.9800,44.04232632,13.21030067,47.92598984
5.9850,52.07154606,12.20307358,56.33233294
5.9900,28.63091142,12.3692636,64.36320175
5.9950,28.94426512,4.402806653,67.479954
6.0000,12.21951944,-0.4991136613,77.24080808
6.0050,-6.63527212,-10.92819483,72.55102159
6.0100,23.27960598,6.063013659,63.85736216
6.0150,34.21442058,3.390262253,46.13364174
6.0200,54.46930292,-8.709752351,39.57058749
6.0250,39.39194248,-6.211108415,48.76751838
6.0300,26.70072826,-6.510636275,59.29823175
6.0350,4.367645212,4.935347052,68.16373491
6.0400,14.80151528,1.322490475,71.26633468
6.0450,13.48765229,9.89215153,64.89120608
6.0500,10.67958261,15.25940252,59.49166525
6.0550,7.944425414,17.11157747,47.52160938
6.0600,8.762498079,22.54501189,46.64758347
6.0650,-5.239486627,33.45066479,58.37713786
6.0700,-14.5016844,31.89600828,70.96017274
6.0750,-16.73169747,40.03820999,67.9122957
6.0800,-8.227860552,38.13727405,59.14997455
6.0850,9.591334961,26.01143792,52.75354663
6.0900,17.74437219,29.6889012,45.77389568
6.0950,17.92403254,14.3262431,39.83807383
6.1000,18.68928838,8.18080804,43.63012793
6.1050,13.8223228,0.9893241664,40.04290745
6.1100,8.041994454,7.850431189,43.12032643
6.1150,16.26366902,4.834399167,39.43822859
6.1200,16.58604927,7.949790819,38.02783854
6.1250,30.16828093,7.645137829,43.53797142
6.1300,22.46920113,10.20747454,54.50476611
6.1350,8.70853993,-4.677898944,53.35554171
6.1400,8.53485629,-4.005270053,53.35034246
6.1450,6.502776272,-3.721403487,41.21514996
6.1500,25.4237208,-8.357661399,38.85435983
6.1550,45.48766371,-14.52606846,36.22179275
6.1600,43.54778908,-24.55778282,28.43685345
6.1650,45.47116811,-32.01405215,25.4579362
6.1700,60.49114742,-29.87417165,24.59162706
6.1750,49.57568396,-30.46134384,30.28172073
6.1800,57.4805853,-22.09523483,42.38741542
6.1850,45.11675863,-37.77618847,45.77498772
6.1900,61.95098978,-24.16837387,59.27287362
6.1950,31.17685029,-35.85952079,52.58813818
6.2000,11.32633108,-23.84762125,55.42447846
6.2050,4.458622326,-26.53927378,50.19926192
6.2100,1.727696047,-9.444781816,52.42160342
6.2150,13.89699341,-8.572366379,44.54621294
6.2200,27.74300808,-20.63374392,39.24077395
6.2250,24.48814333,-26.31286848,34.2271552
6.2300,39.21960438,-30.40877851,23.94650093
6.2350,28.14546376,-26.55679399,16.04890886
6.2400,31.17577952,-35.68468363,19.44991574
6.2450,28.61238736,-42.80994633,21.93082479
6.2500,24.08675619,-29.01604915,30.36892191
6.2550,10.90479323,-39.27900878,27.46675217
6.2600,13.34707144,-28.36419203,27.83021917
6.2650,19.9683988,-31.31949208,26.66533245
6.2700,26.35202282,-15.25567232,18.61147139
6.2750,34.35624518,-18.75699624,14.24132782
6.2800,28.96492831,-17.36164118,18.82428821
6.2850,19.45443983,-17.01147581,17.30357841
6.2900,11.26971262,-21.76181791,14.26511503
6.2950,18.13316056,-5.515966551,12.00494427
6.3000,-3.352958491,-21.73143646,16.11047308
6.3050,-6.280786281,-20.46772538,22.10859043
6.3100,-1.500196065,-10.82421121,21.6894163
6.3150,0.52106744,1.696693333,16.97037857
6.3200,15.76531274,-0.8891500224,20.69285319
6.3250,16.54206825,5.318073672,16.80764785
6.3300,23.39262352,-8.137227956,26.35755783
6.3350,8.917989722,-12.13644882,23.05976146
6.3400,9.373908871,0.4465339803,32.70002315
6.3450,3.363602835,7.298064709,35.22674325
6.3500,-3.540421206,8.542732883,32.57369809
6.3550,-5.309873961,4.58240762,27.26538398
6.3600,-3.742361203,10.25844955,24.18140041
6.3650,14.10373785,9.799609276,19.60864004
6.3700,13.71860465,6.18590973,12.30903219
6.3750,41.36774182,8.264407923,17.389362
6.3800,42.10033424,7.555738375,19.20876573
6.3850,39.30625139,5.342827028,17.99335448
6.3900,49.8784861,14.56965328,27.85021692
6.3950,27.98095155,12.53614186,23.42468522
6.4000,10.83899975,11.31988346,34.34759601
6.4050,2.594692354,14.86345652,39.74675721
6.4100,12.18796293,33.61486196,47.08445259
6.4150,25.05212867,31.29255333,30.74754598
6.4200,36.52772095,30.4606239,30.21094998
6.4250,38.52038221,21.51945197,28.1618386
6.4300,33.35820914,37.55921695,32.92719784
6.4350,27.79820452,25.68724893,30.99349852
6.4400,26.86969558,27.92171901,28.71007775
6.4450,24.753324,27.65242295,16.2380815
6.4500,38.16040519,12.18304299,16.17459485
6.4550,37.59859299,10.31631569,11.6779004
6.4600,51.38681608,8.588056328,13.50347345
6.4650,56.40908664,8.601213804,16.18091206
6.4700,53.8045734,3.977866145,16.02768253
6.4750,51.90320334,9.816047054,19.2747584
6.4800,37.44436921,10.67630075,28.40309973
6.4850,37.61770753,22.09787294,31.92966242
6.4900,42.75208044,30.37512308,36.30411494
6.4950,44.78261278,24.72002418,42.32715129
6.5000,33.43853114,26.72638417,44.89052535
6.5050,34.00244687,5.993448474,38.26506813
6.5100,23.21862737,18.9193928,26.21078477
6.5150,39.09279142,13.46575277,24.58970904
6.5200,30.21095507,-5.562774552,21.93510254
6.5250,34.22715294,-10.54719795,30.42590334
6.5300,42.07922383,-0.1230503629,28.55726688
6.5350,30.74719004,-9.790619229,15.08007961
6.5400,30.3415953,-15.01910098,9.810786265
6.5450,47.70032254,-18.64532883,19.13496717
6.5500,50.40634066,-18.11247856,20.801688
6.5550,44.11605221,-22.43562484,18.87423254
6.5600,33.57382677,-13.91478257,8.397849578
6.5650,44.93701263,-16.68752177,6.601749884
6.5700,48.22398271,-18.94397573,2.428645956
6.5750,39.21331178,-31.9380966,7.158539829
6.5800,27.27964649,-27.23724092,6.816764774
6.5850,32.05098576,-30.88486853,7.711537738
6.5900,39.52121164,-50.90462731,13.27432602
6.5950,36.15927629,-46.54275221,11.77909499
6.6000,35.48221483,-44.94135044,6.586447776
6.6050,38.29684943,-47.97563926,-2.607579163
6.6100,27.27114769,-42.16968274,0.8903325112
6.6150,28.56157493,-43.63419327,9.122452529
6.6200,6.485579269,-19.18867792,-0.639021619
6.6250,-8.112189789,-16.95812753,-4.192463079
6.6300,-12.75272732,-9.607237264,-5.945146689
6.6350,3.339439124,-28.12950923,-5.740141544
6.6400,9.203189461,-30.47853658,3.890276968
6.6450,17.42655997,-39.35451451,3.977519415
6.6500,15.76210947,-35.15799909,6.441047741
6.6550,6.492677544,-44.25511255,-2.699970407
6.6600,19.07091698,-36.63340784,9.827336934
6.6650,19.04933555,-37.07504651,12.51150338
6.6700,12.89982904,-40.59745514,15.71927007
6.6750,-5.982068326,-33.98475114,17.29922746
6.6800,-13.50207543,-27.24823458,13.77562049
6.6850,-11.00628766,-20.80827855,5.293762633
6.6900,-28.98328289,-31.38067672,5.385242683
6.6950,-28.99691937,-22.97566544,16.2231146
6.7000,-38.25721731,-13.82524279,16.79508205
6.7050,-36.7885743,-11.04647777,12.91442958
6.7100,-29.49666805,-3.831866772,10.25132744
6.7150,-21.34772935,-7.741468575,5.279929056
6.7200,-12.51885404,4.160140309,14.36678745
6.7250,-3.022152068,10.48191848,19.43944302
6.7300,-15.09645953,1.912317031,20.5852298
6.7350,-8.699679016,8.824380519,25.75327797
6.7400,-23.70067453,4.316830612,21.82541547
6.7450,-24.74414126,17.93313413,26.58425063
6.7500,-33.28119267,6.92065436,28.88603246
6.7550,-40.31638874,11.03298527,21.44270829
6.7600,-26.256656,15.70571753,17.25647271
6.7650,-15.37923354,7.154001672,17.59303766
6.7700,-19.85511836,3.195489547,14.06748775
6.7750,-14.46811697,4.743306711,6.52765435
6.7800,-7.654927047,14.31836431,2.436569209
6.7850,0.7452452418,2.550805009,0.2724014057
6.7900,13.54803963,6.976023632,0.2808203624
6.7950,18.66178412,8.90781096,-0.1325136858
6.8000,22.13075418,18.42364377,-2.098607198
6.8050,24.05345712,20.56895234,-5.177097832
6.8100,18.96075845,41.14718146,-9.038193275
6.8150,21.81967218,47.13609998,-2.783220431
6.8200,18.2211017,59.19461521,7.462859741
6.8250,12.02089095,73.05961242,14.35596114
6.8300,9.916289694,66.77851742,18.31374947
6.8350,15.99955736,49.63110785,9.0661006
6.8400,21.55775603,31.47709625,-2.868474386
6.8450,35.2529288,22.06935115,-0.4285792556
6.8500,38.06301644,12.17474955,3.758949971
6.8550,26.6047271,18.74248399,-6.44953526
6.8600,40.03763886,11.32351482,1.895024052
6.8650,46.00286114,1.407343757,4.964004525
6.8700,35.8124769,26.12215366,12.89677444
6.8750,7.519569525,36.16151919,11.35107398
6.8800,-2.110809312,48.043917,25.50884554
6.8850,-16.83999983,56.88585668,12.47525422
6.8900,-10.81952412,57.60281689,6.007857338
6.8950,-5.453898784,58.84936289,2.856624209
6.9000,6.047231191,50.18158531,3.565815334
6.9050,24.41830373,45.54096303,21.51007615
6.9100,9.970630073,44.69834189,24.35739594
6.9150,5.750209359,40.88617886,30.39281456
6.9200,-2.617497616,41.89500125,27.85307682
6.9250,-2.940349023,37.25464142,33.97718866
6.9300,-16.7753561,43.67756407,23.54338262
6.9350,-15.11660684,38.95167821,17.2981934
6.9400,-4.808697855,29.8217497,18.61669967
6.9450,1.012389994,36.89080621,13.20730633
6.9500,13.04325215,18.00488836,16.25308588
6.9550,14.22193926,19.99506814,7.037996385
6.9600,21.77056664,3.593887662,12.57757951
6.9650,5.889236293,7.250975042,2.831741927
6.9700,15.32453275,21.4759994,-2.451383039
6.9750,22.78770189,-1.420582738,-8.943554198
6.9800,13.85989765,-13.52261675,-10.83072407
6.9850,15.56616055,-15.13569848,4.87377608
6.9900,6.016746825,-4.930863678,6.470510729
6.9950,5.102329768,-1.086324375,12.15495797
7.0000,-3.644774123,-9.907259664,-7.636427464
7.0050,6.138279101,-15.7948582,-15.09186418
7.0100,2.061848043,-27.30179379,-16.41662149
7.0150,-10.13057069,-21.44717176,-18.65985044
7.0200,-18.08870529,-11.98996253,-25.03137289
7.0250,-3.345531506,-20.72784742,-18.05960787
7.0300,-4.597720662,-19.26606267,-15.10688372
7.0350,-3.023785306,-28.98724908,-2.19737412
7.0400,-1.689169341,-22.98096064,8.185965663
7.0450,-9.638991879,-21.012699,-0.9148275295
7.0500,-14.99910761,-20.08431241,0.3155564718
7.0550,-24.08910554,-26.15329197,-1.517705277
7.0600,-36.00710401,-24.32958175,-13.80817916
7.0650,-26.45271835,-24.4232365,-19.43639817
7.0700,-27.31607826,-49.54286456,-26.34411513
7.0750,-22.26441291,-49.79568434,-29.47893802
7.0800,-22.43321097,-46.64090899,-23.52221566
7.0850,-20.87773034,-38.08487565,-15.44419661
7.0900,-19.80185083,-29.74603981,-13.53771257
7.0950,-25.38825443,-20.85501239,-17.64762384
7.1000,-15.31610356,-25.3511924,-2.125916059
7.1050,-30.39100073,-25.12360747,-3.33344296
7.1100,-29.05604046,-5.695723965,12.46031173
7.1150,-31.6824617,-10.4451702,4.846895798
7.1200,-17.24631992,-15.22999777,-1.468713692
7.1250,-18.56734117,-29.02082536,-20.34284865
7.1300,-37.117773,-57.36891614,-49.87718932
7.1350,-30.06281744,-74.5784664,-61.46211193
7.1400,-20.82764555,-66.47891889,-62.04450271
7.1450,-11.72935034,-68.5673284,-47.79240377
7.1500,-24.916208,-58.88970433,-39.73992282
7.1550,-18.82722113,-33.93550969,-26.87420764
7.1600,-15.69627293,-43.52195851,-22.53813993
7.1650,-12.21288308,-32.89587347,-23.53118335
7.1700,-17.63084073,-15.6156544,-14.70331143
7.1750,-25.54143691,-12.59271163,-14.61291008
7.1800,-15.04484318,-16.69464283,-19.69629815
7.1850,-21.40161025,-15.09682417,-23.07819764
7.1900,-13.37913055,-23.1767051,-19.19850632
7.1950,-6.228651341,-23.50128939,-23.78598518
7.2000,-7.166657422,-31.87405937,-25.83493139
7.2050,3.403303058,-28.78150408,-24.78291372
7.2100,-5.600184941,-30.10366137,-24.49563527
7.2150,-10.5037208,-30.08251827,-17.11572789
7.2200,-21.03587645,-29.04170042,-17.71301527
7.2250,-26.23798962,-7.836282121,-17.54003088
7.2300,-16.92184297,-21.27022417,-11.57481293
7.2350,-15.03530147,-32.17410902,-8.644512572
7.2400,-19.71531008,-23.45337261,-10.99629271
7.2450,-16.42247045,-15.38533285,-1.655282133
7.2500,-24.15102359,-15.76318782,-8.7057951
7.2550,-14.24082855,-6.986453312,-9.138778797
7.2600,-9.323717455,-7.100502049,-13.21271744
7.2650,-2.051456693,-8.034507478,-12.91924308
7.2700,4.522437023,7.331831182,1.529328642
7.2750,1.910224058,10.18988183,1.092217154
7.2800,-8.335986705,18.65082334,-4.114444573
7.2850,-6.032164013,17.58544048,-1.927528436
7.2900,-16.5986033,3.705801908,-6.73934079
7.2950,-9.554783501,3.487159344,-10.8038775
7.3000,-4.842389883,-1.156333223,-8.579215103
7.3050,11.08010176,-3.912252677,0.06507114556
7.3100,0.6385732252,-11.5180977,-14.60321013
7.3150,-4.501693751,-19.09617365,-14.41321826
7.3200,-4.723605497,-19.70222793,-21.80589437
7.3250,1.736827319,-6.380434659,-22.189811
7.3300,14.82752924,-12.77151761,-15.60275163
7.3350,4.989680528,-8.272746683,-5.689171802
7.3400,-0.3394490997,25.04118006,15.19348761
7.3450,-17.00546674,33.90920518,14.43626819
7.3500,-10.39550072,47.3193738,10.52422702
7.3550,-1.049471918,36.30966871,10.64908466
7.3600,11.93714611,22.71895346,15.76694813
7.3650,14.2367235,21.32624997,11.72785498
7.3700,10.43838999,3.304945704,4.142546482
7.3750,15.84355966,-2.657846337,-1.466691411
7.3800,10.94504552,-9.410306443,-12.63251341
7.3850,20.6036329,-13.80329987,-10.12234981
7.3900,18.9419246,-16.43855037,-11.97514435
7.3950,23.03270978,-15.20954839,-8.622191652
7.4000,13.26823858,1.986687582,-0.3592356422
7.4050,-2.421895054,3.962770418,4.212511011
7.4100,1.592568183,28.72802327,16.28218365
7.4150,-12.9837948,28.42055184,13.72021662
7.4200,-21.41271835,37.62611116,12.27108697
7.4250,-20.53689859,37.03655802,7.519422172
7.4300,-25.61763146,30.21504951,-1.086557517
7.4350,-14.81994819,22.46936426,-1.479741411
7.4400,3.666603024,5.665848125,9.099208961
7.4450,0.3358802692,-6.800688513,8.191360461
7.4500,-2.141773233,9.042417034,-9.53128599
7.4550,2.772075674,3.318573081,-13.01719378
7.4600,7.871012949,-0.6787464988,-10.47985924
7.4650,8.355777799,-3.057390849,-11.67147289
7.4700,-4.459273547,-5.407982832,2.03294676
7.4750,-2.079868929,27.62240139,13.60608831
7.4800,-7.073076928,32.05302134,13.06886513
7.4850,-10.60085813,26.01963048,6.315437593
7.4900,-5.46303558,8.950629048,4.505593136
7.4950,2.505201223,6.486732405,7.992654682
7.5000,-9.004600384,-6.151425623,3.996635121
7.5050,-19.56167014,2.225010901,-9.674588393
7.5100,-8.422522799,-12.19512703,-4.158838426
7.5150,-8.849889721,-25.45240202,-9.123059154
7.5200,-14.04887903,-30.90240268,-8.08686215
7.5250,-7.41131026,-13.73847707,-10.62615397
7.5300,-16.51282502,-16.62212047,-9.9453206
7.5350,-6.378672772,-6.530249662,-3.163037464
7.5400,-10.20212052,-1.385077682,6.205070468
7.5450,-17.92129658,0.6506629376,7.694696166
7.5500,-19.57151205,7.051634811,9.39235998
7.5550,-12.11876911,-4.179463044,3.060514052
7.5600,0.09485639357,1.433338939,4.146009408
7.5650,-5.821877399,-19.44415279,7.339967102
7.5700,-10.93203169,-8.512811848,12.20606422
7.5750,-22.81209917,-2.717303833,9.730720865
7.5800,-28.64859463,1.725133782,0.3677021207
7.5850,-24.82920517,-0.8510638229,-5.720740378
7.5900,-19.87876939,1.000503054,-6.155798554
7.5950,-23.18701142,-11.97965826,-18.97114481
7.6000,-12.05862005,-9.525866578,-9.6573441
7.6050,-4.735957492,-26.48050349,-6.958398596
7.6100,-3.994949054,-8.495399845,-5.627930013
7.6150,1.82998757,-25.89845297,6.542702145
7.6200,0.01221372442,-7.936489435,1.337326509
7.6250,-1.676041715,-14.62379665,1.778123594
7.6300,-4.928303935,-6.810488841,-4.48989499
7.6350,-0.3589387076,0.8593229372,-14.98078583
7.6400,2.535099944,-13.68597294,-13.61852487
7.6450,-0.1065040983,-19.67508004,-10.88785106
7.6500,2.97796804,1.976525855,-2.928561491
7.6550,-6.285863705,-5.07312697,4.288101558
7.6600,-14.14345577,5.308867451,9.149745928
7.6650,-30.21039328,5.999909177,12.71826701
7.6700,-32.84845267,23.59489545,6.845907843
7.6750,-30.39442612,35.29301281,6.817325081
7.6800,-41.19827837,22.06148405,5.110747297
7.6850,-29.79378116,35.52860538,12.84120381
7.6900,-32.91593443,35.7093299,6.448725127
7.6950,-15.18430376,18.11316612,3.789142666
7.7000,3.836157018,15.76020694,-1.946976392
7.7050,22.9926522,16.9934475,1.816103129
7.7100,14.57677884,3.254967407,8.006864747
7.7150,3.249681119,10.37041,0.5103988166
7.7200,-14.36648974,25.30611578,-7.901619878
7.7250,-15.60249568,27.55883842,8.632405339
7.7300,-34.57898881,32.63297412,15.12160319
7.7350,-30.06096425,47.73604886,26.40471162
7.7400,-35.90921656,42.98879131,29.76991472
7.7450,-32.90222313,46.95292358,27.35509407
7.7500,-27.49064433,46.78828454,26.06728532
7.7550,-12.59705248,40.93926856,36.07743307
7.7600,-15.42954561,45.28554107,32.23694046
7.7650,-7.890237814,38.73159151,34.9550278
7.7700,-10.56194319,28.55322629,32.46669613
7.7750,-3.637775212,33.59845386,26.90999894
7.7800,-22.86880154,30.70458952,22.64725352
7.7850,-6.76139023,41.93605709,21.08961373
7.7900,0.2750740543,37.18767608,19.24372242
7.7950,-5.613202038,28.86188251,17.68788347
7.8000,-0.1851520642,29.67392228,21.28147968
7.8050,5.808001405,36.25564892,23.95398086
7.8100,-1.957028594,28.95112082,19.00511363
7.8150,-4.800241648,30.18461459,9.386342126
7.8200,7.744266864,24.11432031,15.65158076
7.8250,-0.6683030858,15.20539669,7.254676682
7.8300,10.14916389,13.3092757,7.735611439
7.8350,16.7616025,5.701778249,14.14396394
7.8400,6.209442165,8.377789581,17.03638368
7.8450,12.48801827,13.63731364,24.56252072
7.8500,2.899760052,13.56529691,29.20687112
7.8550,-1.021188923,19.46163951,30.36657823
7.8600,-4.204071471,23.55928528,29.83862071
7.8650,-5.452669477,28.6775531,26.78754043
7.8700,-7.240010954,20.42766272,22.58858516
7.8750,-2.795696519,22.66852409,21.8489949
7.8800,1.015293438,22.91820508,23.71371005
7.8850,4.592565841,22.38242377,19.590448
7.8900,4.89298399,15.24479139,19.11336718
7.8950,16.18176741,15.37709854,18.54613884
7.9000,18.98843412,3.903725702,14.54572192
7.9050,36.18516212,-1.026090038,17.76281926
7.9100,44.50724219,-0.7575454664,21.9232109
7.9150,56.41983516,-13.12001836,20.34118924
7.9200,42.83083076,-24.04419206,14.53162495
7.9250,40.78103754,-10.79553536,22.99579239
7.9300,32.35122584,-2.724113661,20.56541273
7.9350,24.9687732,0.8801377651,22.23144469
7.9400,22.02855358,6.647004293,32.4441606
7.9450,23.19726544,8.177156303,38.03811126
7.9500,11.19854577,19.22511121,37.15762358
7.9550,13.96899416,19.1875344,36.11122534
7.9600,6.790079402,21.68100909,36.39222494
7.9650,13.19713081,22.01663307,37.33939665
7.9700,17.60743551,15.65704897,39.94993811
7.9750,26.33620309,15.92436147,42.30575182
7.9800,21.17126339,4.232674085,37.78351688
7.9850,20.38150123,8.322325901,41.69757091
7.9900,9.782257092,11.83312232,51.61038138
7.9950,11.72418147,21.36107893,49.53878163
8.0000,5.128462806,28.65062803,47.02481636
8.0050,4.78495585,33.31838779,49.87915438
8.0100,2.294234639,30.00378474,52.83640828
8.0150,0.1903127396,26.89881257,50.38627101
8.0200,2.05895052,41.61485052,58.26110582
8.0250,-8.807922732,37.02502757,52.15464582
8.0300,-1.048912475,36.85183012,48.46074493
8.0350,1.038831559,27.72571662,40.41532033
8.0400,4.745843193,14.81324623,43.61606652
8.0450,9.312260757,21.59966234,37.92623982
8.0500,11.30535099,23.02852222,41.99500515
8.0550,16.0183874,20.43460895,38.1848476
8.0600,18.20834158,14.57870794,37.77399155
8.0650,19.27251104,30.35940811,42.25073942
8.0700,10.27244283,27.77779006,46.23234573
8.0750,3.35886054,25.7342612,47.41358702
8.0800,-6.903021707,33.88191909,48.68673878
8.0850,-8.153076279,22.97293998,48.22835692
8.0900,3.5567783,11.34792179,49.31718063
8.0950,0.6144605692,19.9103806,46.33598648
8.1000,9.024842358,1.210202175,44.01088359
8.1050,9.510306148,-5.011400398,35.54936913
8.1100,16.605361,-3.96649227,36.65990272
8.1150,14.94979536,-3.08565933,36.3155743
8.1200,0.5345462423,3.576662783,36.79186839
8.1250,7.624042528,12.72715538,38.23392789
8.1300,1.895195974,-1.344427722,37.64204339
8.1350,-1.623590695,0.1115088712,37.13913254
8.1400,-3.515544539,0.4894778551,42.05089371
8.1450,5.295859816,-0.03548790947,45.37575942
8.1500,-5.794864135,8.569042598,46.35859856
8.1550,4.718253076,14.59348351,52.54801068
8.1600,8.136563863,9.347774218,45.54069317
8.1650,-0.5676337586,-1.018177951,36.57719815
8.1700,0.4446112973,5.285495834,38.16941931
8.1750,0.4560299482,-0.8988883517,40.65206896
8.1800,7.206461147,4.527135439,39.21062759
8.1850,-2.248932008,-1.195324499,27.69200836
8.1900,11.49072431,-6.968441611,25.61573582
8.1950,19.41956458,-13.09828924,23.24781331
8.2000,17.98548032,-9.37514663,24.95161099
8.2050,24.29290083,-17.14897633,29.78148203
8.2100,26.1526754,-8.905268508,35.6827032
8.2150,22.07805914,-11.84651757,26.51095524
8.2200,21.07823673,-15.77912552,25.23880513
8.2250,18.58040153,-21.91623696,15.59347024
8.2300,23.82594192,-16.50749942,18.2954229
8.2350,21.01510627,-13.66893154,20.07749546
8.2400,12.76883257,-16.13296313,18.1484255
8.2450,21.86596131,-14.26996626,11.76664898
8.2500,16.14962085,-18.77306123,3.90730601
8.2550,18.47204298,-16.65431481,12.22004218
8.2600,10.96091195,-2.507823501,15.53716555
8.2650,-5.223034547,-9.725853174,21.75775147
8.2700,6.675296445,0.3152184413,22.0573014
8.2750,14.44329932,5.429229707,24.76059483
8.2800,20.23846068,-14.23336157,19.37576391
8.2850,25.21190425,-14.67341266,13.50743843
8.2900,22.04269509,-19.37156907,15.53639246
8.2950,22.54077991,-15.58583363,17.27302729
8.3000,16.8918792,-25.42398168,13.80100569
8.3050,29.90176348,-10.37689659,15.58593268
8.3100,16.11442285,-21.45864532,15.90718736
8.3150,25.68513795,-17.11385678,17.54080763
8.3200,12.28518508,-16.67599474,16.48506515
8.3250,5.948037241,2.303167944,17.6547804
8.3300,13.17482267,7.330238015,24.50000846
8.3350,8.333300317,-2.856425978,29.93187433
8.3400,16.442917,-0.1344383111,40.56548355
8.3450,12.77484072,-8.007694311,39.18932974
8.3500,18.91907287,-9.386758435,38.73457496
8.3550,19.07757545,-12.80272957,35.79162432
8.3600,40.80577852,-10.00756887,37.29682569
8.3650,22.17616885,-12.23717008,39.52511977
8.3700,34.9546768,-12.80096034,42.83089494
8.3750,34.81382083,2.089799295,38.62967714
8.3800,34.69296174,-15.24029388,37.19966315
8.3850,23.01232614,-3.070716569,44.84866276
8.3900,34.75705307,-15.34741459,48.21817802
8.3950,25.7966945,3.052304933,46.13351808
8.4000,36.2552254,-8.044096568,35.36828865
8.4050,35.75507311,6.346228753,33.80787355
8.4100,28.65567043,9.389252558,42.24511764
8.4150,27.84960666,-1.04936603,36.78923892
8.4200,20.64202567,11.40938906,47.45818397
8.4250,25.90383759,11.94521734,41.68737983
8.4300,22.90197996,11.06732439,44.33855179
8.4350,33.58883459,2.950242658,31.24346161
8.4400,36.96094056,4.804226666,30.7364263
8.4450,38.68518272,-5.639819846,20.67363144
8.4500,33.8600908,-2.292320566,21.83327387
8.4550,32.86924702,0.4163438913,23.26052931
8.4600,34.25202304,-9.103344217,25.23443895
8.4650,24.57625128,-10.76711625,25.75809826
8.4700,29.7500511,-9.859793096,27.90544648
8.4750,31.31968928,-11.56049003,20.60022705
8.4800,39.69775384,-16.47497682,13.7740313
8.4850,33.40394814,-25.81033644,14.92940257
8.4900,32.67015979,-17.02290488,16.49435917
8.4950,30.8389006,-33.09414376,11.10743171
8.5000,42.19025616,-21.90361035,10.02599682
8.5050,17.84651067,-18.55014087,10.3597261
8.5100,27.51488071,-17.66589217,3.98422114
8.5150,24.60952958,-25.89261067,2.70440054
8.5200,24.15395829,-24.62062661,10.26139945
8.5250,25.4203183,-22.81835017,14.79784735
8.5300,3.095090981,-20.4654848,26.11954357
8.5350,5.094139332,-23.04208564,19.74604804
8.5400,20.01455171,-19.77758335,20.5723176
8.5450,12.16754169,-25.69759583,13.58899312
8.5500,19.34570217,-25.70668569,17.5706881
8.5550,20.5568601,-36.84062504,13.58354187
8.5600,11.80589472,-39.05666908,15.58700631
8.5650,21.31188584,-38.47153209,9.206372212
8.5700,20.91529854,-29.39275152,6.391555798
8.5750,21.09615728,-31.03862783,-2.757828678
8.5800,35.97561562,-43.37634082,-10.64411058
8.5850,26.35595866,-44.66799324,-3.358414627
8.5900,34.42085992,-39.96630976,1.051947963
8.5950,36.08433345,-28.65554866,6.585913511
8.6000,32.93556964,-36.55446678,-2.01479862
8.6050,37.98746065,-21.80075026,-1.052816606
8.6100,22.77455453,-28.00393329,-0.3148528393
8.6150,21.09279685,-15.5285776,5.302381993
8.6200,14.69685376,-19.73080052,21.31761514
8.6250,21.87204451,-19.87233357,19.3879045
8.6300,19.88493482,-14.43412473,26.78391549
8.6350,32.07859447,-13.01910398,24.86907623
8.6400,34.99927769,-18.45204454,33.48150953
8.6450,24.89697957,-16.92143401,43.93665046
8.6500,32.95953322,-11.89552466,39.73127249
8.6550,24.63212768,-23.62550952,22.60153935
8.6600,30.35150543,-27.95473101,4.156942432
8.6650,38.66829327,-20.58934942,0.9699488905
8.6700,29.89736033,-26.90218382,1.152373471
8.6750,25.7334483,-16.30526067,9.081301684
8.6800,25.73733368,-29.81170748,11.06895438
8.6850,36.81448157,-19.38743292,12.41957623
8.6900,46.04341733,-7.31072899,10.783339
8.6950,27.1674453,-14.35362029,4.196679793
8.7000,35.86194797,-25.34794027,-6.252178907
8.7050,22.83865419,-12.08517918,3.471030701
8.7100,35.1804769,-8.091369121,1.991583619
8.7150,26.26914879,-14.3487327,-10.66855096
8.7200,30.63935455,-14.44463372,-7.997378988
8.7250,26.68811656,-21.51178126,0.4140046015
8.7300,36.18939871,-20.52724174,2.674162026
8.7350,26.16312702,-25.96218968,-1.66055133
8.7400,27.48822693,-24.06939905,-11.74940535
8.7450,35.85669002,-25.52030956,-14.32236389
8.7500,19.41763105,-28.64218311,-3.77178301
8.7550,38.00708074,-25.03576365,-7.9323882
8.7600,41.84479085,-18.16605525,-1.939546075
8.7650,29.70941368,-32.25910025,-12.11216731
8.7700,28.25967467,-38.54923059,-18.65860783
8.7750,17.66202007,-34.61125366,-3.272274957
8.7800,32.68951208,-32.96894621,1.799388427
8.7850,40.02457071,-27.63742746,1.733010452
8.7900,31.24911764,-28.68205375,12.6585547
8.7950,19.70885764,-24.76150799,14.50898171
8.8000,25.48345538,-29.98848262,12.98452205
8.8050,31.07547117,-27.31229587,0.9496274243
8.8100,30.39154945,-21.69166133,0.6115245842
8.8150,35.92554708,-21.4856191,-14.5028569
8.8200,34.37739944,-9.056992142,-10.62915021
8.8250,27.58020223,-18.68565242,-4.747445531
8.8300,27.73309431,-25.58305933,8.606344114
8.8350,33.03617616,-11.91883453,12.19378727
8.8400,36.05048158,-11.96803526,-1.221788061
8.8450,42.94472277,-6.926201083,-23.46808545
8.8500,40.12663651,-16.50056839,-24.94970889
8.8550,41.4842513,-11.65491625,-18.42241113
8.8600,34.98518334,-22.21217245,-10.44832986
8.8650,45.93422556,-14.43954308,-13.52616266
8.8700,31.94228308,-3.256281088,-2.403520568
8.8750,40.56049916,-9.854161712,-18.41180424
8.8800,47.1070304,-6.161277292,-9.295956521
8.8850,40.53252432,-14.97679323,9.556341042
8.8900,43.45363287,-15.34749118,22.78224433
8.8950,51.54613867,-6.092561096,7.126333707
8.9000,41.66723648,-4.71850616,-14.49968508
8.9050,34.74166183,-6.426366396,-12.60604837
8.9100,35.16116152,-8.736383061,8.242425074
8.9150,51.89411059,-15.06758369,15.19737081
8.9200,57.14638543,-10.5321997,10.29371368
8.9250,57.81987241,-4.929160891,-16.60714393
8.9300,43.11675225,-2.455323421,-31.4789981
8.9350,44.6817782,-1.608542867,-34.59790503
8.9400,31.38752455,-8.001053885,-18.63238277
8.9450,46.98174784,-5.000018612,-13.63233965
8.9500,41.24187304,-5.475740915,-1.448108548
8.9550,38.44282737,-18.44917745,-5.231017057
8.9600,56.7913736,4.612896667,-0.06818660776
8.9650,48.89657668,-5.941525013,7.794269296
8.9700,54.08848592,-6.954310406,-3.488970965
8.9750,42.70419017,-2.931959428,-0.1295876259
8.9800,43.84721814,-11.83535424,-2.850828958
8.9850,47.71597625,-12.15305188,0.7187958363
8.9900,56.79580811,-7.043042984,-9.362163717
8.9950,40.99029745,-9.328778093,-20.44906744
9.0000,45.81921177,-7.633384476,-33.84870021
9.0050,38.23536234,-11.04284763,-24.93380078
9.0100,34.81204625,-14.23914728,-15.91028335
9.0150,39.41803227,-19.76751875,-13.81631233
9.0200,37.74505772,-12.79742808,-1.848558385
9.0250,38.52426562,-14.48016545,1.419456143
9.0300,45.28225455,-12.17814,-12.48287654
9.0350,31.21588662,-1.196989845,-6.840747322
9.0400,30.29510105,-3.085900306,-8.670179748
9.0450,33.62297395,-7.187886174,0.4184108971
9.0500,33.21397086,-11.70708809,4.893503913
9.0550,38.40515808,1.505671644,4.805590482
9.0600,29.48464906,0.4644747289,-9.768297562
9.0650,24.70741215,-3.580443167,-4.025599805
9.0700,22.3474964,-15.57712373,6.043599654
9.0750,34.22404575,-10.43900088,-6.092366113
9.0800,31.38318495,-2.694013653,-5.892043024
9.0850,28.4994462,-6.242189638,-10.7315979
9.0900,27.11787504,-8.445026433,15.1041268
9.0950,32.16988061,-9.205280214,15.54200008
9.1000,33.32175502,-6.494622911,-0.9348013747
9.1050,19.26019809,-8.772225389,-10.02300034
9.1100,21.6864591,0.757264209,-18.45946475
9.1150,12.50007958,-3.523659577,-24.75203776
9.1200,18.77368467,-8.714792071,-14.60547004
9.1250,21.32933474,-9.721598113,12.47321196
9.1300,30.03842921,-17.40075943,23.28553807
9.1350,36.44187351,-17.48278016,18.85249819
9.1400,38.01628227,-10.05249179,6.882631967
9.1450,21.58296992,-4.357039712,-0.3662104904
9.1500,22.7673381,-2.108949253,-26.94094983
9.1550,18.24180906,0.08985892897,-11.29614724
9.1600,12.93484862,-17.58297305,-8.472748245
9.1650,22.34477772,-11.9912444,-11.071491
9.1700,29.59462378,-12.95585781,-16.73728912
9.1750,21.07426745,-5.219438086,-6.647755516
9.1800,18.61896385,-17.71362952,-5.65615467
9.1850,16.61116918,-20.79129544,-7.043063741
9.1900,22.88275399,11.40959236,-4.889668673
9.1950,7.474030433,1.588619043,-28.27466097
9.2000,8.326423837,1.330259973,-23.0124473
9.2050,9.691952256,-9.830541741,-2.744545564
9.2100,28.56548786,-3.139926657,10.8798345
9.2150,29.52367274,-9.391794868,22.01314155
9.2200,39.75130351,-1.697538552,6.233008628
9.2250,29.61497191,-1.022231761,3.676097001
9.2300,34.13570068,9.01609921,-1.651978226
9.2350,32.95194991,8.265017929,-12.1606686
9.2400,31.20538938,0.7936175104,-6.507944875
9.2450,35.39609657,-1.459366647,-7.883018265
9.2500,35.68432496,-0.9884854921,-4.525291396
9.2550,21.40694555,-1.483585859,-13.58936645
9.2600,25.67772862,11.53721233,-13.98976697
9.2650,33.75762248,2.344012177,-30.36204737
9.2700,31.12791336,-10.30567261,-23.8784592
9.2750,25.98930917,1.020359338,-21.49221885
9.2800,17.41764969,-1.395211891,-24.57813313
9.2850,27.05007714,-0.4554067148,-20.61295562
9.2900,27.38605529,-7.784309458,-6.993413145
9.2950,30.33443927,-4.994804725,-13.99996597
9.3000,37.84407237,-4.213872471,-18.72601987
9.3050,32.17395514,-5.967488496,-3.903276391
9.3100,38.19099559,3.693263796,-5.88573465
9.3150,34.63507291,-3.052995837,-25.17152633
9.3200,25.63995576,2.421279045,-24.99219894
9.3250,26.77547035,4.444342464,-24.95575192
9.3300,29.66952722,1.95734696,-23.26347189
9.3350,27.47059403,-8.411643255,-15.16055616
9.3400,31.7437704,-17.36737314,3.554040155
9.3450,46.83052715,-10.69068913,3.614938069
9.3500,48.01346425,-7.156353478,-6.062035151
9.3550,31.66501154,-15.7733226,-12.94275001
9.3600,32.91842992,-19.63193843,-27.83075398
9.3650,43.83870386,-25.14825573,-23.04565614
9.3700,49.67618737,-40.22233932,-12.31505778
9.3750,49.10696243,-32.92063275,-9.70377203
9.3800,40.6765557,-32.01012252,-21.11500606
9.3850,38.8694989,-20.14133367,-42.29068171
9.3900,42.45940684,-9.669878311,-55.52870813
9.3950,26.71060367,-30.69656278,-49.24765027
9.4000,39.92931653,-29.28741075,-28.96815925
9.4050,47.73982329,-27.67493695,-33.44663363
9.4100,44.10890628,-23.6345319,-27.3754104
9.4150,42.40377051,-23.25223089,-26.26586482
9.4200,37.38065968,-21.86651358,-26.55138069
9.4250,40.79050331,-25.96689335,-34.25299291
9.4300,39.80592732,-17.75377322,-33.57248343
9.4350,33.67751156,-9.442620025,-29.69424373
9.4400,27.87541498,-7.057662489,-43.501406
9.4450,32.64084365,-13.33875751,-38.22090293
9.4500,43.08510804,-20.78049521,-13.27893761
9.4550,50.26876135,-8.438944116,-7.933435108
9.4600,45.18172639,-5.401897317,-7.088823932
9.4650,32.49464068,-6.038521745,-25.99366677
9.4700,36.90978589,-14.58275742,-14.54790498
9.4750,36.57271315,-13.07407297,-5.19745211
9.4800,31.39992707,-5.934939501,-8.4382037
9.4850,20.67973072,6.801975222,-20.26610619
9.4900,22.28629713,2.533074892,-19.52202614
9.4950,23.57872678,-19.69624195,-5.597281711
9.5000,40.27135852,-4.279898063,7.835911047
9.5050,30.65792558,-7.001031242,-7.485011886
9.5100,27.95707819,0.4023602663,1.884837114
9.5150,23.42419151,4.296273438,11.87464835
9.5200,17.65161796,-14.56496816,12.17645348
9.5250,31.15861585,-6.208139412,14.61874404
9.5300,39.39623235,-8.467717674,16.3261264
9.5350,31.47827627,5.45286047,-2.750934712
9.5400,18.46458847,5.236383315,-1.217154339
9.5450,10.38115404,1.797331086,2.050733362
9.5500,17.58783196,3.215038807,6.967496541
9.5550,15.89827679,-1.365343282,-6.240522205
9.5600,19.41240269,13.33201545,-5.398551733
9.5650,18.63362758,3.864134681,-17.05466538
9.5700,16.80060971,-6.605099777,-7.993924681
9.5750,16.41349757,-8.22708052,-5.845447154
9.5800,18.84227856,-2.260904301,-2.690184644
9.5850,15.91165882,6.652591909,-19.95476312
9.5900,11.8413139,1.957960386,-10.34824163
9.5950,4.419953331,-1.979218468,-10.71584214
9.6000,13.12161926,3.438390925,-17.54691014
9.6050,18.23239556,-4.812853168,-4.178243823
9.6100,27.92574175,-1.292596281,-5.034354563
9.6150,24.91637272,-5.104524094,-0.1361723754
9.6200,23.08001275,2.635431598,-2.035111686
9.6250,15.97669405,-3.936550054,-0.8489651399
9.6300,24.80838776,14.88548738,-8.955377635
9.6350,11.18032494,4.051910225,-15.85210951
9.6400,13.69483525,11.13495498,-16.72554085
9.6450,11.73484309,0.8106176818,-11.56139064
9.6500,13.18757445,-8.276923148,-6.927498224
9.6550,28.7085426,-6.358789828,7.56543624
9.6600,33.9858961,-8.305142368,10.90577238
9.6650,43.54697218,-4.731737127,14.97573887
9.6700,34.97335887,-4.515968123,3.38330826
9.6750,24.49555658,-9.630863696,-7.552864749
9.6800,41.34182208,-11.12013172,8.11498844
9.6850,42.66139507,-10.51018264,-2.840611248
9.6900,38.44036695,-3.020680924,-11.28581292
9.6950,31.33206949,-6.186097528,-28.60363656
9.7000,36.24706844,-15.67813644,-21.54281245
9.7050,38.76869873,-21.30704387,-20.46147578
9.7100,56.03206001,-1.137611136,-3.579206751
9.7150,46.07413486,6.822772298,-6.777007369
9.7200,32.06027787,6.036565142,-9.524523854
9.7250,32.70589798,5.674364145,-2.381848141
9.7300,31.37165172,-6.011077401,2.461918925
9.7350,35.76674817,-2.996532351,-2.454702981
9.7400,38.13426202,-3.44546047,4.713840606
9.7450,40.99598816,0.3188586242,-6.15172383
9.7500,29.53533362,-2.821480074,-19.45188707
9.7550,27.53350685,-4.765224101,-14.4922529
9.7600,33.42815612,-14.91121035,-12.92649667
9.7650,43.73079995,-31.7898736,-15.66591647
9.7700,51.11568689,-24.43737139,-34.58482742
9.7750,35.75970166,-21.19267567,-42.57599813
9.7800,32.90279161,-4.498684802,-58.0427729
9.7850,29.29428162,-20.91665993,-48.40014785
9.7900,25.05223537,-24.50325914,-53.52787579
9.7950,35.46261207,-19.56658674,-44.36030925
9.8000,43.66420936,-6.763264314,-46.33916194
9.8050,39.51585103,-8.170860027,-50.8214939
9.8100,45.46800525,-18.7369829,-52.30616401
9.8150,40.40279617,-10.9197738,-56.34887124
9.8200,33.05317556,-4.234456582,-56.50864863
9.8250,24.95419921,-6.01744621,-47.02443753
9.8300,25.27040853,14.60283246,-46.49696471
9.8350,18.6044544,6.718412105,-48.03425669
9.8400,22.05980654,7.242424194,-46.11175304
9.8450,23.63846291,8.426700652,-37.31707971
9.8500,25.49407865,18.97991896,-44.66179637
9.8550,5.653194214,11.6834391,-40.98288015
9.8600,0.9966569862,21.31920819,-45.73733749
9.8650,-3.210313174,10.5764836,-31.8071565
9.8700,0.7605491774,10.42765226,-24.94360496
9.8750,5.689223137,10.86176491,-22.18959047
9.8800,14.3235651,14.71040193,-13.1522042
9.8850,25.42727803,4.352885892,-8.448801438
9.8900,31.41456786,-10.96700213,-9.13581782
9.8950,37.65106599,-2.530555177,0.09110559363
9.9000,19.79237918,-12.38983711,-7.786059261
9.9050,12.61869514,-3.659579873,-13.14868715
9.9100,15.58626552,-1.506413502,-4.179922244
9.9150,12.07424485,2.851640037,-9.54084179
9.9200,13.6323161,-9.080857699,-12.31484763
9.9250,18.14144223,-27.251921,4.33632897
9.9300,31.16966375,-11.46661975,-12.69947191
9.9350,19.92467462,-21.11113881,-29.19279244
9.9400,17.66228778,-19.5477383,-22.0328879
9.9450,14.74229084,-15.31622096,-16.87295453
9.9500,20.78671077,-26.89972858,-17.28370601
9.9550,28.40169301,-35.48594094,-8.592091483
9.9600,36.89030008,-28.15718992,-9.363062964
9.9650,38.79719219,-29.39662202,-12.38975111
9.9700,40.30714624,-31.77764722,-29.4217571
9.9750,49.24288831,-27.49817726,-18.09762306
9.9800,53.08229818,-39.54259024,-29.32987391
9.9850,58.12253141,-42.14072489,-22.55883446
9.9900,50.21218355,-39.59569977,-35.88448105
9.9950,35.44164496,-46.0711528,-30.57554191
10.0000,34.19443601,-30.8973245,-39.07531493
10.0050,21.79023366,-22.43688973,-43.62204752
10.0100,0.2048633449,-6.237425536,-54.89728212
10.0150,-10.60868069,1.112968444,-52.95793348
10.0200,-5.637855524,-1.731853536,-50.98621685
10.0250,9.096401943,-1.903080686,-27.28005078
10.0300,10.73922416,1.393468337,-17.8895237
10.0350,8.713900081,6.394315026,-17.1885693
10.0400,5.528210027,10.54920774,-31.18170074
10.0450,5.413164923,15.80618316,-19.80555613
10.0500,0.1896815706,15.79004025,-11.66566499
10.0550,-11.97387637,28.88965131,-16.55367734
10.0600,-5.471008634,32.31625542,-22.06307956
10.0650,14.89245784,20.70578828,-13.8279751
10.0700,24.11745582,1.879437535,-10.21987402
10.0750,34.47443299,12.06576185,-6.144985197
10.0800,31.05278643,-1.160910352,-0.8401964161
10.0850,30.27162256,1.149324827,4.666042596
10.0900,26.84258746,27.33539335,-7.7104014
10.0950,-2.389767842,16.84596013,-21.24431333
10.1000,-14.77880419,19.00373383,-21.53869045
10.1050,-8.899081375,13.25227587,-0.77871336
10.1100,-1.240864639,4.992369829,-4.051068945
10.1150,13.89735936,-4.42657353,-0.05236513811
10.1200,29.81716203,5.828629171,1.656293851
10.1250,42.46613084,5.700776045,8.504798144
10.1300,39.0047203,-6.525651752,6.479527194
10.1350,48.50000154,2.244598894,13.8021474
10.1400,40.44406682,5.527139568,5.08649737
10.1450,39.11399153,22.71912778,1.478912312
10.1500,43.77030875,4.236450301,12.83822093
10.1550,31.38542701,2.647640669,15.25391118
10.1600,31.29567082,21.03701875,16.74048613
10.1650,13.53485909,5.592266491,16.93775316
10.1700,24.75042894,13.81696495,0.8545930392
10.1750,34.79266848,0.9489977412,23.16314197
10.1800,27.9000197,4.559141738,17.59650864
10.1850,14.32736239,33.50700441,12.72191513
10.1900,0.3471372836,21.57245677,18.70338328
10.1950,4.63201789,15.40360322,24.40438318
10.2000,13.01354862,20.79670299,21.85281104
10.2050,15.70523721,28.45421729,15.41599992
10.2100,2.197520648,21.11528178,7.568530145
10.2150,-4.19625435,24.30904305,6.756559791
10.2200,-6.693120006,21.65810731,2.069556995
10.2250,-3.034893214,15.12205935,-0.3846158897
10.2300,3.858038802,-7.14919535,1.124726433
10.2350,19.17680004,-17.11827475,12.82696412
10.2400,9.737140361,-9.627528401,-3.600814322
10.2450,-8.925912419,-7.856272767,-21.94840642
10.2500,-13.52946924,-18.55218766,-12.28769433
10.2550,-18.05664977,-13.54244001,-18.85787529
10.2600,-18.74674393,-10.68007434,-12.2957932
10.2650,-32.55934717,-7.783027736,-11.93426624
10.2700,-28.82377859,1.761768952,-14.38784023
10.2750,-39.16230287,-13.01902839,-27.06749597
10.2800,1.910283142,-25.6720126,-16.01376065
10.2850,26.61318788,-47.34034471,-15.07989801
10.2900,35.15786813,-40.96645205,-14.84378978
10.2950,1.402888578,-20.92678149,-20.82625323
10.3000,-13.60395058,-7.105247993,-27.90008606
10.3050,-18.41776726,-27.73639466,-35.87812822
10.3100,12.51474572,-35.73774287,-34.77118939
10.3150,7.260427371,-45.89752438,-52.87731454
10.3200,6.867659112,-45.62691031,-49.67379248
10.3250,8.220787727,-32.14349544,-46.55287256
10.3300,-12.05243782,-42.93691958,-53.07129876
10.3350,-25.92548222,-47.80914538,-70.1186568
10.3400,-5.670038941,-18.92565248,-56.80026013
10.3450,2.575989165,-26.1216626,-50.89337781
10.3500,21.52514545,-34.46247319,-47.97761883
10.3550,11.66262145,-17.60169342,-55.62568412
10.3600,5.855840136,-6.481875554,-47.25404976
10.3650,-18.28767709,-20.3108261,-69.29853762
10.3700,-5.667717136,-13.62829688,-65.02411733
10.3750,7.57949039,-22.2012516,-50.61653355
10.3800,-7.617836027,-1.086378809,-61.13270986
10.3850,-12.50162995,-3.57086261,-48.87249405
10.3900,-4.6459921,-11.26525664,-53.10113735
10.3950,16.03626293,-19.59411858,-35.45911734
10.4000,7.140925511,-0.710384608,-44.77884577
10.4050,-17.17492143,8.697348764,-47.33193522
10.4100,-9.215333398,7.267930825,-47.98888525
10.4150,5.025243172,4.363976987,-49.09182799
10.4200,20.15137067,14.16096732,-47.86099136
10.4250,15.3195845,24.30596036,-47.92972445
10.4300,25.03342398,10.49163959,-32.60641493
10.4350,38.2921097,22.263759,-31.63807666
10.4400,29.82260281,25.84904379,-42.60446225
10.4450,24.50820038,34.13122304,-32.19077115
10.4500,12.21892021,41.95437649,-32.71852927
10.4550,-7.293162624,47.53623654,-34.62115943
10.4600,-9.666448914,47.52178859,-45.77550037
10.4650,8.097052123,42.52847607,-25.99848806
10.4700,27.45203259,44.70295214,-24.14534815
10.4750,35.63519873,46.94011038,-32.73762268
10.4800,44.07733945,51.12617883,-28.09486763
10.4850,46.36118265,64.0515441,-42.77901412
10.4900,50.60332062,59.74276833,-36.50659584
10.4950,34.06536379,53.54580633,-44.89379035
10.5000,30.2956163,60.656385,-58.1185435
10.5050,33.33931731,53.30425645,-43.28786394
10.5100,16.46608004,43.77504663,-38.37232659
10.5150,5.103311518,46.66508298,-39.09709685
10.5200,6.765064404,46.55337242,-42.00063934
10.5250,24.95349398,34.6510548,-38.22248977
10.5300,31.48191104,32.49851749,-46.09297633
10.5350,26.62631513,37.425564,-35.65200312
10.5400,8.720899767,48.95497215,-47.29033193
10.5450,-20.05459044,60.07179085,-39.69136073
10.5500,-21.94401558,56.34543742,-49.89512616
10.5550,-2.255626631,42.05318458,-42.52091181
10.5600,13.40589571,40.25005326,-43.72873326
10.5650,10.98364677,35.54845435,-53.57619279
10.5700,10.9851456,36.81285456,-48.80659427
10.5750,-2.615338218,21.29894752,-55.52337208
10.5800,-3.871584059,28.53006769,-51.79061048
10.5850,-14.75316692,28.02261115,-39.36233392
10.5900,-31.15984598,26.73078551,-35.60156065
10.5950,-29.63221944,25.4603385,-31.16641925
10.6000,-25.50547087,22.63662076,-56.61797372
10.6050,-16.53306751,4.620917919,-58.05181266
10.6100,-10.9365075,6.140956098,-48.49679336
10.6150,-24.97721511,18.72661,-49.47661552
10.6200,-43.10250945,23.12049503,-54.09932226
10.6250,-51.57550464,25.0918015,-45.79895141
10.6300,-45.50766378,45.60095676,-42.06710218
10.6350,-41.84130086,24.82178651,-43.74248332
10.6400,-31.07476533,23.15478435,-45.58474752
10.6450,-26.07284343,22.76311504,-40.90506914
10.6500,-19.25161329,29.31376081,-39.96761905
10.6550,-18.56427207,29.17718796,-34.61698558
10.6600,-20.88982371,36.85456749,-39.03822047
10.6650,-25.95993285,25.05224259,-39.25567645
10.6700,-26.92264657,6.4754632,-36.83791536
10.6750,-12.71500353,3.90413881,-33.06614832
10.6800,4.154410128,3.672520049,-30.45440368
10.6850,15.29479063,14.30171386,-31.15723038
10.6900,6.01440681,2.304143064,-36.84360404
10.6950,1.778699113,21.36637006,-32.40408711
10.7000,-4.219664426,15.55535797,-25.59278048
10.7050,-14.46990067,6.892314973,-27.60207348
10.7100,-14.30633627,25.73782729,-32.67933992
10.7150,-21.61586205,19.27520436,-23.66080362
10.7200,-20.26219317,30.91409018,-39.98708346
10.7250,-16.0675774,30.46472499,-24.35865739
10.7300,-12.10306216,28.01474567,-30.71180928
10.7350,-10.56486865,13.33170968,-40.93204724
10.7400,2.22012834,14.183412,-34.24121071
10.7450,2.085769294,2.049924217,-32.91782741
10.7500,18.5418507,20.33205458,-24.46268365
10.7550,12.41291797,19.1278727,-25.92796246
10.7600,2.022935092,22.66696295,-32.98467597
10.7650,-1.382259166,30.06279813,-23.05545896
10.7700,-15.87287455,31.10547601,-27.01888992
10.7750,-25.567425,34.21659895,-26.92313677
10.7800,-15.98273354,35.32772097,-33.0301604
10.7850,8.376886688,11.39175633,-27.94063481
10.7900,20.1881281,1.733562542,-33.6102397
10.7950,30.27805985,-0.717031073,-24.55109029
10.8000,15.587712,17.8827121,-31.19677053
10.8050,-5.843357155,26.84320168,-37.3605372
10.8100,-16.64869163,25.35997362,-41.23394043
10.8150,-18.0293218,15.24699049,-24.27274958
10.8200,-12.96730564,1.30093403,-25.78937684
10.8250,-4.445718959,-10.71471993,-23.43450025
10.8300,3.919108207,-15.53903653,-18.85549853
10.8350,11.82807956,-17.60671338,-25.07681741
10.8400,9.778762041,-14.12335981,-37.90052149
10.8450,14.3196709,-4.59739889,-23.75208993
10.8500,8.735496059,-15.49559016,-6.287093336
10.8550,3.961865664,-9.764050848,0.3113611861
10.8600,5.185535316,15.5069823,-7.606032039
10.8650,-17.53645025,3.293316587,-21.31752973
10.8700,-20.72044503,13.26627782,-21.65908297
10.8750,-30.87310238,3.585131583,-30.62086593
10.8800,-16.85038358,8.458719567,-13.16076411
10.8850,-8.143965693,7.276546579,-10.80560636
10.8900,-2.436426903,3.524072312,-11.26591349
10.8950,4.533988452,6.767757717,-13.53220893
10.9000,12.76279022,-1.472027778,-23.37393929
10.9050,19.30969614,-23.76891762,-10.45802339
10.9100,33.76420707,-33.01936484,-0.7251217537
10.9150,37.72602839,-25.76891704,3.35265692
10.9200,30.19348575,-10.21099632,-4.01205464
10.9250,16.82870155,-1.400693094,-8.541835123
10.9300,1.378088192,-7.563538794,-0.4072910954
10.9350,3.94738689,-8.271021506,-0.265429265
10.9400,20.32011183,-20.256704,6.691962023
10.9450,23.87709019,-18.26789085,0.6899905237
10.9500,18.47976093,-3.235008438,-7.194802145
10.9550,-15.83474418,6.33534267,-19.95141523
10.9600,-31.7689468,8.756502415,-24.66517258
10.9650,-31.85268078,17.35330145,-19.84213761
10.9700,-29.34548067,7.448005322,-23.9787419
10.9750,-15.83878346,-0.7667345076,-26.89928501
10.9800,7.695527411,-26.4755205,-5.23344035
10.9850,29.32229401,-34.97545259,11.31910672
10.9900,40.76409132,-28.83971179,23.0429964
10.9950,38.33388142,-18.06624426,10.80169374
11.0000,31.96625747,-2.854232965,16.73487144
11.0050,22.15553861,6.465078505,5.792392968
11.0100,18.86466805,9.232895455,6.155002444
11.0150,19.05239928,1.438557563,9.037404634
11.0200,28.59933699,-20.46878917,10.72403519
11.0250,49.63698311,-27.80785297,19.70564013
11.0300,64.706679,-10.84629927,20.63363805
11.0350,53.72495541,-8.075271938,-2.507591392
11.0400,40.59878867,-0.9532230299,-11.43160339
11.0450,30.93568516,-2.458439539,-3.840474067
11.0500,27.63021937,-19.26032856,-4.798477765
11.0550,39.70854123,-23.70199995,-0.8975411001
11.0600,44.2184998,-38.53455376,-5.676429352
11.0650,44.18179475,-30.51361377,-16.36007556
11.0700,28.06727682,-19.21248773,-27.70455621
11.0750,13.5190826,-6.056070497,-43.31639026
11.0800,14.16465768,2.013005603,-23.05019044
11.0850,27.04041951,0.221166884,-27.28553724
11.0900,44.82173881,-4.934254138,-18.95892985
11.0950,46.30224711,-7.394550221,-12.74753513
11.1000,45.73519185,2.642788276,-18.81374793
11.1050,50.53218922,-5.33067065,-15.36785636
11.1100,64.78117998,-7.145283094,-4.922939824
11.1150,55.10887175,-15.37529546,-18.56775483
11.1200,51.01869734,-9.356101168,-30.94297051
11.1250,35.39268635,-7.435157396,-36.92651346
11.1300,32.72396732,-17.41086362,-41.92996698
11.1350,29.90326167,-26.6457158,-23.07398114
11.1400,39.04996576,-22.97903186,-16.75160243
11.1450,44.16841314,-16.95630167,-37.88077998
11.1500,48.18686578,-7.709028112,-40.97613678
11.1550,33.11628863,-12.52513799,-42.8693356
11.1600,29.04395791,10.62425708,-42.02672404
11.1650,25.62717544,14.25964724,-52.26414064
11.1700,23.17882143,7.443112153,-53.54337795
11.1750,15.32147326,-3.497305748,-53.22062956
11.1800,35.79776374,11.06857535,-35.77418476
11.1850,36.77913549,-2.716022605,-13.18753137
11.1900,56.01330679,-8.364809971,-10.80534129
11.1950,72.10192252,-28.8480386,17.45974815
11.2000,81.93828714,-22.65547853,15.17900748
11.2050,75.41594805,-27.23221201,-3.825811975
11.2100,57.65796838,-9.565149272,-36.90889144
11.2150,26.7025645,0.4983099869,-56.30021555
11.2200,6.233563644,-13.50727418,-83.69150711
11.2250,6.279945389,-32.44984722,-49.55443049
11.2300,22.66377884,-38.99375848,-33.20656341
11.2350,33.03542911,-34.88319571,-25.90719952
11.2400,43.10863272,-18.72879887,-59.10568921
11.2450,26.88132552,-26.42352641,-67.8275232
11.2500,14.78460366,-27.3886481,-67.88313037
11.2550,14.43445116,-26.31078616,-61.43140477
11.2600,19.29748962,-24.77452326,-39.62678153
11.2650,17.7435668,-19.67409636,-32.88641055
11.2700,22.92454901,-18.83869185,-28.0381559
11.2750,31.08852436,-34.40640791,-28.09619521
11.2800,43.07840944,-39.83317876,-20.52991492
11.2850,52.84084885,-35.13141103,-28.86589612
11.2900,43.19475285,-30.18251249,-48.29495257
11.2950,37.3284508,-14.67381062,-54.88506765
11.3000,31.14503785,-17.71803874,-58.26245125
11.3050,27.8955991,-11.59679027,-46.48622175
11.3100,33.2724567,-17.97329614,-40.44252029
11.3150,37.6231709,-35.35624451,-20.45806048
11.3200,50.32508634,-36.22237082,-4.963285544
11.3250,61.29914044,-24.49003131,-22.04774606
11.3300,54.01566974,-13.68074595,-67.06864076
11.3350,29.71650463,-11.09385171,-93.58349384
11.3400,18.74536096,-8.347076417,-92.88908488
11.3450,14.36375975,-10.80718983,-85.70176697
11.3500,29.254959,-21.03974566,-62.131878
11.3550,58.04338535,-22.2997788,-28.2227224
11.3600,68.33216382,-35.5690637,-26.09368283
11.3650,54.92824996,-39.76495719,-19.68542312
11.3700,53.32703166,-23.20616419,-29.79478769
11.3750,41.60431396,-21.8900655,-23.35129845
11.3800,62.22053381,-24.27891032,-22.20539204
11.3850,64.31807411,-21.48935675,-30.43005864
11.3900,64.2790741,-5.438145018,-59.6415625
11.3950,47.99937836,2.655565721,-100.3659468
11.4000,35.20772916,-5.100904218,-119.2532733
11.4050,31.23221357,-17.49703506,-83.82684355
11.4100,53.63537385,-20.92524298,-60.37286101
11.4150,63.19492126,-14.41145361,-57.71592154
11.4200,64.07380743,4.337299996,-70.15305562
11.4250,52.10712744,3.922854853,-78.21328812
11.4300,53.88301892,-5.213227164,-53.58064352
11.4350,53.46304925,-14.48728478,-15.89241338
11.4400,69.09620176,-7.309096656,-1.125119267
11.4450,78.73391117,8.810491505,-19.25215638
11.4500,71.78700868,7.300995476,-52.64835019
11.4550,46.71852583,-0.3695546897,-85.15026995
11.4600,30.10792847,-1.536068562,-84.91768369
11.4650,36.20033149,-4.467460447,-81.12723141
11.4700,46.7923721,-5.315208729,-53.25048707
11.4750,62.06389457,-4.280521356,-10.78303966
11.4800,71.0333371,-1.043247507,-1.9160879
11.4850,74.13937443,-8.676130863,-15.33141322
11.4900,54.96465597,-11.85395355,-1.954538695
11.4950,49.19917016,-8.548721575,-9.782127499
11.5000,63.42763549,11.30866595,-24.11636753
11.5050,55.34409555,-5.059294577,-32.42236068
11.5100,47.04301346,-20.06914426,-30.99340651
11.5150,58.3371399,-1.021198716,-20.93211044
11.5200,47.40636106,-18.91570624,6.457002753
11.5250,62.25958041,-16.29013619,11.72944528
11.5300,52.03033189,-23.77613667,29.89238124
11.5350,50.63834066,-8.209036794,22.04149208
11.5400,48.68661044,-17.77693103,-1.203617671
11.5450,44.39491847,-22.79073752,-24.06113497
11.5500,59.01366976,-25.3944755,-35.41623533
11.5550,72.27656605,-21.91008558,-27.78876089
11.5600,81.09743011,-27.76173509,-20.29602922
11.5650,64.97138273,-38.88724842,-15.47073318
11.5700,52.87967866,-29.12843744,5.951564672
11.5750,45.95885194,-31.32240364,13.35991518
11.5800,52.10143303,-21.35258509,6.445614753
11.5850,52.02771545,-32.31452837,-9.350179956
11.5900,57.60637881,-34.53807796,-1.244016146
11.5950,53.75442491,-49.38036738,3.808983363
11.6000,40.72116031,-54.67200064,9.488633833
11.6050,29.90427716,-28.07190221,5.433808654
11.6100,23.62160303,-20.08524087,7.530067387
11.6150,42.3558776,-7.389435642,20.43448689
11.6200,73.02763004,-14.66396644,20.66768543
11.6250,87.06961513,-20.34891463,18.74786524
11.6300,81.9959969,-37.3557754,10.09899609
11.6350,68.1698452,-39.672051,29.31300081
11.6400,57.85386723,-42.59267789,45.18119459
11.6450,67.50978779,-34.93875443,36.32264304
11.6500,73.44370016,-26.59875832,-4.712051428
11.6550,54.95838465,-28.64436051,-31.7025781
11.6600,46.57913824,-35.53667742,-31.25982341
11.6650,52.39079927,-30.96029044,-5.946064844
11.6700,43.52113302,-20.88509788,32.99312803
11.6750,31.17760862,-15.24957069,57.59876657
11.6800,28.96929915,-7.276659476,58.64633437
11.6850,24.65759099,5.410146292,51.41014488
11.6900,33.04075273,5.410108831,48.25596045
11.6950,36.53410246,-1.851722917,62.41532271
11.7000,39.27663188,3.472649172,87.18910384
11.7050,53.66780844,14.51224302,86.03169228
11.7100,53.71827009,12.35481545,63.02646287
11.7150,42.97583879,16.51220331,33.35804988
11.7200,36.43387996,5.445999645,7.934440697
11.7250,25.28403682,5.208908169,-2.837648594
11.7300,41.40900858,7.74461672,-3.830326204
11.7350,40.59994293,11.56129399,5.529336482
11.7400,35.10405591,0.4120066459,25.0091912
11.7450,19.74638191,-10.74737396,74.44911539
11.7500,19.47649294,-1.896401738,110.9312585
11.7550,24.322018,20.24873792,88.95171411
11.7600,43.53132969,24.22935038,26.40279491
11.7650,34.87874047,10.73981507,-6.186460734
11.7700,23.39566378,5.066063505,21.08769447
11.7750,28.87195028,4.499813327,62.10956632
11.7800,36.61084177,16.74063709,95.10149696
11.7850,45.40566744,4.635635465,83.19135129
11.7900,50.77124643,3.488011883,56.50334137
11.7950,43.72475957,-5.02851268,38.72010103
11.8000,38.87311341,-2.707213027,40.7581883
11.8050,37.74705677,-3.104943652,37.78230787
11.8100,49.5574325,-3.422387098,25.50454143
11.8150,44.73794671,-12.27090645,17.45483006
11.8200,47.84320685,-23.02648492,21.22449953
11.8250,32.55091033,-20.61375417,40.87586497
11.8300,12.30396742,-3.337703649,74.46123292
11.8350,28.67300052,9.933220211,76.12178775
11.8400,22.54975274,12.33499836,72.84125327
11.8450,42.71958181,7.600148005,53.48807388
11.8500,46.6410791,0.557131524,45.46254654
11.8550,47.09232133,0.1728511684,35.98498555
11.8600,65.41066417,0.9339175746,31.65691109
11.8650,70.75986447,-16.98495937,39.07802075
11.8700,63.78972512,-26.5892783,56.59386111
11.8750,57.40278084,-32.96375653,69.57301373
11.8800,40.37621685,-28.13513129,73.69828609
11.8850,35.21003842,-35.27351595,53.29039367
11.8900,28.81241541,-41.13486226,47.26140779
11.8950,13.17634906,-38.75620144,49.58071005
11.9000,7.600610715,-36.94104163,53.96839416
11.9050,3.303475816,-31.70079086,60.43774834
11.9100,21.03817689,-12.30856947,48.99713896
11.9150,29.15272215,-9.305602061,31.71796149
11.9200,21.65447446,-5.592469158,38.72997072
11.9250,4.606776407,-18.70948453,46.46507237
11.9300,-9.046885274,-9.219780401,50.80679578
11.9350,1.793971733,2.915075741,40.35259949
11.9400,0.4011408987,4.328586978,38.86225072
11.9450,-9.76310569,0.9556568635,52.39385652
11.9500,-2.566161394,-1.449261143,53.19714061
11.9550,-10.51768327,13.65284717,53.64443592
11.9600,-10.11414697,10.21517297,40.5294363
11.9650,1.838991772,19.61838364,29.73752023
11.9700,-7.372749205,-6.471828754,26.69772668
11.9750,-1.289715466,5.058840336,35.0911457
11.9800,3.275035564,2.481315977,31.51297117
11.9850,-13.09981536,-9.798676794,25.26035301
11.9900,-14.82410638,-12.47225919,32.89626874
11.9950,-28.99698054,-12.59179532,33.51209715
12.0000,-31.59982376,-0.3781895277,40.57582506
12.0050,-14.44262946,6.44365072,32.3652493
12.0100,3.037004048,9.433686774,16.73394852
12.0150,17.90806522,-2.55748804,11.4534194
12.0200,10.5269529,1.484136342,30.11663895
12.0250,3.734306387,-4.044367197,47.03382789
12.0300,1.062703001,3.942685451,54.06487786
12.0350,9.379904188,-0.419018108,31.84194485
12.0400,32.51319643,-2.796674374,15.97171002
12.0450,21.1723195,-25.44165968,15.17440784
12.0500,26.28438934,-31.62892643,23.54131849
12.0550,20.43816334,-27.48552404,26.12050354
12.0600,23.9546999,-37.29683483,27.43619084
12.0650,22.56880173,-38.98028513,27.55161282
12.0700,8.23945323,-35.81850527,39.415355
12.0750,11.13619957,-31.96872538,36.93444653
12.0800,-1.915428371,-32.26412285,34.94115955
12.0850,-8.60617633,-24.99763516,49.42073732
12.0900,-22.30946975,-14.29636166,64.07051541
12.0950,-29.7994059,-0.8483382265,66.70606488
12.1000,-34.88392638,21.25666733,57.15437115
12.1050,7.57476059,35.89255129,33.15246405
12.1100,31.89537832,40.34513182,17.86754722
12.1150,41.97561597,33.05695257,8.267140093
12.1200,51.99982532,32.19765899,5.718864429
12.1250,40.92483992,20.55468429,-3.656021893
12.1300,45.99943659,12.35418338,-7.944441917
12.1350,61.03067142,7.680660451,2.865959719
12.1400,57.52048832,2.800058908,14.33949189
12.1450,43.59702731,4.310020561,23.86872835
12.1500,45.48636568,-13.52242901,27.08077681
12.1550,39.12092709,-2.957349716,35.94792532
12.1600,7.17798054,-3.404851276,41.96624816
12.1650,-8.007649901,5.396462525,53.95368185
12.1700,-14.84594055,18.9380457,54.01457413
12.1750,-24.22171548,30.53478206,45.30485256
12.1800,-20.37968251,40.85612726,41.04010111
12.1850,-3.438128527,30.03348927,31.32087165
12.1900,27.71991897,12.63956197,25.0295875
12.1950,32.5342786,8.167250153,9.040337624
12.2000,41.81515808,6.569741435,2.049514955
12.2050,34.49781623,-6.932583876,3.381825827
12.2100,45.80406762,1.127664172,24.76892003
12.2150,27.81135391,8.452793588,29.34912347
12.2200,15.54042827,2.806605428,28.19139635
12.2250,22.73672996,10.59537676,18.69147855
12.2300,35.78425135,-0.4636801427,10.35788651
12.2350,51.77770153,2.921126278,18.65832766
12.2400,48.16477205,-1.078080964,25.57685121
12.2450,29.20482785,-8.568761252,23.59212913
12.2500,35.97622773,-4.478407399,28.10469461
12.2550,29.81858535,-5.803242728,28.71616941
12.2600,34.13102439,-4.814519342,41.23577723
12.2650,34.11955774,-11.39046415,47.19857809
12.2700,23.12572042,-4.199949938,45.2534549
12.2750,27.39377358,-5.811398425,35.08851762
12.2800,35.70863984,-2.734617939,29.3799638
12.2850,39.91098718,-10.46682977,34.47490142
12.2900,40.82069062,-1.733485982,44.91940014
12.2950,19.60802807,2.053854897,38.77044279
12.3000,10.15611617,8.231926354,33.14856644
12.3050,10.89618756,1.586755662,19.58988216
12.3100,31.43621572,14.70463007,14.47149896
12.3150,49.93346192,-4.283452138,3.704145412
12.3200,54.28223287,-4.848086908,-1.544040913
12.3250,61.93251405,-9.902394281,10.7004224
12.3300,67.75528157,-12.26688393,10.80867374
12.3350,64.91998671,-10.76094559,15.23899372
12.3400,69.6366264,-21.16096528,20.32890575
12.3450,63.87625227,-23.97617976,21.27445053
12.3500,60.60818633,-19.12947841,26.0665547
12.3550,53.93439149,-37.56997348,22.28741724
12.3600,41.98723678,-26.50664786,60.93041844
12.3650,47.49523974,-12.71307498,43.03933869
12.3700,57.38949119,-41.27525941,-28.82133224
12.3750,28.14915621,-62.97403769,15.51138182
12.3800,12.57015255,-41.23614899,34.15319652
12.3850,3.994874913,-46.08556374,19.09266929
12.3900,14.80388418,-57.45804201,4.698635603
12.3950,18.75505231,-56.29579174,2.356850017
12.4000,25.18733118,-43.59618122,6.760788533
12.4050,46.92499914,-48.57039594,9.798044687
12.4100,49.61447691,-37.83826476,12.17808114
12.4150,42.14262759,-37.6069163,6.279895261
12.4200,37.1463467,-32.31506828,-6.974038276
12.4250,47.71572733,-41.44483594,-7.225270566
12.4300,50.04634185,-41.92226141,-14.1663952
12.4350,63.09224381,-44.84169495,-13.21835994
12.4400,54.7994149,-61.04665408,-9.615068754
12.4450,53.8744901,-39.56641606,-9.63742224
12.4500,60.12328754,-42.03829317,-2.48369387
12.4550,48.29062789,-29.42754937,-2.774181222
12.4600,58.83891807,-42.9850485,2.027883378
12.4650,51.71023225,-46.16395282,2.761618522
12.4700,44.20764593,-51.78210263,2.81301336
12.4750,30.74490292,-36.3266528,3.947148271
12.4800,20.67496213,-40.8594492,5.383041024
12.4850,9.570751617,-40.6807799,-1.226397255
12.4900,12.84723741,-30.01500162,3.678597963
12.4950,7.995967883,-24.10827598,7.683214037
12.5000,10.5190093,-22.57450027,10.26398936
12.5050,9.357052553,-20.2787256,9.615441404
12.5100,10.45589305,-1.70116113,11.13914079
12.5150,1.474316493,-4.646143489,14.54426027
12.5200,3.626517461,-6.398955468,17.99475348
12.5250,9.658478334,-7.625137066,13.7205445
12.5300,9.520816952,-25.40652752,9.915122339
12.5350,1.415399449,-19.40073225,11.75396949
12.5400,-4.493995414,-15.00046801,14.50585718
12.5450,-5.940653248,-15.51329467,18.03110963
12.5500,-8.352145944,-3.465652685,10.9084767
12.5550,-5.090726762,-9.328769107,13.06713954
12.5600,-5.783559528,-9.661823385,17.55260479
12.5650,-9.204159956,-16.87216365,17.48073129
12.5700,-15.06569283,-4.461444076,18.47059385
12.5750,-21.00870039,-7.387499182,20.28395821
12.5800,-33.86308478,3.956749312,17.89293927
12.5850,-16.98668406,2.588151129,17.5122434
12.5900,-24.01157564,6.033303181,27.54158164
12.5950,-26.25636976,-1.180865727,28.7298691
12.6000,-23.68509065,18.15263346,28.05781803
12.6050,-16.21717961,8.998597222,26.28126757
12.6100,-19.07052809,16.7236365,29.66261923
12.6150,-9.916258248,20.11074579,43.5062937
12.6200,-15.0917233,22.0698423,46.19277268
12.6250,-25.64099689,29.05915847,34.33316818
12.6300,-18.09646885,37.60893251,34.21540694
12.6350,-18.27868151,17.76915306,25.12556086
12.6400,-9.563394502,17.83635244,18.75422171
12.6450,-14.29682408,21.59279226,17.98011604
12.6500,-17.02749263,17.10767653,15.87912852
12.6550,-8.43017734,4.550351589,17.71132448
12.6600,-11.85158734,-4.670961974,17.97698441
12.6650,-9.647931927,-0.815110859,18.54260874
12.6700,-8.309827807,-5.971361294,18.98375243
12.6750,-15.69330149,-8.6666696,12.45290729
12.6800,-17.58456968,-11.73362333,21.44651459
12.6850,-17.18144356,-2.777194001,23.66443281
12.6900,-1.023410889,8.208421003,37.70714065
12.6950,1.309013717,-2.602364735,35.8457646
12.7000,-6.872210919,6.419911748,36.55451299
12.7050,-5.810955502,1.779018463,40.41977145
12.7100,-8.576831856,7.318563542,37.47113265
12.7150,-11.80758079,9.042070376,35.99627254
12.7200,-14.38834058,13.37559723,32.80421824
12.7250,-20.15106051,-14.03487061,27.26062453
12.7300,7.508449438,-7.773446699,26.84003908
12.7350,11.6560234,-28.96344616,24.58716045
12.7400,18.57204975,-15.27364849,23.77381728
12.7450,3.080400909,-11.99996163,10.20732197
12.7500,-7.041726134,7.67794736,2.001162412
12.7550,-15.06763387,20.18527174,1.070022682
12.7600,-13.22029587,25.56237657,14.4562355
12.7650,1.046311551,28.44581166,18.7522897
12.7700,-5.911623009,24.07408972,14.56484845
12.7750,-17.16393794,32.55992703,8.434933602
12.7800,-22.30398011,43.24168076,3.929972704
12.7850,-17.94348127,41.83930334,0.001468952212
12.7900,-21.93090228,41.4313027,-5.5992069
12.7950,-21.34537228,26.06816693,-2.97682687
12.8000,-20.68326561,23.37629364,5.822007194
12.8050,-16.7021994,35.58756216,-1.116903932
12.8100,-12.68881572,38.29221181,0.9609148777
12.8150,-10.81414597,34.00984714,-6.736669457
12.8200,-5.392534664,41.87457861,-3.02863961
12.8250,-2.93868059,50.03813848,-13.77775358
12.8300,-2.694812782,29.15231537,-3.104381688
12.8350,6.430440958,33.92257818,3.025841997
12.8400,6.666135401,47.98139901,9.191285894
12.8450,7.572533408,41.34626673,5.98857925
12.8500,-1.660392031,42.30692407,17.80913657
12.8550,-13.87498833,57.53597175,21.21367896
12.8600,-13.53642343,71.4789157,28.22765676
12.8650,-18.87305408,70.22421072,24.88909147
12.8700,-5.345276861,79.83660917,33.036869
12.8750,-0.8005566689,61.76389041,32.04961729
12.8800,-6.371817931,52.32289734,27.03876397
12.8850,-23.57994987,45.04692748,5.259358966
12.8900,-26.10905803,27.11899642,-5.421294758
12.8950,-29.18082331,23.09856812,-19.50260289
12.9000,-29.23728479,23.50033082,-16.39777827
12.9050,-38.10080532,20.0841124,-9.003353821
12.9100,-36.64509085,43.71228633,-11.81630242
12.9150,-36.82372402,37.85114677,-13.06203088
12.9200,-40.50462772,33.72572739,-6.061685082
12.9250,-41.55914287,38.53478088,-7.666349471
12.9300,-36.75799815,48.44966195,0.5539649624
12.9350,-58.99485237,54.45159057,-6.791747606
12.9400,-80.52508288,67.74288235,-12.33751592
12.9450,-92.88674565,73.41425209,-17.75154755
12.9500,-104.5428046,60.79395888,-18.80555642
12.9550,-123.1191966,56.93370773,-26.20672003
12.9600,-142.3653432,57.87587476,-16.96553849
12.9650,-149.0845351,53.88140856,-13.10765614
12.9700,-138.2053679,46.0020687,-8.637561055
12.9750,-106.1520868,44.10824314,0.8640484015
12.9800,-92.74803469,19.78301934,12.95039803
12.9850,-78.5367105,24.85364335,14.45663549
12.9900,-62.86127211,11.68417901,8.501445514
12.9950,-39.35156932,5.712029578,10.94102798
13.0000,-32.16126687,14.66734161,10.03774486
13.0050,-15.17720338,25.04396367,14.01782116
13.0100,7.314435314,30.62328657,24.63667902
13.0150,19.02882393,24.55286032,19.75873283
13.0200,29.26906132,10.75398796,9.631004382
13.0250,32.36922638,-0.06066273086,6.749541166
13.0300,18.94197261,1.125234939,-1.961751167
13.0350,16.46835873,-2.994955274,-5.764666597
13.0400,9.651415147,20.2668263,-2.05304191
13.0450,11.14820287,28.94350884,10.19998398
13.0500,17.66845599,39.43923709,13.13636484
13.0550,25.62292579,26.84194655,6.067387491
13.0600,15.30494482,11.85822825,-7.551245323
13.0650,7.809788577,-4.963421356,-7.357742277
13.0700,12.99172512,-6.082341107,-9.161609687
13.0750,37.66883646,-15.31398711,0.5654749002
13.0800,33.69948965,-28.67049639,4.752193324
13.0850,36.80063051,-18.88020131,1.632145394
13.0900,17.65148433,-22.84441655,1.375836165
13.0950,12.60319586,-13.12697484,-5.730115665
13.1000,14.65808423,-9.475052148,-5.04499549
13.1050,8.563702871,-25.6273816,-4.424376969
13.1100,-17.82144163,0.498268596,-12.42080332
13.1150,-53.72531602,-6.801180402,-10.6500656
13.1200,-86.34254245,-0.2980918391,-3.028215939
13.1250,-93.3533786,12.76498822,6.961293351
13.1300,-99.12450185,25.94439887,6.495116631
13.1350,-88.19833516,16.86224081,9.125810008
13.1400,-66.43976631,7.318800409,13.45071987
13.1450,-44.00838818,14.40789485,12.32597908
13.1500,-18.05565186,11.20139803,29.28487226
13.1550,-0.6334076629,8.482262001,25.47962112
13.1600,22.98071574,3.895779357,30.56570237
13.1650,35.28294445,-1.58103618,32.43616084
13.1700,34.84646062,6.970195179,37.63306277
13.1750,35.15785873,3.284399488,33.71923127
13.1800,31.38045298,-11.40517228,20.94672088
13.1850,33.24923472,-20.96786388,13.59297511
13.1900,17.88120686,-40.58933374,6.577417493
13.1950,26.21773236,-21.89271369,1.632986889
13.2000,4.333549471,-28.71159582,-11.30225064
13.2050,-4.607647501,-30.4935733,-13.72555767
13.2100,9.874470977,-29.4108643,-18.73908989
13.2150,6.283403861,-42.79087828,-18.89333802
13.2200,-1.944699541,-58.7592187,-9.810687098
13.2250,-23.27341287,-43.77817962,-17.22694529
13.2300,-22.27306012,-39.10329273,-9.997287485
13.2350,-8.672738798,-29.25316906,-1.770961511
13.2400,-10.03186003,-38.21539638,2.986556375
13.2450,7.738896526,-21.71149029,2.628288168
13.2500,26.43690364,-10.67555802,-11.0565661
13.2550,40.53897369,-21.13056748,-5.201122494
13.2600,38.98395075,-14.59765703,9.218869045
13.2650,50.06495713,1.629368564,32.13669106
13.2700,42.61906505,29.59337008,36.06496346
13.2750,28.3953128,51.16645741,28.73703432
13.2800,21.98032215,51.66751051,34.30967551
13.2850,7.601928231,40.58067344,35.47006959
13.2900,-6.079208471,47.79273944,19.29498495
13.2950,-16.70929625,24.26878991,22.17077369
13.3000,-44.2167854,18.82006888,2.531544392
13.3050,-57.39955122,26.63173408,-10.34651009
13.3100,-64.94281765,23.4845809,2.268003286
13.3150,-65.58417189,16.17157313,14.6381238
13.3200,-64.38421475,31.36820479,20.16341011
13.3250,-70.77396986,20.66300505,28.59561454
13.3300,-77.07208086,31.13891441,31.76953029
13.3350,-67.63378633,47.9592754,31.6305427
13.3400,-68.57459851,60.63566381,31.76962259
13.3450,-60.20776173,38.12405817,26.6205386
13.3500,-48.93550922,38.35950068,30.00892786
13.3550,-29.24549478,44.80670778,32.21616386
13.3600,-10.74487587,36.8826035,34.78998982
13.3650,-19.67118638,33.87515255,24.92920212
13.3700,-23.04799482,43.17082954,9.478108842
13.3750,-14.61299295,35.497342,11.02052493
13.3800,-22.59814746,42.50495312,8.384286999
13.3850,-14.66573439,47.69290328,12.74280401
13.3900,-16.7359099,33.51471475,20.51610867
13.3950,-26.38967897,47.48162862,17.16765911
13.4000,-25.91983657,58.96864809,26.46326524
13.4050,-35.96316257,56.83027382,22.05174414
13.4100,-29.73321165,65.46720121,26.62574092
13.4150,-48.3713444,69.92065889,22.07281496
13.4200,-40.32171216,62.34932129,32.00060197
13.4250,-49.55311782,58.24082081,22.26420555
13.4300,-45.70152355,54.74085806,18.17414606
13.4350,-46.86336899,49.87592456,6.375942212
13.4400,-36.90410959,30.46172695,11.56706466
13.4450,-24.75382885,41.12049879,10.16313735
13.4500,-9.547630671,29.34669878,26.61552625
13.4550,-3.692094087,28.45830571,30.70550618
13.4600,-4.81811317,31.27840978,36.50312004
13.4650,-8.794875456,39.49862473,38.58671428
13.4700,-9.037875127,51.11122396,44.1095493
13.4750,-15.19802306,52.30658985,44.56332275
13.4800,8.049548311,50.83289745,59.31952868
13.4850,10.1105424,48.60326418,54.02552833
13.4900,6.774859568,32.17128904,52.44800489
