type,name,time_units,begin_time,frequency,count,units
signal,"Noraxon Ultium-RT BRACHIORAD.","s",0.00000,2000,51720,"uV"

time,value
0.00000,-31.11686531
0.00050,-47.90255773
0.00100,-55.53241792
0.00150,-64.07786134
0.00200,-77.81160968
0.00250,-93.07133007
0.00300,-105.8894952
0.00350,-115.9609106
0.00400,-120.5388268
0.00450,-111.3829945
0.00500,-84.22069225
0.00550,-45.46100247
0.00600,-7.616895912
0.00650,20.15579519
0.00700,37.85707084
0.00750,51.89601359
0.00800,69.29209483
0.00850,91.57128659
0.00900,112.6297007
0.00950,123.311505
0.01000,118.1232001
0.01050,97.67517474
0.01100,68.68170601
0.01150,40.6038205
0.01200,21.07137841
0.01250,10.38957414
0.01300,4.285685988
0.01350,-1.513007758
0.01400,-6.701312689
0.01450,-8.837673543
0.01500,-10.36364558
0.01550,-14.02597847
0.01600,-18.909089
0.01650,-20.74025544
0.01700,-17.07792255
0.01750,-10.66883999
0.01800,-5.785729466
0.01850,-2.733785389
0.01900,0.3181586879
0.01950,7.337630065
0.02000,18.32462874
0.02050,29.92201623
0.02100,36.94148761
0.02150,38.46745965
0.02200,37.55187643
0.02250,36.6362932
0.02300,34.80512676
0.02350,29.92201623
0.02400,24.7337113
0.02450,23.81812808
0.02500,29.00643301
0.02550,36.3310988
0.02600,40.90901491
0.02650,40.6038205
0.02700,35.11032117
0.02750,25.95448893
0.02800,16.18826789
0.02850,11.61035177
0.02900,12.8311294
0.02950,14.96749026
0.03000,13.74671263
0.03050,10.69476855
0.03100,10.08437973
0.03150,11.61035177
0.03200,11.91554618
0.03250,10.69476855
0.03300,9.473990919
0.03350,9.168796511
0.03400,8.558407696
0.03450,7.337630065
0.03500,6.116852434
0.03550,3.98049158
0.03600,-0.9026189429
0.03650,-7.616895912
0.03700,-11.2792288
0.03750,-8.837673543
0.03800,-3.649368612
0.03850,-1.513007758
0.03900,-5.175340651
0.03950,-12.19481203
0.04000,-19.21428341
0.04050,-21.35064426
0.04100,-18.60389459
0.04150,-14.33117288
0.04200,-13.72078407
0.04250,-16.46753374
0.04300,-17.99350577
0.04350,-15.85714492
0.04400,-14.02597847
0.04450,-14.63636729
0.04500,-15.55195051
0.04550,-14.9415617
0.04600,-15.55195051
0.04650,-19.21428341
0.04700,-22.57142189
0.04750,-20.43506104
0.04800,-14.63636729
0.04850,-10.36364558
0.04900,-10.66883999
0.04950,-14.02597847
0.05000,-18.29870018
0.05050,-22.26622748
0.05100,-24.40258834
0.05150,-22.57142189
0.05200,-18.60389459
0.05250,-15.85714492
0.05300,-15.85714492
0.05350,-17.68831137
0.05400,-20.12986663
0.05450,-21.96103307
0.05500,-19.51947781
0.05550,-12.80520084
0.05600,-6.701312689
0.05650,-7.311701505
0.05700,-12.80520084
0.05750,-17.68831137
0.05800,-21.65583867
0.05850,-29.28569886
0.05900,-38.44153109
0.05950,-43.01944721
0.06000,-43.01944721
0.06050,-45.46100247
0.06100,-51.87008503
0.06150,-52.78566825
0.06200,-42.10386398
0.06250,-28.98050445
0.06300,-25.62336597
0.06350,-32.03244853
0.06400,-38.44153109
0.06450,-39.96750313
0.06500,-40.27269754
0.06550,-43.32464161
0.06600,-47.59736332
0.06650,-50.95450181
0.06700,-54.92202911
0.06750,-60.11033404
0.06800,-62.24669489
0.06850,-56.14280674
0.06900,-42.10386398
0.06950,-22.26622748
0.07000,0.6233530956
0.07050,25.34410012
0.07100,47.31809747
0.07150,63.79859549
0.07200,74.78559417
0.07250,81.80506554
0.07300,84.55181521
0.07350,84.85700962
0.07400,85.77259284
0.07450,89.43492574
0.07500,92.48686981
0.07550,88.82453692
0.07600,76.0063718
0.07650,58.30509615
0.07700,42.12979254
0.07750,31.14279387
0.07800,25.03890571
0.07850,20.766184
0.07900,16.18826789
0.07950,11.61035177
0.08000,8.558407696
0.08050,7.642824473
0.08100,6.422046842
0.08150,4.285685988
0.08200,3.675297173
0.08250,8.863602104
0.08300,18.62982315
0.08350,27.48046097
0.08400,30.83759946
0.08450,29.00643301
0.08500,26.25968334
0.08550,23.81812808
0.08600,21.68176723
0.08650,18.01943433
0.08700,14.05190703
0.08750,11.61035177
0.08800,8.558407696
0.08850,2.149325134
0.08900,-6.396118282
0.08950,-12.19481203
0.09000,-10.36364558
0.09050,-4.870146243
0.09100,-1.818202166
0.09150,-1.818202166
0.09200,-1.513007758
0.09250,0.3181586879
0.09300,0.3181586879
0.09350,-1.513007758
0.09400,-2.428590981
0.09450,-1.513007758
0.09500,-1.513007758
0.09550,-2.428590981
0.09600,-1.818202166
0.09650,0.6233530956
0.09700,0.9285475033
0.09750,-3.038979797
0.09800,-7.006507097
0.09850,-7.616895912
0.09900,-8.532479135
0.09950,-12.19481203
0.10000,-15.55195051
0.10050,-13.11039525
0.10100,-7.616895912
0.10150,-5.175340651
0.10200,-6.396118282
0.10250,-7.006507097
0.10300,-5.175340651
0.10350,-3.649368612
0.10400,-2.123396574
0.10450,0.3181586879
0.10500,1.233741911
0.10550,-1.513007758
0.10600,-6.396118282
0.10650,-6.396118282
0.10700,-1.207813351
0.10750,3.064908357
0.10800,5.201269211
0.10850,7.032435657
0.10900,9.473990919
0.10950,8.863602104
0.11000,4.896074803
0.11050,2.454519542
0.11100,3.370102765
0.11150,2.454519542
0.11200,-3.649368612
0.11250,-9.448062359
0.11300,-7.311701505
0.11350,-0.5974245352
0.11400,0.3181586879
0.11450,-7.616895912
0.11500,-17.38311696
0.11550,-20.74025544
0.11600,-17.68831137
0.11650,-13.41558966
0.11700,-10.66883999
0.11750,-7.92209032
0.11800,-2.428590981
0.11850,4.590880396
0.11900,10.69476855
0.11950,13.44151822
0.12000,13.44151822
0.12050,11.61035177
0.12100,9.779185327
0.12150,10.08437973
0.12200,12.525935
0.12250,15.27268467
0.12300,14.66229585
0.12350,10.99996296
0.12400,9.168796511
0.12450,10.69476855
0.12500,11.91554618
0.12550,7.94801888
0.12600,2.75971395
0.12650,3.064908357
0.12700,5.201269211
0.12750,0.6233530956
0.12800,-9.753256766
0.12850,-14.63636729
0.12900,-6.701312689
0.12950,3.98049158
0.13000,7.337630065
0.13050,7.032435657
0.13100,12.8311294
0.13150,23.51293367
0.13200,29.61682183
0.13250,28.3960442
0.13300,27.48046097
0.13350,29.92201623
0.13400,29.92201623
0.13450,23.81812808
0.13500,18.01943433
0.13550,18.01943433
0.13600,21.37657282
0.13650,22.29215604
0.13700,19.85060078
0.13750,18.01943433
0.13800,18.01943433
0.13850,18.01943433
0.13900,17.40904552
0.13950,15.88307348
0.14000,14.66229585
0.14050,14.05190703
0.14100,13.44151822
0.14150,12.22074059
0.14200,10.08437973
0.14250,8.558407696
0.14300,8.558407696
0.14350,8.558407696
0.14400,6.422046842
0.14450,3.675297173
0.14500,3.675297173
0.14550,6.116852434
0.14600,7.032435657
0.14650,3.370102765
0.14700,-2.428590981
0.14750,-9.142867951
0.14800,-15.55195051
0.14850,-20.12986663
0.14900,-20.43506104
0.14950,-16.46753374
0.15000,-12.80520084
0.15050,-12.80520084
0.15100,-13.11039525
0.15150,-10.9740344
0.15200,-8.227284728
0.15250,-8.837673543
0.15300,-11.58442321
0.15350,-11.2792288
0.15400,-7.006507097
0.15450,-3.344174205
0.15500,-5.785729466
0.15550,-14.63636729
0.15600,-23.48700511
0.15650,-25.62336597
0.15700,-20.12986663
0.15750,-10.66883999
0.15800,-1.513007758
0.15850,8.253213288
0.15900,20.766184
0.15950,34.80512676
0.16000,44.87654221
0.16050,48.84406951
0.16100,49.14926392
0.16150,48.2336807
0.16200,45.48693103
0.16250,39.38304287
0.16300,30.53240505
0.16350,21.37657282
0.16400,14.66229585
0.16450,11.30515737
0.16500,10.69476855
0.16550,10.38957414
0.16600,8.253213288
0.16650,5.201269211
0.16700,1.538936319
0.16750,-1.207813351
0.16800,-2.428590981
0.16850,0.3181586879
0.16900,2.75971395
0.16950,-4.259757428
0.17000,-22.8766163
0.17050,-39.05191991
0.17100,-40.88308635
0.17150,-33.25322616
0.17200,-30.8116709
0.17250,-34.7791982
0.17300,-34.47400379
0.17350,-27.14933801
0.17400,-21.96103307
0.17450,-20.43506104
0.17500,-10.05845117
0.17550,14.05190703
0.17600,39.38304287
0.17650,51.59081918
0.17700,54.94795767
0.17750,59.52587378
0.17800,63.79859549
0.17850,58.91548497
0.17900,46.40251425
0.17950,36.02590439
0.18000,31.75318268
0.18050,27.48046097
0.18100,20.4609896
0.18150,16.4934623
0.18200,17.40904552
0.18250,18.62982315
0.18300,16.18826789
0.18350,13.13632381
0.18400,12.8311294
0.18450,13.74671263
0.18500,12.8311294
0.18550,10.38957414
0.18600,7.94801888
0.18650,5.506463619
0.18700,1.844130726
0.18750,-1.818202166
0.18800,-3.649368612
0.18850,-5.175340651
0.18900,-9.448062359
0.18950,-15.2467561
0.19000,-17.99350577
0.19050,-14.9415617
0.19100,-11.2792288
0.19150,-11.88961762
0.19200,-15.2467561
0.19250,-14.33117288
0.19300,-5.480535058
0.19350,5.811658027
0.19400,13.74671263
0.19450,16.4934623
0.19500,16.18826789
0.19550,13.44151822
0.19600,7.032435657
0.19650,-0.9026189429
0.19700,-6.090923874
0.19750,-6.701312689
0.19800,-5.480535058
0.19850,-6.396118282
0.19900,-10.9740344
0.19950,-18.60389459
0.20000,-28.06492123
0.20050,-38.13633668
0.20100,-46.07139128
0.20150,-48.51294654
0.20200,-45.76619688
0.20250,-42.10386398
0.20300,-41.18828076
0.20350,-43.62983602
0.20400,-43.62983602
0.20450,-37.22075346
0.20500,-28.06492123
0.20550,-24.70778274
0.20600,-31.42205971
0.20650,-38.7467255
0.20700,-34.47400379
0.20750,-18.29870018
0.20800,-2.428590981
0.20850,3.370102765
0.20900,4.590880396
0.20950,10.99996296
0.21000,23.20773927
0.21050,31.14279387
0.21100,30.53240505
0.21150,25.64929453
0.21200,20.766184
0.21250,12.525935
0.21300,-1.207813351
0.21350,-15.55195051
0.21400,-24.09739393
0.21450,-26.8441436
0.21500,-27.75972682
0.21550,-25.62336597
0.21600,-16.16233933
0.21650,-2.123396574
0.21700,9.168796511
0.21750,14.35710144
0.21800,17.71423993
0.21850,23.81812808
0.21900,31.44798827
0.21950,35.72070998
0.22000,35.41551557
0.22050,30.83759946
0.22100,21.98696163
0.22150,10.99996296
0.22200,2.149325134
0.22250,-1.818202166
0.22300,-2.733785389
0.22350,-3.344174205
0.22400,-4.870146243
0.22450,-6.396118282
0.22500,-7.311701505
0.22550,-8.837673543
0.22600,-11.2792288
0.22650,-13.72078407
0.22700,-14.63636729
0.22750,-14.63636729
0.22800,-14.9415617
0.22850,-16.77272814
0.22900,-19.21428341
0.22950,-21.35064426
0.23000,-22.26622748
0.23050,-21.65583867
0.23100,-21.04544985
0.23150,-21.96103307
0.23200,-24.40258834
0.23250,-25.62336597
0.23300,-23.48700511
0.23350,-21.35064426
0.23400,-22.26622748
0.23450,-25.01297715
0.23500,-25.62336597
0.23550,-22.26622748
0.23600,-18.909089
0.23650,-20.43506104
0.23700,-26.23375478
0.23750,-32.33764294
0.23800,-36.30517024
0.23850,-38.7467255
0.23900,-39.35711431
0.23950,-36.91555905
0.24000,-32.03244853
0.24050,-24.70778274
0.24100,-14.63636729
0.24150,-4.259757428
0.24200,0.9285475033
0.24250,-0.2922301275
0.24300,-4.564951835
0.24350,-5.175340651
0.24400,-2.428590981
0.24450,-2.123396574
0.24500,-4.870146243
0.24550,-5.175340651
0.24600,-2.428590981
0.24650,-0.5974245352
0.24700,-4.259757428
0.24750,-11.2792288
0.24800,-17.99350577
0.24850,-22.57142189
0.24900,-24.40258834
0.24950,-23.48700511
0.25000,-22.26622748
0.25050,-24.40258834
0.25100,-29.59089327
0.25150,-32.94803175
0.25200,-33.55842057
0.25250,-35.08439261
0.25300,-39.05191991
0.25350,-41.49347517
0.25400,-40.27269754
0.25450,-36.61036464
0.25500,-31.72725412
0.25550,-22.57142189
0.25600,-10.66883999
0.25650,-1.207813351
0.25700,2.454519542
0.25750,4.590880396
0.25800,9.168796511
0.25850,14.05190703
0.25900,14.35710144
0.25950,10.69476855
0.26000,8.558407696
0.26050,8.558407696
0.26100,8.558407696
0.26150,6.72724125
0.26200,3.675297173
0.26250,0.3181586879
0.26300,-1.818202166
0.26350,-2.123396574
0.26400,-1.207813351
0.26450,-0.9026189429
0.26500,-2.123396574
0.26550,-2.123396574
0.26600,0.01296428019
0.26650,1.538936319
0.26700,-1.513007758
0.26750,-10.05845117
0.26800,-18.29870018
0.26850,-22.26622748
0.26900,-22.8766163
0.26950,-23.79219952
0.27000,-28.06492123
0.27050,-33.55842057
0.27100,-34.16880938
0.27150,-26.8441436
0.27200,-14.63636729
0.27250,-5.480535058
0.27300,-4.259757428
0.27350,-10.9740344
0.27400,-21.04544985
0.27450,-29.28569886
0.27500,-32.94803175
0.27550,-31.72725412
0.27600,-27.45453241
0.27650,-21.65583867
0.27700,-17.07792255
0.27750,-14.9415617
0.27800,-14.33117288
0.27850,-10.05845117
0.27900,0.9285475033
0.27950,16.7986567
0.28000,30.83759946
0.28050,39.38304287
0.28100,43.65576458
0.28150,44.5713478
0.28200,41.82459814
0.28250,35.72070998
0.28300,29.31162742
0.28350,25.95448893
0.28400,24.7337113
0.28450,22.29215604
0.28500,17.71423993
0.28550,11.61035177
0.28600,5.811658027
0.28650,1.844130726
0.28700,-1.207813351
0.28750,-5.175340651
0.28800,-10.05845117
0.28850,-12.80520084
0.28900,-10.05845117
0.28950,-3.649368612
0.29000,1.844130726
0.29050,4.285685988
0.29100,6.422046842
0.29150,10.38957414
0.29200,13.13632381
0.29250,11.91554618
0.29300,8.253213288
0.29350,5.506463619
0.29400,3.370102765
0.29450,-2.123396574
0.29500,-11.58442321
0.29550,-18.909089
0.29600,-20.43506104
0.29650,-17.99350577
0.29700,-16.46753374
0.29750,-15.85714492
0.29800,-13.11039525
0.29850,-7.616895912
0.29900,-2.428590981
0.29950,-0.2922301275
0.30000,-0.5974245352
0.30050,0.01296428019
0.30100,1.844130726
0.30150,6.116852434
0.30200,10.99996296
0.30250,12.525935
0.30300,5.506463619
0.30350,-10.05845117
0.30400,-27.14933801
0.30450,-34.7791982
0.30500,-31.11686531
0.30550,-23.79219952
0.30600,-20.43506104
0.30650,-20.74025544
0.30700,-20.43506104
0.30750,-18.29870018
0.30800,-14.9415617
0.30850,-8.532479135
0.30900,3.370102765
0.30950,19.85060078
0.31000,33.88954354
0.31050,37.24668202
0.31100,28.3960442
0.31150,10.08437973
0.31200,-10.36364558
0.31250,-25.31817156
0.31300,-29.59089327
0.31350,-24.40258834
0.31400,-15.55195051
0.31450,-7.92209032
0.31500,-3.649368612
0.31550,-1.207813351
0.31600,1.844130726
0.31650,8.558407696
0.31700,18.93501756
0.31750,29.31162742
0.31800,37.55187643
0.31850,42.12979254
0.31900,43.65576458
0.31950,41.21420932
0.32000,34.49993235
0.32050,25.95448893
0.32100,18.32462874
0.32150,14.66229585
0.32200,14.05190703
0.32250,14.96749026
0.32300,13.74671263
0.32350,10.08437973
0.32400,5.811658027
0.32450,4.285685988
0.32500,4.896074803
0.32550,6.72724125
0.32600,8.863602104
0.32650,10.99996296
0.32700,12.8311294
0.32750,12.525935
0.32800,11.30515737
0.32850,10.69476855
0.32900,10.69476855
0.32950,9.473990919
0.33000,7.032435657
0.33050,6.116852434
0.33100,6.72724125
0.33150,7.337630065
0.33200,6.116852434
0.33250,4.590880396
0.33300,4.590880396
0.33350,5.811658027
0.33400,6.422046842
0.33450,5.811658027
0.33500,4.590880396
0.33550,3.064908357
0.33600,1.844130726
0.33650,1.538936319
0.33700,1.538936319
0.33750,0.3181586879
0.33800,-2.428590981
0.33850,-5.480535058
0.33900,-5.175340651
0.33950,0.01296428019
0.34000,6.72724125
0.34050,10.38957414
0.34100,8.558407696
0.34150,3.675297173
0.34200,0.9285475033
0.34250,0.9285475033
0.34300,-0.9026189429
0.34350,-8.837673543
0.34400,-19.21428341
0.34450,-28.37011564
0.34500,-35.38958701
0.34550,-39.96750313
0.34600,-40.88308635
0.34650,-36.30517024
0.34700,-30.20128208
0.34750,-27.45453241
0.34800,-27.14933801
0.34850,-21.35064426
0.34900,-7.006507097
0.34950,9.168796511
0.35000,20.766184
0.35050,26.56487775
0.35100,29.92201623
0.35150,31.14279387
0.35200,27.48046097
0.35250,18.32462874
0.35300,8.253213288
0.35350,0.9285475033
0.35400,-3.649368612
0.35450,-6.701312689
0.35500,-5.480535058
0.35550,0.01296428019
0.35600,4.285685988
0.35650,4.896074803
0.35700,6.72724125
0.35750,16.4934623
0.35800,31.14279387
0.35850,42.43498695
0.35900,45.79212544
0.35950,42.74018136
0.36000,36.02590439
0.36050,28.7012386
0.36100,24.12332249
0.36150,24.4285169
0.36200,24.12332249
0.36250,18.62982315
0.36300,12.8311294
0.36350,14.66229585
0.36400,23.51293367
0.36450,28.7012386
0.36500,25.34410012
0.36550,19.85060078
0.36600,18.32462874
0.36650,18.62982315
0.36700,16.4934623
0.36750,12.525935
0.36800,9.779185327
0.36850,6.72724125
0.36900,1.538936319
0.36950,-4.564951835
0.37000,-8.837673543
0.37050,-10.36364558
0.37100,-8.532479135
0.37150,-4.259757428
0.37200,0.6233530956
0.37250,2.75971395
0.37300,0.6233530956
0.37350,-0.9026189429
0.37400,-0.2922301275
0.37450,0.01296428019
0.37500,-1.818202166
0.37550,-3.344174205
0.37600,-1.207813351
0.37650,3.98049158
0.37700,9.473990919
0.37750,14.35710144
0.37800,18.93501756
0.37850,21.98696163
0.37900,21.07137841
0.37950,16.7986567
0.38000,11.61035177
0.38050,5.506463619
0.38100,-1.207813351
0.38150,-8.532479135
0.38200,-14.33117288
0.38250,-17.99350577
0.38300,-19.51947781
0.38350,-18.909089
0.38400,-16.77272814
0.38450,-15.2467561
0.38500,-13.72078407
0.38550,-9.753256766
0.38600,-2.123396574
0.38650,5.506463619
0.38700,9.473990919
0.38750,9.779185327
0.38800,10.08437973
0.38850,10.69476855
0.38900,7.642824473
0.38950,0.6233530956
0.39000,-3.649368612
0.39050,-0.2922301275
0.39100,7.337630065
0.39150,11.91554618
0.39200,10.99996296
0.39250,7.642824473
0.39300,3.675297173
0.39350,-2.123396574
0.39400,-8.227284728
0.39450,-8.227284728
0.39500,-1.207813351
0.39550,4.285685988
0.39600,1.844130726
0.39650,-5.175340651
0.39700,-8.837673543
0.39750,-6.090923874
0.39800,-2.733785389
0.39850,-2.733785389
0.39900,-5.480535058
0.39950,-8.532479135
0.40000,-11.2792288
0.40050,-12.80520084
0.40100,-14.02597847
0.40150,-18.29870018
0.40200,-25.01297715
0.40250,-28.98050445
0.40300,-26.53894919
0.40350,-21.04544985
0.40400,-20.12986663
0.40450,-24.09739393
0.40500,-26.53894919
0.40550,-25.01297715
0.40600,-22.57142189
0.40650,-22.57142189
0.40700,-23.79219952
0.40750,-24.40258834
0.40800,-24.40258834
0.40850,-21.65583867
0.40900,-10.36364558
0.40950,8.253213288
0.41000,25.95448893
0.41050,33.58434913
0.41100,31.75318268
0.41150,28.09084979
0.41200,29.31162742
0.41250,34.80512676
0.41300,40.2986261
0.41350,42.43498695
0.41400,41.51940373
0.41450,39.38304287
0.41500,36.6362932
0.41550,32.05837709
0.41600,26.25968334
0.41650,23.51293367
0.41700,25.64929453
0.41750,29.92201623
0.41800,31.44798827
0.41850,29.61682183
0.41900,26.87007216
0.41950,24.12332249
0.42000,20.4609896
0.42050,16.4934623
0.42100,11.91554618
0.42150,5.201269211
0.42200,-4.564951835
0.42250,-13.11039525
0.42300,-14.02597847
0.42350,-8.837673543
0.42400,-5.175340651
0.42450,-4.564951835
0.42500,-3.038979797
0.42550,-1.818202166
0.42600,-7.616895912
0.42650,-20.12986663
0.42700,-27.45453241
0.42750,-22.26622748
0.42800,-11.88961762
0.42850,-8.227284728
0.42900,-9.448062359
0.42950,-5.480535058
0.43000,4.285685988
0.43050,11.91554618
0.43100,12.8311294
0.43150,12.8311294
0.43200,17.71423993
0.43250,24.7337113
0.43300,29.31162742
0.43350,30.22721064
0.43400,28.3960442
0.43450,22.90254486
0.43500,14.35710144
0.43550,7.032435657
0.43600,3.370102765
0.43650,1.538936319
0.43700,-1.513007758
0.43750,-4.564951835
0.43800,-3.344174205
0.43850,1.233741911
0.43900,5.506463619
0.43950,6.116852434
0.44000,3.98049158
0.44050,0.3181586879
0.44100,-3.344174205
0.44150,-6.396118282
0.44200,-6.396118282
0.44250,-3.344174205
0.44300,0.3181586879
0.44350,1.844130726
0.44400,1.233741911
0.44450,-1.513007758
0.44500,-5.480535058
0.44550,-7.616895912
0.44600,-6.396118282
0.44650,-3.649368612
0.44700,-5.175340651
0.44750,-12.80520084
0.44800,-23.18181071
0.44850,-29.89608767
0.44900,-30.50647649
0.44950,-29.28569886
0.45000,-29.59089327
0.45050,-29.89608767
0.45100,-25.01297715
0.45150,-14.9415617
0.45200,-5.785729466
0.45250,0.01296428019
0.45300,6.116852434
0.45350,17.10385111
0.45400,29.00643301
0.45450,34.49993235
0.45500,30.53240505
0.45550,22.59735045
0.45600,18.01943433
0.45650,19.24021197
0.45700,22.59735045
0.45750,22.90254486
0.45800,17.10385111
0.45850,7.642824473
0.45900,0.9285475033
0.45950,0.6233530956
0.46000,4.590880396
0.46050,7.94801888
0.46100,9.473990919
0.46150,11.91554618
0.46200,14.66229585
0.46250,15.27268467
0.46300,11.91554618
0.46350,7.642824473
0.46400,5.201269211
0.46450,5.811658027
0.46500,8.863602104
0.46550,11.30515737
0.46600,10.99996296
0.46650,7.642824473
0.46700,4.285685988
0.46750,1.233741911
0.46800,-2.733785389
0.46850,-6.701312689
0.46900,-6.396118282
0.46950,-1.818202166
0.47000,0.3181586879
0.47050,-5.785729466
0.47100,-17.07792255
0.47150,-25.92856037
0.47200,-29.59089327
0.47250,-30.50647649
0.47300,-31.11686531
0.47350,-31.11686531
0.47400,-30.20128208
0.47450,-27.75972682
0.47500,-21.96103307
0.47550,-13.72078407
0.47600,-9.448062359
0.47650,-15.2467561
0.47700,-28.06492123
0.47750,-38.7467255
0.47800,-41.49347517
0.47850,-38.13633668
0.47900,-33.55842057
0.47950,-29.59089327
0.48000,-28.37011564
0.48050,-28.98050445
0.48100,-27.14933801
0.48150,-18.909089
0.48200,-4.259757428
0.48250,10.69476855
0.48300,23.20773927
0.48350,33.88954354
0.48400,42.74018136
0.48450,47.92848629
0.48500,47.01290307
