type,name,time_units,begin_time,frequency,count,units
signal_3d,"Noraxon MyoMotion-Segments-Forearm RT-Sensor Acceleration","s",0.0000,200,5172,"mG"

time,x,y,z
0.0000,-960.9375,208.4960938,130.3710938
0.0050,-966.796875,197.7539063,124.5117188
0.0100,-962.890625,188.9648438,125.4882813
0.0150,-971.1914063,167.4804688,125.9765625
0.0200,-976.5625,169.921875,106.4453125
0.0250,-980.9570313,166.9921875,123.046875
0.0300,-979.4921875,169.921875,118.1640625
0.0350,-977.5390625,164.5507813,107.421875
0.0400,-978.515625,164.0625,117.6757813
0.0450,-974.609375,151.3671875,118.1640625
0.0500,-965.3320313,142.0898438,114.7460938
0.0550,-959.9609375,135.7421875,94.23828125
0.0600,-967.7734375,133.7890625,88.8671875
0.0650,-964.3554688,143.0664063,91.30859375
0.0700,-975.0976563,148.9257813,84.9609375
0.0750,-964.84375,162.5976563,85.9375
0.0800,-978.0273438,166.9921875,100.0976563
0.0850,-978.0273438,168.4570313,92.28515625
0.0900,-973.1445313,183.1054688,107.421875
0.0950,-979.9804688,168.4570313,99.12109375
0.1000,-970.703125,166.5039063,116.6992188
0.1050,-969.2382813,159.1796875,104.9804688
0.1100,-973.6328125,149.4140625,110.3515625
0.1150,-968.75,146.484375,119.140625
0.1200,-970.703125,148.4375,104.4921875
0.1250,-977.0507813,151.8554688,107.421875
0.1300,-978.515625,168.4570313,108.3984375
0.1350,-978.0273438,169.921875,109.8632813
0.1400,-975.5859375,182.6171875,116.2109375
0.1450,-969.7265625,189.9414063,101.5625
0.1500,-973.6328125,182.6171875,118.1640625
0.1550,-970.2148438,186.0351563,110.8398438
0.1600,-962.4023438,189.453125,101.5625
0.1650,-959.4726563,184.0820313,120.6054688
0.1700,-958.0078125,189.9414063,110.8398438
0.1750,-969.7265625,179.6875,114.7460938
0.1800,-976.0742188,177.2460938,109.8632813
0.1850,-972.65625,181.640625,118.6523438
0.1900,-980.46875,178.7109375,120.1171875
0.1950,-971.1914063,187.5,118.1640625
0.2000,-975.5859375,190.9179688,114.7460938
0.2050,-983.8867188,186.0351563,111.8164063
0.2100,-979.4921875,196.7773438,110.3515625
0.2150,-989.2578125,189.9414063,110.3515625
0.2200,-985.3515625,192.8710938,121.09375
0.2250,-986.8164063,193.359375,109.375
0.2300,-988.7695313,191.40625,120.6054688
0.2350,-991.2109375,190.9179688,118.1640625
0.2400,-988.7695313,182.6171875,121.5820313
0.2450,-983.8867188,186.5234375,120.1171875
0.2500,-985.3515625,181.640625,126.953125
0.2550,-983.3984375,179.6875,124.0234375
0.2600,-986.328125,185.546875,123.046875
0.2650,-986.328125,179.6875,123.5351563
0.2700,-980.9570313,184.0820313,114.7460938
0.2750,-979.9804688,185.0585938,108.8867188
0.2800,-975.0976563,192.8710938,110.8398438
0.2850,-979.0039063,189.453125,105.9570313
0.2900,-975.0976563,192.8710938,109.8632813
0.2950,-968.75,184.5703125,107.421875
0.3000,-976.5625,177.734375,96.6796875
0.3050,-971.1914063,176.7578125,118.6523438
0.3100,-962.4023438,176.2695313,105.46875
0.3150,-978.515625,169.4335938,113.7695313
0.3200,-979.9804688,172.8515625,119.140625
0.3250,-973.6328125,176.7578125,120.1171875
0.3300,-974.1210938,170.4101563,134.2773438
0.3350,-978.0273438,159.6679688,118.6523438
0.3400,-974.609375,155.7617188,125
0.3450,-973.1445313,162.5976563,116.2109375
0.3500,-973.1445313,167.4804688,110.8398438
0.3550,-965.3320313,172.3632813,116.2109375
0.3600,-980.46875,160.15625,115.7226563
0.3650,-976.0742188,169.921875,108.8867188
0.3700,-975.0976563,168.9453125,111.328125
0.3750,-983.3984375,164.5507813,110.8398438
0.3800,-970.703125,176.2695313,105.46875
0.3850,-983.8867188,162.109375,116.2109375
0.3900,-966.3085938,167.96875,120.1171875
0.3950,-971.6796875,164.5507813,113.7695313
0.4000,-978.0273438,162.5976563,111.8164063
0.4050,-976.5625,170.8984375,108.3984375
0.4100,-986.8164063,161.6210938,112.3046875
0.4150,-967.2851563,174.3164063,108.8867188
0.4200,-979.9804688,171.875,113.7695313
0.4250,-978.0273438,182.1289063,105.9570313
0.4300,-976.0742188,182.6171875,121.09375
0.4350,-973.6328125,178.7109375,110.8398438
0.4400,-969.7265625,186.0351563,108.3984375
0.4450,-967.7734375,179.6875,127.9296875
0.4500,-977.0507813,176.7578125,121.5820313
0.4550,-983.8867188,166.015625,124.5117188
0.4600,-971.6796875,176.7578125,127.9296875
0.4650,-980.46875,164.5507813,125.4882813
0.4700,-977.5390625,166.9921875,110.3515625
0.4750,-974.609375,168.9453125,125
0.4800,-977.0507813,168.9453125,125.4882813
0.4850,-970.703125,167.96875,113.7695313
0.4900,-989.7460938,159.1796875,118.6523438
0.4950,-979.9804688,169.4335938,117.6757813
0.5000,-977.5390625,169.921875,127.4414063
0.5050,-974.609375,175.2929688,117.6757813
0.5100,-975.5859375,172.8515625,128.4179688
0.5150,-973.6328125,169.921875,124.5117188
0.5200,-964.3554688,181.1523438,114.2578125
0.5250,-973.6328125,169.4335938,125
0.5300,-968.75,181.1523438,127.4414063
0.5350,-977.0507813,177.734375,119.6289063
0.5400,-976.5625,176.2695313,132.8125
0.5450,-977.0507813,176.7578125,129.8828125
0.5500,-970.2148438,185.0585938,127.9296875
0.5550,-980.46875,171.875,129.8828125
0.5600,-973.1445313,174.8046875,115.234375
0.5650,-983.8867188,165.5273438,125.9765625
0.5700,-978.515625,172.8515625,122.5585938
0.5750,-969.7265625,170.4101563,118.1640625
0.5800,-975.0976563,171.875,124.0234375
0.5850,-975.5859375,172.8515625,125
0.5900,-968.2617188,175.78125,119.140625
0.5950,-968.2617188,174.3164063,127.9296875
0.6000,-962.890625,187.0117188,124.0234375
0.6050,-965.8203125,183.1054688,124.5117188
0.6100,-963.3789063,180.6640625,119.140625
0.6150,-962.4023438,181.1523438,121.5820313
0.6200,-958.0078125,189.453125,128.4179688
0.6250,-964.84375,185.546875,116.2109375
0.6300,-973.1445313,177.734375,125.4882813
0.6350,-966.796875,180.1757813,129.8828125
0.6400,-976.0742188,170.4101563,127.9296875
0.6450,-966.796875,172.3632813,132.3242188
0.6500,-968.75,168.9453125,125.4882813
0.6550,-973.6328125,169.921875,113.7695313
0.6600,-970.703125,177.2460938,129.8828125
0.6650,-970.703125,175.2929688,126.953125
0.6700,-972.65625,179.6875,114.2578125
0.6750,-972.65625,172.8515625,123.046875
0.6800,-966.3085938,181.640625,119.6289063
0.6850,-967.2851563,182.1289063,121.09375
0.6900,-967.7734375,183.59375,118.6523438
0.6950,-974.1210938,179.6875,112.7929688
0.7000,-973.6328125,177.2460938,126.4648438
0.7050,-963.3789063,197.7539063,113.28125
0.7100,-971.1914063,190.4296875,128.90625
0.7150,-968.75,184.0820313,115.234375
0.7200,-970.703125,188.4765625,117.1875
0.7250,-973.1445313,181.640625,116.6992188
0.7300,-975.5859375,182.1289063,115.234375
0.7350,-969.7265625,182.1289063,124.0234375
0.7400,-975.0976563,181.1523438,119.140625
0.7450,-972.65625,185.546875,124.0234375
0.7500,-973.6328125,187.5,113.7695313
0.7550,-965.3320313,195.8007813,117.1875
0.7600,-972.1679688,189.9414063,110.8398438
0.7650,-965.8203125,193.359375,116.2109375
0.7700,-974.1210938,188.4765625,118.1640625
0.7750,-965.3320313,194.3359375,113.28125
0.7800,-977.0507813,187.0117188,110.3515625
0.7850,-965.8203125,192.3828125,113.28125
0.7900,-974.1210938,186.5234375,111.8164063
0.7950,-973.1445313,189.453125,122.5585938
0.8000,-976.5625,188.9648438,119.6289063
0.8050,-966.796875,195.8007813,122.0703125
0.8100,-974.1210938,187.5,115.7226563
0.8150,-969.2382813,193.359375,121.5820313
0.8200,-975.0976563,185.546875,121.09375
0.8250,-967.7734375,194.3359375,123.046875
0.8300,-977.5390625,183.59375,117.6757813
0.8350,-972.65625,180.6640625,115.234375
0.8400,-973.1445313,183.59375,107.9101563
0.8450,-977.0507813,184.0820313,119.6289063
0.8500,-983.8867188,175.2929688,108.8867188
0.8550,-972.1679688,188.4765625,115.7226563
0.8600,-978.0273438,182.1289063,108.8867188
0.8650,-976.0742188,192.8710938,120.1171875
0.8700,-978.515625,194.3359375,122.0703125
0.8750,-966.796875,204.1015625,105.9570313
0.8800,-974.1210938,204.5898438,114.7460938
0.8850,-975.5859375,202.1484375,103.515625
0.8900,-972.65625,205.5664063,121.5820313
0.8950,-974.1210938,195.8007813,112.3046875
0.9000,-977.0507813,196.2890625,113.28125
0.9050,-971.6796875,192.3828125,117.1875
0.9100,-969.7265625,194.3359375,121.5820313
0.9150,-969.2382813,182.1289063,110.3515625
0.9200,-972.65625,178.7109375,117.6757813
0.9250,-971.6796875,180.6640625,106.4453125
0.9300,-971.1914063,177.734375,108.8867188
0.9350,-975.5859375,178.2226563,104.4921875
0.9400,-981.4453125,178.2226563,114.2578125
0.9450,-979.9804688,174.3164063,90.8203125
0.9500,-984.8632813,187.0117188,104.4921875
0.9550,-985.8398438,186.0351563,100.0976563
0.9600,-988.28125,186.5234375,96.6796875
0.9650,-982.421875,183.1054688,116.6992188
0.9700,-980.46875,184.5703125,102.0507813
0.9750,-974.1210938,196.2890625,116.2109375
0.9800,-976.5625,199.7070313,104.0039063
0.9850,-976.0742188,208.4960938,119.140625
0.9900,-971.1914063,213.8671875,119.140625
0.9950,-965.8203125,207.03125,111.328125
1.0000,-976.0742188,200.1953125,118.6523438
1.0050,-975.5859375,193.359375,112.3046875
1.0100,-975.0976563,188.9648438,111.328125
1.0150,-971.6796875,199.21875,104.0039063
1.0200,-962.890625,207.5195313,110.3515625
1.0250,-967.7734375,208.0078125,99.609375
1.0300,-970.703125,205.078125,103.515625
1.0350,-965.3320313,204.5898438,91.796875
1.0400,-974.1210938,204.5898438,109.375
1.0450,-974.1210938,207.03125,95.703125
1.0500,-978.0273438,208.4960938,100.5859375
1.0550,-981.9335938,212.890625,99.609375
1.0600,-976.5625,206.0546875,94.23828125
1.0650,-963.8671875,211.9140625,93.26171875
1.0700,-970.2148438,203.6132813,108.3984375
1.0750,-965.8203125,203.6132813,109.8632813
1.0800,-967.7734375,210.4492188,103.0273438
1.0850,-967.2851563,214.3554688,100.5859375
1.0900,-968.75,208.4960938,113.28125
1.0950,-964.3554688,207.03125,101.0742188
1.1000,-974.609375,205.078125,109.375
1.1050,-975.5859375,207.5195313,95.21484375
1.1100,-974.1210938,211.4257813,105.9570313
1.1150,-974.1210938,200.1953125,100.0976563
1.1200,-976.0742188,207.03125,105.46875
1.1250,-971.1914063,207.03125,105.46875
1.1300,-964.3554688,209.9609375,99.12109375
1.1350,-973.6328125,206.5429688,95.21484375
1.1400,-976.0742188,218.2617188,83.49609375
1.1450,-970.2148438,240.7226563,80.56640625
1.1500,-955.5664063,248.5351563,80.078125
1.1550,-948.2421875,249.0234375,62.01171875
1.1600,-946.7773438,249.5117188,60.546875
1.1650,-948.7304688,250,55.17578125
1.1700,-958.4960938,247.0703125,62.01171875
1.1750,-957.03125,242.1875,70.3125
1.1800,-973.6328125,222.65625,77.63671875
1.1850,-983.3984375,200.1953125,85.9375
1.1900,-1000.976563,176.2695313,96.19140625
1.1950,-1007.8125,165.0390625,104.9804688
1.2000,-1003.90625,178.7109375,110.8398438
1.2050,-1000,192.3828125,125
1.2100,-1003.90625,208.4960938,122.0703125
1.2150,-993.1640625,233.8867188,131.3476563
1.2200,-978.515625,253.4179688,134.765625
1.2250,-968.2617188,269.0429688,124.0234375
1.2300,-959.4726563,281.7382813,118.6523438
1.2350,-948.7304688,282.2265625,111.328125
1.2400,-954.5898438,283.6914063,102.5390625
1.2450,-953.6132813,270.5078125,109.375
1.2500,-974.609375,241.6992188,105.9570313
1.2550,-976.0742188,240.7226563,98.14453125
1.2600,-981.4453125,249.0234375,91.30859375
1.2650,-986.328125,255.3710938,101.5625
1.2700,-979.9804688,265.1367188,104.9804688
1.2750,-977.0507813,270.9960938,106.4453125
1.2800,-977.0507813,280.7617188,115.234375
1.2850,-957.03125,294.4335938,101.5625
1.2900,-950.1953125,302.2460938,101.5625
1.2950,-950.1953125,294.4335938,105.46875
1.3000,-958.984375,281.7382813,103.0273438
1.3050,-951.171875,282.2265625,88.37890625
1.3100,-958.4960938,273.4375,98.6328125
1.3150,-962.890625,270.5078125,77.63671875
1.3200,-966.3085938,270.9960938,101.5625
1.3250,-962.4023438,268.5546875,95.21484375
1.3300,-977.5390625,267.578125,98.14453125
1.3350,-976.0742188,275.8789063,108.8867188
1.3400,-978.0273438,283.6914063,105.46875
1.3450,-979.0039063,286.1328125,116.2109375
1.3500,-978.0273438,294.921875,111.8164063
1.3550,-976.0742188,301.2695313,122.0703125
1.3600,-970.2148438,312.0117188,107.421875
1.3650,-959.9609375,332.5195313,115.7226563
1.3700,-966.796875,336.4257813,109.375
1.3750,-967.7734375,326.171875,105.9570313
1.3800,-955.5664063,339.3554688,106.4453125
1.3850,-959.9609375,333.4960938,103.515625
1.3900,-958.4960938,337.4023438,91.30859375
1.3950,-959.9609375,335.4492188,82.51953125
1.4000,-973.6328125,307.6171875,86.42578125
1.4050,-975.5859375,317.3828125,81.0546875
1.4100,-982.421875,324.21875,100.0976563
1.4150,-971.6796875,334.9609375,86.9140625
1.4200,-957.03125,355.46875,108.8867188
1.4250,-953.125,364.7460938,115.7226563
1.4300,-953.6132813,359.8632813,105.9570313
1.4350,-955.078125,353.0273438,112.7929688
1.4400,-954.5898438,370.6054688,105.9570313
1.4450,-946.7773438,382.3242188,99.12109375
1.4500,-950.1953125,380.859375,112.7929688
1.4550,-941.8945313,385.7421875,95.703125
1.4600,-946.2890625,376.953125,103.515625
1.4650,-947.7539063,376.4648438,81.54296875
1.4700,-946.2890625,383.3007813,106.4453125
1.4750,-941.8945313,388.1835938,78.61328125
1.4800,-945.8007813,413.0859375,101.0742188
1.4850,-948.2421875,427.2460938,93.26171875
1.4900,-936.5234375,436.0351563,130.3710938
1.4950,-935.0585938,436.0351563,106.4453125
1.5000,-935.546875,446.2890625,106.9335938
1.5050,-930.1757813,460.4492188,103.0273438
1.5100,-927.734375,464.3554688,111.8164063
1.5150,-924.3164063,464.3554688,113.28125
1.5200,-924.3164063,456.0546875,117.6757813
1.5250,-930.1757813,452.1484375,111.8164063
1.5300,-923.828125,445.3125,111.328125
1.5350,-916.5039063,452.6367188,99.609375
1.5400,-904.7851563,471.6796875,85.44921875
1.5450,-904.7851563,485.3515625,95.21484375
1.5500,-904.296875,489.7460938,98.14453125
1.5550,-885.2539063,518.5546875,86.42578125
1.5600,-895.5078125,516.1132813,107.9101563
1.5650,-888.671875,533.6914063,105.46875
1.5700,-888.671875,539.5507813,110.8398438
1.5750,-885.2539063,556.640625,109.8632813
1.5800,-883.3007813,550.78125,106.9335938
1.5850,-875.4882813,552.734375,113.7695313
1.5900,-879.8828125,549.3164063,110.3515625
1.5950,-874.5117188,546.3867188,116.2109375
1.6000,-869.140625,553.7109375,114.2578125
1.6050,-873.046875,555.1757813,112.7929688
1.6100,-867.1875,569.3359375,121.5820313
1.6150,-867.6757813,566.40625,115.234375
1.6200,-869.6289063,568.8476563,125.4882813
1.6250,-862.7929688,569.8242188,128.4179688
1.6300,-866.6992188,573.2421875,122.5585938
1.6350,-864.2578125,576.6601563,128.4179688
1.6400,-863.7695313,588.3789063,126.4648438
1.6450,-856.4453125,591.3085938,124.0234375
1.6500,-845.2148438,601.0742188,115.7226563
1.6550,-833.4960938,615.7226563,109.375
1.6600,-839.84375,622.0703125,112.3046875
1.6650,-844.2382813,630.3710938,110.3515625
1.6700,-846.1914063,635.2539063,111.8164063
1.6750,-833.0078125,645.0195313,111.8164063
1.6800,-836.4257813,642.578125,119.140625
1.6850,-839.84375,638.671875,116.2109375
1.6900,-835.4492188,638.671875,122.0703125
1.6950,-828.125,633.7890625,120.1171875
1.7000,-826.171875,622.0703125,119.140625
1.7050,-820.8007813,624.0234375,117.6757813
1.7100,-819.8242188,634.2773438,120.6054688
1.7150,-817.3828125,641.6015625,119.140625
1.7200,-814.9414063,652.34375,121.5820313
1.7250,-816.40625,643.5546875,126.4648438
1.7300,-796.875,663.5742188,105.9570313
1.7350,-791.9921875,669.4335938,115.7226563
1.7400,-782.7148438,681.640625,121.5820313
1.7450,-778.8085938,688.4765625,122.5585938
1.7500,-770.9960938,696.7773438,106.4453125
1.7550,-764.6484375,698.2421875,134.765625
1.7600,-758.3007813,703.6132813,109.8632813
1.7650,-759.2773438,708.984375,110.8398438
1.7700,-756.3476563,709.9609375,127.4414063
1.7750,-759.765625,705.5664063,119.140625
1.7800,-761.2304688,693.8476563,130.3710938
1.7850,-755.859375,684.0820313,104.4921875
1.7900,-744.6289063,696.7773438,107.9101563
1.7950,-741.6992188,701.171875,116.6992188
1.8000,-740.7226563,710.9375,115.7226563
1.8050,-729.4921875,721.6796875,106.4453125
1.8100,-716.796875,728.515625,112.3046875
1.8150,-712.890625,730.9570313,130.859375
1.8200,-710.9375,746.09375,106.9335938
1.8250,-708.0078125,754.3945313,115.234375
1.8300,-695.3125,771.484375,112.7929688
1.8350,-693.359375,786.6210938,123.5351563
1.8400,-687.5,801.2695313,118.1640625
1.8450,-683.59375,799.8046875,121.09375
1.8500,-681.640625,790.5273438,125
1.8550,-681.640625,776.3671875,115.234375
1.8600,-672.3632813,781.7382813,116.6992188
1.8650,-666.5039063,774.4140625,113.7695313
1.8700,-666.015625,767.0898438,127.9296875
1.8750,-658.203125,779.7851563,106.4453125
1.8800,-658.203125,784.1796875,112.3046875
1.8850,-643.0664063,793.4570313,120.6054688
1.8900,-634.2773438,806.1523438,105.9570313
1.8950,-617.1875,813.4765625,114.7460938
1.9000,-614.7460938,815.9179688,122.5585938
1.9050,-608.8867188,820.3125,134.765625
1.9100,-610.8398438,820.8007813,127.4414063
1.9150,-605.9570313,819.3359375,136.71875
1.9200,-607.421875,815.9179688,122.5585938
1.9250,-585.4492188,833.984375,135.2539063
1.9300,-586.4257813,830.5664063,138.1835938
1.9350,-581.5429688,833.984375,134.765625
1.9400,-568.8476563,845.2148438,132.8125
1.9450,-560.546875,853.0273438,134.2773438
1.9500,-553.2226563,857.9101563,139.6484375
1.9550,-552.734375,855.9570313,121.09375
1.9600,-548.828125,856.4453125,111.8164063
1.9650,-536.1328125,858.3984375,128.90625
1.9700,-536.1328125,849.609375,139.1601563
1.9750,-530.7617188,853.0273438,140.625
1.9800,-519.0429688,877.9296875,138.671875
1.9850,-511.2304688,885.7421875,137.2070313
1.9900,-504.8828125,896.484375,143.5546875
1.9950,-499.5117188,898.4375,145.0195313
2.0000,-488.7695313,915.5273438,147.4609375
2.0050,-482.9101563,914.5507813,155.7617188
2.0100,-479.0039063,910.6445313,146.9726563
2.0150,-470.703125,913.0859375,143.0664063
2.0200,-460.4492188,911.1328125,145.9960938
2.0250,-447.7539063,916.015625,126.4648438
2.0300,-448.7304688,915.0390625,136.2304688
2.0350,-444.8242188,924.3164063,150.8789063
2.0400,-438.4765625,932.1289063,156.7382813
2.0450,-443.8476563,926.2695313,148.4375
2.0500,-433.59375,927.2460938,153.8085938
2.0550,-427.2460938,918.9453125,156.7382813
2.0600,-419.921875,918.9453125,151.8554688
2.0650,-403.8085938,919.4335938,152.8320313
2.0700,-394.53125,916.5039063,147.9492188
2.0750,-391.6015625,909.6679688,152.8320313
2.0800,-383.3007813,920.4101563,152.34375
2.0850,-370.6054688,932.6171875,150.390625
2.0900,-365.7226563,948.7304688,162.109375
2.0950,-353.515625,961.4257813,160.6445313
2.1000,-345.2148438,963.3789063,166.5039063
2.1050,-343.2617188,952.1484375,168.9453125
2.1100,-333.0078125,949.7070313,165.5273438
2.1150,-329.1015625,942.3828125,164.5507813
2.1200,-319.3359375,945.8007813,168.4570313
2.1250,-315.9179688,934.5703125,163.0859375
2.1300,-298.828125,944.8242188,160.6445313
2.1350,-290.5273438,945.8007813,166.5039063
2.1400,-286.6210938,947.7539063,163.0859375
2.1450,-276.8554688,958.984375,175.2929688
2.1500,-259.765625,967.2851563,171.875
2.1550,-255.859375,952.6367188,171.3867188
2.1600,-244.140625,948.7304688,162.109375
2.1650,-241.6992188,944.3359375,160.15625
2.1700,-229.0039063,964.3554688,166.9921875
2.1750,-210.4492188,978.515625,167.96875
2.1800,-212.890625,977.0507813,186.5234375
2.1850,-216.3085938,968.2617188,172.8515625
2.1900,-203.125,982.421875,172.8515625
2.1950,-201.171875,976.5625,177.2460938
2.2000,-193.8476563,973.6328125,177.734375
2.2050,-186.0351563,960.9375,182.6171875
2.2100,-173.828125,964.84375,172.8515625
2.2150,-165.5273438,969.7265625,177.2460938
2.2200,-168.4570313,967.2851563,172.3632813
2.2250,-164.0625,959.4726563,177.734375
2.2300,-157.2265625,942.3828125,180.1757813
2.2350,-142.0898438,937.9882813,170.4101563
2.2400,-130.3710938,948.2421875,177.2460938
2.2450,-132.3242188,955.078125,182.6171875
2.2500,-124.5117188,958.4960938,184.5703125
2.2550,-103.515625,968.2617188,181.1523438
2.2600,-106.9335938,963.3789063,188.9648438
2.2650,-96.6796875,976.5625,195.3125
2.2700,-90.33203125,986.8164063,190.9179688
2.2750,-94.23828125,959.9609375,195.3125
2.2800,-90.33203125,950.6835938,191.8945313
2.2850,-86.42578125,957.03125,182.1289063
2.2900,-83.984375,955.5664063,182.1289063
2.2950,-72.265625,956.0546875,191.8945313
2.3000,-62.98828125,943.8476563,187.0117188
2.3050,-47.36328125,938.9648438,193.359375
2.3100,-44.43359375,951.171875,171.3867188
2.3150,-44.921875,978.0273438,175.2929688
2.3200,-43.9453125,994.140625,186.0351563
2.3250,-37.109375,988.28125,196.7773438
2.3300,-30.76171875,969.2382813,196.2890625
2.3350,-18.06640625,962.890625,194.8242188
2.3400,-21.97265625,957.03125,187.5
2.3450,-23.92578125,952.1484375,203.125
2.3500,-13.671875,956.0546875,199.7070313
2.3550,-0.9765625,956.5429688,203.125
2.3600,19.53125,966.796875,189.453125
2.3650,20.01953125,969.2382813,201.171875
2.3700,23.4375,984.375,212.4023438
2.3750,24.4140625,988.28125,208.4960938
2.3800,25.390625,982.421875,221.1914063
2.3850,29.296875,959.9609375,213.8671875
2.3900,42.96875,946.2890625,211.9140625
2.3950,60.05859375,946.2890625,205.078125
2.4000,61.5234375,935.0585938,212.4023438
2.4050,76.171875,953.6132813,217.2851563
2.4100,87.890625,974.609375,198.2421875
2.4150,94.7265625,971.1914063,210.4492188
2.4200,109.375,960.9375,205.5664063
2.4250,122.5585938,950.6835938,223.1445313
2.4300,124.0234375,955.078125,210.9375
2.4350,120.1171875,952.1484375,220.703125
2.4400,132.3242188,968.75,221.6796875
2.4450,130.859375,969.7265625,243.1640625
2.4500,145.0195313,962.890625,231.9335938
2.4550,152.8320313,957.5195313,225.5859375
2.4600,151.3671875,949.21875,229.0039063
2.4650,161.1328125,945.8007813,221.1914063
2.4700,163.0859375,937.9882813,228.515625
2.4750,175.78125,943.359375,215.8203125
2.4800,176.2695313,936.5234375,221.1914063
2.4850,188.9648438,935.0585938,213.8671875
2.4900,194.8242188,933.59375,213.8671875
2.4950,196.2890625,937.5,230.46875
2.5000,212.4023438,956.5429688,227.5390625
2.5050,217.7734375,947.7539063,223.1445313
2.5100,222.1679688,937.0117188,225.0976563
2.5150,229.4921875,925.2929688,225.5859375
2.5200,235.8398438,932.6171875,226.0742188
2.5250,238.7695313,933.59375,242.6757813
2.5300,241.2109375,930.1757813,233.3984375
2.5350,236.8164063,920.4101563,252.9296875
2.5400,242.1875,928.7109375,246.09375
2.5450,243.6523438,920.4101563,245.1171875
2.5500,243.6523438,906.7382813,246.5820313
2.5550,263.1835938,913.5742188,230.46875
2.5600,279.296875,922.3632813,250.4882813
2.5650,292.96875,930.1757813,227.0507813
2.5700,304.1992188,930.1757813,229.0039063
2.5750,302.734375,908.203125,226.5625
2.5800,308.59375,914.0625,223.6328125
2.5850,308.59375,908.203125,222.65625
2.5900,307.6171875,905.7617188,222.65625
2.5950,311.5234375,908.6914063,233.8867188
2.6000,309.0820313,895.9960938,236.328125
2.6050,317.3828125,903.8085938,252.9296875
2.6100,316.8945313,917.96875,251.953125
2.6150,325.1953125,919.4335938,250.9765625
2.6200,323.7304688,905.2734375,265.1367188
2.6250,333.4960938,888.1835938,255.859375
2.6300,351.0742188,877.9296875,244.140625
2.6350,351.0742188,867.6757813,243.6523438
2.6400,363.28125,896.484375,248.046875
2.6450,360.8398438,899.4140625,239.2578125
2.6500,361.328125,887.6953125,242.6757813
2.6550,381.8359375,888.671875,232.9101563
2.6600,384.2773438,879.3945313,236.8164063
2.6650,376.4648438,873.046875,244.6289063
2.6700,371.5820313,876.953125,233.8867188
2.6750,382.3242188,889.1601563,252.4414063
2.6800,393.5546875,900.390625,250.4882813
2.6850,398.4375,897.9492188,254.3945313
2.6900,396.484375,891.1132813,264.1601563
2.6950,394.53125,872.5585938,257.8125
2.7000,384.765625,842.7734375,263.1835938
2.7050,390.1367188,822.265625,252.9296875
2.7100,409.6679688,833.4960938,249.5117188
2.7150,417.4804688,836.9140625,235.8398438
2.7200,430.1757813,831.5429688,234.8632813
2.7250,446.2890625,826.171875,244.140625
2.7300,453.125,831.5429688,246.09375
2.7350,453.6132813,841.796875,229.9804688
2.7400,438.9648438,830.5664063,241.2109375
2.7450,443.8476563,827.6367188,267.578125
2.7500,448.2421875,829.1015625,252.9296875
2.7550,456.5429688,851.0742188,266.1132813
2.7600,453.6132813,865.7226563,268.0664063
2.7650,453.125,868.6523438,279.296875
2.7700,465.8203125,854.4921875,277.8320313
2.7750,474.609375,827.1484375,277.8320313
2.7800,475.5859375,791.9921875,270.9960938
2.7850,467.7734375,774.9023438,262.2070313
2.7900,462.890625,777.8320313,268.5546875
2.7950,475.0976563,776.3671875,267.0898438
2.8000,485.3515625,784.1796875,257.8125
2.8050,509.765625,809.0820313,239.7460938
2.8100,524.4140625,809.5703125,250.4882813
2.8150,545.8984375,819.8242188,252.4414063
2.8200,538.5742188,818.359375,257.8125
2.8250,527.8320313,818.359375,266.1132813
2.8300,518.0664063,799.3164063,286.1328125
2.8350,511.2304688,763.671875,275.8789063
2.8400,526.3671875,761.71875,270.0195313
2.8450,532.2265625,770.0195313,261.71875
2.8500,542.96875,784.6679688,257.3242188
2.8550,546.875,775.390625,264.6484375
2.8600,547.3632813,770.9960938,272.4609375
2.8650,549.8046875,775.390625,259.2773438
2.8700,538.0859375,775.8789063,280.7617188
2.8750,546.3867188,775.390625,277.34375
2.8800,545.8984375,766.1132813,271.484375
2.8850,567.8710938,773.4375,250.9765625
2.8900,583.4960938,773.9257813,265.625
2.8950,583.4960938,755.859375,265.1367188
2.9000,573.7304688,743.1640625,264.1601563
2.9050,584.4726563,747.5585938,267.578125
2.9100,587.890625,766.6015625,272.9492188
2.9150,590.3320313,757.3242188,263.671875
2.9200,590.8203125,742.1875,281.25
2.9250,593.2617188,736.328125,255.3710938
2.9300,591.3085938,740.234375,276.3671875
2.9350,593.2617188,735.3515625,274.4140625
2.9400,590.8203125,714.84375,290.5273438
2.9450,601.0742188,703.125,263.671875
2.9500,616.2109375,708.984375,281.7382813
2.9550,619.6289063,708.4960938,256.3476563
2.9600,617.6757813,717.7734375,258.7890625
2.9650,622.0703125,715.8203125,267.578125
2.9700,616.6992188,711.4257813,274.9023438
2.9750,630.3710938,703.125,283.203125
2.9800,631.8359375,699.7070313,274.4140625
2.9850,637.6953125,690.4296875,286.1328125
2.9900,630.859375,685.0585938,271.484375
2.9950,632.3242188,700.1953125,290.5273438
3.0000,636.71875,699.7070313,286.1328125
3.0050,657.2265625,698.7304688,269.0429688
3.0100,665.5273438,687.0117188,282.7148438
3.0150,653.3203125,679.6875,280.2734375
3.0200,645.0195313,684.5703125,284.1796875
3.0250,632.3242188,689.453125,277.8320313
3.0300,652.34375,697.265625,283.6914063
3.0350,661.6210938,681.640625,288.5742188
3.0400,671.3867188,662.5976563,271.9726563
3.0450,667.4804688,645.9960938,262.6953125
3.0500,673.3398438,643.5546875,261.71875
3.0550,677.2460938,633.3007813,274.4140625
3.0600,681.1523438,633.3007813,279.296875
3.0650,686.0351563,650.390625,273.9257813
3.0700,679.6875,660.6445313,284.1796875
3.0750,688.4765625,649.9023438,287.109375
3.0800,698.2421875,635.7421875,289.0625
3.0850,710.4492188,635.2539063,291.9921875
3.0900,699.7070313,640.1367188,290.0390625
3.0950,702.1484375,637.6953125,283.6914063
3.1000,692.3828125,611.8164063,291.015625
3.1050,711.4257813,615.7226563,282.2265625
3.1100,712.4023438,608.3984375,272.9492188
3.1150,712.890625,614.7460938,272.9492188
3.1200,705.078125,621.5820313,265.1367188
3.1250,699.7070313,613.7695313,279.7851563
3.1300,713.8671875,619.140625,272.9492188
3.1350,722.1679688,618.1640625,264.1601563
3.1400,719.7265625,608.3984375,276.8554688
3.1450,716.796875,591.3085938,267.0898438
3.1500,725.0976563,589.84375,272.9492188
3.1550,726.5625,596.6796875,260.2539063
3.1600,730.9570313,612.3046875,277.34375
3.1650,727.0507813,605.9570313,274.4140625
3.1700,718.2617188,599.609375,276.3671875
3.1750,732.421875,603.515625,271.484375
3.1800,734.8632813,597.65625,273.4375
3.1850,745.6054688,583.0078125,282.2265625
3.1900,747.5585938,568.359375,280.7617188
3.1950,741.6992188,551.2695313,278.3203125
3.2000,748.046875,559.5703125,268.0664063
3.2050,759.2773438,572.265625,264.1601563
3.2100,760.2539063,567.8710938,269.53125
3.2150,759.765625,561.5234375,276.3671875
3.2200,763.1835938,561.5234375,276.3671875
3.2250,776.3671875,586.4257813,266.1132813
3.2300,770.5078125,593.75,276.3671875
3.2350,769.53125,579.1015625,280.2734375
3.2400,765.625,551.2695313,292.4804688
3.2450,772.4609375,535.6445313,268.5546875
3.2500,772.4609375,531.7382813,271.9726563
3.2550,784.1796875,543.9453125,264.1601563
3.2600,786.6210938,542.4804688,266.6015625
3.2650,789.0625,523.4375,278.3203125
3.2700,794.921875,528.3203125,270.5078125
3.2750,793.4570313,528.3203125,273.9257813
3.2800,795.8984375,537.5976563,269.53125
3.2850,801.2695313,544.4335938,289.0625
3.2900,791.5039063,536.6210938,289.0625
3.2950,786.1328125,517.0898438,287.5976563
3.3000,793.4570313,526.8554688,274.9023438
3.3050,797.3632813,510.2539063,276.8554688
3.3100,797.8515625,494.140625,279.296875
3.3150,800.2929688,493.1640625,272.4609375
3.3200,797.3632813,497.5585938,272.4609375
3.3250,796.3867188,495.6054688,263.671875
3.3300,805.6640625,504.8828125,273.9257813
3.3350,807.6171875,513.671875,271.484375
3.3400,813.4765625,522.9492188,257.3242188
3.3450,816.8945313,518.0664063,256.3476563
3.3500,812.0117188,498.5351563,259.765625
3.3550,822.265625,489.7460938,266.1132813
3.3600,825.1953125,482.421875,264.6484375
3.3650,814.9414063,468.75,262.2070313
3.3700,822.265625,483.3984375,271.9726563
3.3750,825.6835938,480.9570313,263.1835938
3.3800,827.1484375,484.375,266.1132813
3.3850,814.453125,460.9375,265.625
3.3900,824.21875,451.171875,263.671875
3.3950,837.4023438,455.078125,251.953125
3.4000,830.078125,436.0351563,259.765625
3.4050,825.6835938,422.8515625,254.8828125
3.4100,844.2382813,443.359375,262.2070313
3.4150,832.5195313,434.0820313,253.4179688
3.4200,843.2617188,452.1484375,259.765625
3.4250,838.3789063,451.171875,259.2773438
3.4300,834.9609375,441.40625,250.9765625
3.4350,844.7265625,428.2226563,263.1835938
3.4400,845.2148438,426.2695313,255.3710938
3.4450,847.1679688,419.4335938,259.2773438
3.4500,844.2382813,422.8515625,249.5117188
3.4550,839.84375,431.640625,269.53125
3.4600,842.7734375,447.265625,261.71875
3.4650,841.3085938,452.6367188,265.1367188
3.4700,848.1445313,454.1015625,264.6484375
3.4750,849.1210938,440.4296875,251.953125
3.4800,851.5625,444.8242188,267.0898438
3.4850,850.0976563,434.5703125,249.5117188
3.4900,845.703125,416.9921875,261.71875
3.4950,859.8632813,398.4375,234.375
3.5000,843.75,405.7617188,238.7695313
3.5050,851.0742188,411.6210938,250
3.5100,847.1679688,406.25,244.140625
3.5150,856.4453125,403.3203125,261.71875
3.5200,860.3515625,400.8789063,245.6054688
3.5250,869.140625,414.0625,250.9765625
3.5300,858.3984375,402.8320313,261.2304688
3.5350,860.3515625,391.1132813,247.5585938
3.5400,869.6289063,386.71875,256.8359375
3.5450,875.9765625,381.3476563,248.046875
3.5500,878.90625,388.671875,260.2539063
3.5550,884.2773438,389.6484375,249.0234375
3.5600,879.3945313,387.2070313,252.9296875
3.5650,883.7890625,389.6484375,263.671875
3.5700,880.3710938,381.8359375,255.859375
3.5750,880.3710938,370.6054688,249.0234375
3.5800,885.7421875,367.1875,255.3710938
3.5850,890.1367188,352.5390625,247.5585938
3.5900,888.1835938,347.65625,253.90625
3.5950,894.53125,349.609375,255.859375
3.6000,901.8554688,369.140625,236.8164063
3.6050,895.9960938,379.3945313,253.4179688
3.6100,894.0429688,385.2539063,257.8125
3.6150,884.765625,365.234375,248.5351563
3.6200,889.1601563,339.84375,252.4414063
3.6250,899.9023438,332.5195313,236.8164063
3.6300,900.8789063,324.21875,242.6757813
3.6350,901.3671875,333.0078125,233.8867188
3.6400,898.9257813,334.4726563,235.3515625
3.6450,904.296875,334.4726563,237.7929688
3.6500,908.203125,340.8203125,231.9335938
3.6550,902.8320313,337.4023438,222.65625
3.6600,910.6445313,337.890625,227.5390625
3.6650,907.2265625,323.7304688,224.609375
3.6700,907.2265625,314.9414063,221.6796875
3.6750,908.6914063,319.8242188,223.1445313
3.6800,910.6445313,338.8671875,222.65625
3.6850,915.5273438,339.3554688,232.421875
3.6900,920.8984375,330.078125,233.8867188
3.6950,906.25,329.1015625,229.9804688
3.7000,907.7148438,324.7070313,245.6054688
3.7050,919.4335938,315.4296875,229.9804688
3.7100,919.921875,307.6171875,227.5390625
3.7150,924.3164063,309.5703125,227.5390625
3.7200,920.8984375,306.640625,220.703125
3.7250,920.4101563,312.5,237.3046875
3.7300,911.1328125,317.8710938,230.9570313
3.7350,911.6210938,323.7304688,247.0703125
3.7400,915.0390625,329.5898438,235.3515625
3.7450,919.4335938,327.6367188,244.140625
3.7500,916.5039063,303.7109375,239.2578125
3.7550,925.78125,298.828125,228.0273438
3.7600,917.4804688,304.6875,235.3515625
3.7650,924.3164063,318.359375,239.2578125
3.7700,913.0859375,298.3398438,237.7929688
3.7750,934.0820313,288.5742188,239.2578125
3.7800,926.2695313,285.6445313,248.5351563
3.7850,914.5507813,299.3164063,241.2109375
3.7900,906.7382813,301.7578125,248.5351563
3.7950,906.25,305.6640625,240.234375
3.8000,917.96875,307.6171875,250.9765625
3.8050,913.5742188,295.8984375,247.0703125
3.8100,909.6679688,297.3632813,237.7929688
3.8150,908.6914063,293.9453125,252.4414063
3.8200,896.9726563,288.5742188,233.8867188
3.8250,912.109375,304.6875,241.2109375
3.8300,922.3632813,300.78125,244.6289063
3.8350,934.0820313,289.0625,242.6757813
3.8400,947.265625,290.5273438,249.5117188
3.8450,945.3125,289.0625,230.46875
3.8500,940.9179688,287.5976563,251.4648438
3.8550,922.8515625,276.3671875,233.8867188
3.8600,924.3164063,270.9960938,253.4179688
3.8650,931.1523438,248.5351563,237.3046875
3.8700,933.1054688,236.328125,249.5117188
3.8750,934.5703125,228.0273438,233.3984375
3.8800,937.5,245.1171875,225.0976563
3.8850,938.9648438,228.0273438,235.3515625
3.8900,929.6875,225.0976563,230.9570313
3.8950,935.546875,252.4414063,222.1679688
3.9000,932.1289063,275.8789063,222.1679688
3.9050,927.2460938,259.2773438,225.0976563
3.9100,929.1992188,206.0546875,218.2617188
3.9150,933.1054688,190.9179688,209.4726563
3.9200,938.4765625,207.5195313,206.0546875
3.9250,938.9648438,207.03125,225.0976563
3.9300,929.1992188,227.5390625,211.4257813
3.9350,939.453125,234.375,220.703125
3.9400,930.1757813,236.8164063,210.4492188
3.9450,923.828125,224.609375,224.1210938
3.9500,922.3632813,205.078125,196.7773438
3.9550,941.40625,208.4960938,200.6835938
3.9600,942.3828125,214.84375,181.640625
3.9650,940.4296875,221.1914063,189.453125
3.9700,928.7109375,234.8632813,194.8242188
3.9750,919.921875,233.3984375,219.7265625
3.9800,924.3164063,238.28125,208.984375
3.9850,926.7578125,247.0703125,212.890625
3.9900,921.3867188,239.7460938,217.2851563
3.9950,927.734375,207.5195313,202.1484375
4.0000,934.0820313,201.6601563,196.2890625
4.0050,945.8007813,202.6367188,188.9648438
4.0100,941.40625,209.4726563,190.9179688
4.0150,946.7773438,208.984375,187.0117188
4.0200,942.3828125,213.8671875,198.7304688
4.0250,935.546875,225.5859375,193.359375
4.0300,936.5234375,236.328125,183.1054688
4.0350,944.3359375,237.3046875,176.7578125
4.0400,939.9414063,200.6835938,195.3125
4.0450,945.8007813,183.59375,193.359375
4.0500,950.6835938,198.2421875,188.4765625
4.0550,941.8945313,221.6796875,201.6601563
4.0600,939.9414063,221.6796875,207.03125
4.0650,938.9648438,212.890625,216.796875
4.0700,933.59375,214.84375,214.84375
4.0750,939.453125,210.9375,215.3320313
4.0800,943.8476563,193.8476563,210.4492188
4.0850,945.3125,173.3398438,200.1953125
4.0900,956.5429688,183.59375,214.3554688
4.0950,957.5195313,198.2421875,211.4257813
4.1000,952.6367188,180.1757813,232.9101563
4.1050,954.1015625,157.2265625,227.0507813
4.1100,958.984375,158.6914063,233.8867188
4.1150,954.5898438,172.3632813,245.1171875
4.1200,947.265625,185.546875,231.9335938
4.1250,962.4023438,180.1757813,231.9335938
4.1300,955.5664063,167.96875,228.0273438
4.1350,956.0546875,154.296875,243.1640625
4.1400,959.9609375,154.296875,220.2148438
4.1450,970.703125,173.828125,218.75
4.1500,961.9140625,143.0664063,253.4179688
4.1550,957.03125,131.3476563,238.28125
4.1600,947.265625,135.7421875,249.0234375
4.1650,959.9609375,169.921875,241.2109375
4.1700,963.3789063,161.1328125,249.0234375
4.1750,973.1445313,131.3476563,230.9570313
4.1800,971.1914063,126.953125,236.328125
4.1850,956.5429688,131.3476563,211.9140625
4.1900,951.171875,149.9023438,223.1445313
4.1950,946.2890625,158.203125,228.515625
4.2000,943.359375,165.0390625,223.6328125
4.2050,952.6367188,173.828125,216.3085938
4.2100,946.7773438,162.5976563,218.2617188
4.2150,952.1484375,140.625,227.5390625
4.2200,944.8242188,128.90625,220.2148438
4.2250,952.6367188,132.3242188,229.0039063
4.2300,948.7304688,132.8125,224.609375
4.2350,954.1015625,139.1601563,222.65625
4.2400,954.5898438,139.6484375,222.1679688
4.2450,942.3828125,124.0234375,223.6328125
4.2500,930.6640625,123.5351563,222.65625
4.2550,922.8515625,133.7890625,224.1210938
4.2600,928.2226563,149.4140625,206.0546875
4.2650,938.9648438,154.7851563,207.5195313
4.2700,956.0546875,145.0195313,186.5234375
4.2750,953.6132813,134.2773438,187.9882813
4.2800,945.8007813,148.4375,177.2460938
4.2850,945.8007813,162.109375,177.734375
4.2900,943.359375,166.015625,181.640625
4.2950,939.9414063,154.7851563,191.8945313
4.3000,944.8242188,155.7617188,177.2460938
4.3050,942.3828125,150.390625,173.828125
4.3100,953.6132813,145.0195313,196.7773438
4.3150,952.6367188,126.953125,183.59375
4.3200,959.9609375,125,203.125
4.3250,952.1484375,134.2773438,197.7539063
4.3300,950.1953125,156.25,207.03125
4.3350,950.1953125,167.4804688,203.6132813
4.3400,941.8945313,164.5507813,212.4023438
4.3450,936.0351563,151.8554688,211.4257813
4.3500,933.1054688,141.1132813,199.21875
4.3550,954.1015625,149.4140625,198.2421875
4.3600,950.1953125,145.0195313,185.0585938
4.3650,951.171875,148.4375,199.7070313
4.3700,945.8007813,153.8085938,209.4726563
4.3750,952.1484375,146.484375,194.3359375
4.3800,959.9609375,160.6445313,187.5
4.3850,957.5195313,165.5273438,190.9179688
4.3900,952.1484375,160.6445313,212.890625
4.3950,949.21875,147.9492188,203.125
4.4000,948.7304688,133.3007813,221.1914063
4.4050,969.2382813,141.6015625,216.796875
4.4100,958.4960938,140.1367188,224.609375
4.4150,964.3554688,149.9023438,244.140625
4.4200,962.4023438,145.5078125,232.9101563
4.4250,961.9140625,141.1132813,242.1875
4.4300,956.0546875,144.53125,245.6054688
4.4350,952.1484375,166.5039063,231.9335938
4.4400,946.7773438,179.1992188,229.4921875
4.4450,954.5898438,183.59375,228.0273438
4.4500,960.9375,186.5234375,227.5390625
4.4550,954.1015625,197.265625,227.0507813
4.4600,950.1953125,209.9609375,232.9101563
4.4650,951.171875,212.890625,235.3515625
4.4700,950.1953125,202.6367188,239.7460938
4.4750,957.03125,200.1953125,229.9804688
4.4800,969.7265625,201.6601563,237.3046875
4.4850,961.4257813,181.1523438,238.28125
4.4900,953.125,183.59375,234.8632813
4.4950,944.8242188,186.0351563,214.84375
4.5000,938.4765625,188.9648438,218.75
4.5050,955.5664063,206.5429688,201.6601563
4.5100,949.7070313,209.4726563,208.0078125
4.5150,950.6835938,237.7929688,199.7070313
4.5200,944.3359375,257.8125,198.2421875
4.5250,934.5703125,247.5585938,208.984375
4.5300,943.359375,246.09375,219.7265625
4.5350,946.2890625,228.0273438,209.4726563
4.5400,957.03125,225.0976563,209.9609375
4.5450,944.8242188,208.984375,210.4492188
4.5500,933.59375,215.8203125,214.3554688
4.5550,923.3398438,219.7265625,205.078125
4.5600,923.828125,242.6757813,209.4726563
4.5650,919.4335938,246.09375,220.2148438
4.5700,910.15625,242.6757813,208.984375
4.5750,925.2929688,235.3515625,200.6835938
4.5800,922.8515625,227.0507813,195.8007813
4.5850,927.2460938,232.9101563,188.4765625
4.5900,922.3632813,242.6757813,205.5664063
4.5950,918.4570313,243.6523438,190.4296875
4.6000,922.3632813,242.6757813,197.7539063
4.6050,930.1757813,240.7226563,209.4726563
4.6100,918.4570313,237.7929688,210.9375
4.6150,923.3398438,257.8125,210.9375
4.6200,917.96875,274.9023438,208.984375
4.6250,909.6679688,277.8320313,229.0039063
4.6300,901.3671875,285.6445313,225.0976563
4.6350,900.8789063,290.5273438,226.0742188
4.6400,887.6953125,287.5976563,234.8632813
4.6450,881.8359375,289.5507813,226.5625
4.6500,887.6953125,284.1796875,230.9570313
4.6550,893.0664063,271.484375,220.2148438
4.6600,898.9257813,271.9726563,209.4726563
4.6650,895.5078125,284.6679688,203.6132813
4.6700,887.6953125,297.3632813,219.7265625
4.6750,881.8359375,298.828125,223.6328125
4.6800,889.1601563,316.40625,208.0078125
4.6850,895.0195313,327.6367188,219.2382813
4.6900,895.0195313,334.9609375,221.6796875
4.6950,889.1601563,332.03125,230.46875
4.7000,880.3710938,330.5664063,222.1679688
4.7050,883.3007813,328.6132813,239.7460938
4.7100,893.5546875,319.8242188,237.3046875
4.7150,892.578125,306.1523438,238.28125
4.7200,897.9492188,307.1289063,230.9570313
4.7250,892.0898438,312.9882813,234.8632813
4.7300,885.7421875,311.0351563,229.0039063
4.7350,889.1601563,314.453125,229.4921875
4.7400,886.2304688,325.1953125,229.0039063
4.7450,886.2304688,355.46875,232.421875
4.7500,875.9765625,394.0429688,224.1210938
4.7550,874.0234375,425.2929688,247.5585938
4.7600,871.5820313,419.921875,248.5351563
4.7650,866.6992188,405.2734375,248.5351563
4.7700,874.5117188,396.9726563,247.5585938
4.7750,870.6054688,389.1601563,231.4453125
4.7800,862.7929688,397.4609375,234.375
4.7850,858.3984375,399.9023438,225.5859375
4.7900,852.0507813,386.2304688,228.515625
4.7950,851.0742188,375,211.9140625
4.8000,856.4453125,374.5117188,220.703125
4.8050,856.9335938,370.1171875,214.3554688
4.8100,861.328125,397.4609375,210.9375
4.8150,866.2109375,401.3671875,212.890625
4.8200,845.703125,396.9726563,224.1210938
4.8250,854.9804688,393.0664063,223.1445313
4.8300,864.7460938,395.9960938,206.5429688
4.8350,871.5820313,394.0429688,208.4960938
4.8400,870.1171875,412.5976563,207.5195313
4.8450,847.1679688,432.6171875,216.796875
4.8500,826.6601563,442.8710938,225.0976563
4.8550,825.6835938,450.6835938,229.0039063
4.8600,827.6367188,447.265625,239.2578125
4.8650,839.3554688,448.7304688,241.6992188
4.8700,845.703125,449.7070313,249.0234375
4.8750,837.4023438,441.8945313,238.28125
4.8800,831.5429688,455.5664063,239.2578125
4.8850,821.7773438,463.3789063,235.3515625
4.8900,818.8476563,472.65625,234.8632813
4.8950,828.6132813,459.9609375,226.0742188
4.9000,821.2890625,451.171875,232.421875
4.9050,821.2890625,470.2148438,216.796875
4.9100,811.0351563,482.421875,225.0976563
4.9150,801.2695313,500.4882813,230.9570313
4.9200,793.9453125,516.1132813,222.65625
4.9250,812.9882813,548.828125,245.1171875
4.9300,792.4804688,525.8789063,251.4648438
4.9350,801.2695313,507.3242188,251.4648438
4.9400,808.59375,500,232.421875
4.9450,815.9179688,497.5585938,222.65625
4.9500,812.9882813,496.09375,230.46875
4.9550,802.734375,506.8359375,217.7734375
4.9600,779.296875,510.2539063,224.609375
4.9650,784.1796875,519.53125,229.0039063
4.9700,784.1796875,521.9726563,220.703125
4.9750,789.5507813,536.1328125,218.2617188
4.9800,795.8984375,569.3359375,223.6328125
4.9850,781.7382813,583.4960938,245.1171875
4.9900,762.6953125,576.171875,250
4.9950,765.625,590.3320313,238.7695313
5.0000,758.7890625,597.65625,253.4179688
5.0050,755.859375,602.0507813,243.1640625
5.0100,746.5820313,604.9804688,235.3515625
5.0150,742.6757813,602.5390625,226.0742188
5.0200,739.7460938,587.4023438,244.140625
5.0250,736.328125,563.9648438,218.75
5.0300,749.5117188,561.5234375,221.6796875
5.0350,746.09375,569.3359375,213.8671875
5.0400,735.8398438,587.890625,223.6328125
5.0450,727.5390625,610.3515625,214.3554688
5.0500,715.3320313,632.3242188,226.5625
5.0550,711.9140625,638.671875,228.515625
5.0600,716.3085938,627.9296875,243.1640625
5.0650,716.3085938,599.1210938,238.28125
5.0700,709.9609375,591.796875,217.7734375
5.0750,724.1210938,630.3710938,223.1445313
5.0800,708.4960938,668.4570313,210.9375
5.0850,696.2890625,677.734375,243.6523438
5.0900,681.1523438,663.5742188,250.9765625
5.0950,671.3867188,654.296875,237.7929688
5.1000,676.2695313,678.7109375,241.6992188
5.1050,665.0390625,687.5,228.0273438
5.1100,668.4570313,695.3125,247.5585938
5.1150,662.5976563,677.734375,230.46875
5.1200,665.5273438,669.921875,224.609375
5.1250,663.5742188,665.5273438,224.609375
5.1300,657.2265625,669.921875,214.84375
5.1350,652.34375,681.1523438,225.5859375
5.1400,646.9726563,689.9414063,234.375
5.1450,631.3476563,680.1757813,229.9804688
5.1500,631.8359375,688.9648438,234.8632813
5.1550,641.1132813,694.3359375,226.5625
5.1600,637.6953125,708.0078125,235.3515625
5.1650,624.0234375,685.546875,237.3046875
5.1700,622.0703125,677.2460938,243.6523438
5.1750,631.3476563,668.9453125,238.28125
5.1800,633.3007813,680.6640625,234.375
5.1850,624.0234375,697.7539063,236.8164063
5.1900,611.8164063,726.0742188,245.1171875
5.1950,591.796875,726.5625,243.1640625
5.2000,592.2851563,731.4453125,247.5585938
5.2050,604.9804688,730.46875,240.234375
5.2100,606.4453125,743.1640625,238.7695313
5.2150,591.796875,741.2109375,254.8828125
5.2200,567.3828125,742.6757813,247.5585938
5.2250,567.8710938,761.2304688,235.3515625
5.2300,552.2460938,756.8359375,236.328125
5.2350,560.546875,758.3007813,228.515625
5.2400,553.2226563,754.8828125,247.0703125
5.2450,558.59375,755.859375,231.9335938
5.2500,537.5976563,737.7929688,236.8164063
5.2550,531.7382813,727.5390625,242.6757813
5.2600,533.203125,721.1914063,240.234375
5.2650,539.0625,723.1445313,252.4414063
5.2700,547.8515625,741.6992188,243.6523438
5.2750,541.015625,769.0429688,239.7460938
5.2800,513.1835938,787.5976563,250
5.2850,495.6054688,794.921875,250.4882813
5.2900,498.046875,789.0625,253.90625
5.2950,495.1171875,750.4882813,257.3242188
5.3000,512.2070313,750.4882813,250.9765625
5.3050,492.1875,764.1601563,250.9765625
5.3100,478.0273438,815.4296875,240.7226563
5.3150,462.4023438,852.0507813,233.8867188
5.3200,440.9179688,846.6796875,232.421875
5.3250,423.3398438,800.2929688,250.9765625
5.3300,430.6640625,754.8828125,261.71875
5.3350,437.0117188,739.2578125,231.4453125
5.3400,448.7304688,783.203125,225.5859375
5.3450,447.7539063,844.2382813,230.46875
5.3500,428.2226563,879.8828125,249.5117188
5.3550,404.7851563,866.6992188,269.53125
5.3600,402.8320313,840.3320313,260.2539063
5.3650,406.7382813,812.9882813,235.8398438
5.3700,396.484375,812.9882813,238.28125
5.3750,385.2539063,828.125,236.8164063
5.3800,369.140625,843.2617188,241.6992188
5.3850,363.7695313,842.2851563,241.2109375
5.3900,367.6757813,835.9375,231.9335938
5.3950,368.1640625,833.4960938,232.421875
5.4000,366.6992188,853.0273438,241.2109375
5.4050,346.1914063,862.7929688,259.2773438
5.4100,330.078125,862.3046875,264.1601563
5.4150,334.4726563,872.5585938,263.1835938
5.4200,341.796875,903.3203125,264.6484375
5.4250,328.125,931.640625,243.1640625
5.4300,307.6171875,951.171875,256.8359375
5.4350,274.9023438,935.0585938,267.578125
5.4400,266.1132813,898.9257813,253.90625
5.4450,285.6445313,873.046875,250.4882813
5.4500,295.4101563,874.0234375,244.6289063
5.4550,279.296875,887.2070313,247.5585938
5.4600,250,905.2734375,237.7929688
5.4650,238.28125,941.40625,230.46875
5.4700,234.375,969.7265625,222.65625
5.4750,232.421875,975.0976563,231.9335938
5.4800,224.1210938,961.4257813,243.1640625
5.4850,214.84375,941.40625,229.0039063
5.4900,223.1445313,925.78125,232.421875
5.4950,223.1445313,909.1796875,246.5820313
5.5000,220.703125,920.8984375,244.6289063
5.5050,202.1484375,931.1523438,239.7460938
5.5100,191.40625,916.5039063,237.7929688
5.5150,196.7773438,906.25,243.1640625
5.5200,200.6835938,914.0625,237.7929688
5.5250,197.7539063,942.3828125,244.6289063
5.5300,178.7109375,972.65625,250
5.5350,151.8554688,974.609375,248.5351563
5.5400,139.6484375,963.8671875,249.5117188
5.5450,134.765625,946.2890625,238.28125
5.5500,143.0664063,937.9882813,244.6289063
5.5550,136.2304688,938.4765625,244.6289063
5.5600,130.3710938,959.9609375,281.7382813
5.5650,127.4414063,995.6054688,269.53125
5.5700,127.4414063,1003.417969,285.15625
5.5750,126.953125,985.3515625,272.9492188
5.5800,122.5585938,953.125,272.4609375
5.5850,120.6054688,935.0585938,271.9726563
5.5900,103.515625,932.6171875,247.5585938
5.5950,92.28515625,940.9179688,241.6992188
5.6000,100.5859375,952.1484375,253.4179688
5.6050,86.9140625,926.7578125,280.7617188
5.6100,71.2890625,917.96875,275.8789063
5.6150,61.5234375,938.4765625,268.0664063
5.6200,48.33984375,998.046875,294.4335938
5.6250,41.9921875,1042.96875,317.8710938
5.6300,11.71875,1032.714844,328.125
5.6350,17.08984375,1035.644531,321.7773438
5.6400,8.30078125,1025.390625,307.1289063
5.6450,12.6953125,1013.183594,287.5976563
5.6500,2.9296875,988.28125,274.4140625
5.6550,-12.20703125,956.5429688,257.8125
5.6600,-23.92578125,932.1289063,251.953125
5.6650,-32.2265625,922.3632813,233.8867188
5.6700,-31.25,947.265625,237.3046875
5.6750,-59.08203125,942.3828125,237.3046875
5.6800,-75.68359375,942.8710938,244.140625
5.6850,-89.84375,947.7539063,253.90625
5.6900,-97.16796875,965.3320313,239.7460938
5.6950,-100.5859375,991.2109375,239.2578125
5.7000,-111.8164063,1000.976563,255.3710938
5.7050,-119.6289063,999.0234375,270.9960938
5.7100,-125.9765625,974.609375,261.71875
5.7150,-133.7890625,951.171875,250.4882813
5.7200,-134.2773438,948.2421875,238.28125
5.7250,-151.8554688,951.6601563,241.6992188
5.7300,-171.3867188,965.8203125,244.6289063
5.7350,-198.2421875,948.7304688,239.2578125
5.7400,-200.6835938,943.359375,226.0742188
5.7450,-196.7773438,936.5234375,225.5859375
5.7500,-207.5195313,948.2421875,236.8164063
5.7550,-211.9140625,966.3085938,217.7734375
5.7600,-224.609375,973.6328125,215.8203125
5.7650,-247.5585938,959.4726563,226.5625
5.7700,-246.09375,946.7773438,219.2382813
5.7750,-248.046875,932.6171875,217.2851563
5.7800,-254.8828125,952.6367188,216.3085938
5.7850,-264.6484375,975.5859375,245.1171875
5.7900,-300.78125,958.0078125,255.859375
5.7950,-303.2226563,925.78125,264.1601563
5.8000,-285.15625,920.4101563,252.9296875
5.8050,-285.6445313,932.1289063,239.7460938
5.8100,-297.8515625,962.4023438,245.6054688
5.8150,-315.9179688,970.703125,248.046875
5.8200,-337.890625,955.078125,248.5351563
5.8250,-343.2617188,944.8242188,233.3984375
5.8300,-341.796875,960.4492188,231.9335938
5.8350,-334.9609375,976.0742188,229.9804688
5.8400,-341.3085938,966.796875,250
5.8450,-340.8203125,932.1289063,256.3476563
5.8500,-357.9101563,899.9023438,252.4414063
5.8550,-372.0703125,903.8085938,234.8632813
5.8600,-373.046875,941.40625,249.0234375
5.8650,-390.625,958.4960938,248.5351563
5.8700,-401.3671875,981.4453125,254.8828125
5.8750,-421.875,976.0742188,259.2773438
5.8800,-431.1523438,963.8671875,272.4609375
5.8850,-432.1289063,938.4765625,267.0898438
5.8900,-433.59375,908.203125,246.5820313
5.8950,-430.6640625,895.5078125,229.9804688
5.9000,-446.2890625,876.953125,217.2851563
5.9050,-456.5429688,869.140625,219.2382813
5.9100,-459.9609375,878.90625,209.9609375
5.9150,-478.0273438,877.4414063,218.75
5.9200,-477.5390625,897.4609375,216.796875
5.9250,-476.0742188,911.1328125,225.0976563
5.9300,-462.4023438,932.6171875,235.3515625
5.9350,-467.7734375,925.2929688,242.1875
5.9400,-480.9570313,929.1992188,235.3515625
5.9450,-495.1171875,926.7578125,246.09375
5.9500,-504.8828125,903.3203125,252.9296875
5.9550,-506.3476563,870.1171875,254.3945313
5.9600,-508.7890625,861.8164063,231.4453125
5.9650,-517.0898438,858.8867188,240.7226563
5.9700,-526.3671875,859.375,245.6054688
5.9750,-535.15625,850.5859375,249.5117188
5.9800,-552.2460938,854.0039063,256.8359375
5.9850,-569.3359375,852.5390625,260.2539063
5.9900,-562.5,868.1640625,252.4414063
5.9950,-574.21875,866.2109375,245.6054688
6.0000,-575.6835938,879.3945313,236.328125
6.0050,-570.3125,881.8359375,218.2617188
6.0100,-585.9375,854.4921875,242.6757813
6.0150,-591.3085938,829.5898438,240.234375
6.0200,-613.28125,807.6171875,235.3515625
6.0250,-612.3046875,819.8242188,233.3984375
6.0300,-615.234375,831.5429688,229.9804688
6.0350,-605.46875,848.6328125,232.9101563
6.0400,-622.0703125,840.3320313,233.8867188
6.0450,-619.6289063,832.5195313,239.2578125
6.0500,-618.1640625,826.171875,241.2109375
6.0550,-614.2578125,814.453125,238.7695313
6.0600,-617.6757813,809.5703125,243.1640625
6.0650,-616.2109375,824.21875,249.5117188
6.0700,-624.0234375,835.4492188,246.5820313
6.0750,-623.046875,831.0546875,251.953125
6.0800,-629.8828125,814.453125,251.4648438
6.0850,-648.4375,792.4804688,246.09375
6.0900,-653.3203125,777.8320313,250.9765625
6.0950,-661.6210938,767.0898438,235.8398438
6.1000,-672.3632813,764.1601563,231.4453125
6.1050,-675.2929688,759.2773438,222.1679688
6.1100,-675.78125,761.71875,226.5625
6.1150,-685.0585938,748.5351563,226.0742188
6.1200,-687.9882813,743.1640625,228.515625
6.1250,-705.078125,733.3984375,234.375
6.1300,-711.4257813,742.1875,235.8398438
6.1350,-713.3789063,744.140625,216.796875
6.1400,-717.7734375,739.7460938,217.2851563
6.1450,-712.890625,728.0273438,214.3554688
6.1500,-729.0039063,708.0078125,217.2851563
6.1550,-746.09375,686.5234375,219.2382813
6.1600,-748.046875,676.2695313,208.0078125
6.1650,-754.3945313,666.9921875,201.6601563
6.1700,-765.625,651.3671875,209.4726563
6.1750,-767.578125,658.203125,206.0546875
6.1800,-781.25,657.2265625,219.2382813
6.1850,-787.109375,661.1328125,201.171875
6.1900,-804.6875,655.2734375,222.65625
6.1950,-791.5039063,666.5039063,198.7304688
6.2000,-781.7382813,680.1757813,202.1484375
6.2050,-779.296875,676.7578125,195.8007813
6.2100,-776.3671875,678.7109375,210.4492188
6.2150,-780.7617188,660.15625,214.3554688
6.2200,-792.96875,639.6484375,208.0078125
6.2250,-793.4570313,633.3007813,200.6835938
6.2300,-798.828125,610.3515625,200.6835938
6.2350,-789.0625,609.8632813,198.2421875
6.2400,-800.2929688,603.515625,191.8945313
6.2450,-807.1289063,601.0742188,185.0585938
6.2500,-809.0820313,607.9101563,197.265625
6.2550,-807.6171875,609.8632813,182.1289063
6.2600,-808.1054688,605.9570313,192.8710938
6.2650,-814.9414063,595.2148438,192.3828125
6.2700,-808.59375,584.4726563,207.5195313
6.2750,-813.4765625,570.8007813,206.5429688
6.2800,-816.8945313,573.7304688,206.5429688
6.2850,-813.9648438,576.171875,202.6367188
6.2900,-812.5,575.6835938,194.3359375
6.2950,-810.546875,568.359375,210.9375
6.3000,-812.9882813,580.078125,188.4765625
6.3050,-818.8476563,582.03125,189.453125
6.3100,-819.8242188,576.171875,199.7070313
6.3150,-814.9414063,570.8007813,210.4492188
6.3200,-828.6132813,556.1523438,214.84375
6.3250,-826.171875,550.78125,219.7265625
6.3300,-844.7265625,543.4570313,212.4023438
6.3350,-839.84375,548.3398438,202.1484375
6.3400,-845.703125,552.2460938,215.3320313
6.3450,-845.2148438,556.1523438,219.2382813
6.3500,-842.2851563,556.640625,216.796875
6.3550,-841.3085938,550.2929688,211.4257813
6.3600,-839.84375,544.921875,216.3085938
6.3650,-846.1914063,523.9257813,222.1679688
6.3700,-843.75,515.625,217.2851563
6.3750,-860.8398438,492.1875,231.4453125
6.3800,-865.234375,488.28125,231.4453125
6.3850,-866.2109375,485.3515625,228.0273438
6.3900,-877.4414063,479.9804688,242.6757813
6.3950,-868.1640625,491.2109375,230.9570313
6.4000,-873.5351563,506.3476563,225.0976563
6.4050,-875.9765625,512.6953125,226.0742188
6.4100,-881.3476563,509.2773438,248.046875
6.4150,-875.4882813,485.8398438,248.046875
6.4200,-881.8359375,471.6796875,251.953125
6.4250,-886.2304688,462.4023438,244.6289063
6.4300,-884.765625,469.2382813,257.8125
6.4350,-887.6953125,465.3320313,244.6289063
6.4400,-886.71875,461.4257813,246.09375
6.4450,-877.4414063,453.125,242.6757813
6.4500,-889.6484375,433.1054688,234.8632813
6.4550,-888.1835938,426.7578125,232.421875
6.4600,-896.9726563,411.1328125,237.3046875
6.4650,-902.8320313,403.8085938,240.234375
6.4700,-905.2734375,400.390625,235.3515625
6.4750,-907.2265625,400.8789063,240.7226563
6.4800,-912.109375,413.0859375,237.7929688
6.4850,-913.0859375,413.5742188,249.0234375
6.4900,-917.4804688,409.1796875,259.765625
6.4950,-927.2460938,403.8085938,257.3242188
6.5000,-927.2460938,410.6445313,255.3710938
6.5050,-930.6640625,396.484375,236.328125
6.5100,-914.0625,400.390625,241.2109375
6.5150,-920.8984375,379.8828125,243.1640625
6.5200,-924.3164063,375.9765625,222.65625
6.5250,-936.5234375,369.6289063,222.1679688
6.5300,-935.0585938,360.8398438,234.8632813
6.5350,-924.8046875,357.9101563,219.2382813
6.5400,-923.3398438,350.0976563,213.8671875
6.5450,-938.9648438,333.0078125,220.703125
6.5500,-942.3828125,327.1484375,223.1445313
6.5550,-941.8945313,326.171875,216.796875
6.5600,-928.2226563,330.078125,218.2617188
6.5650,-931.640625,314.453125,220.703125
6.5700,-930.6640625,305.1757813,219.7265625
6.5750,-938.4765625,306.1523438,206.0546875
6.5800,-935.0585938,313.9648438,205.5664063
6.5850,-939.453125,304.6875,205.078125
6.5900,-954.1015625,289.0625,192.3828125
6.5950,-951.6601563,289.0625,194.8242188
6.6000,-947.265625,284.6679688,195.3125
6.6050,-941.40625,274.4140625,192.3828125
6.6100,-941.40625,283.6914063,193.8476563
6.6150,-950.6835938,281.25,195.3125
6.6200,-930.1757813,302.734375,205.5664063
6.6250,-924.3164063,312.0117188,200.6835938
6.6300,-920.4101563,314.9414063,205.078125
6.6350,-930.6640625,291.015625,196.2890625
6.6400,-942.3828125,284.6679688,199.21875
6.6450,-947.7539063,270.9960938,195.3125
6.6500,-949.21875,271.484375,199.21875
6.6550,-942.8710938,270.5078125,185.546875
6.6600,-955.078125,262.6953125,200.6835938
6.6650,-958.4960938,260.2539063,201.171875
6.6700,-962.4023438,262.2070313,196.2890625
6.6750,-959.4726563,278.8085938,194.3359375
6.6800,-953.6132813,284.1796875,196.2890625
6.6850,-944.8242188,279.296875,201.171875
6.6900,-946.2890625,288.5742188,184.0820313
6.6950,-954.5898438,291.9921875,193.8476563
6.7000,-951.6601563,301.2695313,197.7539063
6.7050,-948.2421875,297.3632813,199.7070313
6.7100,-945.3125,290.5273438,208.4960938
6.7150,-943.8476563,277.8320313,207.5195313
6.7200,-950.6835938,274.4140625,223.6328125
6.7250,-955.5664063,267.0898438,234.375
6.7300,-958.4960938,271.9726563,221.6796875
6.7350,-962.890625,267.578125,231.4453125
6.7400,-959.4726563,275.390625,219.7265625
6.7450,-960.4492188,280.2734375,231.9335938
6.7500,-965.8203125,281.25,218.75
6.7550,-957.5195313,284.6679688,217.2851563
6.7600,-954.5898438,270.5078125,226.5625
6.7650,-959.4726563,254.8828125,224.1210938
6.7700,-957.5195313,253.90625,217.7734375
6.7750,-951.171875,245.6054688,219.7265625
6.7800,-945.8007813,240.234375,229.9804688
6.7850,-948.7304688,225.0976563,223.1445313
6.7900,-949.21875,213.3789063,232.9101563
6.7950,-949.21875,207.5195313,236.8164063
6.8000,-945.3125,206.0546875,246.09375
6.8050,-942.3828125,202.6367188,248.046875
6.8100,-932.6171875,213.3789063,262.2070313
6.8150,-937.5,212.890625,270.0195313
6.8200,-943.8476563,221.6796875,280.7617188
6.8250,-946.2890625,232.9101563,291.015625
6.8300,-952.1484375,230.9570313,285.6445313
6.8350,-949.21875,214.3554688,271.9726563
6.8400,-943.8476563,197.265625,256.8359375
6.8450,-950.1953125,179.6875,256.3476563
6.8500,-957.5195313,171.875,250.4882813
6.8550,-945.3125,181.1523438,248.5351563
6.8600,-956.5429688,166.015625,250.9765625
6.8650,-962.890625,155.2734375,246.5820313
6.8700,-962.890625,175.2929688,264.6484375
6.8750,-957.03125,202.6367188,259.2773438
6.8800,-966.796875,217.7734375,268.0664063
6.8850,-951.171875,230.9570313,265.625
6.8900,-945.3125,223.6328125,268.0664063
6.8950,-942.3828125,217.7734375,271.484375
6.9000,-946.2890625,202.6367188,270.5078125
6.9050,-965.8203125,186.5234375,280.2734375
6.9100,-968.2617188,197.7539063,273.4375
6.9150,-975.0976563,199.21875,270.0195313
6.9200,-972.1679688,205.078125,266.6015625
6.9250,-979.4921875,202.6367188,264.6484375
6.9300,-967.2851563,214.3554688,261.2304688
6.9350,-962.890625,208.0078125,257.3242188
6.9400,-967.2851563,193.359375,255.859375
6.9450,-960.4492188,188.9648438,264.1601563
6.9500,-969.2382813,168.4570313,255.859375
6.9550,-959.9609375,165.0390625,256.8359375
6.9600,-970.2148438,149.9023438,249.0234375
6.9650,-959.4726563,162.109375,242.6757813
6.9700,-950.6835938,158.203125,258.7890625
6.9750,-951.171875,138.1835938,242.6757813
6.9800,-952.6367188,138.1835938,228.515625
6.9850,-968.2617188,136.71875,232.421875
6.9900,-966.796875,148.4375,237.3046875
6.9950,-971.1914063,150.390625,242.1875
7.0000,-954.5898438,149.4140625,226.5625
7.0050,-949.21875,135.7421875,225.5859375
7.0100,-951.171875,132.3242188,214.3554688
7.0150,-947.265625,144.0429688,213.3789063
7.0200,-938.4765625,153.3203125,216.3085938
7.0250,-947.7539063,136.2304688,218.75
7.0300,-950.1953125,137.2070313,220.703125
7.0350,-965.3320313,131.8359375,217.2851563
7.0400,-973.6328125,133.7890625,226.0742188
7.0450,-964.3554688,139.1601563,222.1679688
7.0500,-965.3320313,143.0664063,221.1914063
7.0550,-965.3320313,146.484375,211.9140625
7.0600,-953.125,154.7851563,205.078125
7.0650,-947.7539063,144.53125,208.984375
7.0700,-948.2421875,131.3476563,186.5234375
7.0750,-945.3125,125.4882813,188.4765625
7.0800,-950.1953125,126.953125,192.8710938
7.0850,-955.5664063,129.8828125,203.125
7.0900,-955.078125,132.3242188,211.4257813
7.0950,-948.7304688,140.1367188,215.3320313
7.1000,-964.84375,130.3710938,220.703125
7.1050,-963.8671875,142.578125,213.3789063
7.1100,-973.6328125,151.8554688,234.375
7.1150,-967.7734375,149.9023438,227.5390625
7.1200,-962.890625,133.3007813,229.4921875
7.1250,-948.7304688,124.5117188,212.890625
7.1300,-928.7109375,122.5585938,172.8515625
7.1350,-922.3632813,105.9570313,159.1796875
7.1400,-919.4335938,101.0742188,170.4101563
7.1450,-933.59375,93.26171875,176.7578125
7.1500,-938.9648438,109.8632813,180.1757813
7.1550,-944.3359375,117.6757813,207.03125
7.1600,-951.171875,110.3515625,201.6601563
7.1650,-947.265625,111.8164063,211.9140625
7.1700,-951.171875,125.4882813,225.5859375
7.1750,-950.6835938,133.3007813,224.1210938
7.1800,-946.7773438,121.09375,224.609375
7.1850,-943.359375,126.4648438,221.6796875
7.1900,-949.21875,115.7226563,219.7265625
7.1950,-944.8242188,108.3984375,221.6796875
7.2000,-945.3125,104.4921875,213.3789063
7.2050,-945.3125,96.6796875,221.1914063
7.2100,-946.2890625,103.515625,215.3320313
7.2150,-953.6132813,108.3984375,214.3554688
7.2200,-953.125,117.6757813,209.4726563
7.2250,-947.7539063,132.3242188,224.1210938
7.2300,-957.03125,118.1640625,218.75
7.2350,-962.890625,111.328125,210.9375
7.2400,-958.4960938,119.140625,214.84375
7.2450,-965.3320313,121.09375,225.0976563
7.2500,-958.984375,126.4648438,218.75
7.2550,-956.0546875,122.0703125,230.46875
7.2600,-952.1484375,117.1875,231.4453125
7.2650,-952.6367188,110.3515625,233.8867188
7.2700,-962.4023438,113.7695313,252.9296875
7.2750,-961.4257813,117.1875,253.4179688
7.2800,-954.5898438,129.3945313,253.4179688
7.2850,-957.03125,126.953125,253.90625
7.2900,-956.5429688,128.4179688,235.3515625
7.2950,-952.6367188,121.5820313,237.3046875
7.3000,-956.0546875,115.234375,235.8398438
7.3050,-964.84375,101.0742188,243.1640625
7.3100,-953.125,104.4921875,227.5390625
7.3150,-955.5664063,104.9804688,218.2617188
7.3200,-948.7304688,104.0039063,215.3320313
7.3250,-944.8242188,104.9804688,229.0039063
7.3300,-952.6367188,91.30859375,231.4453125
7.3350,-961.4257813,103.0273438,231.9335938
7.3400,-973.1445313,126.4648438,261.2304688
7.3450,-970.703125,145.0195313,259.2773438
7.3500,-963.3789063,145.5078125,272.4609375
7.3550,-966.3085938,131.8359375,267.578125
7.3600,-974.609375,114.2578125,263.671875
7.3650,-971.1914063,110.8398438,262.2070313
7.3700,-968.75,104.0039063,243.1640625
7.3750,-964.84375,95.703125,239.2578125
7.3800,-956.0546875,95.21484375,228.0273438
7.3850,-959.4726563,84.9609375,229.4921875
7.3900,-958.4960938,84.9609375,225.5859375
7.3950,-961.4257813,82.51953125,229.0039063
7.4000,-965.3320313,100.5859375,239.7460938
7.4050,-969.7265625,115.7226563,233.8867188
7.4100,-975.0976563,125.9765625,258.7890625
7.4150,-973.1445313,138.1835938,250
7.4200,-969.7265625,149.9023438,252.4414063
7.4250,-965.3320313,148.4375,250.9765625
7.4300,-958.984375,148.4375,240.234375
7.4350,-960.4492188,135.2539063,238.7695313
7.4400,-974.609375,112.3046875,236.328125
7.4450,-977.0507813,108.8867188,223.6328125
7.4500,-956.0546875,117.1875,230.9570313
7.4550,-954.1015625,109.8632813,227.5390625
7.4600,-957.5195313,104.0039063,227.0507813
7.4650,-957.03125,102.5390625,224.609375
7.4700,-971.1914063,114.2578125,218.75
7.4750,-974.1210938,130.3710938,249.5117188
7.4800,-972.65625,137.2070313,250
7.4850,-967.7734375,136.71875,241.2109375
7.4900,-970.2148438,124.0234375,229.0039063
7.4950,-974.1210938,116.6992188,231.4453125
7.5000,-973.6328125,120.1171875,213.8671875
7.5050,-958.4960938,132.3242188,211.9140625
7.5100,-967.2851563,116.6992188,206.5429688
7.5150,-965.8203125,110.3515625,193.8476563
7.5200,-968.2617188,112.7929688,186.5234375
7.5250,-961.4257813,116.2109375,203.125
7.5300,-962.890625,123.5351563,195.8007813
7.5350,-966.796875,121.5820313,210.4492188
7.5400,-974.609375,129.3945313,214.3554688
7.5450,-975.5859375,138.1835938,211.9140625
7.5500,-975.5859375,144.0429688,216.3085938
7.5550,-972.1679688,132.3242188,208.984375
7.5600,-971.6796875,125.9765625,219.7265625
7.5650,-979.9804688,122.0703125,199.7070313
7.5700,-981.9335938,133.7890625,206.5429688
7.5750,-978.0273438,147.9492188,204.1015625
7.5800,-967.7734375,155.2734375,202.1484375
7.5850,-962.4023438,151.3671875,200.1953125
7.5900,-961.4257813,149.4140625,203.6132813
7.5950,-952.1484375,145.5078125,187.9882813
7.6000,-960.4492188,140.1367188,197.265625
7.6050,-967.2851563,127.4414063,187.0117188
7.6100,-963.8671875,137.6953125,202.1484375
7.6150,-979.9804688,127.4414063,192.8710938
7.6200,-970.2148438,139.1601563,205.078125
7.6250,-972.1679688,139.1601563,198.2421875
7.6300,-963.8671875,146.9726563,201.171875
7.6350,-951.6601563,147.4609375,207.03125
7.6400,-956.5429688,140.1367188,196.2890625
7.6450,-960.4492188,142.0898438,189.9414063
7.6500,-962.4023438,153.8085938,210.4492188
7.6550,-970.703125,161.6210938,200.6835938
7.6600,-972.1679688,176.7578125,205.5664063
7.6650,-974.609375,193.8476563,197.7539063
7.6700,-963.8671875,206.5429688,208.984375
7.6750,-960.4492188,212.890625,219.2382813
7.6800,-961.4257813,217.7734375,201.6601563
7.6850,-965.3320313,218.75,219.7265625
7.6900,-958.4960938,223.1445313,216.3085938
7.6950,-960.9375,201.6601563,209.9609375
7.7000,-956.5429688,186.0351563,216.3085938
7.7050,-960.4492188,173.828125,227.5390625
7.7100,-969.2382813,178.2226563,212.4023438
7.7150,-958.984375,192.8710938,210.4492188
7.7200,-945.3125,216.3085938,211.4257813
7.7250,-959.9609375,224.609375,215.3320313
7.7300,-962.890625,247.5585938,210.4492188
7.7350,-969.2382813,256.3476563,227.0507813
7.7400,-972.65625,262.6953125,220.2148438
7.7450,-968.75,264.6484375,224.1210938
7.7500,-967.2851563,262.6953125,226.0742188
7.7550,-979.0039063,252.4414063,230.46875
7.7600,-973.1445313,259.2773438,231.4453125
7.7650,-977.5390625,253.4179688,229.9804688
7.7700,-977.0507813,253.4179688,219.2382813
7.7750,-970.2148438,251.953125,225.5859375
7.7800,-964.3554688,269.0429688,211.9140625
7.7850,-960.4492188,263.671875,229.0039063
7.7900,-959.9609375,258.3007813,228.0273438
7.7950,-959.4726563,262.2070313,217.2851563
7.8000,-962.4023438,262.2070313,221.1914063
7.8050,-962.890625,264.1601563,229.9804688
7.8100,-958.4960938,269.53125,218.75
7.8150,-947.7539063,273.4375,216.3085938
7.8200,-956.0546875,265.1367188,218.75
7.8250,-948.7304688,269.53125,205.078125
7.8300,-950.1953125,263.1835938,208.984375
7.8350,-958.4960938,259.2773438,207.03125
7.8400,-958.0078125,273.9257813,204.1015625
7.8450,-963.3789063,276.8554688,212.890625
7.8500,-965.3320313,290.0390625,208.4960938
7.8550,-962.890625,300.2929688,211.4257813
7.8600,-959.4726563,308.59375,212.890625
7.8650,-953.6132813,314.9414063,215.8203125
7.8700,-950.6835938,315.4296875,207.03125
7.8750,-948.7304688,316.40625,210.9375
7.8800,-949.7070313,317.8710938,213.3789063
7.8850,-945.3125,317.3828125,213.8671875
7.8900,-945.8007813,317.8710938,208.0078125
7.8950,-945.8007813,312.5,213.8671875
7.9000,-944.8242188,308.1054688,205.078125
7.9050,-951.171875,296.875,210.4492188
7.9100,-955.078125,295.8984375,215.8203125
7.9150,-958.4960938,284.6679688,211.4257813
7.9200,-952.6367188,293.9453125,194.3359375
7.9250,-954.1015625,309.0820313,206.0546875
7.9300,-945.8007813,323.7304688,208.0078125
7.9350,-942.8710938,336.9140625,207.5195313
7.9400,-947.7539063,350.5859375,212.890625
7.9450,-950.6835938,357.421875,215.8203125
7.9500,-941.40625,376.953125,218.75
7.9550,-938.9648438,379.3945313,220.2148438
7.9600,-934.5703125,391.6015625,218.75
7.9650,-934.5703125,392.0898438,222.65625
7.9700,-937.9882813,392.0898438,220.2148438
7.9750,-939.9414063,391.1132813,225.5859375
7.9800,-936.5234375,394.0429688,212.4023438
7.9850,-936.0351563,403.3203125,216.3085938
7.9900,-938.4765625,422.8515625,215.8203125
7.9950,-931.1523438,429.6875,224.609375
8.0000,-921.875,442.3828125,227.0507813
8.0050,-919.921875,451.171875,231.4453125
8.0100,-920.4101563,458.4960938,228.0273438
8.0150,-916.015625,463.3789063,224.1210938
8.0200,-915.0390625,476.5625,239.2578125
8.0250,-905.2734375,486.328125,229.0039063
8.0300,-901.3671875,483.8867188,232.421875
8.0350,-895.5078125,480.46875,224.609375
8.0400,-901.3671875,479.4921875,216.796875
8.0450,-892.0898438,481.4453125,224.1210938
8.0500,-892.578125,487.7929688,227.5390625
8.0550,-888.671875,486.8164063,227.5390625
8.0600,-888.1835938,488.28125,224.1210938
8.0650,-882.8125,500.9765625,239.2578125
8.0700,-880.859375,514.6484375,233.8867188
8.0750,-876.953125,525.390625,229.4921875
8.0800,-867.6757813,542.4804688,231.9335938
8.0850,-867.6757813,544.921875,222.65625
8.0900,-874.0234375,537.5976563,219.7265625
8.0950,-863.28125,546.875,225.5859375
8.1000,-868.6523438,538.0859375,214.3554688
8.1050,-860.8398438,536.6210938,208.4960938
8.1100,-860.3515625,537.5976563,213.8671875
8.1150,-855.46875,544.4335938,214.3554688
8.1200,-843.75,563.4765625,213.3789063
8.1250,-839.84375,567.3828125,225.5859375
8.1300,-839.3554688,572.265625,211.4257813
8.1350,-833.0078125,580.5664063,211.4257813
8.1400,-832.03125,590.3320313,212.4023438
8.1450,-834.4726563,590.8203125,217.7734375
8.1500,-822.7539063,607.9101563,220.2148438
8.1550,-825.1953125,610.8398438,232.421875
8.1600,-819.3359375,607.9101563,229.0039063
8.1650,-809.0820313,611.328125,214.84375
8.1700,-803.7109375,618.6523438,221.6796875
8.1750,-804.1992188,623.5351563,217.7734375
8.1800,-799.3164063,624.5117188,226.0742188
8.1850,-784.6679688,627.9296875,214.84375
8.1900,-787.5976563,620.1171875,217.2851563
8.1950,-788.0859375,616.2109375,216.3085938
8.2000,-782.7148438,624.5117188,219.7265625
8.2050,-788.5742188,625.9765625,218.2617188
8.2100,-785.6445313,635.7421875,228.0273438
8.2150,-773.9257813,637.2070313,222.1679688
8.2200,-770.0195313,641.1132813,218.75
8.2250,-760.2539063,640.1367188,210.9375
8.2300,-757.8125,644.53125,219.2382813
8.2350,-751.953125,653.3203125,221.1914063
8.2400,-743.1640625,662.109375,215.3320313
8.2450,-737.7929688,656.7382813,220.703125
8.2500,-727.0507813,659.1796875,212.890625
8.2550,-728.515625,668.4570313,218.2617188
8.2600,-715.3320313,684.0820313,227.5390625
8.2650,-709.9609375,702.6367188,215.3320313
8.2700,-706.5429688,701.6601563,230.46875
8.2750,-705.078125,704.1015625,239.7460938
8.2800,-709.4726563,696.7773438,225.5859375
8.2850,-703.6132813,693.8476563,227.0507813
8.2900,-700.6835938,701.171875,222.65625
8.2950,-695.3125,707.5195313,227.0507813
8.3000,-689.9414063,711.4257813,215.8203125
8.3050,-685.546875,711.9140625,235.8398438
8.3100,-678.7109375,723.6328125,220.2148438
8.3150,-677.734375,724.1210938,229.4921875
8.3200,-664.0625,736.8164063,223.1445313
8.3250,-645.9960938,750,236.328125
8.3300,-646.484375,755.859375,246.09375
8.3350,-646.9726563,765.625,236.8164063
8.3400,-651.3671875,773.4375,246.09375
8.3450,-646.9726563,777.8320313,237.7929688
8.3500,-645.5078125,777.8320313,240.234375
8.3550,-640.1367188,779.296875,237.3046875
8.3600,-646.9726563,771.9726563,251.4648438
8.3650,-632.8125,789.0625,241.2109375
8.3700,-637.2070313,788.0859375,248.5351563
8.3750,-621.09375,791.5039063,260.2539063
8.3800,-624.0234375,791.9921875,246.09375
8.3850,-608.8867188,811.0351563,252.4414063
8.3900,-619.140625,809.0820313,249.5117188
8.3950,-596.6796875,819.3359375,260.2539063
8.4000,-597.65625,807.1289063,254.3945313
8.4050,-583.0078125,812.0117188,266.1132813
8.4100,-575.6835938,827.1484375,267.578125
8.4150,-572.265625,825.6835938,257.8125
8.4200,-560.546875,843.75,267.578125
8.4250,-554.6875,839.84375,270.0195313
8.4300,-548.828125,847.1679688,269.0429688
8.4350,-547.8515625,833.0078125,265.625
8.4400,-542.96875,834.4726563,269.53125
8.4450,-539.0625,827.6367188,260.2539063
8.4500,-528.8085938,834.9609375,261.71875
8.4550,-521.484375,840.3320313,264.6484375
8.4600,-522.9492188,843.75,258.7890625
8.4650,-511.71875,852.5390625,253.4179688
8.4700,-509.765625,854.9804688,258.3007813
8.4750,-502.4414063,851.0742188,256.8359375
8.4800,-501.953125,843.75,256.3476563
8.4850,-497.5585938,850.5859375,246.5820313
8.4900,-486.8164063,855.9570313,254.8828125
8.4950,-486.328125,854.4921875,240.234375
8.5000,-481.4453125,851.5625,255.859375
8.5050,-456.5429688,867.1875,247.0703125
8.5100,-454.1015625,859.8632813,251.953125
8.5150,-450.1953125,862.7929688,244.140625
8.5200,-446.2890625,872.5585938,247.5585938
8.5250,-441.8945313,878.90625,251.4648438
8.5300,-422.8515625,902.34375,245.6054688
8.5350,-416.9921875,898.4375,243.6523438
8.5400,-419.921875,895.0195313,254.8828125
8.5450,-408.6914063,895.0195313,245.1171875
8.5500,-409.1796875,897.9492188,250.4882813
8.5550,-408.6914063,896.484375,241.6992188
8.5600,-397.9492188,904.7851563,236.8164063
8.5650,-395.9960938,897.4609375,241.2109375
8.5700,-383.3007813,897.4609375,248.5351563
8.5750,-375,891.6015625,245.6054688
8.5800,-384.2773438,880.859375,241.6992188
8.5850,-374.0234375,894.0429688,238.28125
8.5900,-372.5585938,896.9726563,248.046875
8.5950,-362.7929688,903.3203125,260.2539063
8.6000,-355.9570313,899.4140625,250.4882813
8.6050,-345.2148438,899.9023438,266.1132813
8.6100,-331.0546875,909.1796875,253.90625
8.6150,-317.8710938,916.5039063,265.1367188
8.6200,-313.4765625,936.0351563,263.1835938
8.6250,-312.0117188,933.59375,266.6015625
8.6300,-302.734375,942.8710938,272.4609375
8.6350,-304.1992188,938.4765625,279.7851563
8.6400,-305.1757813,947.7539063,279.7851563
8.6450,-292.4804688,962.890625,279.296875
8.6500,-288.0859375,957.5195313,287.109375
8.6550,-277.34375,947.265625,269.53125
8.6600,-273.4375,930.1757813,264.6484375
8.6650,-268.5546875,925.2929688,274.9023438
8.6700,-258.7890625,930.6640625,266.1132813
8.6750,-244.6289063,939.9414063,275.390625
8.6800,-246.09375,944.8242188,265.625
8.6850,-242.6757813,942.8710938,280.7617188
8.6900,-236.328125,938.4765625,295.4101563
8.6950,-217.2851563,940.4296875,278.8085938
8.7000,-222.1679688,930.6640625,271.9726563
8.7050,-199.21875,943.359375,279.296875
8.7100,-200.1953125,938.9648438,289.0625
8.7150,-187.9882813,931.640625,276.3671875
8.7200,-185.546875,934.0820313,279.7851563
8.7250,-181.1523438,945.3125,274.9023438
8.7300,-182.1289063,945.8007813,281.7382813
8.7350,-169.921875,946.2890625,271.484375
8.7400,-162.109375,937.0117188,271.484375
8.7450,-163.0859375,933.59375,274.4140625
8.7500,-145.9960938,949.21875,267.0898438
8.7550,-152.34375,940.9179688,278.8085938
8.7600,-145.9960938,945.3125,288.5742188
8.7650,-136.2304688,941.8945313,268.5546875
8.7700,-131.3476563,937.9882813,261.2304688
8.7750,-115.234375,955.078125,263.671875
8.7800,-120.6054688,957.03125,274.4140625
8.7850,-117.1875,955.078125,282.7148438
8.7900,-104.4921875,968.2617188,280.7617188
8.7950,-85.9375,972.1679688,278.8085938
8.8000,-86.9140625,971.1914063,277.34375
8.8050,-83.0078125,958.4960938,279.296875
8.8100,-72.75390625,957.5195313,283.6914063
8.8150,-70.3125,942.3828125,282.7148438
8.8200,-56.15234375,943.8476563,293.4570313
8.8250,-49.31640625,953.125,284.1796875
8.8300,-46.875,967.7734375,282.7148438
8.8350,-37.59765625,967.2851563,297.8515625
8.8400,-33.69140625,954.1015625,295.8984375
8.8450,-30.76171875,930.6640625,297.3632813
8.8500,-27.34375,932.1289063,288.0859375
8.8550,-19.53125,937.0117188,294.921875
8.8600,-13.18359375,948.2421875,285.6445313
8.8650,-12.20703125,941.8945313,296.875
8.8700,12.20703125,951.171875,302.2460938
8.8750,6.8359375,936.5234375,296.875
8.8800,9.765625,943.359375,306.1523438
8.8850,18.06640625,964.3554688,301.2695313
8.8900,22.4609375,976.5625,306.640625
8.8950,25.390625,958.0078125,313.9648438
8.9000,39.0625,937.5,304.1992188
8.9050,50.29296875,939.9414063,300.2929688
8.9100,56.640625,959.9609375,305.1757813
8.9150,45.8984375,966.796875,311.0351563
8.9200,49.31640625,959.9609375,316.40625
8.9250,54.6875,932.1289063,313.9648438
8.9300,72.75390625,917.4804688,304.6875
8.9350,77.1484375,913.5742188,305.6640625
8.9400,93.26171875,930.6640625,298.828125
8.9450,87.890625,933.1054688,311.0351563
8.9500,100.0976563,944.3359375,311.5234375
8.9550,101.5625,944.3359375,298.828125
8.9600,103.515625,940.4296875,328.6132813
8.9650,112.3046875,950.6835938,318.8476563
8.9700,111.328125,939.453125,317.8710938
8.9750,129.3945313,940.4296875,316.8945313
8.9800,129.3945313,939.9414063,310.0585938
8.9850,132.3242188,942.3828125,313.4765625
8.9900,130.859375,930.1757813,319.8242188
8.9950,146.9726563,919.4335938,307.1289063
9.0000,146.484375,905.2734375,307.6171875
9.0050,158.6914063,913.5742188,304.1992188
9.0100,167.4804688,921.875,303.2226563
9.0150,166.9921875,924.8046875,302.2460938
9.0200,179.6875,932.1289063,311.0351563
9.0250,184.5703125,934.5703125,311.5234375
9.0300,182.1289063,919.921875,312.9882813
9.0350,206.0546875,918.9453125,316.8945313
9.0400,210.9375,916.5039063,314.9414063
9.0450,213.8671875,925.2929688,316.40625
9.0500,218.75,929.6875,314.453125
9.0550,225.5859375,923.3398438,328.125
9.0600,234.375,908.203125,318.8476563
9.0650,243.6523438,913.0859375,315.4296875
9.0700,248.5351563,925.2929688,308.1054688
9.0750,242.6757813,911.6210938,314.9414063
9.0800,253.90625,906.7382813,320.3125
9.0850,258.7890625,901.8554688,314.9414063
9.0900,271.9726563,924.3164063,320.8007813
9.0950,272.9492188,923.828125,323.2421875
9.1000,273.4375,906.25,321.2890625
9.1050,287.109375,895.5078125,310.0585938
9.1100,291.5039063,882.3242188,316.8945313
9.1150,300.78125,875.4882813,307.1289063
9.1200,301.7578125,885.7421875,309.5703125
9.1250,313.4765625,908.6914063,318.8476563
9.1300,312.0117188,920.8984375,320.8007813
9.1350,310.546875,916.015625,322.7539063
9.1400,313.4765625,900.390625,326.171875
9.1450,332.5195313,886.71875,320.8007813
9.1500,328.125,860.3515625,315.4296875
9.1550,343.75,870.1171875,320.3125
9.1600,347.65625,877.4414063,304.6875
9.1650,346.1914063,872.0703125,313.4765625
9.1700,342.7734375,866.6992188,314.9414063
9.1750,361.8164063,868.1640625,320.3125
9.1800,364.7460938,872.0703125,309.5703125
9.1850,370.1171875,869.6289063,305.6640625
9.1900,382.8125,855.46875,335.4492188
9.1950,387.6953125,834.4726563,312.5
9.2000,394.0429688,836.9140625,314.453125
9.2050,402.34375,857.421875,312.5
9.2100,399.9023438,867.6757813,331.5429688
9.2150,406.7382813,877.9296875,330.5664063
9.2200,399.4140625,860.8398438,336.9140625
9.2250,412.109375,853.515625,331.5429688
9.2300,414.5507813,842.7734375,340.3320313
9.2350,415.5273438,831.5429688,335.9375
9.2400,421.875,836.9140625,331.0546875
9.2450,421.875,835.4492188,331.0546875
9.2500,428.2226563,835.4492188,333.0078125
9.2550,440.4296875,821.7773438,322.7539063
9.2600,445.8007813,813.4765625,335.4492188
9.2650,433.1054688,804.1992188,327.1484375
9.2700,438.9648438,812.5,317.8710938
9.2750,452.6367188,804.6875,325.1953125
9.2800,461.9140625,798.3398438,317.8710938
9.2850,460.9375,801.2695313,324.7070313
9.2900,469.7265625,813.4765625,323.2421875
9.2950,469.2382813,804.6875,324.7070313
9.3000,465.3320313,800.2929688,327.6367188
9.3050,481.4453125,808.59375,328.125
9.3100,482.9101563,801.2695313,338.3789063
9.3150,478.0273438,785.6445313,325.1953125
9.3200,491.2109375,777.34375,325.1953125
9.3250,495.1171875,773.9257813,327.6367188
9.3300,497.0703125,774.9023438,327.6367188
9.3350,504.3945313,783.203125,320.8007813
9.3400,512.6953125,801.2695313,321.7773438
9.3450,506.8359375,800.2929688,334.9609375
9.3500,505.859375,788.5742188,335.4492188
9.3550,516.6015625,779.296875,318.359375
9.3600,510.2539063,767.578125,311.5234375
9.3650,506.8359375,775.390625,314.453125
9.3700,508.3007813,791.015625,309.0820313
9.3750,516.1132813,786.1328125,315.9179688
9.3800,520.5078125,770.9960938,309.0820313
9.3850,516.6015625,745.1171875,311.5234375
9.3900,512.6953125,728.0273438,317.8710938
9.3950,526.8554688,735.3515625,295.4101563
9.4000,532.7148438,751.953125,310.0585938
9.4050,528.3203125,748.046875,313.9648438
9.4100,539.5507813,746.09375,317.3828125
9.4150,545.4101563,743.1640625,317.3828125
9.4200,553.2226563,737.3046875,315.9179688
9.4250,548.828125,732.421875,312.0117188
9.4300,555.6640625,725.0976563,318.359375
9.4350,568.359375,717.7734375,323.2421875
9.4400,568.359375,701.171875,317.8710938
9.4450,570.3125,707.5195313,316.8945313
9.4500,580.078125,730.9570313,324.21875
9.4550,584.4726563,728.0273438,339.3554688
9.4600,593.2617188,721.6796875,339.3554688
9.4650,594.2382813,700.1953125,326.171875
9.4700,600.0976563,711.9140625,325.1953125
9.4750,610.3515625,714.3554688,329.1015625
9.4800,617.1875,702.6367188,331.0546875
9.4850,623.5351563,679.1992188,332.03125
9.4900,625.4882813,679.6875,329.5898438
9.4950,632.8125,699.21875,316.8945313
9.5000,636.2304688,704.1015625,341.796875
9.5050,636.2304688,687.5,329.5898438
9.5100,649.4140625,685.0585938,336.9140625
9.5150,663.5742188,684.0820313,340.8203125
9.5200,667.96875,688.9648438,322.7539063
9.5250,665.0390625,688.9648438,336.9140625
9.5300,663.5742188,691.8945313,339.84375
9.5350,662.109375,664.0625,340.8203125
9.5400,675.78125,655.2734375,334.4726563
9.5450,686.5234375,651.8554688,328.6132813
9.5500,688.4765625,654.296875,334.9609375
9.5550,683.1054688,644.0429688,326.171875
9.5600,687.0117188,634.2773438,339.84375
9.5650,681.1523438,628.4179688,328.125
9.5700,690.4296875,635.7421875,321.7773438
9.5750,695.3125,634.2773438,320.8007813
9.5800,700.1953125,630.3710938,327.6367188
9.5850,694.3359375,609.375,327.6367188
9.5900,706.5429688,612.3046875,324.7070313
9.5950,713.8671875,606.9335938,317.3828125
9.6000,707.03125,600.5859375,323.7304688
9.6050,715.3320313,612.7929688,323.7304688
9.6100,711.9140625,611.8164063,331.0546875
9.6150,720.2148438,611.8164063,327.6367188
9.6200,724.1210938,601.5625,332.03125
9.6250,731.9335938,598.6328125,323.2421875
9.6300,725.5859375,583.984375,339.84375
9.6350,730.9570313,575.1953125,321.7773438
9.6400,732.421875,568.359375,328.125
9.6450,739.2578125,572.7539063,320.3125
9.6500,743.6523438,578.125,314.9414063
9.6550,748.046875,590.3320313,328.6132813
9.6600,750,592.7734375,330.5664063
9.6650,750.4882813,594.7265625,339.3554688
9.6700,750,579.5898438,331.0546875
9.6750,750.4882813,566.8945313,317.8710938
9.6800,754.8828125,582.5195313,330.078125
9.6850,748.5351563,573.2421875,327.6367188
9.6900,748.046875,558.1054688,328.6132813
9.6950,741.2109375,542.96875,316.8945313
9.7000,745.6054688,551.7578125,313.9648438
9.7050,747.0703125,553.7109375,311.0351563
9.7100,754.3945313,557.1289063,341.3085938
9.7150,761.2304688,541.015625,341.3085938
9.7200,770.0195313,527.8320313,332.5195313
9.7250,777.8320313,528.3203125,334.9609375
9.7300,784.1796875,533.203125,326.6601563
9.7350,780.2734375,527.8320313,330.078125
9.7400,787.109375,529.296875,333.4960938
9.7450,779.296875,519.53125,334.9609375
9.7500,777.34375,503.90625,322.7539063
9.7550,784.6679688,502.4414063,322.265625
9.7600,784.1796875,509.2773438,318.359375
9.7650,777.34375,520.9960938,310.0585938
9.7700,760.2539063,508.3007813,314.453125
9.7750,764.6484375,489.2578125,307.1289063
9.7800,756.3476563,466.3085938,314.453125
9.7850,767.578125,475.0976563,303.2226563
9.7900,767.578125,468.75,296.875
9.7950,771.484375,473.1445313,309.5703125
9.8000,767.578125,466.3085938,323.7304688
9.8050,768.0664063,458.984375,319.3359375
9.8100,765.1367188,465.3320313,313.9648438
9.8150,766.6015625,452.1484375,316.40625
9.8200,772.4609375,439.9414063,317.8710938
9.8250,786.6210938,436.5234375,315.4296875
9.8300,789.0625,420.8984375,332.03125
9.8350,792.96875,417.4804688,321.7773438
9.8400,794.4335938,416.9921875,324.7070313
9.8450,802.734375,417.96875,329.1015625
9.8500,797.3632813,406.25,335.9375
9.8550,812.5,395.9960938,320.8007813
9.8600,812.5,381.8359375,324.21875
9.8650,828.125,388.1835938,317.8710938
9.8700,833.4960938,390.625,321.7773438
9.8750,834.9609375,391.6015625,325.1953125
9.8800,839.84375,395.5078125,335.4492188
9.8850,839.84375,408.203125,334.4726563
9.8900,837.890625,418.4570313,325.1953125
9.8950,844.2382813,417.96875,337.890625
9.9000,848.1445313,405.7617188,317.8710938
9.9050,848.6328125,390.1367188,318.8476563
9.9100,856.4453125,391.1132813,324.7070313
9.9150,854.9804688,380.859375,324.21875
9.9200,853.515625,385.2539063,314.453125
9.9250,867.6757813,402.8320313,307.6171875
9.9300,847.65625,392.578125,321.2890625
9.9350,840.3320313,381.8359375,302.2460938
9.9400,849.1210938,378.90625,304.1992188
9.9450,856.4453125,373.046875,307.1289063
9.9500,854.9804688,381.3476563,300.78125
9.9550,860.8398438,392.0898438,300.2929688
9.9600,857.421875,390.1367188,310.0585938
9.9650,855.46875,388.1835938,308.59375
9.9700,841.3085938,381.8359375,301.7578125
9.9750,848.6328125,386.2304688,312.9882813
9.9800,838.8671875,389.6484375,301.7578125
9.9850,844.2382813,394.0429688,304.1992188
9.9900,837.4023438,379.3945313,297.3632813
9.9950,850.5859375,371.5820313,285.6445313
10.0000,844.2382813,355.46875,293.9453125
10.0050,846.6796875,336.9140625,291.9921875
10.0100,846.6796875,304.6875,289.0625
10.0150,854.0039063,290.0390625,289.0625
10.0200,854.9804688,292.96875,289.5507813
10.0250,871.09375,308.1054688,304.1992188
10.0300,879.8828125,307.1289063,310.0585938
10.0350,882.3242188,299.8046875,312.5
10.0400,872.0703125,287.5976563,309.0820313
10.0450,883.3007813,284.6679688,315.9179688
10.0500,894.0429688,280.2734375,314.9414063
10.0550,895.0195313,258.7890625,316.40625
10.0600,888.1835938,256.8359375,320.3125
10.0650,889.1601563,278.3203125,324.21875
10.0700,891.1132813,294.921875,314.9414063
10.0750,891.1132813,294.4335938,329.1015625
10.0800,899.4140625,298.828125,317.8710938
10.0850,905.7617188,295.4101563,320.3125
10.0900,895.0195313,270.5078125,334.4726563
10.0950,895.9960938,249.0234375,305.6640625
10.1000,901.3671875,235.8398438,299.8046875
10.1050,919.4335938,246.5820313,304.1992188
10.1100,915.0390625,253.90625,300.2929688
10.1150,914.5507813,269.53125,301.7578125
10.1200,910.15625,272.9492188,318.359375
10.1250,912.5976563,281.7382813,326.6601563
10.1300,914.0625,283.6914063,313.9648438
10.1350,917.4804688,284.6679688,327.6367188
10.1400,913.0859375,271.9726563,322.7539063
10.1450,909.6679688,256.8359375,333.984375
10.1500,920.8984375,271.9726563,325.1953125
10.1550,928.7109375,261.71875,317.3828125
10.1600,929.1992188,248.046875,332.03125
10.1650,937.9882813,241.6992188,310.0585938
10.1700,918.9453125,238.7695313,317.8710938
10.1750,937.9882813,256.8359375,319.8242188
10.1800,935.546875,245.6054688,317.3828125
10.1850,933.59375,213.8671875,331.0546875
10.1900,945.8007813,209.4726563,315.9179688
10.1950,950.6835938,215.3320313,315.4296875
10.2000,945.3125,215.3320313,323.7304688
10.2050,937.9882813,208.984375,329.5898438
10.2100,936.5234375,199.21875,314.453125
10.2150,937.9882813,189.9414063,313.4765625
10.2200,935.0585938,186.5234375,309.0820313
10.2250,932.6171875,190.4296875,305.6640625
10.2300,934.5703125,207.5195313,292.96875
10.2350,941.8945313,225.5859375,297.3632813
10.2400,929.1992188,208.4960938,293.4570313
10.2450,918.4570313,187.5,279.296875
10.2500,930.6640625,190.4296875,271.484375
10.2550,925.78125,180.6640625,270.9960938
10.2600,932.1289063,177.734375,274.9023438
10.2650,937.0117188,163.5742188,269.53125
10.2700,932.6171875,158.203125,278.3203125
10.2750,926.2695313,155.2734375,257.3242188
10.2800,925.2929688,194.8242188,273.4375
10.2850,921.3867188,225.5859375,270.5078125
10.2900,918.4570313,226.5625,280.2734375
10.2950,921.3867188,185.546875,275.390625
10.3000,917.96875,162.5976563,275.8789063
10.3050,915.0390625,168.4570313,254.8828125
10.3100,907.7148438,195.8007813,266.1132813
10.3150,894.0429688,193.359375,250
10.3200,897.4609375,191.8945313,250.9765625
10.3250,898.4375,183.59375,263.1835938
10.3300,900.390625,171.875,241.6992188
10.3350,889.6484375,159.6679688,225.0976563
10.3400,892.0898438,158.6914063,262.6953125
10.3450,896.484375,168.9453125,263.1835938
10.3500,895.0195313,187.9882813,267.578125
10.3550,888.671875,167.4804688,272.9492188
10.3600,896.9726563,156.25,280.7617188
10.3650,885.7421875,141.1132813,250
10.3700,885.2539063,146.484375,263.1835938
10.3750,896.484375,163.0859375,267.578125
10.3800,888.1835938,135.7421875,272.4609375
10.3850,901.8554688,134.2773438,270.9960938
10.3900,896.9726563,143.5546875,267.578125
10.3950,909.1796875,166.5039063,276.8554688
10.4000,900.390625,145.9960938,283.6914063
10.4050,903.8085938,120.1171875,276.8554688
10.4100,901.3671875,126.4648438,279.296875
10.4150,896.9726563,138.671875,283.6914063
10.4200,892.578125,144.53125,299.3164063
10.4250,892.578125,134.2773438,304.1992188
10.4300,906.7382813,151.8554688,302.2460938
10.4350,902.34375,155.2734375,318.359375
10.4400,894.0429688,144.53125,312.9882813
10.4450,904.296875,136.71875,319.3359375
10.4500,906.25,122.0703125,318.359375
10.4550,909.1796875,103.0273438,311.5234375
10.4600,899.4140625,99.609375,306.640625
10.4650,914.0625,119.6289063,317.3828125
10.4700,910.15625,134.2773438,329.5898438
10.4750,899.4140625,138.671875,333.0078125
10.4800,900.8789063,144.0429688,341.796875
10.4850,884.2773438,136.71875,349.1210938
10.4900,889.6484375,144.0429688,349.609375
10.4950,887.2070313,133.7890625,333.4960938
10.5000,874.5117188,125.4882813,333.4960938
10.5050,888.671875,135.2539063,333.4960938
10.5100,899.4140625,128.90625,318.359375
10.5150,901.3671875,119.140625,314.453125
10.5200,897.9492188,121.5820313,314.453125
10.5250,897.9492188,145.0195313,315.4296875
10.5300,888.671875,151.8554688,314.9414063
10.5350,898.9257813,148.4375,319.3359375
10.5400,891.1132813,127.4414063,315.9179688
10.5450,904.7851563,101.0742188,312.0117188
10.5500,895.9960938,102.0507813,305.1757813
10.5550,898.9257813,129.3945313,306.1523438
10.5600,893.0664063,145.0195313,312.5
10.5650,884.765625,146.484375,304.6875
10.5700,888.671875,148.9257813,307.1289063
10.5750,888.1835938,148.4375,285.6445313
10.5800,890.625,146.484375,291.9921875
10.5850,905.2734375,143.0664063,289.5507813
10.5900,913.5742188,134.2773438,281.25
10.5950,916.9921875,140.1367188,282.2265625
10.6000,891.6015625,143.5546875,274.9023438
10.6050,889.1601563,164.0625,264.6484375
10.6100,895.5078125,172.8515625,271.484375
10.6150,896.9726563,157.7148438,273.9257813
10.6200,897.4609375,143.5546875,266.6015625
10.6250,907.2265625,141.1132813,266.1132813
10.6300,905.7617188,138.671875,286.6210938
10.6350,904.7851563,157.2265625,270.9960938
10.6400,898.9257813,170.4101563,274.4140625
10.6450,900.8789063,179.6875,277.8320313
10.6500,897.9492188,185.546875,286.6210938
10.6550,901.8554688,191.8945313,288.0859375
10.6600,896.9726563,188.9648438,291.5039063
10.6650,898.9257813,196.2890625,278.8085938
10.6700,902.34375,211.4257813,263.671875
10.6750,899.9023438,229.4921875,269.53125
10.6800,895.0195313,248.046875,278.3203125
10.6850,888.1835938,254.8828125,291.9921875
10.6900,886.2304688,257.8125,275.390625
10.6950,889.1601563,249.5117188,289.5507813
10.7000,896.9726563,254.8828125,283.203125
10.7050,898.4375,256.3476563,270.0195313
10.7100,891.1132813,249.0234375,283.6914063
10.7150,901.3671875,254.8828125,276.8554688
10.7200,883.7890625,249.5117188,282.2265625
10.7250,895.0195313,262.6953125,288.0859375
10.7300,886.2304688,270.5078125,286.1328125
10.7350,875.4882813,282.2265625,271.9726563
10.7400,874.5117188,298.828125,280.7617188
10.7450,874.5117188,311.5234375,270.9960938
10.7500,872.5585938,321.2890625,296.3867188
10.7550,872.0703125,322.265625,291.5039063
10.7600,868.1640625,315.4296875,287.109375
10.7650,876.4648438,317.3828125,293.9453125
10.7700,877.4414063,310.0585938,286.1328125
10.7750,879.8828125,306.640625,283.6914063
10.7800,868.1640625,316.40625,287.5976563
10.7850,859.8632813,355.46875,281.7382813
10.7900,847.1679688,373.046875,278.3203125
10.7950,848.1445313,390.625,283.6914063
10.8000,846.6796875,372.0703125,289.5507813
10.8050,849.1210938,354.4921875,284.1796875
10.8100,848.6328125,351.5625,276.3671875
10.8150,861.8164063,368.6523438,271.9726563
10.8200,855.46875,385.2539063,262.6953125
10.8250,850.5859375,404.7851563,257.8125
10.8300,847.65625,420.8984375,259.2773438
10.8350,835.4492188,430.6640625,259.765625
10.8400,822.7539063,427.2460938,257.8125
10.8450,830.078125,436.5234375,271.484375
10.8500,844.7265625,452.1484375,264.1601563
10.8550,850.0976563,454.1015625,268.0664063
10.8600,840.8203125,442.3828125,287.109375
10.8650,837.890625,433.1054688,261.71875
10.8700,836.9140625,430.6640625,268.0664063
10.8750,831.5429688,430.6640625,252.4414063
10.8800,835.9375,451.171875,268.0664063
10.8850,830.078125,464.3554688,271.9726563
10.8900,823.2421875,475.5859375,271.484375
10.8950,814.453125,482.9101563,276.8554688
10.9000,797.8515625,493.6523438,271.484375
10.9050,799.8046875,522.4609375,259.765625
10.9100,795.4101563,547.3632813,261.71875
10.9150,793.4570313,553.2226563,270.5078125
10.9200,789.5507813,541.015625,277.34375
10.9250,791.015625,530.2734375,276.3671875
10.9300,802.734375,533.203125,265.625
10.9350,797.8515625,540.5273438,266.1132813
10.9400,789.0625,566.40625,266.1132813
10.9450,778.8085938,569.3359375,267.578125
10.9500,773.9257813,558.1054688,274.9023438
10.9550,782.2265625,529.296875,262.2070313
10.9600,785.15625,520.5078125,254.8828125
10.9650,786.6210938,523.4375,263.1835938
10.9700,777.34375,533.203125,254.8828125
10.9750,762.2070313,549.3164063,253.90625
10.9800,757.3242188,595.2148438,250
10.9850,751.4648438,627.4414063,257.8125
10.9900,750,642.578125,271.484375
10.9950,739.7460938,632.8125,275.390625
11.0000,746.5820313,628.90625,286.1328125
11.0050,742.1875,616.2109375,285.6445313
11.0100,741.2109375,617.6757813,286.1328125
11.0150,738.28125,628.4179688,280.2734375
11.0200,726.0742188,651.3671875,267.0898438
11.0250,713.8671875,677.2460938,273.4375
11.0300,703.125,681.640625,294.921875
11.0350,689.9414063,663.5742188,285.6445313
11.0400,689.453125,650.8789063,282.7148438
11.0450,697.265625,655.2734375,278.8085938
11.0500,691.8945313,666.015625,263.1835938
11.0550,681.640625,681.640625,266.6015625
11.0600,668.4570313,692.8710938,255.3710938
11.0650,658.203125,685.546875,259.2773438
11.0700,659.1796875,667.4804688,257.8125
11.0750,656.7382813,646.484375,257.3242188
11.0800,667.96875,660.15625,269.53125
11.0850,651.8554688,668.9453125,272.9492188
11.0900,640.1367188,690.4296875,279.296875
11.0950,638.671875,700.6835938,279.296875
11.1000,632.8125,694.8242188,285.6445313
11.1050,625.9765625,707.5195313,282.2265625
11.1100,618.1640625,726.5625,290.5273438
11.1150,609.8632813,720.2148438,275.390625
11.1200,601.5625,709.9609375,275.390625
11.1250,604.9804688,700.6835938,268.0664063
11.1300,597.1679688,704.5898438,257.3242188
11.1350,604.9804688,725.0976563,253.4179688
11.1400,598.6328125,735.8398438,262.6953125
11.1450,578.125,723.6328125,264.6484375
11.1500,570.8007813,722.1679688,273.4375
11.1550,575.1953125,719.7265625,261.71875
11.1600,579.5898438,710.4492188,279.296875
11.1650,572.265625,703.125,277.8320313
11.1700,567.3828125,708.0078125,270.5078125
11.1750,566.40625,713.8671875,257.3242188
11.1800,560.546875,732.421875,283.6914063
11.1850,565.4296875,760.2539063,278.3203125
11.1900,545.8984375,776.8554688,283.203125
11.1950,540.0390625,818.8476563,281.25
11.2000,527.34375,821.7773438,290.5273438
11.2050,514.6484375,810.0585938,278.8085938
11.2100,508.3007813,771.9726563,276.8554688
11.2150,518.5546875,742.6757813,266.1132813
11.2200,510.2539063,723.1445313,237.7929688
11.2250,519.53125,762.2070313,231.4453125
11.2300,508.7890625,788.0859375,238.28125
11.2350,500.4882813,799.3164063,248.5351563
11.2400,473.6328125,772.4609375,257.8125
11.2450,474.609375,766.1132813,241.2109375
11.2500,479.0039063,765.1367188,234.375
11.2550,478.0273438,772.9492188,236.328125
11.2600,480.9570313,794.921875,245.1171875
11.2650,481.9335938,800.78125,250
11.2700,475.0976563,809.5703125,253.90625
11.2750,458.4960938,822.7539063,244.140625
11.2800,445.3125,838.8671875,246.5820313
11.2850,428.7109375,836.4257813,252.4414063
11.2900,422.8515625,817.8710938,246.5820313
11.2950,423.3398438,806.640625,254.8828125
11.3000,420.4101563,806.1523438,248.046875
11.3050,424.8046875,815.4296875,254.3945313
11.3100,415.5273438,828.125,252.4414063
11.3150,410.15625,856.9335938,244.140625
11.3200,400.390625,877.4414063,252.4414063
11.3250,380.859375,864.2578125,262.2070313
11.3300,364.2578125,821.7773438,255.859375
11.3350,368.1640625,793.4570313,239.7460938
11.3400,373.046875,792.4804688,236.8164063
11.3450,373.5351563,801.2695313,233.8867188
11.3500,361.8164063,833.0078125,236.8164063
11.3550,344.7265625,874.0234375,255.859375
11.3600,326.171875,886.71875,248.5351563
11.3650,332.5195313,893.0664063,239.7460938
11.3700,328.6132813,879.8828125,250
11.3750,334.9609375,884.765625,247.0703125
11.3800,310.0585938,894.53125,253.4179688
11.3850,299.3164063,889.1601563,253.90625
11.3900,287.109375,859.375,259.765625
11.3950,282.7148438,818.359375,249.0234375
11.4000,278.3203125,803.7109375,231.4453125
11.4050,283.6914063,841.796875,227.0507813
11.4100,264.1601563,871.5820313,238.28125
11.4150,251.953125,875.9765625,247.5585938
11.4200,246.5820313,860.3515625,260.2539063
11.4250,247.5585938,853.0273438,251.953125
11.4300,243.6523438,881.3476563,250
11.4350,245.1171875,921.3867188,250
11.4400,230.46875,937.5,265.625
11.4450,214.3554688,918.9453125,278.8085938
11.4500,203.125,889.1601563,266.1132813
11.4550,206.5429688,859.375,240.7226563
11.4600,213.8671875,859.375,232.421875
11.4650,201.171875,866.6992188,232.421875
11.4700,190.9179688,896.484375,241.6992188
11.4750,180.1757813,939.9414063,257.8125
11.4800,167.4804688,950.1953125,265.1367188
11.4850,150.8789063,941.8945313,255.3710938
11.4900,162.109375,955.078125,246.5820313
11.4950,158.6914063,947.7539063,244.140625
11.5000,142.0898438,931.1523438,263.1835938
11.5050,133.7890625,928.7109375,242.6757813
11.5100,127.9296875,935.0585938,225.5859375
11.5150,118.1640625,941.40625,248.5351563
11.5200,117.6757813,973.1445313,233.8867188
11.5250,97.16796875,979.4921875,242.6757813
11.5300,97.65625,999.5117188,235.3515625
11.5350,94.7265625,988.7695313,246.09375
11.5400,81.0546875,969.7265625,230.9570313
11.5450,71.77734375,949.7070313,218.75
11.5500,47.8515625,940.4296875,218.75
11.5550,29.78515625,947.7539063,227.5390625
11.5600,12.20703125,957.03125,226.0742188
11.5650,15.13671875,964.84375,209.4726563
11.5700,23.4375,983.8867188,216.796875
11.5750,20.99609375,992.1875,212.4023438
11.5800,10.25390625,983.3984375,221.1914063
11.5850,-3.41796875,970.703125,207.03125
11.5900,-17.578125,979.0039063,208.0078125
11.5950,-28.3203125,987.3046875,193.359375
11.6000,-26.85546875,994.6289063,183.59375
11.6050,-15.13671875,985.8398438,201.171875
11.6100,-14.6484375,986.8164063,205.078125
11.6150,-35.15625,995.6054688,225.0976563
11.6200,-74.70703125,994.6289063,229.0039063
11.6250,-98.14453125,992.1875,227.5390625
11.6300,-108.3984375,986.8164063,207.03125
11.6350,-105.46875,1006.835938,202.1484375
11.6400,-105.9570313,1023.4375,197.265625
11.6450,-119.6289063,1011.71875,204.5898438
11.6500,-127.9296875,968.75,204.5898438
11.6550,-118.1640625,944.3359375,188.9648438
11.6600,-121.09375,946.2890625,178.2226563
11.6650,-134.2773438,968.75,187.9882813
11.6700,-133.3007813,1005.859375,199.7070313
11.6750,-130.3710938,1030.273438,203.125
11.6800,-133.7890625,1029.785156,208.0078125
11.6850,-132.3242188,1020.996094,214.84375
11.6900,-147.9492188,1015.625,215.8203125
11.6950,-164.0625,1028.808594,211.4257813
11.7000,-175.78125,1050.78125,220.2148438
11.7050,-192.3828125,1044.433594,233.8867188
11.7100,-198.2421875,1020.996094,226.5625
11.7150,-190.4296875,992.6757813,219.7265625
11.7200,-192.8710938,969.2382813,201.6601563
11.7250,-188.9648438,959.9609375,194.3359375
11.7300,-209.9609375,953.6132813,201.6601563
11.7350,-217.2851563,960.9375,205.5664063
11.7400,-228.515625,980.46875,195.8007813
11.7450,-237.3046875,1031.25,187.5
11.7500,-249.5117188,1063.964844,200.6835938
11.7550,-248.5351563,1038.085938,217.7734375
11.7600,-258.3007813,970.703125,216.796875
11.7650,-256.3476563,940.9179688,194.8242188
11.7700,-262.6953125,968.75,188.9648438
11.7750,-285.6445313,1004.394531,196.2890625
11.7800,-303.7109375,1030.761719,214.84375
11.7850,-321.2890625,1015.136719,204.1015625
11.7900,-327.1484375,985.8398438,199.7070313
11.7950,-327.1484375,969.2382813,185.546875
11.8000,-330.078125,970.2148438,185.546875
11.8050,-335.9375,965.3320313,183.59375
11.8100,-350.0976563,947.265625,185.0585938
11.8150,-354.4921875,938.9648438,173.3398438
11.8200,-370.1171875,938.9648438,164.5507813
11.8250,-369.6289063,959.9609375,163.5742188
11.8300,-363.7695313,995.6054688,176.2695313
11.8350,-380.3710938,988.28125,193.8476563
11.8400,-380.3710938,984.8632813,192.3828125
11.8450,-399.9023438,956.5429688,191.8945313
11.8500,-410.15625,944.8242188,185.0585938
11.8550,-414.0625,933.1054688,182.6171875
11.8600,-434.0820313,918.9453125,188.9648438
11.8650,-455.078125,920.4101563,175.2929688
11.8700,-466.3085938,936.0351563,166.015625
11.8750,-475.0976563,947.265625,159.1796875
11.8800,-467.2851563,955.078125,157.2265625
11.8850,-464.3554688,935.546875,145.0195313
11.8900,-465.3320313,929.6875,135.7421875
11.8950,-458.984375,935.546875,131.8359375
11.9000,-461.9140625,938.9648438,131.3476563
11.9050,-465.3320313,943.8476563,134.765625
11.9100,-473.1445313,923.3398438,156.7382813
11.9150,-477.0507813,901.3671875,159.1796875
11.9200,-478.515625,908.203125,160.15625
11.9250,-479.4921875,919.4335938,142.0898438
11.9300,-472.65625,927.2460938,145.5078125
11.9350,-477.5390625,910.6445313,158.203125
11.9400,-480.9570313,907.2265625,157.7148438
11.9450,-486.328125,920.8984375,151.8554688
11.9500,-499.0234375,915.0390625,151.3671875
11.9550,-492.6757813,917.4804688,161.1328125
11.9600,-493.6523438,902.8320313,155.2734375
11.9650,-499.5117188,885.2539063,166.015625
11.9700,-506.8359375,882.3242188,137.2070313
11.9750,-516.6015625,884.2773438,150.390625
11.9800,-524.9023438,875.4882813,148.4375
11.9850,-519.53125,874.5117188,129.3945313
11.9900,-528.8085938,878.4179688,126.4648438
11.9950,-523.9257813,883.3007813,120.1171875
12.0000,-526.3671875,888.671875,130.3710938
12.0050,-537.5976563,870.1171875,141.1132813
12.0100,-546.3867188,844.7265625,147.4609375
12.0150,-564.453125,827.6367188,140.625
12.0200,-572.7539063,844.2382813,143.0664063
12.0250,-584.4726563,857.9101563,136.71875
12.0300,-588.3789063,862.7929688,143.0664063
12.0350,-588.8671875,835.9375,138.671875
12.0400,-602.5390625,806.1523438,142.578125
12.0450,-607.421875,805.6640625,116.6992188
12.0500,-623.046875,805.1757813,113.28125
12.0550,-623.5351563,807.6171875,114.2578125
12.0600,-635.2539063,801.7578125,105.9570313
12.0650,-639.6484375,798.828125,103.0273438
12.0700,-640.1367188,813.4765625,101.0742188
12.0750,-644.0429688,806.640625,104.4921875
12.0800,-638.671875,809.0820313,98.14453125
12.0850,-645.0195313,821.7773438,103.0273438
12.0900,-645.5078125,839.3554688,108.3984375
12.0950,-642.0898438,844.2382813,117.1875
12.1000,-629.3945313,839.84375,133.3007813
12.1050,-642.578125,793.9453125,159.6679688
12.1100,-652.34375,764.1601563,170.8984375
12.1150,-660.15625,745.6054688,166.5039063
12.1200,-669.921875,733.3984375,168.9453125
12.1250,-665.0390625,727.5390625,152.34375
12.1300,-672.8515625,715.8203125,145.9960938
12.1350,-695.8007813,709.4726563,148.4375
12.1400,-707.03125,715.3320313,143.5546875
12.1450,-708.0078125,727.5390625,140.1367188
12.1500,-722.1679688,721.1914063,124.5117188
12.1550,-724.609375,729.4921875,132.3242188
12.1600,-712.890625,750.4882813,119.6289063
12.1650,-712.890625,766.6015625,122.5585938
12.1700,-708.4960938,769.53125,131.8359375
12.1750,-697.265625,767.578125,137.2070313
12.1800,-697.7539063,759.765625,147.4609375
12.1850,-709.9609375,734.8632813,143.0664063
12.1900,-735.3515625,701.171875,138.671875
12.1950,-732.9101563,681.1523438,134.765625
12.2000,-738.28125,665.0390625,136.2304688
12.2050,-743.6523438,663.5742188,121.09375
12.2100,-767.0898438,667.4804688,135.2539063
12.2150,-761.2304688,680.1757813,135.2539063
12.2200,-759.2773438,682.1289063,125
12.2250,-757.8125,667.96875,133.7890625
12.2300,-767.0898438,645.9960938,127.9296875
12.2350,-785.15625,636.2304688,138.1835938
12.2400,-793.4570313,637.6953125,133.7890625
12.2450,-787.5976563,643.5546875,119.140625
12.2500,-797.3632813,637.6953125,125.9765625
12.2550,-798.828125,637.2070313,122.5585938
12.2600,-814.453125,637.2070313,126.4648438
12.2650,-825.1953125,634.2773438,121.09375
12.2700,-819.3359375,637.6953125,123.046875
12.2750,-818.359375,622.5585938,122.0703125
12.2800,-821.2890625,608.3984375,127.4414063
12.2850,-833.984375,601.0742188,122.5585938
12.2900,-843.75,603.515625,131.8359375
12.2950,-830.5664063,611.328125,125.9765625
12.3000,-823.2421875,611.328125,126.953125
12.3050,-818.8476563,595.703125,119.6289063
12.3100,-824.7070313,575.1953125,139.1601563
12.3150,-834.9609375,544.4335938,127.9296875
12.3200,-836.4257813,532.7148438,128.4179688
12.3250,-854.9804688,527.34375,127.9296875
12.3300,-861.8164063,517.0898438,127.9296875
12.3350,-866.6992188,517.0898438,128.4179688
12.3400,-879.3945313,508.3007813,121.09375
12.3450,-881.3476563,507.3242188,116.2109375
12.3500,-885.2539063,508.7890625,119.6289063
12.3550,-887.6953125,501.4648438,99.609375
12.3600,-914.0625,529.7851563,108.8867188
12.3650,-900.390625,514.6484375,121.5820313
12.3700,-855.9570313,455.078125,91.796875
12.3750,-889.6484375,490.234375,64.94140625
12.3800,-895.0195313,513.671875,80.078125
12.3850,-882.8125,506.3476563,70.3125
12.3900,-881.3476563,481.9335938,62.5
12.3950,-883.3007813,473.1445313,64.453125
12.4000,-888.671875,469.2382813,78.61328125
12.4050,-904.296875,446.7773438,83.0078125
12.4100,-906.7382813,444.3359375,93.75
12.4150,-900.8789063,442.8710938,89.84375
12.4200,-888.1835938,437.5,90.8203125
12.4250,-896.9726563,421.3867188,86.42578125
12.4300,-894.0429688,411.6210938,85.9375
12.4350,-902.8320313,395.9960938,88.37890625
12.4400,-909.1796875,395.0195313,70.3125
12.4450,-904.7851563,398.4375,88.8671875
12.4500,-916.015625,391.6015625,89.35546875
12.4550,-909.6679688,401.3671875,95.21484375
12.4600,-923.3398438,386.2304688,87.40234375
12.4650,-923.828125,387.6953125,81.0546875
12.4700,-924.3164063,388.1835938,72.265625
12.4750,-917.96875,401.3671875,80.078125
12.4800,-918.4570313,405.2734375,71.2890625
12.4850,-910.15625,408.203125,65.4296875
12.4900,-914.5507813,407.7148438,76.171875
12.4950,-916.5039063,412.109375,79.1015625
12.5000,-920.8984375,408.203125,81.0546875
12.5050,-920.8984375,406.25,82.03125
12.5100,-919.4335938,409.1796875,98.6328125
12.5150,-921.875,413.5742188,91.796875
12.5200,-927.734375,409.1796875,90.8203125
12.5250,-927.734375,398.4375,91.30859375
12.5300,-930.1757813,387.2070313,74.21875
12.5350,-929.1992188,393.5546875,75.68359375
12.5400,-930.1757813,397.9492188,76.66015625
12.5450,-934.5703125,396.9726563,75.1953125
12.5500,-925.78125,397.4609375,83.49609375
12.5550,-931.640625,390.1367188,79.1015625
12.5600,-937.0117188,389.1601563,78.125
12.5650,-938.9648438,386.2304688,69.3359375
12.5700,-936.5234375,393.0664063,77.1484375
12.5750,-938.4765625,394.53125,71.2890625
12.5800,-931.1523438,405.7617188,74.70703125
12.5850,-937.5,387.6953125,80.078125
12.5900,-945.3125,395.5078125,80.078125
12.5950,-948.7304688,392.0898438,71.77734375
12.6000,-945.8007813,394.0429688,89.35546875
12.6050,-949.7070313,380.3710938,83.49609375
12.6100,-951.6601563,383.7890625,88.8671875
12.6150,-967.7734375,378.90625,96.19140625
12.6200,-969.7265625,381.8359375,95.21484375
12.6250,-955.5664063,386.2304688,95.21484375
12.6300,-957.03125,379.8828125,105.46875
12.6350,-954.1015625,365.7226563,86.42578125
12.6400,-951.6601563,353.0273438,89.35546875
12.6450,-950.1953125,354.9804688,89.84375
12.6500,-949.7070313,351.5625,83.984375
12.6550,-957.5195313,336.4257813,76.171875
12.6600,-959.9609375,332.5195313,65.91796875
12.6650,-961.4257813,329.1015625,69.82421875
12.6700,-964.3554688,322.7539063,65.4296875
12.6750,-958.0078125,322.7539063,58.59375
12.6800,-967.7734375,322.7539063,55.17578125
12.6850,-969.2382813,323.7304688,62.98828125
12.6900,-985.3515625,315.4296875,80.56640625
12.6950,-987.3046875,305.1757813,71.2890625
12.7000,-985.3515625,312.9882813,75.1953125
12.7050,-991.2109375,308.1054688,71.2890625
12.7100,-987.7929688,308.59375,74.21875
12.7150,-986.328125,308.59375,73.73046875
12.7200,-982.9101563,308.59375,75.68359375
12.7250,-982.421875,297.3632813,47.8515625
12.7300,-987.7929688,272.9492188,65.4296875
12.7350,-991.2109375,256.8359375,47.8515625
12.7400,-990.234375,253.4179688,62.5
12.7450,-974.1210938,261.71875,57.12890625
12.7500,-961.4257813,273.9257813,68.84765625
12.7550,-957.5195313,283.203125,75.68359375
12.7600,-970.703125,284.6679688,81.54296875
12.7650,-978.0273438,271.9726563,90.33203125
12.7700,-974.1210938,272.4609375,82.51953125
12.7750,-965.3320313,281.7382813,83.984375
12.7800,-958.984375,287.109375,90.33203125
12.7850,-957.03125,279.296875,90.33203125
12.7900,-951.6601563,278.8085938,87.40234375
12.7950,-957.5195313,270.0195313,73.73046875
12.8000,-967.2851563,268.0664063,71.77734375
12.8050,-959.9609375,266.1132813,83.49609375
12.8100,-962.890625,262.2070313,87.40234375
12.8150,-957.03125,254.8828125,83.49609375
12.8200,-960.9375,252.4414063,92.7734375
12.8250,-950.1953125,249.5117188,100.0976563
12.8300,-964.3554688,240.7226563,82.03125
12.8350,-971.6796875,234.375,90.33203125
12.8400,-976.0742188,239.7460938,103.0273438
12.8450,-974.609375,233.3984375,97.16796875
12.8500,-984.8632813,242.6757813,94.23828125
12.8550,-984.375,258.7890625,102.0507813
12.8600,-989.7460938,264.1601563,114.7460938
12.8650,-986.328125,265.625,110.8398438
12.8700,-995.6054688,257.8125,125.9765625
12.8750,-998.5351563,243.6523438,111.8164063
12.8800,-994.6289063,241.2109375,100.5859375
12.8850,-972.1679688,246.5820313,84.9609375
12.8900,-964.3554688,236.8164063,67.3828125
12.8950,-951.171875,232.9101563,61.5234375
12.9000,-954.5898438,231.9335938,62.01171875
12.9050,-961.4257813,237.7929688,55.17578125
12.9100,-956.0546875,244.6289063,76.66015625
12.9150,-956.0546875,240.234375,71.2890625
12.9200,-963.3789063,241.2109375,66.40625
12.9250,-961.4257813,242.1875,70.3125
12.9300,-969.2382813,242.1875,82.03125
12.9350,-958.4960938,261.2304688,77.1484375
12.9400,-948.7304688,283.203125,79.1015625
12.9450,-941.40625,293.9453125,78.61328125
12.9500,-940.9179688,296.875,62.5
12.9550,-932.1289063,308.59375,50.78125
12.9600,-938.9648438,326.171875,43.9453125
12.9650,-942.8710938,329.5898438,38.0859375
12.9700,-950.1953125,315.9179688,36.62109375
12.9750,-964.3554688,287.109375,50.29296875
12.9800,-981.4453125,265.625,35.64453125
12.9850,-984.375,254.3945313,46.875
12.9900,-982.421875,232.9101563,41.9921875
12.9950,-988.7695313,208.984375,47.36328125
13.0000,-987.7929688,205.5664063,58.59375
13.0050,-992.6757813,194.8242188,75.68359375
13.0100,-1005.371094,178.2226563,91.30859375
13.0150,-1002.929688,163.5742188,90.8203125
13.0200,-996.09375,145.9960938,82.51953125
13.0250,-995.1171875,137.2070313,74.21875
13.0300,-984.8632813,147.4609375,68.84765625
13.0350,-981.4453125,146.484375,63.96484375
13.0400,-981.4453125,162.5976563,82.03125
13.0450,-992.6757813,166.5039063,91.30859375
13.0500,-995.1171875,165.0390625,104.0039063
13.0550,-990.7226563,150.8789063,96.19140625
13.0600,-978.0273438,150.8789063,77.63671875
13.0650,-979.4921875,149.9023438,59.5703125
13.0700,-978.515625,144.0429688,61.03515625
13.0750,-992.1875,119.140625,64.453125
13.0800,-997.5585938,117.1875,51.26953125
13.0850,-993.6523438,117.6757813,61.5234375
13.0900,-991.6992188,132.8125,49.8046875
13.0950,-982.9101563,140.1367188,56.15234375
13.1000,-983.3984375,139.6484375,60.546875
13.1050,-985.3515625,138.1835938,43.45703125
13.1100,-971.1914063,171.3867188,55.17578125
13.1150,-969.7265625,200.6835938,33.203125
13.1200,-972.65625,233.8867188,25.390625
13.1250,-979.9804688,247.5585938,34.66796875
13.1300,-977.0507813,258.7890625,43.9453125
13.1350,-981.9335938,246.09375,40.52734375
13.1400,-989.7460938,224.1210938,41.50390625
13.1450,-990.234375,207.5195313,57.6171875
13.1500,-1010.253906,186.5234375,66.89453125
13.1550,-1008.789063,169.921875,71.77734375
13.1600,-1017.089844,148.4375,78.125
13.1650,-1020.996094,136.2304688,78.61328125
13.1700,-1024.902344,141.6015625,86.42578125
13.1750,-1021.484375,139.6484375,83.0078125
13.1800,-1010.253906,135.2539063,67.3828125
13.1850,-1004.394531,128.90625,59.08203125
13.1900,-998.046875,133.7890625,34.1796875
13.1950,-991.6992188,134.2773438,54.19921875
13.2000,-977.0507813,149.4140625,37.59765625
13.2050,-973.6328125,157.2265625,31.73828125
13.2100,-970.2148438,145.0195313,38.57421875
13.2150,-971.1914063,143.5546875,24.90234375
13.2200,-980.9570313,146.9726563,7.32421875
13.2250,-968.75,172.3632813,10.7421875
13.2300,-975.0976563,176.2695313,15.625
13.2350,-983.3984375,171.3867188,30.76171875
13.2400,-988.7695313,171.3867188,22.4609375
13.2450,-988.28125,164.5507813,44.921875
13.2500,-975.5859375,152.34375,62.01171875
13.2550,-984.375,138.671875,59.08203125
13.2600,-997.0703125,147.9492188,64.94140625
13.2650,-1018.554688,151.8554688,85.44921875
13.2700,-1017.089844,173.828125,106.9335938
13.2750,-1004.394531,196.7773438,119.140625
13.2800,-1008.300781,206.5429688,116.6992188
13.2850,-1008.300781,217.2851563,100.0976563
13.2900,-988.7695313,231.9335938,99.12109375
13.2950,-992.6757813,234.375,73.2421875
13.3000,-969.2382813,254.8828125,54.6875
13.3050,-952.6367188,270.0195313,54.6875
13.3100,-963.3789063,280.7617188,48.828125
13.3150,-975.5859375,283.6914063,42.48046875
13.3200,-978.0273438,293.4570313,56.640625
13.3250,-985.8398438,299.3164063,44.43359375
13.3300,-985.3515625,312.9882813,50.78125
13.3350,-983.3984375,314.9414063,69.82421875
13.3400,-980.46875,324.21875,80.56640625
13.3450,-979.4921875,309.0820313,63.96484375
13.3500,-983.8867188,303.2226563,69.3359375
13.3550,-987.7929688,292.4804688,83.984375
13.3600,-994.140625,276.8554688,85.44921875
13.3650,-982.421875,284.1796875,78.125
13.3700,-964.3554688,290.5273438,83.984375
13.3750,-967.7734375,283.6914063,81.0546875
13.3800,-961.4257813,296.3867188,83.49609375
13.3850,-965.3320313,296.3867188,91.796875
13.3900,-973.6328125,297.8515625,78.61328125
13.3950,-964.84375,314.9414063,86.42578125
13.4000,-970.703125,325.6835938,97.16796875
13.4050,-963.3789063,335.9375,90.33203125
13.4100,-966.3085938,339.3554688,101.0742188
13.4150,-955.5664063,359.8632813,96.19140625
13.4200,-966.796875,356.4453125,93.75
13.4250,-954.5898438,363.7695313,85.44921875
13.4300,-950.6835938,361.8164063,83.984375
13.4350,-938.4765625,361.328125,78.61328125
13.4400,-947.7539063,350.5859375,66.40625
13.4450,-945.8007813,348.6328125,81.54296875
13.4500,-965.8203125,340.3320313,79.1015625
13.4550,-969.7265625,340.8203125,81.54296875
13.4600,-972.65625,349.609375,83.984375
13.4650,-970.2148438,361.8164063,89.84375
13.4700,-971.1914063,373.5351563,100.5859375
13.4750,-967.7734375,384.2773438,99.12109375
13.4800,-986.328125,374.0234375,109.8632813
13.4850,-980.46875,374.5117188,108.8867188
13.4900,-979.4921875,375,93.26171875
13.4950,-965.3320313,384.765625,96.6796875
13.5000,-963.8671875,397.9492188,90.8203125
13.5050,-951.6601563,419.4335938,96.19140625
13.5100,-948.7304688,427.734375,102.0507813
13.5150,-949.21875,425.78125,92.28515625
13.5200,-944.3359375,422.3632813,104.9804688
13.5250,-936.0351563,413.0859375,82.51953125
13.5300,-934.5703125,416.9921875,95.21484375
13.5350,-937.5,418.9453125,87.40234375
13.5400,-941.8945313,434.0820313,93.75
13.5450,-939.453125,447.265625,93.26171875
13.5500,-939.453125,462.890625,99.12109375
13.5550,-934.5703125,465.3320313,103.0273438
13.5600,-937.9882813,462.4023438,116.2109375
13.5650,-923.3398438,464.84375,106.4453125
13.5700,-925.2929688,461.9140625,109.375
13.5750,-928.2226563,463.3789063,110.3515625
13.5800,-925.78125,469.2382813,106.9335938
13.5850,-928.2226563,472.65625,107.421875
13.5900,-925.78125,488.28125,103.0273438
13.5950,-914.0625,502.9296875,100.0976563
13.6000,-904.7851563,510.2539063,96.19140625
13.6050,-907.2265625,502.4414063,82.51953125
13.6100,-906.25,510.7421875,87.40234375
13.6150,-912.5976563,507.8125,83.0078125
13.6200,-897.4609375,523.9257813,68.84765625
13.6250,-894.0429688,533.6914063,77.63671875
13.6300,-889.6484375,543.4570313,71.77734375
13.6350,-883.3007813,560.0585938,72.265625
13.6400,-886.71875,566.8945313,77.1484375
13.6450,-891.6015625,578.125,85.9375
13.6500,-879.3945313,590.8203125,89.84375
13.6550,-882.3242188,578.125,85.44921875
13.6600,-867.6757813,581.0546875,87.890625
13.6650,-861.328125,577.6367188,86.42578125
13.6700,-851.5625,587.890625,80.078125
13.6750,-847.1679688,586.4257813,102.0507813
13.6800,-854.9804688,587.890625,101.0742188
13.6850,-854.9804688,597.1679688,99.12109375
13.6900,-850.0976563,591.796875,80.56640625
13.6950,-842.2851563,595.703125,80.078125
13.7000,-841.3085938,601.5625,86.9140625
13.7050,-822.265625,619.6289063,77.1484375
13.7100,-827.6367188,616.2109375,86.9140625
13.7150,-819.3359375,619.6289063,70.80078125
13.7200,-823.7304688,619.140625,81.0546875
13.7250,-816.40625,627.4414063,88.37890625
13.7300,-807.6171875,651.8554688,72.75390625
13.7350,-799.8046875,660.15625,88.8671875
13.7400,-791.9921875,674.3164063,97.16796875
13.7450,-780.7617188,679.6875,101.5625
13.7500,-777.8320313,684.5703125,98.6328125
13.7550,-772.4609375,689.9414063,102.5390625
13.7600,-765.625,687.0117188,97.65625
13.7650,-765.625,672.3632813,103.0273438
13.7700,-764.1601563,663.0859375,113.7695313
13.7750,-760.7421875,664.0625,104.0039063
13.7800,-765.625,658.6914063,106.4453125
13.7850,-753.4179688,671.875,100.5859375
13.7900,-744.6289063,682.6171875,111.328125
13.7950,-737.7929688,688.4765625,103.0273438
13.8000,-731.4453125,693.8476563,111.8164063
13.8050,-725.5859375,699.21875,110.3515625
13.8100,-727.0507813,702.6367188,106.9335938
13.8150,-718.75,726.5625,108.8867188
13.8200,-726.0742188,725.5859375,119.6289063
13.8250,-715.8203125,742.6757813,111.328125
13.8300,-714.3554688,745.1171875,116.2109375
13.8350,-708.0078125,749.0234375,115.7226563
13.8400,-713.3789063,756.8359375,110.8398438
13.8450,-703.125,758.7890625,123.046875
13.8500,-698.7304688,757.8125,106.9335938
13.8550,-682.1289063,756.8359375,107.421875
13.8600,-681.1523438,749.5117188,100.5859375
13.8650,-678.7109375,748.5351563,112.3046875
13.8700,-675.78125,758.3007813,113.28125
13.8750,-678.2226563,766.1132813,103.515625
13.8800,-668.9453125,778.8085938,114.2578125
13.8850,-656.7382813,784.1796875,123.046875
13.8900,-654.7851563,785.15625,125.4882813
13.8950,-646.484375,796.3867188,127.4414063
13.9000,-660.6445313,792.96875,123.5351563
13.9050,-647.9492188,797.8515625,125
13.9100,-637.6953125,799.8046875,133.3007813
13.9150,-633.7890625,783.6914063,129.8828125
13.9200,-629.3945313,792.4804688,122.5585938
13.9250,-625,799.3164063,128.90625
13.9300,-628.4179688,803.2226563,121.5820313
13.9350,-613.7695313,820.3125,117.6757813
13.9400,-615.234375,810.546875,124.0234375
13.9450,-607.421875,820.3125,114.7460938
13.9500,-597.65625,840.8203125,113.28125
13.9550,-593.75,840.8203125,128.90625
13.9600,-586.9140625,842.2851563,138.671875
13.9650,-581.5429688,844.2382813,129.8828125
13.9700,-578.125,847.1679688,152.8320313
13.9750,-567.8710938,859.375,155.7617188
13.9800,-562.0117188,863.7695313,155.7617188
13.9850,-553.7109375,857.9101563,149.4140625
13.9900,-542.4804688,867.6757813,152.8320313
13.9950,-542.4804688,861.8164063,142.0898438
14.0000,-536.1328125,872.5585938,161.1328125
14.0050,-524.4140625,873.046875,153.8085938
14.0100,-514.6484375,868.6523438,149.4140625
14.0150,-506.8359375,862.3046875,155.7617188
14.0200,-500,877.4414063,154.7851563
14.0250,-502.4414063,887.2070313,147.4609375
14.0300,-496.5820313,897.4609375,152.8320313
14.0350,-485.8398438,905.7617188,156.25
14.0400,-473.1445313,915.5273438,155.7617188
14.0450,-463.3789063,923.828125,168.9453125
14.0500,-450.6835938,925.78125,153.8085938
14.0550,-451.171875,923.828125,157.2265625
14.0600,-447.265625,929.6875,166.5039063
14.0650,-448.7304688,925.78125,165.0390625
14.0700,-436.5234375,927.734375,159.6679688
14.0750,-419.921875,927.734375,156.7382813
14.0800,-418.9453125,921.875,147.4609375
14.0850,-398.9257813,925.2929688,150.390625
14.0900,-397.9492188,915.0390625,142.578125
14.0950,-387.6953125,917.4804688,142.578125
14.1000,-389.6484375,933.1054688,147.9492188
14.1050,-390.625,938.4765625,145.0195313
14.1100,-375,945.8007813,165.5273438
14.1150,-367.1875,939.453125,163.5742188
14.1200,-353.515625,949.7070313,167.4804688
14.1250,-349.609375,952.6367188,167.96875
14.1300,-343.2617188,952.6367188,169.921875
14.1350,-328.125,945.8007813,164.5507813
14.1400,-312.0117188,952.1484375,167.4804688
14.1450,-306.640625,950.1953125,163.5742188
14.1500,-313.4765625,953.125,177.734375
14.1550,-311.0351563,959.4726563,173.828125
14.1600,-302.2460938,961.4257813,166.9921875
14.1650,-300.78125,950.1953125,169.921875
