type,name,time_units,begin_time,frequency,count,units
signal_3d,"Noraxon MyoMotion-Trajectories-Radial styloid process RT","s",0.0000,200,5172,"mm"

time,x,y,z
0.0000,176.8245404,48.43772115,985.4766105
0.0050,176.7182289,48.46367806,985.4905649
0.0100,176.6119031,48.48956506,985.5045338
0.0150,176.5055632,48.51538214,985.5185169
0.0200,176.3897516,48.54324274,985.5337927
0.0250,176.2648889,48.57294427,985.5503086
0.0300,176.1314881,48.60422842,985.5679956
0.0350,175.9901314,48.63678314,985.5867694
0.0400,175.8414485,48.67025175,985.606533
0.0450,175.6860982,48.70424942,985.627181
0.0500,175.5247583,48.73838131,985.6486029
0.0550,175.3581236,48.77226121,985.6706865
0.0600,175.1869102,48.80552779,985.6933187
0.0650,175.0118561,48.83785484,985.7163865
0.0700,174.8337169,48.86895385,985.7397768
0.0750,174.6532648,48.89856985,985.7633752
0.0800,174.471292,48.92647995,985.7870649
0.0850,174.2886184,48.95250236,985.8107265
0.0900,174.1061014,48.97651056,985.8342398
0.0950,173.9246377,48.99844267,985.8574856
0.1000,173.7451471,49.01830098,985.8803493
0.1050,173.5685486,49.03613969,985.9027217
0.1100,173.3957414,49.05204501,985.9245
0.1150,173.2275931,49.06611478,985.9455857
0.1200,173.0649308,49.07844227,985.9658839
0.1250,172.9085358,49.08910623,985.9853021
0.1300,172.7591412,49.09816687,986.0037516
0.1350,172.6174253,49.10566214,986.021149
0.1400,172.4839973,49.11160307,986.0374161
0.1450,172.3593762,49.11597346,986.0524815
0.1500,172.2439648,49.11873752,986.0662832
0.1550,171.9888758,49.13929626,986.0978885
0.1600,171.7441603,49.1572596,986.1280252
0.1650,171.5107289,49.17410515,986.1568185
0.1700,171.287597,49.18882747,986.1841436
0.1750,171.0749478,49.20168248,986.2098717
0.1800,170.8717555,49.21356204,986.2344966
0.1850,170.6791842,49.22466397,986.2578467
0.1900,170.4968577,49.23354902,986.2797782
0.1950,170.3235295,49.2417068,986.3004611
0.2000,170.1591027,49.24872357,986.3200496
0.2050,170.0031181,49.25529569,986.33866
0.2100,169.8553753,49.26098809,986.3561699
0.2150,169.7161876,49.26619347,986.372644
0.2200,169.5846433,49.27259084,986.3884715
0.2250,169.4591479,49.27939181,986.4035237
0.2300,169.3403214,49.28598423,986.4177551
0.2350,169.2274947,49.29268701,986.4314911
0.2400,169.1188184,49.30016184,986.4446005
0.2450,169.017332,49.3083636,986.457019
0.2500,168.9207183,49.3182851,986.4691718
0.2550,168.8288576,49.32979451,986.4809021
0.2600,168.7423474,49.34389515,986.4923658
0.2650,168.6591227,49.35992022,986.5037495
0.2700,168.5794708,49.37816485,986.5149892
0.2750,168.5024446,49.3982004,986.5261907
0.2800,168.4261488,49.41979863,986.5373843
0.2850,168.3512589,49.4435709,986.5487947
0.2900,168.2777647,49.46923534,986.5604931
0.2950,168.2056276,49.49673391,986.5724325
0.3000,168.1348491,49.5261413,986.5844788
0.3050,168.065335,49.5555905,986.5964767
0.3100,167.9962041,49.58634759,986.6088244
0.3150,167.9281081,49.61763866,986.6211612
0.3200,167.8621939,49.65029746,986.6334249
0.3250,167.7971747,49.68393619,986.6458059
0.3300,167.7344319,49.71895195,986.6581523
0.3350,167.6738641,49.7551641,986.6707337
0.3400,167.6158813,49.79257628,986.683295
0.3450,167.5595912,49.83019995,986.6958287
0.3500,167.5055033,49.86897443,986.7082587
0.3550,167.4548684,49.90702912,986.7201764
0.3600,167.4053084,49.9448879,986.7321507
0.3650,167.3592555,49.98260664,986.7438931
0.3700,167.3149517,50.01989593,986.7555013
0.3750,167.2727601,50.05704776,986.7668214
0.3800,167.2328928,50.09332296,986.7776645
0.3850,167.1944602,50.12763932,986.7881205
0.3900,167.1580896,50.16123425,986.7982815
0.3950,167.1228024,50.19438157,986.8081461
0.4000,167.0888172,50.22797255,986.8179339
0.4050,167.0556029,50.25987485,986.8272634
0.4100,167.0230597,50.2908715,986.8362616
0.4150,166.9914044,50.32127773,986.8449763
0.4200,166.9603885,50.34976926,986.8532745
0.4250,166.9287,50.37774715,986.8613575
0.4300,166.8966152,50.40431602,986.8692313
0.4350,166.8647096,50.42876952,986.876534
0.4400,166.8322607,50.45262388,986.8839439
0.4450,166.800084,50.47456425,986.8909452
0.4500,166.7686227,50.49598814,986.8977908
0.4550,166.7375843,50.5161832,986.904311
0.4600,166.707595,50.53597678,986.9105337
0.4650,166.6784821,50.5547593,986.9164523
0.4700,166.651306,50.57357241,986.922016
0.4750,166.6255792,50.59173957,986.9274553
0.4800,166.6009181,50.60920269,986.9325034
0.4850,166.5783034,50.62575876,986.9370987
0.4900,166.5556602,50.64176297,986.9415057
0.4950,166.534081,50.65685015,986.9455535
0.5000,166.5140176,50.67045764,986.9491541
0.5050,166.494238,50.68427603,986.9527492
0.5100,166.4754758,50.69797042,986.95617
0.5150,166.4570127,50.71123369,986.9594713
0.5200,166.4391597,50.72326893,986.9624892
0.5250,166.4235678,50.73559414,986.9654121
0.5300,166.4093143,50.74797743,986.9681257
0.5350,166.3948219,50.76006072,986.9706549
0.5400,166.3820313,50.77190919,986.9729781
0.5450,166.3692318,50.78343102,986.9752147
0.5500,166.3576641,50.7942033,986.9771183
0.5550,166.3464279,50.80471005,986.9788313
0.5600,166.3351743,50.81405092,986.9804153
0.5650,166.3255483,50.82397411,986.9817323
0.5700,166.3167049,50.83159574,986.982758
0.5750,166.3084836,50.83865818,986.9836086
0.5800,166.3028747,50.84440713,986.9839928
0.5850,166.300458,50.84923194,986.9838722
0.5900,166.3005882,50.8538492,986.9834438
0.5950,166.3033186,50.85617659,986.9823067
0.6000,166.3092082,50.85780905,986.980724
0.6050,166.3184755,50.85830231,986.9785884
0.6100,166.3314369,50.856948,986.975701
0.6150,166.3477556,50.85521857,986.9723245
0.6200,166.3675516,50.8510265,986.9680113
0.6250,166.3921843,50.84582466,986.9631223
0.6300,166.4194765,50.83794224,986.9574604
0.6350,166.4497802,50.82774388,986.9510262
0.6400,166.4836453,50.81546359,986.943833
0.6450,166.5204681,50.80145584,986.9361502
0.6500,166.5603859,50.78524889,986.9277829
0.6550,166.6030193,50.76789857,986.9190075
0.6600,166.6485502,50.74878726,986.9095833
0.6650,166.695549,50.72772197,986.8997692
0.6700,166.7449461,50.70399292,986.8892471
0.6750,166.7968292,50.67839484,986.8781321
0.6800,166.8518899,50.64985373,986.8663014
0.6850,166.9085377,50.61848377,986.8538351
0.6900,166.9683054,50.58486632,986.8406416
0.6950,167.0292137,50.54809157,986.8268859
0.7000,167.0928938,50.5080629,986.812295
0.7050,167.1592154,50.46551814,986.7970103
0.7100,167.2281048,50.4194842,986.780932
0.7150,167.2994051,50.37002475,986.7640638
0.7200,167.3718237,50.31807564,986.7466698
0.7250,167.447305,50.26197451,986.7283597
0.7300,167.5248525,50.2028718,986.7093121
0.7350,167.6047246,50.14132947,986.6895351
0.7400,167.6864154,50.07605999,986.6688957
0.7450,167.7706405,50.0084765,986.6475596
0.7500,167.8565881,49.93784382,986.6254696
0.7550,167.9439466,49.86448173,986.6027362
0.7600,168.0319049,49.78836039,986.5793735
0.7650,168.1209425,49.71042899,986.5556572
0.7700,168.2094693,49.62814842,986.5312734
0.7750,168.2988137,49.54407111,986.5063784
0.7800,168.389259,49.4582633,986.4810802
0.7850,168.4790684,49.36916353,986.4552622
0.7900,168.5693064,49.27863995,986.4291094
0.7950,168.6608172,49.18638619,986.4024539
0.8000,168.7519932,49.09280035,986.3754548
0.8050,168.8438594,48.99692656,986.3477378
0.8100,168.9349494,48.89910856,986.3195643
0.8150,169.0265235,48.79996842,986.2909613
0.8200,169.1174991,48.69980977,986.2621504
0.8250,169.2070831,48.59869502,986.2330968
0.8300,169.2951556,48.49672697,986.2039561
0.8350,169.3833434,48.39390606,986.1745292
0.8400,169.4704558,48.28954409,986.1448823
0.8450,169.5572307,48.18498214,986.1150667
0.8500,169.6430235,48.08023097,986.0850402
0.8550,169.7273255,47.97530397,986.0552087
0.8600,169.8108394,47.87054107,986.025193
0.8650,169.8923377,47.76429734,985.9952371
0.8700,169.9725648,47.65945531,985.9654286
0.8750,170.0503588,47.5539971,985.9356457
0.8800,170.1265955,47.44914165,985.906154
0.8850,170.1993875,47.34563271,985.8772428
0.8900,170.2684922,47.24188681,985.84859
0.8950,170.3333958,47.13990434,985.8206945
0.9000,170.3944883,47.03786573,985.793219
0.9050,170.4520564,46.93720887,985.7663217
0.9100,170.5039477,46.83867196,985.7402909
0.9150,170.550086,46.74093832,985.7151638
0.9200,170.5911101,46.64527592,985.6910987
0.9250,170.6257719,46.5510694,985.6680207
0.9300,170.655132,46.45869079,985.6458787
0.9350,170.6793002,46.36918635,985.6248174
0.9400,170.6964503,46.28193735,985.6050208
0.9450,170.7086496,46.19666747,985.5859642
0.9500,170.7143628,46.11354319,985.5681205
0.9550,170.7141903,46.03290069,985.551463
0.9600,170.7083628,45.95398518,985.5357341
0.9650,170.6972542,45.87714949,985.5209158
0.9700,170.6820958,45.80470901,985.5073539
0.9750,170.6615366,45.73287758,985.4946865
0.9800,170.6361622,45.66348398,985.4830125
0.9850,170.6068085,45.59618388,985.4722825
0.9900,170.5728162,45.53078363,985.4625528
0.9950,170.5349687,45.46755944,985.4538166
1.0000,170.4926498,45.40580227,985.4459147
1.0050,170.4457692,45.34604242,985.4390169
1.0100,170.3941175,45.28897146,985.4332084
1.0150,170.3378094,45.23440997,985.4285471
1.0200,170.2760064,45.18290488,985.4251022
1.0250,170.2069658,45.1342005,985.4230795
1.0300,170.1316531,45.08862636,985.422484
1.0350,170.0488203,45.04624653,985.4236256
1.0400,169.9587332,45.0074666,985.4264347
1.0450,169.8602349,44.971421,985.4308676
1.0500,169.7540354,44.93839815,985.4369307
1.0550,169.6393834,44.90777786,985.4444677
1.0600,169.5166709,44.88033063,985.4537826
1.0650,169.3868243,44.85483503,985.4642797
1.0700,169.2502164,44.83328143,985.4763049
1.0750,169.1061102,44.81356866,985.4896602
1.0800,168.9535717,44.79734114,985.5046264
1.0850,168.7932811,44.78452319,985.5210882
1.0900,168.624786,44.7751888,985.5392455
1.0950,168.4471629,44.76888062,985.5590041
1.1000,168.2609339,44.76569367,985.580451
1.1050,168.0651462,44.7649983,985.6037462
1.1100,167.8598398,44.76720579,985.6287676
1.1150,167.644395,44.77218445,985.6557619
1.1200,167.4198613,44.78033853,985.6845714
1.1250,167.186019,44.79023079,985.7150278
1.1300,166.9432794,44.80186195,985.7472164
1.1350,166.6916107,44.81463042,985.7810751
1.1400,166.4305223,44.82991073,985.8169175
1.1450,166.1592035,44.84608536,985.8546682
1.1500,165.8783812,44.8644153,985.8947312
1.1550,165.5884346,44.88389313,985.9366911
1.1600,165.2883393,44.90544453,985.9809904
1.1650,164.9785161,44.92881615,986.0274032
1.1700,164.659427,44.95446584,986.0761163
1.1750,164.3327401,44.98253809,986.1270888
1.1800,163.9969764,45.01355928,986.1803692
1.1850,163.65443,45.04659076,986.2357012
1.1900,163.3057306,45.08219774,986.2929344
1.1950,162.951375,45.12125892,986.3523141
1.2000,162.5913316,45.16469665,986.4137716
1.2050,162.2252123,45.21203683,986.4774178
1.2100,161.8556223,45.26321457,986.5428355
1.2150,161.4831427,45.31998776,986.6100629
1.2200,161.1060392,45.38146301,986.6791895
1.2250,160.7254327,45.44922417,986.7503907
1.2300,160.340443,45.52435776,986.8238974
1.2350,159.9512836,45.60657446,986.8997663
1.2400,159.5582555,45.69591625,986.9779623
1.2450,159.1600986,45.79275921,987.058798
1.2500,158.7572645,45.89669025,987.1422156
1.2550,158.3502765,46.00913913,987.2284049
1.2600,157.9386801,46.12941593,987.3175002
1.2650,157.5236151,46.25752358,987.4092878
1.2700,157.1026608,46.39190793,987.5040717
1.2750,156.6772201,46.53387682,987.6019145
1.2800,156.2461121,46.68311048,987.703022
1.2850,155.8089296,46.83906484,987.8073739
1.2900,155.3662726,47.0012849,987.9149864
1.2950,154.9184627,47.17059773,988.0259871
1.3000,154.4650399,47.34582845,988.1403445
1.3050,154.0067447,47.52671294,988.2581695
1.3100,153.5421536,47.71254159,988.379613
1.3150,153.0720314,47.90498351,988.504753
1.3200,152.596414,48.10154027,988.6335083
1.3250,152.1151567,48.3034336,988.7661888
1.3300,151.6283328,48.51105671,988.9029959
1.3350,151.1356625,48.72308898,989.0438222
1.3400,150.6372959,48.94012903,989.1889044
1.3450,150.1318328,49.16283701,989.3387011
1.3500,149.6186371,49.39152628,989.4936482
1.3550,149.0985037,49.6259953,989.6539117
1.3600,148.5699716,49.86677595,989.81995
1.3650,148.0313089,50.11557266,989.9926223
1.3700,147.483386,50.37053236,990.1716917
1.3750,146.9246442,50.6332916,990.3581081
1.3800,146.3555128,50.90214342,990.5517765
1.3850,145.7757147,51.17794998,990.7532126
1.3900,145.1851986,51.45989217,990.9625525
1.3950,144.584272,51.74824741,991.1801799
1.4000,143.9721415,52.04219569,991.4061854
1.4050,143.3484558,52.34310502,991.6411117
1.4100,142.7138791,52.65010929,991.8852792
1.4150,142.0679808,52.96331554,992.1390511
1.4200,141.4091035,53.28166189,992.4025299
1.4250,140.7367543,53.60638656,992.6766867
1.4300,140.0506977,53.9381551,992.9615802
1.4350,139.3501368,54.27871031,993.2580881
1.4400,138.6337602,54.62772179,993.5665262
1.4450,137.9019576,54.98510671,993.8870383
1.4500,137.1546537,55.35149118,994.2199197
1.4550,136.3913542,55.72804202,994.5657533
1.4600,135.611086,56.11332057,994.9246521
1.4650,134.8147024,56.50861396,995.2970154
1.4700,133.999792,56.91314171,995.6832647
1.4750,133.1671947,57.32781158,996.0832657
1.4800,132.3169335,57.75323805,996.4976128
1.4850,131.4474874,58.18928746,996.9266654
1.4900,130.5582368,58.63602229,997.3706689
1.4950,129.6496017,59.09346108,997.8296
1.5000,128.720625,59.56133166,998.3042178
1.5050,127.7720785,60.04105466,998.7942452
1.5100,126.8029425,60.53257967,999.3004862
1.5150,125.8127057,61.03559809,999.822863
1.5200,124.8014106,61.55169562,1000.36196
1.5250,123.7689958,62.07872527,1000.917514
1.5300,122.7155447,62.61722418,1001.489702
1.5350,121.6403522,63.16800172,1002.078945
1.5400,120.5439252,63.72962825,1002.685361
1.5450,119.4269565,64.30337505,1003.308973
1.5500,118.2893974,64.8900024,1003.950042
1.5550,117.1312249,65.48681437,1004.608308
1.5600,115.9520992,66.0946986,1005.284179
1.5650,114.7523846,66.71379568,1005.977968
1.5700,113.5315568,67.34422401,1006.689482
1.5750,112.2912736,67.98575202,1007.4191
1.5800,111.0320175,68.63795458,1008.166727
1.5850,109.7559756,69.30084773,1008.932368
1.5900,108.4626119,69.97437697,1009.71601
1.5950,107.1524426,70.65682273,1010.517486
1.6000,105.8264744,71.34950758,1011.337122
1.6050,104.4843478,72.05324507,1012.175009
1.6100,103.1286189,72.7675752,1013.030828
1.6150,101.7593077,73.49016672,1013.904518
1.6200,100.3789216,74.22222313,1014.795778
1.6250,98.98887199,74.96410897,1015.704592
1.6300,97.58903329,75.71368836,1016.630672
1.6350,96.18129855,76.4715406,1017.573935
1.6400,94.76682071,77.23812042,1018.534274
1.6450,93.34745713,78.01137167,1019.511048
1.6500,91.92326765,78.79116308,1020.504855
1.6550,90.49441322,79.5780152,1021.515498
1.6600,89.06226173,80.36984465,1022.542159
1.6650,87.62924706,81.1672061,1023.584898
1.6700,86.1941046,81.96968726,1024.644018
1.6750,84.75866036,82.77718103,1025.718699
1.6800,83.32377454,83.58943502,1026.808905
1.6850,81.88986013,84.40638281,1027.914531
1.6900,80.45892687,85.2279639,1029.035005
1.6950,79.03011417,86.05504331,1030.170737
1.7000,77.6052997,86.88715939,1031.321454
1.7050,76.18570295,87.72359133,1032.486291
1.7100,74.77162368,88.56485234,1033.665211
1.7150,73.36352194,89.41064396,1034.857829
1.7200,71.96246104,90.26104063,1036.063964
1.7250,70.56944058,91.11587695,1037.282924
1.7300,69.18391914,91.97407703,1038.514921
1.7350,67.80631242,92.83392245,1039.75922
1.7400,66.43864532,93.6952066,1041.015238
1.7450,65.07935615,94.55801087,1042.283645
1.7500,63.7286734,95.41958003,1043.563622
1.7550,62.38675397,96.27958179,1044.854851
1.7600,61.05444963,97.13819255,1046.157472
1.7650,59.73033665,97.99314927,1047.471214
1.7700,58.41485757,98.84510004,1048.796255
1.7750,57.1081209,99.69284175,1050.132644
1.7800,55.80908849,100.5339247,1051.479634
1.7850,54.51854735,101.3676765,1052.837207
1.7900,53.23590906,102.1945594,1054.206021
1.7950,51.96078489,103.0134567,1055.585587
1.8000,50.69360125,103.824037,1056.97563
1.8050,49.43387014,104.6259336,1058.376901
1.8100,48.18233458,105.4184689,1059.788741
1.8150,46.93757503,106.2007436,1061.211627
1.8200,45.69951349,106.973369,1062.644979
1.8250,44.46776934,107.7368721,1064.089618
1.8300,43.24156311,108.4889248,1065.54499
1.8350,42.02160893,109.2300071,1067.011158
1.8400,40.80792829,109.9613942,1068.48748
1.8450,39.60023019,110.682575,1069.97445
1.8500,38.39869848,111.3926921,1071.471448
1.8550,37.20197812,112.0925966,1072.97957
1.8600,36.01172131,112.7829896,1074.498411
1.8650,34.82641543,113.4637039,1076.028139
1.8700,33.64795288,114.1352174,1077.568564
1.8750,32.47491503,114.7972381,1079.118912
1.8800,31.30740502,115.449895,1080.67965
1.8850,30.14510198,116.0928263,1082.250062
1.8900,28.98834099,116.7252425,1083.830743
1.8950,27.83791264,117.3477996,1085.421532
1.9000,26.69361181,117.9598485,1087.022121
1.9050,25.55559061,118.5612904,1088.632264
1.9100,24.42412481,119.152413,1090.252313
1.9150,23.29891585,119.7336666,1091.881933
1.9200,22.18081128,120.3055125,1093.521581
1.9250,21.06827994,120.8664024,1095.171235
1.9300,19.96243266,121.4185459,1096.830853
1.9350,18.86386642,121.960995,1098.49983
1.9400,17.77131489,122.4931613,1100.178687
1.9450,16.68485818,123.0168048,1101.86766
1.9500,15.60510219,123.5313309,1103.565708
1.9550,14.5318092,124.0372729,1105.273091
1.9600,13.46540914,124.5359457,1106.99016
1.9650,12.40278265,125.0255581,1108.716629
1.9700,11.34665923,125.5090369,1110.453209
1.9750,10.2969013,125.9829967,1112.198909
1.9800,9.253428021,126.4489982,1113.953831
1.9850,8.216538867,126.9071934,1115.718067
1.9900,7.185315876,127.357161,1117.491339
1.9950,6.159980839,127.7983912,1119.272978
2.0000,5.140588756,128.2314344,1121.063083
2.0050,4.126420831,128.6552451,1122.862028
2.0100,3.116776777,129.0705641,1124.669763
2.0150,2.112313209,129.4768206,1126.48598
2.0200,1.113111286,129.8752395,1128.310397
2.0250,0.1188436603,130.2648101,1130.142783
2.0300,-0.8696816463,130.6461734,1131.983731
2.0350,-1.852725704,131.0198211,1133.833073
2.0400,-2.830709523,131.3862122,1135.691016
2.0450,-3.803161474,131.7449328,1137.55727
2.0500,-4.768880928,132.0968805,1139.43096
2.0550,-5.727928334,132.4415815,1141.312747
2.0600,-6.680446948,132.7785919,1143.202394
2.0650,-7.626447442,133.1089945,1145.100256
2.0700,-8.56425735,133.4321072,1147.004802
2.0750,-9.495133926,133.7483612,1148.916987
2.0800,-10.41836621,134.0581309,1150.836841
2.0850,-11.33356592,134.3614597,1152.763737
2.0900,-12.24032779,134.6576829,1154.696854
2.0950,-13.13850003,134.9461879,1156.636505
2.1000,-14.03020531,135.2275842,1158.582074
2.1050,-14.9150037,135.5009065,1160.533047
2.1100,-15.79367065,135.7667437,1162.489358
2.1150,-16.66456497,136.0245168,1164.449482
2.1200,-17.52729566,136.2741342,1166.413512
2.1250,-18.38169751,136.5146042,1168.380311
2.1300,-19.22879363,136.7483857,1170.350596
2.1350,-20.06811093,136.973805,1172.323249
2.1400,-20.90019655,137.192062,1174.298765
2.1450,-21.72553865,137.4007686,1176.27615
2.1500,-22.54494109,137.6013926,1178.25593
2.1550,-23.35711546,137.7940706,1180.236333
2.1600,-24.16320808,137.978362,1182.217034
2.1650,-24.96306693,138.1540915,1184.197412
2.1700,-25.75702695,138.3197857,1186.177079
2.1750,-26.54614199,138.476649,1188.156548
2.1800,-27.32907818,138.6241875,1190.134731
2.1850,-28.10555602,138.7632674,1192.11243
2.1900,-28.87656708,138.8940504,1194.088374
2.1950,-29.642457,139.015738,1196.062764
2.2000,-30.40259957,139.1280722,1198.035445
2.2050,-31.15664839,139.2302397,1200.006144
2.2100,-31.90427983,139.3228297,1201.973832
2.2150,-32.64445077,139.4055991,1203.938381
2.2200,-33.3779452,139.479664,1205.899831
2.2250,-34.10404596,139.5452446,1207.857732
2.2300,-34.82330596,139.6012777,1209.811562
2.2350,-35.53630286,139.6495275,1211.76247
2.2400,-36.24258643,139.6887902,1213.709913
2.2450,-36.94263561,139.7190072,1215.653083
2.2500,-37.6360099,139.7407543,1217.592067
2.2550,-38.32167244,139.7521736,1219.526878
2.2600,-38.99953142,139.7548113,1221.456147
2.2650,-39.66811043,139.7477501,1223.379893
2.2700,-40.32910396,139.7315223,1225.298182
2.2750,-40.98334089,139.7060556,1227.211387
2.2800,-41.63026207,139.6709534,1229.119463
2.2850,-42.27116262,139.6260962,1231.02252
2.2900,-42.90543058,139.5717882,1232.920485
2.2950,-43.53290788,139.5068999,1234.813394
2.3000,-44.15404958,139.4331203,1236.700874
2.3050,-44.76835763,139.3505308,1238.583267
2.3100,-45.37437497,139.2599629,1240.460034
