type,name,time_units,begin_time,frequency,count,units
signal_3d,"Noraxon MyoMotion-Segments-Upper arm RT-Sensor Acceleration","s",0.0000,200,5172,"mG"

time,x,y,z
0.0000,953.6132813,-99.609375,-229.0039063
0.0050,954.5898438,-100.5859375,-225.0976563
0.0100,953.6132813,-94.23828125,-212.4023438
0.0150,959.4726563,-87.890625,-208.4960938
0.0200,968.2617188,-69.82421875,-208.0078125
0.0250,974.1210938,-58.59375,-212.4023438
0.0300,976.0742188,-51.26953125,-206.0546875
0.0350,988.28125,-36.62109375,-199.7070313
0.0400,984.375,-33.69140625,-197.265625
0.0450,981.9335938,-35.64453125,-194.3359375
0.0500,982.421875,-35.15625,-197.7539063
0.0550,978.0273438,-44.921875,-184.0820313
0.0600,972.65625,-45.8984375,-180.1757813
0.0650,976.5625,-48.828125,-188.9648438
0.0700,983.8867188,-45.8984375,-184.5703125
0.0750,979.4921875,-46.38671875,-189.9414063
0.0800,981.9335938,-48.33984375,-195.3125
0.0850,974.609375,-50.78125,-193.359375
0.0900,982.9101563,-41.50390625,-200.1953125
0.0950,972.65625,-58.10546875,-214.3554688
0.1000,977.5390625,-55.6640625,-213.8671875
0.1050,966.796875,-65.91796875,-201.6601563
0.1100,966.796875,-65.91796875,-224.1210938
0.1150,968.75,-64.453125,-208.984375
0.1200,959.4726563,-69.3359375,-224.609375
0.1250,967.2851563,-59.08203125,-214.3554688
0.1300,966.3085938,-55.6640625,-205.5664063
0.1350,972.1679688,-54.6875,-222.65625
0.1400,972.65625,-44.921875,-213.3789063
0.1450,974.1210938,-60.05859375,-213.3789063
0.1500,970.703125,-57.6171875,-226.5625
0.1550,966.3085938,-63.96484375,-221.6796875
0.1600,965.8203125,-67.3828125,-225.0976563
0.1650,964.84375,-74.70703125,-219.2382813
0.1700,953.6132813,-78.125,-224.609375
0.1750,966.3085938,-77.1484375,-226.5625
0.1800,959.9609375,-76.171875,-237.3046875
0.1850,967.2851563,-84.9609375,-237.7929688
0.1900,970.2148438,-82.03125,-243.1640625
0.1950,969.2382813,-87.40234375,-240.7226563
0.2000,974.1210938,-80.078125,-239.2578125
0.2050,976.5625,-78.61328125,-232.9101563
0.2100,981.4453125,-70.3125,-224.1210938
0.2150,978.0273438,-73.2421875,-239.2578125
0.2200,983.3984375,-67.87109375,-230.46875
0.2250,987.3046875,-62.01171875,-238.28125
0.2300,985.8398438,-63.4765625,-238.7695313
0.2350,987.3046875,-68.84765625,-245.6054688
0.2400,978.515625,-76.66015625,-242.6757813
0.2450,983.8867188,-72.75390625,-243.1640625
0.2500,976.0742188,-85.9375,-238.28125
0.2550,976.0742188,-87.890625,-235.8398438
0.2600,972.65625,-87.890625,-230.46875
0.2650,979.0039063,-72.265625,-229.0039063
0.2700,974.1210938,-70.80078125,-224.609375
0.2750,979.4921875,-65.4296875,-213.8671875
0.2800,976.5625,-62.98828125,-229.9804688
0.2850,973.1445313,-59.5703125,-216.796875
0.2900,974.1210938,-49.8046875,-224.1210938
0.2950,969.7265625,-52.734375,-229.0039063
0.3000,960.9375,-54.19921875,-219.2382813
0.3050,965.3320313,-52.734375,-222.1679688
0.3100,962.890625,-59.5703125,-222.65625
0.3150,962.4023438,-71.77734375,-222.65625
0.3200,967.7734375,-64.453125,-210.4492188
0.3250,972.1679688,-71.2890625,-219.7265625
0.3300,965.8203125,-71.77734375,-217.7734375
0.3350,971.6796875,-67.87109375,-220.703125
0.3400,970.703125,-70.80078125,-207.5195313
0.3450,977.0507813,-71.77734375,-211.4257813
0.3500,974.1210938,-71.77734375,-209.9609375
0.3550,973.6328125,-72.75390625,-208.0078125
0.3600,976.0742188,-69.82421875,-201.6601563
0.3650,975.5859375,-67.87109375,-218.2617188
0.3700,973.6328125,-64.453125,-201.6601563
0.3750,978.0273438,-63.4765625,-216.3085938
0.3800,980.9570313,-68.84765625,-214.84375
0.3850,975.0976563,-63.96484375,-221.6796875
0.3900,974.1210938,-67.3828125,-215.3320313
0.3950,964.84375,-76.171875,-215.8203125
0.4000,976.0742188,-68.84765625,-217.7734375
0.4050,973.6328125,-69.82421875,-223.1445313
0.4100,973.6328125,-68.84765625,-215.8203125
0.4150,979.4921875,-71.77734375,-206.0546875
0.4200,976.5625,-76.171875,-217.7734375
0.4250,986.8164063,-59.08203125,-208.984375
0.4300,980.9570313,-70.80078125,-224.609375
0.4350,973.6328125,-73.2421875,-210.4492188
0.4400,978.515625,-68.359375,-219.2382813
0.4450,971.6796875,-78.125,-214.84375
0.4500,974.1210938,-77.63671875,-211.4257813
0.4550,975.0976563,-79.58984375,-214.84375
0.4600,970.703125,-83.49609375,-218.75
0.4650,974.1210938,-83.984375,-217.7734375
0.4700,976.0742188,-78.61328125,-210.9375
0.4750,977.5390625,-77.1484375,-207.5195313
0.4800,978.0273438,-66.40625,-214.84375
0.4850,980.46875,-69.82421875,-211.4257813
0.4900,979.0039063,-70.3125,-212.4023438
0.4950,978.515625,-73.2421875,-206.0546875
0.5000,980.9570313,-66.40625,-211.9140625
0.5050,974.1210938,-73.2421875,-212.890625
0.5100,977.0507813,-67.87109375,-206.0546875
0.5150,975.5859375,-73.73046875,-213.3789063
0.5200,964.84375,-80.078125,-218.75
0.5250,968.75,-79.1015625,-214.3554688
0.5300,966.3085938,-82.51953125,-202.6367188
0.5350,973.1445313,-82.03125,-222.1679688
0.5400,969.2382813,-85.9375,-211.4257813
0.5450,972.65625,-84.9609375,-212.4023438
0.5500,972.65625,-82.03125,-222.65625
0.5550,978.515625,-77.63671875,-218.2617188
0.5600,973.1445313,-78.125,-221.6796875
0.5650,963.3789063,-83.49609375,-219.7265625
0.5700,977.0507813,-67.87109375,-229.4921875
0.5750,970.2148438,-73.2421875,-208.4960938
0.5800,969.7265625,-72.265625,-217.7734375
0.5850,963.8671875,-76.171875,-220.2148438
0.5900,966.3085938,-76.66015625,-224.1210938
0.5950,972.1679688,-73.73046875,-224.609375
0.6000,968.75,-76.171875,-203.125
0.6050,964.3554688,-82.51953125,-214.3554688
0.6100,965.8203125,-83.984375,-229.9804688
0.6150,963.8671875,-91.30859375,-214.3554688
0.6200,969.2382813,-86.9140625,-225.5859375
0.6250,964.3554688,-92.7734375,-226.0742188
0.6300,964.3554688,-91.796875,-218.2617188
0.6350,968.2617188,-90.33203125,-219.2382813
0.6400,968.75,-81.54296875,-229.0039063
0.6450,967.7734375,-85.9375,-227.5390625
0.6500,972.65625,-75.68359375,-221.6796875
0.6550,961.9140625,-82.03125,-224.609375
0.6600,973.6328125,-72.265625,-223.6328125
0.6650,967.7734375,-73.73046875,-216.796875
0.6700,966.3085938,-74.21875,-209.4726563
0.6750,962.890625,-83.0078125,-226.5625
0.6800,972.1679688,-71.2890625,-216.796875
0.6850,970.703125,-81.0546875,-217.7734375
0.6900,969.2382813,-82.03125,-221.6796875
0.6950,966.3085938,-83.0078125,-229.0039063
0.7000,971.1914063,-83.0078125,-219.2382813
0.7050,966.796875,-84.9609375,-226.5625
0.7100,963.8671875,-87.40234375,-228.0273438
0.7150,965.8203125,-84.47265625,-228.515625
0.7200,960.4492188,-87.40234375,-232.9101563
0.7250,961.4257813,-84.9609375,-229.0039063
0.7300,965.8203125,-83.0078125,-235.3515625
0.7350,970.2148438,-83.49609375,-228.515625
0.7400,966.796875,-82.51953125,-234.375
0.7450,969.2382813,-87.890625,-228.0273438
0.7500,973.1445313,-79.58984375,-228.515625
0.7550,972.65625,-87.40234375,-228.515625
0.7600,972.1679688,-83.984375,-229.4921875
0.7650,967.2851563,-83.984375,-220.2148438
0.7700,964.84375,-88.37890625,-227.0507813
0.7750,967.7734375,-86.9140625,-225.0976563
0.7800,968.75,-81.54296875,-218.75
0.7850,968.75,-87.890625,-236.328125
0.7900,969.2382813,-79.58984375,-228.0273438
0.7950,959.4726563,-96.6796875,-224.609375
0.8000,967.2851563,-83.984375,-230.9570313
0.8050,966.796875,-93.26171875,-235.3515625
0.8100,970.2148438,-83.984375,-225.5859375
0.8150,968.2617188,-89.35546875,-224.1210938
0.8200,969.7265625,-80.078125,-225.0976563
0.8250,973.1445313,-80.56640625,-226.5625
0.8300,977.0507813,-77.1484375,-228.0273438
0.8350,972.65625,-86.42578125,-229.9804688
0.8400,970.703125,-80.078125,-220.703125
0.8450,967.7734375,-80.56640625,-229.4921875
0.8500,967.7734375,-78.125,-236.8164063
0.8550,968.75,-79.1015625,-219.7265625
0.8600,971.6796875,-77.63671875,-229.4921875
0.8650,964.84375,-80.078125,-232.421875
0.8700,966.3085938,-73.2421875,-221.1914063
0.8750,963.8671875,-79.1015625,-223.6328125
0.8800,971.1914063,-69.3359375,-220.2148438
0.8850,966.796875,-73.73046875,-231.4453125
0.8900,966.3085938,-70.3125,-218.75
0.8950,970.2148438,-78.61328125,-227.0507813
0.9000,967.2851563,-71.77734375,-228.515625
0.9050,966.3085938,-82.03125,-233.8867188
0.9100,968.75,-69.82421875,-230.9570313
0.9150,970.703125,-71.77734375,-221.1914063
0.9200,965.3320313,-76.66015625,-217.7734375
0.9250,967.2851563,-70.80078125,-222.65625
0.9300,968.75,-70.3125,-222.65625
0.9350,967.7734375,-70.80078125,-211.4257813
0.9400,971.6796875,-60.05859375,-213.8671875
0.9450,970.703125,-69.3359375,-210.9375
0.9500,976.0742188,-61.03515625,-219.2382813
0.9550,980.9570313,-64.94140625,-220.703125
0.9600,977.5390625,-56.640625,-209.9609375
0.9650,984.8632813,-57.6171875,-215.3320313
0.9700,988.7695313,-49.31640625,-234.8632813
0.9750,977.5390625,-66.89453125,-223.6328125
0.9800,980.46875,-60.05859375,-211.4257813
0.9850,974.609375,-71.2890625,-230.46875
0.9900,969.7265625,-83.984375,-233.3984375
0.9950,971.6796875,-84.47265625,-223.1445313
1.0000,973.1445313,-87.40234375,-234.375
1.0050,971.6796875,-89.35546875,-245.1171875
1.0100,963.3789063,-89.35546875,-243.6523438
1.0150,965.3320313,-86.42578125,-224.609375
1.0200,970.703125,-72.75390625,-227.0507813
1.0250,964.3554688,-69.3359375,-233.8867188
1.0300,965.8203125,-65.4296875,-230.9570313
1.0350,964.84375,-61.03515625,-242.6757813
1.0400,960.4492188,-59.08203125,-239.7460938
1.0450,955.078125,-61.5234375,-240.7226563
1.0500,955.5664063,-61.5234375,-242.6757813
1.0550,964.3554688,-56.15234375,-229.4921875
1.0600,960.4492188,-60.546875,-239.2578125
1.0650,965.3320313,-68.359375,-233.8867188
1.0700,964.3554688,-61.03515625,-229.4921875
1.0750,972.1679688,-57.6171875,-235.3515625
1.0800,960.9375,-74.21875,-222.65625
1.0850,960.9375,-71.2890625,-228.0273438
1.0900,967.7734375,-63.96484375,-229.4921875
1.0950,968.75,-76.171875,-239.7460938
1.1000,970.2148438,-71.77734375,-241.2109375
1.1050,971.6796875,-74.70703125,-236.328125
1.1100,974.1210938,-68.359375,-234.8632813
1.1150,973.6328125,-58.10546875,-237.3046875
1.1200,964.84375,-67.3828125,-240.7226563
1.1250,965.3320313,-62.98828125,-232.421875
1.1300,961.4257813,-62.5,-238.7695313
1.1350,961.4257813,-67.3828125,-231.9335938
1.1400,967.7734375,-58.59375,-233.3984375
1.1450,969.7265625,-51.7578125,-220.703125
1.1500,963.8671875,-46.875,-206.0546875
1.1550,981.9335938,-37.109375,-195.8007813
1.1600,987.7929688,-30.76171875,-198.2421875
1.1650,983.3984375,-33.203125,-193.8476563
1.1700,979.4921875,-39.55078125,-201.6601563
1.1750,987.3046875,-41.9921875,-201.171875
1.1800,987.3046875,-52.24609375,-199.7070313
1.1850,982.421875,-68.359375,-237.3046875
1.1900,988.7695313,-76.171875,-232.421875
1.1950,985.8398438,-82.51953125,-250
1.2000,986.328125,-78.61328125,-265.625
1.2050,987.7929688,-74.70703125,-273.9257813
1.2100,991.6992188,-68.359375,-243.6523438
1.2150,991.6992188,-69.3359375,-257.8125
1.2200,979.9804688,-65.91796875,-227.0507813
1.2250,981.4453125,-65.91796875,-225.0976563
1.2300,977.5390625,-68.84765625,-221.6796875
1.2350,979.9804688,-64.453125,-214.84375
1.2400,971.6796875,-68.84765625,-229.0039063
1.2450,968.2617188,-70.3125,-231.4453125
1.2500,955.5664063,-81.0546875,-248.5351563
1.2550,959.4726563,-82.03125,-248.046875
1.2600,962.4023438,-77.1484375,-271.9726563
1.2650,959.4726563,-75.68359375,-268.0664063
1.2700,959.9609375,-65.4296875,-269.53125
1.2750,966.3085938,-59.5703125,-251.4648438
1.2800,962.4023438,-61.5234375,-242.1875
1.2850,961.4257813,-62.98828125,-238.28125
1.2900,972.65625,-57.12890625,-232.421875
1.2950,983.8867188,-59.5703125,-231.9335938
1.3000,973.1445313,-71.2890625,-226.5625
1.3050,990.7226563,-71.2890625,-224.1210938
1.3100,978.515625,-83.0078125,-216.796875
1.3150,989.2578125,-75.68359375,-220.703125
1.3200,989.7460938,-75.68359375,-226.5625
1.3250,995.1171875,-67.87109375,-223.6328125
1.3300,982.9101563,-67.87109375,-232.9101563
1.3350,989.2578125,-57.6171875,-232.421875
1.3400,977.0507813,-66.40625,-235.3515625
1.3450,984.375,-62.98828125,-242.1875
1.3500,977.5390625,-62.5,-230.9570313
1.3550,980.46875,-67.87109375,-221.1914063
1.3600,985.8398438,-55.17578125,-226.0742188
1.3650,986.8164063,-62.5,-221.6796875
1.3700,988.7695313,-57.6171875,-204.1015625
1.3750,986.328125,-62.98828125,-215.8203125
1.3800,992.6757813,-62.01171875,-208.4960938
1.3850,997.5585938,-65.4296875,-213.3789063
1.3900,1005.859375,-57.12890625,-219.2382813
1.3950,1005.371094,-53.22265625,-207.5195313
1.4000,1003.90625,-52.24609375,-214.84375
1.4050,1007.324219,-51.26953125,-212.4023438
1.4100,990.7226563,-62.98828125,-219.2382813
1.4150,992.6757813,-55.6640625,-227.0507813
1.4200,974.609375,-60.546875,-233.3984375
1.4250,979.9804688,-48.828125,-225.5859375
1.4300,976.5625,-46.875,-229.9804688
1.4350,978.515625,-41.9921875,-231.9335938
1.4400,971.6796875,-41.50390625,-226.5625
1.4450,972.1679688,-48.33984375,-218.2617188
1.4500,977.0507813,-39.0625,-217.7734375
1.4550,979.4921875,-37.59765625,-222.65625
1.4600,980.46875,-31.73828125,-204.5898438
1.4650,977.5390625,-34.1796875,-203.125
1.4700,972.1679688,-40.52734375,-204.1015625
1.4750,975.5859375,-47.8515625,-203.6132813
1.4800,978.515625,-52.24609375,-214.3554688
1.4850,976.5625,-55.17578125,-228.515625
1.4900,978.515625,-61.03515625,-238.28125
1.4950,971.1914063,-76.66015625,-243.6523438
1.5000,969.7265625,-72.75390625,-249.0234375
1.5050,979.0039063,-67.3828125,-232.9101563
1.5100,972.65625,-61.03515625,-229.4921875
1.5150,975.5859375,-52.734375,-233.8867188
1.5200,979.0039063,-43.9453125,-219.2382813
1.5250,976.5625,-45.41015625,-228.515625
1.5300,972.1679688,-43.9453125,-222.65625
1.5350,966.796875,-40.0390625,-227.5390625
1.5400,962.4023438,-40.52734375,-225.5859375
1.5450,953.125,-42.96875,-232.421875
1.5500,960.4492188,-28.3203125,-218.75
1.5550,951.6601563,-40.52734375,-235.8398438
1.5600,957.03125,-41.9921875,-243.1640625
1.5650,952.1484375,-44.921875,-247.0703125
1.5700,950.6835938,-47.8515625,-248.5351563
1.5750,950.6835938,-51.26953125,-245.1171875
1.5800,951.171875,-59.5703125,-247.0703125
1.5850,964.84375,-49.31640625,-243.6523438
1.5900,958.984375,-53.7109375,-242.6757813
1.5950,964.3554688,-61.5234375,-243.1640625
1.6000,962.890625,-64.453125,-239.7460938
1.6050,961.4257813,-70.3125,-242.1875
1.6100,967.7734375,-65.4296875,-233.3984375
1.6150,965.3320313,-75.68359375,-234.8632813
1.6200,968.75,-69.82421875,-223.6328125
1.6250,964.84375,-74.21875,-234.8632813
1.6300,973.1445313,-65.4296875,-238.7695313
1.6350,968.75,-70.80078125,-231.4453125
1.6400,965.8203125,-66.89453125,-237.3046875
1.6450,970.703125,-62.5,-239.2578125
1.6500,962.890625,-68.84765625,-234.375
1.6550,968.75,-65.91796875,-241.6992188
1.6600,964.84375,-69.3359375,-240.234375
1.6650,976.0742188,-64.453125,-236.8164063
1.6700,966.796875,-71.2890625,-244.6289063
1.6750,968.2617188,-75.68359375,-254.3945313
1.6800,977.0507813,-63.96484375,-243.1640625
1.6850,979.0039063,-65.4296875,-250
1.6900,981.4453125,-59.5703125,-235.3515625
1.6950,979.4921875,-61.03515625,-241.6992188
1.7000,985.3515625,-58.59375,-229.0039063
1.7050,978.515625,-63.4765625,-221.1914063
1.7100,987.7929688,-48.828125,-229.4921875
1.7150,983.8867188,-56.640625,-221.6796875
1.7200,972.65625,-60.546875,-223.6328125
1.7250,979.9804688,-57.6171875,-216.796875
1.7300,972.1679688,-67.3828125,-217.7734375
1.7350,987.3046875,-64.453125,-229.0039063
1.7400,982.421875,-69.82421875,-214.3554688
1.7450,980.46875,-75.68359375,-242.6757813
1.7500,980.46875,-80.56640625,-233.8867188
1.7550,995.1171875,-79.58984375,-245.1171875
1.7600,981.9335938,-90.8203125,-235.3515625
1.7650,984.375,-88.37890625,-237.3046875
1.7700,985.3515625,-84.9609375,-243.1640625
1.7750,981.4453125,-81.54296875,-211.4257813
1.7800,976.5625,-70.80078125,-225.0976563
1.7850,970.2148438,-71.77734375,-224.609375
1.7900,970.703125,-62.98828125,-224.1210938
1.7950,962.890625,-61.03515625,-209.4726563
1.8000,966.796875,-56.640625,-208.0078125
1.8050,964.3554688,-56.15234375,-220.703125
1.8100,969.2382813,-58.10546875,-225.5859375
1.8150,978.515625,-51.7578125,-227.5390625
1.8200,976.5625,-64.94140625,-225.0976563
1.8250,977.5390625,-70.80078125,-233.3984375
1.8300,980.46875,-70.80078125,-219.7265625
1.8350,982.9101563,-77.1484375,-215.8203125
1.8400,984.8632813,-78.125,-228.515625
1.8450,985.3515625,-76.171875,-216.796875
1.8500,988.28125,-74.21875,-225.5859375
1.8550,991.6992188,-72.265625,-225.5859375
1.8600,991.2109375,-67.3828125,-216.3085938
1.8650,986.328125,-75.1953125,-210.4492188
1.8700,982.421875,-70.80078125,-211.9140625
1.8750,985.8398438,-72.75390625,-215.3320313
1.8800,973.6328125,-72.265625,-214.84375
1.8850,968.75,-80.56640625,-204.1015625
1.8900,972.1679688,-77.63671875,-215.8203125
1.8950,971.1914063,-86.42578125,-208.984375
1.9000,979.9804688,-73.2421875,-199.7070313
1.9050,977.0507813,-78.125,-210.4492188
1.9100,968.2617188,-78.61328125,-214.84375
1.9150,971.6796875,-82.03125,-218.75
1.9200,968.2617188,-75.1953125,-208.4960938
1.9250,969.2382813,-89.84375,-204.5898438
1.9300,970.703125,-82.03125,-206.5429688
1.9350,977.5390625,-84.9609375,-213.8671875
1.9400,971.1914063,-83.49609375,-216.796875
1.9450,971.1914063,-86.9140625,-216.3085938
1.9500,962.890625,-90.8203125,-224.1210938
1.9550,958.984375,-103.515625,-205.5664063
1.9600,967.2851563,-96.19140625,-202.1484375
1.9650,962.4023438,-98.14453125,-207.5195313
1.9700,978.0273438,-90.8203125,-191.8945313
1.9750,977.0507813,-92.7734375,-214.3554688
1.9800,984.8632813,-94.7265625,-211.4257813
1.9850,977.0507813,-105.46875,-201.6601563
1.9900,983.8867188,-107.9101563,-215.3320313
1.9950,974.1210938,-115.234375,-207.5195313
2.0000,972.1679688,-108.3984375,-202.1484375
2.0050,965.8203125,-112.3046875,-214.84375
2.0100,976.5625,-105.9570313,-208.0078125
2.0150,978.0273438,-108.8867188,-216.796875
2.0200,973.1445313,-106.4453125,-211.4257813
2.0250,972.65625,-104.4921875,-221.1914063
2.0300,979.4921875,-100.0976563,-205.078125
2.0350,980.46875,-107.421875,-205.078125
2.0400,978.515625,-108.8867188,-210.9375
2.0450,978.0273438,-113.28125,-214.3554688
2.0500,962.4023438,-115.7226563,-206.5429688
2.0550,967.7734375,-120.6054688,-212.4023438
2.0600,963.3789063,-116.2109375,-209.9609375
2.0650,967.7734375,-113.28125,-204.5898438
2.0700,961.9140625,-114.2578125,-197.7539063
2.0750,969.2382813,-108.8867188,-202.6367188
2.0800,974.1210938,-105.46875,-195.3125
2.0850,972.1679688,-112.7929688,-206.5429688
2.0900,969.7265625,-111.8164063,-200.1953125
2.0950,967.7734375,-119.140625,-202.1484375
2.1000,976.5625,-114.7460938,-205.5664063
2.1050,973.6328125,-134.765625,-220.703125
2.1100,975.5859375,-140.625,-224.1210938
2.1150,980.46875,-137.6953125,-207.03125
2.1200,973.1445313,-144.0429688,-231.9335938
2.1250,974.1210938,-139.1601563,-225.0976563
2.1300,963.8671875,-145.0195313,-212.4023438
2.1350,962.4023438,-131.3476563,-212.4023438
2.1400,949.7070313,-136.2304688,-209.4726563
2.1450,950.6835938,-125.4882813,-194.8242188
2.1500,942.8710938,-136.2304688,-224.609375
2.1550,961.9140625,-131.3476563,-224.1210938
2.1600,961.9140625,-133.7890625,-227.5390625
2.1650,977.0507813,-128.90625,-222.65625
2.1700,980.9570313,-134.2773438,-228.0273438
2.1750,979.0039063,-137.2070313,-248.046875
2.1800,980.9570313,-143.0664063,-238.7695313
2.1850,976.0742188,-158.203125,-236.8164063
2.1900,977.0507813,-156.25,-217.7734375
2.1950,965.8203125,-153.8085938,-228.515625
2.2000,965.3320313,-154.296875,-227.5390625
2.2050,961.4257813,-160.15625,-229.4921875
2.2100,958.4960938,-151.8554688,-231.4453125
2.2150,961.4257813,-156.25,-223.1445313
2.2200,954.5898438,-151.8554688,-236.8164063
2.2250,952.1484375,-150.390625,-224.1210938
2.2300,945.8007813,-148.4375,-232.421875
2.2350,947.265625,-143.5546875,-211.4257813
2.2400,952.6367188,-132.8125,-224.1210938
2.2450,952.6367188,-132.8125,-227.5390625
2.2500,944.3359375,-154.296875,-219.7265625
2.2550,958.0078125,-148.9257813,-228.0273438
2.2600,967.2851563,-160.15625,-230.46875
2.2650,967.2851563,-167.96875,-230.46875
2.2700,967.2851563,-175.2929688,-230.46875
2.2750,960.9375,-182.6171875,-233.3984375
2.2800,958.0078125,-180.1757813,-217.2851563
2.2850,959.4726563,-167.96875,-228.515625
2.2900,956.5429688,-158.6914063,-219.2382813
2.2950,958.984375,-150.390625,-231.9335938
2.3000,940.4296875,-158.6914063,-234.8632813
2.3050,948.2421875,-156.25,-226.0742188
2.3100,954.1015625,-151.3671875,-221.6796875
2.3150,958.984375,-144.53125,-217.7734375
2.3200,957.03125,-152.34375,-229.0039063
2.3250,957.5195313,-162.109375,-221.6796875
2.3300,960.9375,-164.0625,-231.4453125
2.3350,962.4023438,-167.4804688,-228.515625
2.3400,956.5429688,-170.8984375,-224.609375
2.3450,966.796875,-157.7148438,-222.1679688
2.3500,970.2148438,-152.8320313,-230.9570313
2.3550,966.796875,-151.8554688,-232.421875
2.3600,962.4023438,-151.8554688,-233.3984375
2.3650,964.3554688,-155.2734375,-225.5859375
2.3700,960.9375,-166.015625,-209.4726563
2.3750,958.984375,-184.0820313,-225.0976563
2.3800,962.4023438,-191.40625,-225.0976563
2.3850,957.5195313,-197.265625,-218.2617188
2.3900,968.2617188,-187.0117188,-250
2.3950,974.1210938,-188.4765625,-255.859375
2.4000,968.2617188,-190.9179688,-239.7460938
2.4050,961.4257813,-192.8710938,-242.6757813
2.4100,956.0546875,-195.3125,-233.8867188
2.4150,956.0546875,-190.9179688,-232.421875
2.4200,948.2421875,-185.0585938,-232.421875
2.4250,944.3359375,-188.4765625,-229.0039063
2.4300,954.1015625,-179.6875,-234.8632813
2.4350,950.6835938,-190.4296875,-242.6757813
2.4400,948.2421875,-202.6367188,-253.90625
2.4450,954.1015625,-209.4726563,-258.3007813
2.4500,959.4726563,-215.8203125,-265.625
2.4550,955.5664063,-217.2851563,-259.765625
2.4600,944.8242188,-214.84375,-258.7890625
2.4650,949.7070313,-201.6601563,-254.8828125
2.4700,937.5,-199.21875,-257.8125
2.4750,938.4765625,-187.9882813,-255.3710938
2.4800,928.7109375,-187.5,-269.53125
2.4850,935.0585938,-183.1054688,-261.71875
2.4900,935.0585938,-190.9179688,-258.3007813
2.4950,937.9882813,-202.1484375,-261.2304688
2.5000,957.03125,-191.40625,-266.6015625
2.5050,943.359375,-211.9140625,-283.203125
2.5100,933.1054688,-217.2851563,-270.5078125
2.5150,942.3828125,-214.3554688,-278.8085938
2.5200,937.0117188,-212.890625,-269.53125
2.5250,933.59375,-214.3554688,-275.390625
2.5300,924.8046875,-220.2148438,-257.8125
2.5350,935.0585938,-222.1679688,-279.296875
2.5400,929.6875,-220.703125,-252.9296875
2.5450,931.640625,-216.796875,-282.2265625
2.5500,922.8515625,-220.2148438,-268.5546875
2.5550,931.640625,-219.2382813,-268.0664063
2.5600,925.2929688,-219.2382813,-280.7617188
2.5650,931.1523438,-219.7265625,-283.203125
2.5700,932.6171875,-218.2617188,-284.1796875
2.5750,929.1992188,-238.28125,-291.9921875
2.5800,933.1054688,-235.8398438,-288.5742188
2.5850,929.1992188,-231.9335938,-301.7578125
2.5900,922.3632813,-223.1445313,-287.109375
2.5950,926.2695313,-214.84375,-288.0859375
2.6000,928.2226563,-212.4023438,-293.9453125
2.6050,921.3867188,-238.28125,-296.3867188
2.6100,933.1054688,-237.3046875,-294.921875
2.6150,930.1757813,-248.5351563,-289.5507813
2.6200,935.546875,-241.6992188,-297.8515625
2.6250,935.0585938,-237.3046875,-301.7578125
2.6300,925.2929688,-247.5585938,-292.96875
2.6350,925.2929688,-251.953125,-291.015625
2.6400,911.6210938,-253.4179688,-277.8320313
2.6450,917.96875,-252.4414063,-284.1796875
2.6500,913.5742188,-258.3007813,-283.203125
2.6550,919.921875,-260.2539063,-290.5273438
2.6600,919.921875,-259.765625,-302.734375
2.6650,927.2460938,-265.1367188,-312.5
2.6700,926.7578125,-266.1132813,-308.59375
2.6750,931.640625,-254.3945313,-333.0078125
2.6800,924.8046875,-252.4414063,-310.546875
2.6850,924.8046875,-240.7226563,-320.8007813
2.6900,922.8515625,-243.6523438,-311.5234375
2.6950,922.8515625,-243.1640625,-305.6640625
2.7000,918.4570313,-244.140625,-309.0820313
2.7050,919.4335938,-249.0234375,-301.7578125
2.7100,924.8046875,-252.4414063,-306.1523438
2.7150,909.1796875,-265.1367188,-301.7578125
2.7200,911.6210938,-263.671875,-296.875
2.7250,907.7148438,-271.9726563,-295.8984375
2.7300,899.9023438,-269.53125,-317.8710938
2.7350,891.6015625,-278.3203125,-305.1757813
2.7400,900.8789063,-271.484375,-307.1289063
2.7450,910.15625,-274.4140625,-316.40625
2.7500,912.5976563,-277.34375,-304.6875
2.7550,914.0625,-279.296875,-327.6367188
2.7600,916.015625,-278.8085938,-329.5898438
2.7650,922.3632813,-281.25,-346.6796875
2.7700,919.4335938,-282.7148438,-328.6132813
2.7750,902.8320313,-295.4101563,-330.078125
2.7800,892.0898438,-294.921875,-309.0820313
2.7850,897.9492188,-281.25,-301.2695313
2.7900,891.6015625,-283.6914063,-298.3398438
2.7950,887.2070313,-283.6914063,-314.453125
2.8000,893.0664063,-286.1328125,-330.078125
2.8050,894.0429688,-300.78125,-334.9609375
2.8100,896.9726563,-298.828125,-337.4023438
2.8150,903.3203125,-310.546875,-338.8671875
2.8200,902.34375,-310.546875,-335.9375
2.8250,910.15625,-303.2226563,-338.8671875
2.8300,904.296875,-293.9453125,-351.0742188
2.8350,888.671875,-302.734375,-353.0273438
2.8400,883.7890625,-296.3867188,-333.0078125
2.8450,883.3007813,-293.4570313,-347.1679688
2.8500,893.5546875,-287.5976563,-333.984375
2.8550,892.0898438,-296.3867188,-354.0039063
2.8600,891.6015625,-304.1992188,-348.1445313
2.8650,895.0195313,-302.2460938,-337.4023438
2.8700,896.9726563,-306.640625,-338.8671875
2.8750,901.8554688,-311.5234375,-335.4492188
2.8800,890.625,-319.8242188,-356.4453125
2.8850,885.2539063,-326.171875,-349.1210938
2.8900,883.3007813,-324.21875,-359.8632813
2.8950,887.2070313,-329.1015625,-369.6289063
2.9000,885.7421875,-328.125,-347.1679688
2.9050,884.765625,-328.125,-342.7734375
2.9100,887.6953125,-316.40625,-344.2382813
2.9150,888.671875,-316.8945313,-359.8632813
2.9200,877.9296875,-309.5703125,-343.75
2.9250,876.4648438,-307.6171875,-351.0742188
2.9300,871.5820313,-304.6875,-355.9570313
2.9350,870.6054688,-307.6171875,-364.2578125
2.9400,874.0234375,-309.5703125,-351.5625
2.9450,873.5351563,-322.7539063,-361.328125
2.9500,869.6289063,-321.2890625,-351.5625
2.9550,875.4882813,-324.7070313,-365.7226563
2.9600,866.2109375,-330.078125,-369.140625
2.9650,873.5351563,-336.9140625,-380.3710938
2.9700,863.7695313,-345.703125,-376.4648438
2.9750,868.1640625,-341.3085938,-374.5117188
2.9800,866.6992188,-336.4257813,-368.6523438
2.9850,875.9765625,-324.7070313,-352.5390625
2.9900,872.0703125,-331.5429688,-374.0234375
2.9950,878.4179688,-332.03125,-366.2109375
3.0000,866.2109375,-339.84375,-379.3945313
3.0050,864.7460938,-344.7265625,-395.0195313
3.0100,863.28125,-343.75,-368.6523438
3.0150,869.6289063,-338.8671875,-380.3710938
3.0200,869.140625,-333.4960938,-388.1835938
3.0250,863.7695313,-351.0742188,-382.8125
3.0300,864.2578125,-349.609375,-383.7890625
3.0350,862.7929688,-348.1445313,-372.0703125
3.0400,860.3515625,-340.8203125,-380.859375
3.0450,859.375,-342.2851563,-369.6289063
3.0500,868.1640625,-336.9140625,-387.2070313
3.0550,857.9101563,-347.65625,-389.6484375
3.0600,856.4453125,-344.7265625,-379.8828125
3.0650,843.75,-345.2148438,-378.90625
3.0700,846.1914063,-336.4257813,-401.3671875
3.0750,838.8671875,-344.7265625,-379.8828125
3.0800,838.3789063,-341.796875,-389.1601563
3.0850,834.9609375,-352.0507813,-388.1835938
3.0900,839.3554688,-351.0742188,-389.6484375
3.0950,830.5664063,-370.1171875,-403.3203125
3.1000,840.8203125,-365.234375,-413.0859375
3.1050,857.421875,-362.7929688,-400.390625
3.1100,856.4453125,-363.7695313,-414.0625
3.1150,849.1210938,-371.09375,-416.015625
3.1200,843.2617188,-361.328125,-399.4140625
3.1250,846.1914063,-368.6523438,-406.7382813
3.1300,845.703125,-362.7929688,-397.9492188
3.1350,850.0976563,-364.7460938,-397.9492188
3.1400,839.84375,-367.1875,-396.484375
3.1450,841.3085938,-361.8164063,-414.5507813
3.1500,846.6796875,-357.9101563,-396.9726563
3.1550,842.7734375,-359.375,-408.6914063
3.1600,834.4726563,-370.1171875,-418.9453125
3.1650,835.9375,-375.4882813,-408.6914063
3.1700,825.6835938,-375.9765625,-403.8085938
3.1750,826.6601563,-369.140625,-425.78125
3.1800,820.8007813,-367.1875,-409.1796875
3.1850,822.7539063,-375.9765625,-401.8554688
3.1900,830.078125,-364.7460938,-394.53125
3.1950,827.6367188,-368.1640625,-403.8085938
3.2000,817.3828125,-367.6757813,-402.8320313
3.2050,819.3359375,-367.1875,-416.015625
3.2100,816.8945313,-364.2578125,-412.5976563
3.2150,814.9414063,-367.1875,-431.640625
3.2200,813.9648438,-375,-424.3164063
3.2250,827.6367188,-373.5351563,-434.0820313
3.2300,832.5195313,-375.9765625,-434.0820313
3.2350,828.125,-389.6484375,-444.3359375
3.2400,824.7070313,-384.765625,-416.9921875
3.2450,813.9648438,-386.2304688,-429.6875
3.2500,817.3828125,-380.3710938,-419.921875
3.2550,814.9414063,-385.7421875,-424.8046875
3.2600,807.6171875,-380.3710938,-430.1757813
3.2650,801.7578125,-385.2539063,-429.6875
3.2700,804.6875,-381.8359375,-421.3867188
3.2750,813.9648438,-384.765625,-432.1289063
3.2800,820.3125,-389.6484375,-447.265625
3.2850,827.1484375,-391.1132813,-449.7070313
3.2900,821.7773438,-394.0429688,-445.3125
3.2950,816.8945313,-406.25,-448.7304688
3.3000,811.5234375,-395.9960938,-458.4960938
3.3050,804.6875,-395.0195313,-436.5234375
3.3100,809.5703125,-389.6484375,-435.546875
3.3150,802.734375,-402.34375,-432.6171875
3.3200,818.359375,-393.0664063,-437.5
3.3250,801.2695313,-403.3203125,-436.5234375
3.3300,799.8046875,-403.3203125,-439.453125
3.3350,801.7578125,-402.34375,-445.3125
3.3400,802.734375,-396.484375,-467.2851563
3.3450,802.734375,-393.0664063,-452.6367188
3.3500,799.3164063,-380.3710938,-453.6132813
3.3550,795.4101563,-383.3007813,-452.1484375
3.3600,796.3867188,-381.8359375,-448.2421875
3.3650,791.015625,-383.3007813,-462.4023438
3.3700,789.0625,-387.2070313,-463.3789063
3.3750,792.96875,-386.2304688,-462.4023438
3.3800,784.6679688,-394.53125,-468.75
3.3850,790.5273438,-394.53125,-465.8203125
3.3900,783.203125,-403.8085938,-448.2421875
3.3950,788.0859375,-396.9726563,-447.265625
3.4000,775.390625,-403.3203125,-458.0078125
3.4050,777.34375,-402.8320313,-463.8671875
3.4100,774.9023438,-405.7617188,-458.0078125
3.4150,775.8789063,-405.7617188,-465.3320313
3.4200,780.7617188,-406.25,-478.515625
3.4250,790.5273438,-396.9726563,-478.515625
3.4300,769.53125,-403.8085938,-476.5625
3.4350,771.484375,-396.484375,-479.9804688
3.4400,779.296875,-390.625,-473.6328125
3.4450,779.7851563,-393.0664063,-473.1445313
3.4500,765.625,-401.3671875,-476.5625
3.4550,772.9492188,-398.9257813,-479.0039063
3.4600,768.0664063,-404.296875,-471.1914063
3.4650,769.53125,-408.203125,-477.0507813
3.4700,776.3671875,-408.203125,-483.8867188
3.4750,790.0390625,-401.8554688,-487.7929688
3.4800,789.0625,-412.109375,-497.0703125
3.4850,789.5507813,-410.6445313,-479.0039063
3.4900,783.203125,-406.7382813,-474.609375
3.4950,773.9257813,-398.9257813,-490.7226563
3.5000,770.5078125,-385.7421875,-488.28125
3.5050,755.3710938,-397.9492188,-476.5625
3.5100,762.6953125,-395.5078125,-485.3515625
3.5150,767.0898438,-406.25,-482.421875
3.5200,779.296875,-401.8554688,-497.0703125
3.5250,778.3203125,-407.2265625,-493.1640625
3.5300,766.1132813,-416.5039063,-497.0703125
3.5350,771.9726563,-410.6445313,-484.8632813
3.5400,758.7890625,-413.0859375,-496.09375
3.5450,764.1601563,-413.0859375,-479.0039063
3.5500,760.7421875,-423.828125,-492.6757813
3.5550,764.6484375,-436.5234375,-480.9570313
3.5600,771.9726563,-431.640625,-487.3046875
3.5650,772.4609375,-436.0351563,-482.421875
3.5700,773.4375,-430.1757813,-500.9765625
3.5750,768.0664063,-431.1523438,-511.71875
3.5800,769.0429688,-417.4804688,-495.1171875
3.5850,766.6015625,-402.8320313,-511.71875
3.5900,753.90625,-407.2265625,-502.4414063
3.5950,756.8359375,-405.7617188,-517.578125
3.6000,746.09375,-414.5507813,-509.765625
3.6050,752.9296875,-418.4570313,-525.8789063
3.6100,747.0703125,-420.8984375,-515.1367188
3.6150,745.6054688,-423.3398438,-509.2773438
3.6200,750,-421.3867188,-527.34375
3.6250,748.046875,-422.8515625,-518.5546875
3.6300,741.6992188,-418.9453125,-541.9921875
3.6350,743.6523438,-426.2695313,-529.296875
3.6400,741.2109375,-424.3164063,-530.7617188
3.6450,740.7226563,-417.4804688,-540.5273438
3.6500,736.8164063,-422.8515625,-545.4101563
3.6550,738.28125,-417.96875,-543.4570313
3.6600,729.0039063,-409.6679688,-543.9453125
3.6650,720.2148438,-410.15625,-548.828125
3.6700,719.7265625,-408.6914063,-530.2734375
3.6750,727.0507813,-407.7148438,-556.1523438
3.6800,715.8203125,-413.0859375,-546.3867188
3.6850,723.6328125,-401.3671875,-552.734375
3.6900,713.8671875,-418.9453125,-549.8046875
3.6950,721.6796875,-414.0625,-540.5273438
3.7000,718.75,-419.921875,-543.9453125
3.7050,725.0976563,-412.109375,-542.4804688
3.7100,709.9609375,-424.3164063,-544.4335938
3.7150,707.5195313,-424.3164063,-545.8984375
3.7200,720.2148438,-414.5507813,-541.5039063
3.7250,717.2851563,-425.2929688,-545.4101563
3.7300,717.2851563,-431.1523438,-547.3632813
3.7350,716.3085938,-432.1289063,-551.2695313
3.7400,715.8203125,-426.2695313,-533.203125
3.7450,715.8203125,-421.3867188,-544.4335938
3.7500,712.890625,-405.7617188,-554.1992188
3.7550,706.5429688,-421.875,-547.8515625
3.7600,727.0507813,-422.3632813,-552.734375
3.7650,717.7734375,-432.6171875,-550.78125
3.7700,715.3320313,-428.2226563,-543.4570313
3.7750,721.1914063,-425.78125,-537.5976563
3.7800,719.2382813,-427.2460938,-540.5273438
3.7850,719.7265625,-428.2226563,-552.734375
3.7900,719.2382813,-425.2929688,-545.4101563
3.7950,727.5390625,-419.921875,-553.7109375
3.8000,726.0742188,-414.5507813,-547.8515625
3.8050,719.2382813,-423.3398438,-531.7382813
3.8100,719.2382813,-423.828125,-539.5507813
3.8150,730.46875,-421.3867188,-549.8046875
3.8200,709.4726563,-426.7578125,-540.5273438
3.8250,712.4023438,-416.015625,-546.3867188
3.8300,711.9140625,-413.0859375,-536.6210938
3.8350,720.703125,-423.828125,-558.1054688
3.8400,719.7265625,-442.8710938,-558.1054688
3.8450,729.4921875,-443.359375,-557.6171875
3.8500,720.2148438,-451.171875,-549.8046875
3.8550,729.9804688,-451.6601563,-544.4335938
3.8600,714.3554688,-452.1484375,-539.0625
3.8650,713.8671875,-438.4765625,-531.25
3.8700,713.3789063,-438.9648438,-538.5742188
3.8750,718.2617188,-450.6835938,-547.8515625
3.8800,724.1210938,-454.5898438,-546.875
3.8850,726.0742188,-451.171875,-550.2929688
3.8900,717.2851563,-443.359375,-562.9882813
3.8950,716.796875,-433.1054688,-560.0585938
3.9000,711.4257813,-425.78125,-553.2226563
3.9050,704.1015625,-425.78125,-558.59375
3.9100,708.0078125,-405.2734375,-558.1054688
3.9150,703.6132813,-414.5507813,-563.4765625
3.9200,709.9609375,-412.109375,-580.5664063
3.9250,701.6601563,-414.5507813,-571.2890625
3.9300,688.4765625,-410.15625,-572.265625
3.9350,694.3359375,-406.25,-579.1015625
3.9400,692.8710938,-415.0390625,-582.5195313
3.9450,693.8476563,-415.0390625,-584.9609375
3.9500,670.8984375,-411.1328125,-586.9140625
3.9550,672.3632813,-408.203125,-564.9414063
3.9600,674.3164063,-420.4101563,-587.4023438
3.9650,684.0820313,-421.875,-597.1679688
3.9700,683.1054688,-423.3398438,-583.984375
3.9750,668.4570313,-429.6875,-574.7070313
3.9800,676.7578125,-422.3632813,-570.8007813
3.9850,683.59375,-423.828125,-574.21875
3.9900,673.828125,-416.015625,-557.1289063
3.9950,659.6679688,-428.7109375,-565.9179688
4.0000,676.2695313,-420.8984375,-570.8007813
4.0050,687.9882813,-422.3632813,-568.8476563
4.0100,675.78125,-425.2929688,-557.1289063
4.0150,684.5703125,-417.4804688,-575.1953125
4.0200,692.8710938,-423.828125,-580.078125
4.0250,699.21875,-425.78125,-601.0742188
4.0300,691.40625,-427.2460938,-602.0507813
4.0350,697.7539063,-411.1328125,-603.515625
4.0400,675.2929688,-406.25,-597.1679688
4.0450,685.546875,-397.4609375,-576.6601563
4.0500,698.2421875,-400.390625,-609.375
4.0550,711.4257813,-414.0625,-597.65625
4.0600,702.1484375,-417.96875,-599.609375
4.0650,689.9414063,-418.9453125,-599.609375
4.0700,686.0351563,-405.7617188,-599.609375
4.0750,689.453125,-412.109375,-602.0507813
4.0800,678.2226563,-422.8515625,-607.9101563
4.0850,677.2460938,-433.1054688,-605.46875
4.0900,679.6875,-440.4296875,-595.2148438
4.0950,678.2226563,-449.7070313,-596.6796875
4.1000,681.640625,-451.171875,-591.3085938
4.1050,679.1992188,-455.5664063,-593.2617188
4.1100,669.921875,-459.4726563,-593.2617188
4.1150,673.3398438,-454.5898438,-596.1914063
4.1200,688.9648438,-452.1484375,-613.7695313
4.1250,676.2695313,-469.7265625,-608.8867188
4.1300,666.015625,-464.3554688,-589.3554688
4.1350,677.2460938,-453.6132813,-593.75
4.1400,684.0820313,-456.5429688,-609.8632813
4.1450,661.6210938,-461.4257813,-620.1171875
4.1500,653.3203125,-445.3125,-573.2421875
4.1550,669.4335938,-440.9179688,-600.5859375
4.1600,674.3164063,-444.8242188,-616.6992188
4.1650,678.7109375,-447.7539063,-616.2109375
4.1700,671.3867188,-441.40625,-610.3515625
4.1750,664.5507813,-443.359375,-614.2578125
4.1800,673.828125,-442.8710938,-614.2578125
4.1850,684.0820313,-454.5898438,-612.3046875
4.1900,675.2929688,-454.1015625,-628.90625
4.1950,661.6210938,-452.6367188,-599.609375
4.2000,662.5976563,-441.8945313,-613.7695313
4.2050,685.0585938,-428.2226563,-614.2578125
4.2100,691.8945313,-428.7109375,-620.1171875
4.2150,701.6601563,-421.3867188,-612.7929688
4.2200,693.8476563,-428.2226563,-620.6054688
4.2250,689.9414063,-440.9179688,-608.3984375
4.2300,684.0820313,-448.7304688,-611.328125
4.2350,687.9882813,-460.4492188,-596.6796875
4.2400,681.640625,-472.65625,-584.4726563
4.2450,687.5,-470.703125,-570.3125
4.2500,679.1992188,-459.9609375,-572.7539063
4.2550,689.9414063,-453.125,-580.5664063
4.2600,689.9414063,-444.3359375,-589.3554688
4.2650,695.3125,-432.6171875,-591.3085938
4.2700,697.265625,-425.2929688,-609.375
4.2750,687.9882813,-414.5507813,-620.1171875
4.2800,680.1757813,-401.8554688,-615.234375
4.2850,686.0351563,-390.1367188,-628.4179688
4.2900,676.2695313,-389.1601563,-637.2070313
4.2950,675.2929688,-389.1601563,-629.8828125
4.3000,677.734375,-385.2539063,-630.3710938
4.3050,662.5976563,-394.53125,-642.578125
4.3100,649.9023438,-400.390625,-619.6289063
4.3150,656.25,-406.25,-603.0273438
4.3200,653.3203125,-414.5507813,-614.7460938
4.3250,660.6445313,-430.6640625,-603.0273438
4.3300,658.203125,-449.7070313,-599.1210938
4.3350,669.4335938,-460.9375,-606.9335938
4.3400,665.0390625,-455.078125,-599.1210938
4.3450,655.2734375,-447.7539063,-596.6796875
4.3500,660.6445313,-428.7109375,-600.5859375
4.3550,669.4335938,-419.4335938,-611.328125
4.3600,680.6640625,-407.2265625,-618.1640625
4.3650,688.4765625,-397.4609375,-633.3007813
4.3700,676.2695313,-395.5078125,-640.625
4.3750,687.9882813,-385.2539063,-642.0898438
4.3800,686.5234375,-389.1601563,-630.859375
4.3850,679.6875,-395.9960938,-653.3203125
4.3900,675.2929688,-390.1367188,-630.3710938
4.3950,670.8984375,-388.1835938,-625
4.4000,656.7382813,-401.8554688,-619.6289063
4.4050,663.0859375,-408.203125,-616.6992188
4.4100,666.015625,-425.78125,-603.0273438
4.4150,668.4570313,-447.7539063,-608.8867188
4.4200,666.015625,-460.9375,-586.9140625
4.4250,670.4101563,-465.3320313,-607.9101563
4.4300,669.4335938,-469.2382813,-594.7265625
4.4350,678.2226563,-470.2148438,-612.7929688
4.4400,678.7109375,-457.5195313,-607.421875
4.4450,682.6171875,-447.265625,-607.9101563
4.4500,689.453125,-437.0117188,-614.7460938
4.4550,684.5703125,-440.9179688,-627.9296875
4.4600,702.6367188,-422.3632813,-630.859375
4.4650,707.03125,-415.0390625,-634.2773438
4.4700,701.171875,-412.5976563,-617.6757813
4.4750,707.03125,-412.5976563,-630.3710938
4.4800,702.1484375,-421.875,-616.6992188
4.4850,691.40625,-430.6640625,-606.4453125
4.4900,697.7539063,-435.546875,-587.4023438
4.4950,681.640625,-439.453125,-603.515625
4.5000,682.1289063,-437.9882813,-588.8671875
4.5050,678.7109375,-441.40625,-590.3320313
4.5100,680.1757813,-444.8242188,-601.5625
4.5150,683.1054688,-440.4296875,-612.3046875
4.5200,696.2890625,-429.6875,-630.859375
4.5250,681.640625,-429.6875,-618.1640625
4.5300,688.9648438,-407.7148438,-632.3242188
4.5350,690.9179688,-403.3203125,-617.1875
4.5400,686.0351563,-392.0898438,-612.7929688
4.5450,687.5,-392.0898438,-618.1640625
4.5500,681.1523438,-395.9960938,-593.2617188
4.5550,681.1523438,-402.8320313,-589.3554688
4.5600,676.2695313,-410.15625,-587.4023438
4.5650,667.4804688,-416.9921875,-577.6367188
4.5700,665.0390625,-412.109375,-574.7070313
4.5750,666.5039063,-413.5742188,-568.359375
4.5800,668.9453125,-414.0625,-588.8671875
4.5850,682.1289063,-415.0390625,-596.6796875
4.5900,680.1757813,-411.1328125,-607.421875
4.5950,679.6875,-405.7617188,-597.1679688
4.6000,683.59375,-385.2539063,-600.5859375
4.6050,687.9882813,-371.5820313,-604.0039063
4.6100,673.3398438,-375.9765625,-597.1679688
4.6150,689.453125,-367.1875,-593.75
4.6200,687.5,-371.5820313,-596.1914063
4.6250,693.8476563,-372.0703125,-591.3085938
4.6300,688.9648438,-385.2539063,-583.984375
4.6350,687.0117188,-394.53125,-585.9375
4.6400,694.3359375,-397.9492188,-556.1523438
4.6450,692.3828125,-413.0859375,-559.0820313
4.6500,700.1953125,-411.6210938,-551.7578125
4.6550,703.6132813,-413.0859375,-563.4765625
4.6600,705.078125,-416.015625,-556.640625
4.6650,706.0546875,-415.5273438,-567.8710938
4.6700,707.5195313,-415.0390625,-578.6132813
4.6750,706.5429688,-414.0625,-572.7539063
4.6800,707.5195313,-401.3671875,-560.0585938
4.6850,710.4492188,-387.6953125,-553.7109375
4.6900,706.5429688,-385.2539063,-557.6171875
4.6950,715.8203125,-381.8359375,-559.0820313
4.7000,719.2382813,-380.3710938,-561.5234375
4.7050,728.515625,-379.8828125,-555.1757813
4.7100,729.4921875,-382.3242188,-558.59375
4.7150,733.3984375,-380.859375,-550.2929688
4.7200,733.3984375,-385.2539063,-547.8515625
4.7250,735.3515625,-396.9726563,-540.5273438
4.7300,733.3984375,-396.9726563,-546.3867188
4.7350,722.65625,-399.9023438,-550.2929688
4.7400,719.7265625,-397.9492188,-548.828125
4.7450,722.65625,-406.7382813,-559.5703125
4.7500,732.9101563,-401.8554688,-571.2890625
4.7550,736.8164063,-418.9453125,-583.0078125
4.7600,743.6523438,-421.3867188,-594.7265625
4.7650,741.6992188,-418.9453125,-576.6601563
4.7700,734.8632813,-405.7617188,-550.2929688
4.7750,743.6523438,-388.671875,-548.3398438
4.7800,736.8164063,-378.90625,-540.5273438
4.7850,735.3515625,-373.5351563,-531.25
4.7900,730.9570313,-375.4882813,-532.2265625
4.7950,730.9570313,-375.4882813,-533.6914063
4.8000,723.6328125,-377.4414063,-531.7382813
4.8050,729.9804688,-374.5117188,-529.296875
4.8100,727.5390625,-381.3476563,-523.9257813
4.8150,736.8164063,-382.8125,-539.0625
4.8200,736.8164063,-386.71875,-530.2734375
4.8250,745.1171875,-379.3945313,-541.9921875
4.8300,743.6523438,-377.4414063,-549.3164063
4.8350,747.0703125,-367.1875,-548.3398438
4.8400,758.7890625,-353.0273438,-553.7109375
4.8450,758.7890625,-369.140625,-573.7304688
4.8500,771.9726563,-375,-581.5429688
4.8550,751.4648438,-392.0898438,-575.6835938
4.8600,752.9296875,-380.3710938,-565.4296875
4.8650,739.7460938,-383.3007813,-543.4570313
4.8700,747.5585938,-369.140625,-525.8789063
4.8750,736.8164063,-382.8125,-530.2734375
4.8800,739.2578125,-385.2539063,-530.2734375
4.8850,732.9101563,-393.0664063,-521.9726563
4.8900,733.3984375,-384.2773438,-521.9726563
4.8950,730.9570313,-389.1601563,-529.7851563
4.9000,736.8164063,-381.8359375,-531.7382813
4.9050,749.0234375,-376.953125,-527.8320313
4.9100,759.2773438,-371.09375,-519.0429688
4.9150,762.6953125,-384.2773438,-531.7382813
4.9200,759.765625,-381.3476563,-529.7851563
4.9250,763.671875,-372.0703125,-524.9023438
4.9300,766.6015625,-369.6289063,-528.8085938
4.9350,759.2773438,-376.953125,-526.8554688
4.9400,762.6953125,-360.8398438,-524.9023438
4.9450,759.765625,-366.6992188,-509.2773438
4.9500,763.1835938,-359.8632813,-507.3242188
4.9550,763.1835938,-375.9765625,-513.671875
4.9600,769.0429688,-378.4179688,-515.1367188
4.9650,783.6914063,-379.3945313,-530.7617188
4.9700,776.8554688,-388.1835938,-537.109375
4.9750,780.7617188,-382.8125,-522.9492188
4.9800,782.2265625,-377.9296875,-520.9960938
4.9850,788.5742188,-364.7460938,-515.625
4.9900,783.203125,-368.6523438,-520.9960938
4.9950,783.203125,-364.2578125,-525.390625
5.0000,781.25,-361.8164063,-500.4882813
5.0050,780.7617188,-358.3984375,-496.09375
5.0100,773.4375,-371.5820313,-482.421875
5.0150,776.3671875,-368.6523438,-482.9101563
5.0200,774.9023438,-358.3984375,-475.5859375
5.0250,782.7148438,-353.0273438,-475.0976563
5.0300,776.8554688,-360.8398438,-470.2148438
5.0350,782.2265625,-361.328125,-486.8164063
5.0400,789.5507813,-364.2578125,-487.3046875
5.0450,796.875,-365.7226563,-488.28125
5.0500,797.8515625,-372.0703125,-499.0234375
5.0550,811.5234375,-361.8164063,-485.3515625
5.0600,801.7578125,-363.28125,-497.5585938
5.0650,798.3398438,-352.0507813,-511.2304688
5.0700,794.921875,-352.0507813,-488.7695313
5.0750,810.0585938,-337.890625,-488.7695313
5.0800,812.5,-327.1484375,-468.75
5.0850,815.4296875,-321.2890625,-464.84375
5.0900,807.1289063,-335.4492188,-487.7929688
5.0950,802.734375,-349.609375,-449.21875
5.1000,801.2695313,-356.4453125,-447.265625
5.1050,812.9882813,-355.9570313,-458.0078125
5.1100,815.9179688,-355.9570313,-464.84375
5.1150,821.2890625,-355.9570313,-467.2851563
5.1200,825.1953125,-358.3984375,-466.796875
5.1250,833.984375,-352.0507813,-466.796875
5.1300,823.2421875,-359.8632813,-449.7070313
5.1350,826.6601563,-350.5859375,-459.9609375
5.1400,838.8671875,-334.9609375,-453.6132813
5.1450,835.4492188,-329.5898438,-457.5195313
5.1500,823.7304688,-328.125,-459.9609375
5.1550,833.0078125,-321.2890625,-460.4492188
5.1600,831.0546875,-321.2890625,-458.0078125
5.1650,833.0078125,-323.7304688,-470.703125
5.1700,831.0546875,-323.7304688,-467.2851563
5.1750,828.6132813,-322.7539063,-463.3789063
5.1800,815.9179688,-327.1484375,-442.3828125
5.1850,822.265625,-325.1953125,-424.3164063
5.1900,817.3828125,-324.7070313,-426.2695313
5.1950,824.7070313,-333.4960938,-454.5898438
5.2000,822.265625,-348.1445313,-465.8203125
5.2050,833.0078125,-348.6328125,-449.21875
5.2100,834.9609375,-357.9101563,-449.21875
5.2150,844.2382813,-345.2148438,-455.078125
5.2200,847.1679688,-333.4960938,-448.2421875
5.2250,851.0742188,-333.0078125,-473.1445313
5.2300,856.9335938,-334.4726563,-465.8203125
5.2350,860.3515625,-342.7734375,-463.3789063
5.2400,849.1210938,-341.796875,-445.3125
5.2450,847.1679688,-328.125,-436.5234375
5.2500,837.890625,-319.3359375,-433.1054688
5.2550,830.078125,-316.8945313,-442.8710938
5.2600,830.5664063,-298.828125,-441.8945313
5.2650,833.4960938,-300.78125,-422.8515625
5.2700,834.4726563,-309.0820313,-420.8984375
5.2750,837.4023438,-319.3359375,-413.5742188
5.2800,847.65625,-322.7539063,-408.203125
5.2850,856.4453125,-322.7539063,-422.8515625
5.2900,862.3046875,-332.03125,-431.640625
5.2950,868.1640625,-331.5429688,-435.546875
5.3000,866.2109375,-330.078125,-428.2226563
5.3050,872.5585938,-323.2421875,-445.8007813
5.3100,880.3710938,-310.546875,-446.7773438
5.3150,874.5117188,-310.0585938,-438.4765625
5.3200,852.5390625,-310.546875,-443.8476563
5.3250,829.5898438,-305.6640625,-421.3867188
5.3300,820.8007813,-288.5742188,-410.15625
5.3350,821.2890625,-290.5273438,-397.9492188
5.3400,822.7539063,-303.2226563,-399.9023438
5.3450,843.2617188,-298.3398438,-392.578125
5.3500,866.2109375,-290.5273438,-405.7617188
5.3550,875.4882813,-299.8046875,-411.1328125
5.3600,880.3710938,-300.78125,-422.3632813
5.3650,884.2773438,-299.8046875,-407.7148438
5.3700,882.8125,-296.875,-395.0195313
5.3750,890.1367188,-303.2226563,-411.1328125
5.3800,886.2304688,-301.7578125,-418.9453125
5.3850,875,-311.5234375,-419.921875
5.3900,866.6992188,-309.0820313,-409.6679688
5.3950,847.65625,-305.6640625,-382.8125
5.4000,852.0507813,-284.1796875,-381.8359375
5.4050,847.65625,-280.2734375,-364.7460938
5.4100,845.703125,-281.7382813,-392.578125
5.4150,858.8867188,-288.5742188,-391.1132813
5.4200,864.2578125,-298.828125,-376.953125
5.4250,875.9765625,-296.875,-360.8398438
5.4300,882.3242188,-290.0390625,-366.6992188
5.4350,889.6484375,-279.7851563,-367.1875
5.4400,894.53125,-268.0664063,-366.6992188
5.4450,895.0195313,-282.7148438,-365.234375
5.4500,901.3671875,-285.15625,-358.3984375
5.4550,914.5507813,-284.1796875,-364.7460938
5.4600,903.3203125,-287.109375,-377.9296875
5.4650,899.4140625,-288.0859375,-399.4140625
5.4700,898.4375,-287.109375,-397.4609375
5.4750,899.4140625,-296.3867188,-399.4140625
5.4800,896.484375,-300.2929688,-379.3945313
5.4850,880.3710938,-314.9414063,-377.4414063
5.4900,885.2539063,-304.6875,-364.2578125
5.4950,885.7421875,-299.8046875,-340.8203125
5.5000,887.6953125,-278.8085938,-346.1914063
5.5050,889.6484375,-262.2070313,-333.4960938
5.5100,886.71875,-252.4414063,-347.65625
5.5150,892.0898438,-239.7460938,-349.1210938
5.5200,889.1601563,-249.5117188,-336.4257813
5.5250,900.390625,-252.9296875,-332.03125
5.5300,895.0195313,-269.0429688,-339.3554688
5.5350,899.4140625,-272.4609375,-358.8867188
5.5400,893.5546875,-262.2070313,-365.7226563
5.5450,883.7890625,-262.2070313,-366.2109375
5.5500,877.4414063,-251.4648438,-361.328125
5.5550,869.140625,-253.4179688,-352.5390625
5.5600,883.7890625,-243.1640625,-339.84375
5.5650,897.4609375,-248.046875,-351.5625
5.5700,913.0859375,-248.046875,-342.7734375
5.5750,923.828125,-262.6953125,-362.3046875
5.5800,930.6640625,-262.6953125,-364.7460938
5.5850,924.3164063,-272.4609375,-373.5351563
5.5900,929.6875,-268.5546875,-370.1171875
5.5950,936.5234375,-265.1367188,-382.8125
5.6000,919.4335938,-266.1132813,-385.2539063
5.6050,902.34375,-272.9492188,-376.4648438
5.6100,895.9960938,-275.8789063,-375.4882813
5.6150,891.1132813,-283.6914063,-362.7929688
5.6200,892.0898438,-283.203125,-332.5195313
5.6250,881.3476563,-275.8789063,-336.9140625
5.6300,879.8828125,-269.53125,-315.4296875
5.6350,887.6953125,-261.71875,-318.8476563
5.6400,893.0664063,-270.0195313,-306.640625
5.6450,912.109375,-266.1132813,-296.3867188
5.6500,923.3398438,-276.8554688,-309.0820313
5.6550,937.5,-272.9492188,-325.6835938
5.6600,946.2890625,-271.9726563,-339.84375
5.6650,951.6601563,-273.9257813,-349.609375
5.6700,955.078125,-270.9960938,-355.9570313
5.6750,939.9414063,-272.4609375,-357.9101563
5.6800,925.78125,-264.6484375,-376.953125
5.6850,922.8515625,-247.0703125,-365.234375
5.6900,914.0625,-231.4453125,-360.8398438
5.6950,903.8085938,-227.0507813,-357.9101563
5.7000,890.1367188,-219.2382813,-347.65625
5.7050,881.8359375,-208.0078125,-337.4023438
5.7100,881.3476563,-198.7304688,-320.8007813
5.7150,891.6015625,-200.1953125,-303.2226563
5.7200,896.9726563,-208.0078125,-282.2265625
5.7250,912.109375,-203.125,-270.5078125
5.7300,926.7578125,-188.4765625,-272.9492188
5.7350,922.8515625,-204.5898438,-285.6445313
5.7400,932.1289063,-196.7773438,-305.6640625
5.7450,942.8710938,-191.8945313,-318.8476563
5.7500,940.4296875,-209.9609375,-317.8710938
5.7550,939.9414063,-212.4023438,-322.265625
5.7600,929.1992188,-209.4726563,-345.703125
5.7650,914.5507813,-217.7734375,-299.8046875
5.7700,906.7382813,-212.4023438,-302.734375
5.7750,893.0664063,-219.7265625,-278.3203125
5.7800,900.8789063,-206.5429688,-229.9804688
5.7850,902.8320313,-210.9375,-244.140625
5.7900,907.7148438,-210.4492188,-259.765625
5.7950,919.4335938,-204.5898438,-268.5546875
5.8000,937.0117188,-207.5195313,-291.015625
5.8050,948.7304688,-227.0507813,-285.15625
5.8100,966.3085938,-235.8398438,-283.6914063
5.8150,965.3320313,-253.90625,-291.9921875
5.8200,956.5429688,-244.6289063,-296.875
5.8250,955.5664063,-245.1171875,-306.1523438
5.8300,951.171875,-242.1875,-289.5507813
5.8350,948.7304688,-248.5351563,-283.203125
5.8400,938.9648438,-243.6523438,-281.25
5.8450,931.640625,-242.1875,-279.7851563
5.8500,919.921875,-242.1875,-285.15625
5.8550,927.734375,-242.1875,-268.0664063
5.8600,925.2929688,-242.6757813,-266.1132813
5.8650,916.015625,-232.9101563,-258.7890625
5.8700,904.7851563,-222.65625,-242.1875
5.8750,917.4804688,-196.7773438,-250.4882813
5.8800,922.3632813,-192.8710938,-245.6054688
5.8850,932.1289063,-203.125,-263.671875
5.8900,948.7304688,-206.0546875,-260.2539063
5.8950,950.1953125,-219.2382813,-277.8320313
5.9000,956.5429688,-213.8671875,-284.1796875
5.9050,951.171875,-215.8203125,-294.4335938
5.9100,958.4960938,-205.078125,-285.6445313
5.9150,952.6367188,-209.4726563,-303.7109375
5.9200,943.8476563,-206.0546875,-297.8515625
5.9250,936.5234375,-203.125,-299.8046875
5.9300,929.6875,-199.7070313,-310.546875
5.9350,926.7578125,-196.7773438,-300.78125
5.9400,922.3632813,-195.8007813,-293.9453125
5.9450,924.8046875,-186.5234375,-276.8554688
5.9500,907.2265625,-188.4765625,-278.8085938
5.9550,903.8085938,-187.0117188,-267.578125
5.9600,911.1328125,-179.1992188,-257.3242188
5.9650,913.0859375,-185.0585938,-234.8632813
5.9700,922.8515625,-186.0351563,-246.09375
5.9750,926.7578125,-189.453125,-260.2539063
5.9800,935.546875,-190.9179688,-245.1171875
5.9850,939.9414063,-201.6601563,-255.859375
5.9900,951.6601563,-201.171875,-261.2304688
5.9950,958.4960938,-205.5664063,-265.1367188
6.0000,946.2890625,-212.4023438,-288.0859375
6.0050,953.6132813,-205.5664063,-277.8320313
6.0100,932.6171875,-215.8203125,-265.625
6.0150,938.4765625,-226.5625,-290.0390625
6.0200,945.8007813,-223.1445313,-279.296875
6.0250,948.2421875,-242.1875,-294.4335938
6.0300,958.984375,-240.234375,-293.9453125
6.0350,963.8671875,-248.5351563,-310.546875
6.0400,964.84375,-240.7226563,-309.0820313
6.0450,955.5664063,-236.8164063,-305.1757813
6.0500,949.7070313,-224.609375,-303.7109375
6.0550,931.640625,-218.75,-298.3398438
6.0600,937.5,-199.21875,-296.3867188
6.0650,924.3164063,-207.5195313,-281.25
6.0700,924.8046875,-211.4257813,-282.2265625
6.0750,925.2929688,-204.1015625,-269.0429688
6.0800,925.78125,-193.359375,-263.671875
6.0850,921.875,-192.3828125,-271.484375
6.0900,920.4101563,-193.8476563,-263.671875
6.0950,936.5234375,-195.8007813,-264.6484375
6.1000,936.5234375,-200.1953125,-277.8320313
6.1050,936.0351563,-207.5195313,-268.5546875
6.1100,940.4296875,-192.8710938,-259.765625
6.1150,935.0585938,-198.7304688,-264.1601563
6.1200,941.8945313,-185.546875,-260.2539063
6.1250,938.9648438,-192.3828125,-267.578125
6.1300,930.6640625,-205.078125,-263.671875
6.1350,926.2695313,-219.7265625,-267.0898438
6.1400,930.6640625,-216.796875,-258.7890625
6.1450,929.1992188,-224.609375,-239.7460938
6.1500,933.1054688,-214.84375,-234.8632813
6.1550,932.6171875,-229.0039063,-234.8632813
6.1600,944.3359375,-229.0039063,-242.1875
6.1650,958.4960938,-224.609375,-243.1640625
6.1700,958.0078125,-233.3984375,-243.6523438
6.1750,975.0976563,-230.46875,-251.953125
6.1800,976.0742188,-236.8164063,-273.4375
6.1850,972.1679688,-242.6757813,-269.0429688
6.1900,976.5625,-230.46875,-275.8789063
6.1950,978.515625,-225.5859375,-279.7851563
6.2000,969.2382813,-214.3554688,-263.671875
6.2050,968.75,-210.9375,-263.671875
6.2100,962.890625,-206.0546875,-258.7890625
6.2150,964.3554688,-198.2421875,-253.4179688
6.2200,958.4960938,-197.265625,-250.9765625
6.2250,953.125,-206.0546875,-245.6054688
6.2300,944.8242188,-205.5664063,-251.953125
6.2350,945.3125,-197.7539063,-258.3007813
6.2400,934.0820313,-204.1015625,-256.3476563
6.2450,938.4765625,-192.8710938,-257.3242188
6.2500,944.3359375,-195.8007813,-262.2070313
6.2550,948.2421875,-190.9179688,-251.953125
6.2600,943.8476563,-188.9648438,-262.6953125
6.2650,948.2421875,-190.4296875,-248.046875
6.2700,946.2890625,-189.453125,-251.953125
6.2750,938.9648438,-189.453125,-249.5117188
6.2800,936.0351563,-186.5234375,-256.8359375
6.2850,937.5,-194.8242188,-252.9296875
6.2900,936.0351563,-208.0078125,-252.4414063
6.2950,938.4765625,-208.0078125,-255.859375
6.3000,939.453125,-210.9375,-268.5546875
6.3050,929.1992188,-212.890625,-269.0429688
6.3100,926.7578125,-219.7265625,-272.4609375
6.3150,933.59375,-216.796875,-273.4375
6.3200,939.9414063,-208.984375,-260.7421875
6.3250,949.21875,-207.03125,-275.390625
6.3300,942.8710938,-215.3320313,-272.9492188
6.3350,950.6835938,-212.890625,-277.34375
6.3400,947.265625,-209.4726563,-268.0664063
6.3450,946.7773438,-208.0078125,-270.9960938
6.3500,943.359375,-200.6835938,-276.8554688
6.3550,936.0351563,-217.7734375,-283.203125
6.3600,936.5234375,-217.7734375,-280.2734375
6.3650,934.0820313,-228.515625,-280.2734375
6.3700,935.546875,-221.6796875,-271.484375
6.3750,950.1953125,-224.1210938,-291.9921875
6.3800,948.7304688,-224.609375,-267.0898438
6.3850,959.9609375,-220.703125,-286.6210938
6.3900,953.125,-229.9804688,-298.3398438
6.3950,957.5195313,-234.375,-285.15625
6.4000,946.2890625,-242.6757813,-283.6914063
6.4050,948.2421875,-244.6289063,-279.296875
6.4100,945.3125,-245.6054688,-269.53125
6.4150,946.7773438,-241.2109375,-269.0429688
6.4200,944.8242188,-245.1171875,-271.9726563
6.4250,947.265625,-235.8398438,-265.1367188
6.4300,942.8710938,-221.1914063,-267.578125
6.4350,927.734375,-228.0273438,-259.2773438
6.4400,935.546875,-218.75,-256.3476563
6.4450,930.6640625,-233.3984375,-260.2539063
6.4500,938.9648438,-220.2148438,-256.3476563
6.4550,931.1523438,-225.0976563,-253.4179688
6.4600,939.453125,-215.8203125,-245.1171875
6.4650,937.0117188,-216.3085938,-267.0898438
6.4700,938.4765625,-214.3554688,-254.8828125
6.4750,937.5,-221.1914063,-263.671875
6.4800,942.8710938,-225.5859375,-272.9492188
6.4850,942.8710938,-233.3984375,-267.0898438
6.4900,951.6601563,-229.0039063,-272.9492188
6.4950,958.4960938,-224.609375,-270.5078125
6.5000,954.1015625,-221.6796875,-282.7148438
6.5050,957.03125,-224.1210938,-283.203125
6.5100,956.0546875,-227.0507813,-256.8359375
6.5150,957.5195313,-230.9570313,-266.1132813
6.5200,958.0078125,-231.9335938,-267.0898438
6.5250,953.6132813,-230.9570313,-237.7929688
6.5300,949.7070313,-223.1445313,-235.3515625
6.5350,948.7304688,-224.609375,-230.46875
6.5400,948.7304688,-223.1445313,-225.0976563
6.5450,956.0546875,-216.796875,-218.75
6.5500,951.6601563,-214.3554688,-213.8671875
6.5550,948.2421875,-216.796875,-222.1679688
6.5600,951.6601563,-217.7734375,-223.6328125
6.5650,945.8007813,-220.703125,-217.7734375
6.5700,955.5664063,-220.2148438,-220.703125
6.5750,961.4257813,-212.890625,-227.0507813
6.5800,968.75,-218.2617188,-219.2382813
6.5850,970.703125,-221.6796875,-219.7265625
6.5900,973.6328125,-215.8203125,-213.3789063
6.5950,976.0742188,-209.4726563,-213.8671875
6.6000,977.5390625,-205.5664063,-201.171875
6.6050,974.1210938,-198.2421875,-205.078125
6.6100,968.2617188,-188.9648438,-216.3085938
6.6150,961.4257813,-192.8710938,-210.9375
6.6200,954.5898438,-193.8476563,-209.4726563
6.6250,958.984375,-194.8242188,-211.9140625
6.6300,956.0546875,-200.1953125,-217.2851563
6.6350,960.9375,-211.9140625,-209.9609375
6.6400,949.21875,-219.2382813,-216.3085938
6.6450,952.6367188,-218.2617188,-214.84375
6.6500,958.4960938,-221.1914063,-229.4921875
6.6550,971.1914063,-224.609375,-224.1210938
6.6600,971.1914063,-237.7929688,-207.03125
6.6650,991.2109375,-228.515625,-210.9375
6.6700,982.9101563,-238.28125,-210.9375
6.6750,987.7929688,-236.328125,-211.4257813
6.6800,972.1679688,-242.1875,-175.78125
6.6850,980.9570313,-242.1875,-210.9375
6.6900,965.3320313,-251.4648438,-213.3789063
6.6950,942.3828125,-273.4375,-230.46875
6.7000,921.3867188,-273.9257813,-241.2109375
6.7050,916.9921875,-270.0195313,-271.484375
6.7100,918.9453125,-243.6523438,-276.8554688
6.7150,935.0585938,-229.0039063,-272.4609375
6.7200,945.8007813,-194.8242188,-289.5507813
6.7250,985.3515625,-163.0859375,-285.6445313
6.7300,1011.230469,-145.5078125,-272.4609375
6.7350,1019.042969,-152.34375,-316.40625
6.7400,974.609375,-173.828125,-291.015625
6.7450,923.828125,-200.6835938,-261.71875
6.7500,895.9960938,-218.75,-243.1640625
6.7550,910.6445313,-205.078125,-227.0507813
6.7600,920.4101563,-196.7773438,-226.5625
6.7650,925.78125,-190.4296875,-223.1445313
6.7700,928.7109375,-191.40625,-207.5195313
6.7750,925.78125,-192.8710938,-199.7070313
6.7800,932.1289063,-183.1054688,-194.8242188
6.7850,922.3632813,-196.7773438,-175.2929688
6.7900,953.125,-186.0351563,-146.484375
6.7950,963.8671875,-200.1953125,-166.9921875
6.8000,961.9140625,-215.3320313,-169.4335938
6.8050,956.0546875,-241.2109375,-162.5976563
6.8100,965.8203125,-271.484375,-157.2265625
6.8150,970.2148438,-292.4804688,-175.78125
6.8200,971.6796875,-305.1757813,-178.2226563
6.8250,967.7734375,-307.6171875,-159.1796875
6.8300,944.3359375,-293.4570313,-159.1796875
6.8350,940.4296875,-265.625,-141.1132813
6.8400,937.0117188,-259.765625,-152.8320313
6.8450,937.9882813,-245.6054688,-162.109375
6.8500,937.5,-237.7929688,-174.3164063
6.8550,944.3359375,-222.65625,-166.9921875
6.8600,937.5,-214.84375,-174.8046875
6.8650,945.8007813,-196.2890625,-183.1054688
6.8700,942.8710938,-199.21875,-183.59375
6.8750,949.21875,-208.0078125,-186.0351563
6.8800,950.1953125,-217.2851563,-186.5234375
6.8850,953.6132813,-234.375,-170.4101563
6.8900,948.7304688,-267.578125,-175.2929688
6.8950,946.7773438,-286.6210938,-163.0859375
6.9000,946.7773438,-307.1289063,-171.875
6.9050,952.6367188,-311.5234375,-190.4296875
6.9100,968.2617188,-312.0117188,-186.5234375
6.9150,969.7265625,-324.21875,-208.4960938
6.9200,977.5390625,-305.1757813,-203.6132813
6.9250,968.2617188,-293.4570313,-196.7773438
6.9300,967.7734375,-270.5078125,-160.6445313
6.9350,957.03125,-267.0898438,-159.6679688
6.9400,952.1484375,-263.1835938,-158.6914063
6.9450,951.171875,-275.8789063,-152.8320313
6.9500,963.8671875,-278.8085938,-155.2734375
6.9550,963.8671875,-271.484375,-157.2265625
6.9600,956.0546875,-262.6953125,-145.0195313
6.9650,955.078125,-263.671875,-145.9960938
6.9700,964.84375,-267.0898438,-160.15625
6.9750,967.2851563,-258.3007813,-153.3203125
6.9800,963.3789063,-241.2109375,-138.671875
6.9850,957.5195313,-220.703125,-160.15625
6.9900,942.3828125,-203.125,-164.0625
6.9950,949.7070313,-197.265625,-140.1367188
7.0000,951.171875,-210.9375,-128.4179688
7.0050,957.03125,-228.0273438,-127.9296875
7.0100,967.7734375,-234.8632813,-134.2773438
7.0150,962.890625,-244.6289063,-149.9023438
7.0200,952.1484375,-238.28125,-141.6015625
7.0250,948.2421875,-230.9570313,-137.6953125
7.0300,945.3125,-241.6992188,-126.953125
7.0350,952.1484375,-245.6054688,-146.484375
7.0400,959.9609375,-254.3945313,-139.6484375
7.0450,961.4257813,-264.6484375,-159.6679688
7.0500,952.6367188,-266.6015625,-154.7851563
7.0550,964.3554688,-247.0703125,-157.2265625
7.0600,966.3085938,-239.2578125,-158.203125
7.0650,973.1445313,-248.046875,-158.6914063
7.0700,961.9140625,-245.6054688,-146.9726563
7.0750,959.4726563,-227.0507813,-132.3242188
7.0800,952.6367188,-211.9140625,-113.28125
7.0850,944.8242188,-204.1015625,-135.2539063
7.0900,932.1289063,-221.1914063,-120.1171875
7.0950,960.9375,-225.5859375,-121.09375
7.1000,973.1445313,-231.4453125,-133.7890625
7.1050,969.7265625,-247.0703125,-159.1796875
7.1100,967.7734375,-250.9765625,-135.7421875
7.1150,963.8671875,-250,-129.8828125
7.1200,949.21875,-255.3710938,-134.2773438
7.1250,949.21875,-255.3710938,-128.4179688
7.1300,937.9882813,-253.4179688,-123.046875
7.1350,936.0351563,-249.0234375,-121.09375
7.1400,930.6640625,-231.4453125,-132.8125
7.1450,926.7578125,-208.984375,-114.2578125
7.1500,925.2929688,-201.6601563,-118.6523438
7.1550,934.0820313,-195.8007813,-115.234375
7.1600,953.6132813,-191.8945313,-127.4414063
7.1650,955.078125,-207.03125,-123.046875
7.1700,946.2890625,-229.9804688,-118.6523438
7.1750,942.3828125,-238.28125,-125
7.1800,946.7773438,-242.6757813,-123.046875
7.1850,939.453125,-259.765625,-123.5351563
7.1900,947.7539063,-261.2304688,-120.6054688
7.1950,939.453125,-258.7890625,-120.6054688
7.2000,947.265625,-254.3945313,-111.328125
7.2050,957.5195313,-252.9296875,-103.0273438
7.2100,965.3320313,-242.1875,-118.1640625
7.2150,958.984375,-239.7460938,-119.6289063
7.2200,961.9140625,-229.9804688,-117.6757813
7.2250,952.1484375,-240.234375,-108.3984375
7.2300,948.7304688,-231.4453125,-109.375
7.2350,948.2421875,-233.3984375,-105.9570313
7.2400,948.7304688,-230.46875,-140.1367188
7.2450,949.21875,-238.7695313,-137.6953125
7.2500,945.8007813,-234.375,-131.8359375
7.2550,952.1484375,-236.8164063,-123.046875
7.2600,955.078125,-252.4414063,-110.8398438
7.2650,962.4023438,-264.1601563,-121.09375
7.2700,954.1015625,-269.0429688,-117.6757813
7.2750,957.03125,-265.1367188,-121.09375
7.2800,934.5703125,-277.34375,-132.8125
7.2850,951.6601563,-268.0664063,-105.46875
7.2900,949.21875,-267.0898438,-124.5117188
7.2950,949.7070313,-264.6484375,-121.5820313
7.3000,948.7304688,-246.5820313,-126.953125
7.3050,943.359375,-233.8867188,-123.046875
7.3100,941.8945313,-226.0742188,-114.2578125
7.3150,945.3125,-219.7265625,-107.9101563
7.3200,945.8007813,-217.2851563,-104.0039063
7.3250,969.7265625,-227.5390625,-99.609375
7.3300,983.3984375,-253.4179688,-115.234375
7.3350,969.7265625,-257.8125,-138.1835938
7.3400,952.1484375,-249.0234375,-143.5546875
7.3450,944.8242188,-252.9296875,-127.4414063
7.3500,964.84375,-247.5585938,-125.4882813
7.3550,977.5390625,-260.2539063,-105.46875
7.3600,970.2148438,-269.0429688,-109.375
7.3650,955.5664063,-283.203125,-129.3945313
7.3700,961.9140625,-258.3007813,-120.6054688
7.3750,959.9609375,-239.2578125,-104.0039063
7.3800,951.171875,-227.5390625,-109.375
7.3850,943.359375,-214.84375,-94.23828125
7.3900,942.8710938,-211.9140625,-96.6796875
7.3950,954.1015625,-218.2617188,-100.0976563
7.4000,956.5429688,-230.9570313,-111.8164063
7.4050,953.6132813,-229.0039063,-133.3007813
7.4100,954.5898438,-224.1210938,-134.765625
7.4150,958.0078125,-235.8398438,-128.4179688
7.4200,953.125,-264.1601563,-131.3476563
7.4250,964.3554688,-263.1835938,-151.3671875
7.4300,967.7734375,-255.3710938,-133.7890625
7.4350,958.984375,-253.4179688,-133.3007813
7.4400,956.0546875,-242.6757813,-128.90625
7.4450,945.8007813,-239.2578125,-104.4921875
7.4500,942.3828125,-233.3984375,-91.30859375
7.4550,948.7304688,-222.65625,-109.8632813
7.4600,957.03125,-217.2851563,-83.984375
7.4650,998.5351563,-240.7226563,-96.19140625
7.4700,1022.949219,-244.140625,-145.0195313
7.4750,1019.042969,-231.4453125,-179.1992188
7.4800,979.9804688,-229.9804688,-137.2070313
7.4850,954.5898438,-231.4453125,-117.6757813
7.4900,953.125,-228.515625,-110.8398438
7.4950,956.0546875,-242.1875,-106.4453125
7.5000,958.0078125,-247.0703125,-109.8632813
7.5050,970.703125,-238.28125,-115.7226563
7.5100,963.3789063,-232.9101563,-100.5859375
7.5150,966.3085938,-218.75,-102.0507813
7.5200,952.6367188,-211.9140625,-90.8203125
7.5250,943.359375,-208.984375,-92.7734375
7.5300,953.125,-209.9609375,-84.47265625
7.5350,966.3085938,-217.7734375,-85.9375
7.5400,980.46875,-227.0507813,-106.9335938
7.5450,985.8398438,-235.8398438,-115.7226563
7.5500,991.6992188,-230.9570313,-130.3710938
7.5550,985.3515625,-219.7265625,-133.7890625
7.5600,980.46875,-214.3554688,-130.3710938
7.5650,980.9570313,-210.9375,-106.4453125
7.5700,981.9335938,-210.9375,-115.7226563
7.5750,984.375,-204.1015625,-117.6757813
7.5800,971.6796875,-212.4023438,-108.8867188
7.5850,978.515625,-192.3828125,-107.9101563
7.5900,971.1914063,-187.5,-97.16796875
7.5950,971.1914063,-189.9414063,-107.421875
7.6000,978.0273438,-180.1757813,-90.8203125
7.6050,977.0507813,-187.9882813,-100.5859375
7.6100,977.5390625,-186.0351563,-106.9335938
7.6150,975.5859375,-193.8476563,-115.234375
7.6200,979.9804688,-184.0820313,-118.1640625
7.6250,981.9335938,-186.5234375,-124.0234375
7.6300,979.9804688,-189.9414063,-129.3945313
7.6350,995.1171875,-185.546875,-144.0429688
7.6400,989.7460938,-183.59375,-150.8789063
7.6450,982.9101563,-184.5703125,-151.8554688
7.6500,969.2382813,-187.5,-156.7382813
7.6550,969.7265625,-197.265625,-144.53125
7.6600,964.3554688,-200.6835938,-140.1367188
7.6650,964.84375,-199.7070313,-146.9726563
7.6700,968.75,-202.1484375,-151.3671875
7.6750,966.3085938,-204.5898438,-158.203125
7.6800,962.4023438,-203.6132813,-133.7890625
7.6850,969.2382813,-208.0078125,-140.1367188
7.6900,976.0742188,-210.4492188,-140.625
7.6950,973.1445313,-215.3320313,-139.1601563
7.7000,977.5390625,-205.5664063,-149.9023438
7.7050,962.4023438,-215.8203125,-147.4609375
7.7100,955.078125,-210.9375,-169.921875
7.7150,964.84375,-200.1953125,-159.1796875
7.7200,955.5664063,-203.125,-168.9453125
7.7250,958.0078125,-192.3828125,-164.5507813
7.7300,947.265625,-202.6367188,-172.8515625
7.7350,960.4492188,-193.359375,-173.828125
7.7400,964.84375,-186.0351563,-173.828125
7.7450,973.6328125,-186.5234375,-174.8046875
7.7500,978.0273438,-184.0820313,-170.8984375
7.7550,990.7226563,-180.1757813,-198.2421875
7.7600,994.6289063,-177.2460938,-194.3359375
7.7650,991.6992188,-183.59375,-211.9140625
7.7700,985.8398438,-191.40625,-201.6601563
7.7750,978.0273438,-205.5664063,-189.453125
7.7800,986.8164063,-197.7539063,-175.78125
7.7850,977.5390625,-203.6132813,-167.4804688
7.7900,993.6523438,-189.453125,-167.4804688
7.7950,991.2109375,-187.5,-159.1796875
7.8000,980.9570313,-195.8007813,-160.15625
7.8050,981.9335938,-196.7773438,-145.0195313
7.8100,973.1445313,-190.4296875,-140.1367188
7.8150,969.7265625,-187.0117188,-151.3671875
7.8200,970.703125,-184.0820313,-147.9492188
7.8250,965.8203125,-189.453125,-148.4375
7.8300,970.2148438,-187.5,-144.53125
7.8350,983.3984375,-174.3164063,-158.203125
7.8400,980.9570313,-174.3164063,-156.7382813
7.8450,971.1914063,-173.3398438,-173.828125
7.8500,972.65625,-164.5507813,-161.1328125
7.8550,962.4023438,-171.3867188,-166.5039063
7.8600,972.65625,-151.3671875,-176.2695313
7.8650,958.4960938,-154.296875,-163.0859375
7.8700,964.84375,-145.9960938,-164.5507813
7.8750,966.3085938,-147.9492188,-151.8554688
7.8800,974.1210938,-142.578125,-157.2265625
7.8850,983.3984375,-137.2070313,-135.7421875
7.8900,981.4453125,-145.9960938,-132.3242188
7.8950,990.7226563,-138.671875,-120.6054688
7.9000,989.7460938,-143.5546875,-113.28125
7.9050,994.6289063,-146.9726563,-100.5859375
7.9100,995.1171875,-149.9023438,-110.8398438
7.9150,995.6054688,-154.296875,-101.5625
7.9200,1001.953125,-151.3671875,-104.0039063
7.9250,988.7695313,-163.0859375,-111.8164063
7.9300,990.234375,-160.6445313,-118.6523438
7.9350,985.3515625,-160.15625,-122.0703125
7.9400,984.375,-163.0859375,-110.3515625
7.9450,983.8867188,-170.8984375,-137.6953125
7.9500,989.2578125,-164.0625,-139.1601563
7.9550,988.28125,-168.4570313,-129.3945313
7.9600,993.1640625,-154.7851563,-149.4140625
7.9650,996.09375,-153.8085938,-142.0898438
7.9700,998.5351563,-151.8554688,-157.7148438
7.9750,1004.882813,-141.6015625,-158.203125
7.9800,993.1640625,-148.9257813,-147.9492188
7.9850,991.2109375,-145.9960938,-149.4140625
7.9900,982.421875,-151.8554688,-156.7382813
7.9950,982.421875,-147.4609375,-153.8085938
8.0000,972.65625,-150.8789063,-148.4375
8.0050,984.375,-148.9257813,-150.390625
8.0100,987.7929688,-144.53125,-138.1835938
8.0150,981.4453125,-149.9023438,-151.3671875
8.0200,982.9101563,-149.4140625,-144.0429688
8.0250,979.0039063,-147.9492188,-136.71875
8.0300,976.0742188,-137.6953125,-132.8125
8.0350,979.4921875,-145.0195313,-135.7421875
8.0400,979.4921875,-146.484375,-132.3242188
8.0450,984.375,-147.4609375,-135.2539063
8.0500,987.3046875,-142.0898438,-137.6953125
8.0550,979.9804688,-150.8789063,-142.0898438
8.0600,983.3984375,-150.8789063,-144.0429688
8.0650,980.9570313,-154.296875,-148.4375
8.0700,986.328125,-148.4375,-139.1601563
8.0750,983.3984375,-144.0429688,-158.203125
8.0800,987.3046875,-138.671875,-150.8789063
8.0850,982.9101563,-138.1835938,-140.625
8.0900,982.421875,-132.3242188,-148.4375
8.0950,979.4921875,-137.2070313,-141.6015625
8.1000,985.8398438,-126.953125,-146.9726563
8.1050,982.9101563,-127.4414063,-149.4140625
8.1100,982.9101563,-128.90625,-139.6484375
8.1150,980.46875,-130.859375,-147.4609375
8.1200,983.8867188,-125,-140.625
8.1250,972.65625,-125,-136.2304688
8.1300,974.1210938,-139.6484375,-146.484375
8.1350,990.234375,-123.046875,-145.5078125
8.1400,981.9335938,-131.3476563,-160.6445313
8.1450,981.9335938,-134.765625,-149.9023438
8.1500,981.9335938,-135.7421875,-149.9023438
8.1550,979.0039063,-141.6015625,-147.4609375
8.1600,983.3984375,-138.671875,-145.9960938
8.1650,975.0976563,-140.1367188,-146.9726563
8.1700,979.4921875,-131.3476563,-142.0898438
8.1750,986.8164063,-127.9296875,-135.2539063
8.1800,980.9570313,-130.3710938,-136.71875
8.1850,977.0507813,-131.3476563,-145.5078125
8.1900,980.9570313,-126.953125,-137.6953125
8.1950,975.0976563,-135.2539063,-132.8125
8.2000,978.515625,-134.2773438,-131.3476563
8.2050,983.3984375,-141.1132813,-130.3710938
8.2100,985.3515625,-138.1835938,-147.4609375
8.2150,978.0273438,-145.5078125,-140.625
8.2200,972.1679688,-146.9726563,-150.390625
8.2250,969.2382813,-144.53125,-152.34375
8.2300,975.5859375,-136.71875,-147.4609375
8.2350,968.75,-138.671875,-151.3671875
8.2400,972.65625,-119.140625,-142.0898438
8.2450,958.0078125,-125,-150.8789063
8.2500,950.1953125,-126.4648438,-146.484375
8.2550,951.6601563,-119.6289063,-137.6953125
8.2600,951.6601563,-119.140625,-133.3007813
8.2650,955.5664063,-114.7460938,-127.4414063
8.2700,959.4726563,-112.7929688,-131.3476563
8.2750,960.4492188,-118.1640625,-133.3007813
8.2800,963.3789063,-120.6054688,-136.71875
8.2850,969.7265625,-119.6289063,-133.3007813
8.2900,970.2148438,-123.5351563,-133.7890625
8.2950,964.84375,-135.2539063,-120.1171875
8.3000,962.890625,-136.2304688,-130.859375
8.3050,962.4023438,-142.0898438,-129.3945313
8.3100,964.84375,-128.90625,-125
8.3150,963.8671875,-135.2539063,-144.0429688
8.3200,961.9140625,-139.1601563,-137.2070313
8.3250,975.5859375,-126.953125,-148.9257813
8.3300,965.8203125,-133.3007813,-129.3945313
8.3350,970.2148438,-141.1132813,-125.4882813
8.3400,980.46875,-134.2773438,-131.8359375
8.3450,986.8164063,-144.0429688,-141.6015625
8.3500,1003.90625,-136.71875,-142.578125
8.3550,1003.417969,-153.3203125,-148.4375
8.3600,1012.207031,-153.8085938,-156.25
8.3650,1015.625,-157.7148438,-147.9492188
8.3700,1014.160156,-160.15625,-152.34375
8.3750,1011.230469,-172.8515625,-144.0429688
8.3800,1011.71875,-175.2929688,-139.6484375
8.3850,1011.71875,-177.734375,-153.8085938
8.3900,1016.601563,-175.2929688,-137.6953125
8.3950,1001.953125,-188.9648438,-140.1367188
8.4000,992.6757813,-189.9414063,-140.625
8.4050,996.09375,-190.4296875,-130.3710938
8.4100,993.6523438,-185.0585938,-142.578125
8.4150,992.6757813,-179.6875,-115.234375
8.4200,992.1875,-174.3164063,-124.5117188
8.4250,981.4453125,-181.640625,-130.859375
8.4300,983.8867188,-168.4570313,-124.0234375
8.4350,980.9570313,-166.5039063,-122.0703125
8.4400,983.3984375,-155.2734375,-134.765625
8.4450,969.2382813,-165.5273438,-129.3945313
8.4500,972.65625,-161.1328125,-125.9765625
8.4550,976.5625,-155.2734375,-137.2070313
8.4600,971.6796875,-144.0429688,-123.5351563
8.4650,966.796875,-147.4609375,-139.6484375
8.4700,965.3320313,-144.53125,-126.953125
8.4750,965.3320313,-145.9960938,-121.09375
8.4800,967.7734375,-138.1835938,-145.0195313
8.4850,968.2617188,-142.0898438,-135.2539063
8.4900,967.7734375,-138.1835938,-144.0429688
8.4950,967.7734375,-139.1601563,-156.7382813
8.5000,970.703125,-138.1835938,-164.0625
8.5050,965.8203125,-152.34375,-132.3242188
8.5100,972.65625,-146.484375,-134.765625
8.5150,966.796875,-155.7617188,-141.6015625
8.5200,961.9140625,-164.0625,-135.2539063
8.5250,971.6796875,-162.109375,-136.71875
8.5300,966.3085938,-176.2695313,-148.4375
8.5350,966.796875,-184.5703125,-137.6953125
8.5400,972.1679688,-182.1289063,-147.9492188
8.5450,971.6796875,-187.0117188,-138.1835938
8.5500,979.9804688,-181.640625,-135.2539063
8.5550,975.0976563,-189.453125,-147.4609375
8.5600,981.9335938,-182.6171875,-145.0195313
8.5650,975.5859375,-180.6640625,-144.0429688
8.5700,966.796875,-177.734375,-140.1367188
8.5750,965.8203125,-171.875,-157.7148438
8.5800,965.3320313,-164.0625,-161.6210938
8.5850,967.7734375,-162.5976563,-157.2265625
8.5900,965.3320313,-154.7851563,-163.0859375
8.5950,968.75,-148.9257813,-166.5039063
8.6000,962.4023438,-142.578125,-154.7851563
8.6050,957.03125,-143.5546875,-145.5078125
8.6100,955.5664063,-153.3203125,-155.2734375
8.6150,970.703125,-159.1796875,-150.390625
8.6200,972.1679688,-169.921875,-150.8789063
8.6250,972.1679688,-182.6171875,-151.3671875
8.6300,973.6328125,-192.3828125,-160.15625
8.6350,978.515625,-204.1015625,-158.6914063
8.6400,983.3984375,-204.1015625,-147.4609375
8.6450,982.9101563,-216.3085938,-156.7382813
8.6500,981.9335938,-216.3085938,-134.765625
8.6550,982.9101563,-219.7265625,-161.1328125
8.6600,976.0742188,-219.7265625,-140.625
8.6650,989.2578125,-211.9140625,-152.8320313
8.6700,986.328125,-215.3320313,-162.109375
8.6750,972.65625,-225.0976563,-162.5976563
8.6800,975.5859375,-215.8203125,-155.7617188
8.6850,967.7734375,-208.4960938,-159.1796875
8.6900,965.3320313,-199.21875,-154.7851563
8.6950,962.4023438,-191.40625,-141.1132813
8.7000,964.3554688,-187.5,-149.9023438
8.7050,965.3320313,-197.265625,-151.8554688
8.7100,967.7734375,-195.8007813,-170.4101563
8.7150,959.4726563,-217.2851563,-164.0625
8.7200,963.8671875,-215.3320313,-160.15625
8.7250,963.3789063,-212.890625,-157.7148438
8.7300,944.8242188,-218.2617188,-149.9023438
8.7350,948.7304688,-209.4726563,-157.7148438
8.7400,948.7304688,-200.6835938,-143.5546875
8.7450,956.0546875,-193.359375,-156.25
8.7500,956.5429688,-194.8242188,-172.8515625
8.7550,959.9609375,-203.6132813,-187.0117188
8.7600,956.5429688,-203.125,-190.4296875
8.7650,955.078125,-194.8242188,-195.8007813
8.7700,946.7773438,-203.6132813,-180.6640625
8.7750,951.6601563,-198.7304688,-168.9453125
8.7800,952.6367188,-199.7070313,-178.7109375
8.7850,954.5898438,-192.8710938,-154.7851563
8.7900,961.4257813,-187.9882813,-174.8046875
8.7950,963.3789063,-194.8242188,-166.5039063
8.8000,970.2148438,-192.3828125,-166.015625
8.8050,970.2148438,-201.171875,-166.5039063
8.8100,973.6328125,-204.5898438,-178.7109375
8.8150,978.515625,-214.3554688,-188.4765625
8.8200,973.1445313,-228.0273438,-199.7070313
8.8250,973.1445313,-240.7226563,-205.5664063
8.8300,968.2617188,-246.09375,-197.7539063
8.8350,958.4960938,-252.9296875,-201.171875
8.8400,950.1953125,-256.8359375,-194.8242188
8.8450,952.6367188,-252.4414063,-183.1054688
8.8500,946.7773438,-254.8828125,-175.2929688
8.8550,956.0546875,-237.3046875,-187.5
8.8600,953.125,-242.6757813,-179.6875
8.8650,952.6367188,-233.3984375,-187.0117188
8.8700,954.1015625,-228.0273438,-190.4296875
8.8750,958.0078125,-223.6328125,-174.8046875
8.8800,970.2148438,-220.2148438,-194.3359375
8.8850,972.65625,-224.609375,-190.4296875
8.8900,972.65625,-232.421875,-196.7773438
8.8950,970.703125,-231.4453125,-205.078125
8.9000,963.3789063,-228.0273438,-195.8007813
8.9050,961.9140625,-231.4453125,-205.078125
8.9100,965.3320313,-231.9335938,-208.0078125
8.9150,958.4960938,-241.2109375,-214.3554688
8.9200,943.8476563,-246.5820313,-202.6367188
8.9250,940.4296875,-259.765625,-207.03125
8.9300,943.8476563,-264.6484375,-197.7539063
8.9350,952.6367188,-262.6953125,-195.3125
8.9400,958.984375,-255.859375,-208.4960938
8.9450,953.6132813,-261.2304688,-189.9414063
8.9500,950.1953125,-267.578125,-205.5664063
8.9550,954.1015625,-260.2539063,-206.5429688
8.9600,949.7070313,-253.4179688,-206.0546875
8.9650,951.6601563,-253.4179688,-206.0546875
8.9700,946.7773438,-253.90625,-197.265625
8.9750,950.1953125,-264.1601563,-208.4960938
8.9800,958.4960938,-258.3007813,-213.8671875
8.9850,953.6132813,-261.71875,-220.703125
8.9900,945.8007813,-265.1367188,-218.75
8.9950,947.265625,-263.1835938,-219.7265625
9.0000,948.7304688,-263.1835938,-214.84375
9.0050,942.3828125,-264.6484375,-230.9570313
9.0100,945.3125,-262.6953125,-213.3789063
9.0150,945.3125,-269.53125,-222.65625
9.0200,941.40625,-270.0195313,-213.3789063
9.0250,940.9179688,-260.2539063,-211.4257813
9.0300,940.4296875,-261.71875,-216.3085938
9.0350,938.9648438,-270.9960938,-224.609375
9.0400,937.0117188,-277.8320313,-222.65625
9.0450,940.4296875,-270.0195313,-235.3515625
9.0500,932.1289063,-274.4140625,-238.7695313
9.0550,931.640625,-279.7851563,-233.8867188
9.0600,922.3632813,-291.9921875,-223.6328125
9.0650,924.3164063,-289.0625,-225.5859375
9.0700,928.2226563,-280.7617188,-231.4453125
9.0750,922.8515625,-279.7851563,-235.8398438
9.0800,933.59375,-276.8554688,-244.6289063
9.0850,929.6875,-272.9492188,-242.6757813
9.0900,923.828125,-275.390625,-240.234375
9.0950,920.4101563,-281.25,-243.6523438
9.1000,915.5273438,-278.8085938,-234.375
9.1050,916.5039063,-270.0195313,-241.2109375
9.1100,916.015625,-264.6484375,-254.8828125
9.1150,916.015625,-270.9960938,-241.2109375
9.1200,916.5039063,-284.1796875,-257.3242188
9.1250,926.2695313,-294.4335938,-251.4648438
9.1300,924.8046875,-297.3632813,-244.140625
9.1350,933.59375,-289.0625,-270.0195313
9.1400,931.1523438,-287.109375,-282.2265625
9.1450,924.8046875,-304.1992188,-266.6015625
9.1500,916.015625,-312.9882813,-275.8789063
9.1550,909.6679688,-322.265625,-260.2539063
9.1600,905.7617188,-319.3359375,-254.3945313
9.1650,905.7617188,-320.3125,-250.4882813
9.1700,895.9960938,-315.4296875,-247.0703125
9.1750,908.203125,-307.1289063,-251.953125
9.1800,916.015625,-293.9453125,-250.4882813
9.1850,909.6679688,-293.9453125,-259.765625
9.1900,910.6445313,-295.8984375,-265.1367188
9.1950,912.109375,-292.4804688,-270.5078125
9.2000,918.4570313,-290.5273438,-279.7851563
9.2050,920.4101563,-296.875,-302.734375
9.2100,924.3164063,-303.7109375,-307.1289063
9.2150,912.5976563,-316.8945313,-291.015625
9.2200,908.203125,-318.359375,-279.296875
9.2250,905.2734375,-324.21875,-292.4804688
9.2300,902.8320313,-333.0078125,-281.25
9.2350,901.8554688,-339.3554688,-291.015625
9.2400,905.7617188,-335.4492188,-292.4804688
9.2450,905.7617188,-333.984375,-299.3164063
9.2500,906.25,-336.4257813,-291.9921875
9.2550,893.0664063,-348.6328125,-290.0390625
9.2600,896.9726563,-329.1015625,-281.25
9.2650,886.2304688,-331.0546875,-277.34375
9.2700,894.0429688,-312.9882813,-284.6679688
9.2750,898.9257813,-314.453125,-285.6445313
9.2800,899.4140625,-312.9882813,-293.9453125
9.2850,901.3671875,-326.171875,-289.0625
9.2900,911.1328125,-322.7539063,-305.6640625
9.2950,918.4570313,-331.5429688,-295.8984375
9.3000,925.2929688,-328.6132813,-307.1289063
9.3050,918.4570313,-344.7265625,-302.2460938
9.3100,913.0859375,-349.609375,-313.4765625
9.3150,911.6210938,-347.1679688,-310.546875
9.3200,900.8789063,-349.1210938,-306.1523438
9.3250,893.5546875,-358.8867188,-311.0351563
9.3300,891.6015625,-360.8398438,-303.7109375
9.3350,890.1367188,-376.953125,-306.640625
9.3400,886.2304688,-383.3007813,-313.4765625
9.3450,881.8359375,-381.3476563,-304.1992188
9.3500,884.2773438,-375.4882813,-302.734375
9.3550,896.484375,-365.7226563,-298.3398438
9.3600,890.1367188,-358.3984375,-296.3867188
9.3650,887.2070313,-348.1445313,-299.3164063
9.3700,892.0898438,-340.3320313,-312.5
9.3750,894.0429688,-344.7265625,-310.0585938
9.3800,885.2539063,-343.75,-314.453125
9.3850,876.4648438,-340.8203125,-310.546875
9.3900,877.4414063,-333.4960938,-305.6640625
9.3950,875,-334.9609375,-316.8945313
9.4000,874.0234375,-328.6132813,-327.1484375
9.4050,874.0234375,-327.6367188,-324.21875
9.4100,872.5585938,-319.8242188,-346.1914063
9.4150,853.515625,-331.5429688,-329.5898438
9.4200,855.9570313,-323.2421875,-323.7304688
9.4250,852.5390625,-332.5195313,-335.4492188
9.4300,856.4453125,-338.8671875,-324.21875
9.4350,855.46875,-345.2148438,-338.3789063
9.4400,844.2382813,-360.8398438,-323.7304688
9.4450,856.9335938,-363.7695313,-318.359375
9.4500,849.1210938,-362.7929688,-318.359375
9.4550,855.9570313,-360.3515625,-330.078125
9.4600,850.0976563,-363.28125,-338.8671875
9.4650,854.9804688,-365.7226563,-333.984375
9.4700,860.3515625,-369.140625,-345.703125
9.4750,873.046875,-375.4882813,-367.1875
9.4800,868.6523438,-383.7890625,-347.65625
9.4850,857.9101563,-394.0429688,-349.1210938
9.4900,860.3515625,-391.1132813,-341.3085938
9.4950,850.5859375,-388.671875,-352.0507813
9.5000,851.0742188,-380.3710938,-333.984375
9.5050,848.6328125,-383.7890625,-349.609375
9.5100,844.7265625,-387.6953125,-359.375
9.5150,848.1445313,-395.9960938,-366.2109375
9.5200,845.703125,-397.9492188,-364.2578125
9.5250,843.75,-404.7851563,-378.90625
9.5300,837.890625,-406.25,-363.7695313
9.5350,837.4023438,-400.8789063,-373.5351563
9.5400,832.5195313,-400.8789063,-363.7695313
9.5450,833.984375,-403.8085938,-375.9765625
9.5500,834.4726563,-400.8789063,-360.8398438
9.5550,848.1445313,-388.671875,-389.1601563
9.5600,838.3789063,-397.4609375,-383.7890625
9.5650,840.8203125,-398.9257813,-395.5078125
9.5700,837.890625,-402.8320313,-396.484375
9.5750,835.9375,-405.7617188,-393.0664063
9.5800,830.5664063,-393.5546875,-386.71875
9.5850,820.3125,-399.4140625,-387.2070313
9.5900,824.21875,-390.625,-382.3242188
9.5950,822.7539063,-390.625,-401.3671875
9.6000,821.7773438,-382.8125,-392.0898438
9.6050,818.359375,-382.8125,-403.3203125
9.6100,814.453125,-390.625,-405.7617188
9.6150,821.2890625,-394.0429688,-430.1757813
9.6200,832.03125,-399.4140625,-416.5039063
9.6250,837.4023438,-408.6914063,-419.4335938
9.6300,836.9140625,-408.203125,-414.5507813
9.6350,839.3554688,-412.5976563,-418.9453125
9.6400,826.6601563,-419.921875,-414.0625
9.6450,816.40625,-428.2226563,-413.5742188
9.6500,815.4296875,-428.7109375,-398.9257813
9.6550,814.453125,-427.734375,-403.8085938
9.6600,812.0117188,-432.6171875,-407.2265625
9.6650,809.5703125,-426.7578125,-411.6210938
9.6700,822.7539063,-420.8984375,-395.5078125
9.6750,827.6367188,-426.7578125,-398.4375
9.6800,825.6835938,-426.7578125,-408.6914063
9.6850,829.1015625,-434.5703125,-411.1328125
9.6900,823.2421875,-440.9179688,-424.3164063
9.6950,820.3125,-437.9882813,-418.4570313
9.7000,824.21875,-435.0585938,-418.9453125
9.7050,817.8710938,-429.6875,-421.3867188
9.7100,807.1289063,-436.0351563,-437.9882813
9.7150,801.7578125,-436.5234375,-417.4804688
9.7200,802.734375,-443.8476563,-417.96875
9.7250,800.78125,-455.078125,-403.3203125
9.7300,797.3632813,-460.4492188,-416.5039063
9.7350,789.0625,-460.4492188,-422.8515625
9.7400,782.2265625,-463.3789063,-394.0429688
9.7450,788.0859375,-459.9609375,-404.7851563
9.7500,795.4101563,-461.4257813,-399.4140625
9.7550,798.828125,-466.796875,-405.2734375
9.7600,799.3164063,-465.3320313,-421.3867188
9.7650,806.640625,-470.2148438,-433.59375
9.7700,809.5703125,-460.9375,-431.1523438
9.7750,802.2460938,-452.1484375,-444.8242188
9.7800,793.4570313,-436.5234375,-432.1289063
9.7850,796.875,-415.5273438,-427.734375
9.7900,795.4101563,-409.6679688,-453.6132813
9.7950,795.8984375,-394.0429688,-462.890625
9.8000,785.6445313,-389.6484375,-459.9609375
9.8050,775.390625,-382.8125,-475.5859375
9.8100,770.5078125,-378.4179688,-466.796875
9.8150,770.0195313,-382.3242188,-475.5859375
9.8200,754.8828125,-390.625,-468.2617188
9.8250,756.8359375,-399.9023438,-449.7070313
9.8300,755.859375,-404.296875,-445.8007813
9.8350,741.6992188,-426.7578125,-446.2890625
9.8400,743.6523438,-432.6171875,-455.5664063
9.8450,742.1875,-441.40625,-447.265625
9.8500,742.1875,-444.8242188,-463.3789063
9.8550,742.6757813,-447.265625,-455.078125
9.8600,749.0234375,-443.8476563,-469.2382813
9.8650,755.859375,-439.9414063,-468.75
9.8700,757.3242188,-456.0546875,-464.84375
9.8750,761.71875,-448.2421875,-479.0039063
9.8800,761.2304688,-450.1953125,-467.7734375
9.8850,761.2304688,-449.7070313,-464.84375
9.8900,756.3476563,-465.8203125,-484.375
9.8950,750.9765625,-473.6328125,-475.0976563
9.9000,743.1640625,-469.7265625,-475.5859375
9.9050,741.2109375,-462.890625,-470.703125
9.9100,740.234375,-461.4257813,-466.3085938
9.9150,744.140625,-470.703125,-475.0976563
9.9200,746.09375,-475.5859375,-471.6796875
9.9250,746.5820313,-481.4453125,-478.0273438
9.9300,742.6757813,-477.5390625,-502.4414063
9.9350,738.7695313,-476.0742188,-496.09375
9.9400,747.0703125,-461.9140625,-504.3945313
9.9450,750,-458.4960938,-496.5820313
9.9500,749.0234375,-457.03125,-500.9765625
9.9550,743.1640625,-463.8671875,-494.6289063
9.9600,731.4453125,-462.890625,-491.2109375
9.9650,737.7929688,-457.5195313,-493.1640625
9.9700,750.9765625,-447.265625,-487.7929688
9.9750,750.4882813,-450.6835938,-481.4453125
9.9800,748.5351563,-457.03125,-479.9804688
9.9850,748.046875,-461.9140625,-471.1914063
9.9900,753.90625,-458.0078125,-476.5625
9.9950,746.09375,-449.21875,-468.2617188
10.0000,729.0039063,-441.8945313,-466.796875
10.0050,711.4257813,-437.5,-471.1914063
10.0100,703.125,-425.78125,-469.2382813
10.0150,712.890625,-421.875,-458.0078125
10.0200,709.4726563,-428.7109375,-476.0742188
10.0250,710.9375,-435.0585938,-489.2578125
10.0300,713.8671875,-439.453125,-485.8398438
10.0350,709.4726563,-445.8007813,-506.8359375
10.0400,703.6132813,-451.171875,-498.5351563
10.0450,712.4023438,-456.0546875,-493.6523438
10.0500,713.3789063,-451.171875,-485.8398438
10.0550,713.3789063,-451.171875,-492.6757813
10.0600,711.9140625,-465.8203125,-500
10.0650,715.8203125,-486.8164063,-504.3945313
10.0700,722.65625,-481.4453125,-494.6289063
10.0750,729.0039063,-483.3984375,-491.6992188
10.0800,738.7695313,-485.3515625,-509.765625
10.0850,742.1875,-493.6523438,-509.2773438
10.0900,737.3046875,-495.6054688,-499.0234375
10.0950,756.8359375,-476.5625,-490.234375
10.1000,744.140625,-478.0273438,-502.4414063
10.1050,731.4453125,-471.1914063,-504.8828125
10.1100,722.1679688,-463.3789063,-509.2773438
10.1150,719.2382813,-475.0976563,-513.1835938
10.1200,726.0742188,-472.1679688,-517.0898438
10.1250,733.8867188,-479.4921875,-505.859375
10.1300,735.3515625,-485.8398438,-510.2539063
10.1350,737.7929688,-494.140625,-539.5507813
10.1400,728.515625,-502.4414063,-527.34375
10.1450,726.0742188,-512.6953125,-509.765625
10.1500,705.5664063,-513.671875,-505.859375
10.1550,708.0078125,-509.2773438,-487.7929688
10.1600,716.796875,-516.6015625,-502.9296875
10.1650,719.2382813,-532.7148438,-499.0234375
10.1700,727.5390625,-552.734375,-500
10.1750,730.46875,-550.78125,-512.6953125
10.1800,717.2851563,-547.8515625,-515.625
10.1850,705.078125,-544.4335938,-486.8164063
10.1900,710.9375,-516.1132813,-500.4882813
10.1950,713.8671875,-506.8359375,-517.578125
10.2000,690.4296875,-506.3476563,-526.3671875
10.2050,693.8476563,-488.28125,-516.1132813
10.2100,710.9375,-489.7460938,-531.7382813
10.2150,709.9609375,-490.7226563,-553.2226563
10.2200,707.5195313,-490.234375,-550.78125
10.2250,713.8671875,-493.1640625,-562.5
10.2300,718.2617188,-489.7460938,-567.3828125
10.2350,703.6132813,-486.8164063,-560.0585938
10.2400,692.3828125,-465.8203125,-549.3164063
10.2450,687.0117188,-461.4257813,-560.0585938
10.2500,695.8007813,-453.6132813,-566.8945313
10.2550,692.8710938,-459.9609375,-563.4765625
10.2600,685.546875,-462.890625,-582.5195313
10.2650,668.4570313,-474.1210938,-570.8007813
10.2700,668.4570313,-478.0273438,-544.921875
10.2750,660.15625,-482.9101563,-552.734375
10.2800,649.9023438,-481.9335938,-532.2265625
10.2850,653.8085938,-499.5117188,-543.9453125
10.2900,657.7148438,-499.0234375,-532.7148438
10.2950,662.109375,-486.8164063,-544.921875
10.3000,663.0859375,-489.2578125,-542.4804688
10.3050,669.921875,-494.6289063,-545.8984375
10.3100,682.1289063,-489.7460938,-552.2460938
10.3150,670.4101563,-481.4453125,-558.59375
10.3200,653.8085938,-467.2851563,-542.4804688
10.3250,657.2265625,-438.4765625,-534.6679688
10.3300,658.6914063,-423.3398438,-555.1757813
10.3350,659.6679688,-422.8515625,-559.5703125
10.3400,668.9453125,-419.4335938,-559.0820313
10.3450,671.3867188,-431.1523438,-569.3359375
10.3500,668.9453125,-439.9414063,-576.6601563
10.3550,653.8085938,-451.171875,-559.5703125
10.3600,658.203125,-442.3828125,-571.7773438
10.3650,654.7851563,-449.7070313,-582.03125
10.3700,662.109375,-453.6132813,-563.9648438
10.3750,655.2734375,-466.796875,-575.1953125
10.3800,650.8789063,-453.125,-561.0351563
10.3850,655.2734375,-451.6601563,-572.265625
10.3900,646.9726563,-460.4492188,-574.21875
10.3950,656.25,-464.3554688,-567.8710938
10.4000,652.34375,-461.4257813,-567.8710938
10.4050,645.0195313,-463.3789063,-566.40625
10.4100,651.3671875,-462.890625,-560.546875
10.4150,657.2265625,-468.2617188,-552.734375
10.4200,653.8085938,-477.0507813,-554.1992188
10.4250,665.5273438,-479.0039063,-550.2929688
10.4300,666.015625,-490.7226563,-542.96875
10.4350,668.4570313,-498.5351563,-557.6171875
10.4400,660.15625,-507.3242188,-554.1992188
10.4450,670.8984375,-507.3242188,-544.4335938
10.4500,667.96875,-517.0898438,-553.7109375
10.4550,666.5039063,-512.6953125,-555.6640625
10.4600,659.1796875,-509.765625,-542.4804688
10.4650,662.5976563,-506.8359375,-538.0859375
10.4700,679.1992188,-508.3007813,-539.0625
10.4750,679.6875,-508.3007813,-545.8984375
10.4800,687.9882813,-504.3945313,-556.640625
10.4850,696.7773438,-515.1367188,-539.0625
10.4900,699.7070313,-510.7421875,-531.25
10.4950,699.21875,-513.671875,-529.296875
10.5000,695.3125,-511.2304688,-522.4609375
10.5050,697.7539063,-502.9296875,-531.25
10.5100,703.125,-491.2109375,-532.7148438
10.5150,694.3359375,-488.7695313,-543.4570313
10.5200,696.2890625,-478.515625,-548.828125
10.5250,701.171875,-464.3554688,-565.4296875
10.5300,694.3359375,-464.3554688,-564.453125
10.5350,684.0820313,-458.4960938,-586.4257813
10.5400,687.0117188,-450.6835938,-563.4765625
10.5450,682.1289063,-451.6601563,-565.4296875
10.5500,676.7578125,-455.5664063,-555.6640625
10.5550,680.1757813,-463.3789063,-565.4296875
10.5600,684.5703125,-464.3554688,-552.2460938
10.5650,682.6171875,-481.9335938,-575.1953125
10.5700,684.5703125,-488.7695313,-568.8476563
10.5750,688.4765625,-487.7929688,-563.9648438
10.5800,677.734375,-483.3984375,-555.6640625
10.5850,685.0585938,-467.2851563,-566.8945313
10.5900,689.453125,-449.7070313,-563.4765625
10.5950,686.0351563,-457.03125,-585.9375
10.6000,687.0117188,-438.9648438,-587.4023438
10.6050,680.6640625,-443.8476563,-588.8671875
10.6100,684.0820313,-434.0820313,-602.5390625
10.6150,680.1757813,-431.640625,-599.609375
10.6200,670.8984375,-429.1992188,-596.6796875
10.6250,672.8515625,-416.015625,-583.0078125
10.6300,679.1992188,-402.34375,-576.6601563
10.6350,671.875,-410.6445313,-597.1679688
10.6400,665.5273438,-415.0390625,-588.8671875
10.6450,663.5742188,-433.1054688,-595.703125
10.6500,660.6445313,-439.453125,-594.7265625
10.6550,666.9921875,-446.2890625,-591.3085938
10.6600,671.875,-449.21875,-572.7539063
10.6650,687.0117188,-451.171875,-593.75
10.6700,678.7109375,-463.3789063,-586.4257813
10.6750,684.0820313,-471.6796875,-594.7265625
10.6800,686.5234375,-469.2382813,-589.3554688
10.6850,688.4765625,-468.2617188,-591.3085938
10.6900,690.4296875,-471.6796875,-596.6796875
10.6950,701.6601563,-467.7734375,-579.1015625
10.7000,694.3359375,-473.1445313,-567.8710938
10.7050,700.6835938,-462.890625,-565.4296875
10.7100,697.7539063,-456.0546875,-562.9882813
10.7150,698.2421875,-451.6601563,-566.40625
10.7200,686.0351563,-449.7070313,-553.2226563
10.7250,686.0351563,-442.8710938,-556.1523438
10.7300,694.3359375,-434.5703125,-553.2226563
10.7350,696.7773438,-435.0585938,-545.4101563
10.7400,692.8710938,-442.8710938,-567.3828125
10.7450,695.8007813,-446.2890625,-576.171875
10.7500,695.3125,-452.6367188,-564.453125
10.7550,705.078125,-450.6835938,-582.5195313
10.7600,706.0546875,-450.1953125,-566.8945313
10.7650,707.5195313,-438.4765625,-574.7070313
10.7700,708.984375,-429.1992188,-578.125
10.7750,703.6132813,-436.5234375,-571.7773438
10.7800,702.1484375,-427.734375,-560.0585938
10.7850,702.6367188,-429.6875,-558.59375
10.7900,687.0117188,-448.7304688,-565.9179688
10.7950,695.3125,-442.3828125,-564.453125
10.8000,693.359375,-439.9414063,-558.59375
10.8050,698.2421875,-435.546875,-544.4335938
10.8100,706.5429688,-428.2226563,-541.5039063
10.8150,710.4492188,-430.6640625,-544.4335938
10.8200,719.2382813,-430.6640625,-565.9179688
10.8250,729.9804688,-425.78125,-556.1523438
10.8300,733.3984375,-424.3164063,-559.5703125
10.8350,719.7265625,-441.8945313,-550.78125
10.8400,727.5390625,-431.1523438,-560.546875
10.8450,734.8632813,-428.7109375,-555.1757813
10.8500,731.4453125,-428.7109375,-549.8046875
10.8550,726.0742188,-416.015625,-546.3867188
10.8600,717.7734375,-406.7382813,-539.0625
10.8650,711.4257813,-404.7851563,-532.7148438
10.8700,702.6367188,-399.9023438,-528.8085938
10.8750,700.1953125,-405.2734375,-528.3203125
10.8800,712.890625,-406.25,-530.7617188
10.8850,712.890625,-418.4570313,-553.2226563
10.8900,728.515625,-403.8085938,-543.9453125
10.8950,736.8164063,-407.7148438,-561.0351563
10.9000,741.2109375,-408.6914063,-556.640625
10.9050,744.140625,-414.0625,-564.9414063
10.9100,747.5585938,-414.0625,-567.3828125
10.9150,753.90625,-413.5742188,-552.2460938
10.9200,742.1875,-411.6210938,-550.2929688
10.9250,739.2578125,-405.7617188,-545.8984375
10.9300,730.46875,-409.6679688,-529.296875
10.9350,721.1914063,-396.9726563,-519.53125
10.9400,721.1914063,-389.6484375,-512.6953125
10.9450,721.1914063,-387.6953125,-505.3710938
10.9500,722.1679688,-393.5546875,-517.0898438
10.9550,722.1679688,-405.7617188,-518.0664063
10.9600,729.0039063,-405.2734375,-513.1835938
10.9650,741.6992188,-403.8085938,-510.7421875
10.9700,742.1875,-407.7148438,-523.4375
10.9750,760.7421875,-398.4375,-526.8554688
10.9800,763.671875,-397.9492188,-529.7851563
10.9850,778.3203125,-398.9257813,-557.6171875
10.9900,771.9726563,-404.296875,-558.59375
10.9950,774.9023438,-410.15625,-558.59375
11.0000,774.9023438,-400.8789063,-539.5507813
11.0050,773.9257813,-398.9257813,-520.5078125
11.0100,758.7890625,-391.6015625,-509.2773438
11.0150,762.2070313,-381.3476563,-490.7226563
11.0200,754.8828125,-391.1132813,-472.1679688
11.0250,757.3242188,-388.671875,-471.1914063
11.0300,758.3007813,-386.71875,-482.421875
11.0350,756.8359375,-396.484375,-484.375
11.0400,774.4140625,-389.6484375,-493.6523438
11.0450,788.5742188,-393.5546875,-499.5117188
11.0500,799.8046875,-389.6484375,-492.6757813
11.0550,806.1523438,-407.7148438,-500.9765625
11.0600,812.5,-404.296875,-516.6015625
11.0650,823.2421875,-390.1367188,-516.6015625
11.0700,801.7578125,-382.3242188,-523.9257813
11.0750,800.2929688,-363.28125,-512.2070313
11.0800,788.0859375,-352.0507813,-477.0507813
11.0850,780.7617188,-349.609375,-477.5390625
11.0900,775.8789063,-342.7734375,-473.1445313
11.0950,778.3203125,-357.421875,-477.5390625
11.1000,782.2265625,-372.5585938,-473.6328125
11.1050,783.203125,-380.859375,-465.8203125
11.1100,786.6210938,-384.2773438,-438.9648438
11.1150,796.875,-380.859375,-487.7929688
11.1200,798.3398438,-384.765625,-472.1679688
11.1250,814.9414063,-382.3242188,-480.9570313
11.1300,815.4296875,-384.2773438,-485.3515625
11.1350,819.8242188,-383.7890625,-474.1210938
11.1400,810.546875,-373.046875,-497.5585938
11.1450,805.6640625,-354.9804688,-477.0507813
11.1500,810.0585938,-337.890625,-464.3554688
11.1550,804.6875,-346.1914063,-465.8203125
11.1600,802.2460938,-350.0976563,-461.4257813
11.1650,796.3867188,-354.0039063,-463.8671875
11.1700,792.4804688,-347.65625,-455.5664063
11.1750,796.875,-345.2148438,-452.1484375
11.1800,810.0585938,-338.8671875,-452.6367188
11.1850,812.0117188,-361.8164063,-458.0078125
11.1900,828.6132813,-365.7226563,-451.6601563
11.1950,839.84375,-375,-467.7734375
11.2000,852.0507813,-370.6054688,-473.1445313
11.2050,854.4921875,-369.6289063,-471.6796875
11.2100,835.9375,-380.3710938,-489.2578125
11.2150,824.7070313,-388.1835938,-480.9570313
11.2200,806.640625,-380.3710938,-467.2851563
11.2250,814.453125,-362.7929688,-453.125
11.2300,807.1289063,-356.9335938,-451.6601563
11.2350,807.1289063,-352.0507813,-442.8710938
11.2400,797.8515625,-347.1679688,-433.59375
11.2450,791.9921875,-335.9375,-428.7109375
11.2500,796.3867188,-333.0078125,-427.734375
11.2550,807.6171875,-328.125,-421.3867188
11.2600,816.40625,-328.6132813,-441.8945313
11.2650,835.4492188,-326.171875,-457.5195313
11.2700,842.7734375,-334.4726563,-459.9609375
11.2750,856.4453125,-332.5195313,-467.7734375
11.2800,848.1445313,-329.5898438,-457.03125
11.2850,845.703125,-332.03125,-482.421875
11.2900,829.5898438,-333.0078125,-483.8867188
11.2950,823.2421875,-333.984375,-500
11.3000,823.2421875,-341.796875,-495.6054688
11.3050,821.2890625,-351.5625,-483.3984375
11.3100,821.2890625,-353.515625,-467.2851563
11.3150,817.3828125,-350.5859375,-461.9140625
11.3200,810.546875,-331.5429688,-436.5234375
11.3250,806.1523438,-313.4765625,-427.2460938
11.3300,801.7578125,-302.2460938,-428.7109375
11.3350,806.1523438,-306.1523438,-417.96875
11.3400,832.03125,-298.828125,-429.1992188
11.3450,836.4257813,-306.1523438,-436.5234375
11.3500,846.6796875,-318.8476563,-454.1015625
11.3550,867.1875,-311.5234375,-468.2617188
11.3600,864.7460938,-319.3359375,-469.2382813
11.3650,858.3984375,-332.03125,-481.9335938
11.3700,854.9804688,-339.3554688,-477.0507813
11.3750,845.703125,-351.5625,-461.4257813
11.3800,847.1679688,-345.703125,-451.6601563
11.3850,837.4023438,-352.0507813,-439.453125
11.3900,822.7539063,-356.9335938,-442.8710938
11.3950,819.8242188,-356.4453125,-424.3164063
11.4000,818.359375,-330.5664063,-428.7109375
11.4050,817.3828125,-321.2890625,-428.7109375
11.4100,816.8945313,-312.9882813,-420.4101563
11.4150,826.6601563,-288.0859375,-410.6445313
11.4200,824.7070313,-272.9492188,-417.4804688
11.4250,830.078125,-265.625,-428.2226563
11.4300,835.4492188,-265.625,-433.1054688
11.4350,845.2148438,-272.4609375,-432.6171875
11.4400,849.1210938,-279.7851563,-445.8007813
11.4450,854.4921875,-287.109375,-455.5664063
11.4500,849.609375,-301.2695313,-451.6601563
11.4550,839.84375,-318.359375,-454.1015625
11.4600,831.0546875,-327.1484375,-455.078125
11.4650,826.6601563,-332.03125,-426.7578125
11.4700,823.2421875,-327.6367188,-413.5742188
11.4750,826.171875,-326.171875,-383.7890625
11.4800,833.984375,-316.40625,-392.0898438
11.4850,847.1679688,-312.0117188,-390.625
11.4900,851.0742188,-315.9179688,-394.0429688
11.4950,868.6523438,-307.1289063,-410.6445313
11.5000,882.3242188,-294.921875,-428.7109375
11.5050,897.9492188,-291.9921875,-437.0117188
11.5100,896.9726563,-297.8515625,-450.1953125
11.5150,898.9257813,-305.6640625,-466.796875
11.5200,883.3007813,-319.8242188,-466.796875
11.5250,861.8164063,-323.7304688,-440.4296875
11.5300,840.3320313,-305.6640625,-424.8046875
11.5350,824.21875,-295.8984375,-424.8046875
11.5400,822.265625,-283.203125,-409.6679688
11.5450,831.0546875,-278.3203125,-395.5078125
11.5500,835.9375,-270.9960938,-371.09375
11.5550,841.796875,-254.3945313,-368.6523438
11.5600,849.609375,-245.1171875,-355.9570313
11.5650,870.6054688,-238.7695313,-361.8164063
11.5700,895.0195313,-249.0234375,-389.6484375
11.5750,909.6679688,-263.671875,-406.7382813
11.5800,913.5742188,-273.9257813,-426.2695313
11.5850,906.25,-274.9023438,-446.2890625
11.5900,898.4375,-278.8085938,-458.4960938
11.5950,886.71875,-279.7851563,-462.4023438
11.6000,861.328125,-290.5273438,-462.890625
11.6050,834.9609375,-300.2929688,-434.5703125
11.6100,820.8007813,-305.6640625,-428.2226563
11.6150,824.21875,-296.875,-393.5546875
11.6200,837.890625,-276.8554688,-371.09375
11.6250,853.515625,-258.7890625,-363.7695313
11.6300,867.6757813,-246.5820313,-360.8398438
11.6350,885.7421875,-237.3046875,-355.9570313
11.6400,894.0429688,-224.609375,-358.8867188
11.6450,897.9492188,-216.3085938,-359.8632813
11.6500,900.8789063,-208.4960938,-380.3710938
11.6550,903.3203125,-217.2851563,-395.5078125
11.6600,900.8789063,-221.1914063,-415.5273438
11.6650,913.0859375,-233.3984375,-424.8046875
11.6700,892.578125,-246.5820313,-433.59375
11.6750,876.953125,-259.2773438,-434.0820313
11.6800,868.6523438,-270.9960938,-444.3359375
11.6850,863.28125,-281.7382813,-430.1757813
11.6900,864.2578125,-291.5039063,-429.1992188
11.6950,863.28125,-302.734375,-405.2734375
11.7000,875,-295.8984375,-398.4375
11.7050,871.09375,-300.78125,-386.2304688
11.7100,881.3476563,-281.25,-384.765625
11.7150,892.578125,-269.53125,-369.6289063
11.7200,901.3671875,-258.7890625,-383.7890625
11.7250,909.1796875,-260.2539063,-386.71875
11.7300,906.7382813,-259.765625,-401.3671875
11.7350,901.8554688,-259.765625,-424.3164063
11.7400,896.9726563,-253.90625,-430.1757813
11.7450,893.0664063,-252.9296875,-434.5703125
11.7500,875.4882813,-240.7226563,-425.78125
11.7550,864.7460938,-231.9335938,-421.3867188
11.7600,849.1210938,-208.4960938,-421.3867188
11.7650,853.0273438,-196.2890625,-404.296875
11.7700,873.046875,-189.9414063,-379.3945313
11.7750,885.2539063,-201.6601563,-382.8125
11.7800,896.484375,-194.3359375,-379.3945313
11.7850,901.3671875,-193.359375,-378.90625
11.7900,892.578125,-206.0546875,-378.90625
11.7950,902.8320313,-208.984375,-387.2070313
11.8000,918.4570313,-211.9140625,-387.6953125
11.8050,919.921875,-224.609375,-411.1328125
11.8100,900.390625,-250.4882813,-411.6210938
11.8150,911.6210938,-238.7695313,-421.875
11.8200,899.4140625,-241.6992188,-398.4375
11.8250,895.5078125,-239.7460938,-392.0898438
11.8300,886.71875,-239.7460938,-372.5585938
11.8350,883.3007813,-217.7734375,-361.328125
11.8400,875,-210.4492188,-343.2617188
11.8450,876.953125,-203.125,-322.7539063
11.8500,900.8789063,-190.9179688,-331.5429688
11.8550,909.1796875,-203.125,-333.4960938
11.8600,924.8046875,-208.0078125,-335.9375
11.8650,929.1992188,-223.6328125,-345.2148438
11.8700,937.9882813,-231.9335938,-357.421875
11.8750,938.4765625,-237.7929688,-376.953125
11.8800,933.59375,-237.3046875,-392.0898438
11.8850,930.6640625,-235.3515625,-396.9726563
11.8900,930.6640625,-226.0742188,-413.5742188
11.8950,938.9648438,-214.3554688,-411.6210938
11.9000,915.0390625,-210.4492188,-387.2070313
11.9050,907.2265625,-197.7539063,-381.8359375
11.9100,897.9492188,-184.5703125,-378.4179688
11.9150,901.8554688,-172.8515625,-380.3710938
11.9200,900.390625,-173.3398438,-370.1171875
11.9250,904.296875,-170.8984375,-381.3476563
11.9300,897.9492188,-166.015625,-364.7460938
11.9350,892.578125,-171.875,-384.765625
11.9400,894.53125,-181.1523438,-386.71875
11.9450,906.7382813,-187.5,-384.2773438
11.9500,908.6914063,-188.9648438,-390.1367188
11.9550,913.5742188,-202.6367188,-407.7148438
11.9600,900.390625,-215.3320313,-411.1328125
11.9650,900.390625,-214.84375,-407.2265625
11.9700,896.484375,-218.75,-406.25
11.9750,904.296875,-217.2851563,-403.8085938
11.9800,900.8789063,-210.4492188,-404.7851563
11.9850,894.0429688,-205.5664063,-400.390625
11.9900,888.671875,-211.4257813,-399.9023438
11.9950,888.1835938,-207.03125,-399.4140625
12.0000,882.8125,-205.5664063,-396.484375
12.0050,887.2070313,-190.9179688,-378.4179688
12.0100,892.0898438,-185.546875,-364.7460938
12.0150,897.9492188,-183.59375,-360.8398438
12.0200,898.4375,-186.0351563,-360.8398438
12.0250,905.2734375,-185.0585938,-350.5859375
12.0300,899.4140625,-186.5234375,-361.8164063
12.0350,907.2265625,-176.7578125,-375.4882813
12.0400,920.4101563,-168.4570313,-359.8632813
12.0450,928.7109375,-175.78125,-361.8164063
12.0500,934.5703125,-185.546875,-361.8164063
12.0550,930.6640625,-188.4765625,-375.4882813
12.0600,929.1992188,-188.4765625,-406.7382813
12.0650,918.4570313,-187.9882813,-417.96875
12.0700,913.5742188,-190.4296875,-419.4335938
12.0750,916.9921875,-180.6640625,-421.875
12.0800,892.0898438,-190.4296875,-434.0820313
12.0850,892.578125,-187.0117188,-428.7109375
12.0900,886.2304688,-184.5703125,-413.0859375
12.0950,895.5078125,-179.6875,-397.4609375
12.1000,882.8125,-178.7109375,-389.6484375
12.1050,885.7421875,-174.3164063,-371.09375
12.1100,901.8554688,-166.9921875,-341.796875
12.1150,918.9453125,-163.0859375,-319.8242188
12.1200,928.7109375,-166.9921875,-313.4765625
12.1250,930.6640625,-182.6171875,-322.265625
12.1300,928.2226563,-181.640625,-337.4023438
12.1350,927.2460938,-186.5234375,-357.9101563
12.1400,928.2226563,-192.8710938,-372.5585938
12.1450,919.921875,-207.03125,-383.7890625
12.1500,919.4335938,-193.359375,-411.6210938
12.1550,902.8320313,-203.125,-426.7578125
12.1600,891.6015625,-187.0117188,-433.59375
12.1650,885.2539063,-186.5234375,-437.5
12.1700,883.3007813,-178.2226563,-433.1054688
12.1750,880.3710938,-181.1523438,-418.9453125
12.1800,884.2773438,-168.4570313,-408.6914063
12.1850,892.578125,-167.96875,-400.390625
12.1900,895.0195313,-155.2734375,-380.859375
12.1950,897.4609375,-146.484375,-378.90625
12.2000,901.8554688,-142.0898438,-366.6992188
12.2050,909.1796875,-145.9960938,-381.8359375
12.2100,912.109375,-155.7617188,-369.6289063
12.2150,916.9921875,-156.25,-373.5351563
12.2200,909.6679688,-152.8320313,-392.578125
12.2250,903.3203125,-154.296875,-380.859375
12.2300,907.2265625,-157.7148438,-365.7226563
12.2350,915.0390625,-164.5507813,-374.0234375
12.2400,916.5039063,-170.4101563,-390.625
12.2450,927.734375,-173.3398438,-405.7617188
12.2500,916.5039063,-183.59375,-416.9921875
12.2550,919.4335938,-173.828125,-427.2460938
12.2600,915.0390625,-168.9453125,-411.1328125
12.2650,913.0859375,-165.5273438,-406.7382813
12.2700,911.1328125,-156.7382813,-411.1328125
12.2750,910.6445313,-153.8085938,-423.3398438
12.2800,909.1796875,-138.671875,-416.015625
12.2850,905.2734375,-141.1132813,-410.6445313
12.2900,908.6914063,-134.765625,-405.2734375
12.2950,905.7617188,-145.5078125,-407.2265625
12.3000,907.2265625,-147.4609375,-391.6015625
12.3050,909.6679688,-138.671875,-369.140625
12.3100,913.0859375,-124.0234375,-355.9570313
12.3150,929.6875,-120.1171875,-332.5195313
12.3200,933.1054688,-141.1132813,-324.7070313
12.3250,947.265625,-151.3671875,-307.6171875
12.3300,948.2421875,-155.2734375,-325.1953125
12.3350,952.1484375,-165.5273438,-335.4492188
12.3400,952.1484375,-163.0859375,-338.3789063
12.3450,946.7773438,-173.828125,-354.4921875
12.3500,943.8476563,-175.78125,-345.703125
12.3550,947.265625,-165.0390625,-359.375
12.3600,938.4765625,-164.5507813,-371.5820313
12.3650,946.2890625,-151.8554688,-380.859375
12.3700,944.3359375,-143.5546875,-394.53125
12.3750,939.9414063,-133.7890625,-375.9765625
12.3800,924.8046875,-118.6523438,-379.8828125
12.3850,920.8984375,-108.3984375,-359.8632813
12.3900,918.9453125,-101.0742188,-363.7695313
12.3950,922.3632813,-92.7734375,-346.1914063
12.4000,921.3867188,-90.8203125,-336.4257813
12.4050,923.828125,-87.890625,-336.9140625
12.4100,927.2460938,-87.890625,-347.1679688
12.4150,932.6171875,-92.28515625,-335.9375
12.4200,936.0351563,-89.84375,-322.265625
12.4250,939.453125,-99.12109375,-306.640625
12.4300,946.2890625,-91.30859375,-311.0351563
12.4350,952.1484375,-99.609375,-309.0820313
12.4400,961.9140625,-99.609375,-299.3164063
12.4450,956.5429688,-116.6992188,-294.921875
12.4500,963.3789063,-112.7929688,-294.4335938
12.4550,961.4257813,-119.140625,-298.828125
12.4600,960.9375,-113.7695313,-300.78125
12.4650,953.125,-116.2109375,-312.0117188
12.4700,949.7070313,-118.6523438,-310.0585938
12.4750,940.4296875,-125,-308.1054688
12.4800,938.9648438,-113.28125,-322.7539063
12.4850,928.2226563,-107.9101563,-320.8007813
12.4900,927.2460938,-103.0273438,-341.796875
12.4950,925.2929688,-96.6796875,-341.3085938
12.5000,918.9453125,-88.37890625,-335.4492188
12.5050,921.875,-91.796875,-358.3984375
12.5100,924.3164063,-93.75,-363.28125
12.5150,922.3632813,-96.6796875,-359.375
12.5200,922.8515625,-94.23828125,-356.9335938
12.5250,929.1992188,-84.47265625,-354.9804688
12.5300,922.8515625,-88.37890625,-335.9375
12.5350,935.546875,-80.56640625,-324.21875
12.5400,933.1054688,-79.58984375,-349.609375
12.5450,942.3828125,-69.3359375,-330.5664063
12.5500,938.4765625,-76.171875,-342.7734375
12.5550,940.9179688,-73.2421875,-344.2382813
12.5600,932.1289063,-79.1015625,-346.6796875
12.5650,931.640625,-77.1484375,-344.2382813
12.5700,928.2226563,-74.21875,-350.5859375
12.5750,937.9882813,-70.3125,-367.1875
12.5800,927.734375,-83.0078125,-351.0742188
12.5850,936.0351563,-82.51953125,-364.2578125
12.5900,932.6171875,-88.37890625,-350.0976563
12.5950,933.59375,-91.30859375,-360.3515625
12.6000,924.8046875,-99.12109375,-356.4453125
12.6050,929.1992188,-110.8398438,-365.234375
12.6100,934.0820313,-108.3984375,-370.1171875
12.6150,938.9648438,-95.703125,-351.0742188
12.6200,959.4726563,-98.6328125,-348.1445313
12.6250,935.546875,-111.8164063,-374.0234375
12.6300,952.6367188,-102.0507813,-382.3242188
12.6350,961.9140625,-95.21484375,-353.515625
12.6400,953.6132813,-95.21484375,-358.3984375
12.6450,946.7773438,-94.7265625,-336.4257813
12.6500,943.8476563,-91.796875,-330.078125
12.6550,943.8476563,-85.44921875,-310.546875
12.6600,939.9414063,-76.66015625,-324.7070313
12.6650,939.9414063,-68.84765625,-333.0078125
12.6700,949.21875,-60.05859375,-335.4492188
12.6750,942.3828125,-57.6171875,-340.3320313
12.6800,941.40625,-59.5703125,-335.9375
12.6850,956.0546875,-51.7578125,-352.0507813
12.6900,953.125,-55.6640625,-345.703125
12.6950,961.4257813,-56.15234375,-341.796875
12.7000,969.7265625,-56.15234375,-343.2617188
12.7050,965.3320313,-66.89453125,-340.8203125
12.7100,987.7929688,-64.94140625,-333.984375
12.7150,974.609375,-73.2421875,-334.4726563
12.7200,981.9335938,-71.2890625,-321.2890625
12.7250,983.3984375,-59.08203125,-321.2890625
12.7300,966.796875,-65.4296875,-310.0585938
12.7350,965.8203125,-53.22265625,-299.8046875
12.7400,955.078125,-49.31640625,-296.875
12.7450,959.9609375,-41.015625,-305.6640625
12.7500,958.0078125,-37.109375,-309.5703125
12.7550,953.125,-41.50390625,-314.9414063
12.7600,961.4257813,-35.15625,-305.6640625
12.7650,944.3359375,-50.29296875,-301.2695313
12.7700,946.7773438,-45.8984375,-298.3398438
12.7750,946.7773438,-59.5703125,-300.2929688
12.7800,948.2421875,-59.5703125,-290.5273438
12.7850,940.4296875,-64.453125,-291.5039063
12.7900,952.1484375,-48.33984375,-285.6445313
12.7950,957.5195313,-41.50390625,-275.390625
12.8000,950.6835938,-35.64453125,-265.1367188
12.8050,957.03125,-26.3671875,-281.25
12.8100,957.03125,-21.484375,-266.6015625
12.8150,957.5195313,-22.94921875,-286.6210938
12.8200,939.453125,-22.94921875,-311.0351563
12.8250,927.734375,-7.8125,-306.640625
12.8300,912.109375,-14.6484375,-294.921875
12.8350,917.96875,-22.4609375,-309.0820313
12.8400,941.8945313,-17.08984375,-305.6640625
12.8450,953.125,-36.62109375,-321.7773438
12.8500,970.703125,-45.41015625,-326.6601563
12.8550,970.2148438,-89.35546875,-336.4257813
12.8600,964.84375,-86.9140625,-328.6132813
12.8650,959.9609375,-80.56640625,-319.3359375
12.8700,943.359375,-74.70703125,-321.2890625
12.8750,954.5898438,-48.33984375,-315.9179688
12.8800,939.453125,-46.38671875,-309.5703125
12.8850,937.5,-43.45703125,-304.6875
12.8900,942.8710938,-25.87890625,-289.0625
12.8950,929.6875,-24.90234375,-270.5078125
12.9000,913.5742188,-28.80859375,-258.3007813
12.9050,917.4804688,-25.390625,-272.9492188
12.9100,916.9921875,-27.83203125,-263.1835938
12.9150,931.1523438,-25.87890625,-284.1796875
12.9200,937.9882813,-20.01953125,-301.2695313
12.9250,923.828125,-45.41015625,-286.1328125
12.9300,929.6875,-68.359375,-280.2734375
12.9350,940.4296875,-80.56640625,-295.4101563
12.9400,930.6640625,-97.16796875,-306.1523438
12.9450,938.4765625,-98.14453125,-339.84375
12.9500,939.453125,-86.9140625,-356.4453125
12.9550,924.8046875,-79.1015625,-348.1445313
12.9600,915.0390625,-41.015625,-335.9375
12.9650,910.6445313,-18.5546875,-338.3789063
12.9700,914.0625,1.46484375,-341.796875
12.9750,930.1757813,22.94921875,-323.7304688
12.9800,929.6875,8.7890625,-323.7304688
12.9850,931.640625,-20.5078125,-316.40625
12.9900,944.3359375,-45.41015625,-277.8320313
12.9950,950.6835938,-66.40625,-270.5078125
13.0000,952.6367188,-76.66015625,-249.0234375
13.0050,961.4257813,-75.1953125,-259.2773438
13.0100,966.796875,-58.10546875,-255.859375
13.0150,975.0976563,-43.9453125,-255.3710938
13.0200,972.1679688,-43.45703125,-229.9804688
13.0250,993.6523438,-23.92578125,-208.0078125
13.0300,999.0234375,-13.671875,-224.609375
13.0350,998.5351563,-12.20703125,-201.6601563
13.0400,991.2109375,-14.6484375,-196.2890625
13.0450,975.5859375,-11.71875,-196.7773438
13.0500,973.6328125,-28.80859375,-205.078125
13.0550,989.7460938,-45.8984375,-192.8710938
13.0600,995.6054688,-46.875,-186.0351563
13.0650,990.234375,-39.0625,-217.2851563
13.0700,976.5625,-43.45703125,-208.984375
13.0750,962.4023438,-55.17578125,-198.7304688
13.0800,976.0742188,-37.59765625,-205.5664063
13.0850,994.6289063,-22.94921875,-205.5664063
13.0900,996.5820313,-12.6953125,-214.84375
13.0950,999.0234375,-1.46484375,-239.2578125
13.1000,979.4921875,-22.94921875,-232.421875
13.1050,958.984375,-31.25,-232.9101563
13.1100,958.0078125,-26.85546875,-245.1171875
13.1150,947.265625,-28.80859375,-258.7890625
13.1200,950.6835938,-37.109375,-245.6054688
13.1250,948.2421875,-41.9921875,-255.859375
13.1300,946.7773438,-49.8046875,-270.9960938
13.1350,941.40625,-58.59375,-262.2070313
13.1400,934.5703125,-61.03515625,-268.0664063
13.1450,941.8945313,-62.01171875,-276.8554688
13.1500,955.5664063,-81.54296875,-269.53125
13.1550,983.3984375,-81.0546875,-279.296875
13.1600,976.0742188,-68.84765625,-279.7851563
13.1650,981.4453125,-39.0625,-258.3007813
13.1700,983.8867188,-31.25,-247.5585938
13.1750,999.0234375,-39.0625,-248.5351563
13.1800,1005.371094,-47.8515625,-218.75
13.1850,1007.8125,-39.0625,-220.703125
13.1900,994.140625,-42.48046875,-208.4960938
13.1950,993.1640625,-34.66796875,-196.7773438
13.2000,977.0507813,-36.62109375,-205.078125
13.2050,968.2617188,-32.2265625,-193.359375
13.2100,969.2382813,-24.4140625,-200.1953125
13.2150,969.7265625,-26.3671875,-206.0546875
13.2200,962.890625,-31.25,-193.359375
13.2250,973.6328125,-31.73828125,-202.1484375
13.2300,964.3554688,-43.9453125,-194.8242188
13.2350,982.421875,-46.38671875,-185.546875
13.2400,991.2109375,-37.59765625,-167.4804688
13.2450,996.5820313,-50.29296875,-177.2460938
13.2500,996.5820313,-47.36328125,-177.2460938
13.2550,1000.488281,-36.1328125,-183.59375
13.2600,1002.441406,-25.390625,-189.453125
13.2650,1006.347656,-13.18359375,-214.3554688
13.2700,1010.742188,-19.04296875,-229.4921875
13.2750,1016.113281,-20.01953125,-244.140625
13.2800,1013.671875,-22.94921875,-264.6484375
13.2850,1008.789063,-21.97265625,-272.9492188
13.2900,998.046875,-15.625,-289.5507813
13.2950,982.421875,-15.13671875,-294.4335938
13.3000,964.3554688,-10.25390625,-298.3398438
13.3050,953.6132813,-4.39453125,-284.1796875
13.3100,948.2421875,2.9296875,-308.1054688
13.3150,947.7539063,7.8125,-316.40625
13.3200,939.9414063,12.20703125,-338.3789063
13.3250,937.9882813,0,-346.1914063
13.3300,937.0117188,-10.25390625,-339.84375
13.3350,936.5234375,-14.16015625,-338.8671875
13.3400,944.8242188,-13.18359375,-331.0546875
13.3450,955.5664063,-22.4609375,-314.453125
13.3500,971.1914063,-19.53125,-313.4765625
13.3550,970.703125,-37.109375,-296.3867188
13.3600,983.8867188,-31.73828125,-297.3632813
13.3650,987.3046875,-31.25,-290.5273438
13.3700,985.8398438,-25.87890625,-291.015625
13.3750,990.7226563,-18.5546875,-292.4804688
13.3800,981.4453125,-10.25390625,-294.921875
13.3850,978.515625,-4.39453125,-300.78125
13.3900,967.7734375,-10.7421875,-304.6875
13.3950,961.4257813,-13.671875,-308.1054688
13.4000,942.8710938,-25.87890625,-307.6171875
13.4050,935.546875,-32.2265625,-318.359375
13.4100,936.5234375,-41.015625,-313.4765625
13.4150,934.0820313,-51.7578125,-314.453125
13.4200,936.0351563,-41.015625,-297.3632813
13.4250,940.4296875,-38.57421875,-289.5507813
13.4300,938.9648438,-32.71484375,-284.6679688
13.4350,951.6601563,-21.97265625,-287.109375
13.4400,960.4492188,-13.18359375,-276.3671875
13.4450,960.9375,-11.23046875,-280.7617188
13.4500,961.4257813,-23.4375,-270.5078125
13.4550,965.8203125,-27.83203125,-280.7617188
13.4600,957.03125,-38.57421875,-282.7148438
13.4650,964.84375,-35.15625,-276.3671875
13.4700,975.5859375,-35.15625,-292.4804688
13.4750,982.421875,-38.0859375,-287.109375
13.4800,990.7226563,-31.73828125,-291.9921875
13.4850,993.1640625,-41.50390625,-299.3164063
13.4900,990.7226563,-43.45703125,-290.0390625
13.4950,978.0273438,-54.6875,-291.5039063
13.5000,968.2617188,-53.7109375,-289.5507813
13.5050,964.84375,-51.26953125,-297.3632813
13.5100,976.5625,-39.55078125,-295.8984375
13.5150,975.0976563,-36.1328125,-293.9453125
13.5200,966.796875,-27.83203125,-284.1796875
13.5250,954.5898438,-35.15625,-287.5976563
13.5300,954.1015625,-26.3671875,-280.2734375
13.5350,951.171875,-18.5546875,-268.5546875
13.5400,948.7304688,-22.94921875,-280.2734375
13.5450,956.0546875,-29.78515625,-266.1132813
13.5500,962.890625,-36.62109375,-262.6953125
13.5550,964.84375,-40.52734375,-280.7617188
13.5600,963.8671875,-40.52734375,-275.390625
13.5650,965.8203125,-37.59765625,-279.7851563
13.5700,954.5898438,-43.9453125,-262.2070313
13.5750,971.6796875,-42.96875,-267.578125
13.5800,962.4023438,-48.33984375,-259.2773438
13.5850,971.1914063,-46.38671875,-275.8789063
13.5900,972.1679688,-38.57421875,-270.5078125
13.5950,967.2851563,-40.0390625,-272.4609375
13.6000,960.4492188,-31.73828125,-281.7382813
13.6050,959.4726563,-29.296875,-265.625
13.6100,961.9140625,-30.2734375,-278.8085938
13.6150,949.7070313,-34.1796875,-282.7148438
13.6200,947.265625,-35.15625,-282.2265625
13.6250,946.7773438,-34.66796875,-283.6914063
13.6300,943.8476563,-30.76171875,-300.2929688
13.6350,953.6132813,-35.64453125,-299.8046875
13.6400,951.171875,-46.875,-294.921875
13.6450,959.4726563,-45.41015625,-304.1992188
13.6500,958.0078125,-59.08203125,-295.8984375
13.6550,960.9375,-56.640625,-306.640625
13.6600,960.4492188,-55.17578125,-295.8984375
13.6650,968.2617188,-49.8046875,-288.5742188
13.6700,970.2148438,-50.78125,-290.0390625
13.6750,960.4492188,-64.453125,-281.25
13.6800,968.75,-50.78125,-285.6445313
13.6850,954.5898438,-63.4765625,-281.7382813
13.6900,956.5429688,-48.828125,-288.5742188
13.6950,959.4726563,-45.8984375,-293.4570313
13.7000,938.9648438,-47.8515625,-297.8515625
13.7050,951.171875,-40.52734375,-292.4804688
13.7100,945.8007813,-40.52734375,-290.0390625
13.7150,944.8242188,-33.69140625,-293.4570313
13.7200,944.3359375,-30.76171875,-291.5039063
