type,name,time_units,begin_time,frequency,count,units
signal_4d,"Noraxon MyoMotion-Segments-Upper arm RT-Orientation","s",0.0000,200,4984,""

time,x,y,z,w
0.0000,0.01912242914,-0.6538815666,-0.7350082548,0.1784267214
0.0050,0.01918399996,-0.6539119513,-0.7349623462,0.1784978538
0.0100,0.01924557052,-0.6539423282,-0.7349164288,0.1785689842
0.0150,0.01930714082,-0.6539726974,-0.7348705027,0.1786401123
0.0200,0.01937544742,-0.6540066172,-0.7348203045,0.1787150155
0.0250,0.01945041468,-0.6540441226,-0.7347660283,0.1787927593
0.0300,0.01953186876,-0.6540852173,-0.7347079332,0.1788722661
0.0350,0.01961954221,-0.6541298843,-0.7346463249,0.1789523548
0.0400,0.01971307925,-0.6541780948,-0.7345815365,0.1790317878
0.0450,0.01981204997,-0.6542298128,-0.7345139119,0.1791093181
0.0500,0.01991597046,-0.6542849965,-0.7344437964,0.1791837254
0.0550,0.02002431733,-0.6543435937,-0.7343715306,0.1792538514
0.0600,0.02013653923,-0.6544055387,-0.734297444,0.1793186395
0.0650,0.02025207517,-0.6544707485,-0.734221849,0.1793771706
0.0700,0.02037037426,-0.6545391151,-0.7341450415,0.179428684
0.0750,0.0204909113,-0.6546104962,-0.7340673069,0.1794725878
0.0800,0.02061320666,-0.6546847126,-0.7339889185,0.1795084686
0.0850,0.02073684716,-0.6547615479,-0.7339101346,0.1795361047
0.0900,0.02086149418,-0.6548407475,-0.7338311954,0.1795554793
0.0950,0.02098688176,-0.6549220145,-0.7337523244,0.1795667902
0.1000,0.02111281411,-0.6550050064,-0.7336737286,0.1795704614
0.1050,0.02123916378,-0.6550893301,-0.7335956002,0.179567154
0.1100,0.02136586511,-0.6551745385,-0.7335181198,0.1795577674
0.1150,0.0214928949,-0.655260129,-0.7334414606,0.1795434285
0.1200,0.02162024593,-0.6553455447,-0.7333657926,0.1795254752
0.1250,0.02174790739,-0.6554301781,-0.7332912846,0.1795054376
0.1300,0.0218758488,-0.655513376,-0.7332181065,0.1794850116
0.1350,0.02200399937,-0.6555944465,-0.7331464332,0.1794660223
0.1400,0.02213222973,-0.6556726706,-0.7330764468,0.1794503739
0.1450,0.02226034312,-0.6557473195,-0.7330083346,0.1794399941
0.1500,0.02238807354,-0.6558176758,-0.7329422859,0.1794367739
0.1550,0.02259261818,-0.6559248414,-0.7328171665,0.1795304334
0.1600,0.02279199263,-0.656026089,-0.7326950902,0.1796335169
0.1650,0.02298568543,-0.656120422,-0.7325768256,0.1797466126
0.1700,0.02317311026,-0.6562077144,-0.7324627614,0.1798686901
0.1750,0.0233524819,-0.656288068,-0.732352617,0.1800007713
0.1800,0.02352286337,-0.6563593735,-0.7322479435,0.1801443779
0.1850,0.02368378947,-0.6564221291,-0.7321486446,0.1802981662
0.1900,0.02383369267,-0.6564758347,-0.732055498,0.1804610246
0.1950,0.02397243704,-0.6565206445,-0.7319680311,0.1806343465
0.2000,0.02409889312,-0.6565562314,-0.7318870833,0.1808160822
0.2050,0.02421251743,-0.6565836435,-0.7318125469,0.1810029539
0.2100,0.02431172359,-0.6566024243,-0.7317449492,0.1811947181
0.2150,0.02439506308,-0.6566130385,-0.7316844007,0.1813894602
0.2200,0.02446324584,-0.6566166523,-0.7316305732,0.1815842114
0.2250,0.02451404685,-0.6566134014,-0.7315839875,0.1817767088
0.2300,0.02454542348,-0.6566052067,-0.7315437728,0.1819638239
0.2350,0.02456007149,-0.6565927828,-0.7315097238,0.1821434723
0.2400,0.02455728462,-0.6565760738,-0.7314828978,0.1823117367
0.2450,0.02453756719,-0.656557282,-0.7314613954,0.1824682721
0.2500,0.0245011258,-0.6565369641,-0.7314456015,0.1826095332
0.2550,0.02444830861,-0.6565163251,-0.731434671,0.1827345537
0.2600,0.02438162711,-0.6564946741,-0.731429039,0.1828437586
0.2650,0.02430230539,-0.6564738674,-0.7314274887,0.1829352021
0.2700,0.02421114229,-0.6564531163,-0.7314304732,0.1830098073
0.2750,0.02410962296,-0.6564332894,-0.7314371742,0.1830675363
0.2800,0.02399885218,-0.6564150012,-0.7314467563,0.1831093769
0.2850,0.02388160163,-0.6563971632,-0.7314598996,0.1831361476
0.2900,0.02375828914,-0.6563814167,-0.73147498,0.1831483911
0.2950,0.02363042556,-0.6563669141,-0.7314922054,0.183148111
0.3000,0.02349866971,-0.6563536882,-0.7315115384,0.1831352442
0.3050,0.02336475596,-0.6563410397,-0.7315334134,0.1831103299
0.3100,0.02323050822,-0.6563293843,-0.731557267,0.1830738864
0.3150,0.02309672752,-0.6563178669,-0.7315833792,0.1830277521
0.3200,0.02296323806,-0.6563069552,-0.7316111435,0.1829726891
0.3250,0.02283133714,-0.6562969951,-0.7316398331,0.1829101935
0.3300,0.02270125168,-0.6562871351,-0.731670362,0.1828396317
0.3350,0.02257407473,-0.6562778097,-0.7317019046,0.1827626068
0.3400,0.02244973312,-0.6562692493,-0.7317343166,0.1826788764
0.3450,0.02233048851,-0.6562619163,-0.7317666114,0.1825904516
0.3500,0.02221585658,-0.6562548509,-0.7317993183,0.1824987236
0.3550,0.02210725018,-0.6562494935,-0.7318312222,0.1824032181
0.3600,0.02200635602,-0.6562459772,-0.7318619021,0.1823049479
0.3650,0.02191211749,-0.6562458028,-0.7318893728,0.1822066174
0.3700,0.02182588659,-0.656247784,-0.7319148278,0.1821075549
0.3750,0.02174826061,-0.6562527237,-0.7319367212,0.1820110218
0.3800,0.0216812008,-0.6562612094,-0.7319543245,0.1819176116
0.3850,0.02162489797,-0.6562736838,-0.7319668262,0.1818289887
0.3900,0.02157775993,-0.6562890455,-0.7319748946,0.181746644
0.3950,0.02154201647,-0.6563083832,-0.7319775219,0.1816704575
0.4000,0.02151598743,-0.6563307285,-0.7319747559,0.181603948
0.4050,0.02150034921,-0.6563575008,-0.7319658476,0.1815449368
0.4100,0.02149285382,-0.6563889068,-0.7319500041,0.181496148
0.4150,0.02149205293,-0.6564237953,-0.7319289778,0.1814548539
0.4200,0.02149623885,-0.6564629054,-0.7319024241,0.1814199744
0.4250,0.02150243986,-0.6565061785,-0.7318703373,0.1813920947
0.4300,0.02150758716,-0.6565535266,-0.7318335936,0.1813683589
0.4350,0.02151005946,-0.656604375,-0.7317936512,0.1813451518
0.4400,0.02150768892,-0.6566592302,-0.7317501868,0.1813221959
0.4450,0.02149843571,-0.6567184451,-0.7317037375,0.1812962814
0.4500,0.02147893785,-0.6567815051,-0.7316558962,0.1812632321
0.4550,0.02144805961,-0.6568488543,-0.7316064536,0.181222406
0.4600,0.02140454186,-0.6569213674,-0.731555594,0.1811700181
0.4650,0.02134749607,-0.6569983664,-0.7315039964,0.1811058645
0.4700,0.02127702286,-0.6570804093,-0.7314516171,0.1810280524
0.4750,0.02119368371,-0.6571662865,-0.7313997057,0.180935818
0.4800,0.02109655055,-0.6572575929,-0.7313471734,0.1808278302
0.4850,0.0209871326,-0.6573533153,-0.7312945622,0.1807053469
0.4900,0.02086538835,-0.657453762,-0.7312416338,0.1805681573
0.4950,0.02073270494,-0.6575583126,-0.7311891518,0.1804152008
0.5000,0.02058975397,-0.6576675629,-0.7311361678,0.1802480036
0.5050,0.02043895574,-0.6577797774,-0.7310835584,0.1800689985
0.5100,0.02028148653,-0.6578964297,-0.7310301534,0.1798773577
0.5150,0.02011956682,-0.6580167053,-0.7309757676,0.1796765031
0.5200,0.01995444294,-0.6581401423,-0.7309205487,0.1794673362
0.5250,0.01978832361,-0.6582655231,-0.730864886,0.1792524525
0.5300,0.01962432635,-0.6583906862,-0.7308102348,0.1790334909
0.5350,0.01946288746,-0.6585161735,-0.7307557147,0.1788119983
0.5400,0.01930527644,-0.6586424588,-0.7307003103,0.1785902415
0.5450,0.01915304665,-0.6587675183,-0.7306455886,0.1783691159
0.5500,0.01900754059,-0.6588897886,-0.7305925069,0.1781503542
0.5550,0.01886991935,-0.6590098672,-0.7305400643,0.1779357623
0.5600,0.01873863512,-0.6591276496,-0.7304883849,0.1777254192
0.5650,0.0186160087,-0.6592422973,-0.730437884,0.177520521
0.5700,0.01850065842,-0.6593546328,-0.7303874509,0.1773227719
0.5750,0.01839210055,-0.6594638395,-0.7303381774,0.1771308039
0.5800,0.01829222487,-0.6595692971,-0.7302903148,0.1769457343
0.5850,0.01819875435,-0.6596727396,-0.7302421558,0.1767684245
0.5900,0.01811125132,-0.6597719073,-0.730196033,0.1765977529
0.5950,0.01802908679,-0.6598667964,-0.7301514972,0.1764356943
0.6000,0.01795250414,-0.659958309,-0.7301078006,0.176281983
0.6050,0.01788051332,-0.6600477195,-0.7300635,0.1761379606
0.6100,0.01781186421,-0.6601338402,-0.7300196998,0.1760036602
0.6150,0.01774764675,-0.6602180696,-0.7299750307,0.1758794364
0.6200,0.01768817786,-0.6603007163,-0.7299290852,0.1757658188
0.6250,0.01763155727,-0.6603811867,-0.7298825004,0.1756626086
0.6300,0.01757776138,-0.6604609193,-0.7298340263,0.1755696171
0.6350,0.01752610357,-0.6605395713,-0.7297837914,0.1754876869
0.6400,0.01747634327,-0.6606173185,-0.7297314568,0.1754176072
0.6450,0.01742572613,-0.6606954542,-0.7296767954,0.1753557386
0.6500,0.01737552361,-0.6607739444,-0.729619581,0.1753030306
0.6550,0.01732301126,-0.6608519317,-0.7295609093,0.1752584298
0.6600,0.01726921999,-0.6609306438,-0.7294999297,0.1752207486
0.6650,0.01721222134,-0.661008771,-0.7294385456,0.1751871919
0.6700,0.01715129915,-0.6610873233,-0.7293760625,0.1751569107
0.6750,0.01708595206,-0.6611659325,-0.7293133823,0.175127583
0.6800,0.01701530187,-0.6612440245,-0.7292513875,0.1750977823
0.6850,0.01693613298,-0.6613212838,-0.7291911562,0.1750645161
0.6900,0.01684894834,-0.6613993039,-0.7291317323,0.1750256855
0.6950,0.01675031628,-0.6614766441,-0.7290750841,0.17497885
0.7000,0.01664307779,-0.6615551222,-0.7290203825,0.1749202963
0.7050,0.0165245845,-0.6616330796,-0.7289693446,0.1748493658
0.7100,0.0163933584,-0.6617116403,-0.7289214087,0.1747642495
0.7150,0.01625160058,-0.6617910972,-0.7288762436,0.174664967
0.7200,0.01609765802,-0.6618715056,-0.7288340709,0.1745504872
0.7250,0.01593352366,-0.6619525861,-0.7287949454,0.1744213981
0.7300,0.01576146694,-0.6620348677,-0.7287584438,0.1742771953
0.7350,0.01558082151,-0.6621173485,-0.7287247302,0.1741209994
0.7400,0.01539524705,-0.6622001229,-0.7286938855,0.1739517315
0.7450,0.01520603688,-0.6622833885,-0.7286650714,0.1737719869
0.7500,0.01501410934,-0.6623667734,-0.7286379384,0.1735845293
0.7550,0.01482053312,-0.6624491514,-0.7286132775,0.1733902117
0.7600,0.01462744965,-0.6625302463,-0.7285907677,0.1731912344
0.7650,0.01443395864,-0.6626109294,-0.7285692316,0.1729892825
0.7700,0.01424167625,-0.6626914854,-0.7285478955,0.1727863819
0.7750,0.01405108815,-0.6627706055,-0.7285274541,0.1725845882
0.7800,0.013864075,-0.6628479243,-0.7285075775,0.1723865603
0.7850,0.0136803692,-0.6629234988,-0.7284881728,0.1721925212
0.7900,0.01350097852,-0.6629963868,-0.7284692785,0.1720058862
0.7950,0.01332566792,-0.6630679168,-0.7284491192,0.1718291155
0.8000,0.01315701458,-0.6631364828,-0.7284289482,0.171662942
0.8050,0.01299375655,-0.6632020799,-0.728408546,0.1715084652
0.8100,0.01283795363,-0.6632640613,-0.7283880259,0.1713676039
0.8150,0.01268892092,-0.6633227226,-0.7283673177,0.17123962
0.8200,0.01254778611,-0.6633779291,-0.7283459423,0.1711270423
0.8250,0.0124135417,-0.6634301473,-0.7283238808,0.1710282676
0.8300,0.01228662121,-0.6634806265,-0.7282998993,0.1709437155
0.8350,0.01216591335,-0.6635286774,-0.7282748103,0.1708727176
0.8400,0.0120522967,-0.6635738865,-0.728248875,0.1708157352
0.8450,0.01194317816,-0.663616701,-0.7282220934,0.170771243
0.8500,0.01183961806,-0.6636592077,-0.7281930983,0.170736906
0.8550,0.01174159092,-0.6637000405,-0.7281634191,0.1707115296
0.8600,0.01164970264,-0.6637400612,-0.7281327543,0.1706930215
0.8650,0.01156300628,-0.6637788132,-0.7281016958,0.1706807097
0.8700,0.01148110295,-0.6638168013,-0.7280707652,0.170670441
0.8750,0.01140449389,-0.6638533585,-0.7280405918,0.170662101
0.8800,0.01133060398,-0.6638894494,-0.728010375,0.1706555311
0.8850,0.01126037112,-0.6639247146,-0.7279810247,0.1706481911
0.8900,0.01119312088,-0.6639589668,-0.7279526998,0.1706401811
0.8950,0.01113072937,-0.6639933102,-0.7279248135,0.1706295892
0.9000,0.01106948938,-0.6640270324,-0.7278979742,0.170616839
0.9050,0.0110103237,-0.6640595489,-0.7278729996,0.1706006586
0.9100,0.01095325868,-0.6640905803,-0.7278499856,0.1705817272
0.9150,0.01089490362,-0.6641201411,-0.7278292848,0.1705587038
0.9200,0.01083755599,-0.6641473511,-0.7278115365,0.17053214
0.9250,0.01077909421,-0.6641729855,-0.7277959647,0.1705024641
0.9300,0.01072006066,-0.6641957145,-0.7277837614,0.1704697326
0.9350,0.01066058433,-0.6642157439,-0.7277746959,0.1704341207
0.9400,0.01059882963,-0.6642326237,-0.7277689197,0.1703968484
0.9450,0.01053655878,-0.6642457706,-0.7277665106,0.1703597466
0.9500,0.0104724893,-0.6642553911,-0.7277672729,0.1703229252
0.9550,0.0104078354,-0.6642620939,-0.7277704595,0.1702871275
0.9600,0.01034166345,-0.6642636998,-0.7277776752,0.1702540531
0.9650,0.01027554383,-0.6642606277,-0.7277880332,0.1702257631
0.9700,0.01020692034,-0.6642536536,-0.7278008792,0.1702021817
0.9750,0.01013559902,-0.664242181,-0.7278163835,0.1701849185
0.9800,0.01006237678,-0.6642259187,-0.7278348125,0.1701739205
0.9850,0.009988384017,-0.6642043251,-0.7278562693,0.1701707905
0.9900,0.009915184672,-0.6641770369,-0.727880881,0.1701763078
0.9950,0.009843759877,-0.6641448093,-0.727907712,0.1701914671
1.0000,0.009772938023,-0.6641070457,-0.7279373563,0.1702161182
1.0050,0.009702991896,-0.6640641815,-0.7279693216,0.1702506433
1.0100,0.009635192053,-0.6640148364,-0.7280051036,0.1702939497
1.0150,0.009567307345,-0.6639606318,-0.7280438613,0.1703434238
1.0200,0.00949910102,-0.6639011569,-0.728085841,0.1703996161
1.0250,0.009430568564,-0.6638372008,-0.7281310479,0.1704594154
1.0300,0.009360737003,-0.6637690963,-0.728179132,0.1705230636
1.0350,0.009288348044,-0.6636985492,-0.7282288741,0.1705891828
1.0400,0.009212284902,-0.6636263494,-0.7282791822,0.1706594121
1.0450,0.009131208396,-0.6635521834,-0.7283306361,0.1707325551
1.0500,0.009047595741,-0.6634777443,-0.7283817587,0.1708081889
1.0550,0.008960618491,-0.6634042243,-0.7284314732,0.1708863114
1.0600,0.008871700089,-0.663331702,-0.7284796299,0.1709671747
1.0650,0.008782080266,-0.6632610212,-0.7285256079,0.1710500846
1.0700,0.008692630884,-0.6631921788,-0.728569095,0.1711363376
1.0750,0.008604023551,-0.6631261899,-0.7286095381,0.1712243206
1.0800,0.008519104299,-0.6630639647,-0.728646381,0.1713127404
1.0850,0.008440297797,-0.6630064323,-0.7286782351,0.1714037975
1.0900,0.008371128749,-0.6629537563,-0.7287050375,0.1714969664
1.0950,0.008313138757,-0.662905497,-0.7287271677,0.1715922753
1.1000,0.008267816689,-0.6628636139,-0.7287425322,0.1716909851
1.1050,0.008238592397,-0.6628281322,-0.7287512624,0.1717922885
1.1100,0.008226180276,-0.6627989296,-0.728753528,0.1718959113
1.1150,0.008232147733,-0.6627763434,-0.7287491031,0.1720014392
1.1200,0.008255830165,-0.6627613473,-0.7287374856,0.1721072774
1.1250,0.008300797507,-0.6627534746,-0.7287190653,0.1722133924
1.1300,0.008364724928,-0.662752643,-0.7286945944,0.1723170151
1.1350,0.008449410399,-0.6627593895,-0.7286637546,0.1724173189
1.1400,0.008551755989,-0.6627746094,-0.7286264744,0.1725112908
1.1450,0.008674283945,-0.6627982753,-0.7285831078,0.1725973873
1.1500,0.008813973964,-0.6628294513,-0.728534348,0.1726763916
1.1550,0.008969154482,-0.6628692493,-0.7284797151,0.1727461065
1.1600,0.009137275319,-0.6629157442,-0.7284210282,0.1728063424
1.1650,0.009315676631,-0.6629710988,-0.7283570314,0.1728542022
1.1700,0.009502992173,-0.6630325659,-0.7282899016,0.1728910896
1.1750,0.009696804717,-0.6631023535,-0.7282176695,0.1729169356
1.1800,0.009895687157,-0.6631781574,-0.7281429888,0.1729294504
1.1850,0.01009815714,-0.6632594641,-0.7280655835,0.1729318264
1.1900,0.01030290391,-0.663345715,-0.7279860136,0.1729239042
1.1950,0.01050871535,-0.6634356338,-0.7279052408,0.1729065852
1.2000,0.01071554144,-0.6635284238,-0.7278237444,0.1728808984
1.2050,0.01092305573,-0.6636233447,-0.7277419456,0.1728479211
1.2100,0.0111300798,-0.6637197209,-0.7276603585,0.1728081481
1.2150,0.01133664436,-0.6638161383,-0.7275797396,0.17276382
1.2200,0.01154003547,-0.6639124886,-0.7275007498,0.1727127504
1.2250,0.01174065757,-0.6640081453,-0.7274236694,0.1726561472
1.2300,0.01193809128,-0.664102855,-0.7273488383,0.1725935903
1.2350,0.01212994972,-0.6641974789,-0.7272755869,0.1725247634
1.2400,0.01231892638,-0.6642891675,-0.7272065931,0.1724491723
1.2450,0.01250317294,-0.6643787024,-0.7271409542,0.1723677554
1.2500,0.01268140752,-0.6644652101,-0.7270799468,0.1722786041
1.2550,0.01285342411,-0.6645488423,-0.7270237287,0.1721804973
1.2600,0.01301644952,-0.664630015,-0.7269718112,0.1720741149
1.2650,0.01317143814,-0.6647086494,-0.7269250028,0.1719562875
1.2700,0.01331887597,-0.6647832318,-0.726884821,0.1718264217
1.2750,0.01345785625,-0.6648537641,-0.7268512662,0.1716845809
1.2800,0.0135891007,-0.6649207118,-0.7268238896,0.1715308046
1.2850,0.01371305015,-0.6649848681,-0.726802391,0.1713632452
1.2900,0.01382811485,-0.665044824,-0.7267876449,0.1711837742
1.2950,0.01393440235,-0.6651006561,-0.7267798938,0.1709910397
1.3000,0.01403365313,-0.6651514676,-0.7267794783,0.1707869188
1.3050,0.01412561289,-0.6651974682,-0.726785978,0.1705723821
1.3100,0.01421163761,-0.6652381176,-0.7267992729,0.1703499141
1.3150,0.01429266294,-0.6652728681,-0.7268191711,0.1701223773
1.3200,0.01437015854,-0.6653010223,-0.7268463144,0.1698896218
1.3250,0.01444195394,-0.6653224592,-0.7268800166,0.1696552291
1.3300,0.01450988178,-0.6653372728,-0.7269197494,0.1694209396
1.3350,0.01457411851,-0.6653440302,-0.7269663824,0.1691886383
1.3400,0.01463622278,-0.6653425464,-0.7270199318,0.1689588582
1.3450,0.01469602893,-0.6653331849,-0.7270798529,0.1687325318
1.3500,0.01475267488,-0.6653152321,-0.7271465108,0.1685109856
1.3550,0.01480772746,-0.6652885318,-0.727219682,0.1682956766
1.3600,0.01486013444,-0.6652530185,-0.7272990766,0.1680882238
1.3650,0.01491082013,-0.66520944,-0.7273841813,0.167887823
1.3700,0.01495921496,-0.6651568484,-0.7274756619,0.1676954092
1.3750,0.01500784344,-0.6650966297,-0.7275714849,0.1675140953
1.3800,0.01505520266,-0.665028129,-0.7276715703,0.1673469875
1.3850,0.0151030111,-0.6649508254,-0.7277766599,0.1671927994
1.3900,0.0151510351,-0.6648664935,-0.727884724,0.1670533466
1.3950,0.01519912289,-0.6647740843,-0.7279968203,0.1669282274
1.4000,0.01524875971,-0.6646742268,-0.7281125451,0.1668165737
1.4050,0.01529946265,-0.6645684115,-0.728230308,0.1667194392
1.4100,0.01535077139,-0.6644571202,-0.728349471,0.1666377427
1.4150,0.01540479366,-0.6643415523,-0.7284690331,0.1665708917
1.4200,0.01546253929,-0.6642217666,-0.7285888709,0.1665191033
1.4250,0.01552287986,-0.6640978785,-0.728708889,0.1664824407
1.4300,0.01558756538,-0.6639707957,-0.728827933,0.1664621709
1.4350,0.01565722192,-0.6638417023,-0.7289449928,0.1664579322
1.4400,0.01573272344,-0.6637099556,-0.7290605275,0.1664701879
1.4450,0.01581274787,-0.663574979,-0.7291750615,0.1664990511
1.4500,0.01589739233,-0.663438457,-0.729287374,0.1665431258
1.4550,0.0159850341,-0.663299689,-0.7293981148,0.1666024951
1.4600,0.01607808344,-0.6631605383,-0.7295056508,0.1666766365
1.4650,0.01617581619,-0.6630188869,-0.7296116413,0.1667667574
1.4700,0.01627759579,-0.6628762952,-0.7297145135,0.1668735631
1.4750,0.0163823799,-0.6627313281,-0.729815844,0.166995923
1.4800,0.01649022123,-0.6625842259,-0.7299152435,0.1671345373
1.4850,0.01660133861,-0.6624343695,-0.7300135684,0.1672880502
1.4900,0.01671302285,-0.6622824379,-0.7301100825,0.1674572027
1.4950,0.0168242235,-0.6621280585,-0.7302052296,0.1676415887
1.5000,0.01693603522,-0.6619707299,-0.7302994721,0.1678410093
1.5050,0.01704656308,-0.6618101696,-0.7303926306,0.1680574883
1.5100,0.01715507702,-0.6616469224,-0.7304842547,0.1682908407
1.5150,0.01726183063,-0.6614791754,-0.7305757374,0.1685420469
1.5200,0.01736811597,-0.6613077078,-0.7306660395,0.1688123302
1.5250,0.01747518036,-0.6611312802,-0.7307560552,0.169102443
1.5300,0.01758214492,-0.6609493233,-0.7308462974,0.1694123662
1.5350,0.01768956364,-0.660761057,-0.7309369836,0.1697440157
1.5400,0.01779691104,-0.6605676221,-0.7310270662,0.1700973694
1.5450,0.01790558768,-0.6603677291,-0.7311179734,0.1704709984
1.5500,0.01801842993,-0.6601618485,-0.7312089051,0.1708660502
1.5550,0.01813362785,-0.6599486536,-0.7313011845,0.1712820004
1.5600,0.0182534449,-0.6597279044,-0.7313951189,0.1717180361
1.5650,0.01837550368,-0.6594986922,-0.7314913729,0.1721748738
1.5700,0.01850154197,-0.6592610811,-0.7315903684,0.1726500876
1.5750,0.01863023951,-0.6590141441,-0.7316933758,0.1731417797
1.5800,0.01875975976,-0.6587575473,-0.7318012133,0.173647774
1.5850,0.01889023423,-0.6584906527,-0.7319144155,0.1741680446
1.5900,0.01902189716,-0.6582136083,-0.732033873,0.1746980884
1.5950,0.01915288181,-0.6579275598,-0.7321584342,0.1752384675
1.6000,0.01927978183,-0.6576325147,-0.7322887392,0.1757867116
1.6050,0.01940480842,-0.6573282512,-0.732425033,0.1763422654
1.6100,0.01952565013,-0.657016673,-0.7325663599,0.1769021444
1.6150,0.01964245542,-0.6566979234,-0.7327122977,0.1774674622
1.6200,0.01975393302,-0.656373173,-0.7328612555,0.1780405013
1.6250,0.01986350893,-0.6560420554,-0.7330139938,0.1786190008
1.6300,0.01996858153,-0.655705454,-0.7331695508,0.1792038589
1.6350,0.02007282072,-0.6553650002,-0.7333267739,0.1797933287
1.6400,0.02017494724,-0.6550195173,-0.7334868024,0.1803871233
1.6450,0.02027584327,-0.6546700066,-0.7336483173,0.1809867927
1.6500,0.02037612866,-0.6543159399,-0.7338124053,0.181589697
1.6550,0.02047603582,-0.6539583173,-0.7339780732,0.1821961561
1.6600,0.02057497848,-0.6535974882,-0.7341457499,0.1828032042
1.6650,0.0206759986,-0.653232097,-0.7343166338,0.1834105007
1.6700,0.02078017092,-0.6528622361,-0.7344904661,0.1840185872
1.6750,0.02088657513,-0.6524877043,-0.7346679468,0.1846254443
1.6800,0.0209968575,-0.6521073793,-0.7348508175,0.1852278969
1.6850,0.0211100001,-0.6517228732,-0.7350377244,0.185825747
1.6900,0.0212253568,-0.6513328592,-0.7352305222,0.1864163888
1.6950,0.02134359737,-0.6509379446,-0.7354287689,0.1869993823
1.7000,0.02146309039,-0.6505375951,-0.7356329655,0.1875748201
1.7050,0.02158607646,-0.6501313812,-0.7358434393,0.188142662
1.7100,0.02171309633,-0.6497178055,-0.7360619693,0.1887010655
1.7150,0.02184449205,-0.6492976094,-0.7362874268,0.189251837
1.7200,0.02198154114,-0.6488707508,-0.7365203744,0.1897927784
1.7250,0.02212436164,-0.6484380243,-0.7367598713,0.1903248101
1.7300,0.02227301082,-0.6480000452,-0.7370053989,0.1908478358
1.7350,0.02242592685,-0.647556903,-0.7372567466,0.191362548
1.7400,0.02258356434,-0.647108805,-0.7375135853,0.1918694572
1.7450,0.02274435582,-0.6466588361,-0.7377733142,0.192368347
1.7500,0.0229056717,-0.6462078172,-0.7380351557,0.1928597834
1.7550,0.02306640129,-0.6457566938,-0.7382985597,0.1933428826
1.7600,0.02322287752,-0.6453069101,-0.7385624377,0.1938174794
1.7650,0.02337594845,-0.644859536,-0.7388258834,0.1942834471
1.7700,0.02352385673,-0.6444149535,-0.7390884537,0.1947415041
1.7750,0.023668369,-0.643973531,-0.7393500064,0.1951908494
1.7800,0.02380812495,-0.6435352266,-0.7396102165,0.1956331079
1.7850,0.02394231138,-0.6431009445,-0.739868848,0.1960663885
1.7900,0.02407208065,-0.6426703361,-0.7401258383,0.1964920291
1.7950,0.02419567073,-0.6422435539,-0.7403816351,0.1969081547
1.8000,0.0243114353,-0.6418208125,-0.7406367029,0.1973126276
1.8050,0.02442038763,-0.6414010282,-0.7408925398,0.197703339
1.8100,0.02452313298,-0.6409830681,-0.7411497402,0.1980817634
1.8150,0.02461951592,-0.6405681953,-0.7414079483,0.1984452591
1.8200,0.02470896203,-0.640154931,-0.7416684166,0.1987940927
1.8250,0.02478854882,-0.6397439771,-0.7419304344,0.1991291093
1.8300,0.02486060607,-0.6393352889,-0.7421936692,0.199451488
1.8350,0.02492561879,-0.6389271247,-0.7424599162,0.1997601456
1.8400,0.02498368904,-0.6385201855,-0.7427284035,0.2000557586
1.8450,0.02503446143,-0.6381146307,-0.7429988818,0.2003388516
1.8500,0.025078045,-0.6377078362,-0.7432733626,0.2006103583
1.8550,0.02511650841,-0.6373012901,-0.7435497212,0.2008731906
1.8600,0.02514973369,-0.6368941561,-0.7438286102,0.2011276296
1.8650,0.02517951691,-0.6364876654,-0.7441092661,0.2013724008
1.8700,0.02520481471,-0.6360817341,-0.7443909975,0.201610485
1.8750,0.02522449817,-0.6356779893,-0.7446723218,0.2018423934
1.8800,0.02523727908,-0.6352765499,-0.7449524454,0.202070876
1.8850,0.02524293329,-0.6348778369,-0.7452314598,0.2022943348
1.8900,0.02523968438,-0.6344826801,-0.7455080878,0.2025151305
1.8950,0.0252289369,-0.6340895134,-0.7457835731,0.2027334501
1.9000,0.02521125131,-0.6336987541,-0.7460571738,0.2029506721
1.9050,0.02518685679,-0.6333103624,-0.7463286769,0.2031676972
1.9100,0.025157105,-0.632924446,-0.7465971193,0.2033875786
1.9150,0.02512245994,-0.6325395441,-0.746863815,0.2036099922
1.9200,0.02508394626,-0.6321564084,-0.74712826,0.2038343299
1.9250,0.02504050606,-0.6317751138,-0.7473903304,0.2040609531
1.9300,0.02499205824,-0.6313943297,-0.747651239,0.204289555
1.9350,0.02493745655,-0.6310152896,-0.7479099214,0.2045203586
1.9400,0.02487648642,-0.6306373644,-0.7481664127,0.204755205
1.9450,0.02481097329,-0.6302601855,-0.748420988,0.2049939969
1.9500,0.02473967322,-0.6298849027,-0.7486722517,0.2052384405
1.9550,0.02466282892,-0.6295104889,-0.7489208974,0.2054891205
1.9600,0.02458169872,-0.6291373053,-0.7491659082,0.2057484707
1.9650,0.0244950588,-0.6287650879,-0.7494074332,0.2060168815
1.9700,0.02440427091,-0.6283940292,-0.7496453882,0.2062938863
1.9750,0.02431173067,-0.6280235838,-0.7498798913,0.2065804119
1.9800,0.02421830893,-0.6276551254,-0.7501090584,0.2068789925
1.9850,0.02412484291,-0.6272872316,-0.7503344151,0.2071882874
1.9900,0.02403206664,-0.6269197994,-0.7505557007,0.2075094335
1.9950,0.02394112458,-0.6265545078,-0.7507714812,0.2078423787
2.0000,0.02385248827,-0.6261906507,-0.7509827169,0.2081857024
2.0050,0.0237628669,-0.6258288908,-0.7511890436,0.2085390766
2.0100,0.02367084483,-0.6254697237,-0.7513901041,0.208902435
2.0150,0.02357341561,-0.6251129464,-0.7515865413,0.2092743876
2.0200,0.02347155837,-0.6247588494,-0.7517777916,0.2096559517
2.0250,0.02336426919,-0.6244066383,-0.7519651326,0.2100449961
2.0300,0.0232510609,-0.6240562407,-0.7521487314,0.2104411616
2.0350,0.02313197664,-0.6237070705,-0.7523294598,0.2108430358
2.0400,0.02300761272,-0.6233600428,-0.7525063742,0.2112511858
2.0450,0.02287747637,-0.6230131207,-0.7526809023,0.211666558
2.0500,0.02274364429,-0.6226665272,-0.752852635,0.2120896807
2.0550,0.02260662859,-0.6223198807,-0.7530215832,0.2125215321
2.0600,0.02246590912,-0.6219717559,-0.753188863,0.212962331
2.0650,0.02232153909,-0.6216225015,-0.753354101,0.2134123077
2.0700,0.02217211216,-0.6212709765,-0.7535185572,0.213870417
2.0750,0.02201636664,-0.6209174214,-0.7536828622,0.2143338019
2.0800,0.02185417268,-0.6205626871,-0.7538462687,0.2148025831
2.0850,0.02168448666,-0.6202052847,-0.7540097476,0.2152777005
2.0900,0.02150696075,-0.6198445324,-0.754173996,0.2157586386
2.0950,0.02132241548,-0.6194803411,-0.7543392251,0.2162447575
2.1000,0.02113128392,-0.619112871,-0.7545049669,0.2167371144
2.1050,0.02093155209,-0.618741868,-0.7546713215,0.217236202
2.1100,0.02072341348,-0.6183694438,-0.7548373429,0.2177391945
2.1150,0.02050693935,-0.6179935566,-0.7550042887,0.2182474594
2.1200,0.02028271816,-0.6176146568,-0.7551715985,0.2187615226
2.1250,0.02005333332,-0.6172324212,-0.7553398938,0.2192798371
2.1300,0.01981722745,-0.6168472312,-0.7555095825,0.2198000038
2.1350,0.01957634509,-0.6164586122,-0.7556812845,0.2203209985
2.1400,0.01933051029,-0.6160648121,-0.7558566499,0.2208420329
2.1450,0.0190805785,-0.6156644646,-0.7560365524,0.2213637956
2.1500,0.01882494632,-0.6152596665,-0.7562203246,0.2218828177
2.1550,0.01856450473,-0.614848831,-0.7564098348,0.2223970233
2.1600,0.01829807396,-0.6144330018,-0.7566045626,0.222905367
2.1650,0.01802480171,-0.6140102452,-0.7568053088,0.2234104964
2.1700,0.01774627525,-0.6135813798,-0.757011346,0.223912443
2.1750,0.01746391815,-0.6131460908,-0.7572237182,0.2244083855
2.1800,0.01717780152,-0.6127043513,-0.7574417953,0.2249004841
2.1850,0.01688778166,-0.6122557589,-0.7576655045,0.2253900438
2.1900,0.01659350377,-0.6118007093,-0.7578944391,0.2258773272
2.1950,0.01629443213,-0.6113380829,-0.7581296987,0.2263616571
2.2000,0.01599094283,-0.6108689371,-0.7583703605,0.2268431789
2.2050,0.01567928193,-0.6103925636,-0.7586176492,0.2273199084
2.2100,0.01535716096,-0.6099087006,-0.7588724137,0.2277898027
2.2150,0.01502587635,-0.6094182843,-0.7591334977,0.2282540482
2.2200,0.01468314547,-0.6089191518,-0.7594029355,0.2287117256
2.2250,0.01432839743,-0.6084124366,-0.7596795113,0.2291637934
2.2300,0.01396013601,-0.6078996275,-0.7599628892,0.2296074139
2.2350,0.01357705245,-0.6073798025,-0.7602538349,0.2300424866
2.2400,0.01317700702,-0.606855185,-0.7605506292,0.2304688511
2.2450,0.01275711632,-0.6063254477,-0.7608538004,0.2308856901
2.2500,0.01232026605,-0.6057899171,-0.761163266,0.2312947683
2.2550,0.01186672859,-0.605249364,-0.7614787505,0.2316948439
2.2600,0.01140006683,-0.6047033506,-0.7618001487,0.2320871166
2.2650,0.01092105171,-0.6041519351,-0.762126941,0.2324730001
2.2700,0.01043069201,-0.603594842,-0.7624591983,0.2328528255
2.2750,0.009929180808,-0.6030316994,-0.7627967741,0.2332279192
2.2800,0.00941739547,-0.6024622321,-0.7631404468,0.2335962972
2.2850,0.008897226509,-0.6018857011,-0.7634904304,0.2339589813
2.2900,0.008371102588,-0.6013030722,-0.7638453895,0.2343176496
2.2950,0.0078399421,-0.6007134485,-0.7642057337,0.2346731444
2.3000,0.00730549913,-0.6001172129,-0.7645705509,0.2350273032
2.3050,0.006769066012,-0.5995156689,-0.7649390301,0.2353793168
2.3100,0.006233281149,-0.5989091631,-0.765310602,0.2357300213
2.3150,0.005699132974,-0.5982984342,-0.7656851569,0.2360778346
2.3200,0.005164821775,-0.5976848268,-0.766061384,0.2364236207
2.3250,0.004630928557,-0.5970695069,-0.7664377596,0.2367693375
2.3300,0.004098298836,-0.5964528023,-0.7668141747,0.2371144873
2.3350,0.003566562536,-0.5958351963,-0.7671894206,0.2374617683
2.3400,0.003033578357,-0.5952175569,-0.7675631139,0.2378102678
2.3450,0.002499090769,-0.5946018726,-0.7679335809,0.2381604142
2.3500,0.001961145229,-0.5939876591,-0.7683015821,0.2385109928
2.3550,0.001419589254,-0.593376749,-0.7686655131,0.2388626122
2.3600,0.0008747954776,-0.5927685243,-0.7690257665,0.239215555
2.3650,0.0003249328877,-0.5921634313,-0.7693822251,0.2395691064
2.3700,-0.0002301754361,-0.5915632239,-0.769733693,0.2399227814
2.3750,-0.0007906954294,-0.5909680968,-0.7700795317,0.2402781685
2.3800,-0.001358684321,-0.5903775596,-0.7704206799,0.2406334705
2.3850,-0.00193394831,-0.5897919652,-0.770756844,0.2409887655
2.3900,-0.002514121375,-0.5892110682,-0.7710884011,0.241343477
2.3950,-0.003099376803,-0.5886348164,-0.7714141387,0.2417016205
2.4000,-0.003687751992,-0.5880620551,-0.7717346736,0.2420640687
2.4050,-0.004276853709,-0.5874939854,-0.7720489757,0.2424312371
2.4100,-0.004866506724,-0.5869291095,-0.7723574528,0.242805483
2.4150,-0.005454585063,-0.5863690385,-0.7726584601,0.2431882032
2.4200,-0.006042679507,-0.5858140468,-0.7729518877,0.2435790794
2.4250,-0.006631984588,-0.5852638493,-0.7732379393,0.2439781401
2.4300,-0.007222847247,-0.5847198981,-0.7735145477,0.2443884527
2.4350,-0.007818657897,-0.5841831469,-0.7737809705,0.2448099857
2.4400,-0.008419318149,-0.5836544864,-0.774036424,0.2452430833
2.4450,-0.009025229347,-0.5831341587,-0.7742806894,0.2456878348
2.4500,-0.009635697419,-0.5826220012,-0.7745130636,0.2461468493
2.4550,-0.0102540334,-0.5821189077,-0.774733353,0.2466184579
2.4600,-0.01087918605,-0.5816254084,-0.774941665,0.2471010794
2.4650,-0.01151261008,-0.5811421836,-0.7751379084,0.2475933061
2.4700,-0.01215506574,-0.5806678696,-0.7753229573,0.2480955288
2.4750,-0.0128056631,-0.5802011263,-0.775497154,0.2486097989
2.4800,-0.01346227159,-0.5797404211,-0.7756627193,0.2491328104
2.4850,-0.01412512284,-0.5792859076,-0.7758198068,0.249663665
2.4900,-0.01479331462,-0.5788369572,-0.7759691912,0.250201417
2.4950,-0.01546760719,-0.5783947588,-0.7761101806,0.2507453763
2.5000,-0.01614764285,-0.5779581572,-0.7762441429,0.2512939569
2.5050,-0.01683303556,-0.5775257235,-0.7763715673,0.2518489171
2.5100,-0.01751896772,-0.5770959124,-0.7764940978,0.2524090129
2.5150,-0.01820576467,-0.5766691207,-0.7766127493,0.2529701818
2.5200,-0.01889158292,-0.5762451986,-0.7767273263,0.2535335081
2.5250,-0.0195761325,-0.5758242749,-0.7768379652,0.2540983184
2.5300,-0.02025614626,-0.5754054566,-0.776945382,0.2546647256
2.5350,-0.02093162189,-0.5749877752,-0.7770503395,0.2552326299
2.5400,-0.02160001238,-0.5745710014,-0.7771535298,0.2558006939
2.5450,-0.0222586345,-0.5741550475,-0.7772551306,0.2563688682
2.5500,-0.0229088913,-0.5737400232,-0.7773557254,0.2569350981
2.5550,-0.02354948263,-0.573325456,-0.7774558456,0.2574990322
2.5600,-0.02418224176,-0.5729130077,-0.777555041,0.258058255
2.5650,-0.02480600942,-0.572502365,-0.7776538832,0.2586119524
2.5700,-0.02542376298,-0.5720945319,-0.7777514559,0.2591604749
2.5750,-0.02603488647,-0.5716898322,-0.7778485028,0.259701034
2.5800,-0.02663864593,-0.5712872165,-0.7779452823,0.2602353485
2.5850,-0.02723314871,-0.5708886018,-0.7780408847,0.2607622322
2.5900,-0.02781960676,-0.5704924459,-0.7781371222,0.2612796542
2.5950,-0.02839825883,-0.570099116,-0.7782338985,0.2617871962
2.6000,-0.02896817851,-0.5697093012,-0.7783318097,0.2622818156
2.6050,-0.02952962612,-0.5693212525,-0.7784313477,0.2627659596
2.6100,-0.03008139374,-0.5689353494,-0.7785321616,0.2632401023
2.6150,-0.03062240873,-0.5685496439,-0.7786345753,0.2637077335
2.6200,-0.031152504,-0.5681640679,-0.7787390525,0.2641677528
2.6250,-0.03167251425,-0.5677777135,-0.7788460178,0.2646208616
2.6300,-0.03218365481,-0.5673915716,-0.7789547382,0.2650670343
2.6350,-0.03268591566,-0.5670043441,-0.7790665474,0.2655052152
2.6400,-0.03317943086,-0.5666167242,-0.7791816601,0.2659333636
2.6450,-0.03366549575,-0.5662287626,-0.7793007006,0.2663494713
2.6500,-0.03414297161,-0.5658418396,-0.7794225846,0.2667540153
2.6550,-0.03461331221,-0.5654544686,-0.7795479647,0.2671481485
2.6600,-0.03507718487,-0.5650687191,-0.7796755838,0.2675311532
2.6650,-0.03553575067,-0.5646842558,-0.7798053631,0.2679038956
2.6700,-0.03598969873,-0.564301368,-0.7799371483,0.2682661967
2.6750,-0.03644112985,-0.5639197765,-0.7800700731,0.2686209426
2.6800,-0.03689103571,-0.5635408076,-0.7802030656,0.2689683739
2.6850,-0.03733977894,-0.5631645916,-0.7803360647,0.2693083917
2.6900,-0.03778949248,-0.5627922143,-0.7804676878,0.2696424783
2.6950,-0.03824023534,-0.5624234226,-0.7805985332,0.2699694577
2.7000,-0.0386919817,-0.5620570689,-0.7807294709,0.2702892433
2.7050,-0.03914449497,-0.5616926807,-0.7808607348,0.2706022057
2.7100,-0.03959960937,-0.5613309618,-0.7809921173,0.2709072442
2.7150,-0.0400601717,-0.560971862,-0.7811238736,0.2712033309
2.7200,-0.04052531206,-0.5606155176,-0.7812552686,0.2714924415
2.7250,-0.04099423082,-0.5602621582,-0.7813860367,0.2717749965
2.7300,-0.04146653138,-0.5599094654,-0.781518116,0.272050274
2.7350,-0.04193896537,-0.5595575327,-0.7816504938,0.2723214945
2.7400,-0.04241400347,-0.5592066992,-0.7817834827,0.2725866945
2.7450,-0.04289167787,-0.5588578378,-0.781916395,0.2728460599
2.7500,-0.04337458713,-0.5585110858,-0.7820490117,0.273099534
2.7550,-0.04386307988,-0.5581658866,-0.7821809586,0.2733492662
2.7600,-0.04435648626,-0.5578205853,-0.7823129567,0.273596664
2.7650,-0.04485349016,-0.5574758096,-0.7824447216,0.2738414575
2.7700,-0.04535381697,-0.5571310506,-0.7825769845,0.274082628
2.7750,-0.04585862447,-0.5567863346,-0.7827098555,0.2743196061
2.7800,-0.04636778018,-0.5564435615,-0.7828427227,0.2745502929
2.7850,-0.04688138418,-0.5561029134,-0.7829748536,0.2747763893
2.7900,-0.04739775778,-0.5557634515,-0.7831068447,0.2749983787
2.7950,-0.04791640568,-0.5554250315,-0.7832386612,0.2752167364
2.8000,-0.04843628754,-0.5550865301,-0.7833712254,0.2754312861
2.8050,-0.04895462701,-0.5547502665,-0.7835034396,0.2756409739
2.8100,-0.04947297617,-0.5544171401,-0.783634344,0.2758464687
2.8150,-0.04999276537,-0.5540861545,-0.7837635803,0.2760505516
2.8200,-0.05051296585,-0.5537582266,-0.7838909416,0.2762521644
2.8250,-0.0510332259,-0.5534324189,-0.7840175762,0.2764500097
2.8300,-0.05155256474,-0.5531095156,-0.7841417634,0.2766475949
2.8350,-0.05206914159,-0.5527889801,-0.7842644792,0.2768435922
2.8400,-0.05258281964,-0.5524722222,-0.7843846058,0.2770384106
2.8450,-0.05309312801,-0.5521597681,-0.7845019296,0.277231731
2.8500,-0.05360036621,-0.551852244,-0.7846154784,0.2774250397
2.8550,-0.05410552165,-0.5515497644,-0.7847247778,0.277619295
2.8600,-0.0546100409,-0.5512525368,-0.784830253,0.2778126312
2.8650,-0.05511643886,-0.550960769,-0.7849315367,0.2780052012
2.8700,-0.05562378614,-0.5506743979,-0.7850284331,0.2781978813
2.8750,-0.05613252347,-0.5503939918,-0.7851202127,0.2783915322
2.8800,-0.05664206871,-0.5501197524,-0.7852071165,0.2785852084
2.8850,-0.05715487104,-0.5498495451,-0.7852901912,0.2787796873
2.8900,-0.05766765218,-0.5495835965,-0.7853690157,0.2789763818
2.8950,-0.05817892582,-0.5493210098,-0.7854449877,0.2791734444
2.9000,-0.05868920954,-0.5490612274,-0.785517227,0.2793743569
2.9050,-0.05919509419,-0.5488039951,-0.7855869589,0.279576905
2.9100,-0.0596955595,-0.548548147,-0.7856554112,0.2797801736
2.9150,-0.06018801391,-0.5482934843,-0.7857229507,0.2799841118
2.9200,-0.06067185405,-0.5480404329,-0.7857896203,0.2801879419
2.9250,-0.06114615934,-0.5477908342,-0.7858551448,0.2803890877
2.9300,-0.06161034047,-0.5475454251,-0.7859189172,0.2805880059
2.9350,-0.06206523041,-0.5473060402,-0.7859801014,0.2807833431
2.9400,-0.06251160468,-0.5470731939,-0.7860372235,0.2809781185
2.9450,-0.06294935882,-0.5468474825,-0.7860901073,0.2811717489
2.9500,-0.06337998576,-0.5466279633,-0.7861390265,0.2813650265
2.9550,-0.06380396757,-0.5464163185,-0.7861838608,0.2815549637
2.9600,-0.06422276001,-0.5462098728,-0.7862259175,0.2817428236
2.9650,-0.06463633042,-0.5460104513,-0.7862641864,0.2819279359
2.9700,-0.06504401306,-0.5458189796,-0.7862986116,0.2821088642
2.9750,-0.06544679943,-0.5456356763,-0.7863287943,0.2822861182
2.9800,-0.06584235672,-0.5454603773,-0.7863554685,0.2824585598
2.9850,-0.06623205502,-0.5452921568,-0.7863788997,0.2826269708
2.9900,-0.06661665256,-0.5451306995,-0.7863998556,0.2827896908
2.9950,-0.06699497379,-0.5449756262,-0.7864181572,0.282948268
3.0000,-0.06736871601,-0.5448281277,-0.786432755,0.2831029657
3.0050,-0.06773830646,-0.5446882103,-0.7864438179,0.2832532379
3.0100,-0.06810305059,-0.5445545501,-0.7864516802,0.2834009017
3.0150,-0.06845826836,-0.5444257691,-0.7864574361,0.283546731
3.0200,-0.06880417337,-0.544301285,-0.7864619806,0.2836893545
3.0250,-0.06913725064,-0.5441792584,-0.7864667506,0.2838292188
3.0300,-0.06945722376,-0.5440616045,-0.7864711742,0.2839643581
3.0350,-0.06976536296,-0.5439494393,-0.7864755212,0.2840916335
3.0400,-0.07006378693,-0.5438442016,-0.786477701,0.2842136098
3.0450,-0.07035542259,-0.543746734,-0.7864771693,0.2843295023
3.0500,-0.07064192018,-0.5436577564,-0.7864734148,0.2844389755
3.0550,-0.07092475084,-0.5435776621,-0.7864661539,0.2845417259
3.0600,-0.07120702212,-0.5435090018,-0.7864535768,0.2846371312
3.0650,-0.07149301888,-0.5434523301,-0.7864356813,0.28472308
3.0700,-0.07178723775,-0.5434089873,-0.7864107013,0.2848007618
3.0750,-0.0720921139,-0.5433792418,-0.7863784128,0.284869652
3.0800,-0.0724120688,-0.5433636497,-0.7863368842,0.2849328713
3.0850,-0.07274817448,-0.5433609648,-0.7862873355,0.2849891068
3.0900,-0.07310433455,-0.5433724815,-0.786228887,0.2850372605
3.0950,-0.07348199789,-0.5433956068,-0.7861629865,0.2850778299
3.1000,-0.0738851602,-0.5434306331,-0.786088923,0.285111093
3.1050,-0.07431510253,-0.5434755633,-0.7860074094,0.2851384401
3.1100,-0.07477239126,-0.5435270148,-0.7859202035,0.2851611955
3.1150,-0.07525427136,-0.5435829882,-0.7858296827,0.285177207
3.1200,-0.07575941982,-0.5436411893,-0.7857372241,0.2851872757
3.1250,-0.0762842672,-0.5436998942,-0.7856436354,0.285193292
3.1300,-0.0768291834,-0.5437554637,-0.7855514727,0.2851949439
3.1350,-0.07739118715,-0.5438056447,-0.7854617898,0.2851943226
3.1400,-0.07796786495,-0.543847701,-0.7853765595,0.2851917775
3.1450,-0.07855707622,-0.5438791645,-0.7852975124,0.2851877579
3.1500,-0.07915335099,-0.5439000735,-0.7852251538,0.2851822487
3.1550,-0.07975297267,-0.5439086418,-0.785160922,0.2851756991
3.1600,-0.08035033154,-0.5439031216,-0.7851057873,0.2851703373
3.1650,-0.08094039492,-0.5438828261,-0.7850607769,0.2851660928
3.1700,-0.08152046659,-0.5438485679,-0.7850267364,0.2851599057
3.1750,-0.08208792541,-0.5438007963,-0.7850040654,0.2851506333
3.1800,-0.08264273088,-0.5437401325,-0.7849922609,0.2851385588
3.1850,-0.08318403212,-0.5436681503,-0.7849903033,0.2851238028
3.1900,-0.08371202504,-0.5435858799,-0.7849979997,0.2851049428
3.1950,-0.08422717153,-0.5434938696,-0.7850146677,0.2850827402
3.2000,-0.08472935927,-0.5433936923,-0.7850400449,0.2850550102
3.2050,-0.08521893166,-0.5432864846,-0.785073844,0.2850203304
3.2100,-0.08569573976,-0.54317299,-0.7851149786,0.2849803738
3.2150,-0.08616056335,-0.5430565847,-0.7851623791,0.2849314682
3.2200,-0.08661269952,-0.5429353846,-0.7852163973,0.2848764959
3.2250,-0.08705259911,-0.5428108328,-0.7852756101,0.2848165391
3.2300,-0.08747958716,-0.5426807623,-0.7853415303,0.2847518091
3.2350,-0.08789175496,-0.5425465368,-0.785413636,0.2846817788
3.2400,-0.08828739308,-0.5424068342,-0.7854931365,0.2846062105
3.2450,-0.08866617957,-0.5422631987,-0.7855789595,0.2845252719
3.2500,-0.08902921437,-0.5421151766,-0.785671113,0.2844395128
3.2550,-0.08937655808,-0.5419623832,-0.7857699414,0.2843487389
3.2600,-0.08970832674,-0.5418083559,-0.7858731486,0.2842525566
3.2650,-0.09002486205,-0.5416513199,-0.7859818339,0.2841512425
3.2700,-0.09032759924,-0.5414911607,-0.7860952213,0.2840467405
3.2750,-0.09061637621,-0.5413284383,-0.7862134191,0.2839377642
3.2800,-0.09089246823,-0.541162763,-0.7863357473,0.2838265592
3.2850,-0.09115440005,-0.5409957166,-0.786461414,0.2837128025
3.2900,-0.09140197502,-0.5408264669,-0.7865898656,0.2835997091
3.2950,-0.09163544373,-0.5406550504,-0.7867212636,0.2834867111
3.3000,-0.09185381966,-0.5404810889,-0.7868548153,0.2833770776
3.3050,-0.09205719341,-0.5403042184,-0.7869904982,0.2832715667
3.3100,-0.09224422821,-0.5401231927,-0.7871291617,0.2831706584
3.3150,-0.09241997633,-0.5399387084,-0.7872695831,0.2830748005
3.3200,-0.09258445055,-0.5397498616,-0.7874117466,0.282985773
3.3250,-0.0927433281,-0.5395570923,-0.7875545371,0.282903995
3.3300,-0.09289992904,-0.5393587076,-0.7876977825,0.28283209
3.3350,-0.09305627129,-0.5391534279,-0.7878417602,0.2827710601
3.3400,-0.09321347928,-0.5389395906,-0.7879872252,0.2827215907
3.3450,-0.0933725764,-0.5387161565,-0.788134886,0.282683332
3.3500,-0.0935369886,-0.5384820412,-0.7882846545,0.2826574367
3.3550,-0.09370650078,-0.5382376653,-0.7884363158,0.2826437392
3.3600,-0.09388770545,-0.5379819625,-0.7885898279,0.2826421591
3.3650,-0.09408224543,-0.5377148262,-0.7887440217,0.2826555589
3.3700,-0.09429413395,-0.5374361477,-0.7888989749,0.2826825266
3.3750,-0.0945271657,-0.537146436,-0.7890536703,0.2827235869
3.3800,-0.09478239121,-0.536845277,-0.7892087642,0.2827772503
3.3850,-0.09506586765,-0.5365329017,-0.7893634818,0.2828431012
3.3900,-0.09538066324,-0.5362089548,-0.7895171185,0.2829226139
3.3950,-0.095729291,-0.5358747067,-0.7896691896,0.2830137321
3.4000,-0.09611239762,-0.5355306233,-0.7898188736,0.2831174765
3.4050,-0.09653015196,-0.535175882,-0.7899672736,0.2832320811
3.4100,-0.09698299392,-0.5348115204,-0.7901142178,0.2833557118
3.4150,-0.09747271729,-0.534438415,-0.7902584131,0.2834894892
3.4200,-0.09799811296,-0.5340578465,-0.7903993734,0.2836325387
3.4250,-0.09855816703,-0.5336691614,-0.7905373771,0.2837854284
3.4300,-0.0991498274,-0.5332733479,-0.7906723448,0.283947339
3.4350,-0.09977086996,-0.532871591,-0.7908037599,0.2841180289
3.4400,-0.1004164903,-0.5324649042,-0.7909314303,0.2842976027
3.4450,-0.1010837085,-0.5320543325,-0.7910549746,0.2844860247
3.4500,-0.1017696247,-0.5316388269,-0.7911760457,0.2846815167
3.4550,-0.1024738326,-0.5312208414,-0.7912934426,0.2848828163
3.4600,-0.1031938976,-0.5308007432,-0.7914076767,0.2850885472
3.4650,-0.1039309307,-0.5303810199,-0.7915168991,0.2852986749
3.4700,-0.1046819611,-0.5299620488,-0.7916207141,0.2855145511
3.4750,-0.105444901,-0.529544474,-0.7917193197,0.2857350901
3.4800,-0.106215121,-0.5291287283,-0.7918133028,0.285959491
3.4850,-0.1069879814,-0.5287170068,-0.7919023197,0.2861863285
3.4900,-0.1077637947,-0.5283114638,-0.7919852564,0.2864145865
3.4950,-0.1085404673,-0.5279145013,-0.7920608144,0.2866442266
3.5000,-0.1093151723,-0.527526316,-0.7921285266,0.2868772845
3.5050,-0.1100871045,-0.5271481676,-0.7921874588,0.2871143831
3.5100,-0.1108582719,-0.5267833367,-0.7922357249,0.2873539908
3.5150,-0.1116285222,-0.526431495,-0.7922731761,0.2875972333
3.5200,-0.1123973806,-0.5260956898,-0.7922979623,0.2878438692
3.5250,-0.1131626083,-0.5257766441,-0.7923100559,0.2880935958
3.5300,-0.1139252053,-0.525477351,-0.7923077719,0.2883452719
3.5350,-0.1146872798,-0.5251976532,-0.7922899335,0.2886016531
3.5400,-0.1154489017,-0.5249390229,-0.7922562315,0.2888609303
3.5450,-0.1162082476,-0.5247003568,-0.7922067734,0.2891255902
3.5500,-0.1169652623,-0.5244818208,-0.7921413281,0.2893960322
3.5550,-0.1177180201,-0.5242832759,-0.7920599194,0.2896732615
3.5600,-0.1184662338,-0.5241052348,-0.7919624229,0.2899568505
3.5650,-0.1192079252,-0.5239469721,-0.7918492293,0.2902478923
3.5700,-0.1199445515,-0.5238088663,-0.7917197889,0.2905466434
3.5750,-0.1206744739,-0.5236897306,-0.7915751642,0.2908530501
3.5800,-0.1213960813,-0.5235885338,-0.7914159355,0.2911680885
3.5850,-0.1221114699,-0.5235041584,-0.7912419539,0.2914933196
3.5900,-0.1228203088,-0.5234364756,-0.7910537726,0.2918276146
3.5950,-0.1235243708,-0.5233854245,-0.7908512174,0.2921708047
3.6000,-0.1242240177,-0.5233503026,-0.7906359345,0.2925195264
3.6050,-0.1249220309,-0.5233304154,-0.7904076208,0.2928746413
3.6100,-0.1256200783,-0.5233250074,-0.7901669717,0.2932348707
3.6150,-0.1263169791,-0.5233330597,-0.789915299,0.2935989609
3.6200,-0.127013308,-0.5233542584,-0.7896531537,0.2939657066
3.6250,-0.1277063162,-0.5233867863,-0.7893821737,0.2943351025
3.6300,-0.1283956082,-0.5234301931,-0.7891028451,0.2947068045
3.6350,-0.129083185,-0.5234827884,-0.7888160967,0.2950804418
3.6400,-0.1297691743,-0.5235435907,-0.7885229052,0.2954550693
3.6450,-0.130454475,-0.5236107718,-0.7882241181,0.2958312514
3.6500,-0.1311372927,-0.5236853469,-0.7879203935,0.2962062143
3.6550,-0.1318206795,-0.5237645702,-0.7876130268,0.296580012
3.6600,-0.1325046239,-0.5238469601,-0.7873030237,0.296952582
3.6650,-0.1331865679,-0.523932056,-0.7869915732,0.2973227245
3.6700,-0.1338675051,-0.5240170879,-0.7866806125,0.2976897656
3.6750,-0.1345474061,-0.5241023923,-0.7863700873,0.2980532901
3.6800,-0.1352275159,-0.5241861857,-0.7860614893,0.2984119581
3.6850,-0.135906219,-0.5242684815,-0.7857553671,0.2987650617
3.6900,-0.1365845372,-0.5243470324,-0.7854538921,0.2991104099
3.6950,-0.1372617711,-0.5244223116,-0.7851564737,0.2994490892
3.7000,-0.1379374035,-0.5244924113,-0.7848651472,0.2997793922
3.7050,-0.1386114379,-0.5245557931,-0.7845810427,0.3001011106
3.7100,-0.1392844619,-0.5246128054,-0.7843040156,0.3004138049
3.7150,-0.1399545361,-0.5246633701,-0.7840344174,0.3007176552
3.7200,-0.1406211179,-0.5247065038,-0.783773263,0.3010120567
3.7250,-0.1412848923,-0.5247402067,-0.7835218311,0.3012969215
3.7300,-0.1419441124,-0.524765614,-0.7832798977,0.3015717513
3.7350,-0.1425985244,-0.5247826247,-0.7830479744,0.3018355968
3.7400,-0.1432475318,-0.5247913874,-0.7828260859,0.3020885028
3.7450,-0.1438921273,-0.5247911174,-0.7826148254,0.3023299088
3.7500,-0.1445324001,-0.5247838318,-0.7824128307,0.3025598744
3.7550,-0.1451658508,-0.5247687518,-0.7822209337,0.3027788695
3.7600,-0.1457930471,-0.5247464952,-0.7820383728,0.3029876016
3.7650,-0.1464108103,-0.5247175206,-0.7818659049,0.3031849353
3.7700,-0.1470189508,-0.5246807776,-0.7817045094,0.3033703507
3.7750,-0.1476160581,-0.5246372755,-0.7815531176,0.3035456356
3.7800,-0.1482037331,-0.5245890768,-0.7814107952,0.3037089446
3.7850,-0.1487844326,-0.5245350038,-0.7812776225,0.3038609864
3.7900,-0.1493551681,-0.524474945,-0.7811540739,0.3040022674
3.7950,-0.1499152111,-0.5244081107,-0.7810404032,0.3041339368
3.8000,-0.1504653999,-0.5243357804,-0.7809369075,0.3042526899
3.8050,-0.1510032626,-0.5242602543,-0.780842319,0.3043591192
3.8100,-0.1515272447,-0.5241805306,-0.7807579778,0.30445237
3.8150,-0.152036879,-0.5240979118,-0.7806826281,0.3045337427
3.8200,-0.1525319899,-0.524012737,-0.780616772,0.304601541
3.8250,-0.153011865,-0.5239258631,-0.7805604786,0.3046545559
3.8300,-0.1534754617,-0.5238383366,-0.780513394,0.3046925031
3.8350,-0.1539218067,-0.5237503766,-0.7804758207,0.3047148074
3.8400,-0.1543513469,-0.5236628255,-0.780447378,0.3047208511
3.8450,-0.1547641967,-0.5235764581,-0.7804272197,0.3047114878
3.8500,-0.1551586855,-0.5234921363,-0.7804162748,0.3046837764
3.8550,-0.1555346905,-0.5234112393,-0.7804136453,0.3046377796
3.8600,-0.1558933894,-0.523333775,-0.7804186972,0.3045745692
3.8650,-0.1562363635,-0.5232610695,-0.7804308606,0.3044925675
3.8700,-0.1565598653,-0.5231934356,-0.7804509435,0.3043911337
3.8750,-0.1568660343,-0.5231303812,-0.7804785422,0.3042710908
3.8800,-0.1571546813,-0.5230747205,-0.7805118539,0.3041323541
3.8850,-0.1574245934,-0.5230260194,-0.7805519128,0.3039736697
3.8900,-0.1576755225,-0.5229858216,-0.78059779,0.3037949148
3.8950,-0.1579070621,-0.5229529179,-0.7806497865,0.3035976224
3.9000,-0.1581180248,-0.5229280309,-0.780707595,0.3033819637
3.9050,-0.1583063877,-0.5229114785,-0.7807713043,0.3031482206
3.9100,-0.1584721105,-0.5229045124,-0.7808399627,0.3028967048
3.9150,-0.1586144631,-0.5229061964,-0.7809139998,0.3026282981
3.9200,-0.1587339518,-0.5229162286,-0.7809931325,0.3023439721
3.9250,-0.1588321822,-0.5229355312,-0.7810763473,0.3020438839
3.9300,-0.1589088201,-0.522963989,-0.78116368,0.3017282852
3.9350,-0.1589647556,-0.5230018245,-0.7812545927,0.3013976765
3.9400,-0.1589981592,-0.5230488442,-0.7813497446,0.3010516045
3.9450,-0.1590098676,-0.523105234,-0.7814486835,0.3006904242
3.9500,-0.1590016477,-0.523169141,-0.7815515675,0.3003159557
3.9550,-0.1589735116,-0.5232433041,-0.7816565775,0.2999280949
3.9600,-0.1589248836,-0.5233268144,-0.7817642362,0.2995273038
3.9650,-0.1588591893,-0.5234189797,-0.7818739025,0.299114577
3.9700,-0.1587763936,-0.5235214297,-0.7819842422,0.2986904994
3.9750,-0.1586781676,-0.5236321091,-0.7820963089,0.2982549532
3.9800,-0.1585659413,-0.5237508057,-0.782209247,0.2978097206
3.9850,-0.1584391183,-0.5238760185,-0.7823239145,0.2973554369
3.9900,-0.1582970159,-0.524007922,-0.7824397263,0.2968936293
3.9950,-0.1581411869,-0.5241442924,-0.7825579399,0.2964240147
4.0000,-0.1579720171,-0.524285647,-0.7826774521,0.2959483201
4.0050,-0.1577926479,-0.5244330357,-0.7827963723,0.2954679525
4.0100,-0.1576023166,-0.524585208,-0.7829149833,0.2949847423
4.0150,-0.1574040793,-0.5247418215,-0.7830322507,0.2945003752
4.0200,-0.1571987101,-0.5249013382,-0.7831488607,0.2940153273
4.0250,-0.1569882697,-0.5250658707,-0.7832629723,0.2935296083
4.0300,-0.1567738784,-0.5252327961,-0.7833753542,0.2930452446
4.0350,-0.1565553681,-0.5254024055,-0.7834855077,0.2925631357
4.0400,-0.1563349046,-0.5255743903,-0.7835931851,0.292083341
4.0450,-0.1561112034,-0.5257484683,-0.7836985131,0.2916067227
4.0500,-0.1558846071,-0.5259245524,-0.783801401,0.2911335057
4.0550,-0.1556546983,-0.5261016194,-0.7839023673,0.2906643762
4.0600,-0.1554215219,-0.5262805168,-0.7840012129,0.2901983223
4.0650,-0.1551832709,-0.5264606627,-0.7840978172,0.2897377022
4.0700,-0.1549402291,-0.5266423091,-0.7841920898,0.2892821633
4.0750,-0.1546913274,-0.5268250916,-0.7842845299,0.2888315984
4.0800,-0.1544356855,-0.5270073252,-0.7843754513,0.2883887127
4.0850,-0.154172714,-0.5271901302,-0.7844642518,0.2879534312
4.0900,-0.1539001293,-0.5273739842,-0.78455166,0.2875241271
4.0950,-0.1536194415,-0.5275590196,-0.7846374934,0.2871002471
4.1000,-0.1533279273,-0.527745022,-0.7847222747,0.2866822111
4.1050,-0.1530269958,-0.5279312788,-0.7848064735,0.2862692833
4.1100,-0.1527146886,-0.5281182194,-0.7848900617,0.2858617871
4.1150,-0.152389097,-0.5283054978,-0.7849742181,0.2854581248
4.1200,-0.1520498364,-0.5284939767,-0.7850581078,0.2850591714
4.1250,-0.1516973846,-0.5286826014,-0.7851420953,0.2846655945
4.1300,-0.1513328181,-0.5288703956,-0.7852262578,0.2842783969
4.1350,-0.1509546144,-0.5290591992,-0.7853099152,0.2838968216
4.1400,-0.1505622205,-0.5292475996,-0.7853929252,0.2835241597
4.1450,-0.1501566641,-0.5294365989,-0.7854753857,0.2831576989
4.1500,-0.1497377413,-0.5296265508,-0.7855555328,0.2828017509
4.1550,-0.1493064929,-0.529817226,-0.7856333078,0.2824563399
4.1600,-0.1488618063,-0.5300076133,-0.7857092478,0.2821224386
4.1650,-0.1484035446,-0.5301996914,-0.7857816867,0.281801022
4.1700,-0.1479328953,-0.5303921503,-0.785851324,0.2814919573
4.1750,-0.147448816,-0.5305863683,-0.7859170108,0.2811963808
4.1800,-0.146950514,-0.530782731,-0.7859792737,0.2809124777
4.1850,-0.1464395484,-0.5309825859,-0.7860363888,0.2806416713
4.1900,-0.1459157955,-0.531185509,-0.7860893784,0.2803819266
4.1950,-0.145378878,-0.5313933018,-0.7861372082,0.2801328801
4.2000,-0.144831537,-0.5316059616,-0.7861791458,0.27989512
4.2050,-0.1442740804,-0.5318230272,-0.7862161133,0.2796667315
4.2100,-0.1437056659,-0.5320440857,-0.7862479373,0.2794493755
4.2150,-0.1431292937,-0.5322701987,-0.7862731583,0.2792435522
4.2200,-0.1425445446,-0.5325018657,-0.7862918791,0.2790481977
4.2250,-0.1419525461,-0.5327388203,-0.7863043582,0.2788624755
4.2300,-0.141355101,-0.5329805138,-0.7863107215,0.2786861256
4.2350,-0.1407502565,-0.5332280763,-0.7863105593,0.2785190986
4.2400,-0.1401399414,-0.5334820242,-0.7863031939,0.2783613013
4.2450,-0.1395247674,-0.5337418624,-0.7862886708,0.278213209
4.2500,-0.1389046331,-0.534008119,-0.78626656,0.2780750409
4.2550,-0.1382798499,-0.5342784338,-0.7862385557,0.2779463469
4.2600,-0.1376504839,-0.5345532632,-0.7862040999,0.277827764
4.2650,-0.1370179244,-0.5348319615,-0.7861634266,0.2777191531
4.2700,-0.1363826992,-0.5351137644,-0.7861171653,0.2776199217
4.2750,-0.1357443033,-0.5353992027,-0.7860649065,0.277530432
4.2800,-0.1351050083,-0.5356888052,-0.7860067793,0.2774481639
4.2850,-0.1344678543,-0.5359821068,-0.7859418652,0.2773751284
4.2900,-0.1338346658,-0.5362795047,-0.7858700191,0.2773100938
4.2950,-0.1332053669,-0.5365808849,-0.7857909856,0.2772540551
4.3000,-0.1325817016,-0.5368855073,-0.7857055469,0.2772054076
4.3050,-0.1319617636,-0.5371928595,-0.7856143526,0.2771642357
4.3100,-0.1313462549,-0.5375041859,-0.7855170547,0.2771287937
4.3150,-0.1307356274,-0.5378175201,-0.7854153383,0.2770979197
4.3200,-0.130130438,-0.5381343655,-0.7853083753,0.2770708024
4.3250,-0.1295278011,-0.5384524741,-0.7851986869,0.2770460321
4.3300,-0.1289277505,-0.5387709075,-0.7850867905,0.2770239626
4.3350,-0.1283305713,-0.539090818,-0.7849725537,0.2770026071
4.3400,-0.1277359273,-0.5394100539,-0.7848574403,0.2769821746
4.3450,-0.1271436512,-0.5397293587,-0.7847410266,0.2769625109
4.3500,-0.1265539249,-0.5400471826,-0.784624366,0.2769435844
4.3550,-0.1259680875,-0.5403638711,-0.7845069496,0.2769255744
4.3600,-0.1253864343,-0.5406788092,-0.7843889781,0.2769090077
4.3650,-0.1248103248,-0.5409927386,-0.7842703279,0.2768922035
4.3700,-0.1242398587,-0.5413060447,-0.7841509463,0.2768745509
4.3750,-0.1236766316,-0.5416172488,-0.7840317728,0.2768556047
4.3800,-0.1231199893,-0.5419273608,-0.7839128545,0.276833597
4.3850,-0.1225673258,-0.5422351673,-0.7837950795,0.2768095869
4.3900,-0.1220205218,-0.5425399938,-0.7836791462,0.2767821222
4.3950,-0.1214781471,-0.5428424416,-0.7835655622,0.2767492603
4.4000,-0.120941857,-0.5431427455,-0.7834532899,0.2767127893
4.4050,-0.120412423,-0.5434418185,-0.783341956,0.2766716794
4.4100,-0.1198906945,-0.5437412929,-0.7832309345,0.2766241693
4.4150,-0.1193771338,-0.5440401123,-0.783120407,0.2765716621
4.4200,-0.1188703961,-0.5443389611,-0.7830107188,0.2765124565
4.4250,-0.1183696038,-0.5446387187,-0.7829008492,0.2764481205
4.4300,-0.1178725971,-0.5449386067,-0.782792754,0.2763755961
4.4350,-0.1173816258,-0.5452380898,-0.7826866696,0.2762943296
4.4400,-0.1168935436,-0.545539012,-0.7825824723,0.2762023893
4.4450,-0.1164078503,-0.5458404394,-0.7824804244,0.2761010911
4.4500,-0.1159241078,-0.5461421547,-0.7823820409,0.2759867573
4.4550,-0.1154409096,-0.5464436293,-0.7822877475,0.275859813
4.4600,-0.1149567166,-0.5467472301,-0.7821966663,0.275718688
4.4650,-0.1144716798,-0.5470520276,-0.7821097739,0.2755623618
4.4700,-0.1139857329,-0.5473592934,-0.7820254625,0.2753928695
4.4750,-0.1134981177,-0.5476697418,-0.7819429932,0.2752111672
4.4800,-0.1130088917,-0.5479822375,-0.7818628914,0.2750179572
4.4850,-0.1125172687,-0.5482970692,-0.7817850776,0.274813174
4.4900,-0.1120222985,-0.5486140871,-0.7817086098,0.2746001411
4.4950,-0.1115234255,-0.5489339599,-0.7816337605,0.2743769264
4.5000,-0.1110192385,-0.549257142,-0.7815601133,0.2741443233
4.5050,-0.110509745,-0.5495832581,-0.7814870546,0.2739047686
4.5100,-0.1099948505,-0.5499116814,-0.7814156416,0.2736564827
4.5150,-0.1094732138,-0.5502430088,-0.7813459965,0.2733983916
4.5200,-0.1089448088,-0.5505755994,-0.7812794965,0.2731297976
4.5250,-0.108409513,-0.5509114592,-0.7812149821,0.2728499467
4.5300,-0.1078673356,-0.5512516951,-0.78115153,0.2725591562
4.5350,-0.1073209116,-0.5515956189,-0.781089368,0.2722570372
4.5400,-0.1067704935,-0.5519433868,-0.781027821,0.2719450353
4.5450,-0.1062171664,-0.5522967214,-0.7809664863,0.2716203092
4.5500,-0.105661091,-0.5526550171,-0.7809049852,0.2712850347
4.5550,-0.1051021324,-0.5530174238,-0.7808441882,0.2709384146
4.5600,-0.1045400642,-0.5533840811,-0.7807841752,0.2705799429
4.5650,-0.1039743224,-0.5537548235,-0.7807248199,0.2702104576
4.5700,-0.103404489,-0.5541291178,-0.7806660399,0.2698313669
4.5750,-0.1028309568,-0.5545063339,-0.7806080308,0.2694431707
4.5800,-0.1022522249,-0.5548856328,-0.7805511457,0.2690470701
4.5850,-0.1016686471,-0.5552662208,-0.7804960941,0.268642434
4.5900,-0.1010794896,-0.5556465923,-0.7804436367,0.2682303694
4.5950,-0.100484591,-0.5560266111,-0.7803938923,0.2678108056
4.6000,-0.09988166121,-0.5564061278,-0.7803466844,0.2673853527
4.6050,-0.09927200242,-0.5567863743,-0.7803011663,0.2669533532
4.6100,-0.09865588684,-0.5571657916,-0.780257697,0.2665168342
4.6150,-0.09803268088,-0.5575448148,-0.7802158753,0.2660762313
4.6200,-0.09740210911,-0.5579227612,-0.7801760428,0.2656320083
4.6250,-0.09676745155,-0.5583015534,-0.7801360934,0.2651850515
4.6300,-0.09612998945,-0.55868251,-0.7800963404,0.2647311425
4.6350,-0.095490571,-0.5590650591,-0.7800563642,0.2642723581
4.6400,-0.09484948603,-0.5594504842,-0.7800163859,0.2638051713
4.6450,-0.09420848768,-0.5598375501,-0.7799769102,0.2633300171
4.6500,-0.09356866852,-0.5602268025,-0.7799376384,0.2628461796
4.6550,-0.09293036706,-0.5606173481,-0.7798994024,0.2623529265
4.6600,-0.09229381008,-0.5610099846,-0.7798614886,0.2618505459
4.6650,-0.09165847618,-0.5614029813,-0.7798251666,0.2613391011
4.6700,-0.09102332314,-0.5617958721,-0.7797903866,0.2608200639
4.6750,-0.09038775915,-0.5621902003,-0.779756273,0.2602928859
4.6800,-0.08975115075,-0.5625856664,-0.7797225085,0.2597593283
4.6850,-0.08911364114,-0.5629839951,-0.7796878413,0.2592193093
4.6900,-0.08847582351,-0.5633842402,-0.779651701,0.2586763453
4.6950,-0.08783478311,-0.5637858706,-0.7796144958,0.258131325
4.7000,-0.08719001334,-0.5641887552,-0.7795767086,0.2575832012
4.7050,-0.08653935752,-0.5645910719,-0.7795398821,0.2570319696
4.7100,-0.08588360333,-0.5649924183,-0.7795036385,0.2564793393
4.7150,-0.08522388154,-0.5653940156,-0.7794674861,0.2559236904
4.7200,-0.08456017833,-0.5657950056,-0.7794324498,0.2553637487
4.7250,-0.08389331725,-0.5661957586,-0.7793979514,0.2548001327
4.7300,-0.08322350154,-0.5665960014,-0.7793633351,0.2542353476
4.7350,-0.08254868275,-0.5669959198,-0.7793285545,0.2536697579
4.7400,-0.08187166931,-0.5673948715,-0.7792937839,0.2531033146
4.7450,-0.08119156878,-0.567794624,-0.7792581645,0.2525349622
4.7500,-0.08050830912,-0.5681950202,-0.7792212807,0.251966321
4.7550,-0.07982344925,-0.5685982399,-0.7791810227,0.2513984735
4.7600,-0.07913720036,-0.5690012257,-0.779139427,0.2508319398
4.7650,-0.07844898563,-0.569404062,-0.7790963071,0.2502672871
4.7700,-0.07775827229,-0.5698069037,-0.7790519119,0.2497035486
4.7750,-0.0770654342,-0.570209947,-0.7790066395,0.2491388987
4.7800,-0.0763737262,-0.5706133488,-0.7789599511,0.2485736404
4.7850,-0.07568094261,-0.5710167893,-0.7789116659,0.2480097536
4.7900,-0.07498799258,-0.5714207366,-0.7788617491,0.247445991
4.7950,-0.07429400432,-0.5718234595,-0.778810919,0.2468843545
4.8000,-0.07359988957,-0.5722248849,-0.7787592162,0.2463246242
4.8050,-0.07290443703,-0.5726250692,-0.7787067964,0.2457665526
4.8100,-0.07220765046,-0.57302661,-0.7786516502,0.2452104546
4.8150,-0.07150938218,-0.5734294915,-0.7785936949,0.2446566672
4.8200,-0.07080810151,-0.5738355959,-0.778531737,0.2441050106
4.8250,-0.07010422553,-0.5742419996,-0.7784671774,0.243557749
4.8300,-0.06939907446,-0.5746487015,-0.7784006911,0.2430123502
4.8350,-0.06869130829,-0.5750554107,-0.7783330182,0.2424675062
4.8400,-0.06798274149,-0.5754619802,-0.7782648964,0.241920663
4.8450,-0.06727285009,-0.575867647,-0.7781966179,0.241372825
4.8500,-0.06656155549,-0.5762731737,-0.7781287266,0.2408204172
4.8550,-0.06584978901,-0.5766790825,-0.7780596518,0.2402669752
4.8600,-0.06513797678,-0.5770847506,-0.7779897311,0.2397127717
4.8650,-0.06442579469,-0.5774889901,-0.7779196298,0.2391585937
4.8700,-0.063713279,-0.5778936632,-0.7778478277,0.2386048807
4.8750,-0.06299937752,-0.5782981044,-0.7777743982,0.2380532849
4.8800,-0.06228346067,-0.5787031263,-0.7776986961,0.2375041058
4.8850,-0.06156531545,-0.5791091129,-0.7776204991,0.2369571832
4.8900,-0.06084432669,-0.5795175725,-0.7775387986,0.2364122834
4.8950,-0.06012212545,-0.5799288023,-0.7774537161,0.2358678308
4.9000,-0.05940182057,-0.5803434354,-0.7773653093,0.2353212626
4.9050,-0.05868525038,-0.5807609796,-0.7772748657,0.234769055
4.9100,-0.05797476801,-0.5811814583,-0.7771829213,0.2342087653
4.9150,-0.05727248827,-0.5816054744,-0.7770898992,0.2336369465
4.9200,-0.05658030645,-0.58203238,-0.7769954439,0.2330559112
4.9250,-0.0558967278,-0.5824620093,-0.7769000279,0.232464858
4.9300,-0.05522084437,-0.5828937362,-0.7768028374,0.2318682868
4.9350,-0.05455126988,-0.5833268858,-0.7767041613,0.2312672676
4.9400,-0.05388765659,-0.5837609728,-0.7766026229,0.2306677551
4.9450,-0.05322811158,-0.5841964294,-0.7764978477,0.2300704079
4.9500,-0.05257173492,-0.5846337085,-0.7763887214,0.2294780879
4.9550,-0.05191743724,-0.5850725197,-0.7762753388,0.2288915129
4.9600,-0.05126567897,-0.585510415,-0.7761590635,0.2283122693
4.9650,-0.05061565397,-0.5859477708,-0.7760391374,0.2277422288
4.9700,-0.0499658475,-0.5863842277,-0.7759161063,0.2271808698
4.9750,-0.04931712581,-0.5868187995,-0.7757909396,0.2266273056
4.9800,-0.0486696837,-0.5872504595,-0.7756647291,0.2260804896
4.9850,-0.04802516224,-0.5876761828,-0.7755397827,0.2255400926
4.9900,-0.04738636022,-0.5880965175,-0.7754153809,0.22500668
4.9950,-0.04675739201,-0.588511618,-0.7752910719,0.2244806798
5.0000,-0.04613846503,-0.5889212394,-0.7751672097,0.2239616326
5.0050,-0.04553020448,-0.5893251389,-0.7750436909,0.2234505724
5.0100,-0.04493134412,-0.5897224233,-0.7749217036,0.2229461618
5.0150,-0.04434120799,-0.5901113515,-0.7748022924,0.2224496747
5.0200,-0.04376188286,-0.5904918317,-0.7746852276,0.2219619165
5.0250,-0.04319354085,-0.5908632206,-0.7745706362,0.2214843158
5.0300,-0.04263486473,-0.5912259165,-0.7744586236,0.2210158917
5.0350,-0.04208397998,-0.5915797209,-0.774349617,0.2205562129
5.0400,-0.04153935928,-0.591925099,-0.7742435636,0.220104664
5.0450,-0.04100385433,-0.5922611867,-0.7741409416,0.2196614971
5.0500,-0.04047621691,-0.5925882253,-0.774041744,0.2192264802
5.0550,-0.03995615713,-0.5929046584,-0.7739475039,0.2187986126
5.0600,-0.03944179365,-0.5932130841,-0.7738561167,0.2183787819
5.0650,-0.03893233665,-0.593513224,-0.7737679392,0.217966746
5.0700,-0.0384278028,-0.5938046313,-0.7736827028,0.2175647932
5.0750,-0.03792631543,-0.5940858584,-0.7736010743,0.2171749647
5.0800,-0.03742422201,-0.5943563941,-0.7735226405,0.2168008973
5.0850,-0.03692085089,-0.5946155905,-0.7734478176,0.2164431188
5.0900,-0.03641399547,-0.5948624188,-0.7733778296,0.2161005697
5.0950,-0.03590494937,-0.5950973325,-0.773312295,0.2157732465
5.1000,-0.03539195808,-0.5953211649,-0.7732512926,0.2154589484
5.1050,-0.03487679061,-0.5955366724,-0.7731939111,0.2151531014
5.1100,-0.03436161869,-0.5957426585,-0.7731413892,0.2148542675
5.1150,-0.03384789633,-0.5959411098,-0.7730931256,0.2145589261
5.1200,-0.03333991635,-0.5961333117,-0.7730481803,0.2142662726
5.1250,-0.03284329323,-0.5963219513,-0.7730055594,0.2139716186
5.1300,-0.03235905485,-0.5965080443,-0.7729651462,0.213672477
5.1350,-0.03189135763,-0.5966915063,-0.7729276642,0.2133659148
5.1400,-0.03144069328,-0.5968727921,-0.7728934832,0.2130493288
5.1450,-0.03100754107,-0.597050388,-0.7728644562,0.2127202364
5.1500,-0.03059634779,-0.5972228687,-0.7728417001,0.2123780008
5.1550,-0.03020570215,-0.5973920624,-0.7728253719,0.2120171783
5.1600,-0.02983545926,-0.5975583289,-0.7728158032,0.2116355905
5.1650,-0.02948437599,-0.5977219656,-0.772813936,0.2112291262
5.1700,-0.02915018687,-0.5978826576,-0.7728207354,0.2107954109
5.1750,-0.02883293921,-0.598040531,-0.7728364273,0.2103331679
5.1800,-0.02853129721,-0.5981940742,-0.7728618485,0.2098436985
5.1850,-0.02824151443,-0.5983437055,-0.7728967832,0.2093269916
5.1900,-0.0279610886,-0.598487439,-0.7729425896,0.208783898
5.1950,-0.02768830713,-0.5986253948,-0.772998732,0.2082161252
5.2000,-0.02742067187,-0.5987581183,-0.7730638491,0.207627329
5.2050,-0.02715665676,-0.5988848129,-0.7731373378,0.2070221094
5.2100,-0.02689483708,-0.599006303,-0.7732182939,0.2064015181
5.2150,-0.02663277176,-0.599123768,-0.7733050592,0.2057685385
5.2200,-0.02637102412,-0.5992374858,-0.773397741,0.2051217658
5.2250,-0.02611244939,-0.5993480529,-0.7734958009,0.2044609925
5.2300,-0.02585842519,-0.599457644,-0.7735979846,0.2037842809
5.2350,-0.0256128197,-0.5995650652,-0.7737051882,0.2030911072
5.2400,-0.025378793,-0.5996714068,-0.7738179215,0.2023757521
5.2450,-0.02515947145,-0.5997779444,-0.773935034,0.2016382443
5.2500,-0.02495760099,-0.5998842232,-0.7740574532,0.2008758222
5.2550,-0.02477744381,-0.5999917861,-0.7741841028,0.2000872554
5.2600,-0.02462117202,-0.6001029905,-0.7743132207,0.1992717614
5.2650,-0.02449308026,-0.6002185295,-0.7744444754,0.1984277206
5.2700,-0.02439755013,-0.6003395139,-0.7745764752,0.1975563505
5.2750,-0.02433388769,-0.6004671787,-0.7747075972,0.1966600315
5.2800,-0.02430317769,-0.600602261,-0.7748366951,0.1957405822
5.2850,-0.02430574947,-0.6007466808,-0.7749616914,0.1947999818
5.2900,-0.02433737597,-0.6009019454,-0.775081471,0.1938382252
5.2950,-0.02439426843,-0.6010676663,-0.7751958752,0.1928572927
5.3000,-0.02447625295,-0.6012433898,-0.7753045862,0.1918595784
5.3050,-0.0245824225,-0.6014281428,-0.7754079578,0.1908465155
5.3100,-0.02471355112,-0.6016220209,-0.775505028,0.1898213262
5.3150,-0.02486799719,-0.6018246601,-0.7755959267,0.1887845853
5.3200,-0.02504093153,-0.6020359851,-0.7756798325,0.1877403045
5.3250,-0.02522891291,-0.6022534517,-0.775759144,0.1866869902
5.3300,-0.0254306964,-0.6024759054,-0.7758337722,0.1856287179
5.3350,-0.0256463767,-0.602701689,-0.7759045136,0.1845673949
5.3400,-0.02587517484,-0.6029317309,-0.7759698359,0.1835064492
5.3450,-0.02611374102,-0.6031632676,-0.7760314209,0.1824482912
5.3500,-0.02636233511,-0.6033978202,-0.7760872659,0.1813963992
5.3550,-0.02661996181,-0.6036357811,-0.7761367301,0.1803524258
5.3600,-0.02688894605,-0.6038748409,-0.7761809779,0.1793188521
5.3650,-0.02716814773,-0.6041153957,-0.7762189321,0.1782993269
5.3700,-0.02745706129,-0.604355883,-0.7762514955,0.177295494
5.3750,-0.02775387484,-0.6045963401,-0.7762791674,0.1763055364
5.3800,-0.02805949149,-0.6048358231,-0.7763031153,0.1753275938
5.3850,-0.02837508783,-0.6050753205,-0.7763232028,0.1743588128
5.3900,-0.02870267484,-0.6053139272,-0.7763400708,0.1733992516
5.3950,-0.02904397711,-0.6055511342,-0.7763542581,0.1724480707
5.4000,-0.0294001023,-0.6057858739,-0.7763667402,0.1715045005
5.4050,-0.02977235176,-0.606016664,-0.7763787043,0.1705682199
5.4100,-0.03016200132,-0.6062422021,-0.7763919765,0.1696353289
5.4150,-0.03057103935,-0.6064631561,-0.7764066129,0.168702766
5.4200,-0.03100246503,-0.6066777205,-0.7764250862,0.167764943
5.4250,-0.03145404934,-0.6068855324,-0.7764484685,0.1668183714
5.4300,-0.03192698496,-0.6070847043,-0.7764785495,0.165861061
5.4350,-0.03241867058,-0.6072768304,-0.7765140631,0.1648932708
5.4400,-0.03292741691,-0.6074614547,-0.7765554621,0.1639145528
5.4450,-0.03345249147,-0.6076408095,-0.7766008414,0.1629254756
5.4500,-0.03398994411,-0.6078157042,-0.776649762,0.1619256018
5.4550,-0.03454097444,-0.6079858546,-0.7767017552,0.1609176966
5.4600,-0.03510435642,-0.6081531242,-0.7767554932,0.1599011116
5.4650,-0.03568067444,-0.6083168306,-0.7768110302,0.1588777722
5.4700,-0.03627058621,-0.6084787004,-0.7768669949,0.1578473565
5.4750,-0.0368731382,-0.6086391646,-0.7769231961,0.1568090763
5.4800,-0.03748936898,-0.6088002241,-0.7769784771,0.1557603305
5.4850,-0.03811940646,-0.6089622233,-0.7770326778,0.1547001582
5.4900,-0.03876307539,-0.6091266791,-0.7770848119,0.1536271716
5.4950,-0.03941644629,-0.6092930331,-0.7771351555,0.1525427601
5.5000,-0.04007626343,-0.6094599953,-0.7771853138,0.1514443636
5.5050,-0.04073792006,-0.6096275493,-0.7772353689,0.1503324796
5.5100,-0.04139837874,-0.609795345,-0.7772857931,0.1492065927
5.5150,-0.04205637606,-0.6099613726,-0.7773376908,0.1480692394
5.5200,-0.04270797623,-0.6101263336,-0.7773908614,0.1469194828
5.5250,-0.04334917757,-0.6102906024,-0.7774450921,0.1457578755
5.5300,-0.04397854291,-0.6104537719,-0.7775005094,0.144585746
5.5350,-0.04459441607,-0.6106199446,-0.7775543796,0.1434008649
5.5400,-0.04519808191,-0.6107881716,-0.777606966,0.1422053068
5.5450,-0.04579015651,-0.6109604496,-0.7776571508,0.1409962636
5.5500,-0.04637297447,-0.611138499,-0.7777032755,0.1397744523
5.5550,-0.04694809478,-0.6113245284,-0.7777441312,0.1385361461
5.5600,-0.04752011066,-0.6115193741,-0.7777788442,0.1372806019
5.5650,-0.04809118624,-0.6117233314,-0.7778072453,0.1360062233
5.5700,-0.04866428202,-0.6119365774,-0.7778289641,0.1347127148
5.5750,-0.04924334446,-0.6121598185,-0.7778434026,0.1333982411
5.5800,-0.04983024096,-0.6123926195,-0.7778503821,0.132064415
5.5850,-0.05042610704,-0.6126346126,-0.7778501085,0.1307105504
5.5900,-0.05103396547,-0.6128829773,-0.7778440598,0.1293391247
5.5950,-0.0516563525,-0.6131365183,-0.7778326459,0.1279515776
5.6000,-0.05229264504,-0.6133945186,-0.7778161298,0.1265492475
5.6050,-0.05294280061,-0.6136554437,-0.7777950591,0.1251355361
5.6100,-0.05360196109,-0.6139194089,-0.7777693992,0.1237115625
5.6150,-0.0542681725,-0.6141852298,-0.777739518,0.122281279
5.6200,-0.05494006905,-0.6144499476,-0.7777073391,0.120847612
5.6250,-0.05561593859,-0.6147144165,-0.7776715444,0.1194153359
5.6300,-0.05629234774,-0.6149764752,-0.7776337616,0.1179866067
5.6350,-0.05696452887,-0.6152355556,-0.7775941155,0.1165660548
5.6400,-0.0576285901,-0.6154875331,-0.7775558011,0.1151564948
5.6450,-0.05827963339,-0.615731479,-0.7775193254,0.1137625982
5.6500,-0.05891187709,-0.6159640785,-0.7774875372,0.1123867171
5.6550,-0.05951954098,-0.6161832745,-0.7774616231,0.1110361252
5.6600,-0.0600971881,-0.6163878052,-0.7774428663,0.1097132227
5.6650,-0.06064338282,-0.6165755045,-0.7774329546,0.1084206087
5.6700,-0.0611557652,-0.6167473938,-0.7774313473,0.1071593432
5.6750,-0.06163789685,-0.6169027557,-0.7774380438,0.1059332232
5.6800,-0.06209169163,-0.6170439491,-0.7774513388,0.1047415982
5.6850,-0.06252110586,-0.617170227,-0.7774717952,0.1035839269
5.6900,-0.0629300843,-0.6172848255,-0.777497134,0.1024570903
5.6950,-0.06332445809,-0.6173893506,-0.7775262386,0.1013575407
5.7000,-0.06371004658,-0.6174857802,-0.7775576596,0.100281739
5.7050,-0.06409305568,-0.6175739476,-0.7775916187,0.09922587337
5.7100,-0.06447679497,-0.6176567081,-0.7776259794,0.09818742254
5.7150,-0.06486573513,-0.6177334048,-0.7776611365,0.09716498252
5.7200,-0.0652622738,-0.617804105,-0.7776971403,0.09615654701
5.7250,-0.06567091132,-0.6178692021,-0.7777336069,0.09515995521
5.7300,-0.06609344306,-0.6179298016,-0.7777698886,0.09417227558
5.7350,-0.06653251608,-0.6179851974,-0.7778066016,0.09319125812
5.7400,-0.06699199552,-0.618034728,-0.7778443834,0.09221313772
5.7450,-0.06747257242,-0.6180788388,-0.7778832286,0.09123422425
5.7500,-0.06797361174,-0.6181180113,-0.7779231942,0.09025085151
5.7550,-0.06849232964,-0.6181504728,-0.7779662141,0.08926008915
5.7600,-0.06902511364,-0.6181749806,-0.7780133678,0.0882633934
5.7650,-0.06956663123,-0.6181923949,-0.7780644457,0.0872603291
5.7700,-0.07011261115,-0.6182008671,-0.778121138,0.08625198135
5.7750,-0.0706581453,-0.6182008337,-0.7781834182,0.08523921277
5.7800,-0.0711972577,-0.6181922285,-0.7782517473,0.08422313767
5.7850,-0.07172546381,-0.6181740269,-0.778326993,0.08320710473
5.7900,-0.07223977877,-0.6181472305,-0.7784084645,0.08219293332
5.7950,-0.07273834815,-0.6181122137,-0.7784959296,0.08118196582
5.8000,-0.07322142355,-0.6180702963,-0.7785880562,0.08017712149
5.8050,-0.073690118,-0.6180215087,-0.7786847482,0.07917855937
5.8100,-0.07414674397,-0.6179668049,-0.778784825,0.07818877575
5.8150,-0.07458996389,-0.6179078181,-0.7788875178,0.0772042764
5.8200,-0.07502582741,-0.617845181,-0.7789917711,0.07622517967
5.8250,-0.07545821574,-0.6177779518,-0.7790981198,0.07525011381
5.8300,-0.07589145882,-0.6177071575,-0.7792057307,0.0742750513
5.8350,-0.07633001684,-0.6176312859,-0.7793155526,0.07329797248
5.8400,-0.07677715334,-0.6175522577,-0.7794259757,0.07231615405
5.8450,-0.07723526284,-0.6174691312,-0.779537517,0.07132913679
5.8500,-0.07770589683,-0.6173816237,-0.7796503696,0.07033509477
5.8550,-0.0781874337,-0.6172892023,-0.7797649457,0.06933538349
5.8600,-0.07867769074,-0.6171916023,-0.779881691,0.06832931427
5.8650,-0.07917633395,-0.6170893171,-0.7800000873,0.06731824918
5.8700,-0.07968190761,-0.6169826919,-0.7801201574,0.06630001193
5.8750,-0.08019342453,-0.6168704229,-0.7802427958,0.06527691563
5.8800,-0.08070873815,-0.6167534136,-0.7803675836,0.06424765261
5.8850,-0.08122623241,-0.6166321682,-0.780494147,0.06321356571
5.8900,-0.08174134099,-0.6165075081,-0.7806222226,0.06217548686
5.8950,-0.08225237182,-0.6163786109,-0.7807525067,0.06113492166
5.9000,-0.08275425368,-0.6162456062,-0.7808853229,0.06009325103
5.9050,-0.08324407537,-0.6161101662,-0.7810196231,0.0590511249
5.9100,-0.0837214675,-0.615970052,-0.7811570288,0.05801126844
5.9150,-0.08418432761,-0.6158262466,-0.7812968635,0.05697582071
5.9200,-0.08463224644,-0.6156765996,-0.7814408854,0.05594506445
5.9250,-0.08506402884,-0.6155202304,-0.7815900123,0.05491820877
5.9300,-0.08548137643,-0.6153576937,-0.7817435993,0.05389608528
5.9350,-0.08588639136,-0.6151878198,-0.781902267,0.05288023288
5.9400,-0.08628037385,-0.6150104936,-0.7820659935,0.05187071979
5.9450,-0.08666282075,-0.6148263963,-0.7822342808,0.05086833833
5.9500,-0.08703778088,-0.6146364833,-0.782405867,0.04987461558
5.9550,-0.08740704144,-0.6144409488,-0.7825805179,0.04888826564
5.9600,-0.0877743865,-0.6142414755,-0.7827565724,0.0479084032
5.9650,-0.08814008988,-0.614038343,-0.7829337771,0.04693547156
5.9700,-0.08850753715,-0.6138296845,-0.7831134049,0.04596661136
5.9750,-0.08887632889,-0.6136164616,-0.7832948377,0.04500037152
5.9800,-0.08925012889,-0.61339757,-0.7834786026,0.04403538232
5.9850,-0.08962780031,-0.6131724792,-0.7836652813,0.04307081344
5.9900,-0.09001287469,-0.612940147,-0.7838553313,0.04210555895
5.9950,-0.0904043039,-0.6126992466,-0.7840500096,0.0411373012
6.0000,-0.09080325816,-0.6124501764,-0.7842488783,0.04016524038
6.0050,-0.09120988494,-0.6121944367,-0.7844506875,0.03918989034
6.0100,-0.09162546793,-0.611932071,-0.7846552757,0.03821010981
6.0150,-0.0920504938,-0.6116627567,-0.7848629169,0.03722338442
6.0200,-0.09248538074,-0.6113893668,-0.7850712835,0.03622949546
6.0250,-0.0929291287,-0.6111120454,-0.785280254,0.03523021085
6.0300,-0.09338182828,-0.6108321262,-0.7854886835,0.03422682859
6.0350,-0.09384442491,-0.6105496804,-0.7856963629,0.03321952637
6.0400,-0.09431327864,-0.6102673182,-0.7859015695,0.03221069523
6.0450,-0.09478909892,-0.6099833452,-0.7861054588,0.03120181004
6.0500,-0.09526958348,-0.6096996687,-0.786306774,0.03019399898
6.0550,-0.09575285493,-0.6094171655,-0.7865050678,0.02918711216
6.0600,-0.09623691423,-0.6091370505,-0.7866996904,0.02817990719
6.0650,-0.09672045763,-0.6088598063,-0.7868904788,0.0271710087
6.0700,-0.09720096278,-0.608585502,-0.7870776594,0.0261613777
6.0750,-0.09767578221,-0.6083129068,-0.787262561,0.02514973011
6.0800,-0.09814392174,-0.6080418897,-0.7874453749,0.02413736971
6.0850,-0.09860153676,-0.6077739589,-0.787625399,0.02312536698
6.0900,-0.09904531918,-0.6075089351,-0.7878032408,0.02211271549
6.0950,-0.09947349198,-0.6072469721,-0.7879790529,0.02109861505
6.1000,-0.09988186554,-0.6069866015,-0.7881545853,0.02008054325
6.1050,-0.100270572,-0.6067284453,-0.7883294068,0.01905655547
6.1100,-0.1006354828,-0.6064723077,-0.7885043115,0.01802194373
6.1150,-0.1009776628,-0.6062162928,-0.7886806144,0.01697664319
6.1200,-0.1012952444,-0.605959298,-0.7888594372,0.0159182579
6.1250,-0.1015889384,-0.6057012713,-0.7890407421,0.01484469038
6.1300,-0.1018590745,-0.6054415874,-0.789224923,0.01375623751
6.1350,-0.1021066377,-0.6051788221,-0.7894128836,0.01265412738
6.1400,-0.102329637,-0.6049135427,-0.7896044149,0.01153773205
6.1450,-0.1025294648,-0.6046445488,-0.7898002123,0.01040687859
6.1500,-0.1027066514,-0.6043725728,-0.7899995656,0.009264088091
6.1550,-0.1028642889,-0.6040973087,-0.7902022505,0.008110672369
6.1600,-0.1030042302,-0.6038178891,-0.7904086183,0.006949930439
6.1650,-0.1031276808,-0.6035354221,-0.7906176212,0.005783847908
6.1700,-0.1032344686,-0.6032493092,-0.790829695,0.004616168048
6.1750,-0.1033250889,-0.6029597693,-0.7910445949,0.003448404594
6.1800,-0.1034002297,-0.6026674005,-0.7912617676,0.002283008408
6.1850,-0.1034607921,-0.6023712769,-0.7914818074,0.001121524644
6.1900,0.1035107929,0.6020724677,0.7917033903,3.365810154e-5
6.1950,0.1035495627,0.6017712374,0.7919264302,0.001181117319
6.2000,0.1035802631,0.601468308,0.7921500031,0.002318656901
6.2050,0.1036057269,0.6011631093,0.7923742185,0.003444875458
6.2100,0.1036253852,0.6008560654,0.7925988817,0.004558615671
6.2150,0.1036416783,0.6005474284,0.7928235178,0.005662010546
6.2200,0.1036541294,0.6002389449,0.793046919,0.00675387135
6.2250,0.1036647725,0.5999304393,0.7932690031,0.007834001228
6.2300,0.1036710831,0.5996230657,0.7934892938,0.008900909274
6.2350,0.1036723144,0.5993174121,0.7937075008,0.009954593617
6.2400,0.1036664487,0.5990142362,0.793923381,0.01099442548
6.2450,0.1036556586,0.5987144375,0.7941359897,0.01202316741
6.2500,0.1036394099,0.5984156464,0.7943471718,0.01304444602
6.2550,0.1036207291,0.5981185243,0.7945560273,0.01406040314
6.2600,0.1035994392,0.5978221394,0.7947632607,0.01507332835
6.2650,0.1035772416,0.5975265424,0.7949685412,0.01608740573
6.2700,0.1035572954,0.5972332319,0.7951703407,0.01710211835
6.2750,0.1035396027,0.5969426737,0.7953682573,0.01811988709
6.2800,0.1035242305,0.5966545485,0.7955625349,0.01913991867
6.2850,0.1035135311,0.596370262,0.7957517753,0.02016362035
6.2900,0.1035056436,0.5960906153,0.7959356479,0.02118972388
6.2950,0.1035001524,0.5958170618,0.7961131783,0.02221608985
6.3000,0.1034977558,0.5955487706,0.7962848847,0.02324346576
6.3050,0.1034980579,0.5952854069,0.7964511057,0.02427081558
6.3100,0.1035022654,0.5950278484,0.7966110652,0.02529726331
6.3150,0.1035083182,0.5947766315,0.796764802,0.02631799545
6.3200,0.1035182959,0.5945310544,0.7969126329,0.02733209353
6.3250,0.1035317444,0.5942925205,0.7970536734,0.02833760143
6.3300,0.1035481527,0.5940605098,0.7971884413,0.02933393663
6.3350,0.103568529,0.5938354399,0.7973166099,0.03031919615
6.3400,0.1035938345,0.5936167925,0.7974385092,0.03129289311
6.3450,0.1036248829,0.5934067752,0.797552491,0.03225378824
6.3500,0.1036615214,0.593203471,0.7976601057,0.03320070485
6.3550,0.1037047859,0.5930073088,0.7977610795,0.03413076358
6.3600,0.1037554709,0.5928176118,0.7978560004,0.03504117492
6.3650,0.1038140552,0.5926355623,0.7979440856,0.03593004946
6.3700,0.1038781363,0.5924617273,0.7980253904,0.03679552636
6.3750,0.1039489148,0.5922973063,0.7980989863,0.03763684561
6.3800,0.1040240801,0.5921430908,0.7981647719,0.0384518874
6.3850,0.1041055699,0.5920000087,0.7982217409,0.03924375618
6.3900,0.1041942262,0.5918679956,0.798269894,0.04001268888
6.3950,0.1042918647,0.591748681,0.7983078418,0.04075898975
6.4000,0.1043995483,0.5916423735,0.7983353132,0.04148208998
6.4050,0.1045152632,0.5915489627,0.7983527449,0.04218150217
6.4100,0.1046405357,0.5914686348,0.7983599094,0.04285635736
6.4150,0.1047737798,0.5914022874,0.7983564622,0.04350573312
6.4200,0.104913154,0.5913511236,0.7983419979,0.04412633094
6.4250,0.1050550959,0.5913158909,0.7983166507,0.04471542425
6.4300,0.1051981024,0.5912941503,0.7982824595,0.04527363496
6.4350,0.1053397707,0.5912868183,0.7982392674,0.0457985074
6.4400,0.1054791665,0.5912912423,0.7981893237,0.04628839807
6.4450,0.1056166126,0.5913085179,0.7981319282,0.04674176826
6.4500,0.1057516334,0.5913355751,0.7980694296,0.04715946592
6.4550,0.1058858007,0.5913727276,0.798001505,0.04754042846
6.4600,0.1060179788,0.5914208196,0.7979276528,0.04788593937
6.4650,0.1061506827,0.5914770709,0.7978496274,0.04819625656
6.4700,0.1062849571,0.5915413622,0.7977673195,0.0484729678
6.4750,0.1064237887,0.5916131327,0.7976807222,0.04871697714
6.4800,0.106569959,0.591690658,0.7975906565,0.04893008929
6.4850,0.1067246219,0.5917733925,0.7974972645,0.0491143582
6.4900,0.1068870623,0.5918596099,0.7974016469,0.04927445091
6.4950,0.1070599072,0.5919508893,0.7973021841,0.04941202515
6.5000,0.1072431771,0.5920451386,0.7972002295,0.04953028287
6.5050,0.1074346725,0.5921424096,0.7970957937,0.04963319031
6.5100,0.1076372116,0.5922425618,0.7969884254,0.04972351967
6.5150,0.1078511377,0.5923448024,0.7968786386,0.04980163136
6.5200,0.1080751101,0.5924501609,0.7967656884,0.04986998392
6.5250,0.1083076962,0.5925593996,0.7966491664,0.0499290149
6.5300,0.1085505902,0.5926719711,0.7965292082,0.04997924033
6.5350,0.1088024627,0.5927892246,0.7964047625,0.05002412931
6.5400,0.1090615905,0.5929125307,0.7962751018,0.05006258646
6.5450,0.1093259271,0.593040297,0.7961417071,0.05009421084
6.5500,0.1095935705,0.5931755094,0.7960026992,0.05011753505
6.5550,0.1098618154,0.5933177467,0.7958588289,0.05013140214
6.5600,0.1101295732,0.5934674722,0.7957100748,0.05013295702
6.5650,0.1103954431,0.5936249622,0.7955565684,0.05011982506
6.5700,0.1106559979,0.5937895004,0.7953993337,0.05009170845
6.5750,0.1109109715,0.5939599167,0.7952394415,0.05004602385
6.5800,0.1111568715,0.5941372509,0.7950765055,0.04998427124
6.5850,0.1113932244,0.5943207788,0.794911262,0.049904379
6.5900,0.1116208478,0.5945100869,0.7947438618,0.04980699814
6.5950,0.1118387446,0.5947051315,0.7945744404,0.04969265977
6.6000,0.1120463478,0.5949060638,0.7944030706,0.04955958598
6.6050,0.1122443076,0.5951134425,0.7942292025,0.04940829683
6.6100,0.1124327278,0.5953256001,0.7940541071,0.04923806063
6.6150,0.1126118676,0.5955429259,0.793877231,0.04905234721
6.6200,0.1127808972,0.595764214,0.7936996159,0.04885069412
6.6250,0.1129389702,0.5959886695,0.7935218062,0.04863576832
6.6300,0.1130880058,0.5962165974,0.7933431946,0.04840916825
6.6350,0.1132266349,0.5964470644,0.7931644734,0.04817412776
6.6400,0.113356571,0.5966809346,0.7929845875,0.04793322523
6.6450,0.1134767433,0.5969167863,0.7928047776,0.04768609377
6.6500,0.1135886937,0.5971552482,0.7926242811,0.04743382037
6.6550,0.1136912854,0.5973966885,0.7924429484,0.04717691946
6.6600,0.1137842079,0.5976401309,0.7922614329,0.04691747878
6.6650,0.1138672362,0.5978861383,0.7920793773,0.04665488388
6.6700,0.1139413266,0.5981342726,0.7918969713,0.04638914574
6.6750,0.1140045328,0.5983858068,0.7917136284,0.04611857879
6.6800,0.1140580565,0.5986400942,0.7915296354,0.04584357894
6.6850,0.1140983064,0.5988961626,0.7913463352,0.04556249157
6.6900,0.1141258606,0.5991544444,0.7911633518,0.0452746102
6.6950,0.1141406927,0.5994132118,0.7909820021,0.04497973068
6.7000,0.1141426745,0.5996736719,0.7908014614,0.04467645557
6.7050,0.1141322366,0.5999351578,0.7906220973,0.04436595843
6.7100,0.1141100201,0.6001965986,0.7904447593,0.04404575826
6.7150,0.1140766669,0.6004579163,0.7902693183,0.04371738053
6.7200,0.1140335677,0.600718554,0.7900959105,0.04338221461
6.7250,0.1139805952,0.60097799,0.7899248996,0.04304105564
6.7300,0.1139187458,0.6012370006,0.789755595,0.04269295754
6.7350,0.1138494055,0.6014954122,0.7895878059,0.04234003809
6.7400,0.1137725445,0.6017545328,0.7894204834,0.04198322049
6.7450,0.1136887493,0.6020144328,0.7892534595,0.04162292118
6.7500,0.1135965862,0.602275906,0.7890863594,0.04125852725
6.7550,0.1134965932,0.602537618,0.7889200569,0.04089114923
6.7600,0.1133884511,0.6027986141,0.7887553438,0.04052033682
6.7650,0.1132708265,0.6030600477,0.7885915707,0.04014515303
6.7700,0.1131448218,0.6033213514,0.7884290218,0.03976523325
6.7750,0.113010785,0.6035813347,0.7882685636,0.03938028083
6.7800,0.1128693883,0.6038397911,0.7881102671,0.03898993021
6.7850,0.1127218741,0.6040973803,0.7879534663,0.03859364098
6.7900,0.1125701495,0.6043542657,0.7877977744,0.03819096359
6.7950,0.1124135993,0.6046094285,0.7876440302,0.0377823162
6.8000,0.1122560469,0.6048624235,0.7874919989,0.03736817196
6.8050,0.1120981587,0.6051131343,0.787341793,0.03694588593
6.8100,0.1119404881,0.6053620935,0.7871929903,0.0365138164
6.8150,0.1117842275,0.6056090896,0.7870454286,0.03607506557
6.8200,0.1116330542,0.6058538184,0.7868989659,0.03562624528
6.8250,0.1114855833,0.6060962908,0.7867536967,0.03516918669
6.8300,0.1113444817,0.6063373985,0.7866085477,0.0347038657
6.8350,0.1112100027,0.6065758562,0.7864644321,0.03423102358
6.8400,0.1110852058,0.6068114582,0.786321075,0.03375053009
6.8450,0.1109703188,0.6070451874,0.7861776382,0.03326334399
6.8500,0.1108662477,0.6072764504,0.7860344832,0.03276856952
6.8550,0.1107722722,0.6075044874,0.7858922398,0.03226746005
6.8600,0.1106867823,0.6077305402,0.7857501433,0.03176065279
6.8650,0.1106100146,0.6079532441,0.7856092398,0.03124740121
6.8700,0.1105391553,0.608174282,0.7854685716,0.03072882812
6.8750,0.1104762371,0.6083940554,0.7853274543,0.0302070164
6.8800,0.1104208192,0.6086116614,0.7851866816,0.02968102777
6.8850,0.1103735826,0.6088269871,0.7850461502,0.02915328708
6.8900,0.1103345336,0.6090398039,0.7849060622,0.02862309295
6.8950,0.1103063146,0.6092508614,0.7847653654,0.02809316865
6.9000,0.1102900362,0.6094599237,0.7846240818,0.02756373783
6.9050,0.1102862877,0.6096663296,0.7844825876,0.02703647693
6.9100,0.1102950239,0.6098718281,0.7843394639,0.0265135125
6.9150,0.1103193201,0.610075657,0.7841949058,0.02599403829
6.9200,0.1103573604,0.6102792623,0.7840480299,0.02547865399
6.9250,0.1104121824,0.6104820963,0.7838988156,0.02496811911
6.9300,0.1104836616,0.6106843548,0.7837471749,0.02446109299
6.9350,0.1105706192,0.6108870488,0.7835924838,0.02395769445
6.9400,0.1106726582,0.611089363,0.783435549,0.02345407615
6.9450,0.1107885352,0.6112928626,0.7832752405,0.02295286856
6.9500,0.1109164507,0.6114970276,0.7831122542,0.02245269252
6.9550,0.1110554099,0.6117023571,0.7829462875,0.02195525523
6.9600,0.1112028024,0.6119102441,0.7827766866,0.02145807105
6.9650,0.1113545657,0.612121391,0.7826034665,0.02096133707
6.9700,0.1115084324,0.6123361702,0.7824266352,0.02046569484
6.9750,0.1116617614,0.6125558868,0.7822455637,0.01997034465
6.9800,0.1118096146,0.6127815584,0.7820600983,0.01947753556
6.9850,0.1119520384,0.613014991,0.7818688343,0.01898651704
6.9900,0.1120839841,0.6132566736,0.7816721231,0.01849661148
6.9950,0.1122016051,0.6135086461,0.7814688788,0.01800923462
7.0000,0.1123023414,0.6137710898,0.7812592868,0.01752598707
7.0050,0.1123837404,0.6140453758,0.7810426301,0.01704644645
7.0100,0.1124443536,0.6143321178,0.7808185817,0.01657283304
7.0150,0.1124836271,0.6146312279,0.7805872712,0.01610588052
7.0200,0.1124985765,0.6149428956,0.7803489518,0.01564668707
7.0250,0.1124918823,0.6152672683,0.7801030957,0.01519621883
7.0300,0.1124615628,0.6156046627,0.7798497362,0.01475415525
7.0350,0.1124071,0.6159542802,0.7795895682,0.01432039472
7.0400,0.112330165,0.6163153259,0.7793230169,0.01389202499
7.0450,0.112228409,0.6166872932,0.7790508242,0.01346773901
7.0500,0.1121031131,0.6170704592,0.778772579,0.01304647815
7.0550,0.1119518794,0.6174645678,0.7784888721,0.01262379354
7.0600,0.1117760017,0.6178695625,0.7781995379,0.01219870553
7.0650,0.111577441,0.6182836055,0.7779057204,0.01177064253
7.0700,0.1113568696,0.6187065075,0.777607464,0.01133742085
7.0750,0.1111142083,0.6191374572,0.777305409,0.01089691886
7.0800,0.1108511895,0.6195762902,0.7769994028,0.01044808372
7.0850,0.1105664477,0.6200217242,0.7766906278,0.009989533983
7.0900,0.1102615246,0.620473538,0.7763790137,0.009519028628
7.0950,0.1099371918,0.6209303976,0.7760654705,0.00903552566
7.1000,0.1095955976,0.6213927055,0.7757493278,0.008537616277
7.1050,0.1092405301,0.6218596464,0.7754306492,0.008024653966
7.1100,0.108873792,0.622329478,0.7751105046,0.007498265203
7.1150,0.1084963557,0.6228020695,0.7747888325,0.006956150878
7.1200,0.1081094377,0.6232758166,0.7744666604,0.00640295305
7.1250,0.1077154842,0.6237499095,0.7741442773,0.005836331372
7.1300,0.1073146523,0.6242237967,0.773822052,0.005258225418
7.1350,0.1069086031,0.6246966918,0.7735003631,0.004667135445
7.1400,0.1064964095,0.625166806,0.7731807321,0.004066320877
7.1450,0.1060796794,0.6256339134,0.7728631092,0.003452894978
7.1500,0.1056571282,0.6260966529,0.772548743,0.002827048273
7.1550,0.1052298626,0.6265554013,0.7722371489,0.002188837897
7.1600,0.1047987825,0.6270077242,0.7719301559,0.001537343552
7.1650,0.1043645008,0.6274541234,0.7716272477,0.0008743853709
7.1700,0.1039287103,0.6278934902,0.7713290792,0.0001992974021
7.1750,-0.1034910149,-0.628325996,-0.7710355463,0.0004887917731
7.1800,-0.1030518079,-0.6287508418,-0.7707472273,0.001189721468
7.1850,-0.1026102187,-0.6291686139,-0.7704637383,0.001904289643
7.1900,-0.1021654661,-0.6295800303,-0.7701845749,0.002631252411
7.1950,-0.1017169556,-0.6299843892,-0.7699103554,0.003372674127
7.2000,-0.1012638232,-0.630382472,-0.7696405212,0.004128580953
7.2050,-0.1008062266,-0.6307748962,-0.7693745201,0.004897229317
7.2100,-0.1003459121,-0.6311602349,-0.7691132454,0.005680803126
7.2150,-0.09988064368,-0.6315399087,-0.768855797,0.006477978248
7.2200,-0.09941239507,-0.6319128262,-0.7686027912,0.007287328089
7.2250,-0.09893973417,-0.6322813292,-0.768352463,0.008108170753
7.2300,-0.09846099087,-0.632644541,-0.7681057206,0.008939800074
7.2350,-0.09797754934,-0.6330029738,-0.7678619365,0.009781690506
7.2400,-0.09748834088,-0.6333577197,-0.767620337,0.01063205636
7.2450,-0.0969923544,-0.633708796,-0.76738099,0.0114917913
7.2500,-0.09648743311,-0.6340568138,-0.7671436382,0.01236003745
7.2550,-0.09597424262,-0.634402181,-0.7669078143,0.01323713841
7.2600,-0.09545268897,-0.6347460045,-0.766672586,0.01412231903
7.2650,-0.0949201778,-0.6350883428,-0.7664381638,0.01501658114
7.2700,-0.09437539086,-0.6354299356,-0.7662040508,0.01591964244
7.2750,-0.09381737028,-0.6357708054,-0.7659702694,0.01683242463
7.2800,-0.09324450404,-0.6361106329,-0.7657371866,0.01775630057
7.2850,-0.09265517457,-0.6364501013,-0.7655043345,0.01869226945
7.2900,-0.09204903734,-0.6367904041,-0.7652706585,0.01964116079
7.2950,-0.09142716446,-0.6371303757,-0.7650368717,0.02060444056
7.3000,-0.09078856476,-0.6374710739,-0.7648020943,0.0215829328
7.3050,-0.09013506551,-0.6378122439,-0.7645661962,0.02257749117
7.3100,-0.08946560533,-0.6381537996,-0.7643292859,0.02358763135
7.3150,-0.08878010656,-0.6384964338,-0.7640906913,0.02461325194
7.3200,-0.08808071151,-0.6388404916,-0.7638497124,0.0256560197
7.3250,-0.08736642721,-0.6391854361,-0.7636068529,0.02671441322
7.3300,-0.08663885932,-0.6395320187,-0.7633611933,0.02778837139
7.3350,-0.08589882243,-0.6398791032,-0.7631134858,0.02887790468
7.3400,-0.08514679231,-0.6402278528,-0.7628626776,0.02998091724
7.3450,-0.08438488171,-0.6405768635,-0.7626096343,0.03109693538
7.3500,-0.08361620995,-0.6409256938,-0.7623543621,0.03222438541
7.3550,-0.08284349412,-0.6412735208,-0.7620972985,0.03336067601
7.3600,-0.08206826893,-0.6416187411,-0.7618396238,0.03450475252
7.3650,-0.08129023269,-0.6419610578,-0.7615816056,0.03565608392
7.3700,-0.08050971356,-0.6423006646,-0.7613230547,0.03681370235
7.3750,-0.07972733342,-0.6426357957,-0.7610655029,0.03797481721
7.3800,-0.0789434767,-0.6429661471,-0.76080915,0.03913947576
7.3850,-0.07816235016,-0.6432898589,-0.7605551905,0.04030640855
7.3900,-0.0773827476,-0.6436058889,-0.7603047238,0.04147405498
7.3950,-0.07660830842,-0.6439131222,-0.7600583748,0.04264182241
7.4000,-0.07583521297,-0.6442113441,-0.7598167817,0.04380893576
7.4050,-0.07506299561,-0.6444997861,-0.7595806855,0.04497504408
7.4100,-0.07429068973,-0.6447787598,-0.7593498533,0.04614157226
7.4150,-0.07351769167,-0.6450475696,-0.7591248243,0.0473104969
7.4200,-0.07274452969,-0.6453077093,-0.7589042048,0.04848300456
7.4250,-0.07197211217,-0.6455591616,-0.7586878678,0.04965987486
7.4300,-0.07119965096,-0.6458011534,-0.7584766076,0.05084009993
7.4350,-0.07042841389,-0.646034395,-0.7582696734,0.05202404618
7.4400,-0.06966113602,-0.6462601097,-0.7580657135,0.05321250459
7.4450,-0.06889824585,-0.6464778229,-0.7578653409,0.05440203322
7.4500,-0.06814162034,-0.6466880386,-0.7576681095,0.05559079294
7.4550,-0.06739156598,-0.6468902203,-0.7574745796,0.05677746824
7.4600,-0.06665028745,-0.6470855288,-0.7572837901,0.05795963151
7.4650,-0.06591624673,-0.6472740939,-0.7570958069,0.05913742473
7.4700,-0.06519017266,-0.6474553363,-0.756911189,0.06030987372
7.4750,-0.06447138517,-0.6476294623,-0.756729972,0.06147576369
7.4800,-0.06376045934,-0.6477980511,-0.7565508864,0.06263421669
7.4850,-0.06305637694,-0.6479605787,-0.756374603,0.06378433761
7.4900,-0.06235761967,-0.6481177521,-0.7562003647,0.06493007838
7.4950,-0.06166113887,-0.6482690587,-0.756029146,0.06606861462
7.5000,-0.06096709873,-0.6484142149,-0.7558610867,0.06720146106
7.5050,-0.06027184623,-0.6485540552,-0.7556958189,0.06832840832
7.5100,-0.05957462604,-0.6486898402,-0.7555323657,0.06944925918
7.5150,-0.05887470711,-0.6488196454,-0.7553726838,0.07056164066
7.5200,-0.05817239812,-0.6489450905,-0.7552153905,0.07166558108
7.5250,-0.05746639159,-0.6490652099,-0.755061509,0.07276046141
7.5300,-0.05675801232,-0.6491805275,-0.754910606,0.07384543146
7.5350,-0.05604496307,-0.6492910983,-0.7547627836,0.07492110671
7.5400,-0.05532694171,-0.6493961386,-0.7546191152,0.07598404895
7.5450,-0.05460437112,-0.6494949091,-0.7544800245,0.0770364746
7.5500,-0.05387661845,-0.649588102,-0.7543450949,0.07807743273
7.5550,-0.05314233739,-0.6496745413,-0.7542153608,0.07910797591
7.5600,-0.05239853814,-0.649753335,-0.7540919041,0.08012738019
7.5650,-0.05164591323,-0.6498245617,-0.7539747756,0.08113431116
7.5700,-0.05088416485,-0.6498887337,-0.7538635265,0.08212928229
7.5750,-0.05011301322,-0.6499447455,-0.7537592122,0.08311175414
7.5800,-0.04933329175,-0.6499930116,-0.7536615049,0.08408119402
7.5850,-0.04854617015,-0.6500333961,-0.7535705797,0.08503666727
7.5900,-0.04775216426,-0.6500652367,-0.7534870749,0.08597759479
7.5950,-0.04694964719,-0.6500889694,-0.7534107984,0.08690357463
7.6000,-0.04614144486,-0.6501043022,-0.7533419378,0.08781393994
7.6050,-0.04532563112,-0.6501128664,-0.7532794889,0.08870659351
7.6100,-0.04450028939,-0.6501136837,-0.7532242012,0.08958362157
7.6150,-0.0436673404,-0.6501073947,-0.75317529,0.09044623454
7.6200,-0.04282462317,-0.650093773,-0.7531331872,0.09129370341
7.6250,-0.04197198511,-0.6500717276,-0.753098589,0.09212826187
7.6300,-0.04110998619,-0.6500402445,-0.7530724799,0.09294885425
7.6350,-0.04023907784,-0.6500010605,-0.7530533822,0.09375522123
7.6400,-0.03936033323,-0.6499512512,-0.7530438038,0.09454715634
7.6450,-0.03847584824,-0.6498907234,-0.7530437978,0.09532415876
7.6500,-0.03758472356,-0.6498192301,-0.7530536357,0.09608630819
7.6550,-0.03668681595,-0.649734977,-0.7530749894,0.09683283269
7.6600,-0.03578240475,-0.6496375543,-0.7531081519,0.09756423054
7.6650,-0.03487143967,-0.6495256752,-0.7531542938,0.09828015889
7.6700,-0.03395455316,-0.6493980875,-0.7532144628,0.0989807323
7.6750,-0.03303439326,-0.6492543312,-0.7532886797,0.09966798577
7.6800,-0.03211298617,-0.6490934257,-0.7533778147,0.1003411637
7.6850,-0.03118919845,-0.6489164152,-0.7534807384,0.1010024601
7.6900,-0.03026706623,-0.6487219676,-0.7535984357,0.1016519112
7.6950,-0.02934673521,-0.6485111834,-0.7537299265,0.1022898431
7.7000,-0.02843250589,-0.6482847327,-0.7538743068,0.1029175756
7.7050,-0.02752796405,-0.6480424609,-0.7540315377,0.103535599
7.7100,-0.02663729527,-0.6477849979,-0.7542009447,0.1041440638
7.7150,-0.02576266833,-0.6475132764,-0.7543816909,0.1047430488
7.7200,-0.02490733424,-0.6472281755,-0.7545727892,0.1053338468
7.7250,-0.02407578397,-0.6469304619,-0.7547735812,0.1059158879
7.7300,-0.02327314318,-0.646622401,-0.7549821277,0.1064885822
7.7350,-0.02250096855,-0.646305278,-0.7551973586,0.1070520608
7.7400,-0.02176205634,-0.6459797666,-0.7554186473,0.1076067902
7.7450,-0.0210573177,-0.6456476705,-0.7556446626,0.1081518321
7.7500,-0.02038880013,-0.6453102702,-0.755873985,0.1086897918
7.7550,-0.01975649021,-0.6449685084,-0.7561059306,0.1092205387
7.7600,-0.0191601333,-0.6446222127,-0.7563403183,0.1097470502
7.7650,-0.0185998323,-0.6442731195,-0.7565756737,0.1102698676
7.7700,-0.01807394646,-0.6439225418,-0.7568107942,0.1107904076
7.7750,-0.01758096243,-0.6435695226,-0.7570463709,0.1113102499
7.7800,-0.01711926611,-0.6432141242,-0.7572821604,0.1118313495
7.7850,-0.01668715913,-0.642856771,-0.7575176962,0.1123550207
7.7900,-0.01628282743,-0.6424968894,-0.7577541028,0.1128775282
7.7950,-0.01590649884,-0.6421352225,-0.75799038,0.1134016013
7.8000,-0.01555531037,-0.64177251,-0.7582264766,0.1139240441
7.8050,-0.01522989809,-0.6414069766,-0.7584636662,0.1144465275
7.8100,-0.01492816895,-0.6410386051,-0.7587022959,0.1149673117
7.8150,-0.01464826587,-0.6406677984,-0.7589419507,0.1154872975
7.8200,-0.01438866499,-0.6402944318,-0.7591828,0.1160063923
7.8250,-0.01414719964,-0.6399174163,-0.7594260194,0.1165232944
7.8300,-0.01392307933,-0.6395370005,-0.7596713074,0.1170387868
7.8350,-0.01371627791,-0.6391543632,-0.7599180035,0.117550805
7.8400,-0.01352661702,-0.638770035,-0.7601651464,0.1180627936
7.8450,-0.01335312308,-0.6383834591,-0.7604136418,0.1185721158
7.8500,-0.01319800631,-0.6379949986,-0.7606631475,0.1190788415
7.8550,-0.01306203245,-0.6376067034,-0.7609119969,0.119582641
7.8600,-0.01294661281,-0.6372189533,-0.7611599837,0.120082763
7.8650,-0.01285365931,-0.636830844,-0.76140759,0.1205808508
7.8700,-0.01278199066,-0.6364421807,-0.7616550186,0.1210768515
7.8750,-0.01273073832,-0.6360540235,-0.7619016216,0.1215694312
7.8800,-0.01269993376,-0.6356671131,-0.7621464917,0.1220604694
7.8850,-0.01268786878,-0.6352803368,-0.7623908322,0.1225484832
7.8900,-0.01269425974,-0.6348939732,-0.7626342178,0.1230347444
7.8950,-0.01271782715,-0.6345083386,-0.7628765911,0.1235181439
7.9000,-0.01275552448,-0.6341220307,-0.7631188712,0.124000545
7.9050,-0.01280746875,-0.6337335487,-0.7633621099,0.1244831197
7.9100,-0.01287473463,-0.6333433067,-0.7636060875,0.1249649556
7.9150,-0.01295485548,-0.6329506161,-0.7638515136,0.1254454245
7.9200,-0.01304855689,-0.6325545851,-0.7640990501,0.1259248731
7.9250,-0.01315404452,-0.6321555688,-0.7643484795,0.126402966
7.9300,-0.01326859772,-0.6317526932,-0.7646004763,0.1268802214
7.9350,-0.01339159486,-0.6313451299,-0.7648556672,0.1273569804
7.9400,-0.01352038869,-0.6309338519,-0.7651133912,0.1278325944
7.9450,-0.01365395285,-0.6305185521,-0.7653737716,0.1283078902
7.9500,-0.01379182659,-0.6300979476,-0.7656379627,0.1287822655
7.9550,-0.0139340116,-0.6296741344,-0.7659042248,0.1292557395
7.9600,-0.0140820022,-0.6292465425,-0.7661729446,0.1297285819
7.9650,-0.01423740372,-0.6288162761,-0.7664432183,0.1302005387
7.9700,-0.01440035332,-0.6283826791,-0.7667153514,0.1306729059
7.9750,-0.01457042558,-0.6279459541,-0.7669892118,0.1311454553
7.9800,-0.01474628612,-0.6275060957,-0.7672646341,0.1316192547
7.9850,-0.01493062355,-0.6270627327,-0.7675418747,0.1320941946
7.9900,-0.01512251824,-0.6266166014,-0.767820265,0.1325706787
7.9950,-0.0153231511,-0.6261680753,-0.7680990242,0.1330512369
8.0000,-0.0155315846,-0.625716246,-0.7683790136,0.1335351674
8.0050,-0.01574781413,-0.6252619231,-0.7686597035,0.1340216182
8.0100,-0.01597142335,-0.62480514,-0.7689411076,0.1345103109
8.0150,-0.01620395189,-0.6243472105,-0.7692222298,0.1350005698
8.0200,-0.01644396411,-0.6238873189,-0.7695040799,0.1354905178
8.0250,-0.01669068807,-0.6234255281,-0.7697868205,0.1359789794
8.0300,-0.01694379708,-0.62296291,-0.7700694125,0.1364669208
8.0350,-0.0172045056,-0.622497922,-0.770353205,0.1369535744
8.0400,-0.01747102062,-0.6220310225,-0.7706377529,0.1374395297
8.0450,-0.01774360746,-0.6215617074,-0.7709227922,0.137928448
8.0500,-0.01802124043,-0.6210894294,-0.7712094341,0.1384166327
8.0550,-0.01830240901,-0.6206146874,-0.7714970852,0.1389052884
8.0600,-0.01858596684,-0.6201373533,-0.7717862901,0.1393920631
8.0650,-0.01887188812,-0.6196578393,-0.7720764993,0.139878137
8.0700,-0.01916095683,-0.6191754254,-0.7723685061,0.1403621785
8.0750,-0.01945252971,-0.6186925228,-0.7726604362,0.1408439267
8.0800,-0.01974741705,-0.6182095674,-0.7729521339,0.141322217
8.0850,-0.02004553462,-0.6177267395,-0.7732434416,0.1417971504
8.0900,-0.0203479314,-0.6172439388,-0.7735341732,0.1422700414
8.0950,-0.02065550752,-0.6167615193,-0.7738242222,0.1427398031
8.1000,-0.02096726323,-0.6162794041,-0.7741134634,0.1432075968
8.1050,-0.02128375715,-0.6157981216,-0.7744015018,0.1436732025
8.1100,-0.0216024198,-0.6153182322,-0.7746878862,0.1441370442
8.1150,-0.02192591585,-0.6148388108,-0.7749729981,0.1446006336
8.1200,-0.0222512585,-0.6143592834,-0.7752574266,0.1450636927
8.1250,-0.02258014637,-0.613881554,-0.7755393585,0.1455275854
8.1300,-0.0229126821,-0.6134056731,-0.7758188754,0.1459916495
8.1350,-0.02324909501,-0.6129297388,-0.7760973988,0.146456282
8.1400,-0.02359011039,-0.6124548948,-0.7763743724,0.1469195102
8.1450,-0.023937391,-0.6119811782,-0.7766499634,0.14738003
8.1500,-0.02429053907,-0.6115079665,-0.7769247188,0.1478376065
8.1550,-0.02464866294,-0.6110337157,-0.777200362,0.1482897128
8.1600,-0.02501231479,-0.6105598862,-0.7774755002,0.148737541
8.1650,-0.02537986903,-0.6100867536,-0.7777503122,0.1491793123
8.1700,-0.02575274003,-0.6096128343,-0.7780262224,0.149613455
8.1750,-0.02612971389,-0.6091376742,-0.7783035911,0.1500401682
8.1800,-0.02651009012,-0.6086613397,-0.7785823642,0.1504595985
8.1850,-0.02689309063,-0.6081849426,-0.778861284,0.1508739129
8.1900,-0.02727653859,-0.6077087657,-0.7791403935,0.1512821662
8.1950,-0.02766128416,-0.6072327862,-0.7794189897,0.1516879532
8.2000,-0.02804635256,-0.6067577833,-0.7796963078,0.1520922819
8.2050,-0.02843245392,-0.6062850427,-0.7799710299,0.1524966723
8.2100,-0.02881929152,-0.6058150527,-0.780242757,0.1529013099
8.2150,-0.02920924816,-0.6053478892,-0.7805108253,0.153308853
8.2200,-0.02960270673,-0.6048838154,-0.780774886,0.1537199632
8.2250,-0.03000100778,-0.6044242877,-0.7810338342,0.1541342593
8.2300,-0.03040643542,-0.6039690353,-0.7812879239,0.1545510691
8.2350,-0.03081834638,-0.6035172966,-0.7815376149,0.1549711542
8.2400,-0.03123785359,-0.6030671801,-0.7817839043,0.1553965883
8.2450,-0.03166292343,-0.6026182395,-0.7820273714,0.155826529
8.2500,-0.03209515805,-0.6021691161,-0.7822690392,0.1562607013
8.2550,-0.03253299999,-0.6017191157,-0.782509574,0.15669868
8.2600,-0.03297634724,-0.6012687727,-0.7827487745,0.1571393634
8.2650,-0.03342478187,-0.60081703,-0.7829873369,0.157583345
8.2700,-0.03387966901,-0.6003645272,-0.7832250893,0.1580286745
8.2750,-0.03433949398,-0.5999108403,-0.7834623378,0.1584757019
8.2800,-0.03480615312,-0.5994550269,-0.7836996145,0.1589248774
8.2850,-0.03527699134,-0.5989956439,-0.7839382774,0.1593754363
8.2900,-0.03575071689,-0.5985322804,-0.7841785517,0.1598280159
8.2950,-0.03622743168,-0.5980651318,-0.7844210634,0.1602787155
8.3000,-0.03670681128,-0.5975942588,-0.7846655884,0.1607284239
8.3050,-0.03718787864,-0.5971195931,-0.7849123884,0.1611762882
8.3100,-0.03766827098,-0.5966416643,-0.7851614093,0.161621122
8.3150,-0.03814991844,-0.5961609869,-0.7854117432,0.1620649717
8.3200,-0.03863383168,-0.5956772515,-0.7856634047,0.1625086264
8.3250,-0.03912016723,-0.5951905556,-0.7859157446,0.1629547708
8.3300,-0.03960785157,-0.5946994267,-0.7861698524,0.163403712
8.3350,-0.04009903308,-0.5942046406,-0.7864251541,0.1638547824
8.3400,-0.0405953564,-0.5937066849,-0.7866817053,0.1643054589
8.3450,-0.04109852289,-0.5932045577,-0.786940309,0.1647550128
8.3500,-0.04160927444,-0.59269801,-0.7872009892,0.1652039341
8.3550,-0.04212919503,-0.5921862034,-0.7874642156,0.1656524694
8.3600,-0.04265871607,-0.5916701034,-0.7877295262,0.1660991156
8.3650,-0.04319792096,-0.5911471997,-0.7879987789,0.166543845
8.3700,-0.04374416781,-0.5906161564,-0.7882731397,0.1669864088
8.3750,-0.04429656358,-0.5900753467,-0.7885541362,0.1674254284
8.3800,-0.04485269675,-0.5895240995,-0.7888424365,0.1678606034
8.3850,-0.04541396939,-0.5889620618,-0.7891383036,0.1682914106
8.3900,-0.04597813014,-0.588390561,-0.7894412324,0.1687160335
8.3950,-0.04654242036,-0.5878084092,-0.7897518731,0.1691362055
8.4000,-0.04710618028,-0.5872147862,-0.7900708624,0.1695518653
8.4050,-0.04767033976,-0.5866112899,-0.7903969646,0.1699628534
8.4100,-0.04823633468,-0.5859992852,-0.7907292215,0.1703684009
8.4150,-0.04880263455,-0.5853816003,-0.7910659391,0.1707669901
8.4200,-0.04937255742,-0.5847587235,-0.7914061007,0.1711606543
8.4250,-0.04994693282,-0.5841311071,-0.7917492294,0.1715497346
8.4300,-0.05052597851,-0.5834995592,-0.7920945252,0.1719350259
8.4350,-0.05111097435,-0.5828663996,-0.7924402716,0.1723161181
8.4400,-0.05170132853,-0.5822310571,-0.7927868399,0.1726933564
8.4450,-0.05229613052,-0.5815937486,-0.7931336647,0.1730688193
8.4500,-0.05289397387,-0.5809554002,-0.7934800044,0.17344317
8.4550,-0.05349310657,-0.5803175611,-0.7938242973,0.1738188736
8.4600,-0.05409198338,-0.5796789536,-0.7941679368,0.1741943062
8.4650,-0.05468958667,-0.5790397961,-0.7945105404,0.1745708019
8.4700,-0.05528463835,-0.57840271,-0.7948493377,0.174952691
8.4750,-0.05587815947,-0.5777687296,-0.7951831488,0.1753416273
8.4800,-0.05647092049,-0.5771378903,-0.7955119915,0.175737196
8.4850,-0.05706454866,-0.5765103212,-0.7958352876,0.176141085
8.4900,-0.0576628182,-0.5758876941,-0.7961515986,0.1765530944
8.4950,-0.05826717946,-0.5752697528,-0.7964612801,0.1769719656
8.5000,-0.05888089461,-0.5746558403,-0.7967647576,0.1773968052
8.5050,-0.05950131584,-0.5740454217,-0.7970627821,0.1778267937
8.5100,-0.0601296961,-0.5734374652,-0.7973558168,0.1782627124
8.5150,-0.06076276719,-0.5728317622,-0.7976447092,0.1787024797
8.5200,-0.06139856549,-0.572228003,-0.7979300974,0.1791448812
8.5250,-0.06203699177,-0.5716248141,-0.7982126715,0.179591243
8.5300,-0.06267815416,-0.5710231218,-0.7984914196,0.18004304
8.5350,-0.06332100401,-0.5704235351,-0.7987664435,0.1804982265
8.5400,-0.06396688143,-0.5698277149,-0.7990365303,0.1809564499
8.5450,-0.06461637022,-0.5692363231,-0.7993010119,0.1814183717
8.5500,-0.06526860501,-0.5686497832,-0.7995593298,0.1818854349
8.5550,-0.06592508553,-0.5680682782,-0.7998107686,0.1823596688
8.5600,-0.06658446318,-0.5674912896,-0.8000559148,0.182840583
8.5650,-0.06724563828,-0.5669182164,-0.8002952887,0.1833281508
8.5700,-0.06790782997,-0.5663475023,-0.8005296796,0.1838240066
8.5750,-0.06857152024,-0.5657810559,-0.8007581089,0.1843263259
8.5800,-0.06923477027,-0.5652180725,-0.8009813217,0.18483506
8.5850,-0.06990023775,-0.5646608159,-0.80119792,0.1853483554
8.5900,-0.07056867333,-0.5641092483,-0.8014080133,0.185865582
8.5950,-0.07123845869,-0.5635639734,-0.8016109493,0.1863883467
8.6000,-0.0719114302,-0.5630245745,-0.8018067762,0.186917009
8.6050,-0.07258687554,-0.5624913015,-0.801995273,0.1874520292
8.6100,-0.0732689923,-0.5619636788,-0.8021760696,0.1879947655
8.6150,-0.07395528242,-0.5614411844,-0.8023510515,0.1885396584
8.6200,-0.07464564561,-0.5609243852,-0.8025197121,0.1890872112
8.6250,-0.07534383652,-0.560414075,-0.8026816296,0.1896353667
8.6300,-0.07604954221,-0.559909256,-0.8028374921,0.1901842617
8.6350,-0.07676085767,-0.5594099693,-0.8029872237,0.1907348308
8.6400,-0.07747885596,-0.558913591,-0.8031324644,0.1912873999
8.6450,-0.07820260275,-0.5584211618,-0.8032731571,0.1918395008
8.6500,-0.07893194984,-0.5579311882,-0.8034106318,0.192389951
8.6550,-0.07966877119,-0.5574438613,-0.8035448997,0.1929373542
8.6600,-0.08041236954,-0.5569571142,-0.8036773615,0.1934820983
8.6650,-0.0811615255,-0.5564723799,-0.8038081676,0.1940199136
8.6700,-0.08191649445,-0.5559891332,-0.8039373556,0.1945520492
8.6750,-0.08267550467,-0.5555059123,-0.8040657985,0.1950798146
8.6800,-0.08343826998,-0.5550211869,-0.8041946886,0.1956027609
8.6850,-0.08419862642,-0.5545361132,-0.8043238849,0.1961208266
8.6900,-0.08495623651,-0.5540491578,-0.8044542132,0.1966351637
8.6950,-0.08570960143,-0.553561679,-0.8045853933,0.1971437969
8.7000,-0.08645733649,-0.5530748498,-0.8047164004,0.1976483098
8.7050,-0.08719526125,-0.5525879313,-0.8048481127,0.1981491358
8.7100,-0.08792256651,-0.5520994814,-0.8049815462,0.1986466591
8.7150,-0.08863823871,-0.5516101799,-0.8051158468,0.1991430275
8.7200,-0.08934140988,-0.5511209997,-0.805251192,0.1996353525
8.7250,-0.09003174454,-0.550631926,-0.8053875583,0.2001240814
8.7300,-0.09070885391,-0.5501434486,-0.8055251168,0.2006075171
8.7350,-0.09137164849,-0.5496551906,-0.8056638237,0.2010875344
8.7400,-0.09202079829,-0.5491680349,-0.8058034052,0.2015626809
8.7450,-0.09265447225,-0.5486845856,-0.8059425145,0.2020322685
8.7500,-0.09327698069,-0.548206688,-0.8060791218,0.2024976085
8.7550,-0.09389154468,-0.5477344899,-0.8062132905,0.2029567358
8.7600,-0.09450153023,-0.547269672,-0.8063429255,0.2034120285
8.7650,-0.09511026753,-0.5468135694,-0.8064664495,0.2038647178
8.7700,-0.09571903795,-0.5463666598,-0.8065843924,0.2043109319
8.7750,-0.09632786956,-0.5459272735,-0.8066976947,0.2047515153
8.7800,-0.09693540793,-0.5454955896,-0.8068065982,0.2051857729
8.7850,-0.09754041132,-0.5450691737,-0.8069130973,0.2056130282
8.7900,-0.09813978365,-0.5446468641,-0.8070181565,0.2060341512
8.7950,-0.098730749,-0.5442291903,-0.807121531,0.2064501436
8.8000,-0.09931058162,-0.5438172683,-0.8072232128,0.2068595462
8.8050,-0.09988095064,-0.5434102889,-0.8073233538,0.207263253
8.8100,-0.1004412852,-0.543010643,-0.8074204208,0.2076613923
8.8150,-0.1009902102,-0.5426174537,-0.8075154149,0.2080531931
8.8200,-0.1015289588,-0.5422315375,-0.8076071765,0.2084405881
8.8250,-0.1020574501,-0.5418529565,-0.8076960579,0.2088222412
8.8300,-0.10257265,-0.5414811439,-0.8077827225,0.2091986987
8.8350,-0.1030741445,-0.5411154724,-0.807867487,0.2095707274
8.8400,-0.1035624911,-0.540756462,-0.807950087,0.2099378865
8.8450,-0.10404013,-0.5404045016,-0.8080302216,0.2102992794
8.8500,-0.1045076891,-0.5400590918,-0.8081084928,0.2106537069
8.8550,-0.1049671745,-0.5397201332,-0.8081850285,0.2110000706
8.8600,-0.1054188911,-0.5393867489,-0.808260401,0.2113383939
8.8650,-0.1058655486,-0.5390594188,-0.8083339478,0.2116687446
8.8700,-0.1063098522,-0.5387389026,-0.808405017,0.2119904213
8.8750,-0.1067521976,-0.5384242706,-0.8084737397,0.2123051704
8.8800,-0.1071940603,-0.5381161131,-0.808539816,0.2126119662
8.8850,-0.1076355295,-0.5378131976,-0.8086035925,0.2129126287
8.8900,-0.1080788934,-0.537514699,-0.8086653495,0.2132070676
8.8950,-0.1085248864,-0.5372207351,-0.8087247255,0.2134960167
8.9000,-0.1089724234,-0.536930572,-0.8087825986,0.213778577
8.9050,-0.1094207365,-0.53664432,-0.8088390681,0.2140545212
8.9100,-0.1098693637,-0.5363605949,-0.8088950625,0.214324084
8.9150,-0.1103189632,-0.5360786779,-0.8089500661,0.2145906987
8.9200,-0.1107709548,-0.5357990698,-0.8090037266,0.214853724
8.9250,-0.1112236193,-0.5355217577,-0.8090564224,0.2151126657
8.9300,-0.111677504,-0.5352458438,-0.8091092928,0.2153652107
8.9350,-0.1121331211,-0.5349699596,-0.8091632036,0.2156112598
8.9400,-0.1125881868,-0.5346954848,-0.809217675,0.2158503955
8.9450,-0.1130441394,-0.5344201569,-0.8092742259,0.2160818034
8.9500,-0.1134985594,-0.5341455314,-0.8093321625,0.2163055223
8.9550,-0.1139488139,-0.5338703375,-0.8093929531,0.2165206179
8.9600,-0.1143935344,-0.5335950199,-0.8094565887,0.2167267982
8.9650,-0.1148317672,-0.5333184361,-0.8095233752,0.2169262915
8.9700,-0.1152653446,-0.5330424979,-0.8095920434,0.2171182144
8.9750,-0.1156937855,-0.5327684817,-0.809661846,0.2173025263
8.9800,-0.1161175553,-0.532497359,-0.8097321737,0.2174789251
8.9850,-0.1165367552,-0.5322276116,-0.809803729,0.2176485117
8.9900,-0.116950034,-0.5319594746,-0.8098766586,0.2178109382
8.9950,-0.117357667,-0.5316937617,-0.8099503739,0.2179663131
9.0000,-0.1177580741,-0.531431528,-0.8100243798,0.2181148119
9.0050,-0.1181509475,-0.5311731808,-0.810098418,0.2182566352
9.0100,-0.1185357323,-0.5309197517,-0.8101717189,0.2183924983
9.0150,-0.1189110185,-0.5306719524,-0.8102439123,0.218522885
9.0200,-0.1192745588,-0.5304298507,-0.8103147207,0.2186499634
9.0250,-0.1196232344,-0.5301945667,-0.8103843971,0.2187718727
9.0300,-0.1199576644,-0.529967831,-0.8104514183,0.2188898248
9.0350,-0.1202803316,-0.5297517534,-0.8105144744,0.2190023023
9.0400,-0.1205942258,-0.529547511,-0.8105725271,0.2191087505
9.0450,-0.1209021901,-0.529356078,-0.8106240396,0.2192110159
9.0500,-0.1212025645,-0.5291752543,-0.81067084,0.2193086361
9.0550,-0.1214974607,-0.5290073269,-0.8107106258,0.2194035011
9.0600,-0.1217899574,-0.5288521169,-0.8107438271,0.2194928052
9.0650,-0.1220829938,-0.5287085948,-0.8107713347,0.2195741498
9.0700,-0.122379438,-0.5285774727,-0.8107924155,0.2196469611
9.0750,-0.1226845262,-0.5284597146,-0.8108063469,0.2197086821
9.0800,-0.1230027885,-0.5283547964,-0.8108128116,0.2197592038
9.0850,-0.1233381576,-0.5282645175,-0.8108101356,0.2197981404
9.0900,-0.1236934459,-0.5281874628,-0.8107991931,0.2198240298
9.0950,-0.1240722503,-0.5281214495,-0.810780529,0.2198379974
9.1000,-0.1244769616,-0.5280648739,-0.8107543557,0.2198416469
9.1050,-0.1249101958,-0.5280174455,-0.8107202521,0.2198356044
9.1100,-0.1253718125,-0.5279764417,-0.8106797741,0.2198205848
9.1150,-0.1258631044,-0.5279409146,-0.8106329305,0.2197979107
9.1200,-0.1263855781,-0.5279078285,-0.8105818637,0.219765904
9.1250,-0.1269378198,-0.5278753396,-0.8105270193,0.2197279381
9.1300,-0.1275205686,-0.527843342,-0.8104682228,0.2196842523
9.1350,-0.1281319064,-0.5278083747,-0.8104076296,0.2196360809
9.1400,-0.1287677585,-0.5277687071,-0.8103465537,0.2195848788
9.1450,-0.1294261909,-0.527722973,-0.8102858985,0.2195315184
9.1500,-0.1301047154,-0.5276714816,-0.8102252077,0.219478207
9.1550,-0.1308006196,-0.5276130139,-0.8101654465,0.2194257388
9.1600,-0.1315132668,-0.5275462466,-0.8101068641,0.2193765873
9.1650,-0.1322385746,-0.5274715649,-0.8100495638,0.2193317392
9.1700,-0.1329722375,-0.5273890957,-0.8099940986,0.2192913269
9.1750,-0.1337140382,-0.5272987184,-0.8099406019,0.2192551913
9.1800,-0.1344621701,-0.5272022139,-0.8098882001,0.2192232967
9.1850,-0.1352164373,-0.5270999692,-0.8098368194,0.2191950353
9.1900,-0.1359760211,-0.5269931552,-0.8097854106,0.2191719071
9.1950,-0.1367387063,-0.5268815765,-0.8097350707,0.2191516502
9.2000,-0.13750512,-0.5267648733,-0.8096855725,0.2191355376
9.2050,-0.1382756173,-0.5266436771,-0.8096364693,0.2191234323
9.2100,-0.139050909,-0.5265205354,-0.8095864957,0.2191133874
9.2150,-0.1398298542,-0.5263958177,-0.809535817,0.2191045779
9.2200,-0.1406116514,-0.5262682379,-0.8094853375,0.2190972243
9.2250,-0.1413963351,-0.5261377291,-0.8094353275,0.2190904313
9.2300,-0.1421860962,-0.5260070062,-0.8093827448,0.219087462
9.2350,-0.1429826803,-0.5258772387,-0.809326875,0.2190869517
9.2400,-0.143786821,-0.5257491774,-0.8092666441,0.2190905094
9.2450,-0.144598381,-0.5256248783,-0.8092004972,0.2190989522
9.2500,-0.1454177116,-0.5255037295,-0.8091284146,0.2191135053
9.2550,-0.1462439021,-0.5253866778,-0.8090498884,0.2191342923
9.2600,-0.1470764672,-0.5252739519,-0.8089646313,0.2191620715
9.2650,-0.1479132318,-0.5251670365,-0.8088720291,0.2191969437
9.2700,-0.1487501212,-0.525064778,-0.8087734899,0.2192391897
9.2750,-0.1495884161,-0.5249680561,-0.8086683332,0.2192883324
9.2800,-0.1504256106,-0.5248772307,-0.8085562735,0.2193462583
9.2850,-0.1512631161,-0.5247933364,-0.8084367577,0.2194115599
9.2900,-0.1521003307,-0.524716979,-0.8083093624,0.2194847514
9.2950,-0.1529361158,-0.5246466652,-0.8081750698,0.2195665681
9.3000,-0.1537719228,-0.5245813434,-0.808034802,0.219655113
9.3050,-0.1546068448,-0.5245214685,-0.8078887821,0.2197491032
9.3100,-0.1554399975,-0.5244645392,-0.8077387282,0.2198488145
9.3150,-0.1562704457,-0.5244094908,-0.8075860577,0.2199522521
9.3200,-0.1571009433,-0.5243563253,-0.8074312093,0.2200558567
9.3250,-0.1579341131,-0.5243024559,-0.8072751052,0.2201605214
9.3300,-0.1587702985,-0.5242460686,-0.8071189521,0.2202658601
9.3350,-0.1596078547,-0.5241847908,-0.8069644715,0.2203723658
9.3400,-0.1604467416,-0.5241174454,-0.8068121299,0.2204811411
9.3450,-0.1612899929,-0.5240417317,-0.806663995,0.2205878527
9.3500,-0.1621394185,-0.5239573781,-0.8065199296,0.22069227
9.3550,-0.1629959397,-0.5238610819,-0.8063825703,0.2207918496
9.3600,-0.163858709,-0.5237510962,-0.8062529668,0.2208874516
9.3650,-0.1647283626,-0.5236271605,-0.8061315727,0.2209774893
9.3700,-0.1656085945,-0.5234852049,-0.8060199242,0.2210631483
9.3750,-0.1665000679,-0.5233261791,-0.8059173204,0.2211440941
9.3800,-0.1674050158,-0.5231481795,-0.8058241359,0.2212216195
9.3850,-0.168324025,-0.5229518271,-0.805740351,0.2212936872
9.3900,-0.1692605431,-0.5227357784,-0.8056654791,0.2213623961
9.3950,-0.1702137037,-0.5225028437,-0.8055985649,0.2214249886
9.4000,-0.1711831388,-0.5222536624,-0.8055391804,0.2214815429
9.4050,-0.1721649103,-0.5219874401,-0.8054889197,0.2215309376
9.4100,-0.1731588675,-0.5217055942,-0.8054462564,0.2215752865
9.4150,-0.174164894,-0.5214085226,-0.805410752,0.2216151231
9.4200,-0.1751798466,-0.5210981586,-0.805381492,0.2216514895
9.4250,-0.1762016607,-0.5207766151,-0.8053579117,0.2216829404
9.4300,-0.1772286834,-0.5204429558,-0.8053405764,0.2217108016
9.4350,-0.1782607059,-0.5201009044,-0.805327012,0.2217353688
9.4400,-0.1792962701,-0.5197510399,-0.805317364,0.2217558279
9.4450,-0.1803315174,-0.5193938827,-0.8053118553,0.2217732043
9.4500,-0.1813651451,-0.519029933,-0.8053105439,0.2217871518
9.4550,-0.182393652,-0.5186611206,-0.8053125551,0.2217992026
9.4600,-0.1834153176,-0.518289505,-0.8053171901,0.2218085516
9.4650,-0.1844299686,-0.5179160657,-0.8053234818,0.2218166479
9.4700,-0.1854360583,-0.5175425282,-0.8053304093,0.2218245514
9.4750,-0.186430908,-0.5171710725,-0.8053372896,0.2218320273
9.4800,-0.1874139214,-0.5168020568,-0.8053433809,0.221841599
9.4850,-0.1883823419,-0.5164373245,-0.8053484098,0.2218524777
9.4900,-0.1893316702,-0.5160790071,-0.8053520243,0.2218650358
9.4950,-0.1902616065,-0.5157273269,-0.8053536409,0.2218814063
9.5000,-0.1911728632,-0.5153849744,-0.8053517259,0.2219005681
9.5050,-0.1920652787,-0.5150532817,-0.8053455964,0.22192232
9.5100,-0.1929380316,-0.5147339941,-0.805334417,0.2219466333
9.5150,-0.1937908923,-0.5144271001,-0.8053180186,0.221974633
9.5200,-0.194624665,-0.5141342495,-0.8052954976,0.2220053488
9.5250,-0.1954378541,-0.5138577105,-0.805265958,0.2220383648
9.5300,-0.1962286015,-0.513596437,-0.8052309229,0.2220725031
9.5350,-0.1969944402,-0.513352088,-0.8051902556,0.2221069035
9.5400,-0.1977356466,-0.5131239474,-0.8051448445,0.222140064
9.5450,-0.1984520022,-0.5129122822,-0.8050947149,0.2221717662
9.5500,-0.1991421403,-0.5127177627,-0.8050402845,0.2222004593
9.5550,-0.1998078085,-0.5125392726,-0.8049818642,0.2222263082
9.5600,-0.2004469879,-0.51237836,-0.8049192254,0.2222486487
9.5650,-0.2010618915,-0.5122326143,-0.8048533775,0.2222676435
9.5700,-0.2016517442,-0.5121038314,-0.8047836148,0.2222826429
9.5750,-0.2022153437,-0.5119902568,-0.8047117657,0.2222923881
9.5800,-0.2027524477,-0.5118922708,-0.8046385988,0.2222936646
9.5850,-0.2032630704,-0.5118091965,-0.8045645553,0.2222866322
9.5900,-0.2037476379,-0.5117395128,-0.8044906311,0.2222709958
9.5950,-0.2042064667,-0.5116844923,-0.8044168324,0.2222436931
9.6000,-0.2046400735,-0.51164284,-0.8043438319,0.2222049607
9.6050,-0.2050490869,-0.5116142654,-0.8042718153,0.2221543664
9.6100,-0.2054328517,-0.5115999001,-0.8042006687,0.222090455
9.6150,-0.2057945944,-0.5115996514,-0.8041298182,0.2220126509
9.6200,-0.2061332373,-0.5116126773,-0.8040597507,0.2219222257
9.6250,-0.2064484128,-0.5116393129,-0.8039903342,0.2218193158
9.6300,-0.2067398225,-0.5116801712,-0.8039217433,0.22170223
9.6350,-0.2070078495,-0.511733535,-0.8038549956,0.2215709489
9.6400,-0.2072522613,-0.5117983351,-0.8037909838,0.2214249733
9.6450,-0.207471676,-0.5118748978,-0.8037294197,0.2212659319
9.6500,-0.2076684586,-0.5119631944,-0.8036701524,0.2210922546
9.6550,-0.207842526,-0.512062461,-0.8036130687,0.2209062157
9.6600,-0.2079949028,-0.5121717716,-0.8035583461,0.2207083621
