type,name,time_units,begin_time,frequency,count,units
signal,"Noraxon MyoMotion-Segments-Upper arm RT-Roll","s",0.0000,200,4984,"deg"

time,value
0.0000,11.96976923
0.0050,11.97051381
0.0100,11.97125936
0.0150,11.97200588
0.0200,11.97252734
0.0250,11.97275849
0.0300,11.97263095
0.0350,11.97207598
0.0400,11.97102789
0.0450,11.96942655
0.0500,11.9672185
0.0550,11.96435825
0.0600,11.96081041
0.0650,11.95655077
0.0700,11.95156607
0.0750,11.94585327
0.0800,11.93941855
0.0850,11.93227653
0.0900,11.92445057
0.0950,11.91597362
0.1000,11.90688929
0.1050,11.89725281
0.1100,11.88713158
0.1150,11.87660604
0.1200,11.86577068
0.1250,11.85473434
0.1300,11.84361966
0.1350,11.83256214
0.1400,11.82170801
0.1450,11.81121097
0.1500,11.80122806
0.1550,11.79286893
0.1600,11.7855915
0.1650,11.77946616
0.1700,11.77445984
0.1750,11.77080812
0.1800,11.76866937
0.1850,11.76798722
0.1900,11.7687995
0.1950,11.77122882
0.2000,11.77520498
0.2050,11.78053773
0.2100,11.78733527
0.2150,11.79558111
0.2200,11.80500335
0.2250,11.8156192
0.2300,11.82739762
0.2350,11.83995575
0.2400,11.85304649
0.2450,11.86664252
0.2500,11.88045924
0.2550,11.89441474
0.2600,11.90831144
0.2650,11.92192785
0.2700,11.93525174
0.2750,11.94816897
0.2800,11.96067362
0.2850,11.97256853
0.2900,11.98389257
0.2950,11.99465525
0.3000,12.00479531
0.3050,12.01419113
0.3100,12.02273359
0.3150,12.03048055
0.3200,12.03751615
0.3250,12.04385197
0.3300,12.04940206
0.3350,12.05420579
0.3400,12.05825496
0.3450,12.06152004
0.3500,12.06413315
0.3550,12.06596263
0.3600,12.06694399
0.3650,12.06740939
0.3700,12.06716584
0.3750,12.06643219
0.3800,12.06509601
0.3850,12.06327933
0.3900,12.06121541
0.3950,12.05872244
0.4000,12.05620274
0.4050,12.05345447
0.4100,12.05088968
0.4150,12.0483983
0.4200,12.04605809
0.4250,12.04417135
0.4300,12.04277879
0.4350,12.0417268
0.4400,12.04119116
0.4450,12.04110392
0.4500,12.04141911
0.4550,12.042193
0.4600,12.04325459
0.4650,12.0446512
0.4700,12.04623597
0.4750,12.04787645
0.4800,12.04957861
0.4850,12.05129006
0.4900,12.05300295
0.4950,12.05450137
0.5000,12.05585732
0.5050,12.05701807
0.5100,12.05784436
0.5150,12.05839603
0.5200,12.05862657
0.5250,12.05852481
0.5300,12.05790848
0.5350,12.0568714
0.5400,12.05549051
0.5450,12.05366374
0.5500,12.05138188
0.5550,12.04869798
0.5600,12.04575053
0.5650,12.04241766
0.5700,12.03896837
0.5750,12.03532244
0.5800,12.0313933
0.5850,12.02747806
0.5900,12.02348494
0.5950,12.01962367
0.6000,12.01586965
0.6050,12.01243768
0.6100,12.00941662
0.6150,12.00676651
0.6200,12.00450762
0.6250,12.00277766
0.6300,12.00159071
0.6350,12.00106607
0.6400,12.00128997
0.6450,12.00223826
0.6500,12.00387538
0.6550,12.00633784
0.6600,12.00946622
0.6650,12.01318319
0.6700,12.01750237
0.6750,12.02227775
0.6800,12.02746226
0.6850,12.03309193
0.6900,12.03898754
0.6950,12.04522615
0.7000,12.05130422
0.7050,12.05736724
0.7100,12.06342052
0.7150,12.06928089
0.7200,12.07501022
0.7250,12.08047754
0.7300,12.08545698
0.7350,12.09023264
0.7400,12.09440602
0.7450,12.09807318
0.7500,12.10136545
0.7550,12.10423747
0.7600,12.10667299
0.7650,12.10889778
0.7700,12.11093718
0.7750,12.11288768
0.7800,12.11479018
0.7850,12.11668656
0.7900,12.1187422
0.7950,12.12119481
0.8000,12.12385207
0.8050,12.12690941
0.8100,12.13032954
0.8150,12.134119
0.8200,12.13837775
0.8250,12.14307501
0.8300,12.14822874
0.8350,12.15387016
0.8400,12.15995307
0.8450,12.16658865
0.8500,12.17353868
0.8550,12.18068766
0.8600,12.18783405
0.8650,12.19499861
0.8700,12.20189775
0.8750,12.20846779
0.8800,12.21493465
0.8850,12.2210115
0.8900,12.22676103
0.8950,12.23189065
0.9000,12.23674011
0.9050,12.24111981
0.9100,12.24507608
0.9150,12.24879521
0.9200,12.25210778
0.9250,12.25524342
0.9300,12.25813691
0.9350,12.26079458
0.9400,12.26346257
0.9450,12.2661235
0.9500,12.2689
0.9550,12.27175682
0.9600,12.27487049
0.9650,12.27827566
0.9700,12.2821997
0.9750,12.28677586
0.9800,12.29192658
0.9850,12.29767164
0.9900,12.30393175
0.9950,12.31071392
1.0000,12.31809689
1.0050,12.32609483
1.0100,12.33448871
1.0150,12.34329268
1.0200,12.35256344
1.0250,12.36207013
1.0300,12.3719213
1.0350,12.38214619
1.0400,12.39298352
1.0450,12.40444924
1.0500,12.41632587
1.0550,12.42870506
1.0600,12.44148539
1.0650,12.45451987
1.0700,12.46783523
1.0750,12.48126394
1.0800,12.49447441
1.0850,12.5074463
1.0900,12.51983693
1.0950,12.53150779
1.1000,12.54246271
1.1050,12.55234263
1.1100,12.56106213
1.1150,12.56845912
1.1200,12.57448219
1.1250,12.57881308
1.1300,12.58143351
1.1350,12.58213311
1.1400,12.58095808
1.1450,12.57756991
1.1500,12.57227542
1.1550,12.56506602
1.1600,12.55611442
1.1650,12.54546024
1.1700,12.53328502
1.1750,12.51983063
1.1800,12.50500061
1.1850,12.48916539
1.1900,12.47241602
1.1950,12.45490579
1.2000,12.43670621
1.2050,12.41791732
1.2100,12.39866759
1.2150,12.37910585
1.2200,12.35929122
1.2250,12.33927265
1.2300,12.31904826
1.2350,12.29881313
1.2400,12.27824585
1.2450,12.25759251
1.2500,12.23679675
1.2550,12.21578209
1.2600,12.194847
1.2650,12.17365768
1.2700,12.15209793
1.2750,12.13025
1.2800,12.10806282
1.2850,12.08536662
1.2900,12.06241972
1.2950,12.03910733
1.3000,12.01541182
1.3050,11.99143512
1.3100,11.96724709
1.3150,11.9429834
1.3200,11.91849388
1.3250,11.89424496
1.3300,11.87021858
1.3350,11.84652286
1.3400,11.8230632
1.3450,11.79993406
1.3500,11.77730147
1.3550,11.75514346
1.3600,11.73367689
1.3650,11.71277269
1.3700,11.69253676
1.3750,11.67302254
1.3800,11.65459195
1.3850,11.63698706
1.3900,11.62040209
1.3950,11.60479969
1.4000,11.58999501
1.4050,11.57613832
1.4100,11.56334948
1.4150,11.55142159
1.4200,11.54028547
1.4250,11.53004436
1.4300,11.52066286
1.4350,11.51207878
1.4400,11.50424133
1.4450,11.49726196
1.4500,11.49105141
1.4550,11.48574257
1.4600,11.48111925
1.4650,11.47730046
1.4700,11.47442297
1.4750,11.4724616
1.4800,11.47147025
1.4850,11.47131196
1.4900,11.47228929
1.4950,11.47445356
1.5000,11.47768542
1.5050,11.4823011
1.5100,11.48835801
1.5150,11.4958783
1.5200,11.50485967
1.5250,11.51523063
1.5300,11.52705421
1.5350,11.54041776
1.5400,11.55538409
1.5450,11.57169603
1.5500,11.58920586
1.5550,11.60800314
1.5600,11.62782276
1.5650,11.6489078
1.5700,11.67091741
1.5750,11.69379814
1.5800,11.71753023
1.5850,11.7420867
1.5900,11.76709547
1.5950,11.79278133
1.6000,11.81924446
1.6050,11.84624462
1.6100,11.87378267
1.6150,11.90193478
1.6200,11.93101251
1.6250,11.96053451
1.6300,11.99081252
1.6350,12.02142159
1.6400,12.05242767
1.6450,12.08389349
1.6500,12.11554837
1.6550,12.14741545
1.6600,12.17932041
1.6650,12.21094555
1.6700,12.24224041
1.6750,12.27312289
1.6800,12.30317945
1.6850,12.33251361
1.6900,12.36095251
1.6950,12.38841458
1.7000,12.41503884
1.7050,12.4406175
1.7100,12.46492998
1.7150,12.48810061
1.7200,12.50984476
1.7250,12.53023837
1.7300,12.54928015
1.7350,12.56716203
1.7400,12.58388727
1.7450,12.59963707
1.7500,12.61470292
1.7550,12.62913314
1.7600,12.64326736
1.7650,12.65704383
1.7700,12.67068237
1.7750,12.68397413
1.7800,12.69716585
1.7850,12.71020265
1.7900,12.72308123
1.7950,12.73581705
1.8000,12.74839684
1.8050,12.7605485
1.8100,12.77231203
1.8150,12.78352455
1.8200,12.79423029
1.8250,12.8047705
1.8300,12.81503114
1.8350,12.82485277
1.8400,12.83429493
1.8450,12.84343517
1.8500,12.85228511
1.8550,12.86091699
1.8600,12.86934773
1.8650,12.87734537
1.8700,12.88523223
1.8750,12.89318261
1.8800,12.90152703
1.8850,12.91017259
1.8900,12.919478
1.8950,12.92930197
1.9000,12.93970994
1.9050,12.95075093
1.9100,12.96254119
1.9150,12.97498545
1.9200,12.98796073
1.9250,13.00159174
1.9300,13.01583623
1.9350,13.0308398
1.9400,13.04675102
1.9450,13.06339128
1.9500,13.08102675
1.9550,13.09966025
1.9600,13.11937195
1.9650,13.14029706
1.9700,13.1622809
1.9750,13.18516678
1.9800,13.20909639
1.9850,13.2338625
1.9900,13.25948263
1.9950,13.28588145
2.0000,13.31289268
2.0050,13.3408022
2.0100,13.36974292
2.0150,13.39987796
2.0200,13.43120192
2.0250,13.46362819
2.0300,13.49717284
2.0350,13.53171334
2.0400,13.56725732
2.0450,13.60388199
2.0500,13.641443
2.0550,13.67996072
2.0600,13.71947131
2.0650,13.75999456
2.0700,13.80155742
2.0750,13.84406356
2.0800,13.88755179
2.0850,13.93216082
2.0900,13.97787112
2.0950,14.02455829
2.1000,14.07226719
2.1050,14.12121651
2.1100,14.17121698
2.1150,14.22232721
2.1200,14.27454336
2.1250,14.32750501
2.1300,14.38118246
2.1350,14.43531076
2.1400,14.48981338
2.1450,14.5446382
2.1500,14.59971302
2.1550,14.65476896
2.1600,14.7098584
2.1650,14.76522544
2.1700,14.82074348
2.1750,14.87606277
2.1800,14.93134164
2.1850,14.98668629
2.1900,15.04215922
2.1950,15.09773974
2.2000,15.15342641
2.2050,15.20940859
2.2100,15.26574446
2.2150,15.32242446
2.2200,15.3795559
2.2250,15.4372911
2.2300,15.49558974
2.2350,15.55455548
2.2400,15.61442543
2.2450,15.67541002
2.2500,15.73736562
2.2550,15.80019456
2.2600,15.86364987
2.2650,15.92777229
2.2700,15.99249224
2.2750,16.05789012
2.2800,16.12373465
2.2850,16.18991573
2.2900,16.25635123
2.2950,16.32300535
2.3000,16.38985981
2.3050,16.45675714
2.3100,16.52351686
2.3150,16.5899406
2.3200,16.6562898
2.3250,16.7226766
2.3300,16.78898894
2.3350,16.8554724
2.3400,16.92227942
2.3450,16.98950045
2.3500,17.05722526
2.3550,17.1255452
2.3600,17.1944355
2.3650,17.26402773
2.3700,17.33433228
2.3750,17.40548702
2.3800,17.47755043
2.3850,17.55051633
2.3900,17.6241088
2.3950,17.69864251
2.4000,17.77397292
2.4050,17.84991539
2.4100,17.92660317
2.4150,18.00395502
2.4200,18.0821047
2.4250,18.16116503
2.4300,18.24141723
2.4350,18.32320401
2.4400,18.40655274
2.4450,18.49151128
2.4500,18.57820013
2.4550,18.66683336
2.4600,18.75719652
2.4650,18.84933737
2.4700,18.94333959
2.4750,19.03924722
2.4800,19.13658304
2.4850,19.23530518
2.4900,19.33524513
2.4950,19.43644295
2.5000,19.53872984
2.5050,19.64217779
2.5100,19.74619441
2.5150,19.8505168
2.5200,19.95503822
2.5250,20.05968049
2.5300,20.16411259
2.5350,20.26831297
2.5400,20.37192355
2.5450,20.47466862
2.5500,20.57653627
2.5550,20.67736211
2.5600,20.77717006
2.5650,20.87577744
2.5700,20.97351922
2.5750,21.07012965
2.5800,21.16564692
2.5850,21.25981263
2.5900,21.352579
2.5950,21.44394125
2.6000,21.53358716
2.6050,21.62170122
2.6100,21.70819808
2.6150,21.79320216
2.6200,21.87661263
2.6250,21.95855395
2.6300,22.0391565
2.6350,22.11832624
2.6400,22.19593267
2.6450,22.27195914
2.6500,22.34633782
2.6550,22.41928486
2.6600,22.49083547
2.6650,22.56116712
2.6700,22.6303389
2.6750,22.69877385
2.6800,22.76660348
2.6850,22.8338582
2.6900,22.90087504
2.6950,22.96757077
2.7000,23.03392521
2.7050,23.09993672
2.7100,23.16571934
2.7150,23.23148992
2.7200,23.29730582
2.7250,23.36311802
2.7300,23.42881256
2.7350,23.49429234
2.7400,23.55967112
2.7450,23.62497363
2.7500,23.69046531
2.7550,23.7563356
2.7600,23.82260557
2.7650,23.88912546
2.7700,23.95578883
2.7750,24.02267487
2.7800,24.0896319
2.7850,24.15679656
2.7900,24.2240233
2.7950,24.29129469
2.8000,24.3584818
2.8050,24.42523607
2.8100,24.49177325
2.8150,24.55843761
2.8200,24.62505056
2.8250,24.69147344
2.8300,24.75786494
2.8350,24.82393147
2.8400,24.88969641
2.8450,24.95508885
2.8500,25.02025051
2.8550,25.08535306
2.8600,25.15041069
2.8650,25.21569694
2.8700,25.28117666
2.8750,25.34696033
2.8800,25.41291728
2.8850,25.47934738
2.8900,25.5460104
2.8950,25.61260959
2.9000,25.67944906
2.9050,25.74600715
2.9100,25.81210291
2.9150,25.87745833
2.9200,25.94195388
2.9250,26.00531176
2.9300,26.06750439
2.9350,26.12852631
2.9400,26.1886786
2.9450,26.24790743
2.9500,26.30642097
2.9550,26.36405654
2.9600,26.42104638
2.9650,26.47734332
2.9700,26.5327737
2.9750,26.58747751
2.9800,26.64112276
2.9850,26.69390523
2.9900,26.74578075
2.9950,26.79673485
3.0000,26.84696791
3.0050,26.89648327
3.0100,26.94533392
3.0150,26.99307603
3.0200,27.03962896
3.0250,27.08464709
3.0300,27.12796232
3.0350,27.1694819
3.0400,27.20961903
3.0450,27.2486266
3.0500,27.28665498
3.0550,27.32383704
3.0600,27.36046097
3.0650,27.3968256
3.0700,27.43349453
3.0750,27.47068559
3.0800,27.50909278
3.0850,27.54872843
3.0900,27.58992554
3.0950,27.63286482
3.1000,27.67798648
3.1050,27.72551967
3.1100,27.77561068
3.1150,27.82780466
3.1200,27.88201346
3.1250,27.93799282
3.1300,27.99575164
3.1350,28.05512366
3.1400,28.11587605
3.1450,28.17781375
3.1500,28.24036088
3.1550,28.30315888
3.1600,28.36578043
3.1650,28.42769341
3.1700,28.48839559
3.1750,28.54753199
3.1800,28.60512375
3.1850,28.66109474
3.1900,28.71536568
3.1950,28.76804408
3.2000,28.81896171
3.2050,28.86805336
3.2100,28.91542727
3.2150,28.96089888
3.2200,29.00460545
3.2250,29.04667414
3.2300,29.08705077
3.2350,29.12549598
3.2400,29.16181358
3.2450,29.19598172
3.2500,29.22815744
3.2550,29.2583339
3.2600,29.28649186
3.2650,29.31268912
3.2700,29.33721921
3.2750,29.35997069
3.2800,29.3812424
3.2850,29.40085277
3.2900,29.41901596
3.2950,29.43571659
3.3000,29.45108855
3.3050,29.46519659
3.3100,29.47793572
3.3150,29.48987133
3.3200,29.50113551
3.3250,29.51235858
3.3300,29.52408615
3.3350,29.5366078
3.3400,29.55009663
3.3450,29.564639
3.3500,29.58068573
3.3550,29.59820304
3.3600,29.61788898
3.3650,29.64012919
3.3700,29.66525081
3.3750,29.69369785
3.3800,29.72547954
3.3850,29.76121424
3.3900,29.80134252
3.3950,29.84598594
3.4000,29.89529333
3.4050,29.94916464
3.4100,30.00751856
3.4150,30.07063277
3.4200,30.13831872
3.4250,30.21051952
3.4300,30.28685425
3.4350,30.36707054
3.4400,30.45066501
3.4450,30.53731752
3.4500,30.62659827
3.4550,30.71836582
3.4600,30.81226164
3.4650,30.90839285
3.4700,31.00653882
3.4750,31.10639487
3.4800,31.20740482
3.4850,31.30895518
3.4900,31.41099129
3.4950,31.51326801
3.5000,31.61562315
3.5050,31.71800212
3.5100,31.82048258
3.5150,31.92312449
3.5200,32.02583148
3.5250,32.12832755
3.5300,32.2306074
3.5350,32.33308815
3.5400,32.43562589
3.5450,32.53820286
3.5500,32.64083148
3.5550,32.74336945
3.5600,32.84574224
3.5650,32.94781374
3.5700,33.04974823
3.5750,33.15136819
3.5800,33.25257334
3.5850,33.35370585
3.5900,33.45464442
3.5950,33.55556299
3.6000,33.65625841
3.6050,33.75709362
3.6100,33.8581577
3.6150,33.95923858
3.6200,34.06030991
3.6250,34.16109055
3.6300,34.26151499
3.6350,34.36178467
3.6400,34.46185216
3.6450,34.56187087
3.6500,34.66143586
3.6550,34.76090312
3.6600,34.86028049
3.6650,34.95921118
3.6700,35.05777982
3.6750,35.15594949
3.6800,35.2537735
3.6850,35.35102777
3.6900,35.44768496
3.6950,35.54374511
3.7000,35.63904912
3.7050,35.73359934
3.7100,35.82742347
3.7150,35.92033026
3.7200,36.0122298
3.7250,36.10321198
3.7300,36.19304417
3.7350,36.28163302
3.7400,36.36891872
3.7450,36.45497641
3.7500,36.53979889
3.7550,36.62316622
3.7600,36.70518526
3.7650,36.78543267
3.7700,36.86386466
3.7750,36.94045331
3.7800,37.01521035
3.7850,37.08846338
3.7900,37.15993636
3.7950,37.22964812
3.8000,37.29743127
3.8050,37.36304116
3.8100,37.42626455
3.8150,37.48713272
3.8200,37.54549963
3.8250,37.60119153
3.8300,37.65406501
3.8350,37.70397296
3.8400,37.75090709
3.8450,37.79493253
3.8500,37.83564609
3.8550,37.87302145
3.8600,37.9072615
3.8650,37.93839956
3.8700,37.96598879
3.8750,37.99032183
3.8800,38.01133438
3.8850,38.02881197
3.8900,38.04269816
3.8950,38.05307889
3.9000,38.05983158
3.9050,38.06275944
3.9100,38.06186395
3.9150,38.05714609
3.9200,38.04873513
3.9250,38.03679944
3.9300,38.02132439
3.9350,38.00243798
3.9400,37.97991782
3.9450,37.95387638
3.9500,37.92466012
3.9550,37.89222531
3.9600,37.85655912
3.9650,37.81810586
3.9700,37.77688301
3.9750,37.73308787
3.9800,37.68700566
3.9850,37.63864251
3.9900,37.58803737
3.9950,37.53536513
4.0000,37.48078676
4.0050,37.42472183
4.0100,37.36724268
4.0150,37.30879937
4.0200,37.24953015
4.0250,37.18962347
4.0300,37.12938208
4.0350,37.06885047
4.0400,37.00826489
4.0450,36.94755773
4.0500,36.88678282
4.0550,36.82596078
4.0600,36.76501097
4.0650,36.70392448
4.0700,36.64270212
4.0750,36.58122926
4.0800,36.5196342
4.0850,36.45783479
4.0900,36.39546689
4.0950,36.33264698
4.1000,36.26912377
4.1050,36.20500101
4.1100,36.14009197
4.1150,36.07408522
4.1200,36.00699361
4.1250,35.93893019
4.1300,35.87009372
4.1350,35.80024612
4.1400,35.72958817
4.1450,35.65801689
4.1500,35.58582126
4.1550,35.5131151
4.1600,35.4398658
4.1650,35.36610551
4.1700,35.29196528
4.1750,35.2174021
4.1800,35.1421965
4.1850,35.06659954
4.1900,34.99045599
4.1950,34.91367937
4.2000,34.8366007
4.2050,34.75911954
4.2100,34.68127509
4.2150,34.60340677
4.2200,34.52538934
4.2250,34.44728479
4.2300,34.36927077
4.2350,34.29112902
4.2400,34.21305118
4.2450,34.13514381
4.2500,34.0574092
4.2550,33.9798746
4.2600,33.90259057
4.2650,33.82570094
4.2700,33.74922731
4.2750,33.67313971
4.2800,33.59748856
4.2850,33.52274468
4.2900,33.44900697
4.2950,33.37634305
4.3000,33.30482681
4.3050,33.23427149
4.3100,33.16461332
4.3150,33.09583384
4.3200,33.0279199
4.3250,32.96048807
4.3300,32.8935762
4.3350,32.82705978
4.3400,32.76093703
4.3450,32.6951731
4.3500,32.62979678
4.3550,32.56495757
4.3600,32.50072878
4.3650,32.43712306
4.3700,32.37410271
4.3750,32.31181145
4.3800,32.25004363
4.3850,32.1886128
4.3900,32.12761198
4.3950,32.06674476
4.4000,32.00631137
4.4050,31.94630971
4.4100,31.88668816
4.4150,31.82760338
4.4200,31.76878609
4.4250,31.71025406
4.4300,31.65156331
4.4350,31.59290959
4.4400,31.53381376
4.4450,31.47432532
4.4500,31.41413034
4.4550,31.35311641
4.4600,31.2909965
4.4650,31.22771659
4.4700,31.16341292
4.4750,31.09807426
4.4800,31.03176422
4.4850,30.9643959
4.4900,30.89611597
4.4950,30.82672335
4.5000,30.75612948
4.5050,30.68451679
4.5100,30.61174897
4.5150,30.53760756
4.5200,30.46204635
4.5250,30.38499116
4.5300,30.30646414
4.5350,30.22671314
4.5400,30.1458714
4.5450,30.06383862
4.5500,29.98079498
4.5550,29.89667246
4.5600,29.81141186
4.5650,29.72501878
4.5700,29.63755666
4.5750,29.54910582
4.5800,29.45960345
4.5850,29.36904271
4.5900,29.27743362
4.5950,29.18475533
4.6000,29.09089188
4.6050,28.99592734
4.6100,28.90004216
4.6150,28.80320333
4.6200,28.70541846
4.6250,28.60708678
4.6300,28.50802903
4.6350,28.40848624
4.6400,28.30822871
4.6450,28.20746976
4.6500,28.10626858
4.6550,28.00460696
4.6600,27.90252904
4.6650,27.79998718
4.6700,27.69698319
4.6750,27.59341625
4.6800,27.4893517
4.6850,27.38479894
4.6900,27.28007752
4.6950,27.17495682
4.7000,27.0693093
4.7050,26.96291542
4.7100,26.85598123
4.7150,26.74850392
4.7200,26.6403883
4.7250,26.53176411
4.7300,26.4228362
4.7350,26.31342451
4.7400,26.20380941
4.7450,26.09382583
4.7500,25.98358615
4.7550,25.87333214
4.7600,25.76311879
4.7650,25.65292994
4.7700,25.54264138
4.7750,25.43215745
4.7800,25.32182909
4.7850,25.21157901
4.7900,25.10140837
4.7950,24.99137222
4.8000,24.88154559
4.8050,24.77178835
4.8100,24.66213196
4.8150,24.55258709
4.8200,24.44299413
4.8250,24.33355311
4.8300,24.22421051
4.8350,24.11473521
4.8400,24.00512061
4.8450,23.89538531
4.8500,23.78526124
4.8550,23.67510403
4.8600,23.5649738
4.8650,23.45489083
4.8700,23.34489913
4.8750,23.23501275
4.8800,23.1251952
4.8850,23.01541598
4.8900,22.90560512
4.8950,22.79581151
4.9000,22.68615941
4.9050,22.57656958
4.9100,22.46709545
4.9150,22.35769532
4.9200,22.24872284
4.9250,22.13996866
4.9300,22.03166998
4.9350,21.92376353
4.9400,21.81665023
4.9450,21.71019364
4.9500,21.60451865
4.9550,21.49956902
4.9600,21.39549118
4.9650,21.29234586
4.9700,21.18994289
4.9750,21.08829494
4.9800,20.98733599
4.9850,20.88718017
4.9900,20.78814519
4.9950,20.69066403
5.0000,20.59471783
5.0050,20.50043881
5.0100,20.40759395
5.0150,20.31619446
5.0200,20.22649901
5.0250,20.13862088
5.0300,20.05235803
5.0350,19.96749051
5.0400,19.8838244
5.0450,19.80164574
5.0500,19.72081431
5.0550,19.64121152
5.0600,19.56273866
5.0650,19.48529616
5.0700,19.40904877
5.0750,19.33395059
5.0800,19.25990994
5.0850,19.18689314
5.0900,19.11459675
5.0950,19.04314777
5.1000,18.9722187
5.1050,18.90166506
5.1100,18.83157777
5.1150,18.76185284
5.1200,18.69285572
5.1250,18.62480462
5.1300,18.55762218
5.1350,18.49148955
5.1400,18.42626334
5.1450,18.36178888
5.1500,18.29843144
5.1550,18.23566628
5.1600,18.17331896
5.1650,18.11096551
5.1700,18.04820652
5.1750,17.98495136
5.1800,17.92115127
5.1850,17.85644759
5.1900,17.79064188
5.1950,17.72369646
5.2000,17.65564713
5.2050,17.58667991
5.2100,17.516744
5.2150,17.44583784
5.2200,17.37391447
5.2250,17.30123897
5.2300,17.22782205
5.2350,17.15398436
5.2400,17.07961656
5.2450,17.00503344
5.2500,16.93028919
5.2550,16.8557166
5.2600,16.78148886
5.2650,16.70790379
5.2700,16.63548101
5.2750,16.56434028
5.2800,16.49472483
5.2850,16.42682835
5.2900,16.36025672
5.2950,16.29478613
5.3000,16.23056874
5.3050,16.16761049
5.3100,16.10622029
5.3150,16.04627587
5.3200,15.98760698
5.3250,15.92974735
5.3300,15.87286548
5.3350,15.81709358
5.3400,15.76261601
5.3450,15.70926438
5.3500,15.65733155
5.3550,15.60684569
5.3600,15.5581897
5.3650,15.51152569
5.3700,15.46691215
5.3750,15.42404147
5.3800,15.38285354
5.3850,15.34325645
5.3900,15.3054372
5.3950,15.26949243
5.4000,15.23546118
5.4050,15.20343117
5.4100,15.17322543
5.4150,15.14481114
5.4200,15.11804682
5.4250,15.0924611
5.4300,15.06800758
5.4350,15.04447083
5.4400,15.02165579
5.4450,14.99955082
5.4500,14.97775564
5.4550,14.95658664
5.4600,14.93589194
5.4650,14.91586486
5.4700,14.89655392
5.4750,14.87781275
5.4800,14.85955771
5.4850,14.84173012
5.4900,14.82421685
5.4950,14.80674419
5.5000,14.78880816
5.5050,14.77000984
5.5100,14.75002267
5.5150,14.72890593
5.5200,14.70622352
5.5250,14.68164175
5.5300,14.65512287
5.5350,14.62636262
5.5400,14.59563114
5.5450,14.56278579
5.5500,14.52810294
5.5550,14.49145866
5.5600,14.45322847
5.5650,14.41349437
5.5700,14.37250807
5.5750,14.3305007
5.5800,14.28775896
5.5850,14.24433154
5.5900,14.20067264
5.5950,14.15711809
5.6000,14.11370164
5.6050,14.07066284
5.6100,14.0276259
5.6150,13.98469478
5.6200,13.94195305
5.6250,13.89959211
5.6300,13.85744925
5.6350,13.81542231
5.6400,13.77335903
5.6450,13.73115317
5.6500,13.68844844
5.6550,13.64525395
5.6600,13.60125318
5.6650,13.55651813
5.6700,13.51091887
5.6750,13.46507785
5.6800,13.41913167
5.6850,13.37341715
5.6900,13.32807238
5.6950,13.28337912
5.7000,13.23961613
5.7050,13.19708072
5.7100,13.15588977
5.7150,13.11635658
5.7200,13.0785564
5.7250,13.04274641
5.7300,13.00887439
5.7350,12.97702168
5.7400,12.94727059
5.7450,12.91941233
5.7500,12.89311713
5.7550,12.8679189
5.7600,12.84359758
5.7650,12.81962827
5.7700,12.7957067
5.7750,12.77144557
5.7800,12.74638001
5.7850,12.72035181
5.7900,12.69321992
5.7950,12.66491478
5.8000,12.63567203
5.8050,12.60560903
5.8100,12.57512061
5.8150,12.5438204
5.8200,12.51227256
5.8250,12.48074016
5.8300,12.44932143
5.8350,12.41828852
5.8400,12.38773185
5.8450,12.35784481
5.8500,12.32863909
5.8550,12.30007004
5.8600,12.2718898
5.8650,12.24416637
5.8700,12.21660543
5.8750,12.18929698
5.8800,12.16194345
5.8850,12.13449314
5.8900,12.1065829
5.8950,12.07817548
5.9000,12.04890689
5.9050,12.01854573
5.9100,11.98727724
5.9150,11.95505891
5.9200,11.92189342
5.9250,11.88762287
5.9300,11.85246238
5.9350,11.81673056
5.9400,11.78055553
5.9450,11.74394544
5.9500,11.7073775
5.9550,11.67092168
5.9600,11.63484652
5.9650,11.59920798
5.9700,11.5641273
5.9750,11.52945389
5.9800,11.49543712
5.9850,11.46191931
5.9900,11.42915758
5.9950,11.39690312
6.0000,11.36520457
6.0050,11.33410049
6.0100,11.30362818
6.0150,11.27365561
6.0200,11.24417653
6.0250,11.21522852
6.0300,11.18690131
6.0350,11.15929547
6.0400,11.1322207
6.0450,11.10587009
6.0500,11.08009131
6.0550,11.0546894
6.0600,11.02937376
6.0650,11.00391671
6.0700,10.97815341
6.0750,10.9517608
6.0800,10.92474279
6.0850,10.89680197
6.0900,10.86756088
6.0950,10.83679374
6.1000,10.8039494
6.1050,10.76888897
6.1100,10.73089131
6.1150,10.6900755
6.1200,10.64611076
6.1250,10.5989112
6.1300,10.54853803
6.1350,10.49519242
6.1400,10.43863764
6.1450,10.37900787
6.1500,10.3165247
6.1550,10.25157355
6.1600,10.18457825
6.1650,10.11577752
6.1700,10.04543601
6.1750,9.973705663
6.1800,9.900817866
6.1850,9.826981729
6.1900,9.752723958
6.1950,9.678080673
6.2000,9.60349058
6.2050,9.529325272
6.2100,9.455608097
6.2150,9.382405699
6.2200,9.309730275
6.2250,9.237786062
6.2300,9.166426428
6.2350,9.095570695
6.2400,9.025062428
6.2450,8.954886313
6.2500,8.884769289
6.2550,8.814825169
6.2600,8.744887309
6.2650,8.674810518
6.2700,8.604899291
6.2750,8.534970845
6.2800,8.46509364
6.2850,8.39536008
6.2900,8.325673632
6.2950,8.256122897
6.3000,8.186732455
6.3050,8.117544782
6.3100,8.048718388
6.3150,7.980396407
6.3200,7.912849659
6.3250,7.846149339
6.3300,7.780297233
6.3350,7.715514619
6.3400,7.651933797
6.3450,7.589677101
6.3500,7.528848206
6.3550,7.469740808
6.3600,7.412640177
6.3650,7.357702684
6.3700,7.304824785
6.3750,7.254148175
6.3800,7.205591677
6.3850,7.159093102
6.3900,7.114712696
6.3950,7.072564308
6.4000,7.032779264
6.4050,6.995203654
6.4100,6.960036025
6.4150,6.927174045
6.4200,6.896655927
6.4250,6.868326928
6.4300,6.842047278
6.4350,6.817748535
6.4400,6.795512031
6.4450,6.775455232
6.4500,6.757532761
6.4550,6.741960651
6.4600,6.72852326
6.4650,6.717491855
6.4700,6.708851979
6.4750,6.702828188
6.4800,6.699584533
6.4850,6.699091641
6.4900,6.700982063
6.4950,6.705349062
6.5000,6.712006168
6.5050,6.720461909
6.5100,6.730781553
6.5150,6.742986398
6.5200,6.756753129
6.5250,6.771900591
6.5300,6.788559388
6.5350,6.806327713
6.5400,6.825094977
6.5450,6.844731675
6.5500,6.865104589
6.5550,6.886053957
6.5600,6.907674427
6.5650,6.9300013
6.5700,6.952753538
6.5750,6.976117602
6.5800,6.999641547
6.5850,7.023447291
6.5900,7.047573711
6.5950,7.07189283
6.6000,7.096479048
6.6050,7.121345156
6.6100,7.146590233
6.6150,7.171981621
6.6200,7.197503231
6.6250,7.222903081
6.6300,7.248238185
6.6350,7.273170048
6.6400,7.29765378
6.6450,7.321648453
6.6500,7.345205707
6.6550,7.368177484
6.6600,7.390406033
6.6650,7.411904743
6.6700,7.432771173
6.6750,7.452923496
6.6800,7.472458409
6.6850,7.49118796
6.6900,7.509209258
6.6950,7.526572262
6.7000,7.543343301
6.7050,7.559492401
6.7100,7.57528182
6.7150,7.590662942
6.7200,7.605675093
6.7250,7.620260766
6.7300,7.6345649
6.7350,7.648565063
6.7400,7.662165763
6.7450,7.675389847
6.7500,7.68813569
6.7550,7.700399787
6.7600,7.712205743
6.7650,7.723477532
6.7700,7.734354548
6.7750,7.744914687
6.7800,7.755250498
6.7850,7.765501945
6.7900,7.775872806
6.7950,7.786297151
6.8000,7.797097792
6.8050,7.808530089
6.8100,7.820753456
6.8150,7.833654792
6.8200,7.847821155
6.8250,7.862992662
6.8300,7.879396197
6.8350,7.897025177
6.8400,7.916170613
6.8450,7.936763822
6.8500,7.958963065
6.8550,7.982625145
6.8600,8.007532982
6.8650,8.033787592
6.8700,8.061019173
6.8750,8.089252345
6.8800,8.118531897
6.8850,8.148744095
6.8900,8.179944195
6.8950,8.212158351
6.9000,8.245474335
6.9050,8.279834255
6.9100,8.315045285
6.9150,8.351457825
6.9200,8.388835719
6.9250,8.427407362
6.9300,8.467254441
6.9350,8.508241731
6.9400,8.550628185
6.9450,8.594079354
6.9500,8.63854171
6.9550,8.683790389
6.9600,8.729745367
6.9650,8.77601207
6.9700,8.822331959
6.9750,8.868501832
6.9800,8.913893574
6.9850,8.958534944
6.9900,9.002012807
6.9950,9.04384204
7.0000,9.083673772
7.0050,9.121296401
7.0100,9.156408939
7.0150,9.188912695
7.0200,9.218458862
7.0250,9.245218881
7.0300,9.269036475
7.0350,9.289890794
7.0400,9.308164191
7.0450,9.323755132
7.0500,9.336856381
7.0550,9.347589647
7.0600,9.35614958
7.0650,9.362791017
7.0700,9.367743447
7.0750,9.371175217
7.0800,9.373327128
7.0850,9.3742058
7.0900,9.374123447
7.0950,9.373253382
7.1000,9.371889957
7.1050,9.370437509
7.1100,9.368969433
7.1150,9.367748194
7.1200,9.366568163
7.1250,9.365836006
7.1300,9.36543304
7.1350,9.365632402
7.1400,9.366139283
7.1450,9.367314864
7.1500,9.369052143
7.1550,9.371439794
7.1600,9.374662748
7.1650,9.378632095
7.1700,9.383563091
7.1750,9.389481425
7.1800,9.396420329
7.1850,9.404351808
7.1900,9.413102501
7.1950,9.422782031
7.2000,9.433303623
7.2050,9.444541955
7.2100,9.456833045
7.2150,9.469859511
7.2200,9.483703501
7.2250,9.498154852
7.2300,9.513023869
7.2350,9.528386284
7.2400,9.543999413
7.2450,9.559839795
7.2500,9.575644532
7.2550,9.591493037
7.2600,9.60730568
7.2650,9.622927731
7.2700,9.638213476
7.2750,9.653147986
7.2800,9.667696331
7.2850,9.681783763
7.2900,9.695430259
7.2950,9.708855413
7.3000,9.72202375
7.3050,9.735165784
7.3100,9.748154678
7.3150,9.760971179
7.3200,9.773928734
7.3250,9.786833814
7.3300,9.799819017
7.3350,9.812970879
7.3400,9.826165711
7.3450,9.839570108
7.3500,9.853347092
7.3550,9.867550341
7.3600,9.882250268
7.3650,9.897382494
7.3700,9.912901124
7.3750,9.928664152
7.3800,9.944709532
7.3850,9.961324151
7.3900,9.978288014
7.3950,9.995880789
7.4000,10.01370372
7.4050,10.03168914
7.4100,10.04985181
7.4150,10.06828663
7.4200,10.0871155
7.4250,10.10647288
7.4300,10.12621281
7.4350,10.14646595
7.4400,10.16752243
7.4450,10.18915825
7.4500,10.21139314
7.4550,10.23415284
7.4600,10.25743874
7.4650,10.28112167
7.4700,10.30519052
7.4750,10.32948855
7.4800,10.35399072
7.4850,10.37853801
7.4900,10.40329057
7.4950,10.42776429
7.5000,10.45208591
7.5050,10.4759124
7.5100,10.49915673
7.5150,10.52157605
7.5200,10.54319358
7.5250,10.5638462
7.5300,10.58358248
7.5350,10.60224389
7.5400,10.61954085
7.5450,10.63567628
7.5500,10.65051824
7.5550,10.66402526
7.5600,10.67587511
7.5650,10.68602305
7.5700,10.6944776
7.5750,10.70116862
7.5800,10.70612467
7.5850,10.70937333
7.5900,10.71091099
7.5950,10.71055922
7.6000,10.70851167
7.6050,10.70443668
7.6100,10.69831838
7.6150,10.69041524
7.6200,10.68047674
7.6250,10.66865287
7.6300,10.65490571
7.6350,10.6392548
7.6400,10.62176696
7.6450,10.6025833
7.6500,10.58162413
7.6550,10.55880641
7.6600,10.53418474
7.6650,10.50771714
7.6700,10.4794561
7.6750,10.44978094
7.6800,10.4188015
7.6850,10.38658081
7.6900,10.35346532
7.6950,10.31949018
7.7000,10.28513289
7.7050,10.25074149
7.7100,10.216696
7.7150,10.18319492
7.7200,10.15062579
7.7250,10.11934535
7.7300,10.08977534
7.7350,10.06207164
7.7400,10.03652328
7.7450,10.01315306
7.7500,9.992351558
7.7550,9.974117285
7.7600,9.958655957
7.7650,9.946033077
7.7700,9.93622287
7.7750,9.929207889
7.7800,9.924996432
7.7850,9.923542918
7.7900,9.924402335
7.7950,9.92781017
7.8000,9.933277748
7.8050,9.940978833
7.8100,9.95059773
7.8150,9.962042156
7.8200,9.975170501
7.8250,9.989684704
7.8300,10.00557714
7.8350,10.02270111
7.8400,10.041307
7.8450,10.06110678
7.8500,10.08230994
7.8550,10.10497959
7.8600,10.12919269
7.8650,10.1552418
7.8700,10.1830187
7.8750,10.21235679
7.8800,10.24340986
7.8850,10.27590686
7.8900,10.30992333
7.8950,10.34526609
7.9000,10.38179112
7.9050,10.41958738
7.9100,10.45868955
7.9150,10.49882395
7.9200,10.54007757
7.9250,10.58226766
7.9300,10.62518106
7.9350,10.66878184
7.9400,10.71279012
7.9450,10.75717314
7.9500,10.80183452
7.9550,10.84679386
7.9600,10.89220409
7.9650,10.93820306
7.9700,10.98489652
7.9750,11.03223183
7.9800,11.08016818
7.9850,11.12894191
7.9900,11.17850661
7.9950,11.22916394
8.0000,11.28077
8.0050,11.33326892
8.0100,11.38660365
8.0150,11.44087752
8.0200,11.49581413
8.0250,11.55125729
8.0300,11.607259
8.0350,11.66386378
8.0400,11.72095557
8.0450,11.77882871
8.0500,11.83711093
8.0550,11.89575735
8.0600,11.95448733
8.0650,12.01339032
8.0700,12.07243576
8.0750,12.13156418
8.0800,12.1907688
8.0850,12.25005186
8.0900,12.30960875
8.0950,12.36944681
8.1000,12.42955975
8.1050,12.48998855
8.1100,12.55053009
8.1150,12.61153904
8.1200,12.6727126
8.1250,12.73432485
8.1300,12.79633751
8.1350,12.85878866
8.1400,12.92160983
8.1450,12.98486235
8.1500,13.04848886
8.1550,13.11221019
8.1600,13.17617806
8.1650,13.24011183
8.1700,13.30402054
8.1750,13.36780335
8.1800,13.43140725
8.1850,13.49492713
8.1900,13.55809063
8.1950,13.62124304
8.2000,13.68437167
8.2050,13.74766385
8.2100,13.81110806
8.2150,13.87512599
8.2200,13.93980431
8.2250,14.00525151
8.2300,14.0716342
8.2350,14.13894313
8.2400,14.20742586
8.2450,14.2768252
8.2500,14.34726692
8.2550,14.41856858
8.2600,14.49064408
8.2650,14.56349221
8.2700,14.63710584
8.2750,14.71136476
8.2800,14.78648004
8.2850,14.86213533
8.2900,14.93825275
8.2950,15.01455975
8.3000,15.09109213
8.3050,15.16769491
8.3100,15.24405805
8.3150,15.32052039
8.3200,15.39723671
8.3250,15.47441973
8.3300,15.5519826
8.3350,15.63008934
8.3400,15.70871933
8.3450,15.78798221
8.3500,15.86798751
8.3550,15.94890658
8.3600,16.0306798
8.3650,16.11330712
8.3700,16.19651284
8.3750,16.28010813
8.3800,16.36383856
8.3850,16.44780627
8.3900,16.53166947
8.3950,16.61528476
8.4000,16.69858448
8.4050,16.78165738
8.4100,16.8645967
8.4150,16.94715477
8.4200,17.02980904
8.4250,17.11267053
8.4300,17.19582395
8.4350,17.27937493
8.4400,17.36329173
8.4450,17.44763814
8.4500,17.53232754
8.4550,17.61736934
8.4600,17.70249132
8.4650,17.78768976
8.4700,17.87315426
8.4750,17.95910524
8.4800,18.04558748
8.4850,18.13288293
8.4900,18.22135365
8.4950,18.31105253
8.5000,18.40224004
8.5050,18.49459328
8.5100,18.58829344
8.5150,18.6828649
8.5200,18.77802405
8.5250,18.87385583
8.5300,18.97047749
8.5350,19.06763697
8.5400,19.16544314
8.5450,19.26400134
8.5500,19.36332688
8.5550,19.4637149
8.5600,19.56499341
8.5650,19.66704871
8.5700,19.76991897
8.5750,19.87351942
8.5800,19.97764977
8.5850,20.08244209
8.5900,20.18792574
8.5950,20.29404887
8.6000,20.40102208
8.6050,20.50880371
8.6100,20.61791661
8.6150,20.7277097
8.6200,20.83820638
8.6250,20.9496393
8.6300,21.06198794
8.6350,21.1751239
8.6400,21.28918621
8.6450,21.40390048
8.6500,21.51917137
8.6550,21.63509067
8.6600,21.75162198
8.6650,21.86833224
8.6700,21.98533902
8.6750,22.10255996
8.6800,22.21994054
8.6850,22.33684013
8.6900,22.45331233
8.6950,22.56905691
8.7000,22.68403851
8.7050,22.79785978
8.7100,22.9104699
8.7150,23.02191271
8.7200,23.13188648
8.7250,23.24038626
8.7300,23.34724627
8.7350,23.45248682
8.7400,23.55606636
8.7450,23.65772883
8.7500,23.75799868
8.7550,23.85706501
8.7600,23.95543195
8.7650,24.0535205
8.7700,24.15118208
8.7750,24.24848717
8.7800,24.3452419
8.7850,24.44128266
8.7900,24.53635518
8.7950,24.63023591
8.8000,24.72252684
8.8050,24.81346748
8.8100,24.90298687
8.8150,24.9908897
8.8200,25.07743175
8.8250,25.16250557
8.8300,25.24583407
8.8350,25.32742954
8.8400,25.40731115
8.8450,25.48566343
8.8500,25.56246771
8.8550,25.63785362
8.8600,25.71185939
8.8650,25.78476686
8.8700,25.85680072
8.8750,25.9281322
8.8800,25.99883616
8.8850,26.06906011
8.8900,26.13904339
8.8950,26.20891293
8.9000,26.278497
8.9050,26.34769707
8.9100,26.4164933
8.9150,26.48520407
8.9200,26.5539278
8.9250,26.62244864
8.9300,26.69066845
8.9350,26.75864722
8.9400,26.82610191
8.9450,26.89314834
8.9500,26.95951955
8.9550,27.02488539
8.9600,27.08907662
8.9650,27.15216234
8.9700,27.21425259
8.9750,27.27527986
8.9800,27.33526048
8.9850,27.39429838
8.9900,27.45222349
8.9950,27.50906271
9.0000,27.56464928
9.0050,27.618959
9.0100,27.67197087
9.0150,27.72356053
9.0200,27.77364157
9.0250,27.82173837
9.0300,27.86797925
9.0350,27.9124913
9.0400,27.95553384
9.0450,27.99752286
9.0500,28.03827376
9.0550,28.07811311
9.0600,28.11716698
9.0650,28.15558616
9.0700,28.19362199
9.0750,28.23163251
9.0800,28.27009222
9.0850,28.30936419
9.0900,28.34965639
9.0950,28.39145196
9.1000,28.43513341
9.1050,28.48102117
9.1100,28.52918172
9.1150,28.57985334
9.1200,28.63311165
9.1250,28.68906659
9.1300,28.74781122
9.1350,28.80927327
9.1400,28.87314748
9.1450,28.93930914
9.1500,29.00764779
9.1550,29.07795069
9.1600,29.15034469
9.1650,29.2244662
9.1700,29.29987194
9.1750,29.37653156
9.1800,29.4542293
9.1850,29.53289756
9.1900,29.61254088
9.1950,29.69277086
9.2000,29.77375012
9.2050,29.85549817
9.2100,29.93791409
9.2150,30.02081428
9.2200,30.10415042
9.2250,30.1878644
9.2300,30.27237411
9.2350,30.3577461
9.2400,30.4441574
9.2450,30.5316161
9.2500,30.62025292
9.2550,30.70996319
9.2600,30.8007432
9.2650,30.89234512
9.2700,30.98438016
9.2750,31.07693076
9.2800,31.16986054
9.2850,31.26319628
9.2900,31.35689813
9.2950,31.45092307
9.3000,31.54530406
9.3050,31.63984564
9.3100,31.73451866
9.3150,31.82910301
9.3200,31.92363147
9.3250,32.01848624
9.3300,32.11370884
9.3350,32.20920856
9.3400,32.30508319
9.3450,32.40138457
9.3500,32.49829087
9.3550,32.59578235
9.3600,32.69386966
9.3650,32.79251508
9.3700,32.89226868
9.3750,32.99316203
9.3800,33.09556091
9.3850,33.19937473
9.3900,33.30514148
9.3950,33.4125249
9.4000,33.5214851
9.4050,33.63155931
9.4100,33.74285934
9.4150,33.85540896
9.4200,33.96892413
9.4250,34.08304995
9.4300,34.1977363
9.4350,34.3129064
9.4400,34.4283434
9.4450,34.54371634
9.4500,34.65885935
9.4550,34.7734822
9.4600,34.88730668
9.4650,35.00039714
9.4700,35.11263143
9.4750,35.22366769
9.4800,35.33361535
9.4850,35.44209159
9.4900,35.5486104
9.4950,35.65328554
9.5000,35.75604907
9.5050,35.85683384
9.5100,35.95550673
9.5150,36.05212033
9.5200,36.14664177
9.5250,36.2388268
9.5300,36.32842398
9.5350,36.41507425
9.5400,36.4987131
9.5450,36.57929221
9.5500,36.65654147
9.5550,36.73067625
9.5600,36.80140096
9.5650,36.86901288
9.5700,36.93333775
9.5750,36.9942088
9.5800,37.0513614
9.5850,37.10482564
9.5900,37.15466399
9.5950,37.20065611
9.6000,37.24290593
9.6050,37.28145428
9.6100,37.31610094
9.6150,37.34713391
9.6200,37.37455801
9.6250,37.39833735
9.6300,37.41830538
9.6350,37.43454716
9.6400,37.44703408
9.6450,37.4557354
9.6500,37.46078007
9.6550,37.46234431
9.6600,37.4605974
9.6650,37.45568434
9.6700,37.44759694
9.6750,37.43654079
9.6800,37.42234687
9.6850,37.40534198
9.6900,37.38533267
9.6950,37.36266732
9.7000,37.33738659
9.7050,37.30984667
9.7100,37.28007697
9.7150,37.2480612
9.7200,37.21407551
9.7250,37.17821977
9.7300,37.14079826
9.7350,37.10167225
9.7400,37.06105209
9.7450,37.01905772
9.7500,36.97567648
9.7550,36.93126038
9.7600,36.88578253
9.7650,36.83950879
9.7700,36.79253966
9.7750,36.74520133
9.7800,36.69763967
9.7850,36.65007692
9.7900,36.60264227
9.7950,36.5554386
9.8000,36.50824404
9.8050,36.46120452
9.8100,36.41442232
9.8150,36.36813279
9.8200,36.32217121
9.8250,36.27681716
9.8300,36.23185799
9.8350,36.18738305
9.8400,36.1433893
9.8450,36.09956339
9.8500,36.05621888
9.8550,36.01311589
9.8600,35.97023653
9.8650,35.92736242
9.8700,35.8846216
9.8750,35.84165482
9.8800,35.79881654
9.8850,35.75569462
9.8900,35.71222352
9.8950,35.66846957
9.9000,35.62434589
9.9050,35.57981349
9.9100,35.53482873
9.9150,35.48928762
9.9200,35.44335928
9.9250,35.39671857
9.9300,35.34944907
9.9350,35.3013968
9.9400,35.25233845
9.9450,35.20247862
9.9500,35.15175433
9.9550,35.10010587
9.9600,35.04763099
9.9650,34.99430448
9.9700,34.93994008
9.9750,34.88440025
9.9800,34.82797845
9.9850,34.77049498
9.9900,34.71193509
9.9950,34.65211726
10.0000,34.59114009
10.0050,34.52905876
10.0100,34.46579241
10.0150,34.40154767
10.0200,34.33605338
10.0250,34.2697059
10.0300,34.20235278
10.0350,34.1342508
10.0400,34.06562886
10.0450,33.99646285
10.0500,33.9268995
10.0550,33.8569581
10.0600,33.786646
10.0650,33.71593184
10.0700,33.64500051
10.0750,33.57383166
10.0800,33.50219593
10.0850,33.43014022
10.0900,33.35762829
10.0950,33.28482182
10.1000,33.21180985
10.1050,33.13872558
10.1100,33.06540939
10.1150,32.99162534
10.1200,32.91743789
10.1250,32.84280647
10.1300,32.76769247
10.1350,32.69208647
10.1400,32.61592899
10.1450,32.5394184
10.1500,32.462408
10.1550,32.38470693
10.1600,32.30634449
10.1650,32.22725443
10.1700,32.14760184
10.1750,32.0674285
10.1800,31.98667341
10.1850,31.90550663
10.1900,31.82377612
10.1950,31.74154147
10.2000,31.6587802
10.2050,31.57560101
10.2100,31.49203101
10.2150,31.40807097
10.2200,31.32359294
10.2250,31.23876127
10.2300,31.15353761
10.2350,31.06801689
10.2400,30.9824587
10.2450,30.89669076
10.2500,30.81051645
10.2550,30.72380016
10.2600,30.6362443
10.2650,30.5479302
10.2700,30.45904198
10.2750,30.36960469
10.2800,30.27945273
10.2850,30.18859497
10.2900,30.09712775
10.2950,30.00512949
10.3000,29.91256987
10.3050,29.81938505
10.3100,29.72582026
10.3150,29.6319069
10.3200,29.53779467
10.3250,29.4432495
10.3300,29.34828127
10.3350,29.25314831
10.3400,29.15765789
10.3450,29.06205312
10.3500,28.96648985
10.3550,28.8710176
10.3600,28.77567391
10.3650,28.68042098
10.3700,28.58537246
10.3750,28.49042745
10.3800,28.39570136
10.3850,28.30100807
10.3900,28.20651953
10.3950,28.11201063
10.4000,28.01779126
10.4050,27.92381658
10.4100,27.83015312
10.4150,27.73690845
10.4200,27.64421438
10.4250,27.55201618
10.4300,27.46064473
10.4350,27.37024193
10.4400,27.28077473
10.4450,27.19201405
10.4500,27.10385401
10.4550,27.01661023
10.4600,26.93027319
10.4650,26.84476181
10.4700,26.75995981
10.4750,26.67599098
10.4800,26.59249481
10.4850,26.50962527
10.4900,26.42756848
10.4950,26.34604101
10.5000,26.26484197
10.5050,26.18369471
10.5100,26.10262084
10.5150,26.02169813
10.5200,25.94056073
10.5250,25.85924945
10.5300,25.77748032
10.5350,25.69518698
10.5400,25.61206533
10.5450,25.52825452
10.5500,25.44382143
10.5550,25.35894825
10.5600,25.27374215
10.5650,25.18819238
10.5700,25.1020995
10.5750,25.01521334
10.5800,24.92754791
10.5850,24.83922653
10.5900,24.75023791
10.5950,24.66037613
10.6000,24.56953106
10.6050,24.47768154
10.6100,24.38469092
10.6150,24.29057356
10.6200,24.19533735
10.6250,24.09913242
10.6300,24.00185023
10.6350,23.90356889
10.6400,23.80418547
10.6450,23.70351135
10.6500,23.60161017
10.6550,23.49835896
10.6600,23.39393053
10.6650,23.28844338
10.6700,23.18177774
10.6750,23.07414415
10.6800,22.9656269
10.6850,22.85631839
10.6900,22.74657559
10.6950,22.63635459
10.7000,22.52571402
10.7050,22.41441637
10.7100,22.30258844
10.7150,22.19009006
10.7200,22.07695677
10.7250,21.96325405
10.7300,21.84901541
10.7350,21.73410693
10.7400,21.61866692
10.7450,21.50288693
10.7500,21.38718112
10.7550,21.27154459
10.7600,21.15626496
10.7650,21.04158846
10.7700,20.92731827
10.7750,20.81351372
10.7800,20.70021705
10.7850,20.5870297
10.7900,20.47397212
10.7950,20.36115605
10.8000,20.24880578
10.8050,20.13699192
10.8100,20.02567393
10.8150,19.9148157
10.8200,19.80478675
10.8250,19.69581928
10.8300,19.58836294
10.8350,19.48282419
10.8400,19.3795604
10.8450,19.27845739
10.8500,19.17957281
10.8550,19.08287802
10.8600,18.98847838
10.8650,18.89639533
10.8700,18.80654722
10.8750,18.71915679
10.8800,18.63408787
10.8850,18.55122516
10.8900,18.47041684
10.8950,18.39182836
10.9000,18.31547283
10.9050,18.24097195
10.9100,18.16802968
10.9150,18.09618486
10.9200,18.02525542
10.9250,17.95488735
10.9300,17.88501399
10.9350,17.81539768
10.9400,17.74602765
10.9450,17.67706396
10.9500,17.60845181
10.9550,17.54032985
10.9600,17.47283216
10.9650,17.4061134
10.9700,17.34019779
10.9750,17.27526726
10.9800,17.21116073
10.9850,17.14815438
10.9900,17.08597676
10.9950,17.02483272
11.0000,16.96430932
11.0050,16.9046081
11.0100,16.84564985
11.0150,16.78778203
11.0200,16.73088029
11.0250,16.67493325
11.0300,16.6199676
11.0350,16.56589072
11.0400,16.51278251
11.0450,16.46043372
11.0500,16.40871895
11.0550,16.35736706
11.0600,16.30658715
11.0650,16.25624958
11.0700,16.20681186
11.0750,16.15848029
11.0800,16.11139421
11.0850,16.06601895
11.0900,16.02220095
11.0950,15.98009616
11.1000,15.93956289
11.1050,15.90071206
11.1100,15.86369798
11.1150,15.82830158
11.1200,15.79441226
11.1250,15.76172967
11.1300,15.73014792
11.1350,15.69944529
11.1400,15.6694168
11.1450,15.63990187
11.1500,15.61121594
11.1550,15.58332543
11.1600,15.55617396
11.1650,15.52982044
11.1700,15.50435217
11.1750,15.47979942
11.1800,15.45605582
11.1850,15.43274695
11.1900,15.40974205
11.1950,15.38703536
11.2000,15.36432201
11.2050,15.34162696
11.2100,15.31896987
11.2150,15.29622932
11.2200,15.27325424
11.2250,15.24984874
11.2300,15.22569921
11.2350,15.20054187
11.2400,15.17427297
11.2450,15.14653109
11.2500,15.11720639
11.2550,15.08608471
11.2600,15.05303366
11.2650,15.01776089
11.2700,14.98025299
11.2750,14.94046183
11.2800,14.89866819
11.2850,14.85484226
11.2900,14.8091799
11.2950,14.76186051
11.3000,14.71331852
11.3050,14.66396428
11.3100,14.61426142
11.3150,14.56440342
11.3200,14.51517028
11.3250,14.46706941
11.3300,14.4202006
11.3350,14.37492052
11.3400,14.3312151
11.3450,14.2894707
11.3500,14.24975612
11.3550,14.21218649
11.3600,14.1766471
11.3650,14.14364943
11.3700,14.11301784
11.3750,14.08483246
11.3800,14.05878949
11.3850,14.03470972
11.3900,14.01257007
11.3950,13.99225638
11.4000,13.97352199
11.4050,13.95605395
11.4100,13.93924342
11.4150,13.9229782
11.4200,13.90686409
11.4250,13.89082514
11.4300,13.87451214
11.4350,13.85741361
11.4400,13.83921454
11.4450,13.81982916
11.4500,13.79890067
11.4550,13.77599604
11.4600,13.75114432
11.4650,13.7240494
11.4700,13.69454139
11.4750,13.66254829
11.4800,13.62795651
11.4850,13.59095943
11.4900,13.55151455
11.4950,13.50945473
11.5000,13.46494707
11.5050,13.41824683
11.5100,13.36925362
11.5150,13.31833287
11.5200,13.26566588
11.5250,13.21146729
11.5300,13.15607129
11.5350,13.09980618
11.5400,13.04299852
11.5450,12.98618856
11.5500,12.92961595
11.5550,12.87379213
11.5600,12.81910734
11.5650,12.76632288
11.5700,12.71608337
11.5750,12.66898167
11.5800,12.62562241
11.5850,12.58658612
11.5900,12.55228333
11.5950,12.52306139
11.6000,12.49920174
11.6050,12.48057109
11.6100,12.4671625
11.6150,12.45906738
11.6200,12.45580212
11.6250,12.45707184
11.6300,12.46257247
11.6350,12.47217923
11.6400,12.48570847
11.6450,12.50267203
11.6500,12.52271679
11.6550,12.54565464
11.6600,12.57104137
11.6650,12.59791281
11.6700,12.62557504
11.6750,12.65334385
11.6800,12.68098561
11.6850,12.70804398
11.6900,12.73408527
11.6950,12.75867679
11.7000,12.78159986
11.7050,12.80256343
11.7100,12.82153284
11.7150,12.83824536
11.7200,12.85249692
11.7250,12.86394384
11.7300,12.87240481
11.7350,12.87775039
11.7400,12.88008369
11.7450,12.8790476
11.7500,12.87441305
11.7550,12.86627859
11.7600,12.85418377
11.7650,12.83815377
11.7700,12.81816207
11.7750,12.79401949
11.7800,12.76560903
11.7850,12.73288748
11.7900,12.69598172
11.7950,12.6547328
11.8000,12.60930722
11.8050,12.5595677
11.8100,12.5058269
11.8150,12.4482568
11.8200,12.38674565
11.8250,12.32155811
11.8300,12.25283639
11.8350,12.18067309
11.8400,12.1054924
11.8450,12.02745305
11.8500,11.9469243
11.8550,11.86408894
11.8600,11.7792112
11.8650,11.69232769
11.8700,11.60359234
11.8750,11.5130223
11.8800,11.4208402
11.8850,11.32714956
11.8900,11.23223793
11.8950,11.13675377
11.9000,11.04092482
11.9050,10.94559229
11.9100,10.8511827
11.9150,10.75803702
11.9200,10.66652591
11.9250,10.57718464
11.9300,10.49060567
11.9350,10.40694753
11.9400,10.32666398
11.9450,10.2501135
11.9500,10.17748142
11.9550,10.10893246
11.9600,10.04451195
11.9650,9.98429667
11.9700,9.928528101
11.9750,9.877098073
11.9800,9.830080523
11.9850,9.78731215
11.9900,9.748700501
11.9950,9.714134723
12.0000,9.683256581
12.0050,9.656137241
12.0100,9.632477365
12.0150,9.611709389
12.0200,9.593841395
12.0250,9.578824148
12.0300,9.566305087
12.0350,9.55636866
12.0400,9.548537234
12.0450,9.542740592
12.0500,9.538758693
12.0550,9.536453515
12.0600,9.535718544
12.0650,9.536353484
12.0700,9.538170491
12.0750,9.540871002
12.0800,9.544536027
12.0850,9.54897116
12.0900,9.553991305
12.0950,9.55953122
12.1000,9.565512773
12.1050,9.571773812
12.1100,9.578018744
12.1150,9.583909725
12.1200,9.589417589
12.1250,9.594542934
12.1300,9.598996411
12.1350,9.602948962
12.1400,9.605925
12.1450,9.607814241
12.1500,9.608481657
12.1550,9.607831249
12.1600,9.605970897
12.1650,9.602588563
12.1700,9.597857515
12.1750,9.59205593
12.1800,9.584922509
12.1850,9.576661375
12.1900,9.56733424
12.1950,9.556800412
12.2000,9.545066345
12.2050,9.532010712
12.2100,9.517782563
12.2150,9.502414965
12.2200,9.486046432
12.2250,9.468805317
12.2300,9.450771991
12.2350,9.432340952
12.2400,9.413602969
12.2450,9.394950051
12.2500,9.376647092
12.2550,9.358911279
12.2600,9.342068367
12.2650,9.326358397
12.2700,9.311863964
12.2750,9.298914197
12.2800,9.287419961
12.2850,9.277578252
12.2900,9.269269689
12.2950,9.262429836
12.3000,9.257164883
12.3050,9.253240646
12.3100,9.250392768
12.3150,9.248943506
12.3200,9.24855477
12.3250,9.248931865
12.3300,9.250127948
12.3350,9.251798621
12.3400,9.253924502
12.3450,9.256305121
12.3500,9.258943395
12.3550,9.261883352
12.3600,9.265012661
12.3650,9.268395906
12.3700,9.27211769
12.3750,9.276464361
12.3800,9.281355876
12.3850,9.28690173
12.3900,9.293185672
12.3950,9.300493641
12.4000,9.308795535
12.4050,9.318369032
12.4100,9.329230901
12.4150,9.341490282
12.4200,9.355222029
12.4250,9.370384147
12.4300,9.387074683
12.4350,9.404970188
12.4400,9.424174359
12.4450,9.444743166
12.4500,9.466554106
12.4550,9.489585334
12.4600,9.513502186
12.4650,9.538414299
12.4700,9.564081817
12.4750,9.590189892
12.4800,9.616884837
12.4850,9.644009283
12.4900,9.671476056
12.4950,9.699084458
12.5000,9.727020458
12.5050,9.755333633
12.5100,9.783845087
12.5150,9.812735234
12.5200,9.842010098
12.5250,9.871610722
12.5300,9.901484533
12.5350,9.931682689
12.5400,9.962087188
12.5450,9.992588134
12.5500,10.02313163
12.5550,10.05367041
12.5600,10.08396506
12.5650,10.11415089
12.5700,10.14411395
12.5750,10.17377087
12.5800,10.20324324
12.5850,10.2324244
12.5900,10.26107716
12.5950,10.28939487
12.6000,10.31698307
12.6050,10.34377746
12.6100,10.36978065
12.6150,10.39469147
12.6200,10.41833222
12.6250,10.44062375
12.6300,10.46130426
12.6350,10.48040317
12.6400,10.49768107
12.6450,10.5130663
12.6500,10.52651571
12.6550,10.53767863
12.6600,10.54660011
12.6650,10.55312702
12.6700,10.55729457
12.6750,10.55897195
12.6800,10.55849461
12.6850,10.55570011
12.6900,10.55072168
12.6950,10.54355301
12.7000,10.53441993
12.7050,10.52344428
12.7100,10.51100874
12.7150,10.49733676
12.7200,10.48279758
12.7250,10.46749861
12.7300,10.451938
12.7350,10.43628091
12.7400,10.42093157
12.7450,10.40597303
12.7500,10.39163556
12.7550,10.37821927
12.7600,10.36602761
12.7650,10.3552308
12.7700,10.34582959
12.7750,10.33787445
12.7800,10.33141009
12.7850,10.32652707
12.7900,10.32321243
12.7950,10.32161656
12.8000,10.32163094
12.8050,10.3233262
12.8100,10.32673234
12.8150,10.33181563
12.8200,10.33866203
12.8250,10.34714863
12.8300,10.35739051
12.8350,10.36923266
12.8400,10.38277117
12.8450,10.39793085
12.8500,10.41480513
12.8550,10.43328381
12.8600,10.45328268
12.8650,10.47449533
12.8700,10.49690199
12.8750,10.52019198
12.8800,10.54396197
12.8850,10.56809134
12.8900,10.59256803
12.8950,10.61687076
12.9000,10.64105512
12.9050,10.66467313
12.9100,10.6875934
12.9150,10.70957328
12.9200,10.73049322
12.9250,10.7499818
12.9300,10.76796369
12.9350,10.78396584
12.9400,10.79802239
12.9450,10.81013025
12.9500,10.82011756
12.9550,10.82784342
12.9600,10.83351229
12.9650,10.83702897
12.9700,10.83838148
12.9750,10.83766103
12.9800,10.83451458
12.9850,10.82939754
12.9900,10.82248701
12.9950,10.81387163
13.0000,10.80359227
13.0050,10.79184847
13.0100,10.77869475
13.0150,10.7643893
13.0200,10.74889032
13.0250,10.73253692
13.0300,10.7153999
13.0350,10.69775939
13.0400,10.67966523
13.0450,10.66132064
13.0500,10.64283893
13.0550,10.62466137
13.0600,10.60679924
13.0650,10.58959197
13.0700,10.57318372
13.0750,10.55805313
13.0800,10.54441064
13.0850,10.53243913
13.0900,10.52215309
13.0950,10.51370082
13.1000,10.50712889
13.1050,10.50256693
13.1100,10.49993123
13.1150,10.49905301
13.1200,10.49997979
13.1250,10.5026893
13.1300,10.50720576
13.1350,10.51355549
13.1400,10.52167257
13.1450,10.53153823
13.1500,10.54307318
13.1550,10.55604643
13.1600,10.57050426
13.1650,10.58628391
13.1700,10.6034641
13.1750,10.62187421
13.1800,10.64177533
13.1850,10.66295079
13.1900,10.68538225
13.1950,10.7089281
13.2000,10.73361509
13.2050,10.75920616
13.2100,10.78568622
13.2150,10.81290837
13.2200,10.84058427
13.2250,10.86871347
13.2300,10.89701219
13.2350,10.92546438
13.2400,10.95394317
13.2450,10.98227063
13.2500,11.01040997
13.2550,11.03829658
13.2600,11.06570653
13.2650,11.09258959
13.2700,11.11892986
13.2750,11.14455782
13.2800,11.16956825
13.2850,11.19405768
13.2900,11.2176456
13.2950,11.24052335
13.3000,11.26272862
13.3050,11.28424146
13.3100,11.30504851
13.3150,11.32521412
13.3200,11.34486988
13.3250,11.36409154
13.3300,11.38267164
13.3350,11.40086988
13.3400,11.41864017
13.3450,11.43596203
13.3500,11.45303397
13.3550,11.46956967
13.3600,11.48561308
13.3650,11.50112475
13.3700,11.51638254
13.3750,11.53115211
13.3800,11.54541529
13.3850,11.55917135
13.3900,11.57260796
13.3950,11.58553596
13.4000,11.59793278
13.4050,11.60960444
13.4100,11.62068233
13.4150,11.63127957
13.4200,11.64135204
13.4250,11.65073962
13.4300,11.65947104
13.4350,11.66747753
13.4400,11.67482258
13.4450,11.68129195
13.4500,11.68679194
13.4550,11.69140407
13.4600,11.69507219
13.4650,11.69802674
13.4700,11.69996148
13.4750,11.70104863
13.4800,11.70131525
13.4850,11.70063592
13.4900,11.69896895
13.4950,11.69634014
13.5000,11.69269237
13.5050,11.68838147
13.5100,11.68318114
13.5150,11.67734367
13.5200,11.6708949
13.5250,11.66389363
13.5300,11.65646263
13.5350,11.64872401
13.5400,11.64066185
13.5450,11.63246615
13.5500,11.62399669
13.5550,11.61546962
13.5600,11.60719984
13.5650,11.59944415
13.5700,11.59222345
13.5750,11.58606839
13.5800,11.58121992
13.5850,11.57770127
13.5900,11.57576425
13.5950,11.57539094
13.6000,11.57682186
13.6050,11.58009439
13.6100,11.58550938
13.6150,11.59291181
13.6200,11.60253706
13.6250,11.61434929
13.6300,11.62847952
13.6350,11.64490452
13.6400,11.66368121
13.6450,11.68481036
13.6500,11.70814587
13.6550,11.73347285
13.6600,11.76096955
13.6650,11.79041177
13.6700,11.82174274
13.6750,11.85495558
13.6800,11.88966719
13.6850,11.9257352
13.6900,11.96309331
13.6950,12.00177946
13.7000,12.04165521
13.7050,12.08281656
13.7100,12.1249315
13.7150,12.16793775
13.7200,12.21166633
13.7250,12.25617198
13.7300,12.30110432
13.7350,12.34627464
13.7400,12.39134606
13.7450,12.43638249
13.7500,12.48106643
13.7550,12.52534493
13.7600,12.56918518
13.7650,12.61216249
13.7700,12.65441939
13.7750,12.69571169
13.7800,12.73579878
13.7850,12.77488116
13.7900,12.81286788
13.7950,12.84980955
13.8000,12.88549873
13.8050,12.91986584
13.8100,12.95324699
13.8150,12.98556895
13.8200,13.01714738
13.8250,13.0481668
13.8300,13.07880577
13.8350,13.10914266
13.8400,13.13941724
13.8450,13.1696745
13.8500,13.20022945
13.8550,13.23142092
13.8600,13.26316025
13.8650,13.29545541
13.8700,13.32836787
13.8750,13.36202693
13.8800,13.39659113
13.8850,13.43218962
13.8900,13.46919758
13.8950,13.50790023
13.9000,13.54814822
13.9050,13.59016901
13.9100,13.63385976
13.9150,13.67912651
13.9200,13.72604916
13.9250,13.77462674
13.9300,13.82512121
13.9350,13.87749842
13.9400,13.93168873
13.9450,13.98767486
13.9500,14.04523036
13.9550,14.10437494
13.9600,14.16471917
13.9650,14.22612043
13.9700,14.28844417
13.9750,14.35163596
13.9800,14.41582871
13.9850,14.48115845
13.9900,14.54753445
13.9950,14.61483155
14.0000,14.68269534
14.0050,14.75076698
14.0100,14.81916552
14.0150,14.88773427
14.0200,14.95637899
14.0250,15.02494499
14.0300,15.09315884
14.0350,15.16092625
14.0400,15.22835248
14.0450,15.2952981
14.0500,15.3617008
14.0550,15.4274465
14.0600,15.49236976
14.0650,15.55664584
14.0700,15.61998994
14.0750,15.6827247
14.0800,15.74476586
14.0850,15.80606799
14.0900,15.86671925
14.0950,15.92671762
14.1000,15.98612799
14.1050,16.04508712
14.1100,16.1036609
14.1150,16.16190229
14.1200,16.22012887
14.1250,16.2783693
14.1300,16.33667672
14.1350,16.39523926
14.1400,16.45415864
14.1450,16.51375508
14.1500,16.57401803
14.1550,16.63507545
14.1600,16.69704649
14.1650,16.76014242
14.1700,16.8244708
14.1750,16.88982448
14.1800,16.95616717
14.1850,17.02356388
14.1900,17.09201057
14.1950,17.16126427
14.2000,17.23146326
14.2050,17.30271131
14.2100,17.37510077
14.2150,17.44913051
14.2200,17.52460068
14.2250,17.6017301
14.2300,17.68039738
14.2350,17.76055172
14.2400,17.84231335
14.2450,17.92566591
14.2500,18.0109495
14.2550,18.09842251
14.2600,18.18824057
14.2650,18.28040156
14.2700,18.37506127
14.2750,18.47199419
14.2800,18.57100919
14.2850,18.67166675
14.2900,18.7737863
14.2950,18.87718392
14.3000,18.98203262
14.3050,19.08816855
14.3100,19.19514576
14.3150,19.30268475
14.3200,19.41028747
14.3250,19.51753403
14.3300,19.62446993
14.3350,19.73080546
14.3400,19.83638775
14.3450,19.94088563
14.3500,20.04419026
14.3550,20.14606566
14.3600,20.24648036
14.3650,20.34512044
14.3700,20.44200505
14.3750,20.53671291
14.3800,20.62894449
14.3850,20.71849238
14.3900,20.80504109
14.3950,20.88876836
14.4000,20.96955701
14.4050,21.04732272
14.4100,21.12205778
14.4150,21.19377266
14.4200,21.26247114
14.4250,21.32804725
14.4300,21.39080758
14.4350,21.45070907
14.4400,21.50786608
14.4450,21.5621861
14.4500,21.61381181
14.4550,21.66269774
14.4600,21.70917361
14.4650,21.75343642
14.4700,21.79577233
14.4750,21.83665751
14.4800,21.87657357
14.4850,21.91577931
14.4900,21.95435324
14.4950,21.99285946
14.5000,22.03148674
14.5050,22.07023392
14.5100,22.10933415
14.5150,22.14869134
14.5200,22.18859545
14.5250,22.22907529
14.5300,22.27037365
14.5350,22.31250688
14.5400,22.35569851
14.5450,22.40006809
14.5500,22.44586514
14.5550,22.4929866
14.5600,22.54180679
14.5650,22.59257514
14.5700,22.64518727
14.5750,22.69958553
14.5800,22.75588111
14.5850,22.81399579
14.5900,22.87382881
14.5950,22.93517196
14.6000,22.99806766
14.6050,23.06247673
14.6100,23.12845941
14.6150,23.1958747
14.6200,23.26471546
14.6250,23.33501977
14.6300,23.40637719
14.6350,23.47885872
14.6400,23.55183897
14.6450,23.62517134
14.6500,23.69852584
14.6550,23.77162331
14.6600,23.84406199
14.6650,23.9159507
14.6700,23.98708122
14.6750,24.05740195
14.6800,24.12691039
14.6850,24.19555109
14.6900,24.26362372
14.6950,24.33062141
14.7000,24.39666685
14.7050,24.46169883
14.7100,24.52539139
14.7150,24.58791313
14.7200,24.64911758
14.7250,24.70916856
14.7300,24.76782466
14.7350,24.82545545
14.7400,24.88220154
14.7450,24.93820271
14.7500,24.99380051
14.7550,25.04922133
14.7600,25.1045094
14.7650,25.15955283
14.7700,25.21444901
14.7750,25.26917786
14.7800,25.32385689
14.7850,25.37857986
14.7900,25.43370591
14.7950,25.48932149
14.8000,25.54565255
14.8050,25.60294621
14.8100,25.6611089
14.8150,25.72049419
14.8200,25.78140033
14.8250,25.84392534
14.8300,25.90834667
14.8350,25.97518993
14.8400,26.04420941
14.8450,26.11563141
14.8500,26.18908132
14.8550,26.26486088
14.8600,26.34287705
14.8650,26.42298068
14.8700,26.50495636
14.8750,26.5890282
14.8800,26.67508909
14.8850,26.76314379
14.8900,26.85286483
14.8950,26.94429304
14.9000,27.03711413
14.9050,27.13096082
14.9100,27.22535559
14.9150,27.32006007
14.9200,27.4147966
14.9250,27.50905499
14.9300,27.60263423
14.9350,27.69538439
14.9400,27.787589
14.9450,27.87933866
14.9500,27.97037805
14.9550,28.0609814
14.9600,28.15083005
14.9650,28.23943424
14.9700,28.32668769
14.9750,28.41240348
14.9800,28.49695131
14.9850,28.58012171
14.9900,28.66181411
14.9950,28.74213391
15.0000,28.82137113
15.0050,28.89953713
15.0100,28.97661791
15.0150,29.05237279
15.0200,29.12703914
15.0250,29.20073744
15.0300,29.27375574
15.0350,29.34645166
15.0400,29.41912778
15.0450,29.49191345
15.0500,29.56485642
15.0550,29.63815216
15.0600,29.71184593
15.0650,29.78635252
15.0700,29.86218641
15.0750,29.939573
15.0800,30.01871715
15.0850,30.09978548
15.0900,30.18264453
15.0950,30.2674757
15.1000,30.35432905
15.1050,30.44296438
15.1100,30.53344874
15.1150,30.62560878
15.1200,30.71913536
15.1250,30.8138729
15.1300,30.90911429
15.1350,31.00468605
15.1400,31.10089646
15.1450,31.19757263
15.1500,31.29488343
15.1550,31.39229525
15.1600,31.48960273
15.1650,31.58679782
15.1700,31.68376092
15.1750,31.78024173
15.1800,31.87596038
15.1850,31.97075638
15.1900,32.06452828
15.1950,32.15671087
15.2000,32.24691281
15.2050,32.33491091
15.2100,32.4206881
15.2150,32.503818
15.2200,32.58421458
15.2250,32.66185914
15.2300,32.73645659
15.2350,32.8075834
15.2400,32.87444607
15.2450,32.93689093
15.2500,32.9947506
15.2550,33.04769323
15.2600,33.09588898
15.2650,33.13961915
15.2700,33.17881564
15.2750,33.21361295
15.2800,33.24375105
15.2850,33.2693444
15.2900,33.2904169
15.2950,33.30700118
15.3000,33.31902139
15.3050,33.32677651
15.3100,33.33062338
15.3150,33.33095281
15.3200,33.32754855
15.3250,33.320755
15.3300,33.31043073
15.3350,33.29657312
15.3400,33.27903702
15.3450,33.25796584
15.3500,33.23363962
15.3550,33.20629466
15.3600,33.17627631
15.3650,33.14382773
15.3700,33.10900345
15.3750,33.07208891
15.3800,33.03321678
15.3850,32.99244637
15.3900,32.9500153
15.3950,32.90610837
15.4000,32.86103567
15.4050,32.81507517
15.4100,32.76874276
15.4150,32.7221612
15.4200,32.67568439
15.4250,32.62951603
15.4300,32.58415939
15.4350,32.53942402
15.4400,32.49541961
15.4450,32.45222644
15.4500,32.4100014
15.4550,32.36908222
15.4600,32.32944188
15.4650,32.29107781
15.4700,32.25398747
15.4750,32.21796149
15.4800,32.18297046
15.4850,32.14877627
15.4900,32.11541473
15.4950,32.08287496
15.5000,32.05121117
15.5050,32.02018736
15.5100,31.98968678
15.5150,31.95978089
15.5200,31.9303201
15.5250,31.90105537
15.5300,31.87212739
15.5350,31.84335302
15.5400,31.81486615
15.5450,31.78630815
15.5500,31.75751793
15.5550,31.72847341
15.5600,31.69902365
15.5650,31.66920271
15.5700,31.63898974
15.5750,31.6082552
15.5800,31.57678245
15.5850,31.54485434
15.5900,31.51220934
15.5950,31.47882603
15.6000,31.44473674
15.6050,31.40985801
15.6100,31.37408207
15.6150,31.33734494
15.6200,31.29959016
15.6250,31.2605987
15.6300,31.22063887
15.6350,31.17945694
15.6400,31.13731603
15.6450,31.09435438
15.6500,31.05047748
15.6550,31.00561418
15.6600,30.95959785
15.6650,30.91247224
15.6700,30.86398193
15.6750,30.81424607
15.6800,30.76323071
15.6850,30.71100305
15.6900,30.65768167
15.6950,30.60329423
15.7000,30.54744972
15.7050,30.49018876
15.7100,30.43137893
15.7150,30.37105387
15.7200,30.30900757
15.7250,30.24523995
15.7300,30.17992341
15.7350,30.11284623
15.7400,30.04398858
15.7450,29.97361515
15.7500,29.9014435
15.7550,29.82751493
15.7600,29.75181871
15.7650,29.67433178
15.7700,29.59498884
15.7750,29.51404874
15.7800,29.43159643
15.7850,29.34756724
15.7900,29.26165844
15.7950,29.1739666
15.8000,29.08456702
15.8050,28.99350836
15.8100,28.90066736
15.8150,28.80612351
15.8200,28.70991465
15.8250,28.61237589
15.8300,28.51331185
15.8350,28.4128121
15.8400,28.31096786
15.8450,28.20780976
15.8500,28.10347991
15.8550,27.99815163
15.8600,27.89192628
15.8650,27.78492684
15.8700,27.67730183
15.8750,27.56926404
15.8800,27.46118761
15.8850,27.35311255
15.8900,27.24512765
15.8950,27.13752573
15.9000,27.03016712
15.9050,26.92320504
15.9100,26.81701247
15.9150,26.71150392
15.9200,26.60692541
15.9250,26.50351846
15.9300,26.40121111
15.9350,26.30015768
15.9400,26.20035025
15.9450,26.10172964
15.9500,26.00440588
15.9550,25.90843485
15.9600,25.81387916
15.9650,25.72074222
15.9700,25.62909822
15.9750,25.53894726
15.9800,25.45019799
15.9850,25.36280665
15.9900,25.27654138
15.9950,25.19116495
16.0000,25.10708895
16.0050,25.02416515
16.0100,24.94233289
16.0150,24.86149606
16.0200,24.78167462
16.0250,24.70277247
16.0300,24.62449522
16.0350,24.54696866
16.0400,24.47010312
16.0450,24.39338703
16.0500,24.31691932
16.0550,24.24028791
16.0600,24.16348542
16.0650,24.08634983
16.0700,24.00893371
16.0750,23.93117649
16.0800,23.85283694
16.0850,23.77391377
16.0900,23.69447221
16.0950,23.61440166
16.1000,23.53331438
16.1050,23.45131918
16.1100,23.36829507
16.1150,23.28415549
16.1200,23.19896115
16.1250,23.1124387
16.1300,23.02489637
16.1350,22.93601338
16.1400,22.84585607
16.1450,22.7544577
16.1500,22.6618419
16.1550,22.56806582
16.1600,22.47338627
16.1650,22.37764947
16.1700,22.2809013
16.1750,22.18332046
16.1800,22.08472691
16.1850,21.9851725
16.1900,21.8846875
16.1950,21.78323953
16.2000,21.68094048
16.2050,21.57745814
16.2100,21.47270503
16.2150,21.36689789
16.2200,21.2600927
16.2250,21.15223337
16.2300,21.04379468
16.2350,20.93487302
16.2400,20.82576336
16.2450,20.71662864
16.2500,20.60759403
16.2550,20.49875587
16.2600,20.39042454
16.2650,20.28281143
16.2700,20.17613382
16.2750,20.07034157
16.2800,19.96596007
16.2850,19.8629994
16.2900,19.76184704
16.2950,19.66244887
16.3000,19.56460922
16.3050,19.46863064
16.3100,19.37445756
16.3150,19.28238072
16.3200,19.19247499
16.3250,19.10477139
16.3300,19.01925434
16.3350,18.93590144
16.3400,18.85466591
16.3450,18.7756591
16.3500,18.69876127
16.3550,18.62422355
16.3600,18.55194527
16.3650,18.48195058
16.3700,18.41421512
16.3750,18.34858378
16.3800,18.28507651
16.3850,18.22362471
16.3900,18.16397957
16.3950,18.10606886
16.4000,18.05001333
16.4050,17.99544332
16.4100,17.9424216
16.4150,17.89058996
16.4200,17.83941059
16.4250,17.78865596
16.4300,17.73808588
16.4350,17.68767035
16.4400,17.63710705
16.4450,17.58632525
16.4500,17.5352467
16.4550,17.48350409
16.4600,17.43089048
16.4650,17.37745831
16.4700,17.32324754
16.4750,17.26810328
16.4800,17.21228368
16.4850,17.15586673
16.4900,17.09926069
16.4950,17.04244745
16.5000,16.9855312
16.5050,16.92877347
16.5100,16.87235325
16.5150,16.81632625
16.5200,16.76062838
16.5250,16.70540083
16.5300,16.65058667
16.5350,16.59623577
16.5400,16.54217543
16.5450,16.48828425
16.5500,16.43460558
16.5550,16.38122213
16.5600,16.3279507
16.5650,16.27483443
16.5700,16.22180255
16.5750,16.16878159
16.5800,16.11549046
16.5850,16.06192219
16.5900,16.00838907
16.5950,15.95512881
16.6000,15.9022852
16.6050,15.84996019
16.6100,15.79840867
16.6150,15.74745844
16.6200,15.69724445
16.6250,15.64793853
16.6300,15.59985213
16.6350,15.55298956
16.6400,15.50735273
16.6450,15.46305714
16.6500,15.42019888
16.6550,15.37838682
16.6600,15.3376059
16.6650,15.29787304
16.6700,15.25904054
16.6750,15.22107385
16.6800,15.18390695
16.6850,15.14730717
16.6900,15.11141535
16.6950,15.07604654
16.7000,15.04105199
16.7050,15.00650891
16.7100,14.97246427
16.7150,14.93888278
16.7200,14.90601931
16.7250,14.87405991
16.7300,14.84291672
16.7350,14.81280462
16.7400,14.7837704
16.7450,14.75584428
16.7500,14.72913716
16.7550,14.70363469
16.7600,14.6792661
16.7650,14.65579099
16.7700,14.63339116
16.7750,14.61202883
16.7800,14.591604
16.7850,14.57218021
16.7900,14.55360143
16.7950,14.53604508
16.8000,14.51958206
16.8050,14.50444633
16.8100,14.49057501
16.8150,14.47785384
16.8200,14.46632628
16.8250,14.45598091
16.8300,14.44676785
16.8350,14.43889873
16.8400,14.43245443
16.8450,14.42762396
16.8500,14.42454595
16.8550,14.42341459
16.8600,14.4242176
16.8650,14.42682288
16.8700,14.4312884
16.8750,14.43756034
16.8800,14.44546026
16.8850,14.45493547
16.8900,14.46539717
16.8950,14.47675888
16.9000,14.48881896
16.9050,14.50154087
16.9100,14.51462355
16.9150,14.52811701
16.9200,14.54191203
16.9250,14.5557178
16.9300,14.56939463
16.9350,14.58297871
16.9400,14.59638946
16.9450,14.60976603
16.9500,14.62287248
16.9550,14.63619117
16.9600,14.64972026
16.9650,14.6635811
16.9700,14.6778539
16.9750,14.69255391
16.9800,14.70769063
16.9850,14.72348509
16.9900,14.73995059
16.9950,14.75715922
17.0000,14.77513425
17.0050,14.79394016
17.0100,14.81350467
17.0150,14.83395341
17.0200,14.85523216
17.0250,14.87720077
17.0300,14.89997642
17.0350,14.92339575
17.0400,14.94755298
17.0450,14.97243201
17.0500,14.99788655
17.0550,15.02393653
17.0600,15.05063136
17.0650,15.07801656
17.0700,15.10575466
17.0750,15.13368931
17.0800,15.16167053
17.0850,15.18934494
17.0900,15.21661797
17.0950,15.24322807
17.1000,15.26881982
17.1050,15.2931655
17.1100,15.31590276
17.1150,15.3371824
17.1200,15.35683642
17.1250,15.37446572
17.1300,15.38988052
17.1350,15.40269667
17.1400,15.41261331
17.1450,15.41942337
17.1500,15.42291653
17.1550,15.42283309
17.1600,15.41930348
17.1650,15.41246463
17.1700,15.40249113
17.1750,15.38965077
17.1800,15.37425352
17.1850,15.35669139
17.1900,15.33747478
17.1950,15.31699633
17.2000,15.29575213
17.2050,15.27380556
17.2100,15.25178244
17.2150,15.23000391
17.2200,15.20866584
17.2250,15.18831077
17.2300,15.16893721
17.2350,15.1508548
17.2400,15.134079
17.2450,15.1186686
17.2500,15.10482941
17.2550,15.09246353
17.2600,15.08161101
17.2650,15.07217031
17.2700,15.06413143
17.2750,15.0573485
17.2800,15.05183794
17.2850,15.04736643
17.2900,15.04364024
17.2950,15.04065109
17.3000,15.03810201
17.3050,15.03568358
17.3100,15.03327517
17.3150,15.03091603
17.3200,15.02853517
17.3250,15.02611297
17.3300,15.02354439
17.3350,15.02082843
17.3400,15.01788863
17.3450,15.01446235
17.3500,15.01061256
17.3550,15.00649901
17.3600,15.00205724
17.3650,14.99711157
17.3700,14.99152273
17.3750,14.98518382
17.3800,14.97789038
17.3850,14.96943493
17.3900,14.95945734
17.3950,14.94773417
17.4000,14.9340208
17.4050,14.91799421
17.4100,14.89947879
17.4150,14.87805204
17.4200,14.85359378
17.4250,14.82607375
17.4300,14.79556693
17.4350,14.76201214
17.4400,14.72573084
17.4450,14.68705249
17.4500,14.6461971
17.4550,14.60355013
17.4600,14.55945458
17.4650,14.51445692
17.4700,14.46880311
17.4750,14.42299271
17.4800,14.37759325
17.4850,14.33293707
17.4900,14.28933588
17.4950,14.2471039
17.5000,14.2064759
17.5050,14.16777386
17.5100,14.13130228
17.5150,14.09710944
17.5200,14.06548892
17.5250,14.0363111
17.5300,14.0098409
17.5350,13.98607861
17.5400,13.96498101
17.5450,13.94648049
17.5500,13.93034703
17.5550,13.91654689
17.5600,13.90508213
17.5650,13.8956667
17.5700,13.88825512
17.5750,13.88273792
17.5800,13.87901288
17.5850,13.87705638
17.5900,13.87710721
17.5950,13.87904304
17.6000,13.88286532
17.6050,13.88869814
17.6100,13.89658105
17.6150,13.90635583
17.6200,13.91788234
17.6250,13.93112637
17.6300,13.94588917
17.6350,13.96208644
17.6400,13.97959807
17.6450,13.99833204
17.6500,14.0182237
17.6550,14.03889208
17.6600,14.06010724
17.6650,14.08185975
17.6700,14.10397718
17.6750,14.12632405
17.6800,14.14866142
17.6850,14.1709292
17.6900,14.19300254
17.6950,14.2147225
17.7000,14.23607835
17.7050,14.25696378
17.7100,14.27736253
17.7150,14.29720535
17.7200,14.31655486
17.7250,14.3355361
17.7300,14.35390243
17.7350,14.37187002
17.7400,14.3894167
17.7450,14.40650579
17.7500,14.42321323
17.7550,14.43955847
17.7600,14.4555361
17.7650,14.47108102
17.7700,14.48636319
17.7750,14.50131304
17.7800,14.51595256
17.7850,14.53043291
17.7900,14.54482108
17.7950,14.5591005
17.8000,14.57338748
17.8050,14.58770792
17.8100,14.60190454
17.8150,14.6160713
17.8200,14.62993439
17.8250,14.64362716
17.8300,14.65685607
17.8350,14.66951779
17.8400,14.68173643
17.8450,14.69347751
17.8500,14.70477861
17.8550,14.7156332
17.8600,14.7258217
17.8650,14.73567368
17.8700,14.74490197
17.8750,14.75373899
17.8800,14.76206158
17.8850,14.7699527
17.8900,14.77745172
17.8950,14.78441713
17.9000,14.79091321
17.9050,14.79685566
17.9100,14.80200409
17.9150,14.80624342
17.9200,14.80951951
17.9250,14.81187182
17.9300,14.81332991
17.9350,14.81383894
17.9400,14.81328288
17.9450,14.81175293
17.9500,14.80907059
17.9550,14.80536785
17.9600,14.8006937
17.9650,14.7950611
17.9700,14.78856016
17.9750,14.78131297
17.9800,14.77340155
17.9850,14.76470252
17.9900,14.75527369
17.9950,14.74504938
18.0000,14.73395054
18.0050,14.72186863
18.0100,14.70876987
18.0150,14.69454617
18.0200,14.67914434
18.0250,14.66244963
18.0300,14.64446076
18.0350,14.62479465
18.0400,14.60327996
18.0450,14.57976327
18.0500,14.55405813
18.0550,14.52632431
18.0600,14.49663069
18.0650,14.4649059
18.0700,14.43121661
18.0750,14.39586623
18.0800,14.35890779
18.0850,14.3205837
18.0900,14.2812784
18.0950,14.24127621
18.1000,14.20084911
18.1050,14.16041365
18.1100,14.12010453
18.1150,14.08011155
18.1200,14.04063331
18.1250,14.00181918
18.1300,13.96409111
18.1350,13.92760299
18.1400,13.89252941
18.1450,13.85901477
18.1500,13.82714966
18.1550,13.79713398
18.1600,13.76905119
18.1650,13.74285843
18.1700,13.71876304
18.1750,13.69663813
18.1800,13.67653475
18.1850,13.6584068
18.1900,13.64218822
18.1950,13.62801191
18.2000,13.61600591
18.2050,13.60646754
18.2100,13.59963591
18.2150,13.59580893
18.2200,13.59525915
18.2250,13.59815939
18.2300,13.60461797
18.2350,13.61469961
18.2400,13.62846555
18.2450,13.64588408
18.2500,13.6669979
18.2550,13.69170453
18.2600,13.71991921
18.2650,13.75158358
18.2700,13.78640177
18.2750,13.82395438
18.2800,13.86419876
18.2850,13.90686055
18.2900,13.95182307
18.2950,13.99885621
18.3000,14.04777407
18.3050,14.09816408
18.3100,14.14965925
18.3150,14.20180459
18.3200,14.25393307
18.3250,14.30562018
18.3300,14.35626116
18.3350,14.40582278
18.3400,14.45378281
18.3450,14.49994834
18.3500,14.544028
18.3550,14.58536041
18.3600,14.62370683
18.3650,14.65882203
18.3700,14.69064379
18.3750,14.71863902
18.3800,14.74260954
18.3850,14.76232969
18.3900,14.77743509
18.3950,14.78774842
18.4000,14.79338709
18.4050,14.79442382
18.4100,14.7910119
18.4150,14.78322438
18.4200,14.77138267
18.4250,14.75561194
18.4300,14.73607907
18.4350,14.71303402
18.4400,14.68669355
18.4450,14.65744184
18.4500,14.62534276
18.4550,14.59081131
18.4600,14.55409115
18.4650,14.51524786
18.4700,14.47453131
18.4750,14.43214034
18.4800,14.38815412
18.4850,14.34273009
18.4900,14.29591504
18.4950,14.24766695
18.5000,14.19802432
18.5050,14.14664607
18.5100,14.09356467
18.5150,14.03854185
18.5200,13.98153505
18.5250,13.922405
18.5300,13.86111506
18.5350,13.79796137
18.5400,13.73310241
18.5450,13.66694242
18.5500,13.59972313
18.5550,13.53162089
18.5600,13.46291644
18.5650,13.39396869
18.5700,13.32518147
18.5750,13.25730171
18.5800,13.19062716
18.5850,13.12580006
18.5900,13.06318434
18.5950,13.00317091
18.6000,12.94618138
18.6050,12.8926152
18.6100,12.84265567
18.6150,12.7966136
18.6200,12.75463537
18.6250,12.71670151
18.6300,12.6830341
18.6350,12.65345391
18.6400,12.62780273
18.6450,12.6059106
18.6500,12.58768615
18.6550,12.57306607
18.6600,12.56193776
18.6650,12.55422089
18.6700,12.54966849
18.6750,12.54834891
18.6800,12.55009055
18.6850,12.55473855
18.6900,12.56236413
18.6950,12.57285995
18.7000,12.58592095
18.7050,12.60138193
18.7100,12.61911286
18.7150,12.63904261
18.7200,12.66110714
18.7250,12.68536157
18.7300,12.71159533
18.7350,12.73941857
18.7400,12.76881656
18.7450,12.79925047
18.7500,12.83103212
18.7550,12.86353548
18.7600,12.8966737
18.7650,12.92991721
18.7700,12.96311395
18.7750,12.99595257
18.7800,13.02862811
18.7850,13.06067362
18.7900,13.09196131
18.7950,13.12233885
18.8000,13.15172081
18.8050,13.18020147
18.8100,13.20751286
18.8150,13.2335969
18.8200,13.25827027
18.8250,13.28154444
18.8300,13.30319679
18.8350,13.3231146
18.8400,13.34130694
18.8450,13.35746161
18.8500,13.37155174
18.8550,13.38367274
18.8600,13.39373253
18.8650,13.40158855
18.8700,13.40746374
18.8750,13.41117443
18.8800,13.41254652
18.8850,13.41148807
18.8900,13.40809312
18.8950,13.4023661
18.9000,13.39426218
18.9050,13.38400281
18.9100,13.37174584
18.9150,13.35763187
18.9200,13.34199775
18.9250,13.32493708
18.9300,13.30637518
18.9350,13.28647609
18.9400,13.26526432
18.9450,13.24290259
18.9500,13.21923535
18.9550,13.19454421
18.9600,13.16875568
18.9650,13.14203641
18.9700,13.11459151
18.9750,13.08647651
18.9800,13.05796073
18.9850,13.02931343
18.9900,13.00049769
18.9950,12.97173748
19.0000,12.94329429
19.0050,12.91522837
19.0100,12.88775639
19.0150,12.8610438
19.0200,12.83508555
19.0250,12.81001748
19.0300,12.78595802
19.0350,12.76329926
19.0400,12.74205615
19.0450,12.72236963
19.0500,12.70405107
19.0550,12.68720929
19.0600,12.67172401
19.0650,12.65783368
19.0700,12.64528804
19.0750,12.63386645
19.0800,12.62318441
19.0850,12.61337281
19.0900,12.60417438
19.0950,12.59569669
19.1000,12.58781757
19.1050,12.58046404
19.1100,12.57388244
19.1150,12.56833385
19.1200,12.56407872
19.1250,12.5609175
19.1300,12.55919538
19.1350,12.55876616
19.1400,12.55956978
19.1450,12.56173016
19.1500,12.56516677
19.1550,12.56992489
19.1600,12.5761365
19.1650,12.5837162
19.1700,12.59248975
19.1750,12.60251032
19.1800,12.61394151
19.1850,12.62672805
19.1900,12.64087067
19.1950,12.65631737
19.2000,12.6730867
19.2050,12.69085448
19.2100,12.70950679
19.2150,12.72884275
19.2200,12.74868754
19.2250,12.76923054
19.2300,12.79061804
19.2350,12.81286638
19.2400,12.83630873
19.2450,12.86095467
19.2500,12.88725053
19.2550,12.91499868
19.2600,12.94428878
19.2650,12.97521051
19.2700,13.00759215
19.2750,13.04157989
19.2800,13.07714479
19.2850,13.11407533
19.2900,13.1524878
19.2950,13.19226382
19.3000,13.23330819
19.3050,13.27554645
19.3100,13.31888455
19.3150,13.36349927
19.3200,13.4093941
19.3250,13.45639638
19.3300,13.50452082
19.3350,13.55369658
19.3400,13.60367452
19.3450,13.65445415
19.3500,13.70602262
19.3550,13.75831718
19.3600,13.81127254
19.3650,13.86495794
19.3700,13.91931825
19.3750,13.97441747
19.3800,14.03038551
19.3850,14.08716647
19.3900,14.1449084
19.3950,14.20353764
19.4000,14.2632175
19.4050,14.32390567
19.4100,14.38539037
19.4150,14.44756274
19.4200,14.51028189
19.4250,14.57365087
19.4300,14.63758342
19.4350,14.70200569
19.4400,14.76697098
19.4450,14.83239278
19.4500,14.89833672
19.4550,14.96468076
19.4600,15.03119575
19.4650,15.09794996
19.4700,15.16493294
19.4750,15.2322424
19.4800,15.29982914
19.4850,15.36778113
19.4900,15.43604854
19.4950,15.50515069
19.5000,15.57495551
19.5050,15.64599542
19.5100,15.71855008
19.5150,15.79262897
19.5200,15.86820592
19.5250,15.94502085
19.5300,16.02298148
19.5350,16.10206328
19.5400,16.18226362
19.5450,16.26377194
19.5500,16.34651264
19.5550,16.4304122
19.5600,16.51542418
19.5650,16.60123774
19.5700,16.68783049
19.5750,16.77526976
19.5800,16.86369583
19.5850,16.95317663
19.5900,17.04374983
19.5950,17.13540404
19.6000,17.2277168
19.6050,17.32041374
19.6100,17.41305435
19.6150,17.50510528
19.6200,17.59640082
19.6250,17.68685635
19.6300,17.77633441
19.6350,17.86474845
19.6400,17.95181004
19.6450,18.03718125
19.6500,18.12047669
19.6550,18.20123566
19.6600,18.2791467
19.6650,18.35374216
19.6700,18.42500181
19.6750,18.49286012
19.6800,18.55728972
19.6850,18.61854945
19.6900,18.6768171
19.6950,18.73263873
19.7000,18.7865962
19.7050,18.83939086
19.7100,18.89140599
19.7150,18.94294621
19.7200,18.99448396
19.7250,19.04598306
19.7300,19.09766479
19.7350,19.14957246
19.7400,19.20171797
19.7450,19.25407617
19.7500,19.30677241
19.7550,19.35994764
19.7600,19.413895
19.7650,19.46885727
19.7700,19.52489624
19.7750,19.58168766
19.7800,19.63928994
19.7850,19.69749159
19.7900,19.75616706
19.7950,19.81482194
19.8000,19.87308697
19.8050,19.9307259
19.8100,19.98745847
19.8150,20.04358587
19.8200,20.09922189
19.8250,20.15454131
19.8300,20.20956488
19.8350,20.26445042
19.8400,20.31937353
19.8450,20.37443226
19.8500,20.42976575
19.8550,20.48556597
19.8600,20.54177659
19.8650,20.5981364
19.8700,20.65443267
19.8750,20.71021347
19.8800,20.7651825
19.8850,20.81942949
19.8900,20.8730985
19.8950,20.92655324
19.9000,20.98061272
19.9050,21.03577248
19.9100,21.09265638
19.9150,21.1516362
19.9200,21.21308858
19.9250,21.27707471
19.9300,21.34343522
19.9350,21.41192195
19.9400,21.48238919
19.9450,21.55474274
19.9500,21.62872295
19.9550,21.70420197
19.9600,21.78098919
19.9650,21.859077
19.9700,21.93818666
19.9750,22.01817697
19.9800,22.09868542
19.9850,22.17958077
19.9900,22.26091202
19.9950,22.34217951
20.0000,22.42308391
20.0050,22.5035293
20.0100,22.5835281
20.0150,22.66349316
20.0200,22.74349897
20.0250,22.82413763
20.0300,22.90556354
20.0350,22.9881906
20.0400,23.0724015
20.0450,23.15854341
20.0500,23.24671145
20.0550,23.33689593
20.0600,23.42883476
20.0650,23.52235151
20.0700,23.6175459
20.0750,23.71420463
20.0800,23.81178315
20.0850,23.91024082
20.0900,24.00932622
20.0950,24.10894055
20.1000,24.20932212
20.1050,24.30988478
20.1100,24.41073102
20.1150,24.51147641
20.1200,24.6123394
20.1250,24.71355292
20.1300,24.81519254
20.1350,24.91722357
20.1400,25.01964841
20.1450,25.12240635
20.1500,25.22515562
20.1550,25.32791554
20.1600,25.43075111
20.1650,25.53377227
20.1700,25.63728648
20.1750,25.74154601
20.1800,25.84632023
20.1850,25.9514108
20.1900,26.05653431
20.1950,26.16115318
20.2000,26.26473993
20.2050,26.36697776
20.2100,26.46758333
20.2150,26.56624073
20.2200,26.66266678
20.2250,26.75650842
20.2300,26.84787262
20.2350,26.93690968
20.2400,27.02351218
20.2450,27.10787927
20.2500,27.19010077
20.2550,27.27037186
20.2600,27.34899893
20.2650,27.42611318
20.2700,27.50207173
20.2750,27.57715893
20.2800,27.65178847
20.2850,27.72589787
20.2900,27.79944947
20.2950,27.87301441
20.3000,27.94675946
20.3050,28.02071451
20.3100,28.09520375
20.3150,28.17007901
20.3200,28.24543411
20.3250,28.32120012
20.3300,28.39759919
20.3350,28.47465371
20.3400,28.55215791
20.3450,28.63021075
20.3500,28.70869919
20.3550,28.78728366
20.3600,28.86609501
20.3650,28.94500922
20.3700,29.02333845
20.3750,29.10101252
20.3800,29.17809172
20.3850,29.25413953
20.3900,29.3286385
20.3950,29.40162786
20.4000,29.47290907
20.4050,29.54261549
20.4100,29.61052605
20.4150,29.67695195
20.4200,29.74156461
20.4250,29.80439245
20.4300,29.86563386
20.4350,29.9253342
20.4400,29.98342835
20.4450,30.03997873
20.4500,30.09517249
20.4550,30.14921908
20.4600,30.20221898
20.4650,30.25434311
20.4700,30.30538363
20.4750,30.35528261
20.4800,30.40423259
20.4850,30.45245863
20.4900,30.49998514
20.4950,30.5470547
20.5000,30.59375278
20.5050,30.64000588
20.5100,30.68596226
20.5150,30.73176439
20.5200,30.77748798
20.5250,30.82314799
20.5300,30.86863048
20.5350,30.91378717
20.5400,30.95885872
20.5450,31.00365298
20.5500,31.04806846
20.5550,31.09235145
20.5600,31.13650219
20.5650,31.18051401
20.5700,31.22410932
20.5750,31.26730339
20.5800,31.30999318
20.5850,31.35215095
20.5900,31.39399721
20.5950,31.43546458
20.6000,31.47628982
20.6050,31.51664858
20.6100,31.55649362
20.6150,31.5958656
20.6200,31.63477373
20.6250,31.67333928
20.6300,31.71140519
20.6350,31.7490491
20.6400,31.78626182
20.6450,31.82279087
20.6500,31.85873303
20.6550,31.89421404
20.6600,31.92902796
20.6650,31.96303313
20.6700,31.99619493
20.6750,32.02844141
20.6800,32.05985245
20.6850,32.09020515
20.6900,32.11980083
20.6950,32.14831013
20.7000,32.17536029
20.7050,32.20102307
20.7100,32.22506616
20.7150,32.24737504
20.7200,32.26812969
20.7250,32.28694695
20.7300,32.30387871
20.7350,32.31902373
20.7400,32.33238385
20.7450,32.34381584
20.7500,32.3534656
20.7550,32.36102137
20.7600,32.36666437
20.7650,32.37039367
20.7700,32.37235923
20.7750,32.37245197
20.7800,32.37079664
20.7850,32.3672398
20.7900,32.36173635
20.7950,32.35428114
20.8000,32.34486454
20.8050,32.33367096
20.8100,32.32054245
20.8150,32.30543263
20.8200,32.28821938
20.8250,32.2689281
20.8300,32.2476577
20.8350,32.22445433
20.8400,32.19933092
20.8450,32.17222
20.8500,32.14355501
20.8550,32.11326323
20.8600,32.08135043
20.8650,32.04786717
20.8700,32.01308174
20.8750,31.97712617
20.8800,31.94020232
20.8850,31.90281906
20.8900,31.86488818
20.8950,31.82643672
20.9000,31.7876935
20.9050,31.74868588
20.9100,31.7094088
20.9150,31.66987444
20.9200,31.63008754
20.9250,31.59011875
20.9300,31.55006064
20.9350,31.509865
20.9400,31.46977783
20.9450,31.42983699
20.9500,31.39005684
20.9550,31.35047539
20.9600,31.3111502
20.9650,31.27190259
20.9700,31.23293542
20.9750,31.19410206
20.9800,31.15523635
20.9850,31.11655136
20.9900,31.07784818
20.9950,31.03907233
21.0000,31.00046873
21.0050,30.96173679
21.0100,30.92295868
21.0150,30.88399477
21.0200,30.84469315
21.0250,30.80516982
21.0300,30.7651095
21.0350,30.7244503
21.0400,30.68310084
21.0450,30.64131463
21.0500,30.59882023
21.0550,30.5558143
21.0600,30.51194896
21.0650,30.46711129
21.0700,30.42113688
21.0750,30.37424055
21.0800,30.32618901
21.0850,30.27697322
21.0900,30.22655531
21.0950,30.1749677
21.1000,30.12199251
21.1050,30.06755671
21.1100,30.01150996
21.1150,29.95402758
21.1200,29.89494242
21.1250,29.83449969
21.1300,29.77263942
21.1350,29.70922182
21.1400,29.64422857
21.1450,29.57779872
21.1500,29.50993066
21.1550,29.44045942
21.1600,29.3696557
21.1650,29.2974734
21.1700,29.22387282
21.1750,29.14888739
21.1800,29.0723782
21.1850,28.99421163
21.1900,28.91428901
21.1950,28.83259086
21.2000,28.74930672
21.2050,28.66447632
21.2100,28.57804285
21.2150,28.49007478
21.2200,28.40068649
21.2250,28.30994259
21.2300,28.21785895
21.2350,28.12452388
21.2400,28.02985423
21.2450,27.93378634
21.2500,27.83616937
21.2550,27.73707867
21.2600,27.6364525
21.2650,27.53437799
21.2700,27.43087578
21.2750,27.32582521
21.2800,27.21911508
21.2850,27.11080933
21.2900,27.00125809
21.2950,26.89020577
21.3000,26.77781612
21.3050,26.66420117
21.3100,26.54920318
21.3150,26.4326232
21.3200,26.31437507
21.3250,26.19446703
21.3300,26.07276391
21.3350,25.94930014
21.3400,25.82403199
21.3450,25.69694265
21.3500,25.56800005
21.3550,25.43719017
21.3600,25.3047084
21.3650,25.17053701
21.3700,25.03487407
21.3750,24.89747552
21.3800,24.75843129
21.3850,24.6177545
21.3900,24.47519878
21.3950,24.33065461
21.4000,24.18406505
21.4050,24.03517792
21.4100,23.88388703
21.4150,23.72978737
21.4200,23.57308612
21.4250,23.41343093
21.4300,23.25066013
21.4350,23.08494728
21.4400,22.91636731
21.4450,22.74466851
21.4500,22.5697748
21.4550,22.39169745
21.4600,22.21014925
21.4650,22.0253483
21.4700,21.83753487
21.4750,21.64705875
21.4800,21.45434695
21.4850,21.25977653
21.4900,21.06389869
21.4950,20.86698262
21.5000,20.66920335
21.5050,20.47087198
21.5100,20.27264627
21.5150,20.07474638
21.5200,19.87730747
21.5250,19.68048189
21.5300,19.48437874
21.5350,19.28926098
21.5400,19.09514425
21.5450,18.90250589
21.5500,18.71156169
21.5550,18.52243174
21.5600,18.33517889
21.5650,18.14974686
21.5700,17.96599087
21.5750,17.7841234
21.5800,17.60390799
21.5850,17.42518451
21.5900,17.24756147
21.5950,17.07120428
21.6000,16.89608933
21.6050,16.72229047
21.6100,16.5502922
21.6150,16.38052164
21.6200,16.2129595
21.6250,16.047689
21.6300,15.88516782
21.6350,15.72543422
21.6400,15.56884581
21.6450,15.41541563
21.6500,15.26559709
21.6550,15.11917268
21.6600,14.97619525
21.6650,14.83710108
21.6700,14.70141625
21.6750,14.56938199
21.6800,14.44082867
21.6850,14.3156119
21.6900,14.19381517
21.6950,14.07542811
21.7000,13.96042133
21.7050,13.84884293
21.7100,13.74049124
21.7150,13.63510387
21.7200,13.53224752
21.7250,13.43194766
21.7300,13.33431117
21.7350,13.23921624
21.7400,13.14626284
21.7450,13.05546995
21.7500,12.96672248
21.7550,12.88022814
21.7600,12.7959902
21.7650,12.71426487
21.7700,12.63487285
21.7750,12.55754954
21.7800,12.48224987
21.7850,12.40886706
21.7900,12.33746964
21.7950,12.26796794
21.8000,12.20029086
21.8050,12.13441158
21.8100,12.07022558
21.8150,12.0075047
21.8200,11.94612376
21.8250,11.88606783
21.8300,11.82749748
21.8350,11.77024666
21.8400,11.71437139
21.8450,11.65965318
21.8500,11.60619068
21.8550,11.55406258
21.8600,11.50351747
21.8650,11.45489692
21.8700,11.40862257
21.8750,11.36504582
21.8800,11.32452087
21.8850,11.28734155
21.8900,11.25359753
21.8950,11.2233395
21.9000,11.1963575
21.9050,11.17231743
21.9100,11.1509028
21.9150,11.13168595
21.9200,11.11459185
21.9250,11.09937112
21.9300,11.08577739
21.9350,11.07350954
21.9400,11.06220395
21.9450,11.05155138
21.9500,11.04123928
21.9550,11.03131089
21.9600,11.02171783
21.9650,11.01236308
21.9700,11.00351654
21.9750,10.99477653
21.9800,10.98628048
21.9850,10.97779002
21.9900,10.96933529
21.9950,10.96066821
22.0000,10.95181595
22.0050,10.9425933
22.0100,10.9327968
22.0150,10.92244838
22.0200,10.9113352
22.0250,10.89908311
22.0300,10.88523582
22.0350,10.86928263
22.0400,10.85128701
22.0450,10.83136007
22.0500,10.80928266
22.0550,10.78482607
22.0600,10.75818476
22.0650,10.72909106
22.0700,10.69793921
22.0750,10.66514608
22.0800,10.63103731
22.0850,10.59617083
22.0900,10.5610606
22.0950,10.52630412
22.1000,10.49269024
22.1050,10.46044914
22.1100,10.42996436
22.1150,10.40188464
22.1200,10.37680118
22.1250,10.35500958
22.1300,10.33658759
22.1350,10.32168239
22.1400,10.31014382
22.1450,10.30170608
22.1500,10.29610938
22.1550,10.29290305
22.1600,10.29173753
22.1650,10.29230072
22.1700,10.29412169
22.1750,10.29672189
22.1800,10.29967037
22.1850,10.3028689
22.1900,10.30620255
22.1950,10.30950719
22.2000,10.31273129
22.2050,10.31583562
22.2100,10.3187282
22.2150,10.32137275
22.2200,10.32387157
22.2250,10.32629533
22.2300,10.32861468
22.2350,10.33073782
22.2400,10.33283139
22.2450,10.33467617
22.2500,10.33603052
22.2550,10.33690072
22.2600,10.33701279
22.2650,10.33587478
22.2700,10.33325274
22.2750,10.32926854
22.2800,10.32360362
22.2850,10.3162642
22.2900,10.30720299
22.2950,10.29643693
22.3000,10.28397866
22.3050,10.26983783
22.3100,10.25436297
22.3150,10.23782057
22.3200,10.22016235
22.3250,10.20183702
22.3300,10.18302459
22.3350,10.16396686
22.3400,10.14490735
22.3450,10.12578103
22.3500,10.10682854
22.3550,10.0882995
22.3600,10.07029181
22.3650,10.05282698
22.3700,10.03609103
22.3750,10.0201621
22.3800,10.00502064
22.3850,9.990578064
22.3900,9.976712822
22.3950,9.963597253
22.4000,9.950925175
22.4050,9.938814953
22.4100,9.927353498
22.4150,9.916352591
22.4200,9.905611393
22.4250,9.895312343
22.4300,9.885271209
22.4350,9.875543808
22.4400,9.866554341
22.4450,9.858583585
22.4500,9.851753559
22.4550,9.846302151
22.4600,9.842453153
22.4650,9.840190438
22.4700,9.83976452
22.4750,9.841275611
22.4800,9.84488532
22.4850,9.850454172
22.4900,9.857885241
22.4950,9.867073621
22.5000,9.877941384
22.5050,9.890552479
22.5100,9.904703668
22.5150,9.92031469
22.5200,9.937352674
22.5250,9.95566458
22.5300,9.975066282
22.5350,9.995515826
22.5400,10.0168702
22.5450,10.03927979
22.5500,10.06267248
22.5550,10.08694065
22.5600,10.11198899
22.5650,10.13790362
22.5700,10.16471355
22.5750,10.19221657
22.5800,10.22060509
22.5850,10.25014207
22.5900,10.28074993
22.5950,10.31256507
22.6000,10.34551697
22.6050,10.37976137
22.6100,10.4152207
22.6150,10.45161869
22.6200,10.4890591
22.6250,10.5270205
22.6300,10.565193
22.6350,10.60335388
22.6400,10.6408979
22.6450,10.67765165
22.6500,10.71326147
22.6550,10.7473668
22.6600,10.77979445
22.6650,10.81037009
22.6700,10.8387197
22.6750,10.86424108
22.6800,10.88687194
22.6850,10.90634143
22.6900,10.92248823
22.6950,10.93500778
22.7000,10.94394181
22.7050,10.94940434
22.7100,10.95143214
22.7150,10.9502549
22.7200,10.94623309
22.7250,10.9394241
22.7300,10.93024391
22.7350,10.91897309
22.7400,10.90556088
22.7450,10.89040074
22.7500,10.87353052
22.7550,10.85499645
22.7600,10.83468527
22.7650,10.81254318
22.7700,10.78821908
22.7750,10.76161408
22.7800,10.73285829
22.7850,10.70192452
22.7900,10.66892125
22.7950,10.63389703
22.8000,10.59704025
22.8050,10.55828448
22.8100,10.51769514
22.8150,10.4752609
22.8200,10.43068333
22.8250,10.38416749
22.8300,10.3359662
22.8350,10.28636522
22.8400,10.23559913
22.8450,10.18395332
22.8500,10.13189884
22.8550,10.07986248
22.8600,10.02829667
22.8650,9.977695829
22.8700,9.928094302
22.8750,9.879887284
22.8800,9.833234019
22.8850,9.788097563
22.8900,9.744653437
22.8950,9.702872662
22.9000,9.662589131
22.9050,9.623741238
22.9100,9.585927263
22.9150,9.549184293
22.9200,9.513285684
22.9250,9.477945686
22.9300,9.443029136
22.9350,9.408464455
22.9400,9.374319722
22.9450,9.340111105
22.9500,9.305534456
22.9550,9.270339572
22.9600,9.234097412
22.9650,9.196765985
22.9700,9.158349016
22.9750,9.119015712
22.9800,9.07879601
22.9850,9.037988799
22.9900,8.996468688
22.9950,8.954561979
23.0000,8.912455485
23.0050,8.870189476
23.0100,8.827747329
23.0150,8.785113878
23.0200,8.742068401
23.0250,8.698561815
23.0300,8.6547077
23.0350,8.610618657
23.0400,8.566207783
23.0450,8.521353638
23.0500,8.476086127
23.0550,8.430411566
23.0600,8.384351866
23.0650,8.337670132
23.0700,8.290640657
23.0750,8.243190724
23.0800,8.195478486
23.0850,8.147299801
23.0900,8.098605304
23.0950,8.0495297
23.1000,8.000094161
23.1050,7.950517252
23.1100,7.900826426
23.1150,7.851463019
23.1200,7.802829068
23.1250,7.755080588
23.1300,7.708305678
23.1350,7.662545434
23.1400,7.618060725
23.1450,7.574896558
23.1500,7.532944665
23.1550,7.49218675
23.1600,7.452747012
23.1650,7.414606827
23.1700,7.378031594
23.1750,7.343038166
23.1800,7.309684393
23.1850,7.27776215
23.1900,7.247408667
23.1950,7.218357239
23.2000,7.190639884
23.2050,7.164157965
23.2100,7.138879336
23.2150,7.114625474
23.2200,7.091333331
23.2250,7.069118379
23.2300,7.047987689
23.2350,7.027751884
23.2400,7.00826355
23.2450,6.989729503
23.2500,6.972264732
23.2550,6.955818002
23.2600,6.94047683
23.2650,6.926162958
23.2700,6.91290159
23.2750,6.900689406
23.2800,6.889353876
23.2850,6.87870363
23.2900,6.869181414
23.2950,6.860481685
23.3000,6.85264187
23.3050,6.845521243
23.3100,6.839221835
23.3150,6.833771058
23.3200,6.829357857
23.3250,6.826174043
23.3300,6.824073695
23.3350,6.822871365
23.3400,6.822771413
23.3450,6.823707704
23.3500,6.825834737
23.3550,6.829354118
23.3600,6.834334791
23.3650,6.841302247
23.3700,6.850286836
23.3750,6.861450391
23.3800,6.874617871
23.3850,6.889845972
23.3900,6.907158249
23.3950,6.926261999
23.4000,6.94694475
23.4050,6.969275627
23.4100,6.9934007
23.4150,7.019244766
23.4200,7.04700925
23.4250,7.076740205
23.4300,7.108565916
23.4350,7.142695554
23.4400,7.178949813
23.4450,7.217557924
23.4500,7.258765916
23.4550,7.302687334
23.4600,7.349066102
23.4650,7.397865919
23.4700,7.449029093
23.4750,7.502344197
23.4800,7.557392758
23.4850,7.613997954
23.4900,7.671627746
23.4950,7.730052504
23.5000,7.789013435
23.5050,7.848161096
23.5100,7.907243338
23.5150,7.965852525
23.5200,8.023663862
23.5250,8.080213996
23.5300,8.135074943
23.5350,8.188034749
23.5400,8.238589547
23.5450,8.286281001
23.5500,8.330806027
23.5550,8.371675896
23.5600,8.408812964
23.5650,8.441900203
23.5700,8.47051642
23.5750,8.49475049
23.5800,8.514639476
23.5850,8.530195926
23.5900,8.541338311
23.5950,8.548243957
23.6000,8.551070795
23.6050,8.550201425
23.6100,8.545994007
23.6150,8.538822312
23.6200,8.529305021
23.6250,8.517816199
23.6300,8.504888488
23.6350,8.491172177
23.6400,8.477379142
23.6450,8.464067719
23.6500,8.451684252
23.6550,8.440873819
23.6600,8.432115996
23.6650,8.425804491
23.6700,8.422457371
23.6750,8.422309273
23.6800,8.425694881
23.6850,8.432867895
23.6900,8.444037682
23.6950,8.459292398
23.7000,8.478690945
23.7050,8.501981391
23.7100,8.528961577
23.7150,8.559383132
23.7200,8.592861172
23.7250,8.629123566
23.7300,8.667599737
23.7350,8.708008939
23.7400,8.750099087
23.7450,8.793321104
23.7500,8.837237852
23.7550,8.88145356
23.7600,8.92572873
23.7650,8.969629209
23.7700,9.012935413
23.7750,9.055350558
23.7800,9.096828879
23.7850,9.137258132
23.7900,9.176548142
23.7950,9.214615431
23.8000,9.251253316
23.8050,9.286250212
23.8100,9.319512327
23.8150,9.35088375
23.8200,9.380407799
23.8250,9.408188391
23.8300,9.434111505
23.8350,9.458256696
23.8400,9.480965167
23.8450,9.502477924
23.8500,9.523033361
23.8550,9.543194352
23.8600,9.562915319
23.8650,9.582619704
23.8700,9.602535256
23.8750,9.622811763
23.8800,9.643562246
23.8850,9.66496266
23.8900,9.68711467
23.8950,9.709971256
23.9000,9.733537818
23.9050,9.757689935
23.9100,9.782256509
23.9150,9.807250111
23.9200,9.832187477
23.9250,9.856912504
23.9300,9.881507949
23.9350,9.905848481
23.9400,9.929889394
23.9450,9.953535401
23.9500,9.977033519
23.9550,10.0002652
23.9600,10.02335915
23.9650,10.04616228
23.9700,10.06877585
23.9750,10.09141168
23.9800,10.11396196
23.9850,10.13658437
23.9900,10.15925102
23.9950,10.18224886
24.0000,10.20559661
24.0050,10.22921619
24.0100,10.25329032
24.0150,10.27778013
24.0200,10.30244757
24.0250,10.32707788
24.0300,10.35177914
24.0350,10.37644654
24.0400,10.40092895
24.0450,10.42510036
24.0500,10.44871243
24.0550,10.47176932
24.0600,10.49406124
24.0650,10.51544154
24.0700,10.53592963
24.0750,10.55545775
24.0800,10.57400089
24.0850,10.59168244
24.0900,10.60836211
24.0950,10.62410491
24.1000,10.6388907
24.1050,10.65283866
24.1100,10.66595104
24.1150,10.67831733
24.1200,10.6898068
24.1250,10.70022698
24.1300,10.70977694
24.1350,10.71838305
24.1400,10.72589434
24.1450,10.73232646
24.1500,10.73769764
24.1550,10.74186977
24.1600,10.74495654
24.1650,10.74678161
24.1700,10.74738249
24.1750,10.74683204
24.1800,10.74511578
24.1850,10.74208229
24.1900,10.73750345
24.1950,10.73186268
24.2000,10.72476961
24.2050,10.71636844
24.2100,10.70648738
24.2150,10.69516644
24.2200,10.68240509
24.2250,10.66838074
24.2300,10.65285402
24.2350,10.63588374
24.2400,10.61734364
24.2450,10.59731063
24.2500,10.57557032
24.2550,10.55215321
24.2600,10.52685038
24.2650,10.4998079
24.2700,10.47104776
24.2750,10.44051462
24.2800,10.40841145
24.2850,10.37484115
24.2900,10.34006329
24.2950,10.30409648
24.3000,10.26717079
24.3050,10.22965996
24.3100,10.19162698
24.3150,10.15319142
24.3200,10.1145476
24.3250,10.07594098
24.3300,10.03760992
24.3350,9.999514877
24.3400,9.961747543
24.3450,9.924380228
24.3500,9.88781918
24.3550,9.851777076
24.3600,9.816535426
24.3650,9.782223261
24.3700,9.748631819
24.3750,9.716008935
24.3800,9.684256518
24.3850,9.653373515
24.3900,9.623525695
24.3950,9.594529978
24.4000,9.566564062
24.4050,9.539677446
24.4100,9.513982693
24.4150,9.489475108
24.4200,9.466225683
24.4250,9.444342004
24.4300,9.424073132
24.4350,9.405267634
24.4400,9.387984493
24.4450,9.372361971
24.4500,9.358195295
24.4550,9.345505035
24.4600,9.334169687
24.4650,9.324306394
24.4700,9.315873023
24.4750,9.308819309
24.4800,9.302954659
24.4850,9.298477045
24.4900,9.295457201
24.4950,9.293515343
24.5000,9.2927641
24.5050,9.292836117
24.5100,9.293866551
24.5150,9.295749752
24.5200,9.298549974
24.5250,9.302055895
24.5300,9.306519209
24.5350,9.311702136
24.5400,9.31740747
24.5450,9.323821478
24.5500,9.330849654
24.5550,9.33839168
24.5600,9.346642286
24.5650,9.355567195
24.5700,9.365054003
24.5750,9.375094305
24.5800,9.385921655
24.5850,9.397316735
24.5900,9.409243455
24.5950,9.421600471
24.6000,9.43443464
24.6050,9.447457052
24.6100,9.460644581
24.6150,9.473884285
24.6200,9.487065838
24.6250,9.50029223
24.6300,9.513539584
24.6350,9.526695825
24.6400,9.539639266
24.6450,9.552421432
24.6500,9.564763406
24.6550,9.576724467
24.6600,9.588155865
24.6650,9.599215104
24.6700,9.609882484
24.6750,9.620200456
24.6800,9.63027182
24.6850,9.640097872
24.6900,9.649828866
24.6950,9.659412723
24.7000,9.668871421
24.7050,9.678121193
24.7100,9.686997363
24.7150,9.695687554
24.7200,9.704327749
24.7250,9.713008345
24.7300,9.721568888
24.7350,9.730264957
24.7400,9.739278593
24.7450,9.748459458
24.7500,9.758064309
24.7550,9.767972446
24.7600,9.778474437
24.7650,9.789462261
24.7700,9.801018904
24.7750,9.813080546
24.7800,9.826067358
24.7850,9.839764876
24.7900,9.854278499
24.7950,9.869746464
24.8000,9.886404685
24.8050,9.904727747
24.8100,9.924761504
24.8150,9.928639251
24.8200,9.93384768
24.8250,9.940452624
24.8300,9.948495174
24.8350,9.957994568
24.8400,9.9689514
24.8450,9.981350159
24.8500,9.995159712
24.8550,10.01033165
24.8600,10.02679661
24.8650,10.04445891
24.8700,10.06319163
24.8750,10.08283322
24.8800,10.10318546
24.8850,10.12401324
24.8900,10.14504739
24.8950,10.16599078
24.9000,10.18652665
24.9050,10.20632842
24.9100,10.2250707
24.9150,10.24244147
