type,name,time_units,begin_time,frequency,count,units
signal_3d,"Noraxon MyoMotion-Trajectories-Body center of mass","s",0.0000,200,4984,"mm"

time,x,y,z
0.0000,0.04740974542,17.03074598,1075.316456
0.0050,0.04849160916,17.02865323,1075.315963
0.0100,0.049573858,17.02656031,1075.315471
0.0150,0.05065649185,17.02446722,1075.314979
0.0200,0.05188511428,17.02217792,1075.314434
0.0250,0.05326636132,17.01970071,1075.313834
0.0300,0.0548064787,17.01704678,1075.31318
0.0350,0.05651115515,17.01422947,1075.312474
0.0400,0.05838518644,17.01126357,1075.311715
0.0450,0.06043217967,17.00816457,1075.310907
0.0500,0.06265443907,17.0049482,1075.31005
0.0550,0.06505277171,17.00163012,1075.309147
0.0600,0.0676261153,16.99822568,1075.308201
0.0650,0.07037131519,16.99474962,1075.307214
0.0700,0.07328318473,16.9912161,1075.306189
0.0750,0.07635471632,16.9876388,1075.30513
0.0800,0.0795773843,16.98403092,1075.30404
0.0850,0.08294135186,16.98040513,1075.302923
0.0900,0.08643538492,16.97677352,1075.301783
0.0950,0.09004659365,16.97314754,1075.300624
0.1000,0.09376012664,16.96953804,1075.299451
0.1050,0.09755886406,16.96595539,1075.298267
0.1100,0.1014231543,16.96240967,1075.297078
0.1150,0.1053304354,16.95891091,1075.29589
0.1200,0.1092547666,16.95546929,1075.294709
0.1250,0.1131665893,16.95209521,1075.293541
0.1300,0.1170327641,16.94879926,1075.292395
0.1350,0.1208167975,16.94559221,1075.291279
0.1400,0.124479358,16.94248483,1075.2902
0.1450,0.1279791626,16.93948765,1075.289168
0.1500,0.1312740973,16.93661056,1075.288192
0.1550,0.1346424364,16.93115994,1075.286869
0.1600,0.1376092183,16.92587433,1075.285645
0.1650,0.1401347391,16.92079293,1075.284531
0.1700,0.1422461292,16.91592865,1075.283525
0.1750,0.143879691,16.91127159,1075.282636
0.1800,0.1449950455,16.90686512,1075.281874
0.1850,0.1455895377,16.90270343,1075.281238
0.1900,0.1456599793,16.89882604,1075.280734
0.1950,0.1451879194,16.89520648,1075.280362
0.2000,0.1441774512,16.89188125,1075.280125
0.2050,0.1426863444,16.88884264,1075.280013
0.2100,0.1406848809,16.88609826,1075.28003
0.2150,0.1381889956,16.88365848,1075.280176
0.2200,0.1352537071,16.8814909,1075.280434
0.2250,0.1318941797,16.87962455,1075.280808
0.2300,0.1281489775,16.87800411,1075.281284
0.2350,0.1240907757,16.87663904,1075.28185
0.2400,0.1198007364,16.87556324,1075.282496
0.2450,0.115302082,16.87469618,1075.283208
0.2500,0.1106810773,16.87405434,1075.283973
0.2550,0.1059673625,16.8735964,1075.28478
0.2600,0.1012202535,16.87335003,1075.285623
0.2650,0.09650360669,16.8732578,1075.286482
0.2700,0.09183081585,16.87335608,1075.287361
0.2750,0.08723042478,16.87360179,1075.288247
0.2800,0.08272093313,16.87396912,1075.289137
0.2850,0.07834103922,16.8744965,1075.290027
0.2900,0.07410586672,16.87512201,1075.290909
0.2950,0.07001270127,16.8758396,1075.29178
0.3000,0.06607918619,16.87665325,1075.292636
0.3050,0.06235049619,16.87757748,1075.29347
0.3100,0.05884841081,16.8785829,1075.294274
0.3150,0.05557959302,16.87969197,1075.295048
0.3200,0.05252558468,16.88085271,1075.295788
0.3250,0.04970003664,16.88203931,1075.296487
0.3300,0.04712997705,16.88329273,1075.297145
0.3350,0.04482332583,16.88456719,1075.297754
0.3400,0.04278421617,16.8858479,1075.298309
0.3450,0.04102440829,16.88710302,1075.298806
0.3500,0.03952653479,16.88835,1075.299248
0.3550,0.03832905489,16.88954528,1075.299625
0.3600,0.03746514435,16.89066295,1075.299925
0.3650,0.03686872662,16.89162212,1075.300153
0.3700,0.03656648576,16.89246227,1075.300305
0.3750,0.03652531488,16.89312756,1075.300383
0.3800,0.03676969348,16.89358537,1075.300377
0.3850,0.03727853024,16.89380966,1075.300289
0.3900,0.03799397054,16.89382171,1075.300132
0.3950,0.03895164704,16.89359071,1075.299897
0.4000,0.04005814962,16.89310014,1075.299597
0.4050,0.04135325455,16.89235009,1075.29923
0.4100,0.04275911173,16.89129788,1075.298805
0.4150,0.04427586871,16.89000948,1075.298328
0.4200,0.04589474609,16.88847894,1075.297803
0.4250,0.04754781996,16.88669584,1075.297241
0.4300,0.04920427319,16.88469126,1075.296652
0.4350,0.05090278006,16.88251762,1075.296034
0.4400,0.05260232354,16.88016439,1075.295394
0.4450,0.05431746122,16.87764513,1075.294733
0.4500,0.05605247448,16.87501654,1075.294054
0.4550,0.05779803588,16.87227214,1075.29336
0.4600,0.05960340992,16.86941732,1075.292643
0.4650,0.06145592371,16.86648767,1075.291911
0.4700,0.0633677733,16.86347796,1075.29116
0.4750,0.06536256304,16.86044273,1075.290393
0.4800,0.06744640657,16.85734287,1075.289605
0.4850,0.06961883738,16.85421743,1075.288803
0.4900,0.07188255239,16.85105931,1075.287985
0.4950,0.07426744491,16.84789452,1075.287148
0.5000,0.07676332876,16.84468545,1075.286289
0.5050,0.07935559577,16.84148356,1075.285418
0.5100,0.08208922699,16.83825309,1075.284524
0.5150,0.08493232734,16.83498538,1075.283611
0.5200,0.08788596938,16.83170763,1075.282684
0.5250,0.09094428689,16.82843352,1075.281744
0.5300,0.09411185601,16.82522825,1075.280797
0.5350,0.09738905354,16.82205184,1075.279837
0.5400,0.1007532253,16.81887805,1075.278867
0.5450,0.1041982084,16.81576412,1075.277893
0.5500,0.1077148635,16.81275229,1075.27692
0.5550,0.11129274,16.80981312,1075.275949
0.5600,0.1149001917,16.80693063,1075.27498
0.5650,0.1185528059,16.80413769,1075.274016
0.5700,0.1221953856,16.80137412,1075.273059
0.5750,0.1258303548,16.79868423,1075.272112
0.5800,0.1294656271,16.7960766,1075.271174
0.5850,0.1330482472,16.79347361,1075.270247
0.5900,0.1365696195,16.790961,1075.269338
0.5950,0.1399869626,16.7885341,1075.268458
0.6000,0.1433106381,16.7861461,1075.267596
0.6050,0.1464772595,16.78374325,1075.266761
0.6100,0.1494675759,16.78136654,1075.265959
0.6150,0.1522893169,16.77896082,1075.265182
0.6200,0.1549413092,16.77651952,1075.264433
0.6250,0.1573776389,16.77406583,1075.263722
0.6300,0.1595957355,16.77153222,1075.263039
0.6350,0.1615551845,16.76894496,1075.262399
0.6400,0.163241741,16.76629208,1075.261802
0.6450,0.1646744648,16.76355506,1075.261243
0.6500,0.1658416838,16.76073333,1075.260726
0.6550,0.1667022738,16.75786043,1075.260258
0.6600,0.1672964396,16.75491253,1075.259834
0.6650,0.1676359767,16.75196026,1075.259457
0.6700,0.1677230341,16.74898076,1075.259125
0.6750,0.1675863732,16.74601811,1075.258839
0.6800,0.1672210346,16.743095,1075.2586
0.6850,0.1666321131,16.74026331,1075.258415
0.6900,0.1658731848,16.73747539,1075.258269
0.6950,0.1649195078,16.73479315,1075.25817
0.7000,0.1638865499,16.73220349,1075.258099
0.7050,0.1627405302,16.72976555,1075.258066
0.7100,0.1614828598,16.72745343,1075.258069
0.7150,0.1601648136,16.72525025,1075.258096
0.7200,0.1587808468,16.72316759,1075.25815
0.7250,0.157359708,16.72121074,1075.258227
0.7300,0.1559698785,16.71935179,1075.258309
0.7350,0.1545463329,16.71761728,1075.258414
0.7400,0.1531747902,16.71600608,1075.258524
0.7450,0.1518494212,16.71449304,1075.25864
0.7500,0.1505325366,16.7130756,1075.258768
0.7550,0.1492392376,16.71176402,1075.258905
0.7600,0.1479644753,16.71055844,1075.25905
0.7650,0.1466754855,16.70941041,1075.259207
0.7700,0.1453691138,16.7082986,1075.259376
0.7750,0.1440216733,16.70724201,1075.259559
0.7800,0.1426281453,16.70623477,1075.259759
0.7850,0.1411867964,16.70526653,1075.259974
0.7900,0.1396598184,16.70433888,1075.260209
0.7950,0.1380174116,16.70338887,1075.260467
0.8000,0.1362760202,16.70246624,1075.260747
0.8050,0.1343924564,16.7015493,1075.261054
0.8100,0.1323748977,16.7006417,1075.261385
0.8150,0.1302202687,16.69974982,1075.261743
0.8200,0.1279036582,16.69885524,1075.262131
0.8250,0.1254209421,16.6979442,1075.262546
0.8300,0.1227806219,16.69697888,1075.262985
0.8350,0.1199651651,16.69598801,1075.263455
0.8400,0.1169672353,16.69498185,1075.263956
0.8450,0.1137889407,16.69395508,1075.264489
0.8500,0.1104777906,16.69284674,1075.265038
0.8550,0.1070558185,16.69171442,1075.265604
0.8600,0.1035734292,16.6905618,1075.266181
0.8650,0.1000319938,16.68940406,1075.266769
0.8700,0.09649448687,16.68826891,1075.267362
0.8750,0.09298153189,16.68718163,1075.267957
0.8800,0.08944265678,16.68611517,1075.268563
0.8850,0.08595262029,16.6851025,1075.269169
0.8900,0.08250670623,16.68415081,1075.269776
0.8950,0.07915901491,16.68324555,1075.270376
0.9000,0.07584305934,16.68241661,1075.270985
0.9050,0.07261014543,16.68168699,1075.271593
0.9100,0.06945360819,16.68107525,1075.272206
0.9150,0.06633884211,16.68057848,1075.272828
0.9200,0.0632865244,16.68023178,1075.27346
0.9250,0.06027957639,16.67999349,1075.274099
0.9300,0.05733300125,16.67991854,1075.274748
0.9350,0.05446486832,16.67999781,1075.275404
0.9400,0.05160582642,16.68022873,1075.276076
0.9450,0.04875525921,16.68061728,1075.276767
0.9500,0.04590395379,16.68115353,1075.277475
0.9550,0.04307022295,16.68180556,1075.278195
0.9600,0.04019921398,16.68263485,1075.27894
0.9650,0.03728151119,16.68361035,1075.27971
0.9700,0.03429951121,16.68469801,1075.280505
0.9750,0.0312312585,16.68589942,1075.281326
0.9800,0.02809408119,16.68723238,1075.282174
0.9850,0.02489249907,16.68868937,1075.283043
0.9900,0.02165310966,16.69027447,1075.283928
0.9950,0.01838545221,16.69195511,1075.284824
1.0000,0.0150818856,16.69374118,1075.285733
1.0050,0.0117323738,16.69561198,1075.286652
1.0100,0.008386425882,16.69762455,1075.287577
1.0150,0.005042835868,16.69975182,1075.288509
1.0200,0.001683381252,16.70198341,1075.289446
1.0250,-0.001645216096,16.70432245,1075.290381
1.0300,-0.004984820387,16.70675927,1075.291323
1.0350,-0.008329505687,16.70924382,1075.292266
1.0400,-0.01174181875,16.71172719,1075.293218
1.0450,-0.01523486953,16.71421938,1075.294179
1.0500,-0.01877309598,16.71667219,1075.295142
1.0550,-0.02238650536,16.71903838,1075.296107
1.0600,-0.02607109403,16.72131972,1075.297075
1.0650,-0.02980958438,16.72349048,1075.29804
1.0700,-0.03363427983,16.72553856,1075.299008
1.0750,-0.03751579121,16.72744344,1075.299971
1.0800,-0.04142500499,16.72917785,1075.300921
1.0850,-0.04536959935,16.73070166,1075.301858
1.0900,-0.04931840989,16.73201268,1075.302774
1.0950,-0.05326589723,16.73314815,1075.303677
1.1000,-0.05722007291,16.73402348,1075.30456
1.1050,-0.06112681588,16.73465215,1075.305414
1.1100,-0.06498734474,16.73505812,1075.306245
1.1150,-0.06878504699,16.73522822,1075.307049
1.1200,-0.07250127924,16.73514857,1075.307822
1.1250,-0.0760849191,16.73485261,1075.30856
1.1300,-0.07954277936,16.73436372,1075.309267
1.1350,-0.0828313706,16.73368792,1075.30994
1.1400,-0.0859514727,16.73281008,1075.310576
1.1450,-0.08884108782,16.73177099,1075.311174
1.1500,-0.09156854943,16.73061447,1075.311754
1.1550,-0.09413457987,16.72931605,1075.312316
1.1600,-0.09660168986,16.72796297,1075.312885
1.1650,-0.09895710842,16.72650802,1075.313457
1.1700,-0.1012703848,16.72504682,1075.314058
1.1750,-0.1035799896,16.7235119,1075.314694
1.1800,-0.1058690898,16.72200395,1075.315372
1.1850,-0.1082248082,16.72053477,1075.316116
1.1900,-0.1106707517,16.71913582,1075.316937
1.1950,-0.1132364588,16.7178445,1075.317847
1.2000,-0.1159445413,16.71668641,1075.318854
1.2050,-0.118827329,16.71569626,1075.319975
1.2100,-0.1219153113,16.71489914,1075.32122
1.2150,-0.1252444575,16.71432734,1075.322602
1.2200,-0.1288202576,16.71400928,1075.324127
1.2250,-0.1326682795,16.71396648,1075.325808
1.2300,-0.1367904622,16.71421826,1075.32765
1.2350,-0.1412262623,16.71474035,1075.329665
1.2400,-0.1459140635,16.71564662,1075.331853
1.2450,-0.1508994638,16.71690495,1075.334225
1.2500,-0.1561815511,16.71855843,1075.336787
1.2550,-0.1617405662,16.72062168,1075.339543
1.2600,-0.1676353033,16.72306802,1075.342505
1.2650,-0.173788656,16.72591798,1075.345662
1.2700,-0.1801974128,16.72925309,1075.34903
1.2750,-0.1868913141,16.73304974,1075.352614
1.2800,-0.1938441812,16.73730241,1075.356414
1.2850,-0.201028888,16.74198721,1075.360428
1.2900,-0.2085126317,16.74714704,1075.364679
1.2950,-0.2162705674,16.75277932,1075.369165
1.3000,-0.224311217,16.75891254,1075.3739
1.3050,-0.2326428554,16.76550694,1075.37888
1.3100,-0.2412963108,16.77256521,1075.384119
1.3150,-0.2502877909,16.78007904,1075.389622
1.3200,-0.2595939485,16.78807002,1075.39539
1.3250,-0.2693062735,16.79650141,1075.40144
1.3300,-0.2794013014,16.80535006,1075.407768
1.3350,-0.2899336571,16.81463164,1075.414387
1.3400,-0.3008504577,16.82435788,1075.421293
1.3450,-0.3121838334,16.83449618,1075.428494
1.3500,-0.3239517559,16.84504701,1075.435991
1.3550,-0.3361545321,16.85599918,1075.443789
1.3600,-0.3488315906,16.86732957,1075.451894
1.3650,-0.3619447055,16.87900461,1075.460298
1.3700,-0.3755039222,16.89104595,1075.469007
1.3750,-0.3895197917,16.90337471,1075.47802
1.3800,-0.4040634646,16.91597743,1075.487348
1.3850,-0.4190839221,16.92887065,1075.496987
1.3900,-0.4345887554,16.94197562,1075.506932
1.3950,-0.450587995,16.95532123,1075.517191
1.4000,-0.4670243478,16.96888662,1075.527753
1.4050,-0.4839200421,16.98260843,1075.538624
1.4100,-0.5012955959,16.99645031,1075.549804
1.4150,-0.5190921074,17.01037394,1075.561285
1.4200,-0.5373019425,17.02437566,1075.573071
1.4250,-0.5559319875,17.03844284,1075.585162
1.4300,-0.5749681712,17.05253291,1075.597558
1.4350,-0.5943794717,17.06658979,1075.610247
1.4400,-0.6141612942,17.08064131,1075.623236
1.4450,-0.6343482075,17.09469873,1075.63654
1.4500,-0.6549034481,17.1086996,1075.650146
1.4550,-0.6758476046,17.12267857,1075.664069
1.4600,-0.6971145201,17.13655152,1075.678285
1.4650,-0.7187458539,17.15038096,1075.692812
1.4700,-0.7407460153,17.16410271,1075.707644
1.4750,-0.7631001549,17.17777153,1075.722783
1.4800,-0.7858192205,17.19136116,1075.73823
1.4850,-0.808879699,17.20489641,1075.753985
1.4900,-0.8323209614,17.21834075,1075.770052
1.4950,-0.8561511912,17.23170142,1075.786431
1.5000,-0.8803496619,17.24499889,1075.803128
1.5050,-0.9049603748,17.25821524,1075.820139
1.5100,-0.9299919401,17.27131821,1075.837463
1.5150,-0.9554633589,17.28437208,1075.855117
1.5200,-0.981349215,17.29732326,1075.87308
1.5250,-1.00765302,17.31019842,1075.891358
1.5300,-1.034374988,17.32301856,1075.909951
1.5350,-1.061539941,17.33578216,1075.928861
1.5400,-1.089146341,17.34845539,1075.948088
1.5450,-1.117135517,17.36109206,1075.967624
1.5500,-1.145477094,17.37366144,1075.987462
1.5550,-1.174186702,17.38621174,1076.007608
1.5600,-1.203208693,17.39875006,1076.02805
1.5650,-1.232594262,17.4113074,1076.048805
1.5700,-1.262261511,17.42388827,1076.069854
1.5750,-1.292203503,17.43654716,1076.091207
1.5800,-1.322412052,17.44929627,1076.112862
1.5850,-1.352882278,17.46216861,1076.134826
1.5900,-1.383531382,17.47517628,1076.157084
1.5950,-1.414387613,17.48828538,1076.179643
1.6000,-1.445469041,17.50149225,1076.202503
1.6050,-1.476724455,17.51482697,1076.225666
1.6100,-1.508137156,17.52823716,1076.249131
1.6150,-1.539714687,17.54171285,1076.272897
1.6200,-1.571511507,17.55518478,1076.296966
1.6250,-1.603429323,17.56869523,1076.321332
1.6300,-1.635516195,17.5821959,1076.345995
1.6350,-1.667649685,17.59565366,1076.370923
1.6400,-1.699871666,17.60910616,1076.39614
1.6450,-1.732167233,17.62250462,1076.421628
1.6500,-1.764488744,17.63588194,1076.447386
1.6550,-1.796820272,17.64921604,1076.473411
1.6600,-1.829114091,17.66249584,1076.499682
1.6650,-1.86131465,17.67578667,1076.526202
1.6700,-1.893410352,17.68906898,1076.552961
1.6750,-1.925373938,17.7023643,1076.579953
1.6800,-1.957114074,17.71574747,1076.607165
1.6850,-1.988635096,17.72915858,1076.63459
1.6900,-2.019908457,17.7426658,1076.662233
1.6950,-2.050898228,17.75623875,1076.690066
1.7000,-2.081635928,17.76989632,1076.7181
1.7050,-2.112081142,17.78365362,1076.746326
1.7100,-2.142181274,17.79757915,1076.774725
1.7150,-2.171955871,17.81163577,1076.803298
1.7200,-2.201341669,17.8258293,1076.832021
1.7250,-2.230351954,17.840141,1076.860906
1.7300,-2.258977802,17.85455197,1076.88995
1.7350,-2.287251372,17.86905849,1076.919156
1.7400,-2.315176526,17.8836504,1076.948528
1.7450,-2.342752311,17.89821349,1076.97804
1.7500,-2.370018795,17.91273028,1077.007699
1.7550,-2.396971434,17.92717152,1077.037495
1.7600,-2.42365164,17.94149328,1077.067425
1.7650,-2.450042011,17.95565689,1077.097483
1.7700,-2.476174002,17.96964866,1077.127666
1.7750,-2.50200257,17.98346529,1077.157966
1.7800,-2.527579915,17.99710058,1077.188398
1.7850,-2.552873796,18.01053954,1077.218945
1.7900,-2.577894289,18.0237754,1077.249604
1.7950,-2.602632724,18.03682198,1077.280372
1.8000,-2.627073068,18.04968634,1077.311239
1.8050,-2.65117189,18.06242527,1077.34221
1.8100,-2.674946106,18.07505595,1077.373275
1.8150,-2.698347075,18.08755392,1077.404419
1.8200,-2.721394423,18.0999724,1077.435652
1.8250,-2.744142421,18.11228759,1077.466983
1.8300,-2.766586991,18.12447395,1077.49841
1.8350,-2.788696759,18.13660968,1077.529924
1.8400,-2.810483721,18.14865081,1077.561516
1.8450,-2.831960655,18.1605954,1077.593192
1.8500,-2.853156354,18.17252051,1077.624965
1.8550,-2.874076425,18.18435062,1077.656815
1.8600,-2.894736061,18.19610951,1077.688754
1.8650,-2.915073283,18.20777614,1077.720766
1.8700,-2.93516878,18.21930369,1077.752855
1.8750,-2.955034605,18.23064789,1077.785018
1.8800,-2.974739839,18.2417793,1077.817263
1.8850,-2.994253475,18.25270293,1077.849582
1.8900,-3.013650956,18.26335431,1077.881978
1.8950,-3.032918333,18.27378736,1077.914454
1.9000,-3.05206081,18.28399355,1077.947011
1.9050,-3.071098578,18.29394959,1077.979644
1.9100,-3.090057249,18.30362475,1078.012336
1.9150,-3.108944149,18.31305531,1078.045102
1.9200,-3.127725154,18.32223412,1078.077942
1.9250,-3.146421415,18.33115457,1078.110851
1.9300,-3.165038949,18.33986139,1078.143842
1.9350,-3.183598678,18.3483044,1078.176913
1.9400,-3.202137853,18.35648405,1078.21006
1.9450,-3.220631181,18.36441855,1078.243295
1.9500,-3.239116394,18.37206197,1078.276612
1.9550,-3.257606804,18.37943194,1078.310001
1.9600,-3.276121121,18.38650957,1078.343476
1.9650,-3.294684566,18.39329512,1078.377025
1.9700,-3.313264248,18.39979721,1078.410651
1.9750,-3.33184542,18.40601747,1078.444351
1.9800,-3.350447945,18.41189923,1078.478122
1.9850,-3.36903582,18.41750793,1078.511955
1.9900,-3.387620532,18.42283156,1078.545847
1.9950,-3.406172793,18.42781972,1078.579783
2.0000,-3.424662749,18.43251558,1078.613775
2.0050,-3.443133458,18.43688961,1078.647804
2.0100,-3.461610741,18.44092372,1078.681895
2.0150,-3.48011427,18.4446412,1078.716048
2.0200,-3.498636929,18.44803669,1078.75025
2.0250,-3.517162323,18.45114572,1078.784485
2.0300,-3.535690525,18.45397754,1078.818751
2.0350,-3.55419522,18.45657263,1078.85305
2.0400,-3.572667652,18.45889899,1078.887347
2.0450,-3.591140207,18.46102688,1078.921671
2.0500,-3.609593614,18.46293286,1078.956004
2.0550,-3.628041492,18.46461724,1078.990342
2.0600,-3.646504226,18.46612732,1079.024703
2.0650,-3.664975642,18.46746377,1079.059068
2.0700,-3.683472128,18.46866482,1079.093459
2.0750,-3.701957607,18.46975809,1079.127874
2.0800,-3.720430795,18.47071828,1079.162298
2.0850,-3.738930624,18.47159121,1079.196738
2.0900,-3.757459774,18.47240067,1079.231197
2.0950,-3.775986563,18.47317403,1079.265662
2.1000,-3.794526447,18.47389174,1079.300134
2.1050,-3.813123089,18.47455745,1079.334621
2.1100,-3.831706967,18.47514266,1079.369101
2.1150,-3.850317373,18.47569332,1079.403584
2.1200,-3.868953787,18.47619053,1079.438065
2.1250,-3.887551262,18.47665854,1079.472504
2.1300,-3.906089683,18.47711175,1079.506901
2.1350,-3.924522533,18.47758038,1079.541252
2.1400,-3.942854052,18.47811904,1079.575578
2.1450,-3.96109674,18.4787562,1079.609879
2.1500,-3.979200136,18.47946723,1079.644131
2.1550,-3.997127168,18.48031284,1079.678355
2.1600,-4.014872356,18.48127385,1079.712538
2.1650,-4.032513444,18.4823796,1079.746687
2.1700,-4.050021573,18.4836074,1079.780803
2.1750,-4.067329501,18.48499151,1079.814857
2.1800,-4.084474613,18.48651676,1079.84887
2.1850,-4.101491072,18.48817492,1079.882844
2.1900,-4.118382158,18.48996523,1079.916787
2.1950,-4.135152615,18.49192965,1079.9507
2.2000,-4.151799186,18.49402146,1079.984589
2.2050,-4.168346516,18.4962948,1080.018452
2.2100,-4.184792848,18.49878436,1080.052302
2.2150,-4.201135941,18.50144858,1080.086136
2.2200,-4.217406713,18.50437079,1080.119964
2.2250,-4.233628667,18.50750017,1080.153791
2.2300,-4.249761665,18.51083061,1080.187604
2.2350,-4.265831952,18.51438841,1080.221419
