type,name,time_units,begin_time,frequency,count,units
signal,"Noraxon Ultium-RT LAT. TRICEPS","s",0.00000,2000,49840,"uV"

time,value
0.00000,1.441780478
0.00050,2.967752516
0.00100,3.578141332
0.00150,2.662558109
0.00200,1.746974885
0.00250,1.746974885
0.00300,1.441780478
0.00350,0.221002847
0.00400,-0.08419156075
0.00450,1.441780478
0.00500,3.883335739
0.00550,4.798918962
0.00600,4.188530147
0.00650,3.272946924
0.00700,2.357363701
0.00750,0.221002847
0.00800,-2.525746822
0.00850,-4.356913269
0.00900,-4.356913269
0.00950,-3.441330045
0.01000,-2.83094123
0.01050,-1.610163599
0.01100,0.5261972547
0.01150,2.357363701
0.01200,2.357363701
0.01250,0.8313916624
0.01300,-0.08419156075
0.01350,0.8313916624
0.01400,1.746974885
0.01450,1.13658607
0.01500,-0.08419156075
0.01550,-0.08419156075
0.01600,0.5261972547
0.01650,0.5261972547
0.01700,-0.08419156075
0.01750,-0.3893859684
0.01800,-0.08419156075
0.01850,0.5261972547
0.01900,0.5261972547
0.01950,0.8313916624
0.02000,1.441780478
0.02050,1.441780478
0.02100,1.13658607
0.02150,0.5261972547
0.02200,-0.08419156075
0.02250,-0.3893859684
0.02300,-0.6945803761
0.02350,-0.9997747838
0.02400,-1.304969192
0.02450,-3.136135638
0.02500,-4.662107676
0.02550,-4.051718861
0.02600,-1.915358007
0.02650,-0.3893859684
0.02700,-0.3893859684
0.02750,-0.9997747838
0.02800,-0.6945803761
0.02850,-0.08419156075
0.02900,-0.08419156075
0.02950,0.8313916624
0.03000,2.357363701
0.03050,3.272946924
0.03100,2.357363701
0.03150,0.8313916624
0.03200,0.221002847
0.03250,0.221002847
0.03300,-0.08419156075
0.03350,-0.08419156075
0.03400,1.441780478
0.03450,3.578141332
0.03500,4.188530147
0.03550,3.883335739
0.03600,3.272946924
0.03650,3.272946924
0.03700,2.662558109
0.03750,1.746974885
0.03800,1.746974885
0.03850,2.052169293
0.03900,2.357363701
0.03950,1.746974885
0.04000,1.441780478
0.04050,1.441780478
0.04100,1.13658607
0.04150,-0.08419156075
0.04200,-1.304969192
0.04250,-1.915358007
0.04300,-2.220552415
0.04350,-2.525746822
0.04400,-3.136135638
0.04450,-3.441330045
0.04500,-3.136135638
0.04550,-3.746524453
0.04600,-4.967302084
0.04650,-4.967302084
0.04700,-2.83094123
0.04750,-0.3893859684
0.04800,0.8313916624
0.04850,1.441780478
0.04900,2.357363701
0.04950,2.967752516
0.05000,2.967752516
0.05050,3.272946924
0.05100,5.714502186
0.05150,7.240474224
0.05200,5.10411337
0.05250,0.5261972547
0.05300,-0.9997747838
0.05350,-0.08419156075
0.05400,0.221002847
0.05450,-0.9997747838
0.05500,-1.915358007
0.05550,-0.6945803761
0.05600,0.5261972547
0.05650,0.5261972547
0.05700,-0.08419156075
0.05750,0.5261972547
0.05800,1.13658607
0.05850,0.8313916624
0.05900,0.221002847
0.05950,1.13658607
0.06000,2.052169293
0.06050,1.441780478
0.06100,0.8313916624
0.06150,1.746974885
0.06200,3.272946924
0.06250,3.578141332
0.06300,3.883335739
0.06350,4.798918962
0.06400,5.409307778
0.06450,4.493724555
0.06500,2.357363701
0.06550,1.13658607
0.06600,0.8313916624
0.06650,-0.08419156075
0.06700,-1.610163599
0.06750,-2.525746822
0.06800,-1.304969192
0.06850,0.8313916624
0.06900,1.746974885
0.06950,1.746974885
0.07000,2.357363701
0.07050,4.493724555
0.07100,6.324891001
0.07150,6.935279816
0.07200,6.019696593
0.07250,4.493724555
0.07300,3.272946924
0.07350,2.357363701
0.07400,1.746974885
0.07450,1.441780478
0.07500,1.441780478
0.07550,1.13658607
0.07600,0.8313916624
0.07650,0.5261972547
0.07700,0.8313916624
0.07750,0.8313916624
0.07800,0.221002847
0.07850,-0.08419156075
0.07900,0.5261972547
0.07950,1.746974885
0.08000,2.052169293
0.08050,1.13658607
0.08100,1.13658607
0.08150,2.052169293
0.08200,2.357363701
0.08250,0.221002847
0.08300,-1.610163599
0.08350,-1.304969192
0.08400,-0.08419156075
0.08450,0.221002847
0.08500,-0.9997747838
0.08550,-2.525746822
0.08600,-1.915358007
0.08650,-0.9997747838
0.08700,-0.6945803761
0.08750,-1.304969192
0.08800,-1.610163599
0.08850,-1.304969192
0.08900,-0.9997747838
0.08950,-0.9997747838
0.09000,-0.3893859684
0.09050,0.221002847
0.09100,0.5261972547
0.09150,0.221002847
0.09200,-0.08419156075
0.09250,0.221002847
0.09300,0.8313916624
0.09350,0.8313916624
0.09400,0.221002847
0.09450,0.221002847
0.09500,1.746974885
0.09550,2.967752516
0.09600,2.357363701
0.09650,0.8313916624
0.09700,0.5261972547
0.09750,1.441780478
0.09800,2.052169293
0.09850,1.13658607
0.09900,0.5261972547
0.09950,0.5261972547
0.10000,-0.08419156075
0.10050,-0.9997747838
0.10100,-2.220552415
0.10150,-1.915358007
0.10200,-0.3893859684
0.10250,1.13658607
0.10300,2.357363701
0.10350,2.052169293
0.10400,0.5261972547
0.10450,-1.610163599
0.10500,-3.441330045
0.10550,-3.746524453
0.10600,-3.746524453
0.10650,-3.746524453
0.10700,-3.441330045
0.10750,-1.915358007
0.10800,-0.6945803761
0.10850,-0.6945803761
0.10900,-1.610163599
0.10950,-1.610163599
0.11000,-0.3893859684
0.11050,-0.08419156075
0.11100,-0.3893859684
0.11150,-1.304969192
0.11200,-1.915358007
0.11250,-2.220552415
0.11300,-1.915358007
0.11350,-2.220552415
0.11400,-3.441330045
0.11450,-4.662107676
0.11500,-3.746524453
0.11550,-0.3893859684
0.11600,2.967752516
0.11650,3.578141332
0.11700,2.662558109
0.11750,1.746974885
0.11800,1.746974885
0.11850,1.13658607
0.11900,-0.08419156075
0.11950,-0.3893859684
0.12000,-0.08419156075
0.12050,-0.08419156075
0.12100,-0.08419156075
0.12150,0.5261972547
0.12200,0.5261972547
0.12250,-0.3893859684
0.12300,-2.525746822
0.12350,-2.83094123
0.12400,-0.9997747838
0.12450,-0.08419156075
0.12500,-0.6945803761
0.12550,-1.610163599
0.12600,-1.304969192
0.12650,-0.08419156075
0.12700,0.5261972547
0.12750,0.8313916624
0.12800,0.8313916624
0.12850,0.8313916624
0.12900,-0.08419156075
0.12950,-0.9997747838
0.13000,-1.915358007
0.13050,-1.915358007
0.13100,-1.915358007
0.13150,-1.915358007
0.13200,-1.915358007
0.13250,-1.915358007
0.13300,-1.610163599
0.13350,-1.610163599
0.13400,-1.915358007
0.13450,-2.220552415
0.13500,-2.220552415
0.13550,-2.220552415
0.13600,-1.304969192
0.13650,-0.08419156075
0.13700,-0.3893859684
0.13750,-1.610163599
0.13800,-3.441330045
0.13850,-4.356913269
0.13900,-4.662107676
0.13950,-4.967302084
0.14000,-5.272496492
0.14050,-4.967302084
0.14100,-4.356913269
0.14150,-4.662107676
0.14200,-4.662107676
0.14250,-4.051718861
0.14300,-2.83094123
0.14350,-2.525746822
0.14400,-1.304969192
0.14450,0.8313916624
0.14500,2.967752516
0.14550,2.662558109
0.14600,0.5261972547
0.14650,-0.08419156075
0.14700,-0.08419156075
0.14750,-1.915358007
0.14800,-5.577690899
0.14850,-7.408857346
0.14900,-5.272496492
0.14950,-2.83094123
0.15000,-2.83094123
0.15050,-4.662107676
0.15100,-4.662107676
0.15150,-2.525746822
0.15200,-1.610163599
0.15250,-2.83094123
0.15300,-4.662107676
0.15350,-4.967302084
0.15400,-4.356913269
0.15450,-3.746524453
0.15500,-3.441330045
0.15550,-3.136135638
0.15600,-1.915358007
0.15650,-0.6945803761
0.15700,-0.08419156075
0.15750,-0.6945803761
0.15800,-1.610163599
0.15850,-1.610163599
0.15900,-1.304969192
0.15950,-1.610163599
0.16000,-1.915358007
0.16050,-0.9997747838
0.16100,0.5261972547
0.16150,1.441780478
0.16200,0.221002847
0.16250,-0.3893859684
0.16300,-0.6945803761
0.16350,-0.6945803761
0.16400,-1.304969192
0.16450,-1.915358007
0.16500,-1.304969192
0.16550,-0.9997747838
0.16600,-3.136135638
0.16650,-5.882885307
0.16700,-7.103662938
0.16750,-6.493274122
0.16800,-4.967302084
0.16850,-3.136135638
0.16900,-0.6945803761
0.16950,1.441780478
0.17000,3.578141332
0.17050,4.188530147
0.17100,2.967752516
0.17150,0.221002847
0.17200,-2.220552415
0.17250,-2.525746822
0.17300,-1.304969192
0.17350,-1.610163599
0.17400,-3.441330045
0.17450,-4.051718861
0.17500,-1.915358007
0.17550,0.221002847
0.17600,0.221002847
0.17650,-0.6945803761
0.17700,-0.9997747838
0.17750,-0.08419156075
0.17800,-0.3893859684
0.17850,-1.304969192
0.17900,-1.304969192
0.17950,-0.08419156075
0.18000,-0.08419156075
0.18050,-0.6945803761
0.18100,-1.304969192
0.18150,-0.9997747838
0.18200,-0.6945803761
0.18250,-0.3893859684
0.18300,0.221002847
0.18350,0.5261972547
0.18400,0.221002847
0.18450,-0.08419156075
0.18500,0.5261972547
0.18550,1.441780478
0.18600,1.746974885
0.18650,2.357363701
0.18700,3.578141332
0.18750,3.883335739
0.18800,2.357363701
0.18850,1.13658607
0.18900,1.441780478
0.18950,2.662558109
0.19000,1.441780478
0.19050,-0.9997747838
0.19100,-3.136135638
0.19150,-4.051718861
0.19200,-4.967302084
0.19250,-4.967302084
0.19300,-3.136135638
0.19350,-0.08419156075
0.19400,0.8313916624
0.19450,0.5261972547
0.19500,0.8313916624
0.19550,2.357363701
0.19600,2.662558109
0.19650,1.746974885
0.19700,0.5261972547
0.19750,0.221002847
0.19800,0.221002847
0.19850,1.13658607
0.19900,2.357363701
0.19950,3.883335739
0.20000,3.578141332
0.20050,2.357363701
0.20100,1.441780478
0.20150,0.8313916624
0.20200,-0.08419156075
0.20250,-1.610163599
0.20300,-2.525746822
0.20350,-2.525746822
0.20400,-2.525746822
0.20450,-3.136135638
0.20500,-3.441330045
0.20550,-2.83094123
0.20600,-2.220552415
0.20650,-1.915358007
0.20700,-1.304969192
0.20750,-0.6945803761
0.20800,-0.3893859684
0.20850,-0.08419156075
0.20900,0.221002847
0.20950,0.221002847
0.21000,-0.08419156075
0.21050,-0.3893859684
0.21100,-0.3893859684
0.21150,-0.6945803761
0.21200,-1.610163599
0.21250,-2.220552415
0.21300,-1.304969192
0.21350,-0.08419156075
0.21400,0.5261972547
0.21450,0.221002847
0.21500,0.8313916624
0.21550,2.357363701
0.21600,3.272946924
0.21650,2.357363701
0.21700,1.746974885
0.21750,2.052169293
0.21800,2.662558109
0.21850,2.967752516
0.21900,2.052169293
0.21950,0.221002847
0.22000,-1.304969192
0.22050,-2.525746822
0.22100,-1.610163599
0.22150,0.8313916624
0.22200,3.578141332
0.22250,4.493724555
0.22300,3.578141332
0.22350,2.967752516
0.22400,3.578141332
0.22450,4.493724555
0.22500,3.883335739
0.22550,1.746974885
0.22600,0.221002847
0.22650,1.13658607
0.22700,2.662558109
0.22750,2.967752516
0.22800,2.662558109
0.22850,3.272946924
0.22900,4.188530147
0.22950,4.493724555
0.23000,3.883335739
0.23050,2.967752516
0.23100,2.967752516
0.23150,3.578141332
0.23200,4.493724555
0.23250,5.409307778
0.23300,5.10411337
0.23350,3.578141332
0.23400,2.357363701
0.23450,2.662558109
0.23500,3.578141332
0.23550,3.272946924
0.23600,1.746974885
0.23650,1.13658607
0.23700,2.052169293
0.23750,2.662558109
0.23800,1.746974885
0.23850,0.5261972547
0.23900,0.8313916624
0.23950,1.746974885
0.24000,1.13658607
0.24050,-1.304969192
0.24100,-3.441330045
0.24150,-3.441330045
0.24200,-1.610163599
0.24250,-0.08419156075
0.24300,1.746974885
0.24350,3.578141332
0.24400,5.409307778
0.24450,5.409307778
0.24500,3.883335739
0.24550,2.052169293
0.24600,2.052169293
0.24650,3.883335739
0.24700,5.409307778
0.24750,5.714502186
0.24800,4.493724555
0.24850,2.052169293
0.24900,-0.3893859684
0.24950,-1.915358007
0.25000,-0.9997747838
0.25050,0.8313916624
0.25100,1.13658607
0.25150,-0.08419156075
0.25200,-0.3893859684
0.25250,-0.3893859684
0.25300,-0.9997747838
0.25350,-3.136135638
0.25400,-4.356913269
0.25450,-3.136135638
0.25500,-0.9997747838
0.25550,-0.08419156075
0.25600,-0.9997747838
0.25650,-2.83094123
0.25700,-3.746524453
0.25750,-3.136135638
0.25800,-1.304969192
0.25850,0.221002847
0.25900,0.5261972547
0.25950,-0.9997747838
0.26000,-1.915358007
0.26050,-0.08419156075
0.26100,4.188530147
0.26150,6.935279816
0.26200,6.324891001
0.26250,3.578141332
0.26300,1.13658607
0.26350,-0.08419156075
0.26400,-0.6945803761
0.26450,-0.9997747838
0.26500,-0.08419156075
0.26550,1.746974885
0.26600,2.662558109
0.26650,1.13658607
0.26700,-0.6945803761
0.26750,-0.9997747838
0.26800,-0.08419156075
0.26850,-0.08419156075
0.26900,-1.304969192
0.26950,-1.915358007
0.27000,-0.9997747838
0.27050,-0.08419156075
0.27100,-0.3893859684
0.27150,-1.915358007
0.27200,-3.136135638
0.27250,-4.051718861
0.27300,-5.577690899
0.27350,-5.577690899
0.27400,-3.441330045
0.27450,-0.3893859684
0.27500,0.5261972547
0.27550,-0.08419156075
0.27600,-0.9997747838
0.27650,-2.525746822
0.27700,-4.356913269
0.27750,-4.662107676
0.27800,-2.220552415
0.27850,1.746974885
0.27900,4.798918962
0.27950,4.798918962
0.28000,3.272946924
0.28050,3.272946924
0.28100,4.188530147
0.28150,4.798918962
0.28200,2.967752516
0.28250,-0.08419156075
0.28300,-2.525746822
0.28350,-3.746524453
0.28400,-3.441330045
0.28450,-2.83094123
0.28500,-2.220552415
0.28550,-1.610163599
0.28600,-0.3893859684
0.28650,0.221002847
0.28700,0.221002847
0.28750,-0.08419156075
0.28800,0.5261972547
0.28850,1.746974885
0.28900,1.441780478
0.28950,-0.6945803761
0.29000,-3.441330045
0.29050,-4.051718861
0.29100,-3.441330045
0.29150,-3.746524453
0.29200,-5.272496492
0.29250,-5.577690899
0.29300,-4.356913269
0.29350,-3.136135638
0.29400,-2.525746822
0.29450,-1.915358007
0.29500,-0.6945803761
0.29550,-0.08419156075
0.29600,-0.08419156075
0.29650,0.221002847
0.29700,0.5261972547
0.29750,-0.08419156075
0.29800,-1.610163599
0.29850,-3.441330045
0.29900,-3.441330045
0.29950,-1.915358007
0.30000,-0.9997747838
0.30050,-0.9997747838
0.30100,-0.9997747838
0.30150,-0.9997747838
0.30200,-1.304969192
0.30250,-1.610163599
0.30300,-1.610163599
0.30350,-0.3893859684
0.30400,0.5261972547
0.30450,1.13658607
0.30500,0.221002847
0.30550,-0.9997747838
0.30600,-1.915358007
0.30650,-2.220552415
0.30700,-1.915358007
0.30750,-1.915358007
0.30800,-1.610163599
0.30850,-1.304969192
0.30900,-0.08419156075
0.30950,0.5261972547
0.31000,1.13658607
0.31050,0.8313916624
0.31100,0.221002847
0.31150,-0.08419156075
0.31200,-0.3893859684
0.31250,-0.6945803761
0.31300,-0.6945803761
0.31350,-0.6945803761
0.31400,-0.6945803761
0.31450,-0.08419156075
0.31500,0.221002847
0.31550,0.8313916624
0.31600,1.13658607
0.31650,1.441780478
0.31700,0.8313916624
0.31750,-0.08419156075
0.31800,-0.9997747838
0.31850,-1.304969192
0.31900,-0.9997747838
0.31950,-0.3893859684
0.32000,-0.08419156075
0.32050,0.221002847
0.32100,0.8313916624
0.32150,1.13658607
0.32200,1.746974885
0.32250,2.662558109
0.32300,3.578141332
0.32350,3.272946924
0.32400,1.441780478
0.32450,-0.08419156075
0.32500,-0.08419156075
0.32550,0.221002847
0.32600,-0.08419156075
0.32650,-1.915358007
0.32700,-3.136135638
0.32750,-2.525746822
0.32800,-0.9997747838
0.32850,-0.6945803761
0.32900,-1.610163599
0.32950,-2.220552415
0.33000,-1.304969192
0.33050,-0.9997747838
0.33100,-2.220552415
0.33150,-2.83094123
0.33200,-0.6945803761
0.33250,1.441780478
0.33300,1.13658607
0.33350,-1.304969192
0.33400,-2.83094123
0.33450,-1.610163599
0.33500,-0.08419156075
0.33550,-0.08419156075
0.33600,-0.3893859684
0.33650,-0.08419156075
0.33700,-0.08419156075
0.33750,-1.915358007
0.33800,-4.967302084
0.33850,-5.882885307
0.33900,-4.662107676
0.33950,-3.136135638
0.34000,-1.915358007
0.34050,-0.08419156075
0.34100,1.746974885
0.34150,2.052169293
0.34200,0.8313916624
0.34250,-0.6945803761
0.34300,-1.610163599
0.34350,-1.915358007
0.34400,-2.83094123
0.34450,-3.136135638
0.34500,-1.915358007
0.34550,0.5261972547
0.34600,2.357363701
0.34650,1.746974885
0.34700,-0.3893859684
0.34750,-2.525746822
0.34800,-2.525746822
0.34850,-1.304969192
0.34900,-0.08419156075
0.34950,0.8313916624
0.35000,2.662558109
0.35050,3.883335739
0.35100,2.967752516
0.35150,0.5261972547
0.35200,-0.9997747838
0.35250,-0.9997747838
0.35300,-0.08419156075
0.35350,0.221002847
0.35400,-0.3893859684
0.35450,-0.3893859684
0.35500,-0.08419156075
0.35550,-0.08419156075
0.35600,-0.6945803761
0.35650,-1.915358007
0.35700,-2.220552415
0.35750,-1.915358007
0.35800,-2.525746822
0.35850,-3.441330045
0.35900,-2.525746822
0.35950,-0.08419156075
0.36000,1.441780478
0.36050,-0.08419156075
0.36100,-3.136135638
0.36150,-4.051718861
0.36200,-1.915358007
0.36250,0.221002847
0.36300,0.5261972547
0.36350,0.5261972547
0.36400,1.441780478
0.36450,2.967752516
0.36500,3.272946924
0.36550,2.052169293
0.36600,0.221002847
0.36650,-0.6945803761
0.36700,-1.915358007
0.36750,-2.83094123
0.36800,-3.746524453
0.36850,-3.136135638
0.36900,-1.304969192
0.36950,0.8313916624
0.37000,2.662558109
0.37050,2.662558109
0.37100,1.13658607
0.37150,-0.08419156075
0.37200,-0.3893859684
0.37250,-0.3893859684
0.37300,-0.08419156075
0.37350,0.221002847
0.37400,1.441780478
0.37450,2.662558109
0.37500,3.272946924
0.37550,3.578141332
0.37600,3.272946924
0.37650,2.357363701
0.37700,1.13658607
0.37750,0.221002847
0.37800,-0.08419156075
0.37850,0.221002847
0.37900,1.13658607
0.37950,2.662558109
0.38000,4.188530147
0.38050,4.493724555
0.38100,3.272946924
0.38150,1.441780478
0.38200,0.221002847
0.38250,0.5261972547
0.38300,2.052169293
0.38350,3.578141332
0.38400,3.272946924
0.38450,0.8313916624
0.38500,-0.9997747838
0.38550,-1.915358007
0.38600,-1.304969192
0.38650,-0.3893859684
0.38700,-0.3893859684
0.38750,-0.9997747838
0.38800,-1.304969192
0.38850,-0.9997747838
0.38900,0.5261972547
0.38950,3.272946924
0.39000,5.10411337
0.39050,5.714502186
0.39100,5.409307778
0.39150,6.019696593
0.39200,6.935279816
0.39250,7.850863039
0.39300,6.935279816
0.39350,4.798918962
0.39400,2.357363701
0.39450,1.441780478
0.39500,2.357363701
0.39550,2.052169293
0.39600,-0.08419156075
0.39650,-2.525746822
0.39700,-1.915358007
0.39750,0.5261972547
0.39800,1.746974885
0.39850,0.5261972547
0.39900,-0.08419156075
0.39950,1.13658607
0.40000,2.662558109
0.40050,2.357363701
0.40100,1.13658607
0.40150,1.13658607
0.40200,2.662558109
0.40250,3.578141332
0.40300,3.578141332
0.40350,2.967752516
0.40400,2.357363701
0.40450,1.13658607
0.40500,0.8313916624
0.40550,1.441780478
0.40600,2.052169293
0.40650,2.052169293
0.40700,2.357363701
0.40750,3.578141332
0.40800,4.188530147
0.40850,2.662558109
0.40900,0.5261972547
0.40950,1.13658607
0.41000,3.883335739
0.41050,5.714502186
0.41100,3.883335739
0.41150,0.221002847
0.41200,-2.220552415
0.41250,-2.83094123
0.41300,-2.83094123
0.41350,-2.220552415
0.41400,-0.9997747838
0.41450,0.5261972547
0.41500,2.357363701
0.41550,3.578141332
0.41600,4.188530147
0.41650,4.188530147
0.41700,3.272946924
0.41750,1.441780478
0.41800,-0.6945803761
0.41850,-1.915358007
0.41900,-1.915358007
0.41950,-1.610163599
0.42000,-2.220552415
0.42050,-3.136135638
0.42100,-2.83094123
0.42150,-1.915358007
0.42200,-1.304969192
0.42250,-1.304969192
0.42300,-0.9997747838
0.42350,-0.08419156075
0.42400,0.8313916624
0.42450,-0.08419156075
0.42500,-1.610163599
0.42550,-2.220552415
0.42600,-0.9997747838
0.42650,0.221002847
0.42700,1.13658607
0.42750,1.441780478
0.42800,1.746974885
0.42850,1.746974885
0.42900,1.441780478
0.42950,1.13658607
0.43000,1.441780478
0.43050,1.13658607
0.43100,0.8313916624
0.43150,0.5261972547
0.43200,0.221002847
0.43250,0.221002847
0.43300,0.5261972547
0.43350,0.8313916624
0.43400,1.746974885
0.43450,2.052169293
0.43500,2.357363701
0.43550,1.746974885
0.43600,0.221002847
0.43650,-0.9997747838
0.43700,-1.610163599
0.43750,-1.304969192
0.43800,-1.610163599
0.43850,-2.83094123
0.43900,-3.136135638
0.43950,-1.915358007
0.44000,-0.3893859684
0.44050,-0.6945803761
0.44100,-1.915358007
0.44150,-1.915358007
0.44200,-0.6945803761
0.44250,-0.9997747838
0.44300,-3.136135638
0.44350,-4.356913269
0.44400,-4.051718861
0.44450,-3.136135638
0.44500,-3.441330045
0.44550,-4.356913269
0.44600,-4.967302084
0.44650,-5.272496492
0.44700,-5.882885307
0.44750,-6.493274122
0.44800,-6.188079715
0.44850,-5.272496492
0.44900,-3.441330045
0.44950,-0.3893859684
0.45000,2.052169293
0.45050,3.272946924
0.45100,2.357363701
0.45150,0.8313916624
0.45200,0.221002847
0.45250,0.221002847
0.45300,0.5261972547
0.45350,1.441780478
0.45400,1.441780478
0.45450,0.5261972547
0.45500,-0.6945803761
0.45550,-1.610163599
0.45600,-1.304969192
0.45650,-0.08419156075
0.45700,1.746974885
0.45750,3.272946924
0.45800,3.578141332
0.45850,3.272946924
0.45900,3.272946924
0.45950,3.272946924
0.46000,2.357363701
0.46050,0.8313916624
0.46100,0.221002847
0.46150,0.5261972547
0.46200,1.13658607
0.46250,0.5261972547
0.46300,0.5261972547
0.46350,1.441780478
0.46400,3.272946924
0.46450,3.578141332
0.46500,2.357363701
0.46550,0.8313916624
0.46600,-0.3893859684
0.46650,-1.610163599
0.46700,-1.610163599
0.46750,-0.08419156075
0.46800,1.746974885
0.46850,2.967752516
0.46900,2.052169293
0.46950,-0.08419156075
0.47000,-1.915358007
0.47050,-3.136135638
0.47100,-3.136135638
0.47150,-1.610163599
0.47200,-0.08419156075
0.47250,0.221002847
0.47300,-0.08419156075
0.47350,-0.08419156075
0.47400,0.221002847
0.47450,-0.08419156075
0.47500,-0.3893859684
0.47550,-0.6945803761
0.47600,-0.08419156075
0.47650,-0.08419156075
0.47700,-0.6945803761
0.47750,-1.610163599
0.47800,-1.915358007
0.47850,-1.915358007
0.47900,-1.915358007
0.47950,-1.610163599
0.48000,-0.6945803761
0.48050,-0.08419156075
0.48100,-0.08419156075
0.48150,-0.9997747838
0.48200,-1.610163599
0.48250,-0.9997747838
0.48300,-0.6945803761
0.48350,-1.915358007
0.48400,-3.746524453
0.48450,-4.967302084
0.48500,-4.662107676
0.48550,-3.136135638
0.48600,-1.304969192
0.48650,0.5261972547
0.48700,2.662558109
0.48750,4.188530147
0.48800,3.883335739
0.48850,2.052169293
0.48900,0.8313916624
0.48950,0.8313916624
0.49000,2.052169293
0.49050,2.662558109
0.49100,2.662558109
0.49150,2.967752516
0.49200,3.272946924
0.49250,2.662558109
0.49300,1.441780478
0.49350,0.5261972547
0.49400,1.441780478
0.49450,2.052169293
0.49500,0.8313916624
0.49550,-0.9997747838
0.49600,-0.9997747838
0.49650,0.221002847
0.49700,0.8313916624
0.49750,0.221002847
0.49800,0.221002847
0.49850,1.746974885
0.49900,2.967752516
0.49950,2.967752516
0.50000,2.357363701
0.50050,1.441780478
0.50100,0.5261972547
0.50150,-0.3893859684
0.50200,-0.08419156075
0.50250,1.13658607
0.50300,2.662558109
0.50350,2.052169293
0.50400,0.5261972547
0.50450,-0.08419156075
0.50500,-0.6945803761
0.50550,-2.220552415
0.50600,-4.051718861
0.50650,-4.967302084
0.50700,-4.356913269
0.50750,-3.136135638
0.50800,-2.525746822
0.50850,-2.525746822
0.50900,-1.915358007
0.50950,-0.6945803761
0.51000,1.441780478
0.51050,3.883335739
0.51100,5.10411337
0.51150,4.493724555
0.51200,3.272946924
0.51250,2.357363701
0.51300,0.5261972547
0.51350,-2.525746822
0.51400,-5.272496492
0.51450,-5.272496492
0.51500,-3.136135638
0.51550,-1.610163599
0.51600,-2.525746822
0.51650,-4.967302084
0.51700,-6.188079715
0.51750,-5.577690899
0.51800,-3.441330045
0.51850,-0.3893859684
0.51900,2.357363701
0.51950,3.578141332
0.52000,0.8313916624
0.52050,-3.136135638
0.52100,-5.577690899
0.52150,-5.272496492
0.52200,-4.662107676
0.52250,-5.272496492
0.52300,-5.577690899
0.52350,-4.356913269
0.52400,-2.220552415
0.52450,-0.08419156075
0.52500,0.8313916624
0.52550,2.357363701
0.52600,2.967752516
0.52650,2.052169293
0.52700,-0.08419156075
0.52750,-1.915358007
0.52800,-2.83094123
0.52850,-2.83094123
0.52900,-1.610163599
0.52950,-0.08419156075
0.53000,-0.08419156075
0.53050,-0.6945803761
0.53100,-1.915358007
0.53150,-1.610163599
0.53200,-1.610163599
0.53250,-2.83094123
0.53300,-3.746524453
0.53350,-2.525746822
0.53400,-0.08419156075
0.53450,-0.08419156075
0.53500,-1.304969192
0.53550,-0.3893859684
0.53600,2.357363701
0.53650,3.883335739
0.53700,2.052169293
0.53750,-0.08419156075
0.53800,0.5261972547
0.53850,2.052169293
0.53900,2.052169293
0.53950,1.13658607
0.54000,0.8313916624
0.54050,1.13658607
0.54100,1.441780478
0.54150,1.13658607
0.54200,0.8313916624
0.54250,1.13658607
0.54300,1.746974885
0.54350,2.662558109
0.54400,2.662558109
0.54450,1.441780478
0.54500,-0.08419156075
0.54550,-0.9997747838
0.54600,-0.08419156075
0.54650,1.746974885
0.54700,2.357363701
0.54750,0.8313916624
0.54800,-0.3893859684
0.54850,-1.304969192
0.54900,-0.9997747838
0.54950,-0.9997747838
0.55000,-1.304969192
0.55050,-1.610163599
0.55100,-0.9997747838
0.55150,-0.6945803761
0.55200,-1.610163599
0.55250,-2.83094123
0.55300,-2.83094123
0.55350,-1.915358007
0.55400,-2.220552415
0.55450,-3.441330045
0.55500,-2.83094123
0.55550,-0.08419156075
0.55600,2.662558109
0.55650,2.052169293
0.55700,-0.08419156075
0.55750,-1.304969192
0.55800,-1.304969192
0.55850,-0.9997747838
0.55900,-0.9997747838
0.55950,-0.9997747838
0.56000,-1.915358007
0.56050,-4.662107676
0.56100,-5.882885307
0.56150,-3.746524453
0.56200,-0.6945803761
0.56250,-0.08419156075
0.56300,-1.610163599
0.56350,-1.610163599
0.56400,-0.08419156075
0.56450,-0.08419156075
0.56500,-1.304969192
0.56550,-1.915358007
0.56600,-1.610163599
0.56650,-1.610163599
0.56700,-2.83094123
0.56750,-2.83094123
0.56800,-1.304969192
0.56850,-0.6945803761
0.56900,-2.525746822
0.56950,-5.272496492
0.57000,-7.103662938
0.57050,-7.103662938
0.57100,-6.188079715
0.57150,-5.272496492
0.57200,-4.662107676
0.57250,-4.051718861
0.57300,-2.220552415
0.57350,-0.3893859684
0.57400,-0.3893859684
0.57450,-1.915358007
0.57500,-1.915358007
0.57550,-0.08419156075
0.57600,1.746974885
0.57650,0.5261972547
0.57700,-1.610163599
0.57750,-1.304969192
0.57800,1.13658607
0.57850,3.272946924
0.57900,3.272946924
0.57950,2.052169293
0.58000,0.5261972547
0.58050,-0.3893859684
0.58100,-0.3893859684
0.58150,-0.08419156075
0.58200,-0.08419156075
0.58250,-0.6945803761
0.58300,-0.6945803761
0.58350,-0.08419156075
0.58400,-0.08419156075
0.58450,-0.9997747838
0.58500,-1.610163599
0.58550,-0.08419156075
0.58600,1.441780478
0.58650,1.13658607
0.58700,0.8313916624
0.58750,2.357363701
0.58800,4.798918962
0.58850,4.798918962
0.58900,2.662558109
0.58950,1.746974885
0.59000,2.357363701
0.59050,1.746974885
0.59100,0.221002847
0.59150,-0.08419156075
0.59200,0.8313916624
0.59250,0.8313916624
0.59300,-0.3893859684
0.59350,-0.6945803761
0.59400,2.052169293
0.59450,3.883335739
0.59500,1.441780478
0.59550,-2.83094123
0.59600,-4.967302084
0.59650,-3.746524453
0.59700,-3.136135638
0.59750,-4.051718861
0.59800,-4.356913269
0.59850,-3.136135638
0.59900,-1.304969192
0.59950,-0.3893859684
0.60000,-0.08419156075
0.60050,-0.08419156075
0.60100,-0.9997747838
0.60150,-3.136135638
0.60200,-4.967302084
0.60250,-4.967302084
0.60300,-3.136135638
0.60350,-1.304969192
0.60400,-0.3893859684
0.60450,-0.3893859684
0.60500,-0.6945803761
0.60550,-1.304969192
0.60600,-0.6945803761
0.60650,0.8313916624
0.60700,2.967752516
0.60750,2.662558109
0.60800,1.13658607
0.60850,-0.08419156075
0.60900,-0.08419156075
0.60950,-0.08419156075
0.61000,-0.6945803761
0.61050,-1.610163599
0.61100,-0.6945803761
0.61150,0.8313916624
0.61200,1.746974885
0.61250,2.357363701
0.61300,2.052169293
0.61350,1.441780478
0.61400,0.5261972547
0.61450,0.8313916624
0.61500,2.967752516
0.61550,4.188530147
0.61600,2.357363701
0.61650,-0.08419156075
0.61700,-0.6945803761
0.61750,0.5261972547
0.61800,1.441780478
0.61850,0.5261972547
0.61900,-0.3893859684
0.61950,-0.08419156075
0.62000,1.13658607
0.62050,2.052169293
0.62100,2.662558109
0.62150,2.967752516
0.62200,2.662558109
0.62250,1.746974885
0.62300,1.13658607
0.62350,2.052169293
0.62400,3.272946924
0.62450,3.578141332
0.62500,4.493724555
0.62550,5.714502186
0.62600,5.714502186
0.62650,4.188530147
0.62700,2.662558109
0.62750,2.662558109
0.62800,2.662558109
0.62850,2.052169293
0.62900,1.13658607
0.62950,2.052169293
0.63000,3.883335739
0.63050,3.883335739
0.63100,1.441780478
0.63150,-0.6945803761
0.63200,-1.610163599
0.63250,-1.304969192
0.63300,-1.304969192
0.63350,-2.83094123
0.63400,-4.662107676
0.63450,-5.882885307
0.63500,-5.577690899
0.63550,-4.356913269
0.63600,-3.746524453
0.63650,-4.967302084
0.63700,-6.493274122
0.63750,-5.577690899
0.63800,-2.525746822
0.63850,0.221002847
0.63900,0.8313916624
0.63950,-0.6945803761
0.64000,-2.525746822
0.64050,-2.525746822
0.64100,-1.610163599
0.64150,-0.6945803761
0.64200,-0.3893859684
0.64250,-0.3893859684
0.64300,-0.9997747838
0.64350,-0.9997747838
0.64400,-1.304969192
0.64450,-2.220552415
0.64500,-3.136135638
0.64550,-3.746524453
0.64600,-3.136135638
0.64650,-2.83094123
0.64700,-2.525746822
0.64750,-1.915358007
0.64800,-0.9997747838
0.64850,-0.08419156075
0.64900,-0.3893859684
0.64950,-0.9997747838
0.65000,-0.6945803761
0.65050,0.5261972547
0.65100,1.441780478
0.65150,0.8313916624
0.65200,-0.08419156075
0.65250,-1.304969192
0.65300,-1.915358007
0.65350,-2.220552415
0.65400,-2.220552415
0.65450,-2.525746822
0.65500,-3.136135638
0.65550,-3.136135638
0.65600,-1.915358007
0.65650,-0.6945803761
0.65700,-0.9997747838
0.65750,-1.610163599
0.65800,-2.220552415
0.65850,-2.220552415
0.65900,-1.915358007
0.65950,-1.610163599
0.66000,-0.3893859684
0.66050,0.8313916624
0.66100,1.13658607
0.66150,-0.08419156075
0.66200,-1.304969192
0.66250,-2.220552415
0.66300,-3.136135638
0.66350,-3.136135638
0.66400,-1.915358007
0.66450,0.221002847
0.66500,1.746974885
0.66550,2.052169293
0.66600,1.746974885
0.66650,1.746974885
0.66700,1.441780478
0.66750,-0.08419156075
0.66800,-1.610163599
0.66850,-2.83094123
0.66900,-2.525746822
0.66950,-1.304969192
0.67000,0.221002847
0.67050,1.13658607
0.67100,0.8313916624
0.67150,-0.08419156075
0.67200,-0.3893859684
0.67250,0.221002847
0.67300,1.13658607
0.67350,0.8313916624
0.67400,-0.08419156075
0.67450,-0.9997747838
0.67500,-0.6945803761
0.67550,-0.08419156075
0.67600,1.13658607
0.67650,1.746974885
0.67700,1.746974885
0.67750,1.13658607
0.67800,1.441780478
0.67850,2.052169293
0.67900,2.357363701
0.67950,2.967752516
0.68000,3.272946924
0.68050,3.578141332
0.68100,3.272946924
0.68150,1.441780478
0.68200,-0.3893859684
0.68250,-1.304969192
0.68300,-0.6945803761
0.68350,1.13658607
0.68400,2.357363701
0.68450,2.662558109
0.68500,2.357363701
0.68550,3.272946924
0.68600,4.493724555
0.68650,4.493724555
0.68700,3.272946924
0.68750,2.052169293
0.68800,2.357363701
0.68850,2.967752516
0.68900,2.662558109
0.68950,2.357363701
0.69000,2.357363701
0.69050,2.967752516
0.69100,2.357363701
0.69150,1.13658607
0.69200,0.5261972547
0.69250,0.8313916624
0.69300,2.052169293
0.69350,2.967752516
0.69400,2.662558109
0.69450,1.746974885
0.69500,0.8313916624
0.69550,1.13658607
0.69600,2.052169293
0.69650,2.052169293
0.69700,1.441780478
0.69750,1.13658607
0.69800,1.441780478
0.69850,1.13658607
0.69900,-0.08419156075
0.69950,-1.304969192
0.70000,-0.6945803761
0.70050,0.8313916624
0.70100,2.967752516
0.70150,3.578141332
0.70200,2.967752516
0.70250,1.13658607
0.70300,-0.08419156075
0.70350,-0.08419156075
0.70400,1.441780478
0.70450,2.662558109
0.70500,2.662558109
0.70550,2.357363701
0.70600,2.052169293
0.70650,2.052169293
0.70700,2.357363701
0.70750,2.357363701
0.70800,2.357363701
0.70850,2.662558109
0.70900,3.578141332
0.70950,4.188530147
0.71000,4.188530147
0.71050,2.967752516
0.71100,1.746974885
0.71150,0.8313916624
0.71200,-0.08419156075
0.71250,-0.9997747838
0.71300,-1.610163599
0.71350,-0.6945803761
0.71400,0.8313916624
0.71450,1.13658607
0.71500,-0.3893859684
0.71550,-1.915358007
0.71600,-1.304969192
0.71650,-0.08419156075
0.71700,-0.08419156075
0.71750,-1.304969192
0.71800,-2.525746822
0.71850,-3.136135638
0.71900,-3.441330045
0.71950,-4.356913269
0.72000,-4.967302084
0.72050,-5.577690899
0.72100,-5.882885307
0.72150,-5.882885307
0.72200,-5.272496492
0.72250,-4.967302084
0.72300,-4.662107676
0.72350,-4.662107676
0.72400,-4.051718861
0.72450,-2.220552415
0.72500,-1.304969192
0.72550,-1.915358007
0.72600,-3.441330045
0.72650,-3.441330045
0.72700,-2.220552415
0.72750,-1.915358007
0.72800,-3.136135638
0.72850,-4.662107676
0.72900,-4.662107676
0.72950,-3.746524453
0.73000,-3.441330045
0.73050,-4.051718861
0.73100,-4.051718861
0.73150,-2.220552415
0.73200,-0.3893859684
0.73250,-0.08419156075
0.73300,-0.6945803761
0.73350,-1.304969192
0.73400,-1.304969192
0.73450,-1.610163599
0.73500,-2.525746822
0.73550,-2.525746822
0.73600,-1.304969192
0.73650,-0.08419156075
0.73700,-0.08419156075
0.73750,-0.08419156075
0.73800,-0.08419156075
0.73850,-0.08419156075
0.73900,-0.9997747838
0.73950,-1.610163599
0.74000,-0.9997747838
0.74050,-0.08419156075
0.74100,-0.08419156075
0.74150,-0.08419156075
0.74200,0.221002847
0.74250,0.221002847
0.74300,-0.08419156075
0.74350,-0.3893859684
0.74400,-0.08419156075
0.74450,0.221002847
0.74500,0.221002847
0.74550,0.221002847
0.74600,1.13658607
0.74650,1.441780478
0.74700,0.5261972547
0.74750,-0.6945803761
0.74800,-0.9997747838
0.74850,-0.3893859684
0.74900,-0.3893859684
0.74950,-0.6945803761
0.75000,-0.08419156075
0.75050,-0.08419156075
0.75100,-0.6945803761
0.75150,-2.220552415
0.75200,-2.525746822
0.75250,-0.9997747838
0.75300,0.5261972547
0.75350,1.441780478
0.75400,1.441780478
0.75450,0.8313916624
0.75500,-0.3893859684
0.75550,-2.525746822
0.75600,-2.83094123
0.75650,-1.304969192
0.75700,-0.08419156075
0.75750,-0.08419156075
0.75800,-0.08419156075
0.75850,0.221002847
0.75900,0.5261972547
0.75950,-0.3893859684
0.76000,-1.915358007
0.76050,-2.220552415
0.76100,-0.9997747838
0.76150,-0.08419156075
0.76200,0.221002847
0.76250,-0.08419156075
0.76300,0.221002847
0.76350,0.8313916624
0.76400,1.441780478
0.76450,1.13658607
0.76500,0.5261972547
0.76550,-0.08419156075
0.76600,0.8313916624
0.76650,2.357363701
0.76700,2.967752516
0.76750,1.746974885
0.76800,0.8313916624
0.76850,1.441780478
0.76900,2.967752516
0.76950,2.967752516
0.77000,0.5261972547
0.77050,-0.6945803761
0.77100,-0.08419156075
0.77150,0.8313916624
0.77200,0.5261972547
0.77250,-0.3893859684
0.77300,-0.08419156075
0.77350,1.746974885
0.77400,3.272946924
0.77450,2.967752516
0.77500,1.746974885
0.77550,0.8313916624
0.77600,0.8313916624
0.77650,0.8313916624
0.77700,1.441780478
0.77750,2.357363701
0.77800,3.578141332
0.77850,3.883335739
0.77900,3.578141332
0.77950,2.967752516
0.78000,2.662558109
0.78050,2.052169293
0.78100,1.746974885
0.78150,1.746974885
0.78200,2.052169293
0.78250,1.746974885
0.78300,0.5261972547
0.78350,-0.3893859684
0.78400,-0.08419156075
0.78450,1.746974885
0.78500,2.662558109
0.78550,1.13658607
0.78600,-0.3893859684
0.78650,-1.304969192
0.78700,-1.915358007
0.78750,-3.136135638
0.78800,-4.662107676
0.78850,-4.051718861
0.78900,-1.610163599
0.78950,0.8313916624
0.79000,1.13658607
0.79050,-0.08419156075
0.79100,-1.304969192
0.79150,-2.83094123
0.79200,-4.051718861
0.79250,-4.967302084
0.79300,-4.051718861
0.79350,-1.610163599
0.79400,0.221002847
0.79450,0.5261972547
0.79500,-0.3893859684
0.79550,-1.304969192
0.79600,-0.6945803761
0.79650,-0.3893859684
0.79700,-0.9997747838
0.79750,-1.610163599
0.79800,-0.9997747838
0.79850,-0.08419156075
0.79900,-0.08419156075
0.79950,-0.08419156075
0.80000,0.221002847
0.80050,0.8313916624
0.80100,0.221002847
0.80150,-1.304969192
0.80200,-3.136135638
0.80250,-3.136135638
0.80300,-1.915358007
0.80350,-0.3893859684
0.80400,1.441780478
0.80450,2.357363701
0.80500,1.746974885
0.80550,0.5261972547
0.80600,-0.08419156075
0.80650,-0.08419156075
0.80700,-0.6945803761
0.80750,-0.3893859684
0.80800,1.13658607
0.80850,3.578141332
0.80900,4.493724555
0.80950,3.272946924
0.81000,1.441780478
0.81050,0.5261972547
0.81100,0.5261972547
0.81150,0.8313916624
0.81200,1.441780478
0.81250,2.357363701
0.81300,2.967752516
0.81350,2.967752516
0.81400,3.272946924
0.81450,3.578141332
0.81500,3.578141332
0.81550,2.357363701
0.81600,0.8313916624
0.81650,0.8313916624
0.81700,2.357363701
0.81750,4.798918962
0.81800,5.714502186
0.81850,5.714502186
0.81900,6.324891001
0.81950,6.935279816
0.82000,6.630085409
0.82050,5.409307778
0.82100,5.10411337
0.82150,5.409307778
0.82200,6.324891001
0.82250,6.324891001
0.82300,6.019696593
0.82350,5.714502186
0.82400,4.493724555
0.82450,2.967752516
0.82500,2.662558109
0.82550,3.578141332
0.82600,4.493724555
0.82650,3.883335739
0.82700,2.967752516
0.82750,3.272946924
0.82800,3.578141332
0.82850,3.272946924
0.82900,3.272946924
0.82950,4.493724555
0.83000,6.324891001
0.83050,6.630085409
0.83100,6.019696593
0.83150,5.10411337
0.83200,4.188530147
0.83250,3.272946924
0.83300,3.272946924
0.83350,4.798918962
0.83400,6.935279816
0.83450,6.324891001
0.83500,3.272946924
0.83550,-0.08419156075
0.83600,-1.304969192
0.83650,-2.525746822
0.83700,-4.356913269
0.83750,-6.188079715
0.83800,-6.79846853
0.83850,-7.408857346
0.83900,-8.324440569
0.83950,-8.019246161
0.84000,-6.79846853
0.84050,-6.188079715
0.84100,-8.019246161
0.84150,-9.545218199
0.84200,-9.545218199
0.84250,-9.240023792
0.84300,-10.76599583
0.84350,-12.29196787
0.84400,-11.68157905
0.84450,-9.240023792
0.84500,-7.714051753
0.84550,-7.714051753
0.84600,-7.103662938
0.84650,-5.577690899
0.84700,-4.662107676
0.84750,-3.441330045
0.84800,-1.610163599
0.84850,-0.08419156075
0.84900,-0.08419156075
0.84950,-1.915358007
0.85000,-3.746524453
0.85050,-3.441330045
0.85100,-2.220552415
0.85150,-2.525746822
0.85200,-3.441330045
0.85250,-3.441330045
0.85300,-2.525746822
0.85350,-2.220552415
0.85400,-1.915358007
0.85450,-1.304969192
0.85500,-1.304969192
0.85550,-2.525746822
0.85600,-4.051718861
0.85650,-4.356913269
0.85700,-3.136135638
0.85750,-2.220552415
0.85800,-2.220552415
0.85850,-2.220552415
0.85900,-1.915358007
0.85950,-1.304969192
0.86000,-0.9997747838
0.86050,-0.3893859684
0.86100,0.8313916624
0.86150,2.967752516
0.86200,4.798918962
0.86250,6.630085409
0.86300,7.850863039
0.86350,9.07164067
0.86400,9.376835078
0.86450,9.987223893
0.86500,11.20800152
0.86550,12.42877916
0.86600,11.81839034
0.86650,9.376835078
0.86700,6.324891001
0.86750,5.10411337
0.86800,6.935279816
0.86850,9.376835078
0.86900,10.2924183
0.86950,9.07164067
0.87000,6.935279816
0.87050,5.409307778
0.87100,5.10411337
0.87150,5.714502186
0.87200,6.324891001
0.87250,6.630085409
0.87300,6.630085409
0.87350,5.714502186
0.87400,6.019696593
0.87450,6.935279816
0.87500,8.461251855
0.87550,8.766446263
0.87600,8.461251855
0.87650,8.156057447
0.87700,7.850863039
0.87750,6.630085409
0.87800,5.409307778
0.87850,4.798918962
0.87900,5.10411337
0.87950,5.409307778
0.88000,4.493724555
0.88050,3.578141332
0.88100,2.967752516
0.88150,2.052169293
0.88200,1.13658607
0.88250,0.8313916624
0.88300,1.13658607
0.88350,0.221002847
0.88400,-0.9997747838
0.88450,-1.915358007
0.88500,-1.610163599
0.88550,-1.304969192
0.88600,-1.915358007
0.88650,-1.915358007
0.88700,-0.3893859684
0.88750,-0.08419156075
0.88800,-1.610163599
0.88850,-4.356913269
0.88900,-4.662107676
0.88950,-3.441330045
0.89000,-2.525746822
0.89050,-2.220552415
0.89100,-0.9997747838
0.89150,-0.08419156075
0.89200,-0.08419156075
0.89250,-0.9997747838
0.89300,-2.525746822
0.89350,-2.83094123
0.89400,-3.441330045
0.89450,-5.272496492
0.89500,-6.493274122
0.89550,-6.493274122
0.89600,-6.188079715
0.89650,-6.188079715
0.89700,-5.272496492
0.89750,-3.136135638
0.89800,-1.915358007
0.89850,-3.441330045
0.89900,-6.188079715
0.89950,-6.79846853
0.90000,-4.967302084
0.90050,-3.441330045
0.90100,-5.272496492
0.90150,-8.324440569
0.90200,-9.545218199
0.90250,-8.934829384
0.90300,-8.629634976
0.90350,-9.240023792
0.90400,-9.850412607
0.90450,-9.545218199
0.90500,-9.545218199
0.90550,-10.15560701
0.90600,-10.46080142
0.90650,-9.240023792
0.90700,-8.324440569
0.90750,-8.629634976
0.90800,-10.15560701
0.90850,-11.68157905
0.90900,-12.29196787
0.90950,-13.20755109
0.91000,-14.73352313
0.91050,-15.64910635
0.91100,-15.34391195
0.91150,-14.42832872
0.91200,-13.5127455
0.91250,-13.20755109
0.91300,-11.68157905
0.91350,-9.850412607
0.91400,-8.934829384
0.91450,-10.15560701
0.91500,-11.98677346
0.91550,-11.98677346
0.91600,-10.15560701
0.91650,-8.934829384
0.91700,-8.934829384
0.91750,-8.324440569
0.91800,-5.577690899
0.91850,-2.83094123
0.91900,-1.304969192
0.91950,-0.08419156075
0.92000,1.13658607
0.92050,2.357363701
0.92100,2.357363701
0.92150,1.441780478
0.92200,1.13658607
0.92250,2.052169293
0.92300,3.883335739
0.92350,5.714502186
0.92400,6.935279816
0.92450,6.935279816
0.92500,5.10411337
0.92550,2.967752516
0.92600,1.441780478
0.92650,1.13658607
0.92700,1.441780478
0.92750,2.357363701
0.92800,3.272946924
0.92850,3.578141332
0.92900,2.967752516
0.92950,1.13658607
0.93000,-0.08419156075
0.93050,0.221002847
0.93100,2.052169293
0.93150,3.883335739
0.93200,4.493724555
0.93250,3.578141332
0.93300,3.272946924
0.93350,4.188530147
0.93400,5.409307778
0.93450,6.935279816
0.93500,8.461251855
0.93550,9.376835078
0.93600,9.376835078
0.93650,8.461251855
0.93700,8.766446263
0.93750,9.682029486
0.93800,9.987223893
0.93850,8.156057447
0.93900,6.935279816
0.93950,6.630085409
0.94000,6.324891001
0.94050,3.272946924
0.94100,0.5261972547
0.94150,1.746974885
0.94200,6.324891001
0.94250,9.682029486
0.94300,10.2924183
0.94350,10.59761271
0.94400,12.42877916
0.94450,13.95475119
0.94500,12.42877916
0.94550,9.376835078
0.94600,7.545668632
0.94650,7.240474224
0.94700,7.240474224
0.94750,6.935279816
0.94800,7.240474224
0.94850,7.850863039
0.94900,7.850863039
0.94950,6.630085409
0.95000,5.10411337
0.95050,4.188530147
0.95100,3.883335739
0.95150,3.272946924
0.95200,2.662558109
0.95250,1.746974885
0.95300,1.441780478
0.95350,1.13658607
0.95400,0.8313916624
0.95450,0.5261972547
0.95500,0.5261972547
0.95550,0.5261972547
0.95600,-0.08419156075
0.95650,-1.915358007
0.95700,-3.746524453
0.95750,-3.746524453
0.95800,-2.83094123
0.95850,-3.136135638
0.95900,-5.882885307
0.95950,-10.15560701
0.96000,-12.29196787
0.96050,-12.29196787
0.96100,-11.98677346
0.96150,-11.98677346
0.96200,-12.59716228
0.96250,-12.59716228
0.96300,-12.59716228
0.96350,-12.29196787
0.96400,-11.98677346
0.96450,-11.07119024
0.96500,-9.850412607
0.96550,-9.240023792
0.96600,-8.019246161
0.96650,-6.188079715
0.96700,-4.967302084
0.96750,-4.967302084
0.96800,-6.188079715
0.96850,-6.79846853
0.96900,-5.882885307
0.96950,-4.662107676
0.97000,-4.051718861
0.97050,-4.356913269
0.97100,-4.967302084
0.97150,-5.272496492
0.97200,-4.967302084
0.97250,-4.356913269
0.97300,-3.136135638
0.97350,-2.220552415
0.97400,-1.915358007
0.97450,-2.83094123
0.97500,-3.746524453
0.97550,-3.136135638
0.97600,-1.915358007
0.97650,-1.304969192
0.97700,-1.610163599
0.97750,-2.220552415
0.97800,-2.220552415
0.97850,-1.304969192
0.97900,-0.3893859684
0.97950,0.221002847
0.98000,0.5261972547
0.98050,0.221002847
0.98100,-0.3893859684
0.98150,-0.9997747838
0.98200,-0.6945803761
0.98250,0.221002847
0.98300,0.8313916624
0.98350,0.8313916624
0.98400,0.5261972547
0.98450,0.8313916624
0.98500,1.746974885
0.98550,2.357363701
0.98600,2.052169293
0.98650,0.8313916624
0.98700,-0.3893859684
0.98750,-0.08419156075
0.98800,0.8313916624
0.98850,1.746974885
0.98900,1.746974885
0.98950,1.13658607
0.99000,1.441780478
0.99050,2.662558109
0.99100,3.883335739
0.99150,4.188530147
0.99200,3.578141332
0.99250,2.357363701
0.99300,2.662558109
0.99350,3.883335739
0.99400,5.409307778
0.99450,6.019696593
0.99500,6.019696593
0.99550,5.714502186
0.99600,4.798918962
0.99650,3.272946924
0.99700,2.052169293
0.99750,1.746974885
0.99800,2.357363701
0.99850,2.967752516
0.99900,2.967752516
0.99950,2.967752516
1.00000,3.272946924
1.00050,3.578141332
1.00100,3.578141332
1.00150,3.883335739
1.00200,4.188530147
1.00250,3.883335739
1.00300,3.272946924
1.00350,2.967752516
1.00400,3.272946924
1.00450,3.272946924
1.00500,2.967752516
1.00550,3.272946924
1.00600,3.272946924
1.00650,2.662558109
1.00700,1.13658607
1.00750,0.5261972547
1.00800,2.052169293
1.00850,3.578141332
1.00900,3.883335739
1.00950,3.272946924
1.01000,2.662558109
1.01050,2.662558109
1.01100,2.052169293
1.01150,1.441780478
1.01200,1.441780478
1.01250,2.357363701
1.01300,2.052169293
1.01350,0.8313916624
1.01400,0.221002847
1.01450,1.441780478
1.01500,2.662558109
1.01550,2.967752516
1.01600,2.052169293
1.01650,1.746974885
1.01700,2.052169293
1.01750,1.746974885
1.01800,1.746974885
1.01850,2.052169293
1.01900,2.662558109
1.01950,2.662558109
1.02000,1.441780478
1.02050,-0.08419156075
1.02100,-0.6945803761
1.02150,-0.08419156075
1.02200,1.13658607
1.02250,2.662558109
1.02300,2.967752516
1.02350,2.662558109
1.02400,2.357363701
1.02450,2.052169293
1.02500,1.746974885
1.02550,1.441780478
1.02600,1.441780478
1.02650,1.746974885
1.02700,1.746974885
1.02750,2.357363701
1.02800,3.272946924
1.02850,2.662558109
1.02900,0.5261972547
1.02950,-1.915358007
1.03000,-2.83094123
1.03050,-2.83094123
1.03100,-2.83094123
1.03150,-2.525746822
1.03200,-0.9997747838
1.03250,1.13658607
1.03300,2.052169293
1.03350,2.052169293
1.03400,2.662558109
1.03450,4.188530147
1.03500,4.493724555
1.03550,2.967752516
1.03600,1.441780478
1.03650,0.8313916624
1.03700,0.5261972547
1.03750,-0.08419156075
1.03800,-1.610163599
1.03850,-2.83094123
1.03900,-3.746524453
1.03950,-4.356913269
1.04000,-4.356913269
1.04050,-3.746524453
1.04100,-4.356913269
1.04150,-5.272496492
1.04200,-6.493274122
1.04250,-6.493274122
1.04300,-5.272496492
1.04350,-3.746524453
1.04400,-1.915358007
1.04450,-0.9997747838
1.04500,-0.9997747838
1.04550,-0.9997747838
1.04600,-0.6945803761
1.04650,-0.6945803761
1.04700,-1.915358007
1.04750,-2.525746822
1.04800,-2.220552415
1.04850,-1.304969192
1.04900,-1.610163599
1.04950,-2.220552415
1.05000,-1.304969192
1.05050,-0.08419156075
1.05100,0.5261972547
1.05150,-0.6945803761
1.05200,-2.525746822
1.05250,-2.83094123
1.05300,-1.610163599
1.05350,0.221002847
1.05400,2.357363701
1.05450,3.578141332
1.05500,4.493724555
1.05550,4.493724555
1.05600,3.883335739
1.05650,3.272946924
1.05700,2.662558109
1.05750,2.357363701
1.05800,2.357363701
1.05850,2.662558109
1.05900,2.967752516
1.05950,3.883335739
1.06000,4.188530147
1.06050,3.578141332
1.06100,2.662558109
1.06150,3.272946924
1.06200,5.10411337
1.06250,6.019696593
1.06300,5.10411337
1.06350,4.493724555
1.06400,6.019696593
1.06450,7.850863039
1.06500,7.850863039
1.06550,6.019696593
1.06600,5.714502186
1.06650,6.935279816
1.06700,8.156057447
1.06750,8.156057447
1.06800,7.850863039
1.06850,8.156057447
1.06900,7.240474224
1.06950,4.188530147
1.07000,1.441780478
1.07050,0.5261972547
1.07100,0.221002847
1.07150,-0.6945803761
1.07200,-3.441330045
1.07250,-5.577690899
1.07300,-5.577690899
1.07350,-4.662107676
1.07400,-3.746524453
1.07450,-3.136135638
1.07500,-2.220552415
1.07550,-0.9997747838
1.07600,0.221002847
1.07650,1.746974885
1.07700,2.052169293
1.07750,2.052169293
1.07800,1.746974885
1.07850,2.357363701
1.07900,3.883335739
1.07950,5.714502186
1.08000,6.935279816
1.08050,7.545668632
1.08100,8.461251855
1.08150,10.2924183
1.08200,12.12358475
1.08250,12.42877916
1.08300,11.20800152
1.08350,8.156057447
1.08400,4.188530147
1.08450,0.221002847
1.08500,-0.9997747838
1.08550,-0.6945803761
1.08600,-0.08419156075
1.08650,-0.6945803761
1.08700,-3.136135638
1.08750,-5.577690899
1.08800,-8.019246161
1.08850,-11.37638465
1.08900,-14.73352313
1.08950,-15.64910635
1.09000,-13.20755109
1.09050,-10.46080142
1.09100,-9.850412607
1.09150,-10.15560701
1.09200,-8.629634976
1.09250,-6.188079715
1.09300,-4.967302084
1.09350,-6.188079715
1.09400,-8.324440569
1.09450,-9.240023792
1.09500,-9.240023792
1.09550,-8.934829384
1.09600,-8.629634976
1.09650,-8.324440569
1.09700,-8.324440569
1.09750,-8.019246161
1.09800,-7.714051753
1.09850,-7.103662938
1.09900,-6.188079715
1.09950,-4.051718861
1.10000,-1.610163599
1.10050,0.5261972547
1.10100,1.746974885
1.10150,2.357363701
1.10200,2.967752516
1.10250,3.578141332
1.10300,3.578141332
1.10350,2.662558109
1.10400,2.357363701
1.10450,2.662558109
1.10500,3.578141332
1.10550,3.272946924
1.10600,1.746974885
1.10650,0.221002847
1.10700,-0.08419156075
1.10750,-0.08419156075
1.10800,-0.08419156075
1.10850,-0.6945803761
1.10900,-0.6945803761
1.10950,-0.08419156075
1.11000,1.441780478
1.11050,2.357363701
1.11100,2.967752516
1.11150,5.10411337
1.11200,7.545668632
1.11250,6.935279816
1.11300,3.272946924
1.11350,-0.3893859684
1.11400,-1.915358007
1.11450,-1.915358007
1.11500,-1.610163599
1.11550,-1.915358007
1.11600,-2.525746822
1.11650,-4.051718861
1.11700,-7.103662938
1.11750,-11.68157905
1.11800,-15.64910635
1.11850,-18.70105043
1.11900,-20.22702247
1.11950,-19.61663365
1.12000,-16.86988398
1.12050,-14.42832872
1.12100,-12.90235668
1.12150,-11.37638465
1.12200,-8.629634976
1.12250,-6.493274122
1.12300,-5.882885307
1.12350,-6.79846853
1.12400,-6.79846853
1.12450,-4.967302084
1.12500,-2.83094123
1.12550,-0.6945803761
1.12600,1.13658607
1.12650,2.357363701
1.12700,2.357363701
1.12750,1.13658607
1.12800,-0.08419156075
1.12850,-0.08419156075
1.12900,0.221002847
1.12950,0.8313916624
1.13000,0.8313916624
1.13050,-0.08419156075
1.13100,-1.610163599
1.13150,-2.83094123
1.13200,-3.136135638
1.13250,-2.220552415
1.13300,-0.9997747838
1.13350,0.221002847
1.13400,1.746974885
1.13450,2.052169293
1.13500,0.8313916624
1.13550,-1.304969192
1.13600,-4.662107676
1.13650,-8.324440569
1.13700,-11.37638465
1.13750,-13.20755109
1.13800,-13.20755109
1.13850,-12.59716228
1.13900,-12.29196787
1.13950,-11.37638465
1.14000,-10.15560701
1.14050,-8.934829384
1.14100,-8.324440569
1.14150,-7.408857346
1.14200,-7.103662938
1.14250,-8.324440569
1.14300,-10.76599583
1.14350,-12.59716228
1.14400,-11.98677346
1.14450,-10.76599583
1.14500,-10.15560701
1.14550,-10.15560701
1.14600,-10.15560701
1.14650,-9.850412607
1.14700,-9.240023792
1.14750,-7.408857346
1.14800,-4.662107676
1.14850,-2.525746822
1.14900,-1.610163599
1.14950,-1.610163599
1.15000,-1.610163599
1.15050,-1.610163599
1.15100,-1.610163599
1.15150,-1.610163599
1.15200,-0.9997747838
1.15250,-0.08419156075
1.15300,1.441780478
1.15350,2.357363701
1.15400,2.662558109
1.15450,2.052169293
1.15500,1.746974885
1.15550,2.967752516
1.15600,4.188530147
1.15650,3.272946924
1.15700,0.5261972547
1.15750,-0.08419156075
1.15800,2.357363701
1.15850,6.324891001
1.15900,8.156057447
1.15950,7.240474224
1.16000,5.409307778
1.16050,3.578141332
1.16100,1.441780478
1.16150,-0.08419156075
1.16200,-0.6945803761
1.16250,-0.08419156075
1.16300,1.441780478
1.16350,3.272946924
1.16400,4.798918962
1.16450,4.493724555
1.16500,2.357363701
1.16550,0.5261972547
1.16600,0.8313916624
1.16650,2.662558109
1.16700,3.883335739
1.16750,4.493724555
1.16800,6.019696593
1.16850,7.545668632
1.16900,7.850863039
1.16950,6.019696593
1.17000,3.883335739
1.17050,3.578141332
1.17100,4.798918962
1.17150,6.019696593
1.17200,6.019696593
1.17250,5.409307778
1.17300,5.409307778
1.17350,5.714502186
1.17400,5.714502186
1.17450,5.409307778
1.17500,4.493724555
1.17550,3.272946924
1.17600,1.441780478
1.17650,-0.3893859684
1.17700,-1.304969192
1.17750,-0.08419156075
1.17800,2.662558109
1.17850,3.578141332
1.17900,2.052169293
1.17950,0.8313916624
1.18000,1.13658607
1.18050,2.967752516
1.18100,4.798918962
1.18150,6.019696593
1.18200,6.935279816
1.18250,6.630085409
1.18300,5.409307778
1.18350,5.10411337
1.18400,6.019696593
1.18450,6.630085409
1.18500,5.714502186
1.18550,3.883335739
1.18600,2.662558109
1.18650,2.662558109
1.18700,1.746974885
1.18750,-0.08419156075
1.18800,-1.304969192
1.18850,-1.304969192
1.18900,-0.6945803761
1.18950,-0.6945803761
1.19000,-1.304969192
1.19050,-1.915358007
1.19100,-0.6945803761
1.19150,1.13658607
1.19200,2.662558109
1.19250,3.578141332
1.19300,4.798918962
1.19350,6.324891001
1.19400,7.850863039
1.19450,6.935279816
1.19500,5.10411337
1.19550,3.578141332
1.19600,2.662558109
1.19650,1.441780478
1.19700,0.221002847
1.19750,0.221002847
1.19800,1.13658607
1.19850,1.746974885
1.19900,1.746974885
1.19950,2.357363701
1.20000,3.272946924
1.20050,3.578141332
1.20100,2.662558109
1.20150,2.357363701
1.20200,3.272946924
1.20250,3.883335739
1.20300,2.357363701
1.20350,-0.08419156075
1.20400,-0.6945803761
1.20450,-0.6945803761
1.20500,-0.9997747838
1.20550,-0.9997747838
1.20600,0.5261972547
1.20650,3.272946924
1.20700,4.493724555
1.20750,3.883335739
1.20800,2.662558109
1.20850,2.357363701
1.20900,2.052169293
1.20950,0.8313916624
1.21000,-1.610163599
1.21050,-4.356913269
1.21100,-6.493274122
1.21150,-7.714051753
1.21200,-7.714051753
1.21250,-7.714051753
1.21300,-7.103662938
1.21350,-6.188079715
1.21400,-5.272496492
1.21450,-4.967302084
1.21500,-5.882885307
1.21550,-5.882885307
1.21600,-4.051718861
1.21650,-1.304969192
1.21700,-0.08419156075
1.21750,-0.08419156075
1.21800,0.8313916624
1.21850,2.357363701
1.21900,3.578141332
1.21950,3.883335739
1.22000,3.883335739
1.22050,4.188530147
1.22100,4.493724555
1.22150,4.493724555
1.22200,5.10411337
1.22250,6.935279816
1.22300,9.07164067
1.22350,10.59761271
1.22400,10.90280712
1.22450,10.2924183
1.22500,9.682029486
1.22550,9.682029486
1.22600,9.682029486
1.22650,10.2924183
1.22700,12.42877916
1.22750,15.48072323
1.22800,17.31188968
1.22850,16.39630646
1.22900,13.95475119
1.22950,13.03916797
1.23000,14.87033442
1.23050,17.31188968
1.23100,18.2274729
1.23150,15.48072323
1.23200,11.20800152
1.23250,7.240474224
1.23300,6.019696593
1.23350,6.019696593
1.23400,5.714502186
1.23450,3.883335739
1.23500,1.746974885
1.23550,-0.08419156075
1.23600,-2.220552415
1.23650,-5.272496492
1.23700,-6.79846853
1.23750,-6.188079715
1.23800,-4.662107676
1.23850,-3.746524453
1.23900,-2.525746822
1.23950,-0.08419156075
1.24000,2.052169293
1.24050,1.746974885
1.24100,0.221002847
1.24150,-0.08419156075
1.24200,1.441780478
1.24250,2.662558109
1.24300,2.052169293
1.24350,1.746974885
1.24400,2.967752516
1.24450,3.578141332
1.24500,2.967752516
1.24550,2.357363701
1.24600,2.662558109
1.24650,2.662558109
1.24700,0.8313916624
1.24750,-1.915358007
1.24800,-3.441330045
1.24850,-2.83094123
1.24900,-1.610163599
1.24950,-1.915358007
1.25000,-3.441330045
1.25050,-4.662107676
1.25100,-6.188079715
1.25150,-8.629634976
1.25200,-11.68157905
1.25250,-15.03871754
1.25300,-18.39585602
1.25350,-21.75299451
1.25400,-23.27896655
1.25450,-22.36338332
1.25500,-19.92182806
1.25550,-17.78546721
1.25600,-15.64910635
1.25650,-12.90235668
1.25700,-9.850412607
1.25750,-8.934829384
1.25800,-10.46080142
1.25850,-11.98677346
1.25900,-11.68157905
1.25950,-9.850412607
1.26000,-8.324440569
1.26050,-6.493274122
1.26100,-4.051718861
1.26150,-2.525746822
1.26200,-2.220552415
1.26250,-1.304969192
1.26300,1.441780478
1.26350,3.883335739
1.26400,4.188530147
1.26450,3.578141332
1.26500,4.798918962
1.26550,6.935279816
1.26600,6.935279816
1.26650,6.324891001
1.26700,6.935279816
1.26750,8.156057447
1.26800,6.630085409
1.26850,2.967752516
1.26900,1.13658607
1.26950,1.746974885
1.27000,2.357363701
1.27050,0.5261972547
1.27100,-0.6945803761
1.27150,-0.08419156075
1.27200,0.221002847
1.27250,-0.3893859684
1.27300,-0.9997747838
1.27350,-0.08419156075
1.27400,1.746974885
1.27450,2.967752516
1.27500,2.967752516
1.27550,3.883335739
1.27600,4.798918962
1.27650,5.10411337
1.27700,4.798918962
1.27750,5.714502186
1.27800,7.545668632
1.27850,8.156057447
1.27900,6.935279816
1.27950,4.798918962
1.28000,2.967752516
1.28050,1.13658607
1.28100,0.5261972547
1.28150,1.441780478
1.28200,4.188530147
1.28250,6.324891001
1.28300,7.240474224
1.28350,7.545668632
1.28400,8.156057447
1.28450,7.850863039
1.28500,6.019696593
1.28550,5.714502186
1.28600,7.850863039
1.28650,10.59761271
1.28700,10.90280712
1.28750,9.376835078
1.28800,8.766446263
1.28850,9.682029486
1.28900,9.376835078
1.28950,6.630085409
1.29000,3.578141332
1.29050,2.662558109
1.29100,2.662558109
1.29150,2.357363701
1.29200,1.746974885
1.29250,1.13658607
1.29300,0.5261972547
1.29350,-0.6945803761
1.29400,-2.220552415
1.29450,-1.915358007
1.29500,-0.9997747838
1.29550,-0.9997747838
1.29600,-2.220552415
1.29650,-4.051718861
1.29700,-5.272496492
1.29750,-6.188079715
1.29800,-6.188079715
1.29850,-5.882885307
1.29900,-5.882885307
1.29950,-6.188079715
1.30000,-5.272496492
1.30050,-2.83094123
1.30100,0.221002847
1.30150,2.052169293
1.30200,1.746974885
1.30250,-0.08419156075
1.30300,-2.525746822
1.30350,-4.967302084
1.30400,-5.882885307
1.30450,-4.662107676
1.30500,-2.525746822
1.30550,-0.3893859684
1.30600,0.221002847
1.30650,0.8313916624
1.30700,1.13658607
1.30750,0.221002847
1.30800,-1.610163599
1.30850,-2.83094123
1.30900,-3.136135638
1.30950,-4.662107676
1.31000,-8.629634976
1.31050,-12.90235668
1.31100,-13.5127455
1.31150,-10.76599583
1.31200,-7.714051753
1.31250,-6.79846853
1.31300,-6.79846853
1.31350,-7.103662938
1.31400,-8.324440569
1.31450,-11.07119024
1.31500,-13.81793991
1.31550,-15.64910635
1.31600,-16.86988398
1.31650,-17.4802728
1.31700,-16.25949517
1.31750,-12.90235668
1.31800,-10.76599583
1.31850,-11.98677346
1.31900,-15.34391195
1.31950,-17.4802728
1.32000,-17.17507839
1.32050,-16.86988398
1.32100,-17.17507839
1.32150,-18.09066162
1.32200,-18.09066162
1.32250,-17.17507839
1.32300,-15.34391195
1.32350,-12.29196787
1.32400,-8.934829384
1.32450,-6.188079715
1.32500,-3.746524453
1.32550,-1.304969192
1.32600,0.5261972547
1.32650,1.441780478
1.32700,1.746974885
1.32750,2.052169293
1.32800,2.662558109
1.32850,3.578141332
1.32900,5.10411337
1.32950,6.630085409
1.33000,7.545668632
1.33050,7.240474224
1.33100,6.324891001
1.33150,5.714502186
1.33200,5.714502186
1.33250,5.409307778
1.33300,4.493724555
1.33350,3.883335739
1.33400,3.883335739
1.33450,3.578141332
1.33500,1.746974885
1.33550,-0.3893859684
1.33600,-0.9997747838
1.33650,0.5261972547
1.33700,3.883335739
1.33750,7.240474224
1.33800,10.2924183
1.33850,12.12358475
1.33900,13.03916797
1.33950,13.03916797
1.34000,12.73397356
1.34050,12.42877916
1.34100,11.81839034
1.34150,12.12358475
1.34200,14.56514001
1.34250,17.61708409
1.34300,18.53266731
1.34350,16.39630646
1.34400,13.03916797
1.34450,10.90280712
1.34500,8.766446263
1.34550,6.324891001
1.34600,5.10411337
1.34650,6.019696593
1.34700,7.545668632
1.34750,6.935279816
1.34800,4.493724555
1.34850,2.662558109
1.34900,0.221002847
1.34950,-4.967302084
1.35000,-12.59716228
1.35050,-19.00624484
1.35100,-21.4478001
1.35150,-21.4478001
1.35200,-20.83741128
1.35250,-18.70105043
1.35300,-16.25949517
1.35350,-15.64910635
1.35400,-16.56468958
1.35450,-17.17507839
1.35500,-15.95430076
1.35550,-13.81793991
1.35600,-11.37638465
1.35650,-8.324440569
1.35700,-4.967302084
1.35750,-3.441330045
1.35800,-4.051718861
1.35850,-4.051718861
1.35900,-1.915358007
1.35950,0.221002847
1.36000,1.746974885
1.36050,3.272946924
1.36100,6.324891001
1.36150,10.2924183
1.36200,13.03916797
1.36250,13.64955679
1.36300,13.64955679
1.36350,13.64955679
1.36400,14.56514001
1.36450,16.39630646
1.36500,19.14305612
1.36550,20.05863935
1.36600,17.61708409
1.36650,13.34436238
1.36700,9.987223893
1.36750,8.156057447
1.36800,7.240474224
1.36850,5.714502186
1.36900,3.883335739
1.36950,1.441780478
1.37000,-0.9997747838
1.37050,-2.525746822
1.37100,-2.525746822
1.37150,-2.525746822
1.37200,-4.662107676
1.37250,-8.019246161
1.37300,-9.545218199
1.37350,-8.324440569
1.37400,-6.188079715
1.37450,-4.662107676
1.37500,-4.662107676
1.37550,-5.882885307
1.37600,-8.324440569
1.37650,-11.68157905
1.37700,-13.81793991
1.37750,-13.20755109
1.37800,-10.15560701
1.37850,-6.79846853
1.37900,-5.882885307
1.37950,-7.408857346
1.38000,-8.934829384
1.38050,-7.714051753
1.38100,-4.967302084
1.38150,-4.051718861
1.38200,-5.272496492
1.38250,-5.882885307
1.38300,-3.441330045
1.38350,-0.08419156075
1.38400,0.5261972547
1.38450,-1.915358007
1.38500,-4.356913269
1.38550,-4.662107676
1.38600,-3.441330045
1.38650,-3.136135638
1.38700,-3.746524453
1.38750,-4.662107676
1.38800,-4.967302084
1.38850,-3.746524453
1.38900,-0.6945803761
1.38950,3.272946924
1.39000,6.324891001
1.39050,5.714502186
1.39100,4.188530147
1.39150,4.188530147
1.39200,5.409307778
1.39250,5.714502186
1.39300,4.493724555
1.39350,4.798918962
1.39400,6.630085409
1.39450,8.461251855
1.39500,9.07164067
1.39550,8.461251855
1.39600,7.240474224
1.39650,5.714502186
1.39700,4.493724555
1.39750,5.714502186
1.39800,7.850863039
1.39850,8.766446263
1.39900,8.156057447
1.39950,7.545668632
1.40000,8.156057447
1.40050,7.240474224
1.40100,4.188530147
1.40150,1.13658607
1.40200,0.5261972547
1.40250,1.441780478
1.40300,2.052169293
1.40350,1.13658607
1.40400,0.8313916624
1.40450,1.13658607
1.40500,1.746974885
1.40550,2.967752516
1.40600,3.883335739
1.40650,2.662558109
1.40700,-0.6945803761
1.40750,-5.272496492
1.40800,-8.934829384
1.40850,-11.98677346
1.40900,-15.03871754
1.40950,-17.78546721
1.41000,-18.39585602
1.41050,-17.17507839
1.41100,-15.64910635
1.41150,-14.42832872
1.41200,-13.81793991
1.41250,-12.29196787
1.41300,-9.240023792
1.41350,-5.272496492
1.41400,-1.915358007
1.41450,-0.9997747838
1.41500,-0.6945803761
1.41550,1.441780478
1.41600,5.10411337
1.41650,7.850863039
1.41700,8.156057447
1.41750,8.461251855
1.41800,9.376835078
1.41850,9.07164067
1.41900,7.240474224
1.41950,6.324891001
1.42000,7.850863039
1.42050,9.987223893
1.42100,10.2924183
1.42150,9.07164067
1.42200,8.766446263
1.42250,10.2924183
1.42300,12.42877916
1.42350,13.95475119
1.42400,14.87033442
1.42450,14.56514001
1.42500,12.73397356
1.42550,10.59761271
1.42600,8.156057447
1.42650,5.409307778
1.42700,2.662558109
1.42750,1.13658607
1.42800,1.13658607
1.42850,-0.08419156075
1.42900,-3.441330045
1.42950,-8.629634976
1.43000,-12.59716228
1.43050,-14.73352313
1.43100,-15.34391195
1.43150,-15.03871754
1.43200,-12.90235668
1.43250,-9.545218199
1.43300,-6.79846853
1.43350,-5.577690899
1.43400,-5.882885307
1.43450,-6.493274122
1.43500,-5.882885307
1.43550,-3.746524453
1.43600,-1.304969192
1.43650,-0.08419156075
1.43700,0.221002847
1.43750,1.13658607
1.43800,1.441780478
1.43850,1.746974885
1.43900,1.746974885
1.43950,1.746974885
1.44000,1.13658607
1.44050,-0.08419156075
1.44100,0.221002847
1.44150,2.052169293
1.44200,4.188530147
1.44250,3.578141332
1.44300,1.13658607
1.44350,-0.9997747838
1.44400,-1.915358007
1.44450,-2.220552415
1.44500,-2.220552415
1.44550,-2.83094123
1.44600,-3.441330045
1.44650,-3.746524453
1.44700,-3.441330045
1.44750,-3.136135638
1.44800,-3.136135638
1.44850,-3.746524453
1.44900,-3.746524453
1.44950,-3.136135638
1.45000,-2.525746822
1.45050,-2.83094123
1.45100,-3.746524453
1.45150,-4.051718861
1.45200,-3.441330045
1.45250,-2.83094123
1.45300,-1.610163599
1.45350,0.221002847
1.45400,2.052169293
1.45450,2.052169293
1.45500,1.441780478
1.45550,1.746974885
1.45600,3.578141332
1.45650,6.019696593
1.45700,6.630085409
1.45750,4.798918962
1.45800,1.441780478
1.45850,-0.6945803761
1.45900,-0.3893859684
1.45950,0.5261972547
1.46000,1.441780478
1.46050,1.441780478
1.46100,1.441780478
1.46150,1.13658607
1.46200,0.221002847
1.46250,-0.6945803761
1.46300,-0.9997747838
1.46350,-0.08419156075
1.46400,0.221002847
1.46450,-0.08419156075
1.46500,0.221002847
1.46550,1.746974885
1.46600,2.967752516
1.46650,2.662558109
1.46700,1.746974885
1.46750,2.357363701
1.46800,4.493724555
1.46850,5.409307778
1.46900,4.188530147
1.46950,2.662558109
1.47000,1.746974885
1.47050,2.052169293
1.47100,2.967752516
1.47150,4.798918962
1.47200,5.714502186
1.47250,5.10411337
1.47300,3.272946924
1.47350,1.746974885
1.47400,1.441780478
1.47450,1.746974885
1.47500,2.357363701
1.47550,3.272946924
1.47600,3.883335739
1.47650,3.883335739
1.47700,3.272946924
1.47750,3.578141332
1.47800,4.798918962
1.47850,6.019696593
1.47900,6.630085409
1.47950,6.630085409
1.48000,6.935279816
1.48050,8.156057447
1.48100,9.376835078
1.48150,9.376835078
1.48200,7.850863039
1.48250,6.019696593
1.48300,5.714502186
1.48350,5.714502186
1.48400,3.883335739
1.48450,-1.304969192
1.48500,-8.324440569
1.48550,-13.81793991
1.48600,-15.95430076
1.48650,-16.25949517
1.48700,-15.95430076
1.48750,-15.95430076
1.48800,-15.34391195
1.48850,-12.90235668
1.48900,-8.934829384
1.48950,-4.967302084
1.49000,-2.220552415
1.49050,-0.9997747838
1.49100,-0.6945803761
1.49150,-1.304969192
1.49200,-1.915358007
1.49250,-2.220552415
1.49300,-1.304969192
1.49350,-0.3893859684
1.49400,-0.08419156075
1.49450,0.5261972547
1.49500,1.746974885
1.49550,2.052169293
1.49600,0.8313916624
1.49650,-0.08419156075
1.49700,-0.08419156075
1.49750,0.8313916624
1.49800,-0.08419156075
1.49850,-1.610163599
1.49900,-1.610163599
1.49950,0.5261972547
1.50000,2.052169293
1.50050,1.441780478
1.50100,0.5261972547
1.50150,0.8313916624
1.50200,0.8313916624
1.50250,-0.08419156075
1.50300,-1.610163599
1.50350,-2.525746822
1.50400,-3.136135638
1.50450,-4.356913269
1.50500,-5.577690899
1.50550,-6.493274122
1.50600,-6.79846853
1.50650,-7.103662938
1.50700,-6.79846853
1.50750,-5.272496492
1.50800,-2.525746822
1.50850,0.8313916624
1.50900,4.493724555
1.50950,7.545668632
1.51000,9.07164067
1.51050,9.07164067
1.51100,8.766446263
1.51150,8.766446263
1.51200,8.461251855
1.51250,8.156057447
1.51300,7.545668632
1.51350,5.714502186
1.51400,2.967752516
1.51450,1.441780478
1.51500,2.662558109
1.51550,5.409307778
1.51600,6.019696593
1.51650,4.798918962
1.51700,3.883335739
1.51750,4.798918962
1.51800,6.019696593
1.51850,5.409307778
1.51900,3.883335739
1.51950,2.357363701
1.52000,1.441780478
1.52050,1.13658607
1.52100,1.441780478
1.52150,1.746974885
1.52200,2.052169293
1.52250,1.746974885
1.52300,0.8313916624
1.52350,-0.6945803761
1.52400,-3.746524453
1.52450,-6.493274122
1.52500,-5.272496492
1.52550,-0.6945803761
1.52600,2.967752516
1.52650,3.272946924
1.52700,1.441780478
1.52750,2.052169293
1.52800,4.798918962
1.52850,6.935279816
1.52900,7.240474224
1.52950,7.850863039
1.53000,9.376835078
1.53050,8.156057447
1.53100,4.188530147
1.53150,0.5261972547
1.53200,0.8313916624
1.53250,3.272946924
1.53300,6.019696593
1.53350,7.545668632
1.53400,7.850863039
1.53450,5.714502186
1.53500,2.357363701
1.53550,0.5261972547
1.53600,2.052169293
1.53650,5.10411337
1.53700,6.935279816
1.53750,7.850863039
1.53800,8.461251855
1.53850,8.461251855
1.53900,6.630085409
1.53950,5.409307778
1.54000,5.409307778
1.54050,6.019696593
1.54100,5.10411337
1.54150,2.967752516
1.54200,1.13658607
1.54250,-0.08419156075
1.54300,-2.220552415
1.54350,-4.051718861
1.54400,-5.882885307
1.54450,-8.019246161
1.54500,-10.15560701
1.54550,-10.46080142
1.54600,-7.714051753
1.54650,-4.662107676
1.54700,-3.746524453
1.54750,-4.662107676
1.54800,-4.967302084
1.54850,-3.746524453
1.54900,-1.915358007
1.54950,-0.3893859684
1.55000,0.8313916624
1.55050,1.13658607
1.55100,0.8313916624
1.55150,0.8313916624
1.55200,1.441780478
1.55250,0.8313916624
1.55300,-1.915358007
1.55350,-5.272496492
1.55400,-8.324440569
1.55450,-11.98677346
1.55500,-15.34391195
1.55550,-16.56468958
1.55600,-14.73352313
1.55650,-12.90235668
1.55700,-13.5127455
1.55750,-14.42832872
1.55800,-13.5127455
1.55850,-12.90235668
1.55900,-14.42832872
1.55950,-16.56468958
1.56000,-16.86988398
1.56050,-15.03871754
1.56100,-14.12313432
1.56150,-13.5127455
1.56200,-11.98677346
1.56250,-9.850412607
1.56300,-9.545218199
1.56350,-11.37638465
1.56400,-11.98677346
1.56450,-8.934829384
1.56500,-3.746524453
1.56550,0.8313916624
1.56600,4.188530147
1.56650,6.019696593
1.56700,5.714502186
1.56750,4.188530147
1.56800,2.967752516
1.56850,3.578141332
1.56900,6.630085409
1.56950,11.51319593
1.57000,16.39630646
1.57050,20.66902816
1.57100,23.72097224
1.57150,25.85733309
1.57200,27.68849954
1.57250,26.77291632
1.57300,21.58461139
1.57350,11.51319593
1.57400,-0.08419156075
1.57450,-8.934829384
1.57500,-12.29196787
1.57550,-11.37638465
1.57600,-10.15560701
1.57650,-11.37638465
1.57700,-12.29196787
1.57750,-9.240023792
1.57800,-2.220552415
1.57850,3.883335739
1.57900,7.545668632
1.57950,9.682029486
1.58000,11.81839034
1.58050,13.34436238
1.58100,12.73397356
1.58150,9.987223893
1.58200,7.545668632
1.58250,6.324891001
1.58300,5.409307778
1.58350,3.578141332
1.58400,1.441780478
1.58450,-0.9997747838
1.58500,-3.746524453
1.58550,-6.493274122
1.58600,-8.324440569
1.58650,-9.545218199
1.58700,-10.46080142
1.58750,-10.76599583
1.58800,-9.545218199
1.58850,-7.408857346
1.58900,-7.103662938
1.58950,-9.850412607
1.59000,-12.29196787
1.59050,-11.98677346
1.59100,-9.240023792
1.59150,-7.714051753
1.59200,-8.324440569
1.59250,-9.545218199
1.59300,-9.545218199
1.59350,-8.629634976
1.59400,-8.324440569
1.59450,-7.408857346
1.59500,-5.577690899
1.59550,-4.051718861
1.59600,-3.441330045
1.59650,-1.915358007
1.59700,0.8313916624
1.59750,2.967752516
1.59800,2.662558109
1.59850,3.883335739
1.59900,9.376835078
1.59950,14.56514001
1.60000,12.12358475
1.60050,3.578141332
1.60100,-1.304969192
1.60150,1.13658607
1.60200,6.019696593
1.60250,6.324891001
1.60300,2.662558109
1.60350,0.221002847
1.60400,-0.08419156075
1.60450,-0.9997747838
1.60500,-3.746524453
1.60550,-5.882885307
1.60600,-7.408857346
1.60650,-8.934829384
1.60700,-9.545218199
1.60750,-6.188079715
1.60800,0.5261972547
1.60850,6.935279816
1.60900,11.20800152
1.60950,15.17552882
1.61000,20.66902816
1.61050,25.85733309
1.61100,28.90927717
1.61150,30.1300548
1.61200,31.35083243
1.61250,30.43524921
1.61300,26.46772191
1.61350,20.66902816
1.61400,16.39630646
1.61450,14.87033442
1.61500,14.87033442
1.61550,14.2599456
1.61600,12.73397356
1.61650,10.90280712
1.61700,9.682029486
1.61750,7.240474224
1.61800,2.967752516
1.61850,-1.915358007
1.61900,-5.577690899
1.61950,-6.188079715
1.62000,-6.188079715
1.62050,-7.103662938
1.62100,-8.629634976
1.62150,-8.324440569
1.62200,-6.493274122
1.62250,-5.577690899
1.62300,-6.79846853
1.62350,-8.934829384
1.62400,-11.37638465
1.62450,-13.5127455
1.62500,-14.42832872
1.62550,-13.81793991
1.62600,-11.37638465
1.62650,-8.934829384
1.62700,-7.103662938
1.62750,-5.882885307
1.62800,-6.188079715
1.62850,-8.019246161
1.62900,-10.76599583
1.62950,-12.29196787
1.63000,-11.37638465
1.63050,-8.019246161
1.63100,-3.746524453
1.63150,-0.08419156075
1.63200,2.357363701
1.63250,4.188530147
1.63300,5.714502186
1.63350,7.240474224
1.63400,6.935279816
1.63450,5.10411337
1.63500,3.883335739
1.63550,4.493724555
1.63600,6.324891001
1.63650,7.545668632
1.63700,7.240474224
1.63750,5.10411337
1.63800,1.746974885
1.63850,-0.9997747838
1.63900,-3.136135638
1.63950,-4.051718861
1.64000,-4.356913269
1.64050,-4.051718861
1.64100,-0.9997747838
1.64150,3.578141332
1.64200,7.240474224
1.64250,7.850863039
1.64300,6.019696593
1.64350,4.798918962
1.64400,4.798918962
1.64450,3.883335739
1.64500,1.13658607
1.64550,-1.915358007
1.64600,-3.441330045
1.64650,-3.136135638
1.64700,-2.525746822
1.64750,-3.441330045
1.64800,-5.272496492
1.64850,-6.493274122
1.64900,-5.577690899
1.64950,-3.746524453
1.65000,-1.610163599
1.65050,-0.3893859684
1.65100,-0.08419156075
1.65150,-0.6945803761
1.65200,-0.9997747838
1.65250,-0.3893859684
1.65300,0.8313916624
1.65350,1.13658607
1.65400,-0.08419156075
1.65450,-1.304969192
1.65500,-1.610163599
1.65550,-0.08419156075
1.65600,2.662558109
1.65650,5.714502186
1.65700,7.545668632
1.65750,6.630085409
1.65800,3.272946924
1.65850,-0.08419156075
1.65900,-2.220552415
1.65950,-3.136135638
1.66000,-3.746524453
1.66050,-3.136135638
1.66100,-1.304969192
1.66150,-0.6945803761
1.66200,-3.441330045
1.66250,-8.324440569
1.66300,-11.68157905
1.66350,-13.20755109
1.66400,-15.03871754
1.66450,-17.78546721
1.66500,-19.61663365
1.66550,-18.39585602
1.66600,-16.25949517
1.66650,-15.34391195
1.66700,-15.64910635
1.66750,-17.78546721
1.66800,-20.53221688
1.66850,-23.27896655
1.66900,-25.4153274
1.66950,-25.4153274
1.67000,-23.27896655
1.67050,-19.31143925
1.67100,-13.5127455
1.67150,-7.408857346
1.67200,-2.525746822
1.67250,0.8313916624
1.67300,4.798918962
1.67350,7.545668632
1.67400,7.240474224
1.67450,3.883335739
1.67500,0.5261972547
1.67550,-0.08419156075
1.67600,2.052169293
1.67650,4.798918962
1.67700,6.630085409
1.67750,7.545668632
1.67800,8.156057447
1.67850,7.850863039
1.67900,7.545668632
1.67950,6.324891001
1.68000,5.10411337
1.68050,3.883335739
1.68100,3.578141332
1.68150,4.188530147
1.68200,4.798918962
1.68250,5.10411337
1.68300,5.714502186
1.68350,5.10411337
1.68400,1.441780478
1.68450,-4.662107676
1.68500,-10.15560701
1.68550,-12.29196787
1.68600,-11.37638465
1.68650,-9.850412607
1.68700,-8.934829384
1.68750,-8.629634976
1.68800,-9.850412607
1.68850,-13.20755109
1.68900,-16.56468958
1.68950,-15.34391195
1.69000,-8.934829384
1.69050,-0.3893859684
1.69100,5.714502186
1.69150,9.07164067
1.69200,10.90280712
1.69250,12.12358475
1.69300,13.64955679
1.69350,15.17552882
1.69400,15.78591764
1.69450,14.87033442
1.69500,13.03916797
1.69550,13.03916797
1.69600,14.56514001
1.69650,15.78591764
1.69700,14.56514001
1.69750,11.81839034
1.69800,8.766446263
1.69850,5.714502186
1.69900,2.967752516
1.69950,2.052169293
1.70000,2.662558109
1.70050,3.578141332
1.70100,3.272946924
1.70150,0.8313916624
1.70200,-2.220552415
1.70250,-6.493274122
1.70300,-10.15560701
1.70350,-10.76599583
1.70400,-8.934829384
1.70450,-7.408857346
1.70500,-8.324440569
1.70550,-9.545218199
1.70600,-9.545218199
1.70650,-8.629634976
1.70700,-8.629634976
1.70750,-8.934829384
1.70800,-8.324440569
1.70850,-5.882885307
1.70900,-3.136135638
1.70950,-1.610163599
1.71000,-1.915358007
1.71050,-3.441330045
1.71100,-5.882885307
1.71150,-8.324440569
1.71200,-9.850412607
1.71250,-11.68157905
1.71300,-12.59716228
1.71350,-10.76599583
1.71400,-6.188079715
1.71450,-2.220552415
1.71500,-1.610163599
1.71550,-3.746524453
1.71600,-5.882885307
1.71650,-6.493274122
1.71700,-6.188079715
1.71750,-6.79846853
1.71800,-8.019246161
1.71850,-9.545218199
1.71900,-9.545218199
1.71950,-8.629634976
1.72000,-7.103662938
1.72050,-4.967302084
1.72100,-2.220552415
1.72150,0.8313916624
1.72200,2.662558109
1.72250,2.357363701
1.72300,0.5261972547
1.72350,0.221002847
1.72400,1.746974885
1.72450,3.578141332
1.72500,5.10411337
1.72550,6.019696593
1.72600,7.545668632
1.72650,9.07164067
1.72700,10.59761271
1.72750,12.73397356
1.72800,14.87033442
1.72850,16.39630646
1.72900,17.61708409
1.72950,18.2274729
1.73000,18.53266731
1.73050,17.61708409
1.73100,16.09111205
1.73150,14.2599456
1.73200,13.34436238
1.73250,14.2599456
1.73300,15.78591764
1.73350,15.48072323
1.73400,12.42877916
1.73450,9.682029486
1.73500,10.2924183
1.73550,12.42877916
1.73600,12.73397356
1.73650,10.59761271
1.73700,9.682029486
1.73750,10.90280712
1.73800,10.90280712
1.73850,6.630085409
1.73900,0.5261972547
1.73950,-2.83094123
1.74000,-4.967302084
1.74050,-7.103662938
1.74100,-8.324440569
1.74150,-5.577690899
1.74200,-0.08419156075
1.74250,3.883335739
1.74300,2.662558109
1.74350,-0.9997747838
1.74400,-3.746524453
1.74450,-3.746524453
1.74500,-0.6945803761
1.74550,4.188530147
1.74600,10.2924183
1.74650,14.87033442
1.74700,16.09111205
1.74750,14.2599456
1.74800,12.12358475
1.74850,10.90280712
1.74900,9.376835078
1.74950,6.324891001
1.75000,2.662558109
1.75050,-0.9997747838
1.75100,-4.662107676
1.75150,-8.934829384
1.75200,-14.12313432
1.75250,-19.61663365
1.75300,-24.80493858
1.75350,-29.99324352
1.75400,-33.04518759
1.75450,-32.73999318
1.75500,-28.46727148
1.75550,-22.36338332
1.75600,-16.86988398
1.75650,-11.98677346
1.75700,-7.103662938
1.75750,-1.610163599
1.75800,4.188530147
1.75850,9.376835078
1.75900,11.81839034
1.75950,11.51319593
1.76000,10.90280712
1.76050,10.59761271
1.76100,9.682029486
1.76150,7.545668632
1.76200,5.409307778
1.76250,4.798918962
1.76300,6.324891001
1.76350,8.461251855
1.76400,9.376835078
1.76450,9.987223893
1.76500,10.2924183
1.76550,9.376835078
1.76600,6.324891001
1.76650,2.357363701
1.76700,-1.304969192
1.76750,-3.136135638
1.76800,-2.525746822
1.76850,-1.610163599
1.76900,-2.220552415
1.76950,-4.967302084
1.77000,-8.019246161
1.77050,-8.019246161
1.77100,-4.967302084
1.77150,-1.915358007
1.77200,-1.610163599
1.77250,-1.915358007
1.77300,-0.6945803761
1.77350,2.052169293
1.77400,4.188530147
1.77450,4.188530147
1.77500,3.578141332
1.77550,3.883335739
1.77600,4.493724555
1.77650,3.883335739
1.77700,3.272946924
1.77750,2.967752516
1.77800,2.967752516
1.77850,0.8313916624
1.77900,-2.220552415
1.77950,-4.662107676
1.78000,-4.662107676
1.78050,-2.83094123
1.78100,-0.6945803761
1.78150,0.8313916624
1.78200,2.662558109
1.78250,4.188530147
1.78300,5.409307778
1.78350,6.630085409
1.78400,8.156057447
1.78450,9.376835078
1.78500,10.59761271
1.78550,11.20800152
1.78600,9.987223893
1.78650,7.545668632
1.78700,4.493724555
1.78750,1.441780478
1.78800,-1.304969192
1.78850,-4.356913269
1.78900,-7.103662938
1.78950,-8.629634976
1.79000,-9.545218199
1.79050,-12.59716228
1.79100,-16.86988398
1.79150,-19.61663365
1.79200,-18.70105043
1.79250,-15.95430076
1.79300,-15.34391195
1.79350,-17.78546721
1.79400,-21.14260569
1.79450,-22.66857773
1.79500,-21.75299451
1.79550,-19.61663365
1.79600,-18.39585602
1.79650,-19.00624484
1.79700,-19.61663365
1.79750,-18.39585602
1.79800,-15.34391195
1.79850,-11.98677346
1.79900,-10.15560701
1.79950,-8.934829384
1.80000,-7.714051753
1.80050,-6.493274122
1.80100,-5.882885307
1.80150,-5.882885307
1.80200,-5.272496492
1.80250,-3.441330045
1.80300,0.221002847
1.80350,5.714502186
1.80400,10.2924183
1.80450,12.42877916
1.80500,12.42877916
1.80550,12.12358475
1.80600,12.42877916
1.80650,13.64955679
1.80700,15.48072323
1.80750,16.70150086
1.80800,16.09111205
1.80850,13.34436238
1.80900,11.20800152
1.80950,11.51319593
1.81000,13.34436238
1.81050,14.56514001
1.81100,14.87033442
1.81150,15.78591764
1.81200,17.61708409
1.81250,20.05863935
1.81300,22.50019461
1.81350,23.41577783
1.81400,20.97422257
1.81450,15.17552882
1.81500,9.07164067
1.81550,5.10411337
1.81600,1.441780478
1.81650,-3.441330045
1.81700,-8.019246161
1.81750,-9.545218199
1.81800,-8.324440569
1.81850,-8.019246161
1.81900,-9.240023792
1.81950,-10.46080142
1.82000,-11.07119024
1.82050,-11.68157905
1.82100,-10.15560701
1.82150,-4.967302084
1.82200,1.441780478
1.82250,5.10411337
1.82300,4.798918962
1.82350,2.662558109
1.82400,-0.08419156075
1.82450,-3.136135638
1.82500,-5.577690899
1.82550,-5.577690899
1.82600,-4.051718861
1.82650,-4.967302084
1.82700,-9.240023792
1.82750,-14.42832872
1.82800,-19.00624484
1.82850,-22.36338332
1.82900,-23.58416095
1.82950,-20.83741128
1.83000,-15.03871754
1.83050,-9.850412607
1.83100,-8.019246161
1.83150,-8.019246161
1.83200,-7.714051753
1.83250,-5.577690899
1.83300,-1.915358007
1.83350,1.746974885
1.83400,3.883335739
1.83450,2.357363701
1.83500,-0.08419156075
1.83550,-0.3893859684
1.83600,1.441780478
1.83650,5.10411337
1.83700,8.156057447
1.83750,10.90280712
1.83800,12.12358475
1.83850,10.59761271
1.83900,9.07164067
1.83950,8.766446263
1.84000,9.07164067
1.84050,7.545668632
1.84100,6.019696593
1.84150,7.850863039
1.84200,12.12358475
1.84250,13.95475119
1.84300,10.59761271
1.84350,6.019696593
1.84400,4.493724555
1.84450,5.714502186
1.84500,5.714502186
1.84550,3.883335739
1.84600,2.052169293
1.84650,1.13658607
1.84700,0.8313916624
1.84750,-0.08419156075
1.84800,-2.220552415
1.84850,-4.356913269
1.84900,-6.79846853
1.84950,-8.324440569
1.85000,-8.019246161
1.85050,-4.967302084
1.85100,-1.304969192
1.85150,0.8313916624
1.85200,2.052169293
1.85250,3.883335739
1.85300,7.850863039
1.85350,11.51319593
1.85400,12.12358475
1.85450,10.2924183
1.85500,10.90280712
1.85550,14.87033442
1.85600,17.92227849
1.85650,15.48072323
1.85700,9.07164067
1.85750,3.883335739
1.85800,2.052169293
1.85850,1.13658607
1.85900,-1.304969192
1.85950,-4.051718861
1.86000,-5.577690899
1.86050,-6.79846853
1.86100,-8.934829384
1.86150,-10.76599583
1.86200,-10.46080142
1.86250,-9.240023792
1.86300,-8.019246161
1.86350,-5.272496492
1.86400,-0.08419156075
1.86450,2.967752516
1.86500,0.5261972547
1.86550,-6.188079715
1.86600,-10.15560701
1.86650,-8.019246161
1.86700,-2.220552415
1.86750,2.357363701
1.86800,4.188530147
1.86850,3.272946924
1.86900,-0.3893859684
1.86950,-6.79846853
1.87000,-11.98677346
1.87050,-11.68157905
1.87100,-5.577690899
1.87150,1.13658607
1.87200,4.188530147
1.87250,2.967752516
1.87300,-0.08419156075
1.87350,-1.915358007
1.87400,-2.525746822
1.87450,-3.746524453
1.87500,-5.882885307
1.87550,-8.019246161
1.87600,-9.545218199
1.87650,-10.46080142
1.87700,-10.76599583
1.87750,-9.850412607
1.87800,-8.934829384
1.87850,-9.545218199
1.87900,-11.98677346
1.87950,-14.42832872
1.88000,-15.03871754
1.88050,-15.03871754
1.88100,-14.73352313
1.88150,-13.81793991
1.88200,-12.59716228
1.88250,-12.90235668
1.88300,-14.12313432
1.88350,-13.20755109
1.88400,-8.324440569
1.88450,-0.9997747838
1.88500,3.883335739
1.88550,5.10411337
1.88600,4.798918962
1.88650,4.188530147
1.88700,3.272946924
1.88750,2.967752516
1.88800,3.883335739
1.88850,6.324891001
1.88900,9.07164067
1.88950,10.2924183
1.89000,10.2924183
1.89050,9.682029486
1.89100,9.07164067
1.89150,7.850863039
1.89200,6.324891001
1.89250,5.714502186
1.89300,5.714502186
1.89350,6.324891001
1.89400,7.240474224
1.89450,8.156057447
1.89500,8.766446263
1.89550,7.850863039
1.89600,6.019696593
1.89650,5.714502186
1.89700,9.07164067
1.89750,15.48072323
1.89800,19.75344494
1.89850,19.14305612
1.89900,16.39630646
1.89950,14.87033442
1.90000,14.56514001
1.90050,12.12358475
1.90100,7.545668632
1.90150,3.272946924
1.90200,1.13658607
1.90250,-0.08419156075
1.90300,-0.08419156075
1.90350,1.746974885
1.90400,3.883335739
1.90450,3.578141332
1.90500,0.5261972547
1.90550,-2.525746822
1.90600,-4.356913269
1.90650,-4.967302084
1.90700,-5.577690899
1.90750,-4.967302084
1.90800,-1.915358007
1.90850,1.746974885
1.90900,4.493724555
1.90950,4.493724555
1.91000,1.746974885
1.91050,-0.08419156075
1.91100,-0.3893859684
1.91150,0.8313916624
1.91200,1.13658607
1.91250,-0.9997747838
1.91300,-3.441330045
1.91350,-3.136135638
1.91400,-0.08419156075
1.91450,4.493724555
1.91500,7.545668632
1.91550,8.766446263
1.91600,8.156057447
1.91650,6.324891001
1.91700,5.714502186
1.91750,7.240474224
1.91800,9.682029486
1.91850,10.2924183
1.91900,9.07164067
1.91950,7.240474224
1.92000,5.714502186
1.92050,3.883335739
1.92100,2.967752516
1.92150,4.798918962
1.92200,7.545668632
1.92250,8.766446263
1.92300,7.545668632
1.92350,6.630085409
1.92400,6.935279816
1.92450,6.019696593
1.92500,2.662558109
1.92550,-2.220552415
1.92600,-7.714051753
1.92650,-10.76599583
1.92700,-10.15560701
1.92750,-6.188079715
1.92800,-2.83094123
1.92850,-3.441330045
1.92900,-7.408857346
1.92950,-9.545218199
1.93000,-7.103662938
1.93050,-2.220552415
1.93100,1.13658607
1.93150,2.662558109
1.93200,3.272946924
1.93250,3.578141332
1.93300,2.357363701
1.93350,-0.08419156075
1.93400,-2.220552415
1.93450,-4.356913269
1.93500,-8.019246161
1.93550,-13.5127455
1.93600,-18.70105043
1.93650,-21.14260569
1.93700,-19.92182806
1.93750,-16.86988398
1.93800,-14.12313432
1.93850,-11.98677346
1.93900,-9.545218199
1.93950,-6.493274122
1.94000,-4.356913269
1.94050,-3.746524453
1.94100,-4.051718861
1.94150,-3.441330045
1.94200,-1.610163599
1.94250,0.5261972547
1.94300,2.357363701
1.94350,3.578141332
1.94400,4.188530147
1.94450,4.493724555
1.94500,3.578141332
1.94550,1.441780478
1.94600,-1.610163599
1.94650,-4.356913269
1.94700,-5.882885307
1.94750,-5.882885307
1.94800,-5.577690899
1.94850,-5.272496492
1.94900,-4.967302084
1.94950,-4.967302084
1.95000,-4.662107676
1.95050,-4.051718861
1.95100,-3.441330045
1.95150,-0.9997747838
1.95200,4.493724555
1.95250,13.03916797
1.95300,20.66902816
1.95350,22.80538902
1.95400,19.44825053
1.95450,14.87033442
1.95500,12.12358475
1.95550,9.987223893
1.95600,5.714502186
1.95650,0.5261972547
1.95700,-2.525746822
1.95750,-4.356913269
1.95800,-6.188079715
1.95850,-7.408857346
1.95900,-6.79846853
1.95950,-4.356913269
1.96000,-2.525746822
1.96050,-2.220552415
1.96100,-0.6945803761
1.96150,2.052169293
1.96200,4.493724555
1.96250,5.409307778
1.96300,5.714502186
1.96350,5.10411337
1.96400,1.13658607
1.96450,-4.662107676
1.96500,-8.629634976
1.96550,-7.103662938
1.96600,-1.915358007
1.96650,2.967752516
1.96700,6.324891001
1.96750,7.850863039
1.96800,6.935279816
1.96850,4.188530147
1.96900,2.052169293
1.96950,1.441780478
1.97000,0.221002847
1.97050,-3.136135638
1.97100,-7.408857346
1.97150,-9.850412607
1.97200,-10.76599583
1.97250,-13.5127455
1.97300,-18.09066162
1.97350,-20.83741128
1.97400,-19.31143925
1.97450,-15.34391195
1.97500,-12.90235668
1.97550,-13.5127455
1.97600,-13.5127455
1.97650,-10.15560701
1.97700,-5.272496492
1.97750,-3.136135638
1.97800,-5.272496492
1.97850,-8.019246161
1.97900,-6.493274122
1.97950,-0.08419156075
1.98000,8.156057447
1.98050,13.03916797
1.98100,14.2599456
1.98150,13.64955679
1.98200,13.95475119
1.98250,15.48072323
1.98300,17.00669527
1.98350,17.92227849
1.98400,17.92227849
1.98450,17.31188968
1.98500,16.09111205
1.98550,13.95475119
1.98600,12.12358475
1.98650,10.59761271
1.98700,8.766446263
1.98750,5.409307778
1.98800,0.8313916624
1.98850,-2.83094123
1.98900,-4.967302084
1.98950,-4.662107676
1.99000,-4.051718861
1.99050,-4.051718861
1.99100,-4.967302084
1.99150,-4.662107676
1.99200,-3.746524453
1.99250,-3.746524453
1.99300,-6.188079715
1.99350,-9.240023792
1.99400,-8.629634976
1.99450,-4.356913269
1.99500,-0.08419156075
1.99550,1.13658607
1.99600,0.221002847
1.99650,-0.08419156075
1.99700,0.221002847
1.99750,0.221002847
1.99800,-0.08419156075
1.99850,-1.610163599
1.99900,-4.051718861
1.99950,-7.103662938
2.00000,-7.714051753
2.00050,-4.662107676
2.00100,-0.08419156075
2.00150,2.662558109
2.00200,4.188530147
2.00250,5.714502186
2.00300,7.240474224
2.00350,6.324891001
2.00400,3.272946924
2.00450,0.5261972547
2.00500,-0.3893859684
2.00550,-1.915358007
2.00600,-2.83094123
2.00650,-1.915358007
2.00700,1.13658607
2.00750,4.798918962
2.00800,9.987223893
2.00850,16.70150086
2.00900,22.80538902
2.00950,23.11058342
2.01000,17.31188968
2.01050,9.07164067
2.01100,1.441780478
2.01150,-5.272496492
2.01200,-11.68157905
2.01250,-15.95430076
2.01300,-18.70105043
2.01350,-22.36338332
2.01400,-26.63610503
2.01450,-27.55168825
2.01500,-25.11013299
2.01550,-23.58416095
2.01600,-24.49974418
2.01650,-24.49974418
2.01700,-20.53221688
2.01750,-15.03871754
2.01800,-10.46080142
2.01850,-6.493274122
2.01900,-3.136135638
2.01950,-3.441330045
2.02000,-8.324440569
2.02050,-13.81793991
2.02100,-15.03871754
2.02150,-11.98677346
2.02200,-7.714051753
2.02250,-4.051718861
2.02300,-0.6945803761
2.02350,1.746974885
2.02400,4.493724555
2.02450,7.240474224
2.02500,8.766446263
2.02550,8.156057447
2.02600,6.019696593
2.02650,5.10411337
2.02700,5.10411337
2.02750,4.493724555
2.02800,2.662558109
2.02850,2.357363701
2.02900,4.493724555
2.02950,6.935279816
2.03000,8.461251855
2.03050,9.987223893
2.03100,12.73397356
2.03150,16.09111205
2.03200,17.92227849
2.03250,18.2274729
2.03300,16.70150086
2.03350,13.64955679
2.03400,9.07164067
2.03450,3.578141332
2.03500,-2.525746822
2.03550,-9.850412607
2.03600,-16.56468958
2.03650,-20.53221688
2.03700,-21.75299451
2.03750,-20.53221688
2.03800,-18.39585602
2.03850,-15.34391195
2.03900,-11.98677346
2.03950,-8.019246161
2.04000,-3.441330045
2.04050,2.052169293
2.04100,8.156057447
2.04150,11.81839034
2.04200,13.03916797
2.04250,13.03916797
2.04300,12.73397356
2.04350,12.73397356
2.04400,11.81839034
2.04450,9.682029486
2.04500,6.935279816
2.04550,4.798918962
2.04600,3.578141332
2.04650,2.967752516
2.04700,3.272946924
2.04750,4.798918962
2.04800,8.461251855
2.04850,12.42877916
2.04900,14.87033442
2.04950,14.2599456
2.05000,11.81839034
2.05050,10.59761271
2.05100,11.20800152
2.05150,12.12358475
2.05200,11.20800152
2.05250,9.07164067
2.05300,7.545668632
2.05350,6.630085409
2.05400,5.10411337
2.05450,3.272946924
2.05500,3.883335739
2.05550,7.240474224
2.05600,10.90280712
2.05650,10.59761271
2.05700,7.545668632
2.05750,6.630085409
2.05800,8.461251855
2.05850,9.376835078
2.05900,6.324891001
2.05950,0.5261972547
2.06000,-4.662107676
2.06050,-9.850412607
2.06100,-14.73352313
2.06150,-18.09066162
2.06200,-18.70105043
2.06250,-19.00624484
2.06300,-20.22702247
2.06350,-19.92182806
2.06400,-15.64910635
2.06450,-9.240023792
2.06500,-4.967302084
2.06550,-4.051718861
2.06600,-4.662107676
2.06650,-4.662107676
2.06700,-2.83094123
2.06750,-0.6945803761
2.06800,0.221002847
2.06850,0.221002847
2.06900,-0.08419156075
2.06950,1.441780478
2.07000,5.409307778
2.07050,8.156057447
2.07100,7.545668632
2.07150,5.10411337
2.07200,4.188530147
2.07250,6.019696593
2.07300,7.850863039
2.07350,8.461251855
2.07400,6.935279816
2.07450,3.883335739
2.07500,0.5261972547
2.07550,-0.9997747838
2.07600,-0.6945803761
2.07650,-0.08419156075
2.07700,-1.304969192
2.07750,-3.136135638
2.07800,-3.746524453
2.07850,-3.441330045
2.07900,-4.662107676
2.07950,-8.019246161
2.08000,-11.68157905
2.08050,-13.81793991
2.08100,-15.95430076
2.08150,-19.92182806
2.08200,-24.19454977
2.08250,-25.4153274
2.08300,-22.66857773
2.08350,-18.39585602
2.08400,-14.42832872
2.08450,-11.07119024
2.08500,-7.408857346
2.08550,-4.051718861
2.08600,-1.304969192
2.08650,1.441780478
2.08700,5.10411337
2.08750,7.545668632
2.08800,7.545668632
2.08850,4.798918962
2.08900,0.8313916624
2.08950,-1.610163599
2.09000,-2.525746822
2.09050,-1.304969192
2.09100,-0.6945803761
2.09150,-3.136135638
2.09200,-7.714051753
2.09250,-11.07119024
2.09300,-10.76599583
2.09350,-8.019246161
2.09400,-5.272496492
2.09450,-3.746524453
2.09500,-2.525746822
2.09550,-0.08419156075
2.09600,4.493724555
2.09650,11.51319593
2.09700,17.61708409
2.09750,19.75344494
2.09800,18.53266731
2.09850,16.09111205
2.09900,14.56514001
2.09950,13.03916797
2.10000,10.2924183
2.10050,6.630085409
2.10100,3.578141332
2.10150,1.746974885
2.10200,1.441780478
2.10250,1.746974885
2.10300,2.052169293
2.10350,2.357363701
2.10400,3.883335739
2.10450,5.714502186
2.10500,6.630085409
2.10550,4.798918962
2.10600,2.662558109
2.10650,2.357363701
2.10700,3.883335739
2.10750,4.798918962
2.10800,2.967752516
2.10850,-0.3893859684
2.10900,-3.746524453
2.10950,-5.577690899
2.11000,-5.272496492
2.11050,-3.136135638
2.11100,-1.304969192
2.11150,-0.3893859684
2.11200,0.8313916624
2.11250,4.493724555
2.11300,9.07164067
2.11350,11.81839034
2.11400,11.51319593
2.11450,9.376835078
2.11500,6.935279816
2.11550,3.578141332
2.11600,-0.08419156075
2.11650,-1.915358007
2.11700,-2.83094123
2.11750,-4.356913269
2.11800,-6.79846853
2.11850,-8.934829384
2.11900,-9.240023792
2.11950,-8.019246161
2.12000,-6.493274122
2.12050,-6.188079715
2.12100,-7.408857346
2.12150,-8.934829384
2.12200,-7.714051753
2.12250,-3.136135638
2.12300,2.662558109
2.12350,7.240474224
2.12400,9.07164067
2.12450,8.766446263
2.12500,7.545668632
2.12550,6.630085409
2.12600,7.240474224
2.12650,7.850863039
2.12700,6.019696593
2.12750,1.13658607
2.12800,-3.136135638
2.12850,-4.662107676
2.12900,-3.136135638
2.12950,-0.9997747838
2.13000,0.221002847
2.13050,0.8313916624
2.13100,-0.3893859684
2.13150,-2.83094123
2.13200,-3.136135638
2.13250,-0.08419156075
2.13300,3.272946924
2.13350,3.272946924
2.13400,1.441780478
2.13450,1.746974885
2.13500,4.493724555
2.13550,6.935279816
2.13600,6.630085409
2.13650,4.188530147
2.13700,2.357363701
2.13750,2.662558109
2.13800,4.798918962
2.13850,5.10411337
2.13900,1.441780478
2.13950,-4.967302084
2.14000,-11.37638465
2.14050,-15.03871754
2.14100,-17.78546721
2.14150,-21.4478001
2.14200,-24.19454977
2.14250,-24.19454977
2.14300,-21.4478001
2.14350,-18.39585602
2.14400,-15.64910635
2.14450,-12.90235668
2.14500,-9.545218199
2.14550,-5.577690899
2.14600,-2.83094123
2.14650,-2.220552415
2.14700,-4.967302084
2.14750,-9.545218199
2.14800,-13.20755109
2.14850,-14.12313432
2.14900,-12.90235668
2.14950,-11.68157905
2.15000,-10.76599583
2.15050,-8.934829384
2.15100,-4.662107676
2.15150,2.357363701
2.15200,10.59761271
2.15250,15.78591764
2.15300,17.00669527
2.15350,15.17552882
2.15400,13.34436238
2.15450,11.51319593
2.15500,7.545668632
2.15550,1.441780478
2.15600,-4.051718861
2.15650,-7.103662938
2.15700,-8.019246161
2.15750,-8.019246161
2.15800,-7.714051753
2.15850,-6.79846853
2.15900,-4.662107676
2.15950,-1.915358007
2.16000,1.13658607
2.16050,5.10411337
2.16100,7.850863039
2.16150,7.240474224
2.16200,2.662558109
2.16250,-2.525746822
2.16300,-4.662107676
2.16350,-2.83094123
2.16400,0.5261972547
2.16450,4.188530147
2.16500,8.461251855
2.16550,13.34436238
2.16600,15.17552882
2.16650,10.2924183
2.16700,0.5261972547
2.16750,-6.79846853
2.16800,-8.019246161
2.16850,-6.493274122
2.16900,-5.577690899
2.16950,-4.051718861
2.17000,0.5261972547
2.17050,6.324891001
2.17100,10.2924183
2.17150,12.42877916
2.17200,16.39630646
2.17250,20.97422257
2.17300,22.80538902
2.17350,20.36383376
2.17400,16.70150086
2.17450,12.12358475
2.17500,5.714502186
2.17550,-1.915358007
2.17600,-7.714051753
2.17650,-7.714051753
2.17700,-2.83094123
2.17750,2.052169293
2.17800,5.409307778
2.17850,6.935279816
2.17900,8.461251855
2.17950,9.987223893
2.18000,9.682029486
2.18050,6.324891001
2.18100,0.8313916624
2.18150,-2.83094123
2.18200,-3.441330045
2.18250,-3.136135638
2.18300,-4.662107676
2.18350,-8.324440569
2.18400,-11.37638465
2.18450,-13.20755109
2.18500,-14.12313432
2.18550,-15.03871754
2.18600,-13.81793991
2.18650,-9.850412607
2.18700,-3.441330045
2.18750,3.272946924
2.18800,9.987223893
2.18850,14.87033442
2.18900,17.31188968
2.18950,16.39630646
2.19000,13.34436238
2.19050,11.20800152
2.19100,10.2924183
2.19150,8.766446263
2.19200,4.188530147
2.19250,-2.83094123
2.19300,-8.934829384
2.19350,-10.76599583
2.19400,-8.629634976
2.19450,-5.577690899
2.19500,-4.051718861
2.19550,-4.356913269
2.19600,-5.577690899
2.19650,-7.408857346
2.19700,-8.934829384
2.19750,-9.850412607
2.19800,-9.545218199
2.19850,-8.324440569
2.19900,-7.408857346
2.19950,-8.324440569
2.20000,-12.29196787
2.20050,-18.70105043
2.20100,-25.11013299
2.20150,-28.77246588
2.20200,-30.90882674
2.20250,-31.51921555
2.20300,-30.29843792
2.20350,-25.72052181
2.20400,-19.31143925
2.20450,-12.90235668
2.20500,-7.103662938
2.20550,-0.9997747838
2.20600,5.409307778
2.20650,10.90280712
2.20700,13.03916797
2.20750,11.20800152
2.20800,8.461251855
2.20850,7.545668632
2.20900,9.376835078
2.20950,12.12358475
2.21000,13.34436238
2.21050,12.73397356
2.21100,14.2599456
2.21150,18.83786172
2.21200,24.02616665
2.21250,27.07811072
2.21300,27.68849954
2.21350,27.99369395
2.21400,27.99369395
2.21450,28.29888836
2.21500,29.51966599
2.21550,30.74044362
2.21600,30.1300548
2.21650,25.55213869
2.21700,18.2274729
2.21750,9.682029486
2.21800,1.13658607
2.21850,-6.493274122
2.21900,-11.37638465
2.21950,-11.37638465
2.22000,-8.324440569
2.22050,-4.356913269
2.22100,1.13658607
2.22150,9.07164067
2.22200,17.00669527
2.22250,20.36383376
2.22300,18.53266731
2.22350,15.17552882
2.22400,13.03916797
2.22450,12.12358475
2.22500,11.81839034
2.22550,12.73397356
2.22600,14.2599456
2.22650,13.03916797
2.22700,8.766446263
2.22750,4.493724555
2.22800,2.052169293
2.22850,-0.3893859684
2.22900,-4.662107676
2.22950,-9.850412607
2.23000,-13.5127455
2.23050,-14.12313432
2.23100,-12.59716228
2.23150,-10.46080142
2.23200,-8.324440569
2.23250,-7.714051753
2.23300,-7.103662938
2.23350,-6.188079715
2.23400,-4.662107676
2.23450,-3.746524453
2.23500,-2.525746822
2.23550,-0.08419156075
2.23600,5.409307778
2.23650,12.12358475
2.23700,16.70150086
2.23750,16.39630646
2.23800,10.59761271
2.23850,4.188530147
2.23900,1.13658607
2.23950,2.052169293
2.24000,1.746974885
2.24050,-1.915358007
2.24100,-6.79846853
2.24150,-8.629634976
2.24200,-7.408857346
2.24250,-5.882885307
2.24300,-3.136135638
2.24350,1.13658607
2.24400,7.240474224
2.24450,13.95475119
2.24500,18.83786172
2.24550,19.75344494
2.24600,13.64955679
2.24650,2.662558109
2.24700,-7.408857346
2.24750,-12.59716228
2.24800,-13.5127455
2.24850,-15.34391195
2.24900,-17.78546721
2.24950,-18.39585602
2.25000,-16.25949517
2.25050,-12.29196787
2.25100,-7.408857346
2.25150,-2.83094123
2.25200,-0.9997747838
2.25250,-4.051718861
2.25300,-9.850412607
2.25350,-12.29196787
2.25400,-9.850412607
2.25450,-5.272496492
2.25500,-2.525746822
2.25550,-1.304969192
2.25600,-0.08419156075
2.25650,1.441780478
2.25700,4.188530147
2.25750,5.714502186
2.25800,6.019696593
2.25850,4.493724555
2.25900,2.662558109
2.25950,1.441780478
2.26000,0.221002847
2.26050,-2.220552415
2.26100,-5.882885307
2.26150,-8.629634976
2.26200,-8.629634976
2.26250,-6.79846853
2.26300,-5.882885307
2.26350,-6.493274122
2.26400,-8.934829384
2.26450,-13.81793991
2.26500,-20.53221688
2.26550,-27.24649385
2.26600,-30.29843792
2.26650,-28.16207707
2.26700,-23.27896655
2.26750,-19.00624484
2.26800,-17.4802728
2.26850,-18.09066162
2.26900,-19.61663365
2.26950,-19.61663365
2.27000,-16.86988398
2.27050,-12.59716228
2.27100,-9.240023792
2.27150,-9.240023792
2.27200,-10.76599583
2.27250,-9.240023792
2.27300,-4.356913269
2.27350,-0.08419156075
2.27400,0.5261972547
2.27450,-1.610163599
2.27500,-4.051718861
2.27550,-4.967302084
2.27600,-4.662107676
2.27650,-1.915358007
2.27700,4.188530147
2.27750,11.20800152
2.27800,15.48072323
2.27850,15.48072323
2.27900,14.87033442
2.27950,16.09111205
2.28000,17.00669527
2.28050,14.87033442
2.28100,10.2924183
2.28150,6.324891001
2.28200,3.272946924
2.28250,2.052169293
2.28300,3.578141332
2.28350,7.850863039
2.28400,11.51319593
2.28450,12.42877916
2.28500,12.73397356
2.28550,15.78591764
2.28600,20.05863935
2.28650,20.97422257
2.28700,19.14305612
2.28750,17.92227849
2.28800,19.75344494
2.28850,21.58461139
2.28900,20.05863935
2.28950,16.39630646
2.29000,11.20800152
2.29050,3.272946924
2.29100,-8.019246161
2.29150,-19.31143925
2.29200,-25.4153274
2.29250,-24.80493858
2.29300,-20.22702247
2.29350,-15.64910635
2.29400,-12.90235668
2.29450,-12.59716228
2.29500,-12.59716228
2.29550,-11.37638465
2.29600,-10.46080142
2.29650,-11.37638465
2.29700,-12.29196787
2.29750,-9.240023792
2.29800,-3.441330045
2.29850,0.8313916624
2.29900,1.441780478
2.29950,0.8313916624
2.30000,0.5261972547
2.30050,-0.3893859684
2.30100,-3.136135638
2.30150,-5.272496492
2.30200,-5.882885307
2.30250,-5.272496492
2.30300,-4.051718861
2.30350,-2.220552415
2.30400,-0.6945803761
2.30450,-0.9997747838
2.30500,-1.915358007
2.30550,1.13658607
2.30600,8.766446263
2.30650,14.2599456
2.30700,11.81839034
2.30750,4.493724555
2.30800,-0.08419156075
2.30850,0.221002847
2.30900,2.052169293
2.30950,1.746974885
2.31000,-0.6945803761
2.31050,-4.356913269
2.31100,-7.714051753
2.31150,-8.629634976
2.31200,-4.967302084
2.31250,1.441780478
2.31300,6.630085409
2.31350,7.850863039
2.31400,6.935279816
2.31450,6.630085409
2.31500,7.545668632
2.31550,8.156057447
2.31600,7.545668632
2.31650,5.10411337
2.31700,0.221002847
2.31750,-5.272496492
2.31800,-8.629634976
2.31850,-8.629634976
2.31900,-7.408857346
2.31950,-7.103662938
2.32000,-6.493274122
2.32050,-4.356913269
2.32100,-0.9997747838
2.32150,1.441780478
2.32200,3.578141332
2.32250,6.019696593
2.32300,7.240474224
2.32350,6.019696593
2.32400,6.019696593
2.32450,10.59761271
2.32500,18.53266731
2.32550,23.72097224
2.32600,22.50019461
2.32650,17.92227849
2.32700,14.2599456
2.32750,13.34436238
2.32800,14.2599456
2.32850,16.39630646
2.32900,17.31188968
2.32950,14.56514001
2.33000,6.630085409
2.33050,-3.136135638
2.33100,-11.07119024
2.33150,-15.95430076
2.33200,-19.61663365
2.33250,-23.27896655
2.33300,-26.02571622
2.33350,-26.63610503
2.33400,-24.49974418
2.33450,-20.83741128
2.33500,-16.86988398
2.33550,-13.20755109
2.33600,-11.07119024
2.33650,-10.46080142
2.33700,-10.76599583
2.33750,-11.68157905
2.33800,-12.29196787
2.33850,-12.59716228
2.33900,-12.90235668
2.33950,-13.20755109
2.34000,-13.5127455
2.34050,-12.29196787
2.34100,-9.545218199
2.34150,-6.188079715
2.34200,-4.356913269
2.34250,-3.441330045
2.34300,-2.525746822
2.34350,-0.3893859684
2.34400,2.052169293
2.34450,4.493724555
2.34500,5.409307778
2.34550,5.409307778
2.34600,4.493724555
2.34650,4.188530147
2.34700,6.324891001
2.34750,10.59761271
2.34800,13.95475119
2.34850,16.09111205
2.34900,18.2274729
2.34950,22.1950002
2.35000,24.94174987
2.35050,21.88980579
2.35100,13.95475119
2.35150,7.240474224
2.35200,4.493724555
2.35250,4.798918962
2.35300,5.10411337
2.35350,6.324891001
2.35400,8.766446263
2.35450,10.59761271
2.35500,9.682029486
2.35550,7.850863039
2.35600,7.850863039
2.35650,8.766446263
2.35700,6.019696593
2.35750,-1.915358007
2.35800,-12.29196787
2.35850,-17.78546721
2.35900,-15.34391195
2.35950,-8.629634976
2.36000,-4.356913269
2.36050,-6.79846853
2.36100,-11.98677346
2.36150,-14.42832872
2.36200,-13.20755109
2.36250,-10.76599583
2.36300,-8.629634976
2.36350,-5.272496492
2.36400,-0.9997747838
2.36450,2.052169293
2.36500,3.883335739
2.36550,4.798918962
2.36600,5.714502186
2.36650,6.324891001
2.36700,7.850863039
2.36750,12.73397356
2.36800,19.44825053
2.36850,24.02616665
2.36900,23.72097224
2.36950,19.14305612
2.37000,13.03916797
2.37050,6.935279816
2.37100,2.662558109
2.37150,1.13658607
2.37200,-0.08419156075
2.37250,-2.220552415
2.37300,-3.746524453
2.37350,-1.610163599
2.37400,2.052169293
2.37450,-0.3893859684
2.37500,-11.98677346
2.37550,-23.88935536
2.37600,-26.33091062
2.37650,-20.22702247
2.37700,-13.5127455
2.37750,-10.46080142
2.37800,-9.240023792
2.37850,-7.714051753
2.37900,-5.577690899
2.37950,-3.441330045
2.38000,-0.3893859684
2.38050,3.578141332
2.38100,6.630085409
2.38150,8.156057447
2.38200,10.2924183
2.38250,11.51319593
2.38300,9.376835078
2.38350,3.578141332
2.38400,-0.3893859684
2.38450,0.5261972547
2.38500,6.324891001
2.38550,13.03916797
2.38600,18.83786172
2.38650,22.1950002
2.38700,20.97422257
2.38750,13.64955679
2.38800,3.272946924
2.38850,-5.882885307
2.38900,-13.20755109
2.38950,-19.92182806
2.39000,-25.72052181
2.39050,-27.85688266
2.39100,-26.33091062
2.39150,-22.66857773
2.39200,-18.09066162
2.39250,-12.59716228
2.39300,-5.577690899
2.39350,0.5261972547
2.39400,3.883335739
2.39450,5.714502186
2.39500,9.07164067
2.39550,12.73397356
2.39600,13.95475119
2.39650,12.42877916
2.39700,10.90280712
2.39750,10.90280712
2.39800,9.376835078
2.39850,4.188530147
2.39900,-0.08419156075
2.39950,1.746974885
2.40000,8.766446263
2.40050,14.56514001
2.40100,14.2599456
2.40150,9.987223893
2.40200,5.10411337
2.40250,1.746974885
2.40300,-0.3893859684
2.40350,-1.915358007
2.40400,-3.136135638
2.40450,-3.746524453
2.40500,-2.83094123
2.40550,-0.6945803761
2.40600,0.221002847
2.40650,-1.915358007
2.40700,-5.577690899
2.40750,-7.103662938
2.40800,-8.324440569
2.40850,-13.81793991
2.40900,-23.58416095
2.40950,-31.82440996
2.41000,-32.73999318
2.41050,-27.85688266
2.41100,-20.53221688
2.41150,-14.73352313
2.41200,-10.76599583
2.41250,-8.629634976
2.41300,-7.103662938
2.41350,-4.662107676
2.41400,-1.915358007
2.41450,-0.08419156075
2.41500,0.221002847
2.41550,0.8313916624
2.41600,2.357363701
2.41650,4.493724555
2.41700,6.935279816
2.41750,9.376835078
2.41800,10.59761271
2.41850,9.987223893
2.41900,10.2924183
2.41950,13.03916797
2.42000,17.31188968
2.42050,20.05863935
2.42100,21.27941698
2.42150,22.50019461
2.42200,23.72097224
2.42250,23.11058342
2.42300,22.80538902
2.42350,24.02616665
2.42400,24.33136106
2.42450,20.05863935
2.42500,13.34436238
2.42550,9.376835078
2.42600,9.682029486
2.42650,9.682029486
2.42700,6.630085409
2.42750,2.357363701
2.42800,-0.08419156075
2.42850,-0.9997747838
2.42900,-0.08419156075
2.42950,2.662558109
2.43000,4.188530147
2.43050,1.441780478
2.43100,-5.882885307
2.43150,-15.03871754
2.43200,-20.83741128
2.43250,-22.66857773
2.43300,-20.83741128
2.43350,-15.95430076
2.43400,-9.240023792
2.43450,-5.272496492
2.43500,-6.493274122
2.43550,-10.46080142
2.43600,-12.90235668
2.43650,-10.15560701
2.43700,-4.662107676
2.43750,0.5261972547
2.43800,3.272946924
2.43850,3.578141332
2.43900,2.967752516
2.43950,1.746974885
2.44000,-0.08419156075
2.44050,-3.441330045
2.44100,-9.545218199
2.44150,-18.09066162
2.44200,-25.4153274
2.44250,-28.16207707
2.44300,-25.4153274
2.44350,-21.4478001
2.44400,-18.70105043
2.44450,-16.25949517
2.44500,-11.37638465
2.44550,-4.967302084
2.44600,-0.08419156075
2.44650,2.357363701
2.44700,3.578141332
2.44750,3.578141332
2.44800,2.662558109
2.44850,2.662558109
2.44900,4.188530147
2.44950,6.019696593
2.45000,6.019696593
2.45050,5.409307778
2.45100,5.409307778
2.45150,5.714502186
2.45200,2.357363701
2.45250,-4.051718861
2.45300,-9.850412607
2.45350,-11.98677346
2.45400,-12.29196787
2.45450,-13.20755109
2.45500,-13.20755109
2.45550,-9.850412607
2.45600,-3.441330045
2.45650,0.5261972547
2.45700,-0.08419156075
2.45750,-3.441330045
2.45800,-4.967302084
2.45850,-2.220552415
2.45900,2.052169293
2.45950,3.883335739
2.46000,1.746974885
2.46050,-0.6945803761
2.46100,-2.220552415
2.46150,-3.136135638
2.46200,-4.356913269
2.46250,-4.051718861
2.46300,-0.6945803761
2.46350,3.272946924
2.46400,6.324891001
2.46450,9.07164067
2.46500,12.42877916
2.46550,14.56514001
2.46600,13.03916797
2.46650,8.156057447
2.46700,4.188530147
2.46750,2.662558109
2.46800,2.357363701
2.46850,2.052169293
2.46900,0.5261972547
2.46950,-0.9997747838
2.47000,-3.136135638
2.47050,-4.662107676
2.47100,-4.662107676
2.47150,-3.746524453
2.47200,-2.525746822
2.47250,-1.304969192
2.47300,-0.6945803761
2.47350,-0.9997747838
2.47400,-3.136135638
2.47450,-5.577690899
2.47500,-6.79846853
2.47550,-4.967302084
2.47600,0.5261972547
2.47650,7.850863039
2.47700,13.34436238
2.47750,15.17552882
2.47800,14.87033442
2.47850,14.87033442
2.47900,15.17552882
2.47950,12.12358475
2.48000,6.019696593
2.48050,0.221002847
2.48100,-1.915358007
2.48150,-1.610163599
2.48200,-0.08419156075
2.48250,1.441780478
2.48300,0.8313916624
2.48350,-0.9997747838
2.48400,-2.83094123
2.48450,-1.915358007
2.48500,0.221002847
2.48550,2.662558109
2.48600,5.10411337
2.48650,6.935279816
2.48700,7.850863039
2.48750,7.545668632
2.48800,7.240474224
2.48850,7.850863039
2.48900,6.630085409
2.48950,2.662558109
2.49000,-1.610163599
2.49050,-4.662107676
2.49100,-8.324440569
2.49150,-14.73352313
2.49200,-20.83741128
2.49250,-21.4478001
2.49300,-15.64910635
2.49350,-8.324440569
2.49400,-3.441330045
2.49450,-0.08419156075
2.49500,1.746974885
2.49550,1.746974885
2.49600,-0.08419156075
2.49650,-1.915358007
2.49700,-3.746524453
2.49750,-6.79846853
2.49800,-10.46080142
2.49850,-11.98677346
2.49900,-11.37638465
2.49950,-11.68157905
2.50000,-13.81793991
2.50050,-15.34391195
2.50100,-14.12313432
2.50150,-10.76599583
2.50200,-7.103662938
2.50250,-2.220552415
2.50300,2.967752516
2.50350,6.935279816
2.50400,6.630085409
2.50450,3.578141332
2.50500,1.441780478
2.50550,2.967752516
2.50600,6.019696593
2.50650,8.156057447
2.50700,6.935279816
2.50750,3.883335739
2.50800,2.662558109
2.50850,5.10411337
2.50900,9.07164067
2.50950,11.81839034
2.51000,14.56514001
2.51050,18.53266731
2.51100,20.97422257
2.51150,17.92227849
2.51200,9.987223893
2.51250,4.188530147
2.51300,4.493724555
2.51350,7.850863039
2.51400,8.156057447
2.51450,5.10411337
2.51500,2.662558109
2.51550,2.967752516
2.51600,3.578141332
2.51650,2.357363701
2.51700,0.5261972547
2.51750,-0.6945803761
2.51800,-1.304969192
2.51850,-2.83094123
2.51900,-5.272496492
2.51950,-6.188079715
2.52000,-4.967302084
2.52050,-2.83094123
2.52100,-2.83094123
2.52150,-4.662107676
2.52200,-6.188079715
2.52250,-6.79846853
2.52300,-7.408857346
2.52350,-9.545218199
2.52400,-10.15560701
2.52450,-6.493274122
2.52500,-0.9997747838
2.52550,1.441780478
2.52600,1.746974885
2.52650,2.967752516
2.52700,6.630085409
2.52750,8.766446263
2.52800,7.545668632
2.52850,6.630085409
2.52900,9.07164067
2.52950,13.03916797
2.53000,14.56514001
2.53050,13.03916797
2.53100,10.90280712
2.53150,9.376835078
2.53200,7.545668632
2.53250,4.493724555
2.53300,1.746974885
2.53350,0.5261972547
2.53400,1.13658607
2.53450,3.272946924
2.53500,6.019696593
2.53550,8.156057447
2.53600,9.07164067
2.53650,8.766446263
2.53700,8.156057447
2.53750,6.630085409
2.53800,3.578141332
2.53850,0.8313916624
2.53900,-0.08419156075
2.53950,-0.08419156075
2.54000,-0.9997747838
2.54050,-4.356913269
2.54100,-8.934829384
2.54150,-12.90235668
2.54200,-15.95430076
2.54250,-16.86988398
2.54300,-15.64910635
2.54350,-12.90235668
2.54400,-11.07119024
2.54450,-11.07119024
2.54500,-10.76599583
2.54550,-8.934829384
2.54600,-7.408857346
2.54650,-6.79846853
2.54700,-4.356913269
2.54750,1.746974885
2.54800,8.766446263
2.54850,12.42877916
2.54900,13.95475119
2.54950,16.39630646
2.55000,20.36383376
2.55050,22.80538902
2.55100,21.58461139
2.55150,18.83786172
2.55200,15.48072323
2.55250,11.51319593
2.55300,7.545668632
2.55350,6.019696593
2.55400,7.850863039
2.55450,10.59761271
2.55500,13.34436238
2.55550,14.87033442
2.55600,14.56514001
2.55650,11.20800152
2.55700,6.935279816
2.55750,4.798918962
2.55800,3.578141332
2.55850,-0.3893859684
2.55900,-8.019246161
2.55950,-15.34391195
2.56000,-19.31143925
2.56050,-21.14260569
2.56100,-22.66857773
2.56150,-22.05818892
2.56200,-17.17507839
2.56250,-9.240023792
2.56300,-2.525746822
2.56350,0.221002847
2.56400,1.441780478
2.56450,3.272946924
2.56500,5.714502186
2.56550,7.240474224
2.56600,6.935279816
2.56650,4.798918962
2.56700,4.188530147
2.56750,4.493724555
2.56800,3.883335739
2.56850,0.8313916624
2.56900,-1.304969192
2.56950,-0.6945803761
2.57000,1.746974885
2.57050,4.493724555
2.57100,6.935279816
2.57150,9.682029486
2.57200,12.42877916
2.57250,13.34436238
2.57300,12.42877916
2.57350,9.682029486
2.57400,6.019696593
2.57450,2.662558109
2.57500,1.441780478
2.57550,1.746974885
2.57600,1.13658607
2.57650,-0.6945803761
2.57700,-0.9997747838
2.57750,0.8313916624
2.57800,2.967752516
2.57850,2.662558109
2.57900,1.441780478
2.57950,2.662558109
2.58000,4.798918962
2.58050,4.798918962
2.58100,2.357363701
2.58150,-2.525746822
2.58200,-11.98677346
2.58250,-26.63610503
2.58300,-39.75946456
2.58350,-44.03218627
2.58400,-39.75946456
2.58450,-34.87635404
2.58500,-34.57115963
2.58550,-36.40232608
2.58600,-35.79193726
2.58650,-31.82440996
2.58700,-26.33091062
2.58750,-20.22702247
2.58800,-13.20755109
2.58850,-6.79846853
2.58900,-3.746524453
2.58950,-4.051718861
2.59000,-4.967302084
2.59050,-3.746524453
2.59100,-0.9997747838
2.59150,0.8313916624
2.59200,2.357363701
2.59250,3.883335739
2.59300,5.10411337
2.59350,3.272946924
2.59400,-2.83094123
2.59450,-10.15560701
2.59500,-13.20755109
2.59550,-10.76599583
2.59600,-7.408857346
2.59650,-6.493274122
2.59700,-8.324440569
2.59750,-10.46080142
2.59800,-12.29196787
2.59850,-12.59716228
2.59900,-10.15560701
2.59950,-2.83094123
2.60000,7.240474224
2.60050,15.78591764
2.60100,19.14305612
2.60150,17.61708409
2.60200,13.95475119
2.60250,10.59761271
2.60300,9.682029486
2.60350,10.2924183
2.60400,9.376835078
2.60450,5.409307778
2.60500,0.5261972547
2.60550,-2.220552415
2.60600,-2.525746822
2.60650,-2.220552415
2.60700,-1.610163599
2.60750,-0.08419156075
2.60800,2.967752516
2.60850,4.798918962
2.60900,4.798918962
2.60950,4.798918962
2.61000,6.630085409
2.61050,9.987223893
2.61100,13.03916797
2.61150,14.87033442
2.61200,16.09111205
2.61250,15.48072323
2.61300,12.42877916
2.61350,8.461251855
2.61400,6.324891001
2.61450,5.409307778
2.61500,2.662558109
2.61550,-4.051718861
2.61600,-13.5127455
2.61650,-19.61663365
2.61700,-18.39585602
2.61750,-11.98677346
2.61800,-5.577690899
2.61850,-3.136135638
2.61900,-2.83094123
2.61950,-1.304969192
2.62000,1.13658607
2.62050,2.967752516
2.62100,3.578141332
2.62150,3.578141332
2.62200,2.662558109
2.62250,-0.3893859684
2.62300,-3.441330045
2.62350,-2.220552415
2.62400,2.967752516
2.62450,6.935279816
2.62500,6.019696593
2.62550,3.578141332
2.62600,2.967752516
2.62650,2.662558109
2.62700,1.13658607
2.62750,-0.6945803761
2.62800,-1.610163599
2.62850,-1.304969192
2.62900,-0.08419156075
2.62950,2.967752516
2.63000,7.545668632
2.63050,8.461251855
2.63100,2.662558109
2.63150,-3.746524453
2.63200,-3.746524453
2.63250,3.883335739
2.63300,11.81839034
2.63350,13.95475119
2.63400,11.20800152
2.63450,9.682029486
2.63500,12.42877916
2.63550,16.09111205
2.63600,17.31188968
2.63650,14.56514001
2.63700,10.59761271
2.63750,7.240474224
2.63800,5.409307778
2.63850,3.272946924
2.63900,-0.08419156075
2.63950,-4.967302084
2.64000,-9.545218199
2.64050,-12.90235668
2.64100,-14.12313432
2.64150,-14.42832872
2.64200,-14.73352313
2.64250,-15.03871754
2.64300,-14.12313432
2.64350,-12.29196787
2.64400,-10.76599583
2.64450,-11.07119024
2.64500,-10.76599583
2.64550,-7.714051753
2.64600,-2.83094123
2.64650,0.8313916624
2.64700,2.967752516
2.64750,4.493724555
2.64800,4.798918962
2.64850,2.967752516
2.64900,-0.3893859684
2.64950,-3.136135638
2.65000,-2.525746822
2.65050,-0.3893859684
2.65100,1.13658607
2.65150,2.357363701
2.65200,4.493724555
2.65250,8.156057447
2.65300,13.34436238
2.65350,17.92227849
2.65400,21.27941698
2.65450,22.1950002
2.65500,20.36383376
2.65550,16.39630646
2.65600,11.20800152
2.65650,6.019696593
2.65700,3.578141332
2.65750,4.188530147
2.65800,6.324891001
2.65850,7.240474224
2.65900,6.019696593
2.65950,3.883335739
2.66000,2.662558109
2.66050,2.357363701
2.66100,2.052169293
2.66150,0.8313916624
2.66200,-0.3893859684
2.66250,-0.9997747838
2.66300,-0.08419156075
2.66350,0.5261972547
2.66400,0.221002847
2.66450,-2.525746822
2.66500,-7.408857346
2.66550,-12.29196787
2.66600,-15.03871754
2.66650,-13.5127455
2.66700,-8.324440569
2.66750,-2.220552415
2.66800,-0.3893859684
2.66850,-3.746524453
2.66900,-8.629634976
2.66950,-10.46080142
2.67000,-8.934829384
2.67050,-6.79846853
2.67100,-6.493274122
2.67150,-6.79846853
2.67200,-6.493274122
2.67250,-6.79846853
2.67300,-8.934829384
2.67350,-12.29196787
2.67400,-13.5127455
2.67450,-11.68157905
2.67500,-8.629634976
2.67550,-4.967302084
2.67600,-0.08419156075
2.67650,4.493724555
2.67700,6.935279816
2.67750,5.10411337
2.67800,1.746974885
2.67850,0.8313916624
2.67900,2.967752516
2.67950,4.493724555
2.68000,2.357363701
2.68050,-1.915358007
2.68100,-5.882885307
2.68150,-7.714051753
2.68200,-8.324440569
2.68250,-8.629634976
2.68300,-8.019246161
2.68350,-7.103662938
2.68400,-5.882885307
2.68450,-4.967302084
2.68500,-3.136135638
2.68550,-0.3893859684
2.68600,1.441780478
2.68650,-0.08419156075
2.68700,-3.746524453
2.68750,-7.408857346
2.68800,-7.714051753
2.68850,-5.577690899
2.68900,-2.525746822
2.68950,-0.08419156075
2.69000,4.188530147
2.69050,9.376835078
2.69100,14.2599456
2.69150,17.31188968
2.69200,18.53266731
2.69250,18.53266731
2.69300,17.92227849
2.69350,15.78591764
2.69400,10.59761271
2.69450,1.441780478
2.69500,-9.850412607
2.69550,-19.31143925
2.69600,-22.97377214
2.69650,-20.53221688
2.69700,-15.03871754
2.69750,-11.37638465
2.69800,-10.76599583
2.69850,-12.29196787
2.69900,-13.5127455
2.69950,-13.20755109
2.70000,-11.37638465
2.70050,-7.714051753
2.70100,-2.83094123
2.70150,1.746974885
2.70200,2.967752516
2.70250,1.441780478
2.70300,0.221002847
2.70350,1.746974885
2.70400,3.272946924
2.70450,1.441780478
2.70500,-0.6945803761
2.70550,1.746974885
2.70600,8.156057447
2.70650,13.03916797
2.70700,13.34436238
2.70750,13.64955679
2.70800,17.92227849
2.70850,23.41577783
2.70900,25.55213869
2.70950,23.11058342
2.71000,18.83786172
2.71050,13.64955679
2.71100,8.461251855
2.71150,6.019696593
2.71200,8.461251855
2.71250,13.03916797
2.71300,13.34436238
2.71350,7.850863039
2.71400,0.5261972547
2.71450,-2.220552415
2.71500,-1.304969192
2.71550,-0.08419156075
2.71600,0.8313916624
2.71650,0.8313916624
2.71700,1.441780478
2.71750,3.883335739
2.71800,8.156057447
2.71850,12.12358475
2.71900,13.34436238
2.71950,12.73397356
2.72000,13.34436238
2.72050,15.78591764
2.72100,16.39630646
2.72150,13.95475119
2.72200,10.2924183
2.72250,6.935279816
2.72300,2.662558109
2.72350,-3.441330045
2.72400,-8.934829384
2.72450,-9.545218199
2.72500,-7.714051753
2.72550,-10.15560701
2.72600,-17.78546721
2.72650,-23.88935536
2.72700,-24.19454977
2.72750,-20.53221688
2.72800,-18.09066162
2.72850,-16.25949517
2.72900,-12.59716228
2.72950,-7.714051753
2.73000,-4.356913269
2.73050,-3.746524453
2.73100,-2.220552415
2.73150,0.8313916624
2.73200,4.798918962
2.73250,6.019696593
2.73300,6.324891001
2.73350,6.630085409
2.73400,5.409307778
2.73450,0.221002847
2.73500,-6.188079715
2.73550,-8.934829384
2.73600,-6.79846853
2.73650,-4.051718861
2.73700,-3.746524453
2.73750,-4.051718861
2.73800,-3.136135638
2.73850,-1.915358007
2.73900,-2.525746822
2.73950,-3.441330045
2.74000,-2.220552415
2.74050,1.13658607
2.74100,5.409307778
2.74150,8.461251855
2.74200,10.59761271
2.74250,9.987223893
2.74300,6.324891001
2.74350,2.357363701
2.74400,0.221002847
2.74450,-0.3893859684
2.74500,-3.441330045
2.74550,-10.76599583
2.74600,-20.22702247
2.74650,-28.16207707
2.74700,-32.73999318
2.74750,-34.87635404
2.74800,-35.48674285
2.74850,-35.48674285
2.74900,-33.65557641
2.74950,-28.77246588
2.75000,-22.05818892
2.75050,-15.64910635
2.75100,-11.07119024
2.75150,-8.934829384
2.75200,-7.714051753
2.75250,-5.882885307
2.75300,-0.3893859684
2.75350,8.766446263
2.75400,21.58461139
2.75450,34.40277651
2.75500,42.33783111
2.75550,42.0326367
2.75600,35.31835973
2.75650,27.38330513
2.75700,22.1950002
2.75750,18.83786172
2.75800,13.95475119
2.75850,8.156057447
2.75900,5.714502186
2.75950,8.156057447
2.76000,12.12358475
2.76050,14.87033442
2.76100,16.39630646
2.76150,16.70150086
2.76200,12.73397356
2.76250,5.409307778
2.76300,-0.08419156075
2.76350,-0.08419156075
2.76400,0.5261972547
2.76450,-1.610163599
2.76500,-5.272496492
2.76550,-4.662107676
2.76600,-3.136135638
2.76650,-5.577690899
2.76700,-11.07119024
2.76750,-14.12313432
2.76800,-12.59716228
2.76850,-10.15560701
2.76900,-8.019246161
2.76950,-4.051718861
2.77000,0.8313916624
2.77050,4.188530147
2.77100,4.188530147
2.77150,2.967752516
2.77200,1.441780478
2.77250,-1.915358007
2.77300,-7.714051753
2.77350,-11.68157905
2.77400,-11.68157905
2.77450,-10.15560701
2.77500,-8.629634976
2.77550,-5.272496492
2.77600,0.5261972547
2.77650,6.324891001
2.77700,7.240474224
2.77750,3.272946924
2.77800,-0.9997747838
2.77850,-3.746524453
2.77900,-5.577690899
2.77950,-8.629634976
2.78000,-13.5127455
2.78050,-18.39585602
2.78100,-19.31143925
2.78150,-15.95430076
2.78200,-11.37638465
2.78250,-8.019246161
2.78300,-4.967302084
2.78350,-1.610163599
2.78400,0.5261972547
2.78450,-0.08419156075
2.78500,-0.08419156075
2.78550,3.272946924
2.78600,9.987223893
2.78650,13.95475119
2.78700,11.81839034
2.78750,8.156057447
2.78800,6.019696593
2.78850,4.493724555
2.78900,1.746974885
2.78950,-0.08419156075
2.79000,-0.08419156075
2.79050,1.13658607
2.79100,1.441780478
2.79150,2.967752516
2.79200,7.545668632
2.79250,12.73397356
2.79300,15.17552882
2.79350,14.56514001
2.79400,13.64955679
2.79450,13.34436238
2.79500,13.34436238
2.79550,14.56514001
2.79600,17.61708409
2.79650,20.66902816
2.79700,19.75344494
2.79750,14.56514001
2.79800,9.07164067
2.79850,6.324891001
2.79900,6.019696593
2.79950,4.798918962
2.80000,1.746974885
2.80050,-0.08419156075
2.80100,0.8313916624
2.80150,2.357363701
2.80200,-0.08419156075
2.80250,-5.882885307
2.80300,-10.46080142
2.80350,-11.37638465
2.80400,-10.46080142
2.80450,-9.545218199
2.80500,-9.850412607
2.80550,-11.07119024
2.80600,-14.73352313
2.80650,-19.92182806
2.80700,-22.66857773
2.80750,-19.92182806
2.80800,-13.81793991
2.80850,-8.019246161
2.80900,-3.746524453
2.80950,0.5261972547
2.81000,4.493724555
2.81050,6.019696593
2.81100,5.409307778
2.81150,4.188530147
2.81200,4.798918962
2.81250,6.935279816
2.81300,9.987223893
2.81350,12.12358475
2.81400,13.03916797
2.81450,14.2599456
2.81500,18.2274729
2.81550,23.72097224
2.81600,24.94174987
2.81650,19.75344494
2.81700,12.12358475
2.81750,7.545668632
2.81800,4.188530147
2.81850,-1.304969192
2.81900,-9.240023792
2.81950,-13.5127455
2.82000,-13.5127455
2.82050,-13.81793991
2.82100,-19.00624484
2.82150,-25.72052181
2.82200,-29.68804911
2.82250,-31.21402115
2.82300,-32.12960437
2.82350,-32.12960437
2.82400,-29.3828547
2.82450,-24.19454977
2.82500,-19.61663365
2.82550,-16.56468958
2.82600,-14.73352313
2.82650,-12.59716228
2.82700,-10.15560701
2.82750,-5.882885307
2.82800,-0.08419156075
2.82850,6.324891001
2.82900,12.12358475
2.82950,17.00669527
2.83000,20.97422257
2.83050,22.1950002
2.83100,20.36383376
2.83150,16.70150086
2.83200,15.48072323
2.83250,16.70150086
2.83300,15.17552882
2.83350,7.545668632
2.83400,-3.441330045
2.83450,-12.59716228
2.83500,-16.56468958
2.83550,-17.78546721
2.83600,-18.09066162
2.83650,-18.09066162
2.83700,-16.86988398
2.83750,-14.73352313
2.83800,-12.90235668
2.83850,-11.37638465
2.83900,-8.019246161
2.83950,-2.525746822
2.84000,3.578141332
2.84050,9.07164067
2.84100,13.03916797
2.84150,16.39630646
2.84200,18.83786172
2.84250,19.75344494
2.84300,20.05863935
2.84350,22.50019461
2.84400,26.46772191
2.84450,29.51966599
2.84500,30.1300548
2.84550,28.29888836
2.84600,24.63655546
2.84650,17.61708409
2.84700,8.766446263
2.84750,3.883335739
2.84800,5.714502186
2.84850,9.682029486
2.84900,8.766446263
2.84950,2.967752516
2.85000,-0.9997747838
2.85050,-1.304969192
2.85100,-0.9997747838
2.85150,-2.83094123
2.85200,-4.356913269
2.85250,-2.83094123
2.85300,-0.6945803761
2.85350,-1.610163599
2.85400,-6.188079715
2.85450,-10.15560701
2.85500,-10.15560701
2.85550,-7.408857346
2.85600,-5.577690899
2.85650,-5.577690899
2.85700,-5.577690899
2.85750,-3.746524453
2.85800,-0.3893859684
2.85850,3.578141332
2.85900,7.545668632
2.85950,10.59761271
2.86000,10.2924183
2.86050,7.545668632
2.86100,5.10411337
2.86150,5.10411337
2.86200,5.10411337
2.86250,1.13658607
2.86300,-5.577690899
2.86350,-10.46080142
2.86400,-11.68157905
2.86450,-10.46080142
2.86500,-8.629634976
2.86550,-4.356913269
2.86600,3.272946924
2.86650,11.51319593
2.86700,14.56514001
2.86750,12.12358475
2.86800,8.156057447
2.86850,4.493724555
2.86900,1.441780478
2.86950,-1.915358007
2.87000,-3.746524453
2.87050,-1.610163599
2.87100,2.357363701
2.87150,4.798918962
2.87200,4.798918962
2.87250,5.10411337
2.87300,6.935279816
2.87350,8.461251855
2.87400,8.156057447
2.87450,7.240474224
2.87500,7.850863039
2.87550,6.630085409
2.87600,1.441780478
2.87650,-5.577690899
2.87700,-10.76599583
2.87750,-12.90235668
2.87800,-16.86988398
2.87850,-25.11013299
2.87900,-35.18154845
2.87950,-42.81140864
2.88000,-44.03218627
2.88050,-37.92829812
2.88100,-27.85688266
2.88150,-19.92182806
2.88200,-17.78546721
2.88250,-19.00624484
2.88300,-17.4802728
2.88350,-11.07119024
2.88400,-3.136135638
2.88450,2.357363701
2.88500,4.493724555
2.88550,2.357363701
2.88600,-3.136135638
2.88650,-6.188079715
2.88700,-0.9997747838
2.88750,10.90280712
2.88800,21.58461139
2.88850,24.33136106
2.88900,20.05863935
2.88950,13.34436238
2.89000,5.714502186
2.89050,-1.915358007
2.89100,-6.79846853
2.89150,-5.882885307
2.89200,-0.6945803761
2.89250,3.578141332
2.89300,4.188530147
2.89350,0.221002847
2.89400,-5.272496492
2.89450,-8.934829384
2.89500,-9.545218199
2.89550,-8.019246161
2.89600,-6.79846853
2.89650,-6.493274122
2.89700,-6.493274122
2.89750,-5.577690899
2.89800,-4.662107676
2.89850,-2.83094123
2.89900,-0.08419156075
2.89950,2.967752516
2.90000,3.272946924
2.90050,-0.6945803761
2.90100,-7.103662938
2.90150,-13.20755109
2.90200,-17.78546721
2.90250,-20.22702247
2.90300,-18.39585602
2.90350,-12.90235668
2.90400,-6.493274122
2.90450,-3.136135638
2.90500,-2.83094123
