type,name,time_units,begin_time,frequency,count,units
signal,"Noraxon MyoMotion-Segments-Forearm RT-Course","s",0.0000,200,4984,"deg"

time,value
0.0000,-33.95854858
0.0050,-33.95643253
0.0100,-33.95431391
0.0150,-33.95219271
0.0200,-33.94972664
0.0250,-33.94689738
0.0300,-33.94369073
0.0350,-33.94009734
0.0400,-33.93611414
0.0450,-33.93174621
0.0500,-33.92700815
0.0550,-33.92192501
0.0600,-33.91653315
0.0650,-33.91088168
0.0700,-33.90503448
0.0750,-33.89907255
0.0800,-33.89309637
0.0850,-33.88722751
0.0900,-33.88160845
0.0950,-33.87639985
0.1000,-33.87177552
0.1050,-33.86791514
0.1100,-33.8649956
0.1150,-33.86318267
0.1200,-33.86262455
0.1250,-33.86344706
0.1300,-33.86574988
0.1350,-33.86960339
0.1400,-33.87504556
0.1450,-33.88207985
0.1500,-33.89067462
0.1550,-33.89905643
0.1600,-33.90810324
0.1650,-33.91753042
0.1700,-33.92726578
0.1750,-33.93715618
0.1800,-33.94717811
0.1850,-33.95718668
0.1900,-33.96695942
0.1950,-33.97637648
0.2000,-33.98518297
0.2050,-33.99313313
0.2100,-34.00002243
0.2150,-34.00550365
0.2200,-34.00932742
0.2250,-34.01146429
0.2300,-34.01156005
0.2350,-34.0096731
0.2400,-34.0058613
0.2450,-34.00030024
0.2500,-33.99288486
0.2550,-33.98381416
0.2600,-33.97289695
0.2650,-33.96027874
0.2700,-33.9457513
0.2750,-33.92932108
0.2800,-33.91100514
0.2850,-33.89092481
0.2900,-33.86921438
0.2950,-33.8459635
0.3000,-33.82141281
0.3050,-33.79585913
0.3100,-33.76946755
0.3150,-33.74257304
0.3200,-33.71534046
0.3250,-33.6879928
0.3300,-33.66039763
0.3350,-33.63260495
0.3400,-33.6050498
0.3450,-33.57770312
0.3500,-33.55065191
0.3550,-33.52413043
0.3600,-33.49812322
0.3650,-33.47280798
0.3700,-33.44828261
0.3750,-33.42465229
0.3800,-33.40222508
0.3850,-33.38080281
0.3900,-33.36045603
0.3950,-33.34115735
0.4000,-33.32260821
0.4050,-33.30471426
0.4100,-33.28725418
0.4150,-33.26999619
0.4200,-33.25271892
0.4250,-33.23530386
0.4300,-33.21757925
0.4350,-33.19942163
0.4400,-33.18056002
0.4450,-33.1610302
0.4500,-33.14068464
0.4550,-33.1195435
0.4600,-33.09720973
0.4650,-33.0736728
0.4700,-33.04869161
0.4750,-33.02207465
0.4800,-32.99379456
0.4850,-32.96375408
0.4900,-32.93182858
0.4950,-32.89833993
0.5000,-32.86329589
0.5050,-32.82683752
0.5100,-32.7889337
0.5150,-32.74989675
0.5200,-32.70986997
0.5250,-32.66880652
0.5300,-32.62716419
0.5350,-32.58520478
0.5400,-32.54283595
0.5450,-32.50024359
0.5500,-32.45771224
0.5550,-32.41523057
0.5600,-32.37306263
0.5650,-32.3310556
0.5700,-32.28929272
0.5750,-32.24798089
0.5800,-32.20722289
0.5850,-32.1670468
0.5900,-32.12737217
0.5950,-32.08825822
0.6000,-32.04940736
0.6050,-32.01090617
0.6100,-31.97253223
0.6150,-31.93416186
0.6200,-31.89561329
0.6250,-31.85701535
0.6300,-31.81858494
0.6350,-31.7803349
0.6400,-31.74247246
0.6450,-31.70503102
0.6500,-31.66799939
0.6550,-31.63137437
0.6600,-31.59537597
0.6650,-31.56018996
0.6700,-31.52590116
0.6750,-31.49262372
0.6800,-31.46031714
0.6850,-31.42912213
0.6900,-31.39891238
0.6950,-31.36990971
0.7000,-31.34213271
0.7050,-31.3154937
0.7100,-31.29008218
0.7150,-31.26597487
0.7200,-31.24300191
0.7250,-31.22130087
0.7300,-31.20062006
0.7350,-31.18100265
0.7400,-31.16240783
0.7450,-31.14462548
0.7500,-31.12749368
0.7550,-31.11069216
0.7600,-31.09439335
0.7650,-31.07856918
0.7700,-31.06310457
0.7750,-31.04805843
0.7800,-31.03320499
0.7850,-31.01852502
0.7900,-31.00394021
0.7950,-30.98925099
0.8000,-30.97429649
0.8050,-30.95891315
0.8100,-30.9431453
0.8150,-30.92667858
0.8200,-30.90941081
0.8250,-30.89130404
0.8300,-30.87197883
0.8350,-30.85118731
0.8400,-30.82906244
0.8450,-30.80529982
0.8500,-30.77974479
0.8550,-30.75237547
0.8600,-30.7229831
0.8650,-30.69147028
0.8700,-30.65784855
0.8750,-30.62199537
0.8800,-30.58373096
0.8850,-30.54312984
0.8900,-30.50005033
0.8950,-30.45454712
0.9000,-30.40675472
0.9050,-30.35668726
0.9100,-30.30473681
0.9150,-30.25121824
0.9200,-30.19645879
0.9250,-30.14081159
0.9300,-30.08450095
0.9350,-30.0278804
0.9400,-29.97128555
0.9450,-29.91508679
0.9500,-29.8595137
0.9550,-29.80495953
0.9600,-29.75149363
0.9650,-29.69938959
0.9700,-29.64903088
0.9750,-29.60043707
0.9800,-29.55394596
0.9850,-29.51000155
0.9900,-29.46895725
0.9950,-29.43081774
1.0000,-29.39569996
1.0050,-29.36355007
1.0100,-29.33403825
1.0150,-29.30694882
1.0200,-29.28203744
1.0250,-29.25880747
1.0300,-29.23709121
1.0350,-29.21668976
1.0400,-29.19740823
1.0450,-29.17910359
1.0500,-29.16158675
1.0550,-29.14495154
1.0600,-29.12898096
1.0650,-29.11361157
1.0700,-29.0989189
1.0750,-29.08486309
1.0800,-29.07157686
1.0850,-29.05910248
1.0900,-29.04757144
1.0950,-29.03700819
1.1000,-29.02763414
1.1050,-29.01972358
1.1100,-29.01306942
1.1150,-29.00789391
1.1200,-29.0042078
1.1250,-29.00182931
1.1300,-29.00084173
1.1350,-29.00086616
1.1400,-29.00179288
1.1450,-29.00329423
1.1500,-29.00508417
1.1550,-29.00695422
1.1600,-29.00880367
1.1650,-29.01029071
1.1700,-29.01122762
1.1750,-29.01144248
1.1800,-29.01066445
1.1850,-29.00880906
1.1900,-29.00581734
1.1950,-29.00168226
1.2000,-28.99644504
1.2050,-28.99020399
1.2100,-28.98278753
1.2150,-28.97410075
1.2200,-28.96403898
1.2250,-28.9526047
1.2300,-28.93982142
1.2350,-28.92561602
1.2400,-28.9099779
1.2450,-28.8927122
1.2500,-28.87379247
1.2550,-28.85302505
1.2600,-28.83040762
1.2650,-28.80588164
1.2700,-28.77904112
1.2750,-28.7500095
1.2800,-28.71858014
1.2850,-28.68461725
1.2900,-28.64780909
1.2950,-28.6080268
1.3000,-28.56536996
1.3050,-28.52000936
1.3100,-28.47203854
1.3150,-28.42125953
1.3200,-28.36797635
1.3250,-28.31214027
1.3300,-28.25378349
1.3350,-28.19283267
1.3400,-28.12919993
1.3450,-28.0628066
1.3500,-27.99382906
1.3550,-27.92232741
1.3600,-27.84844051
1.3650,-27.77224619
1.3700,-27.69370089
1.3750,-27.61290473
1.3800,-27.52959718
1.3850,-27.44385069
1.3900,-27.35542454
1.3950,-27.26435356
1.4000,-27.17057734
1.4050,-27.07385942
1.4100,-26.97442905
1.4150,-26.87240695
1.4200,-26.76776923
1.4250,-26.6607283
1.4300,-26.55121322
1.4350,-26.43970302
1.4400,-26.32585358
1.4450,-26.20981598
1.4500,-26.09155374
1.4550,-25.9710639
1.4600,-25.84846313
1.4650,-25.7238994
1.4700,-25.59747846
1.4750,-25.46910434
1.4800,-25.33886586
1.4850,-25.20676529
1.4900,-25.07283639
1.4950,-24.9370042
1.5000,-24.79925647
1.5050,-24.65962795
1.5100,-24.51810059
1.5150,-24.37472619
1.5200,-24.22964703
1.5250,-24.08268638
1.5300,-23.93378122
1.5350,-23.78307896
1.5400,-23.63032155
1.5450,-23.47586499
1.5500,-23.31977829
1.5550,-23.16195775
1.5600,-23.00251511
1.5650,-22.8415077
1.5700,-22.67903384
1.5750,-22.5152856
1.5800,-22.35044376
1.5850,-22.18449526
1.5900,-22.01765513
1.5950,-21.84991904
1.6000,-21.68111427
1.6050,-21.51072067
1.6100,-21.33855398
1.6150,-21.1646131
1.6200,-20.98877651
1.6250,-20.81117965
1.6300,-20.63160472
1.6350,-20.45029577
1.6400,-20.26713329
1.6450,-20.08221584
1.6500,-19.89548206
1.6550,-19.70655601
1.6600,-19.51548017
1.6650,-19.32205258
1.6700,-19.1266613
1.6750,-18.92924438
1.6800,-18.73000732
1.6850,-18.52893581
1.6900,-18.32605375
1.6950,-18.12144915
1.7000,-17.91533253
1.7050,-17.70773902
1.7100,-17.49870638
1.7150,-17.28806344
1.7200,-17.07599581
1.7250,-16.86235331
1.7300,-16.64704112
1.7350,-16.42996761
1.7400,-16.21112479
1.7450,-15.99052666
1.7500,-15.76792751
1.7550,-15.54308886
1.7600,-15.3157618
1.7650,-15.08583766
1.7700,-14.85290421
1.7750,-14.61720263
1.7800,-14.37862407
1.7850,-14.13719667
1.7900,-13.89301033
1.7950,-13.64612402
1.8000,-13.39658436
1.8050,-13.14432296
1.8100,-12.88954228
1.8150,-12.63221813
1.8200,-12.37218927
1.8250,-12.10930482
1.8300,-11.84369844
1.8350,-11.5753593
1.8400,-11.30433895
1.8450,-11.03050146
1.8500,-10.75384132
1.8550,-10.47447878
1.8600,-10.19246147
1.8650,-9.907245789
1.8700,-9.619024706
1.8750,-9.327379887
1.8800,-9.032210475
1.8850,-8.733202583
1.8900,-8.430427631
1.8950,-8.123520691
1.9000,-7.812438852
1.9050,-7.497484539
1.9100,-7.1789807
1.9150,-6.856869452
1.9200,-6.530730898
1.9250,-6.200432686
1.9300,-5.865970406
1.9350,-5.527161683
1.9400,-5.184020959
1.9450,-4.836421293
1.9500,-4.484285148
1.9550,-4.128105802
1.9600,-3.767566064
1.9650,-3.402963367
1.9700,-3.033878751
1.9750,-2.6604881
1.9800,-2.282666487
1.9850,-1.900370441
1.9900,-1.513828479
1.9950,-1.12277615
2.0000,-0.7268316764
2.0050,-0.3265514845
2.0100,0.07836237232
2.0150,0.4879316179
2.0200,0.9020785622
2.0250,1.320426611
2.0300,1.742928438
2.0350,2.169703409
2.0400,2.600290609
2.0450,3.034989338
2.0500,3.473293789
2.0550,3.914909381
2.0600,4.359898588
2.0650,4.808125866
2.0700,5.259428307
2.0750,5.713844151
2.0800,6.170946615
2.0850,6.630611378
2.0900,7.092714542
2.0950,7.557278066
2.1000,8.024175775
2.1050,8.493251894
2.1100,8.964580621
2.1150,9.437776216
2.1200,9.912681167
2.1250,10.38850633
2.1300,10.86528418
2.1350,11.3430359
2.1400,11.82156973
2.1450,12.30046375
2.1500,12.77948081
2.1550,13.25869068
2.1600,13.73791303
2.1650,14.2165195
2.1700,14.69478392
2.1750,15.17215466
2.1800,15.64892555
2.1850,16.12477864
2.1900,16.60002974
2.1950,17.07440427
2.2000,17.54792549
2.2050,18.02034586
2.2100,18.49186737
2.2150,18.96247062
2.2200,19.43193299
2.2250,19.90023674
2.2300,20.36750902
2.2350,20.83361554
2.2400,21.29848265
2.2450,21.76215149
2.2500,22.22432258
2.2550,22.68509069
2.2600,23.14431852
2.2650,23.60186644
2.2700,24.0575435
2.2750,24.51151066
2.2800,24.96375903
2.2850,25.41408659
2.2900,25.86248485
2.2950,26.30914994
2.3000,26.75401446
2.3050,27.19754851
2.3100,27.63936664
2.3150,28.07927294
2.3200,28.51751574
2.3250,28.95431556
2.3300,29.389325
2.3350,29.82249951
2.3400,30.25402089
2.3450,30.68329484
2.3500,31.1104447
2.3550,31.53549472
2.3600,31.95798767
2.3650,32.37835069
2.3700,32.79608533
2.3750,33.21083749
2.3800,33.62269673
2.3850,34.03148352
2.3900,34.43726743
2.3950,34.83987669
2.4000,35.23947836
2.4050,35.63590266
2.4100,36.02904995
2.4150,36.41888864
2.4200,36.80552032
2.4250,37.18905051
2.4300,37.56922896
2.4350,37.94571932
2.4400,38.31838116
2.4450,38.68712024
2.4500,39.05168672
2.4550,39.41192786
2.4600,39.7676394
2.4650,40.11874136
2.4700,40.4652526
2.4750,40.80708657
2.4800,41.14432262
2.4850,41.47698202
2.4900,41.8053464
2.4950,42.12966219
2.5000,42.44971656
2.5050,42.76580522
2.5100,43.07826812
2.5150,43.3872751
2.5200,43.69285491
2.5250,43.9948673
2.5300,44.29334448
2.5350,44.58858025
2.5400,44.88073793
2.5450,45.16979713
2.5500,45.45595051
2.5550,45.73895129
2.5600,46.01903865
2.5650,46.29649071
2.5700,46.57097641
2.5750,46.84237087
2.5800,47.11019204
2.5850,47.37444183
2.5900,47.63556643
2.5950,47.89389004
2.6000,48.14947796
2.6050,48.40186662
2.6100,48.65129254
2.6150,48.89801102
2.6200,49.14202424
2.6250,49.38315409
2.6300,49.62122846
2.6350,49.85653492
2.6400,50.08938649
2.6450,50.32002975
2.6500,50.54848169
2.6550,50.77495633
2.6600,50.99946833
2.6650,51.22173986
2.6700,51.44167405
2.6750,51.65902714
2.6800,51.87384167
2.6850,52.0856932
2.6900,52.29496073
2.6950,52.50157214
2.7000,52.70559698
2.7050,52.90725654
2.7100,53.1068463
2.7150,53.30424974
2.7200,53.49909644
2.7250,53.69163491
2.7300,53.88200164
2.7350,54.07050878
2.7400,54.25687191
2.7450,54.44148361
2.7500,54.62403459
2.7550,54.8043038
2.7600,54.98224306
2.7650,55.15825979
2.7700,55.33256929
2.7750,55.50569636
2.7800,55.67756428
2.7850,55.84835046
2.7900,56.01780949
2.7950,56.18565487
2.8000,56.35213773
2.8050,56.51729397
2.8100,56.68117569
2.8150,56.84366416
2.8200,57.00470189
2.8250,57.1646984
2.8300,57.32363332
2.8350,57.4817311
2.8400,57.63902255
2.8450,57.79522359
2.8500,57.95019711
2.8550,58.10410459
2.8600,58.25673968
2.8650,58.40777876
2.8700,58.55747983
2.8750,58.70538762
2.8800,58.85191451
2.8850,58.99723923
2.8900,59.14078642
2.8950,59.28232131
2.9000,59.42178519
2.9050,59.55972114
2.9100,59.69584452
2.9150,59.83046336
2.9200,59.96347967
2.9250,60.09510831
2.9300,60.22563563
2.9350,60.35481599
2.9400,60.48257604
2.9450,60.6086078
2.9500,60.73306078
2.9550,60.85569841
2.9600,60.97640501
2.9650,61.09527265
2.9700,61.21238076
2.9750,61.32806634
2.9800,61.44194176
2.9850,61.5543376
2.9900,61.66509418
2.9950,61.77464265
3.0000,61.88263332
3.0050,61.98883204
3.0100,62.09302149
3.0150,62.19522878
3.0200,62.29571183
3.0250,62.39436948
3.0300,62.49127055
3.0350,62.58677406
3.0400,62.68142313
3.0450,62.77502995
3.0500,62.86748176
3.0550,62.95853159
3.0600,63.04839946
3.0650,63.1372629
3.0700,63.2250271
3.0750,63.31120977
3.0800,63.39566168
3.0850,63.4781953
3.0900,63.5592059
3.0950,63.63883761
3.1000,63.71674349
3.1050,63.79297244
3.1100,63.867474
3.1150,63.94028884
3.1200,64.01170859
3.1250,64.08199817
3.1300,64.15147701
3.1350,64.22013306
3.1400,64.28800634
3.1450,64.35501697
3.1500,64.42103308
3.1550,64.48607159
3.1600,64.54990485
3.1650,64.61304771
3.1700,64.67566408
3.1750,64.73842682
3.1800,64.80133404
3.1850,64.86431109
3.1900,64.92734062
3.1950,64.99055592
3.2000,65.05400401
3.2050,65.11756493
3.2100,65.18109479
3.2150,65.24461354
3.2200,65.3084048
3.2250,65.37247535
3.2300,65.43668898
3.2350,65.50076909
3.2400,65.56474655
3.2450,65.62898779
3.2500,65.69311961
3.2550,65.75728277
3.2600,65.82150144
3.2650,65.88552582
3.2700,65.94930599
3.2750,66.01271915
3.2800,66.07570983
3.2850,66.1381851
3.2900,66.20022512
3.2950,66.26163803
3.3000,66.32277925
3.3050,66.3836364
3.3100,66.44435553
3.3150,66.50551272
3.3200,66.56734512
3.3250,66.62967747
3.3300,66.6927474
3.3350,66.75635084
3.3400,66.82043804
3.3450,66.88501424
3.3500,66.95057327
3.3550,67.01750025
3.3600,67.08565473
3.3650,67.15503463
3.3700,67.2255157
3.3750,67.29703466
3.3800,67.36956493
3.3850,67.44295962
3.3900,67.51720736
3.3950,67.59233486
3.4000,67.66846777
3.4050,67.7453753
3.4100,67.82288209
3.4150,67.90112811
3.4200,67.98015293
3.4250,68.05961492
3.4300,68.13927501
3.4350,68.2189534
3.4400,68.29844649
3.4450,68.37809692
3.4500,68.45792697
3.4550,68.53803825
3.4600,68.61856727
3.4650,68.69922772
3.4700,68.77942679
3.4750,68.85904353
3.4800,68.9375446
3.4850,69.01507154
3.4900,69.09189392
3.4950,69.16803794
3.5000,69.24291521
3.5050,69.31633345
3.5100,69.38829457
3.5150,69.45837531
3.5200,69.52575806
3.5250,69.59009141
3.5300,69.65143273
3.5350,69.71008752
3.5400,69.76572096
3.5450,69.81808915
3.5500,69.86731173
3.5550,69.91308856
3.5600,69.95552619
3.5650,69.99459719
3.5700,70.03025081
3.5750,70.06264666
3.5800,70.09197927
3.5850,70.11850794
3.5900,70.14247585
3.5950,70.16387029
3.6000,70.18268464
3.6050,70.19918361
3.6100,70.21359083
3.6150,70.22556098
3.6200,70.23548889
3.6250,70.24391175
3.6300,70.25088951
3.6350,70.25646247
3.6400,70.26086223
3.6450,70.264232
3.6500,70.26661302
3.6550,70.26818512
3.6600,70.26918055
3.6650,70.2698407
3.6700,70.27020892
3.6750,70.27071079
3.6800,70.27163626
3.6850,70.27313964
3.6900,70.27514961
3.6950,70.27773415
3.7000,70.2808906
3.7050,70.28501709
3.7100,70.29044238
3.7150,70.29706189
3.7200,70.30479813
3.7250,70.31360387
3.7300,70.32377971
3.7350,70.33536463
3.7400,70.34845994
3.7450,70.36288045
3.7500,70.37860842
3.7550,70.3953142
3.7600,70.41299815
3.7650,70.43144361
3.7700,70.45104318
3.7750,70.47147303
3.7800,70.49313805
3.7850,70.51583296
3.7900,70.53906254
3.7950,70.56269707
3.8000,70.58682399
3.8050,70.61152525
3.8100,70.63668824
3.8150,70.66235103
3.8200,70.68869772
3.8250,70.71572628
3.8300,70.74327919
3.8350,70.7713166
3.8400,70.79969223
3.8450,70.82818083
3.8500,70.85676897
3.8550,70.88560824
3.8600,70.91485001
3.8650,70.94415294
3.8700,70.9735878
3.8750,71.00310595
3.8800,71.03273732
3.8850,71.06228177
3.8900,71.09154421
3.8950,71.12031529
3.9000,71.14866214
3.9050,71.17664729
3.9100,71.20411078
3.9150,71.23132087
3.9200,71.25808125
3.9250,71.28444351
3.9300,71.31041271
3.9350,71.3360938
3.9400,71.36132287
3.9450,71.38615454
3.9500,71.41052817
3.9550,71.43443233
3.9600,71.45781508
3.9650,71.48048932
3.9700,71.50250104
3.9750,71.52372772
3.9800,71.54419367
3.9850,71.56384889
3.9900,71.58288712
3.9950,71.6012559
4.0000,71.61921447
4.0050,71.63642384
4.0100,71.65236079
4.0150,71.66729139
4.0200,71.68120416
4.0250,71.69424388
4.0300,71.7059525
4.0350,71.7163366
4.0400,71.72511414
4.0450,71.73210748
4.0500,71.73722804
4.0550,71.74071073
4.0600,71.74225417
4.0650,71.74186669
4.0700,71.73954958
4.0750,71.73516967
4.0800,71.72855952
4.0850,71.71981832
4.0900,71.70897162
4.0950,71.69598953
4.1000,71.68107151
4.1050,71.66428448
4.1100,71.64570057
4.1150,71.62516417
4.1200,71.60321441
4.1250,71.57959886
4.1300,71.55431461
4.1350,71.52713453
4.1400,71.49813735
4.1450,71.46761774
4.1500,71.43524866
4.1550,71.40102647
4.1600,71.36463371
4.1650,71.32643024
4.1700,71.28627651
4.1750,71.24425235
4.1800,71.20032614
4.1850,71.1547367
4.1900,71.10731196
4.1950,71.05804521
4.2000,71.006858
4.2050,70.9536473
4.2100,70.89850532
4.2150,70.84156312
4.2200,70.7830362
4.2250,70.7231662
4.2300,70.66204243
4.2350,70.59999812
4.2400,70.53726567
4.2450,70.47391472
4.2500,70.4100419
4.2550,70.3456902
4.2600,70.28083921
4.2650,70.21545041
4.2700,70.14964538
4.2750,70.0837381
4.2800,70.01774186
4.2850,69.95183472
4.2900,69.88595932
4.2950,69.82024729
4.3000,69.75447819
4.3050,69.68896995
4.3100,69.62379206
4.3150,69.55889078
4.3200,69.49394918
4.3250,69.42887117
4.3300,69.36369529
4.3350,69.29849926
4.3400,69.23346433
4.3450,69.16883935
4.3500,69.10490369
4.3550,69.04149207
4.3600,68.9786183
4.3650,68.9161953
4.3700,68.85413122
4.3750,68.79233507
4.3800,68.73089498
4.3850,68.66977917
4.3900,68.60931461
4.3950,68.54943991
4.4000,68.48989054
4.4050,68.43076981
4.4100,68.37202122
4.4150,68.31352611
4.4200,68.25493585
4.4250,68.19679498
4.4300,68.13905379
4.4350,68.08199395
4.4400,68.02549379
4.4450,67.96933789
4.4500,67.91355095
4.4550,67.85802446
4.4600,67.80273899
4.4650,67.74756694
4.4700,67.69203856
4.4750,67.63574327
4.4800,67.57849072
4.4850,67.51992257
4.4900,67.46023146
4.4950,67.39962348
4.5000,67.33831805
4.5050,67.27647842
4.5100,67.21405976
4.5150,67.15125882
4.5200,67.08795654
4.5250,67.02396693
4.5300,66.95901248
4.5350,66.89262235
4.5400,66.8244944
4.5450,66.75439987
4.5500,66.68237784
4.5550,66.60862649
4.5600,66.53324998
4.5650,66.45609216
4.5700,66.37692525
4.5750,66.29550159
4.5800,66.21153754
4.5850,66.12517586
4.5900,66.03609203
4.5950,65.94388171
4.6000,65.84869389
4.6050,65.75006938
4.6100,65.64829264
4.6150,65.5432655
4.6200,65.43522658
4.6250,65.32375097
4.6300,65.20887005
4.6350,65.09025872
4.6400,64.9678254
4.6450,64.84132408
4.6500,64.71027429
4.6550,64.5747913
4.6600,64.43477288
4.6650,64.29073718
4.6700,64.14265861
4.6750,63.99068047
4.6800,63.83449348
4.6850,63.67376053
4.6900,63.50812996
4.6950,63.33749144
4.7000,63.16222184
4.7050,62.98193581
4.7100,62.79675782
4.7150,62.60645305
4.7200,62.41091453
4.7250,62.20975691
4.7300,62.00332233
4.7350,61.79128461
4.7400,61.57387662
4.7450,61.35132712
4.7500,61.12359147
4.7550,60.89062867
4.7600,60.65233955
4.7650,60.40867725
4.7700,60.15996432
4.7750,59.90628343
4.7800,59.64770816
4.7850,59.38436204
4.7900,59.11634583
4.7950,58.84337445
4.8000,58.5655212
4.8050,58.28263363
4.8100,57.99468302
4.8150,57.70117065
4.8200,57.40180969
4.8250,57.09654352
4.8300,56.78548968
4.8350,56.46864216
4.8400,56.14620211
4.8450,55.81843201
4.8500,55.48519094
4.8550,55.14589984
4.8600,54.80064748
4.8650,54.44922534
4.8700,54.09160024
4.8750,53.72750068
4.8800,53.35688317
4.8850,52.97936595
4.8900,52.5951564
4.8950,52.20446952
4.9000,51.80722152
4.9050,51.40382366
4.9100,50.99404528
4.9150,50.57754846
4.9200,50.15384883
4.9250,49.72252216
4.9300,49.28363871
4.9350,48.83671135
4.9400,48.38178134
4.9450,47.91877612
4.9500,47.44763503
4.9550,46.96792966
4.9600,46.47977541
4.9650,45.98264785
4.9700,45.47618821
4.9750,44.96076528
4.9800,44.43613976
4.9850,43.90247319
4.9900,43.35969479
4.9950,42.80729302
5.0000,42.24486838
5.0050,41.67274429
5.0100,41.09122788
5.0150,40.50093574
5.0200,39.90143669
5.0250,39.29291397
5.0300,38.67503315
5.0350,38.04835269
5.0400,37.41307113
5.0450,36.76898764
5.0500,36.11649888
5.0550,35.45603149
5.0600,34.78813388
5.0650,34.11296938
5.0700,33.4310537
5.0750,32.74221407
5.0800,32.04703182
5.0850,31.34574623
5.0900,30.63827053
5.0950,29.9253407
5.1000,29.20777257
5.1050,28.48629946
5.1100,27.76156878
5.1150,27.03435579
5.1200,26.30530645
5.1250,25.57462802
5.1300,24.84242904
5.1350,24.10937786
5.1400,23.37592281
5.1450,22.64217787
5.1500,21.90894666
5.1550,21.17647214
5.1600,20.44549215
5.1650,19.716685
5.1700,18.99013279
5.1750,18.26627438
5.1800,17.54526839
5.1850,16.82769946
5.1900,16.11438288
5.1950,15.40546994
5.2000,14.70152999
5.2050,14.00262101
5.2100,13.3097854
5.2150,12.62322932
5.2200,11.94365996
5.2250,11.27130907
5.2300,10.60614678
5.2350,9.949036171
5.2400,9.299653719
5.2450,8.658966079
5.2500,8.027002495
5.2550,7.403915653
5.2600,6.789931541
5.2650,6.185218869
5.2700,5.589904912
5.2750,5.004196593
5.2800,4.42843699
5.2850,3.862830691
5.2900,3.307557696
5.2950,2.763021856
5.3000,2.228961657
5.3050,1.705580058
5.3100,1.192752513
5.3150,0.6907727458
5.3200,0.1996982823
5.3250,-0.2807798485
5.3300,-0.7510735006
5.3350,-1.210845424
5.3400,-1.660425802
5.3450,-2.099522528
5.3500,-2.528562565
5.3550,-2.947752485
5.3600,-3.357382743
5.3650,-3.757104323
5.3700,-4.146855905
5.3750,-4.526944539
5.3800,-4.898008667
5.3850,-5.260728837
5.3900,-5.616260638
5.3950,-5.96546814
5.4000,-6.308802289
5.4050,-6.646401465
5.4100,-6.978239591
5.4150,-7.304455829
5.4200,-7.625141852
5.4250,-7.940080024
5.4300,-8.249810785
5.4350,-8.554470084
5.4400,-8.85373286
5.4450,-9.147469822
5.4500,-9.435333
5.4550,-9.717150141
5.4600,-9.992726024
5.4650,-10.26162775
5.4700,-10.52343223
5.4750,-10.77810553
5.4800,-11.02588877
5.4850,-11.26703378
5.4900,-11.50197785
5.4950,-11.73084198
5.5000,-11.95391844
5.5050,-12.17155224
5.5100,-12.38423261
5.5150,-12.59191989
5.5200,-12.79469323
5.5250,-12.99215522
5.5300,-13.18433264
5.5350,-13.37133205
5.5400,-13.55255006
5.5450,-13.72822321
5.5500,-13.89795764
5.5550,-14.06159947
5.5600,-14.21906026
5.5650,-14.37062209
5.5700,-14.51646206
5.5750,-14.65649188
5.5800,-14.79092726
5.5850,-14.92002384
5.5900,-15.04402271
5.5950,-15.1632976
5.6000,-15.27788177
5.6050,-15.38778484
5.6100,-15.49338783
5.6150,-15.59469924
5.6200,-15.69193599
5.6250,-15.78559674
5.6300,-15.87589602
5.6350,-15.96378114
5.6400,-16.04968052
5.6450,-16.13427771
5.6500,-16.21800832
5.6550,-16.30076399
5.6600,-16.38245559
5.6650,-16.46315672
5.6700,-16.54284861
5.6750,-16.62118943
5.6800,-16.69806478
5.6850,-16.77313787
5.6900,-16.84613837
5.6950,-16.91691609
5.7000,-16.9853806
5.7050,-17.05145982
5.7100,-17.11533845
5.7150,-17.17701187
5.7200,-17.23613468
5.7250,-17.29289813
5.7300,-17.34717901
5.7350,-17.39907988
5.7400,-17.4490376
5.7450,-17.4969818
5.7500,-17.54333989
5.7550,-17.58806053
5.7600,-17.63165557
5.7650,-17.6743657
5.7700,-17.71633066
5.7750,-17.7579066
5.7800,-17.79909856
5.7850,-17.83964175
5.7900,-17.87963398
5.7950,-17.91873335
5.8000,-17.9566489
5.8050,-17.99319561
5.8100,-18.02811051
5.8150,-18.06131804
5.8200,-18.09246321
5.8250,-18.12162604
5.8300,-18.14849908
5.8350,-18.17298422
5.8400,-18.19528738
5.8450,-18.21542137
5.8500,-18.23358866
5.8550,-18.24972144
5.8600,-18.26382731
5.8650,-18.27593011
5.8700,-18.28549462
5.8750,-18.29262048
5.8800,-18.29736802
5.8850,-18.29957663
5.8900,-18.29952783
5.8950,-18.29713109
5.9000,-18.2924588
5.9050,-18.28549832
5.9100,-18.27602989
5.9150,-18.26430979
5.9200,-18.25029229
5.9250,-18.23371592
5.9300,-18.21498063
5.9350,-18.19381689
5.9400,-18.17024657
5.9450,-18.14407856
5.9500,-18.11507294
5.9550,-18.08369087
5.9600,-18.05021204
5.9650,-18.01479388
5.9700,-17.97755273
5.9750,-17.9384999
5.9800,-17.89746012
5.9850,-17.85441168
5.9900,-17.80908714
5.9950,-17.76115337
6.0000,-17.71079684
6.0050,-17.65814165
6.0100,-17.60317941
6.0150,-17.54585493
6.0200,-17.48621036
6.0250,-17.42426791
6.0300,-17.35977158
6.0350,-17.2927091
6.0400,-17.22268986
6.0450,-17.14975139
6.0500,-17.07376026
6.0550,-16.99467095
6.0600,-16.9123089
6.0650,-16.82654797
6.0700,-16.73739809
6.0750,-16.64491294
6.0800,-16.54929198
6.0850,-16.45073877
6.0900,-16.34934006
6.0950,-16.24542045
6.1000,-16.13946936
6.1050,-16.03149051
6.1100,-15.92151008
6.1150,-15.80985302
6.1200,-15.69654905
6.1250,-15.5818289
6.1300,-15.46615461
6.1350,-15.34967101
6.1400,-15.23242905
6.1450,-15.11447298
6.1500,-14.99595858
6.1550,-14.87722873
6.1600,-14.75824938
6.1650,-14.63903768
6.1700,-14.51998325
6.1750,-14.40127319
6.1800,-14.2828512
6.1850,-14.16502294
6.1900,-14.04775789
6.1950,-13.93125751
6.2000,-13.81550002
6.2050,-13.70059154
6.2100,-13.58674479
6.2150,-13.47389302
6.2200,-13.36217172
6.2250,-13.25177841
6.2300,-13.14279329
6.2350,-13.03516464
6.2400,-12.92893095
6.2450,-12.8238918
6.2500,-12.72002257
6.2550,-12.61690393
6.2600,-12.51400146
6.2650,-12.41113016
6.2700,-12.30809847
6.2750,-12.2049203
6.2800,-12.1016948
6.2850,-11.99864594
6.2900,-11.89598143
6.2950,-11.79421611
6.3000,-11.69329528
6.3050,-11.59319908
6.3100,-11.49370382
6.3150,-11.39470558
6.3200,-11.29634377
6.3250,-11.19838165
6.3300,-11.10099554
6.3350,-11.00404451
6.3400,-10.90782706
6.3450,-10.8124102
6.3500,-10.71789755
6.3550,-10.624507
6.3600,-10.53238549
6.3650,-10.44205221
6.3700,-10.35330406
6.3750,-10.26621829
6.3800,-10.18053824
6.3850,-10.09633719
6.3900,-10.01337021
6.3950,-9.931834672
6.4000,-9.851469444
6.4050,-9.772417819
6.4100,-9.694824171
6.4150,-9.618523373
6.4200,-9.543917527
6.4250,-9.4709805
6.4300,-9.39981924
6.4350,-9.330654043
6.4400,-9.263612253
6.4450,-9.198599279
6.4500,-9.135670445
6.4550,-9.074486665
6.4600,-9.015067628
6.4650,-8.95700783
6.4700,-8.900047532
6.4750,-8.844044282
6.4800,-8.78879193
6.4850,-8.734083202
6.4900,-8.679920023
6.4950,-8.626070724
6.5000,-8.572735729
6.5050,-8.519711162
6.5100,-8.466898551
6.5150,-8.414438796
6.5200,-8.362520726
6.5250,-8.311358087
6.5300,-8.260733782
6.5350,-8.21103847
6.5400,-8.162206551
6.5450,-8.11454906
6.5500,-8.068249048
6.5550,-8.023528065
6.5600,-7.980883512
6.5650,-7.940331909
6.5700,-7.902285182
6.5750,-7.867034157
6.5800,-7.834650627
6.5850,-7.80520727
6.5900,-7.77870007
6.5950,-7.754727742
6.6000,-7.733399503
6.6050,-7.714383773
6.6100,-7.697824054
6.6150,-7.683612229
6.6200,-7.671443461
6.6250,-7.661295217
6.6300,-7.652985253
6.6350,-7.646600936
6.6400,-7.642009683
6.6450,-7.639180135
6.6500,-7.638226031
6.6550,-7.63902106
6.6600,-7.641430568
6.6650,-7.645299726
6.6700,-7.650627271
6.6750,-7.657369752
6.6800,-7.665546083
6.6850,-7.675197665
6.6900,-7.686277791
6.6950,-7.698595234
6.7000,-7.712277068
6.7050,-7.726984155
6.7100,-7.742996402
6.7150,-7.760222825
6.7200,-7.778570484
6.7250,-7.797959638
6.7300,-7.818269296
6.7350,-7.839397817
6.7400,-7.861176829
6.7450,-7.883406167
6.7500,-7.905828515
6.7550,-7.928291342
6.7600,-7.950744456
6.7650,-7.973407102
6.7700,-7.99624604
6.7750,-8.019111324
6.7800,-8.042193522
6.7850,-8.065541627
6.7900,-8.088989403
6.7950,-8.112569624
6.8000,-8.136265466
6.8050,-8.160289228
6.8100,-8.184773518
6.8150,-8.209440947
6.8200,-8.234290571
6.8250,-8.258981347
6.8300,-8.283818808
6.8350,-8.308594069
6.8400,-8.333409703
6.8450,-8.35804754
6.8500,-8.382442744
6.8550,-8.406538625
6.8600,-8.430075555
6.8650,-8.453265693
6.8700,-8.475900797
6.8750,-8.49753001
6.8800,-8.517999312
6.8850,-8.536970403
6.8900,-8.554346963
6.8950,-8.570191331
6.9000,-8.584171371
6.9050,-8.596370398
6.9100,-8.606858506
6.9150,-8.615606335
6.9200,-8.622758182
6.9250,-8.628724506
6.9300,-8.633499632
6.9350,-8.637139098
6.9400,-8.639633626
6.9450,-8.64102768
6.9500,-8.641232268
6.9550,-8.640255879
6.9600,-8.638479289
6.9650,-8.635822118
6.9700,-8.632843607
6.9750,-8.629573492
6.9800,-8.626485809
6.9850,-8.623630646
6.9900,-8.621512357
6.9950,-8.620201187
7.0000,-8.619396005
7.0050,-8.619252146
7.0100,-8.619432539
7.0150,-8.619952202
7.0200,-8.620621221
7.0250,-8.621452334
7.0300,-8.622495593
7.0350,-8.623707469
7.0400,-8.625390501
7.0450,-8.627841016
7.0500,-8.63125861
7.0550,-8.635808225
7.0600,-8.641478781
7.0650,-8.648223642
7.0700,-8.656063023
7.0750,-8.665202672
7.0800,-8.675370564
7.0850,-8.686616279
7.0900,-8.699127635
7.0950,-8.712912852
7.1000,-8.727982847
7.1050,-8.744252575
7.1100,-8.761614588
7.1150,-8.780158075
7.1200,-8.799702669
7.1250,-8.820398881
7.1300,-8.842188141
7.1350,-8.86491122
7.1400,-8.888498354
7.1450,-8.913078079
7.1500,-8.938844572
7.1550,-8.965794711
7.1600,-8.994017873
7.1650,-9.023313639
7.1700,-9.053734181
7.1750,-9.085476852
7.1800,-9.118564507
7.1850,-9.153154231
7.1900,-9.189174502
7.1950,-9.22657891
7.2000,-9.265251713
7.2050,-9.305020384
7.2100,-9.345741418
7.2150,-9.387097304
7.2200,-9.428960567
7.2250,-9.47097137
7.2300,-9.513039885
7.2350,-9.55501195
7.2400,-9.597061675
7.2450,-9.639028602
7.2500,-9.681091519
7.2550,-9.723252214
7.2600,-9.765218643
7.2650,-9.807027083
7.2700,-9.848471025
7.2750,-9.88931787
7.2800,-9.92922694
7.2850,-9.968231674
7.2900,-10.00593418
7.2950,-10.0424608
7.3000,-10.0778919
7.3050,-10.11246007
7.3100,-10.14633424
7.3150,-10.17922025
7.3200,-10.2112543
7.3250,-10.24244876
7.3300,-10.27245989
7.3350,-10.30137443
7.3400,-10.3288103
7.3450,-10.35469772
7.3500,-10.37884137
7.3550,-10.40124365
7.3600,-10.42176614
7.3650,-10.44045762
7.3700,-10.45738636
7.3750,-10.47238238
7.3800,-10.48578416
7.3850,-10.49769408
7.3900,-10.5080413
7.3950,-10.51700964
7.4000,-10.52467255
7.4050,-10.53101065
7.4100,-10.53619552
7.4150,-10.54012446
7.4200,-10.54304952
7.4250,-10.5448335
7.4300,-10.54530593
7.4350,-10.54452714
7.4400,-10.54247272
7.4450,-10.53898441
7.4500,-10.53394546
7.4550,-10.52718584
7.4600,-10.51874961
7.4650,-10.50868083
7.4700,-10.49693872
7.4750,-10.48357839
7.4800,-10.46866215
7.4850,-10.45232751
7.4900,-10.4346235
7.4950,-10.41554543
7.5000,-10.39522096
7.5050,-10.37403039
7.5100,-10.35174006
7.5150,-10.32893684
7.5200,-10.30551342
7.5250,-10.28146116
7.5300,-10.25677424
7.5350,-10.23154115
7.5400,-10.20558052
7.5450,-10.17886872
7.5500,-10.15136046
7.5550,-10.12324915
7.5600,-10.09460915
7.5650,-10.06544143
7.5700,-10.03565596
7.5750,-10.00547543
7.5800,-9.974647571
7.5850,-9.943011015
7.5900,-9.910355717
7.5950,-9.876357745
7.6000,-9.840965618
7.6050,-9.803631576
7.6100,-9.764084371
7.6150,-9.722640369
7.6200,-9.679006793
7.6250,-9.632994339
7.6300,-9.584734881
7.6350,-9.533763065
7.6400,-9.480347981
7.6450,-9.424547299
7.6500,-9.366250364
7.6550,-9.305479265
7.6600,-9.242401082
7.6650,-9.176978959
7.6700,-9.109216814
7.6750,-9.038943018
7.6800,-8.966193749
7.6850,-8.890439929
7.6900,-8.811542135
7.6950,-8.728909725
7.7000,-8.642200009
7.7050,-8.551168309
7.7100,-8.455088969
7.7150,-8.353586358
7.7200,-8.245930802
7.7250,-8.131741479
7.7300,-8.010474181
7.7350,-7.881368195
7.7400,-7.744306754
7.7450,-7.599060169
7.7500,-7.445191741
7.7550,-7.283000897
7.7600,-7.112563343
7.7650,-6.933646869
7.7700,-6.746379526
7.7750,-6.550711619
7.7800,-6.346729605
7.7850,-6.134467656
7.7900,-5.914033637
7.7950,-5.685721922
7.8000,-5.449695043
7.8050,-5.205973418
7.8100,-4.954968154
7.8150,-4.696836051
7.8200,-4.431727293
7.8250,-4.160026111
7.8300,-3.882002778
7.8350,-3.597456972
7.8400,-3.306580548
7.8450,-3.009323665
7.8500,-2.705827165
7.8550,-2.39582356
7.8600,-2.079565939
7.8650,-1.756852363
7.8700,-1.427865563
7.8750,-1.092306661
7.8800,-0.7505357294
7.8850,-0.4023259118
7.8900,-0.04796722076
7.8950,0.312370675
7.9000,0.6784985963
7.9050,1.050271637
7.9100,1.427642067
7.9150,1.810589695
7.9200,2.19877937
7.9250,2.592283233
7.9300,2.990726135
7.9350,3.394031839
7.9400,3.802019609
7.9450,4.214884876
7.9500,4.632464614
7.9550,5.054836718
7.9600,5.482077489
7.9650,5.914151482
7.9700,6.351291058
7.9750,6.793269877
7.9800,7.240090035
7.9850,7.691590749
7.9900,8.147754352
7.9950,8.60838208
8.0000,9.073628758
8.0050,9.543066697
8.0100,10.01670269
8.0150,10.49430596
8.0200,10.97584231
8.0250,11.46107649
8.0300,11.94990645
8.0350,12.44189843
8.0400,12.93734177
8.0450,13.43593912
8.0500,13.93762295
8.0550,14.44227325
8.0600,14.9502189
8.0650,15.46114948
8.0700,15.97478691
8.0750,16.49127517
8.0800,17.01017153
8.0850,17.53161923
8.0900,18.05539083
8.0950,18.5816758
8.1000,19.10979159
8.1050,19.63968449
8.1100,20.17126436
8.1150,20.70477366
8.1200,21.23972938
8.1250,21.77642398
8.1300,22.31461432
8.1350,22.85392223
8.1400,23.3941656
8.1450,23.93545892
8.1500,24.47754543
8.1550,25.01984089
8.1600,25.56266674
8.1650,26.10552532
8.1700,26.64839044
8.1750,27.19100022
8.1800,27.73325623
8.1850,28.274812
8.1900,28.81546481
8.1950,29.35509484
8.2000,29.89395796
8.2050,30.43166325
8.2100,30.96795726
8.2150,31.50270142
8.2200,32.03554781
8.2250,32.56639823
8.2300,33.09523881
8.2350,33.62166589
8.2400,34.14529214
8.2450,34.66599492
8.2500,35.1835489
8.2550,35.69752864
8.2600,36.20795318
8.2650,36.71487988
8.2700,37.21819252
8.2750,37.71766262
8.2800,38.21317435
8.2850,38.70456184
8.2900,39.19212936
8.2950,39.67553936
8.3000,40.15508671
8.3050,40.63053317
8.3100,41.10200985
8.3150,41.56941042
8.3200,42.03253477
8.3250,42.4917128
8.3300,42.94693156
8.3350,43.39774053
8.3400,43.84405795
8.3450,44.286285
8.3500,44.72408184
8.3550,45.15791905
8.3600,45.58750808
8.3650,46.01264472
8.3700,46.43351881
8.3750,46.85034726
8.3800,47.26348394
8.3850,47.67272148
8.3900,48.07850114
8.3950,48.48052947
8.4000,48.87941304
8.4050,49.27541488
8.4100,49.66867891
8.4150,50.05881733
8.4200,50.44572281
8.4250,50.82915362
8.4300,51.20923985
8.4350,51.58598908
8.4400,51.95966748
8.4450,52.33004547
8.4500,52.69767979
8.4550,53.06268662
8.4600,53.42551751
8.4650,53.78620717
8.4700,54.14469821
8.4750,54.50060615
8.4800,54.8536978
8.4850,55.20416373
8.4900,55.55167433
8.4950,55.89598993
8.5000,56.23656324
8.5050,56.57286659
8.5100,56.90525514
8.5150,57.23412372
8.5200,57.5597278
8.5250,57.88188619
8.5300,58.20028459
8.5350,58.5154122
8.5400,58.82722335
8.5450,59.13567229
8.5500,59.44072875
8.5550,59.74262119
8.5600,60.04121047
8.5650,60.33616992
8.5700,60.62762398
8.5750,60.91547803
8.5800,61.19991241
8.5850,61.4808554
8.5900,61.7581024
8.5950,62.03180552
8.6000,62.3015609
8.6050,62.56717542
8.6100,62.8283271
8.6150,63.0851361
8.6200,63.33801354
8.6250,63.58672472
8.6300,63.83104683
8.6350,64.07067582
8.6400,64.3054125
8.6450,64.5347055
8.6500,64.75860717
8.6550,64.97685717
8.6600,65.19004554
8.6650,65.39838751
8.6700,65.60220507
8.6750,65.80159106
8.6800,65.99677757
8.6850,66.18837751
8.6900,66.37645147
8.6950,66.56140767
8.7000,66.74322209
8.7050,66.92201013
8.7100,67.09801245
8.7150,67.27166521
8.7200,67.44330188
8.7250,67.61283297
8.7300,67.78019368
8.7350,67.94504359
8.7400,68.10747739
8.7450,68.26724491
8.7500,68.42426446
8.7550,68.57822426
8.7600,68.7287448
8.7650,68.87588895
8.7700,69.01939109
8.7750,69.15916319
8.7800,69.29565274
8.7850,69.42940609
8.7900,69.56076576
8.7950,69.69000475
8.8000,69.81739154
8.8050,69.94343704
8.8100,70.06815967
8.8150,70.1913317
8.8200,70.31285772
8.8250,70.43277123
8.8300,70.55158053
8.8350,70.66918774
8.8400,70.78613932
8.8450,70.90256457
8.8500,71.01807414
8.8550,71.13252601
8.8600,71.24562332
8.8650,71.35712879
8.8700,71.46687652
8.8750,71.57430623
8.8800,71.67966161
8.8850,71.78302202
8.8900,71.8842825
8.8950,71.98342028
8.9000,72.08056483
8.9050,72.17601879
8.9100,72.26989646
8.9150,72.36185271
8.9200,72.45159913
8.9250,72.53913923
8.9300,72.62486095
8.9350,72.70937317
8.9400,72.79304832
8.9450,72.87655121
8.9500,72.95991866
8.9550,73.04351564
8.9600,73.12730006
8.9650,73.21118833
8.9700,73.29536494
8.9750,73.37970329
8.9800,73.46366732
8.9850,73.5468975
8.9900,73.62970445
8.9950,73.71212964
9.0000,73.79423353
9.0050,73.87557753
9.0100,73.95624512
9.0150,74.0360899
9.0200,74.11529105
9.0250,74.19404479
9.0300,74.27285373
9.0350,74.35208217
9.0400,74.43150877
9.0450,74.51106702
9.0500,74.5901836
9.0550,74.66893556
9.0600,74.74776298
9.0650,74.82683874
9.0700,74.90599887
9.0750,74.98516683
9.0800,75.0639851
9.0850,75.14207634
9.0900,75.2192967
9.0950,75.2954739
9.1000,75.37058465
9.1050,75.44471793
9.1100,75.51751273
9.1150,75.58915983
9.1200,75.65971049
9.1250,75.72944049
9.1300,75.79821974
9.1350,75.86596007
9.1400,75.93261685
9.1450,75.99824627
9.1500,76.06339052
9.1550,76.12788551
9.1600,76.19188741
9.1650,76.25584557
9.1700,76.31993506
9.1750,76.38518761
9.1800,76.45172674
9.1850,76.51973683
9.1900,76.58914977
9.1950,76.6598969
9.2000,76.73190922
9.2050,76.80491518
9.2100,76.87894389
9.2150,76.95401092
9.2200,77.02990636
9.2250,77.10679858
9.2300,77.18439998
9.2350,77.26205438
9.2400,77.33930579
9.2450,77.41579076
9.2500,77.49150811
9.2550,77.56602758
9.2600,77.63957054
9.2650,77.71213052
9.2700,77.7839527
9.2750,77.85513597
9.2800,77.92620224
9.2850,77.9972944
9.2900,78.06796793
9.2950,78.13807068
9.3000,78.20756963
9.3050,78.27688834
9.3100,78.34595779
9.3150,78.41506784
9.3200,78.48424584
9.3250,78.55389842
9.3300,78.62374384
9.3350,78.69308778
9.3400,78.76225547
9.3450,78.83117046
9.3500,78.90021594
9.3550,78.96952147
9.3600,79.03889379
9.3650,79.10824608
9.3700,79.17800138
9.3750,79.24823984
9.3800,79.31892645
9.3850,79.38974628
9.3900,79.46079697
9.3950,79.53212472
9.4000,79.60346649
9.4050,79.67503204
9.4100,79.7469944
9.4150,79.81940115
9.4200,79.89213902
9.4250,79.96502124
9.4300,80.03832307
9.4350,80.11212746
9.4400,80.18615698
9.4450,80.26054452
9.4500,80.33486434
9.4550,80.4093582
9.4600,80.48387882
9.4650,80.5579966
9.4700,80.63164159
9.4750,80.7040922
9.4800,80.77485552
9.4850,80.84368642
9.4900,80.91053911
9.4950,80.97536305
9.5000,81.03830226
9.5050,81.09927118
9.5100,81.15818822
9.5150,81.21489719
9.5200,81.26951779
9.5250,81.32170603
9.5300,81.37123911
9.5350,81.41865432
9.5400,81.46414981
9.5450,81.50795431
9.5500,81.55005468
9.5550,81.59040841
9.5600,81.62885498
9.5650,81.66544989
9.5700,81.70001288
9.5750,81.73266376
9.5800,81.76359244
9.5850,81.7927587
9.5900,81.82060553
9.5950,81.84714669
9.6000,81.87240203
9.6050,81.89624354
9.6100,81.91882592
9.6150,81.93999946
9.6200,81.95972063
9.6250,81.97756938
9.6300,81.99355305
9.6350,82.00811763
9.6400,82.02117701
9.6450,82.03313127
9.6500,82.04390552
9.6550,82.05342156
9.6600,82.06151005
9.6650,82.06794407
9.6700,82.07261722
9.6750,82.07553475
9.6800,82.07691492
9.6850,82.07694254
9.6900,82.0754345
9.6950,82.0726946
9.7000,82.06903482
9.7050,82.06409629
9.7100,82.05781085
9.7150,82.04973029
9.7200,82.04000954
9.7250,82.02868559
9.7300,82.01557531
9.7350,82.00074657
9.7400,81.98404255
9.7450,81.9655745
9.7500,81.94545353
9.7550,81.92365403
9.7600,81.90028994
9.7650,81.87574109
9.7700,81.84982614
9.7750,81.82288141
9.7800,81.79478326
9.7850,81.7654217
9.7900,81.7347367
9.7950,81.70266634
9.8000,81.66928883
9.8050,81.634616
9.8100,81.5986505
9.8150,81.56161833
9.8200,81.52335034
9.8250,81.4837948
9.8300,81.44307747
9.8350,81.40110769
9.8400,81.35784478
9.8450,81.31325071
9.8500,81.26736506
9.8550,81.22070881
9.8600,81.1734126
9.8650,81.12559336
9.8700,81.0774759
9.8750,81.02885815
9.8800,80.97949168
9.8850,80.92951941
9.8900,80.87872652
9.8950,80.82709661
9.9000,80.77465659
9.9050,80.72148036
9.9100,80.66769402
9.9150,80.61314527
9.9200,80.55807161
9.9250,80.50250176
9.9300,80.44647299
9.9350,80.39009716
9.9400,80.3331061
9.9450,80.27547162
9.9500,80.21719119
9.9550,80.15809938
9.9600,80.09837511
9.9650,80.03813711
9.9700,79.97743756
9.9750,79.91659704
9.9800,79.85547013
9.9850,79.79423429
9.9900,79.73284086
9.9950,79.67116368
10.0000,79.60908578
10.0050,79.5461519
10.0100,79.48226116
10.0150,79.41767588
10.0200,79.35209479
10.0250,79.28523353
10.0300,79.21717365
10.0350,79.14769912
10.0400,79.07704791
10.0450,79.00488065
10.0500,78.93094658
10.0550,78.85525001
10.0600,78.77783233
10.0650,78.69838784
10.0700,78.61705705
10.0750,78.53364469
10.0800,78.44826593
10.0850,78.36126316
10.0900,78.27274064
10.0950,78.18277681
10.1000,78.09138134
10.1050,77.9984995
10.1100,77.90414937
10.1150,77.80844289
10.1200,77.71160504
10.1250,77.61383409
10.1300,77.51521494
10.1350,77.41587972
10.1400,77.31582454
10.1450,77.21485328
10.1500,77.11290227
10.1550,77.00933762
10.1600,76.90380303
10.1650,76.79629976
10.1700,76.68670652
10.1750,76.57540134
10.1800,76.46274833
10.1850,76.34887997
10.1900,76.23414712
10.1950,76.11839982
10.2000,76.00191462
10.2050,75.88430144
10.2100,75.76555247
10.2150,75.64571799
10.2200,75.5247029
10.2250,75.40248054
10.2300,75.27899171
10.2350,75.15430458
10.2400,75.02849132
10.2450,74.90127493
10.2500,74.77281779
10.2550,74.64355479
10.2600,74.51350632
10.2650,74.38270285
10.2700,74.25104248
10.2750,74.11840689
10.2800,73.98459806
10.2850,73.84941911
10.2900,73.71297785
10.2950,73.57471773
10.3000,73.4344574
10.3050,73.29248375
10.3100,73.14870427
10.3150,73.0031793
10.3200,72.85596883
10.3250,72.70752328
10.3300,72.55763129
10.3350,72.40615747
10.3400,72.25265129
10.3450,72.09681212
10.3500,71.9386378
10.3550,71.77785673
10.3600,71.61420252
10.3650,71.44771081
10.3700,71.27830438
10.3750,71.1056972
10.3800,70.93013354
10.3850,70.75173754
10.3900,70.57111224
10.3950,70.38819439
10.4000,70.20258862
10.4050,70.01402707
10.4100,69.82258912
10.4150,69.62830775
10.4200,69.43126133
10.4250,69.23113377
10.4300,69.02795018
10.4350,68.8214247
10.4400,68.61150966
10.4450,68.39856537
10.4500,68.18273611
10.4550,67.96448273
10.4600,67.74317375
10.4650,67.51890255
10.4700,67.29141683
10.4750,67.06058879
10.4800,66.8260571
10.4850,66.5876638
10.4900,66.34510951
10.4950,66.09895788
10.5000,65.84893382
10.5050,65.59532449
10.5100,65.33752376
10.5150,65.07541601
10.5200,64.80849754
10.5250,64.53654041
10.5300,64.25979945
10.5350,63.97816384
10.5400,63.69151622
10.5450,63.40045044
10.5500,63.10453021
10.5550,62.80316885
10.5600,62.49636027
10.5650,62.18370707
10.5700,61.8652515
10.5750,61.54068848
10.5800,61.21009501
10.5850,60.87302269
10.5900,60.52920933
10.5950,60.17902834
10.6000,59.82241354
10.6050,59.45967272
10.6100,59.09080606
10.6150,58.71571989
10.6200,58.33494924
10.6250,57.94758202
10.6300,57.55304179
10.6350,57.15120121
10.6400,56.74201208
10.6450,56.32551849
10.6500,55.90194255
10.6550,55.4711871
10.6600,55.03345455
10.6650,54.58880834
10.6700,54.13716839
10.6750,53.67883387
10.6800,53.21333695
10.6850,52.74031001
10.6900,52.25944855
10.6950,51.77100659
10.7000,51.27500882
10.7050,50.77209029
10.7100,50.2621987
10.7150,49.74535447
10.7200,49.22127211
10.7250,48.68982191
10.7300,48.15100145
10.7350,47.60482667
10.7400,47.0510932
10.7450,46.48959363
10.7500,45.92016741
10.7550,45.34245765
10.7600,44.75724509
10.7650,44.16440062
10.7700,43.56403286
10.7750,42.95588179
10.7800,42.3401633
10.7850,41.71691468
10.7900,41.08595489
10.7950,40.44699763
10.8000,39.80011938
10.8050,39.14574309
10.8100,38.48456049
10.8150,37.81735619
10.8200,37.14432121
10.8250,36.465955
10.8300,35.7826979
10.8350,35.0947728
10.8400,34.40246988
10.8450,33.70596303
10.8500,33.00573452
10.8550,32.30249672
10.8600,31.59643522
10.8650,30.88787041
10.8700,30.17732894
10.8750,29.46553253
10.8800,28.75313883
10.8850,28.04091136
10.8900,27.32934582
10.8950,26.61863326
10.9000,25.90988157
10.9050,25.20318296
10.9100,24.49937183
10.9150,23.79883813
10.9200,23.10153426
10.9250,22.4080701
10.9300,21.71918752
10.9350,21.03478148
10.9400,20.35514107
10.9450,19.68062323
10.9500,19.01146131
10.9550,18.34835486
10.9600,17.6921145
10.9650,17.04303369
10.9700,16.40170781
10.9750,15.76845527
10.9800,15.14308585
10.9850,14.52585628
10.9900,13.91616878
10.9950,13.31424496
11.0000,12.7203256
11.0050,12.13447194
11.0100,11.55696682
11.0150,10.98814919
11.0200,10.42818511
11.0250,9.877422234
11.0300,9.335998068
11.0350,8.803658077
11.0400,8.280789317
11.0450,7.7673122
11.0500,7.263187273
11.0550,6.768244089
11.0600,6.282899993
11.0650,5.807452268
11.0700,5.342650686
11.0750,4.88885812
11.0800,4.445868567
11.0850,4.013484253
11.0900,3.591685908
11.0950,3.180285009
11.1000,2.778789681
11.1050,2.386905884
11.1100,2.004406195
11.1150,1.630866352
11.1200,1.266654345
11.1250,0.9111473443
11.1300,0.5644818172
11.1350,0.2267673854
11.1400,-0.1017474025
11.1450,-0.4211861655
11.1500,-0.7313220013
11.1550,-1.032410299
11.1600,-1.324803991
11.1650,-1.608579298
11.1700,-1.884126975
11.1750,-2.151334497
11.1800,-2.410630092
11.1850,-2.662200077
11.1900,-2.906209928
11.1950,-3.142892486
11.2000,-3.372866309
11.2050,-3.596387258
11.2100,-3.814065818
11.2150,-4.025914678
11.2200,-4.232548345
11.2250,-4.434357283
11.2300,-4.631858949
11.2350,-4.825595714
11.2400,-5.01602988
11.2450,-5.2038135
11.2500,-5.389178264
11.2550,-5.572877384
11.2600,-5.755252588
11.2650,-5.936397708
11.2700,-6.116253631
11.2750,-6.295146285
11.2800,-6.472723165
11.2850,-6.648701393
11.2900,-6.822666387
11.2950,-6.99447857
11.3000,-7.163990654
11.3050,-7.330922966
11.3100,-7.494897347
11.3150,-7.655679986
11.3200,-7.812724387
11.3250,-7.966019224
11.3300,-8.115212443
11.3350,-8.260076837
11.3400,-8.400276432
11.3450,-8.535255072
11.3500,-8.664611093
11.3550,-8.788079034
11.3600,-8.905767157
11.3650,-9.017850783
11.3700,-9.124495982
11.3750,-9.225901109
11.3800,-9.322113201
11.3850,-9.413484944
11.3900,-9.499630498
11.3950,-9.580735266
11.4000,-9.656586151
11.4050,-9.727277776
11.4100,-9.793031795
11.4150,-9.853930329
11.4200,-9.910327594
11.4250,-9.962649281
11.4300,-10.01154239
11.4350,-10.05717165
11.4400,-10.1000045
11.4450,-10.14018715
11.4500,-10.17823808
11.4550,-10.21413833
11.4600,-10.24797681
11.4650,-10.27966216
11.4700,-10.3093448
11.4750,-10.33728134
11.4800,-10.36378973
11.4850,-10.38926285
11.4900,-10.4140798
11.4950,-10.43851132
11.5000,-10.46254838
11.5050,-10.4864268
11.5100,-10.5102651
11.5150,-10.53415047
11.5200,-10.55808401
11.5250,-10.58225491
11.5300,-10.60646129
11.5350,-10.63046676
11.5400,-10.65429617
11.5450,-10.67755836
11.5500,-10.70041071
11.5550,-10.72229145
11.5600,-10.74305182
11.5650,-10.76271032
11.5700,-10.78111204
11.5750,-10.79801694
11.5800,-10.81311573
11.5850,-10.82649434
11.5900,-10.8377791
11.5950,-10.84675043
11.6000,-10.85319647
11.6050,-10.85702928
11.6100,-10.85829352
11.6150,-10.85688817
11.6200,-10.85305849
11.6250,-10.84673627
11.6300,-10.8382314
11.6350,-10.8275801
11.6400,-10.81487954
11.6450,-10.80023808
11.6500,-10.78396461
11.6550,-10.76621291
11.6600,-10.74704938
11.6650,-10.72667708
11.6700,-10.70514756
11.6750,-10.68244126
11.6800,-10.65875221
11.6850,-10.63403625
11.6900,-10.60838342
11.6950,-10.58166937
11.7000,-10.55411708
11.7050,-10.52566547
11.7100,-10.49609159
11.7150,-10.46561293
11.7200,-10.43421695
11.7250,-10.40152046
11.7300,-10.36767178
11.7350,-10.33260973
11.7400,-10.2964904
11.7450,-10.25951449
11.7500,-10.2216709
11.7550,-10.18351909
11.7600,-10.14504871
11.7650,-10.1067326
11.7700,-10.06881289
11.7750,-10.03180974
11.7800,-9.995819014
11.7850,-9.961092059
11.7900,-9.927662696
11.7950,-9.895521561
11.8000,-9.864956526
11.8050,-9.835900314
11.8100,-9.808193586
11.8150,-9.781967625
11.8200,-9.757111492
11.8250,-9.733440488
11.8300,-9.710984005
11.8350,-9.689882491
11.8400,-9.669923838
11.8450,-9.650986955
11.8500,-9.632885949
11.8550,-9.615747705
11.8600,-9.599178879
11.8650,-9.582845108
11.8700,-9.566689271
11.8750,-9.550355782
11.8800,-9.533838427
11.8850,-9.516942049
11.8900,-9.499330517
11.8950,-9.481247305
11.9000,-9.46252159
11.9050,-9.443088897
11.9100,-9.422857561
11.9150,-9.401784965
11.9200,-9.3797834
11.9250,-9.356567357
11.9300,-9.331932212
11.9350,-9.305326464
11.9400,-9.276830542
11.9450,-9.246309111
11.9500,-9.213449213
11.9550,-9.178326891
11.9600,-9.140935352
11.9650,-9.101322335
11.9700,-9.059682397
11.9750,-9.016202037
11.9800,-8.970671734
11.9850,-8.923480816
11.9900,-8.874978304
11.9950,-8.825243963
12.0000,-8.774436356
12.0050,-8.722573349
12.0100,-8.670061757
12.0150,-8.616867584
12.0200,-8.563172087
12.0250,-8.509219102
12.0300,-8.455068502
12.0350,-8.401257612
12.0400,-8.347925702
12.0450,-8.295462074
12.0500,-8.244149232
12.0550,-8.194104537
12.0600,-8.145747419
12.0650,-8.099157336
12.0700,-8.054558722
12.0750,-8.011911027
12.0800,-7.971293364
12.0850,-7.932813513
12.0900,-7.896645622
12.0950,-7.8631633
12.1000,-7.832383869
12.1050,-7.804447595
12.1100,-7.779597026
12.1150,-7.757868012
12.1200,-7.739533612
12.1250,-7.724574958
12.1300,-7.712866874
12.1350,-7.704439572
12.1400,-7.699067613
12.1450,-7.696670827
12.1500,-7.696929836
12.1550,-7.699386854
12.1600,-7.70409377
12.1650,-7.710952874
12.1700,-7.719778448
12.1750,-7.730329634
12.1800,-7.742668422
12.1850,-7.756534108
12.1900,-7.771971379
12.1950,-7.788735509
12.2000,-7.806591416
12.2050,-7.825352659
12.2100,-7.844860406
12.2150,-7.864590723
12.2200,-7.884116045
12.2250,-7.903276472
12.2300,-7.921797114
12.2350,-7.939649367
12.2400,-7.956282537
12.2450,-7.971646509
12.2500,-7.985733252
12.2550,-7.998330473
12.2600,-8.009360577
12.2650,-8.018890648
12.2700,-8.026485522
12.2750,-8.032107264
12.2800,-8.035926648
12.2850,-8.037648059
12.2900,-8.03720265
12.2950,-8.034774018
12.3000,-8.030667624
12.3050,-8.025096599
12.3100,-8.018250881
12.3150,-8.010288277
12.3200,-8.001600541
12.3250,-7.992458941
12.3300,-7.983138129
12.3350,-7.973636843
12.3400,-7.964384517
12.3450,-7.955429353
12.3500,-7.946765766
12.3550,-7.938515854
12.3600,-7.930677462
12.3650,-7.923464666
12.3700,-7.916951733
12.3750,-7.911167122
12.3800,-7.90603748
12.3850,-7.901244751
12.3900,-7.896852736
12.3950,-7.892544396
12.4000,-7.888189489
12.4050,-7.883693406
12.4100,-7.878991555
12.4150,-7.873906566
12.4200,-7.868367226
12.4250,-7.862318435
12.4300,-7.855787269
12.4350,-7.848736157
12.4400,-7.841290809
12.4450,-7.833471305
12.4500,-7.825534918
12.4550,-7.817610019
12.4600,-7.809615211
12.4650,-7.80172832
12.4700,-7.79410765
12.4750,-7.787072314
12.4800,-7.7807614
12.4850,-7.77532545
12.4900,-7.771017067
12.4950,-7.76788244
12.5000,-7.766133363
12.5050,-7.765712583
12.5100,-7.76658793
12.5150,-7.768913648
12.5200,-7.772739972
12.5250,-7.777778918
12.5300,-7.783898349
12.5350,-7.790979711
12.5400,-7.799168542
12.5450,-7.808379322
12.5500,-7.818431079
12.5550,-7.829052012
12.5600,-7.840143839
12.5650,-7.851549504
12.5700,-7.86339606
12.5750,-7.875755544
12.5800,-7.888661806
12.5850,-7.902222835
12.5900,-7.916488095
12.5950,-7.93132524
12.6000,-7.946546561
12.6050,-7.962288962
12.6100,-7.978433998
12.6150,-7.994943639
12.6200,-8.011874776
12.6250,-8.029265106
12.6300,-8.047203981
12.6350,-8.065851467
12.6400,-8.085240706
12.6450,-8.105445573
12.6500,-8.126465589
12.6550,-8.148406149
12.6600,-8.171189508
12.6650,-8.194526681
12.6700,-8.21822949
12.6750,-8.242117527
12.6800,-8.266323367
12.6850,-8.290738645
12.6900,-8.315505251
12.6950,-8.340457653
12.7000,-8.365632928
12.7050,-8.391170815
12.7100,-8.417121235
12.7150,-8.443395181
12.7200,-8.469981724
12.7250,-8.496879965
12.7300,-8.524296025
12.7350,-8.551953092
12.7400,-8.579800921
12.7450,-8.607875195
12.7500,-8.635964245
12.7550,-8.664085584
12.7600,-8.692183009
12.7650,-8.720159909
12.7700,-8.747953174
12.7750,-8.775879012
12.7800,-8.803746093
12.7850,-8.831815692
12.7900,-8.86001676
12.7950,-8.888525342
12.8000,-8.917093083
12.8050,-8.945950926
12.8100,-8.97475068
12.8150,-9.003411314
12.8200,-9.031524289
12.8250,-9.059218098
12.8300,-9.086419154
12.8350,-9.113200446
12.8400,-9.13954144
12.8450,-9.165513938
12.8500,-9.191369362
12.8550,-9.217453054
12.8600,-9.243790415
12.8650,-9.270393038
12.8700,-9.297288392
12.8750,-9.324504127
12.8800,-9.351999315
12.8850,-9.379589433
12.8900,-9.407090271
12.8950,-9.434580298
12.9000,-9.462196769
12.9050,-9.490080576
12.9100,-9.518505537
12.9150,-9.548051802
12.9200,-9.578747545
12.9250,-9.610850357
12.9300,-9.644322009
12.9350,-9.679110549
12.9400,-9.714974113
12.9450,-9.75164643
12.9500,-9.788983318
12.9550,-9.826650199
12.9600,-9.864416257
12.9650,-9.902205233
12.9700,-9.939982019
12.9750,-9.977774724
12.9800,-10.01540491
12.9850,-10.05304862
12.9900,-10.09023593
12.9950,-10.12728301
13.0000,-10.16390545
13.0050,-10.19981994
13.0100,-10.23482054
13.0150,-10.2689586
13.0200,-10.30188272
13.0250,-10.33345387
13.0300,-10.36347456
13.0350,-10.39179466
13.0400,-10.41844332
13.0450,-10.44327157
13.0500,-10.46626773
13.0550,-10.4873483
13.0600,-10.50635844
13.0650,-10.52336379
13.0700,-10.53823716
13.0750,-10.55066079
13.0800,-10.56021964
13.0850,-10.56664714
13.0900,-10.56952999
13.0950,-10.56854659
13.1000,-10.56371706
13.1050,-10.55469215
13.1100,-10.54164422
13.1150,-10.52466281
13.1200,-10.50414739
13.1250,-10.48005992
13.1300,-10.4526056
13.1350,-10.42171575
13.1400,-10.3875128
13.1450,-10.35011977
13.1500,-10.30926812
13.1550,-10.26518629
13.1600,-10.21785193
13.1650,-10.16699911
13.1700,-10.11275393
13.1750,-10.0550585
13.1800,-9.993974804
13.1850,-9.929846166
13.1900,-9.862942178
13.1950,-9.793372959
13.2000,-9.721012046
13.2050,-9.64598381
13.2100,-9.568450447
13.2150,-9.488040861
13.2200,-9.404793607
13.2250,-9.318691732
13.2300,-9.22975879
13.2350,-9.138222443
13.2400,-9.044085435
13.2450,-8.947666118
13.2500,-8.848885243
13.2550,-8.747818765
13.2600,-8.644866575
13.2650,-8.54006696
13.2700,-8.433688757
13.2750,-8.325615384
13.2800,-8.215883849
13.2850,-8.104388023
13.2900,-7.991263213
13.2950,-7.876162245
13.3000,-7.759244319
13.3050,-7.640689467
13.3100,-7.520587215
13.3150,-7.398773785
13.3200,-7.275217073
13.3250,-7.149849851
13.3300,-7.022603367
13.3350,-6.893692268
13.3400,-6.763000302
13.3450,-6.63078015
13.3500,-6.496720897
13.3550,-6.361029294
13.3600,-6.223909222
13.3650,-6.085434043
13.3700,-5.94536259
13.3750,-5.803489362
13.3800,-5.659856865
13.3850,-5.514532291
13.3900,-5.367525013
13.3950,-5.218936253
13.4000,-5.06844101
13.4050,-4.916421852
13.4100,-4.7626703
13.4150,-4.607103251
13.4200,-4.449721277
13.4250,-4.290829472
13.4300,-4.130085089
13.4350,-3.967687023
13.4400,-3.803474364
13.4450,-3.636901378
13.4500,-3.467992549
13.4550,-3.296483877
13.4600,-3.122344383
13.4650,-2.945797455
13.4700,-2.76677525
13.4750,-2.585144987
13.4800,-2.400856632
13.4850,-2.213815717
13.4900,-2.024029359
13.4950,-1.831333792
13.5000,-1.635533808
13.5050,-1.436364961
13.5100,-1.233567899
13.5150,-1.027358395
13.5200,-0.8176201974
13.5250,-0.6040172586
13.5300,-0.3868141429
13.5350,-0.1658555592
13.5400,0.05894021373
13.5450,0.2877147272
13.5500,0.5204702549
13.5550,0.757130345
13.5600,0.9981423042
13.5650,1.243369282
13.5700,1.493465953
13.5750,1.748435804
13.5800,2.008375982
13.5850,2.273341656
13.5900,2.54331273
13.5950,2.818004006
13.6000,3.097502937
13.6050,3.382092612
13.6100,3.671902601
13.6150,3.967098283
13.6200,4.267808786
13.6250,4.573745659
13.6300,4.885090046
13.6350,5.201609045
13.6400,5.523414705
13.6450,5.850228754
13.6500,6.181964369
13.6550,6.518656099
13.6600,6.860116614
13.6650,7.206657177
13.6700,7.558120492
13.6750,7.914329166
13.6800,8.275527964
13.6850,8.641702897
13.6900,9.012445699
13.6950,9.388257192
13.7000,9.768744518
13.7050,10.1542623
13.7100,10.54439196
13.7150,10.93916671
13.7200,11.33836402
13.7250,11.74227836
13.7300,12.15059915
13.7350,12.56302613
13.7400,12.97964282
13.7450,13.39995184
13.7500,13.82386826
13.7550,14.25128665
13.7600,14.68193836
13.7650,15.1160994
13.7700,15.55346897
13.7750,15.99375703
13.7800,16.43708163
13.7850,16.8833679
13.7900,17.33239061
13.7950,17.78432987
13.8000,18.23871614
13.8050,18.69557607
13.8100,19.15505591
13.8150,19.6171051
13.8200,20.08200941
13.8250,20.54922927
13.8300,21.01912986
13.8350,21.49145664
13.8400,21.96590531
13.8450,22.44243084
13.8500,22.92039871
13.8550,23.40011361
13.8600,23.88105835
13.8650,24.36330593
13.8700,24.84660964
13.8750,25.3304458
13.8800,25.81481733
13.8850,26.29937744
13.8900,26.78398006
13.8950,27.26854657
13.9000,27.75263456
13.9050,28.23625226
13.9100,28.71929136
13.9150,29.20139837
13.9200,29.68216383
13.9250,30.16173325
13.9300,30.63969892
13.9350,31.11598744
13.9400,31.59021248
13.9450,32.06236272
13.9500,32.53233741
13.9550,33.00003851
13.9600,33.46535244
13.9650,33.9282584
13.9700,34.38840029
13.9750,34.84580781
13.9800,35.30026782
13.9850,35.75154446
13.9900,36.20007572
13.9950,36.64541948
14.0000,37.087591
14.0050,37.52688513
14.0100,37.96365485
14.0150,38.3974431
14.0200,38.82850891
14.0250,39.25692816
14.0300,39.68282566
14.0350,40.10682272
14.0400,40.52878586
14.0450,40.94886115
14.0500,41.36670242
14.0550,41.78252023
14.0600,42.19622325
14.0650,42.60773658
14.0700,43.01728695
14.0750,43.42511412
14.0800,43.83077173
14.0850,44.23424523
14.0900,44.63577047
14.0950,45.03486142
14.1000,45.43164644
14.1050,45.8261402
14.1100,46.21802102
14.1150,46.60746673
14.1200,46.99412
14.1250,47.37810213
14.1300,47.7596313
14.1350,48.1388771
14.1400,48.51574365
14.1450,48.89065041
14.1500,49.26380111
14.1550,49.63480182
14.1600,50.00357835
14.1650,50.36990773
14.1700,50.7335668
14.1750,51.09495565
14.1800,51.45396138
14.1850,51.81099137
14.1900,52.16584771
14.1950,52.51913156
14.2000,52.87085423
14.2050,53.22077335
14.2100,53.56850099
14.2150,53.91367026
14.2200,54.25650485
14.2250,54.59660863
14.2300,54.93384327
14.2350,55.26849186
14.2400,55.60066936
14.2450,55.93042377
14.2500,56.25759152
14.2550,56.58134488
14.2600,56.90157633
14.2650,57.21773415
14.2700,57.52985315
14.2750,57.83837612
14.2800,58.14319958
14.2850,58.4447544
14.2900,58.74300113
14.2950,59.03802952
14.3000,59.32974753
14.3050,59.61799713
14.3100,59.90254763
14.3150,60.18372197
14.3200,60.46146139
14.3250,60.73567913
14.3300,61.00619164
14.3350,61.2726679
14.3400,61.53508425
14.3450,61.7932887
14.3500,62.04770647
14.3550,62.29816486
14.3600,62.54462683
14.3650,62.78678728
14.3700,63.02452067
14.3750,63.25740255
14.3800,63.48554634
14.3850,63.70910581
14.3900,63.92810323
14.3950,64.14253909
14.4000,64.35262787
14.4050,64.55825588
14.4100,64.75969431
14.4150,64.95682297
14.4200,65.14982572
14.4250,65.33862988
14.4300,65.52332025
14.4350,65.70380646
14.4400,65.87998229
14.4450,66.05177545
14.4500,66.21954515
14.4550,66.38355494
14.4600,66.54424337
14.4650,66.701537
14.4700,66.85555197
14.4750,67.0058817
14.4800,67.15214245
14.4850,67.29427473
14.4900,67.43224477
14.4950,67.56611887
14.5000,67.69585424
14.5050,67.8215336
14.5100,67.94349259
14.5150,68.06198985
14.5200,68.17704739
14.5250,68.28900325
14.5300,68.39793698
14.5350,68.50395188
14.5400,68.60695624
14.5450,68.70731142
14.5500,68.80493095
14.5550,68.90038667
14.5600,68.99381271
14.5650,69.0855186
14.5700,69.17582634
14.5750,69.26476854
14.5800,69.35280775
14.5850,69.43959138
14.5900,69.52516966
14.5950,69.60953353
14.6000,69.69297704
14.6050,69.77536564
14.6100,69.85660067
14.6150,69.93666853
14.6200,70.01531309
14.6250,70.09262013
14.6300,70.16868712
14.6350,70.24377729
14.6400,70.31809648
14.6450,70.39180145
14.6500,70.46456339
14.6550,70.5368004
14.6600,70.60822939
14.6650,70.6792054
14.6700,70.74938749
14.6750,70.81896793
14.6800,70.8880249
14.6850,70.95619651
14.6900,71.02354554
14.6950,71.09043362
14.7000,71.15719615
14.7050,71.22407509
14.7100,71.29082673
14.7150,71.35770403
14.7200,71.42460394
14.7250,71.49165368
14.7300,71.55871984
14.7350,71.62556393
14.7400,71.69248779
14.7450,71.759385
14.7500,71.82577435
14.7550,71.89174989
14.7600,71.95721575
14.7650,72.02222648
14.7700,72.08693345
14.7750,72.15172737
14.7800,72.21700548
14.7850,72.28253535
14.7900,72.34827592
14.7950,72.41395541
14.8000,72.47957761
14.8050,72.54505061
14.8100,72.61071673
14.8150,72.67686352
14.8200,72.74337557
14.8250,72.81029134
14.8300,72.87792114
14.8350,72.9462693
14.8400,73.01534218
14.8450,73.08492793
14.8500,73.15531886
14.8550,73.22697159
14.8600,73.29988667
14.8650,73.37373024
14.8700,73.44874288
14.8750,73.52470807
14.8800,73.6014116
14.8850,73.67878692
14.8900,73.75672574
14.8950,73.83524251
14.9000,73.91379151
14.9050,73.99233322
14.9100,74.07108627
14.9150,74.15023207
14.9200,74.22974821
14.9250,74.30957717
14.9300,74.38955514
14.9350,74.46934402
14.9400,74.54860445
14.9450,74.62700725
14.9500,74.70443182
14.9550,74.78057748
14.9600,74.85604765
14.9650,74.93030252
14.9700,75.00338314
14.9750,75.07552852
14.9800,75.14644054
14.9850,75.21582796
14.9900,75.28317929
14.9950,75.34812678
15.0000,75.41031935
15.0050,75.46948019
15.0100,75.52528221
15.0150,75.57771341
15.0200,75.6271359
15.0250,75.67334432
15.0300,75.71615369
15.0350,75.75546402
15.0400,75.79097257
15.0450,75.8225734
15.0500,75.8508478
15.0550,75.8758674
15.0600,75.89777611
15.0650,75.91680565
15.0700,75.93299859
15.0750,75.94652949
15.0800,75.95707214
15.0850,75.96456988
15.0900,75.96949466
15.0950,75.97243821
15.1000,75.97404149
15.1050,75.97487564
15.1100,75.97491492
15.1150,75.97427246
15.1200,75.97335652
15.1250,75.97264984
15.1300,75.97226994
15.1350,75.97282731
15.1400,75.97475237
15.1450,75.97770405
15.1500,75.98152219
15.1550,75.98563723
15.1600,75.99052369
15.1650,75.99668067
15.1700,76.00429525
15.1750,76.01349709
15.1800,76.02421869
15.1850,76.03665468
15.1900,76.05069336
15.1950,76.06618156
15.2000,76.08345697
15.2050,76.10256528
15.2100,76.123426
15.2150,76.14543667
15.2200,76.16828894
15.2250,76.19156914
15.2300,76.2148051
15.2350,76.23796738
15.2400,76.26136991
15.2450,76.28516264
15.2500,76.30911159
15.2550,76.33296407
15.2600,76.35630429
15.2650,76.37886195
15.2700,76.40013612
15.2750,76.41954464
15.2800,76.43699158
15.2850,76.45257799
15.2900,76.46662992
15.2950,76.47899854
15.3000,76.48964751
15.3050,76.49843139
15.3100,76.50573442
15.3150,76.51110382
15.3200,76.51449526
15.3250,76.51631425
15.3300,76.51677719
15.3350,76.51617815
15.3400,76.51472594
15.3450,76.51281758
15.3500,76.51025355
15.3550,76.50671824
15.3600,76.50220597
15.3650,76.4969021
15.3700,76.49078907
15.3750,76.48386262
15.3800,76.47643174
15.3850,76.46918865
15.3900,76.46207282
15.3950,76.45488732
15.4000,76.4476613
15.4050,76.44054011
15.4100,76.43343918
15.4150,76.42624345
15.4200,76.41891404
15.4250,76.41118824
15.4300,76.40288371
15.4350,76.39398222
15.4400,76.38477386
15.4450,76.37577918
15.4500,76.36730748
15.4550,76.35975768
15.4600,76.35285872
15.4650,76.34664353
15.4700,76.34073893
15.4750,76.33512501
15.4800,76.32981658
15.4850,76.32512778
15.4900,76.32127335
15.4950,76.31830037
15.5000,76.31616213
15.5050,76.31462644
15.5100,76.31344591
15.5150,76.31263665
15.5200,76.31226232
15.5250,76.31266014
15.5300,76.31391269
15.5350,76.31586278
15.5400,76.31799106
15.5450,76.32015168
15.5500,76.32239913
15.5550,76.32475712
15.5600,76.32689706
15.5650,76.32896253
15.5700,76.33126721
15.5750,76.33363492
15.5800,76.33587911
15.5850,76.33815159
15.5900,76.34001717
15.5950,76.34137046
15.6000,76.34188596
15.6050,76.34195332
15.6100,76.3412905
15.6150,76.34019505
15.6200,76.33845695
15.6250,76.33578877
15.6300,76.33201251
15.6350,76.32719331
15.6400,76.32128163
15.6450,76.31426685
15.6500,76.30603275
15.6550,76.29672468
15.6600,76.28613
15.6650,76.27410794
15.6700,76.26059398
15.6750,76.24546111
15.6800,76.22885814
15.6850,76.21040498
15.6900,76.19018593
15.6950,76.16827523
15.7000,76.14461069
15.7050,76.11911944
15.7100,76.09202158
15.7150,76.06363195
15.7200,76.03414442
15.7250,76.00340638
15.7300,75.97157432
15.7350,75.93830678
15.7400,75.90346386
15.7450,75.86680302
15.7500,75.828029
15.7550,75.78706428
15.7600,75.74383726
15.7650,75.69831598
15.7700,75.65068294
15.7750,75.60103442
15.7800,75.54974883
15.7850,75.49682228
15.7900,75.44241187
15.7950,75.38644787
15.8000,75.32853973
15.8050,75.2691308
15.8100,75.2081703
15.8150,75.14575681
15.8200,75.08180011
15.8250,75.01582383
15.8300,74.94765614
15.8350,74.87728518
15.8400,74.80474337
15.8450,74.73031562
15.8500,74.65404177
15.8550,74.57591297
15.8600,74.49596206
15.8650,74.41420809
15.8700,74.33053472
15.8750,74.24499305
15.8800,74.15762442
15.8850,74.0682323
15.8900,73.97688164
15.8950,73.8837814
15.9000,73.78901967
15.9050,73.69236287
15.9100,73.59367119
15.9150,73.49278596
15.9200,73.3895643
15.9250,73.28422669
15.9300,73.177041
15.9350,73.06780071
15.9400,72.95655224
15.9450,72.84275191
15.9500,72.72641116
15.9550,72.60741603
15.9600,72.48567775
15.9650,72.36103244
15.9700,72.23343438
15.9750,72.10287
15.9800,71.96925535
15.9850,71.83297424
15.9900,71.6941604
15.9950,71.55322263
16.0000,71.40981523
16.0050,71.26373443
16.0100,71.11500782
16.0150,70.96349541
16.0200,70.80908862
16.0250,70.65209429
16.0300,70.49246688
16.0350,70.32995805
16.0400,70.16448158
16.0450,69.99632564
16.0500,69.82584857
16.0550,69.65294408
16.0600,69.47725879
16.0650,69.29872508
16.0700,69.11682813
16.0750,68.9313174
16.0800,68.74208335
16.0850,68.54881041
16.0900,68.35153425
16.0950,68.15014634
16.1000,67.94449381
16.1050,67.73405618
16.1100,67.5189455
16.1150,67.29909541
16.1200,67.07510112
16.1250,66.84693181
16.1300,66.61483207
16.1350,66.37865226
16.1400,66.13837194
16.1450,65.89363522
16.1500,65.64462131
16.1550,65.39108981
16.1600,65.13256044
16.1650,64.8688552
16.1700,64.59933666
16.1750,64.3238416
16.1800,64.04197103
16.1850,63.75335653
16.1900,63.45798868
16.1950,63.15595264
16.2000,62.8473017
16.2050,62.53218526
16.2100,62.21110566
16.2150,61.88455913
16.2200,61.55253873
16.2250,61.21502303
16.2300,60.87133511
16.2350,60.52105307
16.2400,60.16398518
16.2450,59.80024325
16.2500,59.42939239
16.2550,59.05124827
16.2600,58.66607197
16.2650,58.27363587
16.2700,57.87418864
16.2750,57.46743815
16.2800,57.05327604
16.2850,56.63145986
16.2900,56.20188547
16.2950,55.76409478
16.3000,55.31865025
16.3050,54.8655234
16.3100,54.40495888
16.3150,53.93659364
16.3200,53.4603402
16.3250,52.97624884
16.3300,52.48458739
16.3350,51.98586501
16.3400,51.48016498
16.3450,50.9675355
16.3500,50.44801686
16.3550,49.92187228
16.3600,49.38968313
16.3650,48.85174698
16.3700,48.30857347
16.3750,47.76005958
16.3800,47.20622934
16.3850,46.64709948
16.3900,46.08258688
16.3950,45.51338341
16.4000,44.93956664
16.4050,44.36114763
16.4100,43.77863683
16.4150,43.19233492
16.4200,42.60181994
16.4250,42.00733992
16.4300,41.40934721
16.4350,40.8077708
16.4400,40.20302465
16.4450,39.59501003
16.4500,38.98407187
16.4550,38.37025475
16.4600,37.75430038
16.4650,37.13636731
16.4700,36.51698832
16.4750,35.89607152
16.4800,35.27413473
16.4850,34.65134284
16.4900,34.02788358
16.4950,33.40406381
16.5000,32.78024756
16.5050,32.15656618
16.5100,31.53355487
16.5150,30.91127564
16.5200,30.28996099
16.5250,29.66978843
16.5300,29.05105834
16.5350,28.43425909
16.5400,27.81986811
16.5450,27.20820223
16.5500,26.59969917
16.5550,25.99448177
16.5600,25.39283571
16.5650,24.79496699
16.5700,24.20131557
16.5750,23.61245763
16.5800,23.0287053
16.5850,22.44992791
16.5900,21.8765308
16.5950,21.30866833
16.6000,20.74624306
16.6050,20.18953158
16.6100,19.63891549
16.6150,19.09483908
16.6200,18.55730713
16.6250,18.02671198
16.6300,17.50280049
16.6350,16.98573193
16.6400,16.47503379
16.6450,15.97083732
16.6500,15.47283557
16.6550,14.98069336
16.6600,14.49451316
16.6650,14.01415956
16.6700,13.539514
16.6750,13.07019973
16.6800,12.60596517
16.6850,12.14699997
16.6900,11.69355074
16.6950,11.24511702
16.7000,10.80205726
16.7050,10.36466981
16.7100,9.933158739
16.7150,9.507519969
16.7200,9.088160203
16.7250,8.67526385
16.7300,8.268464943
16.7350,7.867649849
16.7400,7.472617413
16.7450,7.083122018
16.7500,6.698957582
16.7550,6.320232832
16.7600,5.946797927
16.7650,5.579081798
16.7700,5.217097219
16.7750,4.860817369
16.7800,4.510098723
16.7850,4.164826607
16.7900,3.82466433
16.7950,3.489270463
16.8000,3.158802857
16.8050,2.833399989
16.8100,2.51342844
16.8150,2.199389731
16.8200,1.891089944
16.8250,1.588718616
16.8300,1.292754754
16.8350,1.002764752
16.8400,0.7191045994
16.8450,0.4416655522
16.8500,0.1708326187
16.8550,-0.0936112968
16.8600,-0.351145924
16.8650,-0.6021658073
16.8700,-0.8469300453
16.8750,-1.086042204
16.8800,-1.320275338
16.8850,-1.549928091
16.8900,-1.7758782
16.8950,-1.998142395
16.9000,-2.217177775
16.9050,-2.432694392
16.9100,-2.645321935
16.9150,-2.855328583
16.9200,-3.062954578
16.9250,-3.26867359
16.9300,-3.472396756
16.9350,-3.674054328
16.9400,-3.873364973
16.9450,-4.07055353
16.9500,-4.265635749
16.9550,-4.458352979
16.9600,-4.64893767
16.9650,-4.837185236
16.9700,-5.023037162
16.9750,-5.206351556
16.9800,-5.387201064
16.9850,-5.565292769
16.9900,-5.740469657
16.9950,-5.911957331
17.0000,-6.079753609
17.0050,-6.243973863
17.0100,-6.404639396
17.0150,-6.561826435
17.0200,-6.715342891
17.0250,-6.865357198
17.0300,-7.011720038
17.0350,-7.154169878
17.0400,-7.292529468
17.0450,-7.426279323
17.0500,-7.555507323
17.0550,-7.679917563
17.0600,-7.799258558
17.0650,-7.913466527
17.0700,-8.022452913
17.0750,-8.125964339
17.0800,-8.223929738
17.0850,-8.31645182
17.0900,-8.403574689
17.0950,-8.485273783
17.1000,-8.561764697
17.1050,-8.632892319
17.1100,-8.699167754
17.1150,-8.761087546
17.1200,-8.818249636
17.1250,-8.871044946
17.1300,-8.920007523
17.1350,-8.965418142
17.1400,-9.008160352
17.1450,-9.048571985
17.1500,-9.087325265
17.1550,-9.124505733
17.1600,-9.160811724
17.1650,-9.196484389
17.1700,-9.231717499
17.1750,-9.266699881
17.1800,-9.30137692
17.1850,-9.336085913
17.1900,-9.370629763
17.1950,-9.405441419
17.2000,-9.440428718
17.2050,-9.475878388
17.2100,-9.511780026
17.2150,-9.548456088
17.2200,-9.585774891
17.2250,-9.623812248
17.2300,-9.662602483
17.2350,-9.702238041
17.2400,-9.742846741
17.2450,-9.784461311
17.2500,-9.82733733
17.2550,-9.871510948
17.2600,-9.91688446
17.2650,-9.963655404
17.2700,-10.0116141
17.2750,-10.06094267
17.2800,-10.1115146
17.2850,-10.16336269
17.2900,-10.21661115
17.2950,-10.27172457
17.3000,-10.32873722
17.3050,-10.38735286
17.3100,-10.44775478
17.3150,-10.50977466
17.3200,-10.57345418
17.3250,-10.6385687
17.3300,-10.70509717
17.3350,-10.77310946
17.3400,-10.84285542
17.3450,-10.91446292
17.3500,-10.98783983
17.3550,-11.06294782
17.3600,-11.14015514
17.3650,-11.21951889
17.3700,-11.30094564
17.3750,-11.38474626
17.3800,-11.47106225
17.3850,-11.55983307
17.3900,-11.65133974
17.3950,-11.7458156
17.4000,-11.84330421
17.4050,-11.94396378
17.4100,-12.04761671
17.4150,-12.15399549
17.4200,-12.2631029
17.4250,-12.37446863
17.4300,-12.48771193
17.4350,-12.60259977
17.4400,-12.71845776
17.4450,-12.83499036
17.4500,-12.95169345
17.4550,-13.06822001
17.4600,-13.18396501
17.4650,-13.29845226
17.4700,-13.4114033
17.4750,-13.52248419
17.4800,-13.63146133
17.4850,-13.73813668
17.4900,-13.84221422
17.4950,-13.94333747
17.5000,-14.04156713
17.5050,-14.13672954
17.5100,-14.22880231
17.5150,-14.31743252
17.5200,-14.4026919
17.5250,-14.48437939
17.5300,-14.5624563
17.5350,-14.6368645
17.5400,-14.70751398
17.5450,-14.77454439
17.5500,-14.83779712
17.5550,-14.89725627
17.5600,-14.95285902
17.5650,-15.0043533
17.5700,-15.05218205
17.5750,-15.09607179
17.5800,-15.13606515
17.5850,-15.17255248
17.5900,-15.20541503
17.5950,-15.23476347
17.6000,-15.26050127
17.6050,-15.28299019
17.6100,-15.3024403
17.6150,-15.31910151
17.6200,-15.3333323
17.6250,-15.3453588
17.6300,-15.35550622
17.6350,-15.36394868
17.6400,-15.37067276
17.6450,-15.37582118
17.6500,-15.37930426
17.6550,-15.3814813
17.6600,-15.38213605
17.6650,-15.38147041
17.6700,-15.3797037
17.6750,-15.37694172
17.6800,-15.37338423
17.6850,-15.36925554
17.6900,-15.36453824
17.6950,-15.35947327
17.7000,-15.35430679
17.7050,-15.34905771
17.7100,-15.34376523
17.7150,-15.33828855
17.7200,-15.33267955
17.7250,-15.32705467
17.7300,-15.32125817
17.7350,-15.31500702
17.7400,-15.30830962
17.7450,-15.30091068
17.7500,-15.29252716
17.7550,-15.28298764
17.7600,-15.27216358
17.7650,-15.25993507
17.7700,-15.24594372
17.7750,-15.2298207
17.7800,-15.21102528
17.7850,-15.18927658
17.7900,-15.16422787
17.7950,-15.13563922
17.8000,-15.10332426
17.8050,-15.06696914
17.8100,-15.02665836
17.8150,-14.98250331
17.8200,-14.93477104
17.8250,-14.88382232
17.8300,-14.82996847
17.8350,-14.77377572
17.8400,-14.71561611
17.8450,-14.65586986
17.8500,-14.59479192
17.8550,-14.53307155
17.8600,-14.47095305
17.8650,-14.40897772
17.8700,-14.34752554
17.8750,-14.28747845
17.8800,-14.22928259
17.8850,-14.17317607
17.8900,-14.11979092
17.8950,-14.06907264
17.9000,-14.02134934
17.9050,-13.97681724
17.9100,-13.93546255
17.9150,-13.89732329
17.9200,-13.86248005
17.9250,-13.83064226
17.9300,-13.80168991
17.9350,-13.77545267
17.9400,-13.75148327
17.9450,-13.72960589
17.9500,-13.70969799
17.9550,-13.69126529
17.9600,-13.67429505
17.9650,-13.65819913
17.9700,-13.64290905
17.9750,-13.62795981
17.9800,-13.61323007
17.9850,-13.59863633
17.9900,-13.58398479
17.9950,-13.56919816
18.0000,-13.55380618
18.0050,-13.53810404
18.0100,-13.52192593
18.0150,-13.50550532
18.0200,-13.48867652
18.0250,-13.47148627
18.0300,-13.45392571
18.0350,-13.43634635
18.0400,-13.41877138
18.0450,-13.40129973
18.0500,-13.38420506
18.0550,-13.36750464
18.0600,-13.3514625
18.0650,-13.33602735
18.0700,-13.32132284
18.0750,-13.3075854
18.0800,-13.29493358
18.0850,-13.28324458
18.0900,-13.27273293
18.0950,-13.26360561
18.1000,-13.25600092
18.1050,-13.2501692
18.1100,-13.24595036
18.1150,-13.24353324
18.1200,-13.24287941
18.1250,-13.24382842
18.1300,-13.24622862
18.1350,-13.25005237
18.1400,-13.25517096
18.1450,-13.26161253
18.1500,-13.26951968
18.1550,-13.27872309
18.1600,-13.28945951
18.1650,-13.30159491
18.1700,-13.31502209
18.1750,-13.32958779
18.1800,-13.34517107
18.1850,-13.36194064
18.1900,-13.37952253
18.1950,-13.39821404
18.2000,-13.41769838
18.2050,-13.43795934
18.2100,-13.45875134
18.2150,-13.47987257
18.2200,-13.50121796
18.2250,-13.5227947
18.2300,-13.54437652
18.2350,-13.5656048
18.2400,-13.58661417
18.2450,-13.6068859
18.2500,-13.62624115
18.2550,-13.6446971
18.2600,-13.66197979
18.2650,-13.67819816
18.2700,-13.69340015
18.2750,-13.70769676
18.2800,-13.72112244
18.2850,-13.73355097
18.2900,-13.74497791
18.2950,-13.75535088
18.3000,-13.76492966
18.3050,-13.77365444
18.3100,-13.78182765
18.3150,-13.78961542
18.3200,-13.79742416
18.3250,-13.80535328
18.3300,-13.81373451
18.3350,-13.82251347
18.3400,-13.83176929
18.3450,-13.84158158
18.3500,-13.85215406
18.3550,-13.86369851
18.3600,-13.87642675
18.3650,-13.89087426
18.3700,-13.90754699
18.3750,-13.92666471
18.3800,-13.94843565
18.3850,-13.97315545
18.3900,-14.00082756
18.3950,-14.03154355
18.4000,-14.06530713
18.4050,-14.10234337
18.4100,-14.1425966
18.4150,-14.18573484
18.4200,-14.23149541
18.4250,-14.27952042
18.4300,-14.32968165
18.4350,-14.38166986
18.4400,-14.43529909
18.4450,-14.4900615
18.4500,-14.54564621
18.4550,-14.60176791
18.4600,-14.65810594
18.4650,-14.71427927
18.4700,-14.77010034
18.4750,-14.8253909
18.4800,-14.88014018
18.4850,-14.93407168
18.4900,-14.98715265
18.4950,-15.03917618
18.5000,-15.09033712
18.5050,-15.14049572
18.5100,-15.18964058
18.5150,-15.23755814
18.5200,-15.2839411
18.5250,-15.32862363
18.5300,-15.37130596
18.5350,-15.41204949
18.5400,-15.45046634
18.5450,-15.48663332
18.5500,-15.52041221
18.5550,-15.55143037
18.5600,-15.57944273
18.5650,-15.60397353
18.5700,-15.62450656
18.5750,-15.64081033
18.5800,-15.65250864
18.5850,-15.65954011
18.5900,-15.66194272
18.5950,-15.65957118
18.6000,-15.65257428
18.6050,-15.6411443
18.6100,-15.62548276
18.6150,-15.60564868
18.6200,-15.581665
18.6250,-15.55376703
18.6300,-15.52205542
18.6350,-15.48683807
18.6400,-15.44822849
18.6450,-15.40638902
18.6500,-15.3612638
18.6550,-15.313034
18.6600,-15.26162316
18.6650,-15.20688975
18.6700,-15.14869725
18.6750,-15.08720657
18.6800,-15.02246933
18.6850,-14.9545704
18.6900,-14.88364119
18.6950,-14.80960851
18.7000,-14.73251084
18.7050,-14.65195376
18.7100,-14.5679672
18.7150,-14.48076325
18.7200,-14.39064111
18.7250,-14.29786278
18.7300,-14.20271821
18.7350,-14.1051837
18.7400,-14.00534201
18.7450,-13.90329226
18.7500,-13.79923987
18.7550,-13.69317632
18.7600,-13.58524874
18.7650,-13.47583668
18.7700,-13.36513681
18.7750,-13.25311696
18.7800,-13.13983845
18.7850,-13.02524947
18.7900,-12.90951046
18.7950,-12.79258489
18.8000,-12.67435436
18.8050,-12.55513073
18.8100,-12.43496084
18.8150,-12.31423025
18.8200,-12.19324218
18.8250,-12.07197858
18.8300,-11.95059658
18.8350,-11.82889632
18.8400,-11.7069305
18.8450,-11.58462577
18.8500,-11.46179293
18.8550,-11.33822693
18.8600,-11.2139415
18.8650,-11.08902506
18.8700,-10.96319229
18.8750,-10.8363537
18.8800,-10.70848229
18.8850,-10.57940875
18.8900,-10.44933361
18.8950,-10.31824008
18.9000,-10.18638698
18.9050,-10.05332605
18.9100,-9.919068355
18.9150,-9.783497765
18.9200,-9.646472286
18.9250,-9.507878139
18.9300,-9.367487945
18.9350,-9.225446983
18.9400,-9.081611798
18.9450,-8.936061695
18.9500,-8.788498306
18.9550,-8.638930026
18.9600,-8.487688996
18.9650,-8.3344182
18.9700,-8.178912659
18.9750,-8.020531487
18.9800,-7.859373215
18.9850,-7.694950641
18.9900,-7.527060201
18.9950,-7.355261556
19.0000,-7.178984679
19.0050,-6.99834643
19.0100,-6.812966561
19.0150,-6.622722421
19.0200,-6.427270963
19.0250,-6.226460457
19.0300,-6.019992172
19.0350,-5.807754393
19.0400,-5.589563669
19.0450,-5.365543393
19.0500,-5.135734259
19.0550,-4.900249
19.0600,-4.658967192
19.0650,-4.411898476
19.0700,-4.158931307
19.0750,-3.899947149
19.0800,-3.635155663
19.0850,-3.364770156
19.0900,-3.088779245
19.0950,-2.807569078
19.1000,-2.521214437
19.1050,-2.229314086
19.1100,-1.932042349
19.1150,-1.629013417
19.1200,-1.319877188
19.1250,-1.004530709
19.1300,-0.6827346033
19.1350,-0.354160956
19.1400,-0.01882982325
19.1450,0.323262551
19.1500,0.6720129284
19.1550,1.027275799
19.1600,1.389155218
19.1650,1.757391048
19.1700,2.131707514
19.1750,2.512069183
19.1800,2.898000299
19.1850,3.289435263
19.1900,3.686586392
19.1950,4.089494968
19.2000,4.498343439
19.2050,4.912656615
19.2100,5.33254943
19.2150,5.757990026
19.2200,6.188623428
19.2250,6.624376328
19.2300,7.065355811
19.2350,7.511915248
19.2400,7.963663087
19.2450,8.420719537
19.2500,8.882821818
19.2550,9.350083844
19.2600,9.822991727
19.2650,10.30087925
19.2700,10.78378514
19.2750,11.27137739
19.2800,11.76380187
19.2850,12.26132897
19.2900,12.76422539
19.2950,13.27194269
19.3000,13.78434193
19.3050,14.3013086
19.3100,14.82271961
19.3150,15.34834004
19.3200,15.87792347
19.3250,16.41170754
19.3300,16.94969373
19.3350,17.49167865
19.3400,18.03727105
19.3450,18.5867423
19.3500,19.14027101
19.3550,19.69791881
19.3600,20.259525
19.3650,20.82538204
19.3700,21.39535044
19.3750,21.96955897
19.3800,22.54788769
19.3850,23.13037623
19.3900,23.71724172
19.3950,24.30855697
19.4000,24.90396173
19.4050,25.503197
19.4100,26.10602679
19.4150,26.71211321
19.4200,27.32076465
19.4250,27.93173746
19.4300,28.54470323
19.4350,29.15858269
19.4400,29.7730571
19.4450,30.38750256
19.4500,31.00147635
19.4550,31.61432132
19.4600,32.22559299
19.4650,32.83510313
19.4700,33.44233659
19.4750,34.04663659
19.4800,34.64752096
19.4850,35.2441376
19.4900,35.83673885
19.4950,36.42490655
19.5000,37.00833999
19.5050,37.58684577
19.5100,38.15978535
19.5150,38.72728853
19.5200,39.28935488
19.5250,39.8459181
19.5300,40.39700878
19.5350,40.94252216
19.5400,41.48265513
19.5450,42.01719496
19.5500,42.54603022
19.5550,43.06889302
19.5600,43.58509116
19.5650,44.09533793
19.5700,44.59963197
19.5750,45.09803416
19.5800,45.59043648
19.5850,46.07617659
19.5900,46.55527642
19.5950,47.02761372
19.6000,47.49323072
19.6050,47.95247052
19.6100,48.40550051
19.6150,48.85252907
19.6200,49.29357212
19.6250,49.728152
19.6300,50.1560386
19.6350,50.57743709
19.6400,50.99240699
19.6450,51.40074145
19.6500,51.80284609
19.6550,52.19873451
19.6600,52.58919275
19.6650,52.97434457
19.6700,53.35437761
19.6750,53.72927742
19.6800,54.09892232
19.6850,54.46326979
19.6900,54.82232296
19.6950,55.17605019
19.7000,55.52431558
19.7050,55.86647896
19.7100,56.20197698
19.7150,56.53025232
19.7200,56.85126961
19.7250,57.16477775
19.7300,57.47079613
19.7350,57.76991104
19.7400,58.06259327
19.7450,58.34914867
19.7500,58.62992535
19.7550,58.90491372
19.7600,59.17389412
19.7650,59.43645183
19.7700,59.69262205
19.7750,59.94268177
19.7800,60.18731256
19.7850,60.4278444
19.7900,60.66426905
19.7950,60.89691951
19.8000,61.12649552
19.8050,61.35347244
19.8100,61.57831699
19.8150,61.80061129
19.8200,62.02007637
19.8250,62.23687811
19.8300,62.45100764
19.8350,62.66316674
19.8400,62.87301884
19.8450,63.07993507
19.8500,63.28424508
19.8550,63.48620329
19.8600,63.6861916
19.8650,63.88405696
19.8700,64.0793767
19.8750,64.27223381
19.8800,64.46357866
19.8850,64.65425571
19.8900,64.84476764
19.8950,65.03522048
19.9000,65.22534766
19.9050,65.41424849
19.9100,65.60115009
19.9150,65.78508278
19.9200,65.96567434
19.9250,66.1429372
19.9300,66.31731525
19.9350,66.48937965
19.9400,66.6595754
19.9450,66.82844902
19.9500,66.99601662
19.9550,67.16203333
19.9600,67.32615401
19.9650,67.48852532
19.9700,67.64886411
19.9750,67.80690137
19.9800,67.96315808
19.9850,68.11756998
19.9900,68.27054539
19.9950,68.42192821
20.0000,68.57186187
20.0050,68.72067356
20.0100,68.86874359
20.0150,69.01642682
20.0200,69.1636342
20.0250,69.30998488
20.0300,69.4551538
20.0350,69.59853405
20.0400,69.7395959
20.0450,69.87808717
20.0500,70.01339319
20.0550,70.14556269
20.0600,70.2750832
20.0650,70.40283344
20.0700,70.52905152
20.0750,70.65398
20.0800,70.77762479
20.0850,70.89939794
20.0900,71.01912589
20.0950,71.13707345
20.1000,71.25336147
20.1050,71.36830325
20.1100,71.48206748
20.1150,71.59535545
20.1200,71.70863605
20.1250,71.82168557
20.1300,71.93445716
20.1350,72.04639184
20.1400,72.15756188
20.1450,72.26876001
20.1500,72.37964058
20.1550,72.49018541
20.1600,72.60018949
20.1650,72.70940205
20.1700,72.81829379
20.1750,72.92690533
20.1800,73.034617
20.1850,73.14106804
20.1900,73.24597686
20.1950,73.34923866
20.2000,73.45103574
20.2050,73.55175595
20.2100,73.65167604
20.2150,73.75095221
20.2200,73.84969261
20.2250,73.94798302
20.2300,74.04560559
20.2350,74.14201915
20.2400,74.23700813
20.2450,74.33032072
20.2500,74.42160546
20.2550,74.51148466
20.2600,74.59997905
20.2650,74.68721566
20.2700,74.77333477
20.2750,74.8583019
20.2800,74.94207862
20.2850,75.02437575
20.2900,75.10464719
20.2950,75.18308331
20.3000,75.25986374
20.3050,75.33530423
20.3100,75.40934313
20.3150,75.48212894
20.3200,75.5536756
20.3250,75.62397978
20.3300,75.69277204
20.3350,75.76010015
20.3400,75.82575805
20.3450,75.89000638
20.3500,75.95293184
20.3550,76.0145094
20.3600,76.07484822
20.3650,76.13368977
20.3700,76.19127428
20.3750,76.24737033
20.3800,76.30195412
20.3850,76.3554127
20.3900,76.40823743
20.3950,76.4603974
20.4000,76.51169655
20.4050,76.56169899
20.4100,76.61037943
20.4150,76.65723311
20.4200,76.70214728
20.4250,76.74510957
20.4300,76.78616461
20.4350,76.8256322
20.4400,76.86331384
20.4450,76.89884226
20.4500,76.93199768
20.4550,76.96273866
20.4600,76.99126934
20.4650,77.01778054
20.4700,77.04178645
20.4750,77.06298613
20.4800,77.08197092
20.4850,77.09904687
20.4900,77.11418413
20.4950,77.12733342
20.5000,77.13827783
20.5050,77.14716745
20.5100,77.15412084
20.5150,77.15917908
20.5200,77.1627508
20.5250,77.16490147
20.5300,77.16557736
20.5350,77.16510263
20.5400,77.16364774
20.5450,77.16119337
20.5500,77.15793587
20.5550,77.15373039
20.5600,77.14844772
20.5650,77.14207324
20.5700,77.13459367
20.5750,77.12645292
20.5800,77.11758651
20.5850,77.10833126
20.5900,77.09895249
20.5950,77.08954558
20.6000,77.07949181
20.6050,77.06848291
20.6100,77.05662067
20.6150,77.04388631
20.6200,77.03034114
20.6250,77.01652357
20.6300,77.0025348
20.6350,76.98848844
20.6400,76.97439334
20.6450,76.96019918
20.6500,76.94571612
20.6550,76.93122553
20.6600,76.91656504
20.6650,76.90195128
20.6700,76.88727723
20.6750,76.87298896
20.6800,76.85910403
20.6850,76.8455379
20.6900,76.83215677
20.6950,76.81888589
20.7000,76.8060391
20.7050,76.79395575
20.7100,76.78272458
20.7150,76.77291665
20.7200,76.76447978
20.7250,76.75735165
20.7300,76.75163537
20.7350,76.74685796
20.7400,76.74312126
20.7450,76.74048386
20.7500,76.7390756
20.7550,76.73897387
20.7600,76.74021484
20.7650,76.74272712
20.7700,76.74677962
20.7750,76.75238135
20.7800,76.75918355
20.7850,76.76682243
20.7900,76.77528466
20.7950,76.7848453
20.8000,76.79573558
20.8050,76.80769397
20.8100,76.82055534
20.8150,76.83436859
20.8200,76.8490143
20.8250,76.86433303
20.8300,76.88012164
20.8350,76.89621703
20.8400,76.9124454
20.8450,76.92871139
20.8500,76.94503385
20.8550,76.96149487
20.8600,76.97816442
20.8650,76.99484002
20.8700,77.01178323
20.8750,77.02844879
20.8800,77.04454462
20.8850,77.05968167
20.8900,77.07336629
20.8950,77.08541222
20.9000,77.09627066
20.9050,77.10602821
20.9100,77.11467575
20.9150,77.12226316
20.9200,77.12883828
20.9250,77.13404716
20.9300,77.1382271
20.9350,77.14118839
20.9400,77.14285287
20.9450,77.14295615
20.9500,77.14153821
20.9550,77.13869329
20.9600,77.13443196
20.9650,77.12845414
20.9700,77.12143117
20.9750,77.11324252
20.9800,77.10418188
20.9850,77.09424139
20.9900,77.08316082
20.9950,77.07119426
21.0000,77.05826615
21.0050,77.0445493
21.0100,77.03018571
21.0150,77.01524001
21.0200,76.99969928
21.0250,76.98375578
21.0300,76.96726818
21.0350,76.95043823
21.0400,76.9334348
21.0450,76.91619816
21.0500,76.89883568
21.0550,76.88124254
21.0600,76.86342387
21.0650,76.84528919
21.0700,76.8267662
21.0750,76.80760354
21.0800,76.78780311
21.0850,76.76723535
21.0900,76.74593513
21.0950,76.72380566
21.1000,76.70077659
21.1050,76.67718532
21.1100,76.65289555
21.1150,76.62801215
21.1200,76.60240237
21.1250,76.57614013
21.1300,76.54935339
21.1350,76.52188286
21.1400,76.49346348
21.1450,76.4643434
21.1500,76.43419719
21.1550,76.40268086
21.1600,76.36976793
21.1650,76.33571513
21.1700,76.3000807
21.1750,76.26311941
21.1800,76.22486638
21.1850,76.18539558
21.1900,76.14503431
21.1950,76.1035699
21.2000,76.06081699
21.2050,76.01660043
21.2100,75.97083107
21.2150,75.92346388
21.2200,75.8741734
21.2250,75.82289449
21.2300,75.76939146
21.2350,75.71357503
21.2400,75.65544082
21.2450,75.59527129
21.2500,75.53347595
21.2550,75.46982157
21.2600,75.40447287
21.2650,75.33755377
21.2700,75.26828132
21.2750,75.19665652
21.2800,75.12233086
21.2850,75.04510661
21.2900,74.96502249
21.2950,74.88164521
21.3000,74.7948915
21.3050,74.70428664
21.3100,74.6095999
21.3150,74.51034055
21.3200,74.40667039
21.3250,74.29855887
21.3300,74.18637482
21.3350,74.07011497
21.3400,73.94948034
21.3450,73.82459261
21.3500,73.69525645
21.3550,73.56132389
21.3600,73.42238733
21.3650,73.27796579
21.3700,73.12755492
21.3750,72.97128364
21.3800,72.80894544
21.3850,72.64042805
21.3900,72.46518123
21.3950,72.2827839
21.4000,72.09293599
21.4050,71.8950492
21.4100,71.68910698
21.4150,71.47476902
21.4200,71.25191506
21.4250,71.01982256
21.4300,70.77838124
21.4350,70.52676162
21.4400,70.26477208
21.4450,69.99173467
21.4500,69.70770253
21.4550,69.41201301
21.4600,69.10459759
21.4650,68.78457558
21.4700,68.4518843
21.4750,68.10554841
21.4800,67.74513478
21.4850,67.37002299
21.4900,66.97900553
21.4950,66.57131
21.5000,66.14651891
21.5050,65.70367303
21.5100,65.24196268
21.5150,64.76005882
21.5200,64.25758619
21.5250,63.73410912
21.5300,63.18953212
21.5350,62.62389713
21.5400,62.03671746
21.5450,61.42793859
21.5500,60.79696068
21.5550,60.1439715
21.5600,59.46860775
21.5650,58.77068518
21.5700,58.05045715
21.5750,57.30747842
21.5800,56.54208676
21.5850,55.75429044
21.5900,54.94394941
21.5950,54.11160415
21.6000,53.25747639
21.6050,52.38214329
21.6100,51.48596457
21.6150,50.56939414
21.6200,49.63276096
21.6250,48.67699675
21.6300,47.70289294
21.6350,46.71127393
21.6400,45.7029645
21.6450,44.67869236
21.6500,43.63979499
21.6550,42.5875081
21.6600,41.52285744
21.6650,40.44752788
21.6700,39.36286235
21.6750,38.26995442
21.6800,37.16988468
21.6850,36.0643489
21.6900,34.95442569
21.6950,33.84192121
21.7000,32.72805598
21.7050,31.61435025
21.7100,30.50228957
21.7150,29.39351987
21.7200,28.28921111
21.7250,27.19117751
21.7300,26.10026368
21.7350,25.01793987
21.7400,23.94570454
21.7450,22.8845559
21.7500,21.83520975
21.7550,20.79889918
21.7600,19.77575754
21.7650,18.76659912
21.7700,17.77207647
21.7750,16.79284861
21.7800,15.82943291
21.7850,14.88162828
21.7900,13.9496476
21.7950,13.03359177
21.8000,12.13335064
21.8050,11.24880003
21.8100,10.3801032
21.8150,9.527020481
21.8200,8.68947967
21.8250,7.867687519
21.8300,7.061497571
21.8350,6.271222644
21.8400,5.497184276
21.8450,4.739703519
21.8500,3.999373745
21.8550,3.277131347
21.8600,2.57384411
21.8650,1.890265258
21.8700,1.226867536
21.8750,0.5835927565
21.8800,-0.039130429
21.8850,-0.6417477445
21.8900,-1.224069699
21.8950,-1.786870728
21.9000,-2.330847992
21.9050,-2.856330942
21.9100,-3.364133084
21.9150,-3.855045354
21.9200,-4.329329238
21.9250,-4.787810618
21.9300,-5.230434041
21.9350,-5.658019932
21.9400,-6.070649154
21.9450,-6.468725966
21.9500,-6.85272963
21.9550,-7.22259281
21.9600,-7.578560854
21.9650,-7.92107278
21.9700,-8.250606805
21.9750,-8.5672471
21.9800,-8.870984514
21.9850,-9.162306253
21.9900,-9.441274941
21.9950,-9.708504642
22.0000,-9.964291212
22.0050,-10.20925386
22.0100,-10.44408095
22.0150,-10.66951094
22.0200,-10.88599715
22.0250,-11.09440952
22.0300,-11.29565979
22.0350,-11.49046043
22.0400,-11.67982095
22.0450,-11.86384641
22.0500,-12.04278597
22.0550,-12.21690682
22.0600,-12.3866788
22.0650,-12.5521928
22.0700,-12.71336276
22.0750,-12.86999654
22.0800,-13.0219298
22.0850,-13.16857622
22.0900,-13.30972825
22.0950,-13.44496906
22.1000,-13.57379666
22.1050,-13.69629038
22.1100,-13.81217485
22.1150,-13.92147127
22.1200,-14.02413456
22.1250,-14.12038684
22.1300,-14.21029851
22.1350,-14.29405017
22.1400,-14.37207689
22.1450,-14.44479775
22.1500,-14.51245282
22.1550,-14.57567303
22.1600,-14.63504221
22.1650,-14.69156897
22.1700,-14.74564767
22.1750,-14.79752486
22.1800,-14.84772663
22.1850,-14.89660302
22.1900,-14.94464551
22.1950,-14.99171843
22.2000,-15.03761009
22.2050,-15.08259172
22.2100,-15.1266015
22.2150,-15.16989605
22.2200,-15.21253868
22.2250,-15.25442815
22.2300,-15.2958724
22.2350,-15.33686324
22.2400,-15.37781679
22.2450,-15.41848355
22.2500,-15.45940567
22.2550,-15.50063807
22.2600,-15.54247755
22.2650,-15.58464013
22.2700,-15.62728018
22.2750,-15.67045404
22.2800,-15.71403857
22.2850,-15.75766954
22.2900,-15.80125605
22.2950,-15.84442705
22.3000,-15.88726999
22.3050,-15.92949457
22.3100,-15.97104145
22.3150,-16.01155866
22.3200,-16.0509961
22.3250,-16.08918251
22.3300,-16.12609888
22.3350,-16.1615908
22.3400,-16.19582354
22.3450,-16.22889315
22.3500,-16.2608476
22.3550,-16.29190209
22.3600,-16.3216341
22.3650,-16.35007272
22.3700,-16.37695743
22.3750,-16.4020464
22.3800,-16.4250864
22.3850,-16.4461555
22.3900,-16.46481242
22.3950,-16.4810251
22.4000,-16.49496331
22.4050,-16.50668684
22.4100,-16.51644823
22.4150,-16.52419458
22.4200,-16.53008234
22.4250,-16.53396367
22.4300,-16.53566335
22.4350,-16.53502511
22.4400,-16.53172744
22.4450,-16.5258324
22.4500,-16.51694458
22.4550,-16.50536091
22.4600,-16.49074195
22.4650,-16.4729567
22.4700,-16.45198115
22.4750,-16.42771903
22.4800,-16.40014049
22.4850,-16.36895654
22.4900,-16.33389914
22.4950,-16.29485431
22.5000,-16.25167862
22.5050,-16.20409535
22.5100,-16.15192935
22.5150,-16.09509697
22.5200,-16.03349106
22.5250,-15.96711053
22.5300,-15.89627565
22.5350,-15.82127879
22.5400,-15.74215895
22.5450,-15.65968424
22.5500,-15.57377662
22.5550,-15.48491878
22.5600,-15.39315149
22.5650,-15.29892547
22.5700,-15.20212591
22.5750,-15.10267947
22.5800,-15.00075029
22.5850,-14.89645019
22.5900,-14.7899884
22.5950,-14.68153373
22.6000,-14.57117917
22.6050,-14.45917894
22.6100,-14.34574189
22.6150,-14.23099898
22.6200,-14.11531627
22.6250,-13.99879646
22.6300,-13.88172677
22.6350,-13.76427797
22.6400,-13.64644459
22.6450,-13.5284215
22.6500,-13.41054523
22.6550,-13.29277204
22.6600,-13.17561549
22.6650,-13.05931904
22.6700,-12.94460134
22.6750,-12.83186601
22.6800,-12.72185585
22.6850,-12.61501983
22.6900,-12.51183164
22.6950,-12.41283928
22.7000,-12.31795757
22.7050,-12.22704347
22.7100,-12.14013039
22.7150,-12.057151
22.7200,-11.977912
22.7250,-11.90214974
22.7300,-11.82967784
22.7350,-11.76067652
22.7400,-11.69506264
22.7450,-11.63261367
22.7500,-11.57355593
22.7550,-11.51759406
22.7600,-11.4650255
22.7650,-11.4159221
22.7700,-11.37016378
22.7750,-11.3276083
22.7800,-11.28785492
22.7850,-11.25082239
22.7900,-11.21597818
22.7950,-11.18297949
22.8000,-11.15168736
22.8050,-11.12176212
22.8100,-11.09335036
22.8150,-11.0659315
22.8200,-11.03923215
22.8250,-11.01271631
22.8300,-10.98557324
22.8350,-10.95702859
22.8400,-10.92638756
22.8450,-10.89269817
22.8500,-10.85509878
22.8550,-10.81289453
22.8600,-10.76524681
22.8650,-10.71169143
22.8700,-10.65174265
22.8750,-10.58526585
22.8800,-10.51213229
22.8850,-10.43258502
22.8900,-10.34668584
22.8950,-10.25470208
22.9000,-10.157149
22.9050,-10.05434067
22.9100,-9.946912021
22.9150,-9.835565048
22.9200,-9.720942851
22.9250,-9.603749415
22.9300,-9.484696938
22.9350,-9.364381211
22.9400,-9.243575734
22.9450,-9.123000444
22.9500,-9.0032083
22.9550,-8.885022451
22.9600,-8.768860331
22.9650,-8.655363308
22.9700,-8.545010081
22.9750,-8.438074557
22.9800,-8.334735526
22.9850,-8.235238201
22.9900,-8.139697385
22.9950,-8.04827069
23.0000,-7.961039392
23.0050,-7.878564034
23.0100,-7.801126713
23.0150,-7.729143018
23.0200,-7.662977082
23.0250,-7.603073815
23.0300,-7.549732861
23.0350,-7.503230311
23.0400,-7.463830893
23.0450,-7.431560159
23.0500,-7.406396017
23.0550,-7.388185193
23.0600,-7.376799894
23.0650,-7.371743183
23.0700,-7.372960709
23.0750,-7.380268214
23.0800,-7.393710354
23.0850,-7.412993532
23.0900,-7.43785074
23.0950,-7.468006108
23.1000,-7.50266137
23.1050,-7.541544279
23.1100,-7.583943939
23.1150,-7.629475084
23.1200,-7.677767247
23.1250,-7.728302512
23.1300,-7.780689857
23.1350,-7.834523464
23.1400,-7.889508977
23.1450,-7.945447406
23.1500,-8.002153871
23.1550,-8.059651607
23.1600,-8.11777589
23.1650,-8.17612594
23.1700,-8.234543845
23.1750,-8.292568677
23.1800,-8.349946483
23.1850,-8.406201865
23.1900,-8.461210114
23.1950,-8.514710784
23.2000,-8.566355358
23.2050,-8.616010764
23.2100,-8.66342428
23.2150,-8.708443529
23.2200,-8.751090031
23.2250,-8.79158868
23.2300,-8.829925859
23.2350,-8.866381396
23.2400,-8.901193744
23.2450,-8.9344746
23.2500,-8.966312663
23.2550,-8.996735808
23.2600,-9.025962499
23.2650,-9.053906768
23.2700,-9.080314329
23.2750,-9.105378324
23.2800,-9.129054266
23.2850,-9.151606159
23.2900,-9.173410487
23.2950,-9.194600263
23.3000,-9.215660431
23.3050,-9.236645398
23.3100,-9.257565494
23.3150,-9.278309483
23.3200,-9.298696008
23.3250,-9.318774979
23.3300,-9.338475692
23.3350,-9.357739857
23.3400,-9.376371261
23.3450,-9.394384739
23.3500,-9.411883747
23.3550,-9.428787445
23.3600,-9.444896911
23.3650,-9.460469787
23.3700,-9.475501555
23.3750,-9.489940405
23.3800,-9.503783476
23.3850,-9.516790914
23.3900,-9.529160703
23.3950,-9.540646221
23.4000,-9.55161508
23.4050,-9.561877277
23.4100,-9.571454127
23.4150,-9.580094883
23.4200,-9.58756666
23.4250,-9.593910997
23.4300,-9.599284306
23.4350,-9.603654185
23.4400,-9.607124213
23.4450,-9.609845226
23.4500,-9.611821748
23.4550,-9.612960228
23.4600,-9.613382071
23.4650,-9.613257092
23.4700,-9.612871562
23.4750,-9.612750592
23.4800,-9.613388612
23.4850,-9.615510949
23.4900,-9.619387679
23.4950,-9.625301897
23.5000,-9.633462753
23.5050,-9.643845337
23.5100,-9.656453214
23.5150,-9.671044598
23.5200,-9.687650896
23.5250,-9.706364557
23.5300,-9.727594755
23.5350,-9.751738704
23.5400,-9.779105389
23.5450,-9.810196655
23.5500,-9.84551571
23.5550,-9.885566903
23.5600,-9.930846454
23.5650,-9.981528828
23.5700,-10.03803026
23.5750,-10.10042444
23.5800,-10.16881835
23.5850,-10.24300738
23.5900,-10.3228094
23.5950,-10.40828517
23.6000,-10.49893284
23.6050,-10.59449934
23.6100,-10.69479316
23.6150,-10.79923835
23.6200,-10.90742018
23.6250,-11.01863724
23.6300,-11.13226142
23.6350,-11.24728849
23.6400,-11.36280869
23.6450,-11.47793657
23.6500,-11.59158227
23.6550,-11.70305278
23.6600,-11.81167393
23.6650,-11.91682053
23.6700,-12.01802213
23.6750,-12.11515015
23.6800,-12.2078899
23.6850,-12.29628116
23.6900,-12.38035986
23.6950,-12.46034085
23.7000,-12.53649012
23.7050,-12.60907381
23.7100,-12.67839367
23.7150,-12.74481921
23.7200,-12.80850569
23.7250,-12.86948046
23.7300,-12.92801683
23.7350,-12.98419734
23.7400,-13.03818018
23.7450,-13.08988615
23.7500,-13.13983166
23.7550,-13.1881842
23.7600,-13.23539939
23.7650,-13.28159711
23.7700,-13.32671522
23.7750,-13.37069095
23.7800,-13.41321434
23.7850,-13.45394979
23.7900,-13.49292267
23.7950,-13.52990912
23.8000,-13.56505063
23.8050,-13.59891848
23.8100,-13.63195196
23.8150,-13.66488016
23.8200,-13.69800104
23.8250,-13.73160199
23.8300,-13.76536588
23.8350,-13.79911929
23.8400,-13.83262439
23.8450,-13.86545703
23.8500,-13.89753119
23.8550,-13.92853179
23.8600,-13.95825457
23.8650,-13.98649631
23.8700,-14.0132795
23.8750,-14.03850543
23.8800,-14.06209303
23.8850,-14.08413232
23.8900,-14.10464567
23.8950,-14.12347652
23.9000,-14.14080113
23.9050,-14.15635624
23.9100,-14.16996015
23.9150,-14.1816685
23.9200,-14.19136013
23.9250,-14.19880276
23.9300,-14.20371707
23.9350,-14.20591202
23.9400,-14.20551101
23.9450,-14.20250301
23.9500,-14.19691219
23.9550,-14.18876177
23.9600,-14.17820083
23.9650,-14.16536942
23.9700,-14.15043578
23.9750,-14.13342506
23.9800,-14.11457406
23.9850,-14.09420657
23.9900,-14.07225363
23.9950,-14.0487909
24.0000,-14.02366549
24.0050,-13.99691506
24.0100,-13.96834839
24.0150,-13.93800285
24.0200,-13.90606543
24.0250,-13.87277993
24.0300,-13.83817956
24.0350,-13.80273847
24.0400,-13.76674132
24.0450,-13.73049774
24.0500,-13.69397578
24.0550,-13.6575369
24.0600,-13.62085891
24.0650,-13.58420496
24.0700,-13.54787132
24.0750,-13.5118162
24.0800,-13.47610793
24.0850,-13.44072479
24.0900,-13.40569353
24.0950,-13.3713272
24.1000,-13.3377652
24.1050,-13.30494275
24.1100,-13.27301106
24.1150,-13.24198964
24.1200,-13.21193048
24.1250,-13.18273109
24.1300,-13.15459098
24.1350,-13.1276948
24.1400,-13.10209386
24.1450,-13.07789484
24.1500,-13.05496958
24.1550,-13.03315636
24.1600,-13.0120522
24.1650,-12.99194259
24.1700,-12.9724225
24.1750,-12.95348031
24.1800,-12.93533959
24.1850,-12.9177805
24.1900,-12.90085397
24.1950,-12.8845173
24.2000,-12.86873977
24.2050,-12.85370685
24.2100,-12.83942324
24.2150,-12.82578054
24.2200,-12.81287981
24.2250,-12.80051787
24.2300,-12.78895855
24.2350,-12.77830927
24.2400,-12.76843378
24.2450,-12.75926352
24.2500,-12.75077022
24.2550,-12.74303154
24.2600,-12.73582785
24.2650,-12.72885227
24.2700,-12.72208195
24.2750,-12.71527341
24.2800,-12.70840648
24.2850,-12.70112294
24.2900,-12.6935305
24.2950,-12.68561152
24.3000,-12.67740812
24.3050,-12.66891123
24.3100,-12.660229
24.3150,-12.6513105
24.3200,-12.64210833
24.3250,-12.63277004
24.3300,-12.62317612
24.3350,-12.61322836
24.3400,-12.60281307
24.3450,-12.59190424
24.3500,-12.58054925
24.3550,-12.56830997
24.3600,-12.55532853
24.3650,-12.54150916
24.3700,-12.52657502
24.3750,-12.51060656
24.3800,-12.49329018
24.3850,-12.47455015
24.3900,-12.45401122
24.3950,-12.43144276
24.4000,-12.40665127
24.4050,-12.3796689
24.4100,-12.35029072
24.4150,-12.31821282
24.4200,-12.28328963
24.4250,-12.24534102
24.4300,-12.2042579
24.4350,-12.15973349
24.4400,-12.11156359
24.4450,-12.05961033
24.4500,-12.0036336
24.4550,-11.94372539
24.4600,-11.88004349
24.4650,-11.81258955
24.4700,-11.74155212
24.4750,-11.66654664
24.4800,-11.58733884
24.4850,-11.50417677
24.4900,-11.41709157
24.4950,-11.32628108
24.5000,-11.23193904
24.5050,-11.13403597
24.5100,-11.03260281
24.5150,-10.92792333
24.5200,-10.81996788
24.5250,-10.70895371
24.5300,-10.59467736
24.5350,-10.47689596
24.5400,-10.35591031
24.5450,-10.23163184
24.5500,-10.1042895
24.5550,-9.973664219
24.5600,-9.840084505
24.5650,-9.703383293
24.5700,-9.563769719
24.5750,-9.421430543
24.5800,-9.276239388
24.5850,-9.128304071
24.5900,-8.977548273
24.5950,-8.824224589
24.6000,-8.668318078
24.6050,-8.509863083
24.6100,-8.348641176
24.6150,-8.184805166
24.6200,-8.01841853
24.6250,-7.849316529
24.6300,-7.677683094
24.6350,-7.503689983
24.6400,-7.327436112
24.6450,-7.148760597
24.6500,-6.967680235
24.6550,-6.784362943
24.6600,-6.598915719
24.6650,-6.411248814
24.6700,-6.221532635
24.6750,-6.029370363
24.6800,-5.834865018
24.6850,-5.637820758
24.6900,-5.438289498
24.6950,-5.23634217
24.7000,-5.031722128
24.7050,-4.823849541
24.7100,-4.612781305
24.7150,-4.398406994
24.7200,-4.180585593
24.7250,-3.958731305
24.7300,-3.732427342
24.7350,-3.501127525
24.7400,-3.264024137
24.7450,-3.020560963
24.7500,-2.769968615
24.7550,-2.510863806
24.7600,-2.242218796
24.7650,-1.962603675
24.7700,-1.670690137
24.7750,-1.365607825
24.7800,-1.046156901
24.7850,-0.7102512372
24.7900,-0.3563551202
24.7950,0.01710465707
24.8000,0.4119275262
24.8050,0.829493518
24.8100,1.271220373
24.8150,1.440762449
24.8200,1.628131
24.8250,1.832951102
24.8300,2.054517621
24.8350,2.29183741
24.8400,2.543665334
24.8450,2.808532195
24.8500,3.084764995
24.8550,3.37050289
24.8600,3.663710877
24.8650,3.962190527
24.8700,4.26358811
24.8750,4.565403219
24.8800,4.86500145
24.8850,5.159634053
24.8900,5.446467546
24.8950,5.722624364
24.9000,5.985234195
24.9050,6.23149764
24.9100,6.458763802
24.9150,6.664620958
