type,name,time_units,begin_time,frequency,count,units
signal,"Noraxon Ultium-RT BRACHIORAD.","s",0.00000,2000,49840,"uV"

time,value
0.00000,3.064908357
0.00050,8.253213288
0.00100,13.13632381
0.00150,15.57787907
0.00200,13.13632381
0.00250,5.201269211
0.00300,-4.259757428
0.00350,-12.50000644
0.00400,-16.46753374
0.00450,-15.85714492
0.00500,-11.2792288
0.00550,-6.090923874
0.00600,-4.259757428
0.00650,-5.785729466
0.00700,-7.616895912
0.00750,-6.090923874
0.00800,-3.95456302
0.00850,-6.396118282
0.00900,-13.11039525
0.00950,-17.07792255
0.01000,-13.72078407
0.01050,-7.92209032
0.01100,-8.532479135
0.01150,-16.16233933
0.01200,-22.26622748
0.01250,-20.12986663
0.01300,-14.33117288
0.01350,-14.02597847
0.01400,-20.12986663
0.01450,-24.40258834
0.01500,-21.04544985
0.01550,-12.50000644
0.01600,-5.480535058
0.01650,-2.428590981
0.01700,-0.5974245352
0.01750,1.233741911
0.01800,1.844130726
0.01850,0.9285475033
0.01900,-0.5974245352
0.01950,-2.123396574
0.02000,-4.259757428
0.02050,-7.616895912
0.02100,-10.9740344
0.02150,-14.33117288
0.02200,-17.38311696
0.02250,-19.51947781
0.02300,-19.51947781
0.02350,-18.60389459
0.02400,-20.43506104
0.02450,-25.01297715
0.02500,-28.37011564
0.02550,-26.8441436
0.02600,-20.12986663
0.02650,-12.50000644
0.02700,-6.090923874
0.02750,-1.207813351
0.02800,3.370102765
0.02850,9.473990919
0.02900,15.57787907
0.02950,20.4609896
0.03000,21.68176723
0.03050,17.71423993
0.03100,10.99996296
0.03150,5.201269211
0.03200,2.75971395
0.03250,2.454519542
0.03300,1.538936319
0.03350,-0.9026189429
0.03400,-4.870146243
0.03450,-8.532479135
0.03500,-11.58442321
0.03550,-12.50000644
0.03600,-10.66883999
0.03650,-7.311701505
0.03700,-4.564951835
0.03750,-2.733785389
0.03800,-0.5974245352
0.03850,1.844130726
0.03900,3.370102765
0.03950,0.9285475033
0.04000,-5.175340651
0.04050,-12.19481203
0.04100,-17.07792255
0.04150,-18.29870018
0.04200,-17.99350577
0.04250,-17.07792255
0.04300,-15.2467561
0.04350,-13.72078407
0.04400,-12.80520084
0.04450,-12.50000644
0.04500,-10.05845117
0.04550,-3.95456302
0.04600,3.370102765
0.04650,8.558407696
0.04700,9.779185327
0.04750,7.94801888
0.04800,5.811658027
0.04850,4.896074803
0.04900,3.98049158
0.04950,2.454519542
0.05000,0.6233530956
0.05050,0.01296428019
0.05100,0.3181586879
0.05150,-0.5974245352
0.05200,-3.038979797
0.05250,-5.785729466
0.05300,-7.006507097
0.05350,-8.227284728
0.05400,-12.50000644
0.05450,-17.38311696
0.05500,-16.77272814
0.05550,-9.142867951
0.05600,0.3181586879
0.05650,5.811658027
0.05700,7.642824473
0.05750,7.337630065
0.05800,3.675297173
0.05850,-3.95456302
0.05900,-14.02597847
0.05950,-21.96103307
0.06000,-27.14933801
0.06050,-32.33764294
0.06100,-35.69478142
0.06150,-33.55842057
0.06200,-26.53894919
0.06250,-20.43506104
0.06300,-17.99350577
0.06350,-17.68831137
0.06400,-16.46753374
0.06450,-15.2467561
0.06500,-14.02597847
0.06550,-8.532479135
0.06600,4.590880396
0.06650,21.37657282
0.06700,32.6687659
0.06750,34.80512676
0.06800,31.44798827
0.06850,27.78565538
0.06900,24.7337113
0.06950,19.54540637
0.07000,12.8311294
0.07050,7.642824473
0.07100,6.116852434
0.07150,7.032435657
0.07200,7.94801888
0.07250,7.642824473
0.07300,6.116852434
0.07350,5.201269211
0.07400,7.032435657
0.07450,13.13632381
0.07500,20.15579519
0.07550,23.20773927
0.07600,20.766184
0.07650,16.7986567
0.07700,15.27268467
0.07750,14.66229585
0.07800,11.61035177
0.07850,7.642824473
0.07900,6.422046842
0.07950,7.642824473
0.08000,7.337630065
0.08050,4.590880396
0.08100,3.064908357
0.08150,5.506463619
0.08200,9.779185327
0.08250,10.99996296
0.08300,8.863602104
0.08350,6.116852434
0.08400,2.75971395
0.08450,-1.818202166
0.08500,-7.311701505
0.08550,-11.2792288
0.08600,-12.19481203
0.08650,-10.66883999
0.08700,-9.142867951
0.08750,-10.36364558
0.08800,-13.72078407
0.08850,-15.85714492
0.08900,-13.11039525
0.08950,-5.785729466
0.09000,1.538936319
0.09050,5.811658027
0.09100,7.94801888
0.09150,10.38957414
0.09200,12.22074059
0.09250,10.69476855
0.09300,5.506463619
0.09350,1.233741911
0.09400,0.9285475033
0.09450,4.590880396
0.09500,10.38957414
0.09550,18.01943433
0.09600,26.25968334
0.09650,32.05837709
0.09700,33.58434913
0.09750,33.27915472
0.09800,34.49993235
0.09850,37.24668202
0.09900,39.68823728
0.09950,39.99343169
0.10000,36.6362932
0.10050,27.78565538
0.10100,13.13632381
0.10150,-0.5974245352
0.10200,-4.870146243
0.10250,2.75971395
0.10300,14.05190703
0.10350,17.71423993
0.10400,9.168796511
0.10450,-5.175340651
0.10500,-17.68831137
0.10550,-23.48700511
0.10600,-24.09739393
0.10650,-21.35064426
0.10700,-15.85714492
0.10750,-5.785729466
0.10800,5.811658027
0.10850,14.96749026
0.10900,17.71423993
0.10950,17.10385111
0.11000,18.32462874
0.11050,23.81812808
0.11100,31.14279387
0.11150,37.85707084
0.11200,41.82459814
0.11250,42.12979254
0.11300,38.77265406
0.11350,32.3635715
0.11400,23.81812808
0.11450,16.18826789
0.11500,12.525935
0.11550,13.74671263
0.11600,15.88307348
0.11650,13.13632381
0.11700,6.72724125
0.11750,1.538936319
0.11800,0.9285475033
0.11850,2.75971395
0.11900,3.98049158
0.11950,4.896074803
0.12000,5.811658027
0.12050,3.370102765
0.12100,-2.123396574
0.12150,-7.311701505
0.12200,-7.92209032
0.12250,-4.564951835
0.12300,-1.207813351
0.12350,-0.5974245352
0.12400,-2.428590981
0.12450,-6.090923874
0.12500,-8.532479135
0.12550,-3.344174205
0.12600,8.253213288
0.12650,18.93501756
0.12700,21.98696163
0.12750,20.15579519
0.12800,20.15579519
0.12850,22.59735045
0.12900,23.51293367
0.12950,21.98696163
0.13000,20.766184
0.13050,20.4609896
0.13100,18.93501756
0.13150,15.57787907
0.13200,11.61035177
0.13250,8.558407696
0.13300,6.422046842
0.13350,6.422046842
0.13400,9.473990919
0.13450,11.91554618
0.13500,10.99996296
0.13550,7.642824473
0.13600,5.506463619
0.13650,5.506463619
0.13700,4.590880396
0.13750,2.149325134
0.13800,0.6233530956
0.13850,0.3181586879
0.13900,-0.2922301275
0.13950,-2.733785389
0.14000,-6.396118282
0.14050,-10.9740344
0.14100,-14.63636729
0.14150,-15.55195051
0.14200,-12.80520084
0.14250,-8.837673543
0.14300,-6.090923874
0.14350,-3.038979797
0.14400,2.75971395
0.14450,9.779185327
0.14500,13.13632381
0.14550,12.525935
0.14600,10.99996296
0.14650,9.779185327
0.14700,9.168796511
0.14750,9.168796511
0.14800,11.30515737
0.14850,13.74671263
0.14900,13.74671263
0.14950,12.525935
0.15000,12.8311294
0.15050,14.35710144
0.15100,11.61035177
0.15150,3.370102765
0.15200,-4.870146243
0.15250,-10.9740344
0.15300,-17.38311696
0.15350,-26.8441436
0.15400,-34.16880938
0.15450,-32.64283734
0.15500,-25.01297715
0.15550,-19.21428341
0.15600,-17.07792255
0.15650,-15.55195051
0.15700,-12.19481203
0.15750,-9.448062359
0.15800,-6.396118282
0.15850,1.844130726
0.15900,16.18826789
0.15950,30.53240505
0.16000,38.16226524
0.16050,40.6038205
0.16100,40.2986261
0.16150,36.94148761
0.16200,31.14279387
0.16250,26.56487775
0.16300,25.64929453
0.16350,25.95448893
0.16400,25.03890571
0.16450,23.51293367
0.16500,22.59735045
0.16550,19.85060078
0.16600,14.66229585
0.16650,10.08437973
0.16700,8.558407696
0.16750,8.253213288
0.16800,6.72724125
0.16850,4.590880396
0.16900,3.370102765
0.16950,0.9285475033
0.17000,-2.733785389
0.17050,-5.480535058
0.17100,-7.006507097
0.17150,-11.88961762
0.17200,-19.82467222
0.17250,-21.35064426
0.17300,-11.88961762
0.17350,-0.2922301275
0.17400,2.75971395
0.17450,1.844130726
0.17500,6.422046842
0.17550,15.57787907
0.17600,18.93501756
0.17650,15.27268467
0.17700,13.44151822
0.17750,16.18826789
0.17800,17.10385111
0.17850,11.30515737
0.17900,4.896074803
0.17950,3.370102765
0.18000,6.116852434
0.18050,9.779185327
0.18100,13.13632381
0.18150,14.35710144
0.18200,10.38957414
0.18250,3.064908357
0.18300,-0.2922301275
0.18350,2.149325134
0.18400,6.422046842
0.18450,6.422046842
0.18500,2.454519542
0.18550,0.6233530956
0.18600,4.285685988
0.18650,10.08437973
0.18700,10.69476855
0.18750,4.285685988
0.18800,-3.95456302
0.18850,-6.396118282
0.18900,-1.513007758
0.18950,3.675297173
0.19000,2.75971395
0.19050,-2.733785389
0.19100,-7.92209032
0.19150,-10.05845117
0.19200,-10.05845117
0.19250,-8.532479135
0.19300,-3.95456302
0.19350,1.233741911
0.19400,4.896074803
0.19450,3.98049158
0.19500,1.233741911
0.19550,0.01296428019
0.19600,0.01296428019
0.19650,-0.5974245352
0.19700,-3.038979797
0.19750,-5.480535058
0.19800,-4.870146243
0.19850,-0.2922301275
0.19900,3.98049158
0.19950,4.285685988
0.20000,1.233741911
0.20050,-1.818202166
0.20100,-5.175340651
0.20150,-8.837673543
0.20200,-12.19481203
0.20250,-12.80520084
0.20300,-11.88961762
0.20350,-13.72078407
0.20400,-18.60389459
0.20450,-21.96103307
0.20500,-21.96103307
0.20550,-21.04544985
0.20600,-21.96103307
0.20650,-22.57142189
0.20700,-21.35064426
0.20750,-20.12986663
0.20800,-20.74025544
0.20850,-20.12986663
0.20900,-14.33117288
0.20950,-6.396118282
0.21000,-4.870146243
0.21050,-10.36364558
0.21100,-16.16233933
0.21150,-16.46753374
0.21200,-13.11039525
0.21250,-12.50000644
0.21300,-15.85714492
0.21350,-19.21428341
0.21400,-19.51947781
0.21450,-16.77272814
0.21500,-14.63636729
0.21550,-15.85714492
0.21600,-20.12986663
0.21650,-21.35064426
0.21700,-14.33117288
0.21750,-0.9026189429
0.21800,8.558407696
0.21850,8.863602104
0.21900,3.98049158
0.21950,3.370102765
0.22000,9.779185327
0.22050,17.71423993
0.22100,21.68176723
0.22150,21.07137841
0.22200,17.10385111
0.22250,11.30515737
0.22300,5.201269211
0.22350,2.149325134
0.22400,1.844130726
0.22450,0.9285475033
0.22500,-3.344174205
0.22550,-9.448062359
0.22600,-11.88961762
0.22650,-8.532479135
0.22700,-4.564951835
0.22750,-5.480535058
0.22800,-11.2792288
0.22850,-15.85714492
0.22900,-13.72078407
0.22950,-5.785729466
0.23000,1.538936319
0.23050,3.064908357
0.23100,-3.038979797
0.23150,-14.33117288
0.23200,-25.31817156
0.23250,-32.94803175
0.23300,-36.30517024
0.23350,-35.69478142
0.23400,-32.64283734
0.23450,-27.75972682
0.23500,-21.96103307
0.23550,-14.63636729
0.23600,-6.701312689
0.23650,-0.5974245352
0.23700,1.233741911
0.23750,1.233741911
0.23800,3.675297173
0.23850,10.38957414
0.23900,18.93501756
0.23950,25.34410012
0.24000,27.48046097
0.24050,24.12332249
0.24100,16.7986567
0.24150,8.558407696
0.24200,2.149325134
0.24250,-1.818202166
0.24300,-6.701312689
0.24350,-12.50000644
0.24400,-17.38311696
0.24450,-19.51947781
0.24500,-18.29870018
0.24550,-16.46753374
0.24600,-15.2467561
0.24650,-15.2467561
0.24700,-16.16233933
0.24750,-18.29870018
0.24800,-20.12986663
0.24850,-19.51947781
0.24900,-14.33117288
0.24950,-5.175340651
0.25000,3.064908357
0.25050,7.642824473
0.25100,8.253213288
0.25150,7.642824473
0.25200,7.642824473
0.25250,6.422046842
0.25300,2.75971395
0.25350,-0.9026189429
0.25400,-3.649368612
0.25450,-4.259757428
0.25500,-4.259757428
0.25550,-4.259757428
0.25600,-4.870146243
0.25650,-8.227284728
0.25700,-13.11039525
0.25750,-16.16233933
0.25800,-15.55195051
0.25850,-13.11039525
0.25900,-11.88961762
0.25950,-12.80520084
0.26000,-14.9415617
0.26050,-17.07792255
0.26100,-17.99350577
0.26150,-16.77272814
0.26200,-15.2467561
0.26250,-15.2467561
0.26300,-15.55195051
0.26350,-14.02597847
0.26400,-11.88961762
0.26450,-12.80520084
0.26500,-17.38311696
0.26550,-20.43506104
0.26600,-15.85714492
0.26650,-7.006507097
0.26700,-2.733785389
0.26750,-6.090923874
0.26800,-11.58442321
0.26850,-11.58442321
0.26900,-7.311701505
0.26950,-3.95456302
0.27000,-2.428590981
0.27050,2.75971395
0.27100,13.44151822
0.27150,21.07137841
0.27200,16.18826789
0.27250,2.149325134
0.27300,-7.311701505
0.27350,-5.785729466
0.27400,0.6233530956
0.27450,2.454519542
0.27500,-2.428590981
0.27550,-9.142867951
0.27600,-13.72078407
0.27650,-17.07792255
0.27700,-18.60389459
0.27750,-17.38311696
0.27800,-12.80520084
0.27850,-6.701312689
0.27900,-0.9026189429
0.27950,5.506463619
0.28000,12.525935
0.28050,17.10385111
0.28100,16.18826789
0.28150,12.8311294
0.28200,12.22074059
0.28250,16.18826789
0.28300,19.85060078
0.28350,18.62982315
0.28400,13.13632381
0.28450,8.863602104
0.28500,6.422046842
0.28550,1.538936319
0.28600,-5.480535058
0.28650,-9.142867951
0.28700,-4.870146243
0.28750,2.454519542
0.28800,5.506463619
0.28850,3.064908357
0.28900,0.3181586879
0.28950,0.6233530956
0.29000,1.844130726
0.29050,1.538936319
0.29100,1.538936319
0.29150,4.285685988
0.29200,9.779185327
0.29250,15.27268467
0.29300,17.10385111
0.29350,14.35710144
0.29400,9.473990919
0.29450,7.032435657
0.29500,7.337630065
0.29550,7.032435657
0.29600,3.370102765
0.29650,0.01296428019
0.29700,-0.5974245352
0.29750,0.3181586879
0.29800,-2.428590981
0.29850,-10.36364558
0.29900,-18.29870018
0.29950,-21.65583867
0.30000,-20.74025544
0.30050,-18.29870018
0.30100,-15.85714492
0.30150,-13.41558966
0.30200,-11.88961762
0.30250,-12.50000644
0.30300,-17.07792255
0.30350,-25.01297715
0.30400,-34.16880938
0.30450,-37.22075346
0.30500,-29.59089327
0.30550,-14.9415617
0.30600,-2.733785389
0.30650,1.538936319
0.30700,2.454519542
0.30750,5.201269211
0.30800,7.94801888
0.30850,7.94801888
0.30900,9.168796511
0.30950,17.71423993
0.31000,30.83759946
0.31050,39.99343169
0.31100,41.82459814
0.31150,40.90901491
0.31200,41.21420932
0.31250,39.99343169
0.31300,34.49993235
0.31350,26.87007216
0.31400,20.766184
0.31450,15.88307348
0.31500,10.69476855
0.31550,6.116852434
0.31600,3.98049158
0.31650,4.590880396
0.31700,4.590880396
0.31750,2.454519542
0.31800,0.3181586879
0.31850,-0.5974245352
0.31900,0.01296428019
0.31950,1.233741911
0.32000,3.98049158
0.32050,7.337630065
0.32100,8.863602104
0.32150,7.032435657
0.32200,3.370102765
0.32250,1.538936319
0.32300,2.75971395
0.32350,3.370102765
0.32400,1.233741911
0.32450,-1.818202166
0.32500,-4.259757428
0.32550,-5.785729466
0.32600,-7.006507097
0.32650,-7.006507097
0.32700,-4.564951835
0.32750,-1.513007758
0.32800,-0.9026189429
0.32850,-1.513007758
0.32900,-1.513007758
0.32950,0.9285475033
0.33000,4.285685988
0.33050,5.201269211
0.33100,0.3181586879
0.33150,-9.753256766
0.33200,-18.909089
0.33250,-20.43506104
0.33300,-14.02597847
0.33350,-7.311701505
0.33400,-5.480535058
0.33450,-5.785729466
0.33500,-2.733785389
0.33550,1.538936319
0.33600,3.98049158
0.33650,3.370102765
0.33700,3.370102765
0.33750,3.675297173
0.33800,0.6233530956
0.33850,-6.396118282
0.33900,-13.11039525
0.33950,-14.9415617
0.34000,-11.58442321
0.34050,-6.701312689
0.34100,-2.428590981
0.34150,-0.2922301275
0.34200,0.3181586879
0.34250,1.233741911
0.34300,3.064908357
0.34350,4.285685988
0.34400,4.285685988
0.34450,3.98049158
0.34500,4.285685988
0.34550,5.506463619
0.34600,7.94801888
0.34650,13.13632381
0.34700,19.85060078
0.34750,24.12332249
0.34800,21.37657282
0.34850,11.91554618
0.34900,2.149325134
0.34950,0.3181586879
0.35000,5.506463619
0.35050,12.525935
0.35100,13.74671263
0.35150,8.558407696
0.35200,2.454519542
0.35250,0.3181586879
0.35300,2.149325134
0.35350,5.506463619
0.35400,8.253213288
0.35450,7.337630065
0.35500,1.538936319
0.35550,-3.95456302
0.35600,-4.259757428
0.35650,0.01296428019
0.35700,2.149325134
0.35750,-0.9026189429
0.35800,-4.564951835
0.35850,-4.564951835
0.35900,-4.870146243
0.35950,-11.58442321
0.36000,-22.57142189
0.36050,-31.42205971
0.36100,-35.08439261
0.36150,-35.69478142
0.36200,-32.94803175
0.36250,-25.62336597
0.36300,-17.68831137
0.36350,-13.41558966
0.36400,-12.80520084
0.36450,-11.88961762
0.36500,-7.006507097
0.36550,0.9285475033
0.36600,11.30515737
0.36650,22.29215604
0.36700,29.31162742
0.36750,27.78565538
0.36800,18.01943433
0.36850,5.811658027
0.36900,-2.733785389
0.36950,-7.006507097
0.37000,-8.837673543
0.37050,-10.66883999
0.37100,-13.41558966
0.37150,-15.2467561
0.37200,-11.88961762
0.37250,-3.344174205
0.37300,5.201269211
0.37350,9.473990919
0.37400,9.473990919
0.37450,8.253213288
0.37500,7.94801888
0.37550,7.94801888
0.37600,6.72724125
0.37650,4.896074803
0.37700,2.454519542
0.37750,-1.207813351
0.37800,-6.090923874
0.37850,-9.753256766
0.37900,-10.9740344
0.37950,-10.9740344
0.38000,-11.58442321
0.38050,-10.9740344
0.38100,-7.006507097
0.38150,-0.5974245352
0.38200,2.454519542
0.38250,1.844130726
0.38300,2.75971395
0.38350,10.38957414
0.38400,21.98696163
0.38450,29.92201623
0.38500,29.92201623
0.38550,24.7337113
0.38600,18.62982315
0.38650,12.22074059
0.38700,7.032435657
0.38750,5.201269211
0.38800,6.116852434
0.38850,5.506463619
0.38900,0.01296428019
0.38950,-8.532479135
0.39000,-14.63636729
0.39050,-16.77272814
0.39100,-17.38311696
0.39150,-18.60389459
0.39200,-18.60389459
0.39250,-16.77272814
0.39300,-14.9415617
0.39350,-14.9415617
0.39400,-15.2467561
0.39450,-13.11039525
0.39500,-9.448062359
0.39550,-9.142867951
0.39600,-12.50000644
0.39650,-14.02597847
0.39700,-10.05845117
0.39750,-3.344174205
0.39800,0.3181586879
0.39850,0.9285475033
0.39900,3.98049158
0.39950,10.38957414
0.40000,14.35710144
0.40050,12.525935
0.40100,8.863602104
0.40150,9.473990919
0.40200,14.96749026
0.40250,18.01943433
0.40300,13.44151822
0.40350,3.064908357
0.40400,-5.175340651
0.40450,-7.616895912
0.40500,-7.92209032
0.40550,-11.88961762
0.40600,-18.909089
0.40650,-20.43506104
0.40700,-12.19481203
0.40750,-1.818202166
0.40800,0.3181586879
0.40850,-4.564951835
0.40900,-5.480535058
0.40950,1.233741911
0.41000,8.558407696
0.41050,8.863602104
0.41100,3.370102765
0.41150,-0.9026189429
0.41200,-2.123396574
0.41250,-0.2922301275
0.41300,1.844130726
0.41350,2.149325134
0.41400,-1.513007758
0.41450,-6.090923874
0.41500,-3.95456302
0.41550,4.590880396
0.41600,11.61035177
0.41650,10.69476855
0.41700,7.032435657
0.41750,7.642824473
0.41800,11.91554618
0.41850,14.35710144
0.41900,12.8311294
0.41950,9.168796511
0.42000,5.201269211
0.42050,2.454519542
0.42100,1.538936319
0.42150,0.3181586879
0.42200,-6.090923874
0.42250,-16.46753374
0.42300,-22.8766163
0.42350,-21.65583867
0.42400,-18.60389459
0.42450,-19.21428341
0.42500,-21.65583867
0.42550,-19.51947781
0.42600,-14.33117288
0.42650,-10.05845117
0.42700,-8.227284728
0.42750,-6.396118282
0.42800,-5.175340651
0.42850,-5.480535058
0.42900,-6.090923874
0.42950,-3.95456302
0.43000,-0.5974245352
0.43050,0.6233530956
0.43100,1.844130726
0.43150,4.285685988
0.43200,6.116852434
0.43250,4.896074803
0.43300,1.844130726
0.43350,1.233741911
0.43400,2.454519542
0.43450,2.75971395
0.43500,2.454519542
0.43550,2.75971395
0.43600,1.844130726
0.43650,-3.649368612
0.43700,-12.50000644
0.43750,-18.909089
0.43800,-17.68831137
0.43850,-10.36364558
0.43900,-3.344174205
0.43950,-0.9026189429
0.44000,-1.818202166
0.44050,-2.428590981
0.44100,-2.428590981
0.44150,-4.870146243
0.44200,-10.66883999
0.44250,-15.2467561
0.44300,-14.9415617
0.44350,-13.72078407
0.44400,-17.38311696
0.44450,-23.79219952
0.44500,-25.31817156
0.44550,-20.12986663
0.44600,-13.41558966
0.44650,-7.92209032
0.44700,2.149325134
0.44750,18.32462874
0.44800,31.75318268
0.44850,34.49993235
0.44900,29.31162742
0.44950,25.34410012
0.45000,24.12332249
0.45050,22.29215604
0.45100,17.10385111
0.45150,10.08437973
0.45200,4.285685988
0.45250,1.538936319
0.45300,2.75971395
0.45350,3.98049158
0.45400,0.6233530956
0.45450,-7.616895912
0.45500,-15.2467561
0.45550,-17.68831137
0.45600,-19.82467222
0.45650,-26.53894919
0.45700,-35.99997583
0.45750,-42.10386398
0.45800,-41.79866957
0.45850,-36.61036464
0.45900,-28.06492123
0.45950,-20.43506104
0.46000,-17.68831137
0.46050,-18.60389459
0.46100,-15.85714492
0.46150,-6.090923874
0.46200,7.337630065
0.46250,19.85060078
0.46300,29.31162742
0.46350,35.11032117
0.46400,34.80512676
0.46450,29.92201623
0.46500,25.64929453
0.46550,23.81812808
0.46600,20.15579519
0.46650,12.22074059
0.46700,6.116852434
0.46750,5.506463619
0.46800,7.032435657
0.46850,4.590880396
0.46900,1.233741911
0.46950,1.844130726
0.47000,4.896074803
0.47050,4.896074803
0.47100,1.538936319
0.47150,-0.2922301275
0.47200,0.3181586879
0.47250,0.6233530956
0.47300,-0.9026189429
0.47350,-3.95456302
0.47400,-7.006507097
0.47450,-10.9740344
0.47500,-15.2467561
0.47550,-16.77272814
0.47600,-16.16233933
0.47650,-16.46753374
0.47700,-17.68831137
0.47750,-15.55195051
0.47800,-7.616895912
0.47850,-0.5974245352
0.47900,-0.5974245352
0.47950,-5.480535058
0.48000,-6.701312689
0.48050,-2.123396574
0.48100,1.844130726
0.48150,0.3181586879
0.48200,-5.480535058
0.48250,-11.2792288
0.48300,-13.11039525
0.48350,-10.66883999
0.48400,-6.396118282
0.48450,-3.95456302
0.48500,-2.428590981
0.48550,0.6233530956
0.48600,6.422046842
0.48650,8.863602104
0.48700,3.370102765
0.48750,-3.95456302
0.48800,-3.649368612
0.48850,3.98049158
0.48900,11.61035177
0.48950,14.66229585
0.49000,15.88307348
0.49050,14.96749026
0.49100,7.337630065
0.49150,-2.733785389
0.49200,-5.785729466
0.49250,0.3181586879
0.49300,2.454519542
0.49350,-4.564951835
0.49400,-13.72078407
0.49450,-15.85714492
0.49500,-15.2467561
0.49550,-17.99350577
0.49600,-18.909089
0.49650,-10.66883999
0.49700,1.233741911
0.49750,5.506463619
0.49800,3.064908357
0.49850,4.896074803
0.49900,14.66229585
0.49950,25.03890571
0.50000,29.31162742
0.50050,29.92201623
0.50100,29.00643301
0.50150,27.78565538
0.50200,27.48046097
0.50250,30.53240505
0.50300,33.58434913
0.50350,31.14279387
0.50400,23.20773927
0.50450,17.10385111
0.50500,15.27268467
0.50550,13.44151822
0.50600,10.08437973
0.50650,9.168796511
0.50700,14.35710144
0.50750,20.15579519
0.50800,20.15579519
0.50850,14.66229585
0.50900,8.863602104
0.50950,5.201269211
0.51000,3.370102765
0.51050,2.75971395
0.51100,3.98049158
0.51150,5.506463619
0.51200,6.422046842
0.51250,7.032435657
0.51300,7.337630065
0.51350,5.506463619
0.51400,0.3181586879
0.51450,-5.480535058
0.51500,-8.532479135
0.51550,-9.753256766
0.51600,-12.50000644
0.51650,-16.16233933
0.51700,-18.60389459
0.51750,-20.74025544
0.51800,-25.92856037
0.51850,-32.03244853
0.51900,-34.16880938
0.51950,-31.42205971
0.52000,-27.14933801
0.52050,-21.96103307
0.52100,-14.33117288
0.52150,-3.649368612
0.52200,4.590880396
0.52250,8.558407696
0.52300,11.30515737
0.52350,14.66229585
0.52400,18.01943433
0.52450,20.4609896
0.52500,25.64929453
0.52550,33.58434913
0.52600,39.68823728
0.52650,39.68823728
0.52700,34.19473794
0.52750,26.56487775
0.52800,18.32462874
0.52850,10.08437973
0.52900,6.72724125
0.52950,10.69476855
0.53000,18.62982315
0.53050,22.90254486
0.53100,20.766184
0.53150,15.27268467
0.53200,11.91554618
0.53250,12.8311294
0.53300,13.74671263
0.53350,7.94801888
0.53400,-7.006507097
0.53450,-22.8766163
0.53500,-28.06492123
0.53550,-19.21428341
0.53600,-5.480535058
0.53650,0.6233530956
0.53700,-1.513007758
0.53750,-6.090923874
0.53800,-5.785729466
0.53850,-0.2922301275
0.53900,6.422046842
0.53950,12.22074059
0.54000,15.27268467
0.54050,16.4934623
0.54100,17.71423993
0.54150,19.54540637
0.54200,23.81812808
0.54250,30.22721064
0.54300,36.3310988
0.54350,36.02590439
0.54400,28.3960442
0.54450,19.54540637
0.54500,15.88307348
0.54550,16.18826789
0.54600,12.8311294
0.54650,3.675297173
0.54700,-3.649368612
0.54750,-3.038979797
0.54800,2.149325134
0.54850,4.285685988
0.54900,0.3181586879
0.54950,-5.480535058
0.55000,-6.090923874
0.55050,0.3181586879
0.55100,9.779185327
0.55150,18.93501756
0.55200,24.7337113
0.55250,27.78565538
0.55300,29.92201623
0.55350,29.92201623
0.55400,26.56487775
0.55450,21.37657282
0.55500,18.32462874
0.55550,19.24021197
0.55600,20.4609896
0.55650,18.32462874
0.55700,13.44151822
0.55750,9.168796511
0.55800,8.253213288
0.55850,8.558407696
0.55900,8.253213288
0.55950,7.337630065
0.56000,6.422046842
0.56050,4.590880396
0.56100,1.233741911
0.56150,-2.123396574
0.56200,-6.701312689
0.56250,-12.50000644
0.56300,-18.909089
0.56350,-21.65583867
0.56400,-19.21428341
0.56450,-15.2467561
0.56500,-15.55195051
0.56550,-19.82467222
0.56600,-20.74025544
0.56650,-13.41558966
0.56700,-1.207813351
0.56750,9.168796511
0.56800,13.74671263
0.56850,11.61035177
0.56900,3.98049158
0.56950,-4.259757428
0.57000,-6.090923874
0.57050,0.01296428019
0.57100,7.032435657
0.57150,7.642824473
0.57200,4.285685988
0.57250,7.642824473
0.57300,20.4609896
0.57350,32.6687659
0.57400,32.6687659
0.57450,21.68176723
0.57500,10.99996296
0.57550,8.253213288
0.57600,10.08437973
0.57650,10.38957414
0.57700,8.253213288
0.57750,6.72724125
0.57800,7.642824473
0.57850,8.863602104
0.57900,8.253213288
0.57950,6.422046842
0.58000,6.116852434
0.58050,8.863602104
0.58100,13.74671263
0.58150,17.10385111
0.58200,16.4934623
0.58250,12.8311294
0.58300,9.473990919
0.58350,8.558407696
0.58400,8.863602104
0.58450,8.253213288
0.58500,5.811658027
0.58550,3.370102765
0.58600,2.454519542
0.58650,2.149325134
0.58700,1.233741911
0.58750,-0.9026189429
0.58800,-2.428590981
0.58850,-0.5974245352
0.58900,1.233741911
0.58950,0.3181586879
0.59000,-4.564951835
0.59050,-9.753256766
0.59100,-10.36364558
0.59150,-6.396118282
0.59200,0.9285475033
0.59250,10.69476855
0.59300,18.01943433
0.59350,16.4934623
0.59400,5.506463619
0.59450,-9.142867951
0.59500,-21.96103307
0.59550,-33.25322616
0.59600,-44.54541924
0.59650,-53.70125148
0.59700,-58.27916759
0.59750,-57.97397318
0.59800,-54.6168347
0.59850,-45.76619688
0.59900,-30.8116709
0.59950,-15.85714492
0.60000,-7.92209032
0.60050,-4.259757428
0.60100,3.064908357
0.60150,17.40904552
0.60200,33.88954354
0.60250,47.01290307
0.60300,54.33756885
0.60350,54.64276326
0.60400,47.62329188
0.60450,37.85707084
0.60500,31.14279387
0.60550,27.48046097
0.60600,21.98696163
0.60650,12.525935
0.60700,3.064908357
0.60750,-2.428590981
0.60800,-3.95456302
0.60850,-3.344174205
0.60900,-1.513007758
0.60950,0.3181586879
0.61000,1.844130726
0.61050,1.844130726
0.61100,0.9285475033
0.61150,0.9285475033
0.61200,0.9285475033
0.61250,0.9285475033
0.61300,0.9285475033
0.61350,1.844130726
0.61400,2.454519542
0.61450,1.844130726
0.61500,0.3181586879
0.61550,-1.513007758
0.61600,-4.564951835
0.61650,-10.05845117
0.61700,-17.38311696
0.61750,-22.8766163
0.61800,-21.35064426
0.61850,-12.50000644
0.61900,-1.513007758
0.61950,6.422046842
0.62000,11.91554618
0.62050,16.7986567
0.62100,18.32462874
0.62150,13.44151822
0.62200,3.98049158
0.62250,-1.513007758
0.62300,0.9285475033
0.62350,9.168796511
0.62400,17.10385111
0.62450,19.54540637
0.62500,15.88307348
0.62550,7.337630065
0.62600,-2.428590981
0.62650,-8.837673543
0.62700,-10.66883999
0.62750,-10.66883999
0.62800,-11.88961762
0.62850,-13.72078407
0.62900,-12.19481203
0.62950,-7.616895912
0.63000,-6.396118282
0.63050,-13.72078407
0.63100,-25.62336597
0.63150,-31.42205971
0.63200,-25.92856037
0.63250,-15.55195051
0.63300,-10.66883999
0.63350,-13.72078407
0.63400,-17.99350577
0.63450,-17.07792255
0.63500,-11.2792288
0.63550,-3.95456302
0.63600,1.844130726
0.63650,4.590880396
0.63700,3.98049158
0.63750,1.844130726
0.63800,1.538936319
0.63850,0.9285475033
0.63900,-4.564951835
0.63950,-14.33117288
0.64000,-21.04544985
0.64050,-19.51947781
0.64100,-14.63636729
0.64150,-11.2792288
0.64200,-9.753256766
0.64250,-7.006507097
0.64300,-4.259757428
0.64350,-4.870146243
0.64400,-8.837673543
0.64450,-14.02597847
0.64500,-17.68831137
0.64550,-18.29870018
0.64600,-14.63636729
0.64650,-8.837673543
0.64700,-5.175340651
0.64750,-4.259757428
0.64800,-3.649368612
0.64850,-3.038979797
0.64900,-6.090923874
0.64950,-13.72078407
0.65000,-22.8766163
0.65050,-29.89608767
0.65100,-34.16880938
0.65150,-33.86361497
0.65200,-28.37011564
0.65250,-20.74025544
0.65300,-17.38311696
0.65350,-17.99350577
0.65400,-14.33117288
0.65450,-3.95456302
0.65500,6.116852434
0.65550,10.08437973
0.65600,12.8311294
0.65650,21.37657282
0.65700,33.27915472
0.65750,38.16226524
0.65800,33.88954354
0.65850,26.25968334
0.65900,22.29215604
0.65950,21.98696163
0.66000,21.37657282
0.66050,18.32462874
0.66100,14.35710144
0.66150,11.30515737
0.66200,9.473990919
0.66250,8.863602104
0.66300,8.863602104
0.66350,8.863602104
0.66400,7.337630065
0.66450,4.285685988
0.66500,0.6233530956
0.66550,-1.207813351
0.66600,-0.9026189429
0.66650,0.3181586879
0.66700,0.3181586879
0.66750,0.3181586879
0.66800,0.6233530956
0.66850,1.233741911
0.66900,-0.5974245352
0.66950,-4.870146243
0.67000,-7.616895912
0.67050,-5.175340651
0.67100,0.3181586879
0.67150,3.98049158
0.67200,3.370102765
0.67250,0.3181586879
0.67300,-1.818202166
0.67350,-1.818202166
0.67400,-1.207813351
0.67450,-1.513007758
0.67500,-3.344174205
0.67550,-6.701312689
0.67600,-10.05845117
0.67650,-10.9740344
0.67700,-9.142867951
0.67750,-7.92209032
0.67800,-10.66883999
0.67850,-15.55195051
0.67900,-18.29870018
0.67950,-18.909089
0.68000,-20.12986663
0.68050,-24.09739393
0.68100,-28.06492123
0.68150,-28.98050445
0.68200,-26.8441436
0.68250,-23.48700511
0.68300,-20.43506104
0.68350,-16.77272814
0.68400,-10.66883999
0.68450,-2.123396574
0.68500,6.72724125
0.68550,13.13632381
0.68600,14.96749026
0.68650,13.74671263
0.68700,12.8311294
0.68750,13.74671263
0.68800,15.27268467
0.68850,15.57787907
0.68900,13.13632381
0.68950,9.779185327
0.69000,6.422046842
0.69050,4.896074803
0.69100,4.896074803
0.69150,4.896074803
0.69200,3.98049158
0.69250,2.149325134
0.69300,-1.513007758
0.69350,-7.92209032
0.69400,-14.9415617
0.69450,-18.909089
0.69500,-17.38311696
0.69550,-12.80520084
0.69600,-8.532479135
0.69650,-7.006507097
0.69700,-8.532479135
0.69750,-11.58442321
0.69800,-14.63636729
0.69850,-14.63636729
0.69900,-12.50000644
0.69950,-10.05845117
0.70000,-9.142867951
0.70050,-10.36364558
0.70100,-13.11039525
0.70150,-15.2467561
0.70200,-13.11039525
0.70250,-4.870146243
0.70300,5.201269211
0.70350,12.525935
0.70400,17.10385111
0.70450,21.68176723
0.70500,25.95448893
0.70550,26.56487775
0.70600,22.29215604
0.70650,16.7986567
0.70700,12.525935
0.70750,8.863602104
0.70800,4.285685988
0.70850,0.01296428019
0.70900,-2.123396574
0.70950,-2.733785389
0.71000,-2.428590981
0.71050,-2.428590981
0.71100,-3.038979797
0.71150,-4.870146243
0.71200,-8.837673543
0.71250,-14.9415617
0.71300,-23.18181071
0.71350,-31.42205971
0.71400,-35.08439261
0.71450,-30.50647649
0.71500,-21.96103307
0.71550,-17.38311696
0.71600,-18.60389459
0.71650,-19.82467222
0.71700,-15.85714492
0.71750,-8.837673543
0.71800,-3.649368612
0.71850,-0.9026189429
0.71900,2.454519542
0.71950,7.032435657
0.72000,10.99996296
0.72050,12.525935
0.72100,10.99996296
0.72150,6.422046842
0.72200,0.01296428019
0.72250,-6.396118282
0.72300,-10.36364558
0.72350,-11.58442321
0.72400,-11.88961762
0.72450,-12.19481203
0.72500,-10.9740344
0.72550,-7.92209032
0.72600,-3.649368612
0.72650,0.3181586879
0.72700,4.285685988
0.72750,8.863602104
0.72800,14.05190703
0.72850,16.4934623
0.72900,14.66229585
0.72950,9.473990919
0.73000,5.201269211
0.73050,4.590880396
0.73100,6.116852434
0.73150,6.422046842
0.73200,5.506463619
0.73250,4.896074803
0.73300,6.116852434
0.73350,8.863602104
0.73400,10.99996296
0.73450,11.91554618
0.73500,12.8311294
0.73550,14.35710144
0.73600,16.7986567
0.73650,18.62982315
0.73700,18.32462874
0.73750,15.88307348
0.73800,12.22074059
0.73850,9.473990919
0.73900,9.168796511
0.73950,10.38957414
0.74000,11.91554618
0.74050,11.61035177
0.74100,7.642824473
0.74150,0.9285475033
0.74200,-4.564951835
0.74250,-6.701312689
0.74300,-5.785729466
0.74350,-4.259757428
0.74400,-4.259757428
0.74450,-4.870146243
0.74500,-5.785729466
0.74550,-6.701312689
0.74600,-8.532479135
0.74650,-10.36364558
0.74700,-8.837673543
0.74750,-3.95456302
0.74800,-0.9026189429
0.74850,-3.344174205
0.74900,-8.532479135
0.74950,-10.36364558
0.75000,-7.616895912
0.75050,-5.480535058
0.75100,-6.090923874
0.75150,-3.344174205
0.75200,4.590880396
0.75250,11.61035177
0.75300,9.168796511
0.75350,0.3181586879
0.75400,-4.259757428
0.75450,-1.818202166
0.75500,3.064908357
0.75550,6.72724125
0.75600,9.168796511
0.75650,11.30515737
0.75700,10.99996296
0.75750,7.032435657
0.75800,2.75971395
0.75850,0.01296428019
0.75900,-1.513007758
0.75950,-0.5974245352
0.76000,2.454519542
0.76050,5.506463619
0.76100,4.285685988
0.76150,0.9285475033
0.76200,1.538936319
0.76250,5.201269211
0.76300,5.811658027
0.76350,1.233741911
0.76400,-0.2922301275
0.76450,4.896074803
0.76500,13.74671263
0.76550,17.71423993
0.76600,17.40904552
0.76650,16.4934623
0.76700,16.4934623
0.76750,14.05190703
0.76800,8.253213288
0.76850,3.370102765
0.76900,1.538936319
0.76950,0.01296428019
0.77000,-5.480535058
0.77050,-10.9740344
0.77100,-8.227284728
0.77150,5.201269211
0.77200,18.93501756
0.77250,20.766184
0.77300,10.08437973
0.77350,-1.207813351
0.77400,-6.701312689
0.77450,-10.9740344
0.77500,-20.74025544
0.77550,-32.64283734
0.77600,-38.7467255
0.77650,-37.52594787
0.77700,-32.94803175
0.77750,-28.67531004
0.77800,-23.79219952
0.77850,-17.68831137
0.77900,-10.9740344
0.77950,-3.95456302
0.78000,1.538936319
0.78050,3.98049158
0.78100,4.896074803
0.78150,8.253213288
0.78200,15.88307348
0.78250,22.90254486
0.78300,24.7337113
0.78350,24.7337113
0.78400,25.95448893
0.78450,25.34410012
0.78500,18.93501756
0.78550,11.30515737
0.78600,9.473990919
0.78650,13.44151822
0.78700,15.88307348
0.78750,13.13632381
0.78800,9.168796511
0.78850,7.337630065
0.78900,5.811658027
0.78950,3.064908357
0.79000,0.3181586879
0.79050,-0.9026189429
0.79100,-0.5974245352
0.79150,-0.5974245352
0.79200,-1.513007758
0.79250,-1.818202166
0.79300,-1.513007758
0.79350,-0.5974245352
0.79400,0.3181586879
0.79450,0.6233530956
0.79500,0.3181586879
0.79550,-1.207813351
0.79600,-5.480535058
0.79650,-13.41558966
0.79700,-21.65583867
0.79750,-25.31817156
0.79800,-24.09739393
0.79850,-22.8766163
0.79900,-25.62336597
0.79950,-28.37011564
0.80000,-26.53894919
0.80050,-22.57142189
0.80100,-21.65583867
0.80150,-24.09739393
0.80200,-23.18181071
0.80250,-16.46753374
0.80300,-8.532479135
0.80350,-5.175340651
0.80400,-6.090923874
0.80450,-6.396118282
0.80500,-4.564951835
0.80550,-3.344174205
0.80600,-3.95456302
0.80650,-3.649368612
0.80700,2.454519542
0.80750,15.57787907
0.80800,29.92201623
0.80850,37.55187643
0.80900,34.49993235
0.80950,22.29215604
0.81000,6.72724125
0.81050,-7.311701505
0.81100,-17.38311696
0.81150,-23.18181071
0.81200,-25.31817156
0.81250,-21.96103307
0.81300,-13.11039525
0.81350,-0.9026189429
0.81400,9.473990919
0.81450,16.18826789
0.81500,20.15579519
0.81550,23.81812808
0.81600,27.78565538
0.81650,34.49993235
0.81700,45.48693103
0.81750,57.08431852
0.81800,61.05184582
0.81850,51.59081918
0.81900,34.19473794
0.81950,19.24021197
0.82000,11.61035177
0.82050,9.168796511
0.82100,8.863602104
0.82150,10.08437973
0.82200,9.779185327
0.82250,3.370102765
0.82300,-8.227284728
0.82350,-17.38311696
0.82400,-18.29870018
0.82450,-15.2467561
0.82500,-15.85714492
0.82550,-20.43506104
0.82600,-21.96103307
0.82650,-14.02597847
0.82700,0.01296428019
0.82750,11.91554618
0.82800,15.88307348
0.82850,12.8311294
0.82900,8.558407696
0.82950,8.863602104
0.83000,16.7986567
0.83050,27.78565538
0.83100,34.19473794
0.83150,31.44798827
0.83200,22.29215604
0.83250,13.13632381
0.83300,7.94801888
0.83350,6.116852434
0.83400,3.675297173
0.83450,-1.207813351
0.83500,-7.311701505
0.83550,-11.2792288
0.83600,-9.753256766
0.83650,-3.95456302
0.83700,1.844130726
0.83750,4.285685988
0.83800,3.064908357
0.83850,1.233741911
0.83900,1.538936319
0.83950,3.675297173
0.84000,5.201269211
0.84050,3.064908357
0.84100,-1.818202166
0.84150,-6.701312689
0.84200,-8.532479135
0.84250,-7.311701505
0.84300,-7.006507097
0.84350,-10.36364558
0.84400,-16.77272814
0.84450,-22.26622748
0.84500,-22.57142189
0.84550,-19.21428341
0.84600,-17.07792255
0.84650,-17.68831137
0.84700,-17.38311696
0.84750,-13.72078407
0.84800,-9.142867951
0.84850,-6.090923874
0.84900,-3.038979797
0.84950,2.75971395
0.85000,10.38957414
0.85050,14.66229585
0.85100,13.13632381
0.85150,8.558407696
0.85200,4.590880396
0.85250,1.538936319
0.85300,-0.5974245352
0.85350,-2.428590981
0.85400,-3.038979797
0.85450,-5.480535058
0.85500,-10.9740344
0.85550,-18.29870018
0.85600,-23.48700511
0.85650,-25.31817156
0.85700,-25.62336597
0.85750,-25.62336597
0.85800,-24.70778274
0.85850,-23.79219952
0.85900,-23.79219952
0.85950,-23.48700511
0.86000,-19.51947781
0.86050,-11.2792288
0.86100,-2.123396574
0.86150,4.285685988
0.86200,5.506463619
0.86250,0.6233530956
0.86300,-9.142867951
0.86350,-18.909089
0.86400,-23.18181071
0.86450,-21.96103307
0.86500,-21.04544985
0.86550,-20.74025544
0.86600,-17.68831137
0.86650,-11.2792288
0.86700,-5.175340651
0.86750,-0.5974245352
0.86800,7.337630065
0.86850,21.98696163
0.86900,35.11032117
0.86950,40.6038205
0.87000,40.90901491
0.87050,41.82459814
0.87100,41.21420932
0.87150,34.19473794
0.87200,23.20773927
0.87250,15.27268467
0.87300,12.22074059
0.87350,8.558407696
0.87400,3.675297173
0.87450,4.285685988
0.87500,11.30515737
0.87550,16.4934623
0.87600,14.35710144
0.87650,8.863602104
0.87700,6.72724125
0.87750,7.032435657
0.87800,3.675297173
0.87850,-6.701312689
0.87900,-21.65583867
0.87950,-33.25322616
0.88000,-36.61036464
0.88050,-33.25322616
0.88100,-31.11686531
0.88150,-35.38958701
0.88200,-41.18828076
0.88250,-41.18828076
0.88300,-32.94803175
0.88350,-20.12986663
0.88400,-6.090923874
0.88450,6.72724125
0.88500,15.27268467
0.88550,18.93501756
0.88600,21.07137841
0.88650,25.95448893
0.88700,31.14279387
0.88750,31.44798827
0.88800,25.64929453
0.88850,18.01943433
0.88900,11.30515737
0.88950,5.811658027
0.89000,1.233741911
0.89050,-2.123396574
0.89100,-5.480535058
0.89150,-10.36364558
0.89200,-14.02597847
0.89250,-11.2792288
0.89300,-1.818202166
0.89350,7.94801888
0.89400,13.13632381
0.89450,16.7986567
0.89500,24.4285169
0.89550,33.58434913
0.89600,36.6362932
0.89650,27.48046097
0.89700,12.22074059
0.89750,0.3181586879
0.89800,-3.95456302
0.89850,-4.259757428
0.89900,-3.344174205
0.89950,-1.207813351
0.90000,3.064908357
0.90050,6.422046842
0.90100,5.201269211
0.90150,-1.513007758
0.90200,-10.36364558
0.90250,-18.29870018
0.90300,-24.70778274
0.90350,-27.75972682
0.90400,-26.53894919
0.90450,-21.96103307
0.90500,-18.909089
0.90550,-20.74025544
0.90600,-24.70778274
0.90650,-24.40258834
0.90700,-16.16233933
0.90750,-5.175340651
0.90800,0.3181586879
0.90850,-1.207813351
0.90900,-3.95456302
0.90950,-2.733785389
0.91000,0.3181586879
0.91050,-1.818202166
0.91100,-10.36364558
0.91150,-20.43506104
0.91200,-26.8441436
0.91250,-28.67531004
0.91300,-28.37011564
0.91350,-28.67531004
0.91400,-29.59089327
0.91450,-28.98050445
0.91500,-24.70778274
0.91550,-17.68831137
0.91600,-11.88961762
0.91650,-9.142867951
0.91700,-7.311701505
0.91750,-4.564951835
0.91800,-1.207813351
0.91850,0.9285475033
0.91900,3.064908357
0.91950,6.116852434
0.92000,9.779185327
0.92050,13.44151822
0.92100,16.18826789
0.92150,17.10385111
0.92200,13.44151822
0.92250,5.201269211
0.92300,-2.428590981
0.92350,-5.175340651
0.92400,-2.733785389
0.92450,-0.2922301275
0.92500,-2.123396574
0.92550,-7.311701505
0.92600,-11.2792288
0.92650,-11.2792288
0.92700,-8.532479135
0.92750,-6.701312689
0.92800,-7.311701505
0.92850,-7.616895912
0.92900,-3.95456302
0.92950,1.538936319
0.93000,1.538936319
0.93050,-6.090923874
0.93100,-14.9415617
0.93150,-15.85714492
0.93200,-10.05845117
0.93250,-6.090923874
0.93300,-8.227284728
0.93350,-10.36364558
0.93400,-5.480535058
0.93450,5.811658027
0.93500,18.01943433
0.93550,26.87007216
0.93600,32.3635715
0.93650,36.6362932
0.93700,39.68823728
0.93750,38.77265406
0.93800,32.3635715
0.93850,22.59735045
0.93900,13.44151822
0.93950,5.506463619
0.94000,-1.818202166
0.94050,-7.006507097
0.94100,-4.870146243
0.94150,3.675297173
0.94200,10.99996296
0.94250,9.779185327
0.94300,3.98049158
0.94350,0.9285475033
0.94400,1.844130726
0.94450,1.844130726
0.94500,1.538936319
0.94550,6.422046842
0.94600,15.88307348
0.94650,23.81812808
0.94700,25.64929453
0.94750,25.34410012
0.94800,25.95448893
0.94850,25.95448893
0.94900,22.90254486
0.94950,19.24021197
0.95000,17.10385111
0.95050,15.27268467
0.95100,11.30515737
0.95150,6.72724125
0.95200,3.98049158
0.95250,2.75971395
0.95300,0.6233530956
0.95350,-3.649368612
0.95400,-8.837673543
0.95450,-12.80520084
0.95500,-13.41558966
0.95550,-10.9740344
0.95600,-7.616895912
0.95650,-7.311701505
0.95700,-11.2792288
0.95750,-17.07792255
0.95800,-20.43506104
0.95850,-18.60389459
0.95900,-11.58442321
0.95950,-3.038979797
0.96000,0.9285475033
0.96050,-0.2922301275
0.96100,-4.564951835
0.96150,-6.701312689
0.96200,-6.396118282
0.96250,-6.090923874
0.96300,-5.785729466
0.96350,-3.95456302
0.96400,-2.733785389
0.96450,-4.564951835
0.96500,-7.006507097
0.96550,-5.480535058
0.96600,-1.207813351
0.96650,-0.2922301275
0.96700,-3.649368612
0.96750,-7.311701505
0.96800,-7.311701505
0.96850,-7.006507097
0.96900,-9.142867951
0.96950,-11.58442321
0.97000,-10.36364558
0.97050,-6.090923874
0.97100,-3.95456302
0.97150,-4.564951835
0.97200,-5.175340651
0.97250,-3.95456302
0.97300,-2.733785389
0.97350,-3.344174205
0.97400,-5.175340651
0.97450,-6.396118282
0.97500,-6.090923874
0.97550,-4.564951835
0.97600,-3.95456302
0.97650,-5.785729466
0.97700,-8.532479135
0.97750,-8.227284728
0.97800,-4.870146243
0.97850,-1.818202166
0.97900,-3.038979797
0.97950,-6.701312689
0.98000,-8.532479135
0.98050,-7.311701505
0.98100,-5.480535058
0.98150,-4.870146243
0.98200,-4.564951835
0.98250,-3.344174205
0.98300,-2.428590981
0.98350,-3.038979797
0.98400,-4.259757428
0.98450,-4.870146243
0.98500,-4.564951835
0.98550,-4.564951835
0.98600,-5.480535058
0.98650,-5.785729466
0.98700,-4.259757428
0.98750,-1.513007758
0.98800,0.3181586879
0.98850,0.3181586879
0.98900,0.01296428019
0.98950,0.3181586879
0.99000,0.9285475033
0.99050,1.233741911
0.99100,0.3181586879
0.99150,0.01296428019
0.99200,0.01296428019
0.99250,0.01296428019
0.99300,0.01296428019
0.99350,0.6233530956
0.99400,1.233741911
0.99450,0.6233530956
0.99500,-1.513007758
0.99550,-2.733785389
0.99600,-1.513007758
0.99650,0.6233530956
0.99700,1.233741911
0.99750,0.3181586879
0.99800,-0.2922301275
0.99850,0.3181586879
0.99900,1.538936319
0.99950,2.454519542
1.00000,2.454519542
1.00050,2.75971395
1.00100,3.370102765
1.00150,3.064908357
1.00200,2.75971395
1.00250,2.454519542
1.00300,2.454519542
1.00350,2.149325134
1.00400,1.233741911
1.00450,1.844130726
1.00500,3.370102765
1.00550,4.285685988
1.00600,3.675297173
1.00650,2.149325134
1.00700,0.6233530956
1.00750,0.3181586879
1.00800,0.6233530956
1.00850,1.844130726
1.00900,3.370102765
1.00950,3.370102765
1.01000,1.844130726
1.01050,1.538936319
1.01100,3.064908357
1.01150,3.675297173
1.01200,2.454519542
1.01250,1.233741911
1.01300,0.6233530956
1.01350,-1.207813351
1.01400,-4.564951835
1.01450,-5.175340651
1.01500,-1.207813351
1.01550,1.538936319
1.01600,-0.5974245352
1.01650,-2.733785389
1.01700,1.233741911
1.01750,7.94801888
1.01800,8.558407696
1.01850,3.98049158
1.01900,2.454519542
1.01950,6.422046842
1.02000,9.473990919
1.02050,7.337630065
1.02100,4.590880396
1.02150,5.201269211
1.02200,6.72724125
1.02250,5.201269211
1.02300,2.75971395
1.02350,2.454519542
1.02400,3.98049158
1.02450,4.285685988
1.02500,3.064908357
1.02550,1.538936319
1.02600,0.9285475033
1.02650,1.844130726
1.02700,4.896074803
1.02750,8.863602104
1.02800,9.473990919
1.02850,6.116852434
1.02900,2.454519542
1.02950,1.844130726
1.03000,3.675297173
1.03050,4.896074803
1.03100,5.201269211
1.03150,4.896074803
1.03200,2.149325134
1.03250,-3.649368612
1.03300,-9.142867951
1.03350,-8.532479135
1.03400,-1.207813351
1.03450,6.116852434
1.03500,8.863602104
1.03550,7.642824473
1.03600,6.422046842
1.03650,6.116852434
1.03700,4.590880396
1.03750,0.9285475033
1.03800,-0.9026189429
1.03850,0.3181586879
1.03900,3.370102765
1.03950,5.506463619
1.04000,5.201269211
1.04050,4.285685988
1.04100,4.285685988
1.04150,4.285685988
1.04200,3.064908357
1.04250,0.9285475033
1.04300,-0.9026189429
1.04350,-0.9026189429
1.04400,0.3181586879
1.04450,-0.5974245352
1.04500,-5.175340651
1.04550,-9.142867951
1.04600,-5.785729466
1.04650,3.370102765
1.04700,9.779185327
1.04750,6.116852434
1.04800,-1.513007758
1.04850,-4.870146243
1.04900,-3.038979797
1.04950,-1.207813351
1.05000,-0.9026189429
1.05050,1.233741911
1.05100,6.422046842
1.05150,7.94801888
1.05200,3.064908357
1.05250,-2.123396574
1.05300,-1.818202166
1.05350,2.149325134
1.05400,3.370102765
1.05450,-0.5974245352
1.05500,-6.701312689
1.05550,-10.9740344
1.05600,-13.11039525
1.05650,-14.02597847
1.05700,-12.50000644
1.05750,-7.616895912
1.05800,-0.2922301275
1.05850,5.506463619
1.05900,6.72724125
1.05950,3.675297173
1.06000,0.6233530956
1.06050,1.844130726
1.06100,7.337630065
1.06150,13.74671263
1.06200,20.4609896
1.06250,26.56487775
1.06300,29.92201623
1.06350,26.56487775
1.06400,16.4934623
1.06450,4.590880396
1.06500,-5.480535058
1.06550,-14.33117288
1.06600,-21.96103307
1.06650,-24.70778274
1.06700,-20.74025544
1.06750,-14.63636729
1.06800,-13.11039525
1.06850,-15.85714492
1.06900,-15.2467561
1.06950,-7.006507097
1.07000,5.811658027
1.07050,15.57787907
1.07100,19.85060078
1.07150,22.59735045
1.07200,27.78565538
1.07250,33.88954354
1.07300,38.77265406
1.07350,42.12979254
1.07400,44.2661534
1.07450,44.5713478
1.07500,40.6038205
1.07550,32.6687659
1.07600,23.51293367
1.07650,16.7986567
1.07700,14.05190703
1.07750,15.57787907
1.07800,18.62982315
1.07850,19.54540637
1.07900,17.10385111
1.07950,14.05190703
1.08000,14.05190703
1.08050,16.7986567
1.08100,19.54540637
1.08150,19.54540637
1.08200,18.01943433
1.08250,18.01943433
1.08300,18.62982315
1.08350,16.4934623
1.08400,10.08437973
1.08450,3.064908357
1.08500,0.01296428019
1.08550,0.9285475033
1.08600,1.538936319
1.08650,-1.818202166
1.08700,-11.2792288
1.08750,-24.09739393
1.08800,-36.61036464
1.08850,-45.15580806
1.08900,-48.20775214
1.08950,-48.51294654
1.09000,-49.12333536
1.09050,-49.73372418
1.09100,-46.6817801
1.09150,-40.57789194
1.09200,-36.30517024
1.09250,-34.47400379
1.09300,-27.45453241
1.09350,-8.837673543
1.09400,17.10385111
1.09450,39.68823728
1.09500,54.33756885
1.09550,66.24015075
1.09600,79.36351028
1.09650,89.43492574
1.09700,90.35050896
1.09750,82.11025995
1.09800,68.37651161
1.09850,52.5064024
1.09900,36.02590439
1.09950,22.29215604
1.10000,14.05190703
1.10050,8.253213288
1.10100,2.454519542
1.10150,-2.123396574
1.10200,-2.123396574
1.10250,2.75971395
1.10300,7.032435657
1.10350,7.337630065
1.10400,6.116852434
1.10450,5.811658027
1.10500,3.064908357
1.10550,-6.090923874
1.10600,-20.12986663
1.10650,-31.11686531
1.10700,-36.91555905
1.10750,-38.7467255
1.10800,-37.52594787
1.10850,-32.33764294
1.10900,-26.53894919
1.10950,-27.14933801
1.11000,-34.16880938
1.11050,-35.99997583
1.11100,-23.18181071
1.11150,-1.207813351
1.11200,14.66229585
1.11250,16.7986567
1.11300,8.863602104
1.11350,0.9285475033
1.11400,-3.038979797
1.11450,-5.785729466
1.11500,-10.36364558
1.11550,-17.38311696
1.11600,-23.18181071
1.11650,-25.92856037
1.11700,-26.8441436
1.11750,-26.8441436
1.11800,-24.40258834
1.11850,-16.46753374
1.11900,-4.870146243
1.11950,4.590880396
1.12000,9.168796511
1.12050,9.168796511
1.12100,8.558407696
1.12150,10.08437973
1.12200,13.13632381
1.12250,13.44151822
1.12300,8.558407696
1.12350,2.149325134
1.12400,2.454519542
1.12450,10.38957414
1.12500,18.32462874
1.12550,16.7986567
1.12600,6.72724125
1.12650,-4.259757428
1.12700,-10.9740344
1.12750,-12.50000644
1.12800,-10.36364558
1.12850,-6.701312689
1.12900,-4.564951835
1.12950,-3.649368612
1.13000,-0.9026189429
1.13050,3.064908357
1.13100,2.149325134
1.13150,-7.92209032
1.13200,-21.35064426
1.13250,-28.37011564
1.13300,-25.01297715
1.13350,-15.55195051
1.13400,-6.090923874
1.13450,-3.649368612
1.13500,-12.50000644
1.13550,-28.37011564
1.13600,-41.49347517
1.13650,-45.46100247
1.13700,-45.46100247
1.13750,-48.81814095
1.13800,-55.53241792
1.13850,-60.11033404
1.13900,-58.584362
1.13950,-52.17527944
1.14000,-44.54541924
1.14050,-38.44153109
1.14100,-34.47400379
1.14150,-26.23375478
1.14200,-8.837673543
1.14250,16.4934623
1.14300,42.43498695
1.14350,64.71417871
1.14400,85.46739844
1.14450,102.8634797
1.14500,109.8829511
1.14550,103.1686741
1.14600,88.82453692
1.14650,74.17520535
1.14700,59.52587378
1.14750,43.35057017
1.14800,29.31162742
1.14850,19.85060078
1.14900,11.30515737
1.14950,0.6233530956
1.15000,-9.142867951
1.15050,-12.50000644
1.15100,-9.448062359
1.15150,-4.564951835
1.15200,-3.649368612
1.15250,-10.05845117
1.15300,-21.04544985
1.15350,-28.67531004
1.15400,-24.09739393
1.15450,-7.92209032
1.15500,7.337630065
1.15550,13.74671263
1.15600,13.74671263
1.15650,13.74671263
1.15700,15.27268467
1.15750,16.4934623
1.15800,17.40904552
1.15850,19.54540637
1.15900,21.37657282
1.15950,21.68176723
1.16000,21.37657282
1.16050,20.766184
1.16100,18.01943433
1.16150,14.05190703
1.16200,13.13632381
1.16250,15.27268467
1.16300,15.57787907
1.16350,14.05190703
1.16400,17.40904552
1.16450,26.56487775
1.16500,30.22721064
1.16550,19.24021197
1.16600,1.844130726
1.16650,-7.006507097
1.16700,-3.649368612
1.16750,1.844130726
1.16800,3.675297173
1.16850,4.896074803
1.16900,10.08437973
1.16950,16.7986567
1.17000,21.68176723
1.17050,24.12332249
1.17100,25.95448893
1.17150,27.48046097
1.17200,28.7012386
1.17250,29.31162742
1.17300,28.09084979
1.17350,21.98696163
1.17400,11.30515737
1.17450,0.3181586879
1.17500,-6.090923874
1.17550,-9.142867951
1.17600,-11.58442321
1.17650,-15.85714492
1.17700,-21.04544985
1.17750,-24.70778274
1.17800,-26.8441436
1.17850,-28.67531004
1.17900,-30.8116709
1.17950,-31.42205971
1.18000,-29.28569886
1.18050,-25.92856037
1.18100,-23.48700511
1.18150,-22.8766163
1.18200,-24.40258834
1.18250,-26.8441436
1.18300,-28.67531004
1.18350,-27.75972682
1.18400,-25.31817156
1.18450,-24.40258834
1.18500,-27.75972682
1.18550,-32.33764294
1.18600,-34.47400379
1.18650,-35.38958701
1.18700,-37.52594787
1.18750,-39.96750313
1.18800,-38.44153109
1.18850,-30.50647649
1.18900,-20.12986663
1.18950,-9.753256766
1.19000,0.6233530956
1.19050,12.525935
1.19100,22.29215604
1.19150,25.95448893
1.19200,25.64929453
1.19250,26.25968334
1.19300,31.44798827
1.19350,38.77265406
1.19400,42.74018136
1.19450,40.90901491
1.19500,33.88954354
1.19550,24.4285169
1.19600,16.4934623
1.19650,10.38957414
1.19700,3.675297173
1.19750,-6.396118282
1.19800,-18.29870018
1.19850,-28.37011564
1.19900,-35.69478142
1.19950,-43.01944721
1.20000,-50.03891858
1.20050,-53.70125148
1.20100,-51.56489062
1.20150,-44.85061365
1.20200,-35.69478142
1.20250,-24.70778274
1.20300,-13.11039525
1.20350,-2.123396574
1.20400,7.337630065
1.20450,16.4934623
1.20500,23.20773927
1.20550,25.64929453
1.20600,27.17526657
1.20650,32.97396031
1.20700,41.51940373
1.20750,45.18173662
1.20800,39.07784847
1.20850,28.09084979
1.20900,18.62982315
1.20950,13.44151822
1.21000,12.525935
1.21050,14.66229585
1.21100,18.32462874
1.21150,20.766184
1.21200,26.25968334
1.21250,39.07784847
1.21300,54.94795767
1.21350,60.74665141
1.21400,52.81159681
1.21450,42.12979254
1.21500,37.55187643
1.21550,34.80512676
1.21600,24.4285169
1.21650,7.94801888
1.21700,-6.090923874
1.21750,-15.85714492
1.21800,-25.01297715
1.21850,-32.03244853
1.21900,-34.16880938
1.21950,-32.94803175
1.22000,-32.33764294
1.22050,-30.8116709
1.22100,-23.79219952
1.22150,-14.02597847
1.22200,-7.92209032
1.22250,-6.701312689
1.22300,-5.480535058
1.22350,-3.649368612
1.22400,-3.649368612
1.22450,-1.513007758
1.22500,7.642824473
1.22550,22.29215604
1.22600,32.05837709
1.22650,32.3635715
1.22700,29.92201623
1.22750,28.7012386
1.22800,28.3960442
1.22850,27.48046097
1.22900,29.92201623
1.22950,36.02590439
1.23000,40.6038205
1.23050,39.38304287
1.23100,36.3310988
1.23150,36.3310988
1.23200,38.16226524
1.23250,39.38304287
1.23300,39.68823728
1.23350,39.38304287
1.23400,34.49993235
1.23450,22.29215604
1.23500,7.032435657
1.23550,-6.090923874
1.23600,-17.68831137
1.23650,-31.42205971
1.23700,-48.51294654
1.23750,-65.29863897
1.23800,-75.98044324
1.23850,-77.81160968
1.23900,-71.40252712
1.23950,-62.24669489
1.24000,-54.31164029
1.24050,-47.59736332
1.24100,-34.47400379
1.24150,-10.36364558
1.24200,19.24021197
1.24250,42.12979254
1.24300,51.89601359
1.24350,52.201208
1.24400,49.75965274
1.24450,45.79212544
1.24500,39.07784847
1.24550,29.61682183
1.24600,19.54540637
1.24650,8.253213288
1.24700,-4.564951835
1.24750,-18.29870018
1.24800,-29.59089327
1.24850,-37.83114227
1.24900,-45.76619688
1.24950,-54.31164029
1.25000,-61.33111167
1.25050,-65.90902778
1.25100,-70.4869439
1.25150,-75.67524883
1.25200,-79.64277613
1.25250,-79.03238731
1.25300,-74.4544712
1.25350,-68.96097186
1.25400,-63.77266693
1.25450,-58.27916759
1.25500,-55.83761233
1.25550,-60.11033404
1.25600,-70.79213831
1.25650,-80.25316495
1.25700,-82.3895258
1.25750,-79.03238731
1.25800,-74.75966561
1.25850,-68.96097186
1.25900,-57.97397318
1.25950,-43.01944721
1.26000,-29.59089327
1.26050,-18.60389459
1.26100,-2.428590981
1.26150,25.64929453
1.26200,61.05184582
1.26250,90.04531455
1.26300,103.7790629
1.26350,102.8634797
1.26400,94.01284185
1.26450,81.49987114
1.26500,69.29209483
1.26550,61.66223464
1.26600,61.96742904
1.26650,66.24015075
1.26700,64.71417871
1.26750,50.98043037
1.26800,26.87007216
1.26850,3.98049158
1.26900,-8.837673543
1.26950,-12.19481203
1.27000,-11.88961762
1.27050,-13.72078407
1.27100,-18.60389459
1.27150,-26.23375478
1.27200,-34.47400379
1.27250,-40.27269754
1.27300,-40.57789194
1.27350,-33.25322616
1.27400,-18.909089
1.27450,-1.818202166
1.27500,10.38957414
1.27550,15.27268467
1.27600,15.88307348
1.27650,17.71423993
1.27700,19.54540637
1.27750,15.27268467
1.27800,3.370102765
1.27850,-7.616895912
1.27900,-9.753256766
1.27950,-4.564951835
1.28000,0.01296428019
1.28050,-0.5974245352
1.28100,-2.733785389
1.28150,-2.428590981
1.28200,-0.5974245352
1.28250,0.9285475033
1.28300,2.149325134
1.28350,3.064908357
1.28400,4.590880396
1.28450,8.863602104
1.28500,16.4934623
1.28550,23.20773927
1.28600,25.34410012
1.28650,26.25968334
1.28700,31.14279387
1.28750,39.99343169
1.28800,46.40251425
1.28850,47.01290307
1.28900,46.70770866
1.28950,48.2336807
1.29000,49.14926392
1.29050,45.48693103
1.29100,35.72070998
1.29150,23.51293367
1.29200,11.30515737
1.29250,3.675297173
1.29300,3.370102765
1.29350,7.94801888
1.29400,11.30515737
1.29450,10.38957414
1.29500,7.94801888
1.29550,6.422046842
1.29600,2.75971395
1.29650,-3.344174205
1.29700,-5.785729466
1.29750,1.233741911
1.29800,13.74671263
1.29850,21.07137841
1.29900,21.07137841
1.29950,18.32462874
1.30000,14.96749026
1.30050,7.032435657
1.30100,-6.396118282
1.30150,-19.82467222
1.30200,-28.37011564
1.30250,-33.55842057
1.30300,-38.13633668
1.30350,-41.18828076
1.30400,-41.79866957
1.30450,-42.40905839
1.30500,-44.85061365
1.30550,-45.15580806
1.30600,-39.05191991
1.30650,-28.67531004
1.30700,-19.21428341
1.30750,-13.41558966
1.30800,-8.227284728
1.30850,-2.428590981
1.30900,0.3181586879
1.30950,-1.207813351
1.31000,-2.733785389
1.31050,-0.9026189429
1.31100,-0.5974245352
1.31150,-6.090923874
1.31200,-14.63636729
1.31250,-18.60389459
1.31300,-15.2467561
1.31350,-8.227284728
1.31400,0.9285475033
1.31450,15.27268467
1.31500,30.22721064
1.31550,33.27915472
1.31600,18.01943433
1.31650,-6.090923874
1.31700,-25.01297715
1.31750,-33.55842057
1.31800,-37.52594787
1.31850,-42.10386398
1.31900,-44.85061365
1.31950,-44.54541924
1.32000,-44.24022484
1.32050,-47.59736332
1.32100,-55.22722351
1.32150,-62.24669489
1.32200,-63.16227811
1.32250,-54.31164029
1.32300,-38.13633668
1.32350,-20.43506104
1.32400,-7.92209032
1.32450,-3.038979797
1.32500,-4.259757428
1.32550,-8.837673543
1.32600,-15.2467561
1.32650,-21.65583867
1.32700,-24.70778274
1.32750,-21.04544985
1.32800,-10.05845117
1.32850,3.064908357
1.32900,11.91554618
1.32950,15.27268467
1.33000,17.71423993
1.33050,21.98696163
1.33100,24.12332249
1.33150,21.37657282
1.33200,18.32462874
1.33250,20.15579519
1.33300,23.20773927
1.33350,20.766184
1.33400,13.44151822
1.33450,7.94801888
1.33500,8.863602104
1.33550,14.35710144
1.33600,23.51293367
1.33650,36.6362932
1.33700,52.201208
1.33750,65.01937312
1.33800,72.95442772
1.33850,75.39598298
1.33900,73.25962213
1.33950,67.76612279
1.34000,63.49340108
1.34050,63.18820667
1.34100,65.62976194
1.34150,67.15573397
1.34200,65.62976194
1.34250,61.96742904
1.34300,55.86354089
1.34350,48.84406951
1.34400,43.04537577
1.34450,38.77265406
1.34500,32.6687659
1.34550,22.29215604
1.34600,9.779185327
1.34650,-3.038979797
1.34700,-17.99350577
1.34750,-34.16880938
1.34800,-47.59736332
1.34850,-57.05838996
1.34900,-65.60383338
1.34950,-74.75966561
1.35000,-80.86355376
1.35050,-79.64277613
1.35100,-75.37005442
1.35150,-74.75966561
1.35200,-77.20122087
1.35250,-75.98044324
1.35300,-65.60383338
1.35350,-49.12333536
1.35400,-32.64283734
1.35450,-20.12986663
1.35500,-10.66883999
1.35550,-0.9026189429
1.35600,9.473990919
1.35650,17.40904552
1.35700,18.32462874
1.35750,14.96749026
1.35800,14.05190703
1.35850,19.24021197
1.35900,26.87007216
1.35950,32.3635715
1.36000,34.80512676
1.36050,34.19473794
1.36100,30.53240505
1.36150,26.87007216
1.36200,27.17526657
1.36250,32.97396031
1.36300,39.99343169
1.36350,43.96095899
1.36400,42.12979254
1.36450,33.58434913
1.36500,17.71423993
1.36550,-0.9026189429
1.36600,-14.9415617
1.36650,-21.65583867
1.36700,-25.31817156
1.36750,-31.42205971
1.36800,-39.05191991
1.36850,-46.37658569
1.36900,-53.09086266
1.36950,-59.19475081
1.37000,-60.41552844
1.37050,-54.31164029
1.37100,-44.85061365
1.37150,-37.52594787
1.37200,-34.7791982
1.37250,-35.38958701
1.37300,-37.22075346
1.37350,-39.35711431
1.37400,-39.05191991
1.37450,-36.30517024
1.37500,-34.16880938
1.37550,-31.42205971
1.37600,-23.18181071
1.37650,-4.870146243
1.37700,18.32462874
1.37750,37.24668202
1.37800,47.92848629
1.37850,54.33756885
1.37900,58.61029056
1.37950,59.22067937
1.38000,55.25315207
1.38050,47.01290307
1.38100,37.24668202
1.38150,26.87007216
1.38200,13.44151822
1.38250,-5.480535058
1.38300,-30.20128208
1.38350,-50.34411299
1.38400,-50.95450181
1.38450,-28.67531004
1.38500,1.233741911
1.38550,18.62982315
1.38600,21.37657282
1.38650,22.29215604
1.38700,29.61682183
1.38750,37.55187643
1.38800,43.04537577
1.38850,51.59081918
1.38900,68.68170601
1.38950,85.16220403
1.39000,89.12973133
1.39050,77.83753824
1.39100,55.86354089
1.39150,27.17526657
1.39200,-3.649368612
1.39250,-26.23375478
1.39300,-34.47400379
1.39350,-36.61036464
1.39400,-44.85061365
1.39450,-55.53241792
1.39500,-57.05838996
1.39550,-46.6817801
1.39600,-35.69478142
1.39650,-30.8116709
1.39700,-25.92856037
1.39750,-15.2467561
1.39800,-2.123396574
1.39850,7.337630065
1.39900,13.74671263
1.39950,18.93501756
1.40000,20.15579519
1.40050,15.27268467
1.40100,7.642824473
1.40150,2.149325134
1.40200,-0.9026189429
1.40250,-3.038979797
1.40300,-2.733785389
1.40350,0.9285475033
1.40400,3.98049158
1.40450,-0.9026189429
1.40500,-15.85714492
1.40550,-33.55842057
1.40600,-44.85061365
1.40650,-45.46100247
1.40700,-40.57789194
1.40750,-38.7467255
1.40800,-44.24022484
1.40850,-52.17527944
1.40900,-52.78566825
1.40950,-42.10386398
1.41000,-25.01297715
1.41050,-9.142867951
1.41100,2.454519542
1.41150,11.30515737
1.41200,17.71423993
1.41250,21.07137841
1.41300,23.20773927
1.41350,26.56487775
1.41400,31.14279387
1.41450,36.02590439
1.41500,40.6038205
1.41550,47.31809747
1.41600,57.08431852
1.41650,68.37651161
1.41700,76.61676061
1.41750,78.14273265
1.41800,69.29209483
1.41850,50.67523596
1.41900,26.87007216
1.41950,2.454519542
1.42000,-18.909089
1.42050,-37.83114227
1.42100,-52.78566825
1.42150,-61.63630608
1.42200,-64.68825015
1.42250,-63.46747252
1.42300,-58.27916759
1.42350,-47.90255773
1.42400,-33.86361497
1.42450,-23.48700511
1.42500,-23.79219952
1.42550,-34.16880938
1.42600,-47.90255773
1.42650,-60.72072285
1.42700,-71.09733271
1.42750,-78.4219985
1.42800,-83.61030343
1.42850,-86.96744191
1.42900,-87.57783073
1.42950,-82.08433139
1.43000,-70.4869439
1.43050,-58.27916759
1.43100,-49.73372418
1.43150,-40.88308635
1.43200,-25.31817156
1.43250,-4.870146243
1.43300,11.61035177
1.43350,17.71423993
1.43400,16.18826789
1.43450,12.525935
1.43500,9.473990919
1.43550,5.201269211
1.43600,-1.207813351
1.43650,-5.785729466
1.43700,-4.564951835
1.43750,-0.2922301275
1.43800,-1.513007758
1.43850,-10.66883999
1.43900,-17.38311696
1.43950,-10.9740344
1.44000,5.506463619
1.44050,18.93501756
1.44100,20.4609896
1.44150,15.57787907
1.44200,14.66229585
1.44250,20.15579519
1.44300,26.56487775
1.44350,30.53240505
1.44400,35.72070998
1.44450,47.01290307
1.44500,61.35704023
1.44550,69.59728924
1.44600,65.93495634
1.44650,57.38951293
1.44700,55.86354089
1.44750,64.71417871
1.44800,75.39598298
1.44850,79.66870469
1.44900,76.61676061
1.44950,70.51287246
1.45000,62.57781786
1.45050,52.201208
1.45100,38.46745965
1.45150,18.01943433
1.45200,-7.92209032
1.45250,-32.64283734
1.45300,-43.93503043
1.45350,-41.49347517
1.45400,-33.55842057
1.45450,-26.53894919
1.45500,-17.38311696
1.45550,-5.480535058
1.45600,1.233741911
1.45650,-0.5974245352
1.45700,-4.564951835
1.45750,-2.733785389
1.45800,1.844130726
1.45850,5.506463619
1.45900,11.30515737
1.45950,22.59735045
1.46000,33.27915472
1.46050,32.97396031
1.46100,21.68176723
1.46150,8.558407696
1.46200,-0.5974245352
1.46250,-7.616895912
1.46300,-14.63636729
1.46350,-22.26622748
1.46400,-31.42205971
1.46450,-42.10386398
1.46500,-50.6493074
1.46550,-53.39605707
1.46600,-54.00644588
1.46650,-52.48047384
1.46700,-42.40905839
1.46750,-19.21428341
1.46800,6.116852434
1.46850,19.24021197
1.46900,19.54540637
1.46950,18.62982315
1.47000,21.07137841
1.47050,20.766184
1.47100,15.57787907
1.47150,13.13632381
1.47200,19.54540637
1.47250,30.83759946
1.47300,40.90901491
1.47350,50.06484714
1.47400,58.30509615
1.47450,62.27262345
1.47500,62.88301227
1.47550,65.01937312
1.47600,69.59728924
1.47650,66.85053957
1.47700,50.98043037
1.47750,28.7012386
1.47800,8.558407696
1.47850,-10.36364558
1.47900,-32.33764294
1.47950,-52.17527944
1.48000,-61.02591726
1.48050,-61.94150048
1.48100,-65.60383338
1.48150,-73.84408238
1.48200,-77.50641528
1.48250,-73.84408238
1.48300,-70.4869439
1.48350,-72.92849916
1.48400,-77.20122087
1.48450,-78.4219985
1.48500,-77.20122087
1.48550,-75.37005442
1.48600,-69.87655508
1.48650,-58.27916759
1.48700,-44.54541924
1.48750,-34.7791982
1.48800,-28.67531004
1.48850,-21.65583867
1.48900,-14.63636729
1.48950,-12.50000644
1.49000,-13.41558966
1.49050,-11.2792288
1.49100,-4.564951835
1.49150,2.149325134
1.49200,6.72724125
1.49250,12.22074059
1.49300,22.29215604
1.49350,32.05837709
1.49400,34.19473794
1.49450,28.09084979
1.49500,21.07137841
1.49550,17.40904552
1.49600,16.18826789
1.49650,16.18826789
1.49700,20.766184
1.49750,29.61682183
1.49800,36.6362932
1.49850,37.85707084
1.49900,37.55187643
1.49950,39.38304287
1.50000,38.16226524
1.50050,28.09084979
1.50100,12.8311294
1.50150,0.3181586879
1.50200,-9.753256766
1.50250,-25.62336597
1.50300,-46.37658569
1.50350,-64.38305574
1.50400,-77.50641528
1.50450,-94.59730211
1.50500,-119.9284379
1.50550,-142.5128241
1.50600,-148.0063235
1.50650,-136.1037416
1.50700,-117.7920771
1.50750,-100.0908014
1.50800,-81.47394258
1.50850,-61.94150048
1.50900,-46.98697451
1.50950,-39.96750313
1.51000,-31.42205971
1.51050,-8.227284728
1.51100,30.83759946
1.51150,70.81806687
1.51200,94.92842508
1.51250,102.8634797
1.51300,102.8634797
1.51350,96.14920271
1.51400,74.78559417
1.51450,40.90901491
1.51500,13.13632381
1.51550,6.422046842
1.51600,14.35710144
1.51650,19.54540637
1.51700,14.96749026
1.51750,11.30515737
1.51800,16.7986567
1.51850,27.48046097
1.51900,33.88954354
1.51950,33.27915472
1.52000,28.7012386
1.52050,23.51293367
1.52100,18.93501756
1.52150,17.71423993
1.52200,19.54540637
1.52250,21.07137841
1.52300,18.93501756
1.52350,15.57787907
1.52400,15.88307348
1.52450,19.54540637
1.52500,21.68176723
1.52550,25.34410012
1.52600,39.38304287
1.52650,64.71417871
1.52700,86.99337048
1.52750,92.48686981
1.52800,87.9089537
1.52850,87.60375929
1.52900,91.57128659
1.52950,86.07778725
1.53000,65.32456753
1.53050,41.51940373
1.53100,24.7337113
1.53150,9.779185327
1.53200,-13.41558966
1.53250,-41.18828076
1.53300,-60.72072285
1.53350,-66.82461101
1.53400,-61.63630608
1.53450,-49.73372418
1.53500,-35.69478142
1.53550,-24.09739393
1.53600,-15.85714492
1.53650,-4.259757428
1.53700,14.66229585
1.53750,34.80512676
1.53800,47.31809747
1.53850,51.28562477
1.53900,53.11679122
1.53950,54.33756885
1.54000,50.06484714
1.54050,39.38304287
1.54100,24.4285169
1.54150,8.253213288
1.54200,-7.616895912
1.54250,-20.12986663
1.54300,-23.79219952
1.54350,-18.60389459
1.54400,-6.396118282
1.54450,11.91554618
1.54500,34.19473794
1.54550,52.201208
1.54600,58.91548497
1.54650,58.30509615
1.54700,59.52587378
1.54750,62.57781786
1.54800,56.4739297
1.54850,36.3310988
1.54900,9.168796511
1.54950,-16.77272814
1.55000,-40.27269754
1.55050,-62.24669489
1.55100,-80.25316495
1.55150,-91.54535803
1.55200,-96.12327415
1.55250,-94.59730211
1.55300,-86.66224751
1.55350,-73.84408238
1.55400,-61.02591726
1.55450,-49.73372418
1.55500,-39.05191991
1.55550,-29.59089327
1.55600,-27.14933801
1.55650,-32.33764294
1.55700,-39.35711431
1.55750,-42.7142528
1.55800,-43.62983602
1.55850,-43.32464161
1.55900,-39.66230872
1.55950,-32.33764294
1.56000,-27.14933801
1.56050,-26.8441436
1.56100,-26.53894919
1.56150,-20.12986663
1.56200,-9.448062359
1.56250,0.01296428019
1.56300,7.94801888
1.56350,15.88307348
1.56400,19.85060078
1.56450,15.88307348
1.56500,6.116852434
1.56550,-3.344174205
1.56600,-12.19481203
1.56650,-21.65583867
1.56700,-29.28569886
1.56750,-31.42205971
1.56800,-30.50647649
1.56850,-31.42205971
1.56900,-33.55842057
1.56950,-34.16880938
1.57000,-33.55842057
1.57050,-35.99997583
1.57100,-40.88308635
1.57150,-44.85061365
1.57200,-48.81814095
1.57250,-58.27916759
1.57300,-73.53888798
1.57350,-85.13627547
1.57400,-83.30510902
1.57450,-68.35058304
1.57500,-46.98697451
1.57550,-23.48700511
1.57600,-0.2922301275
1.57650,19.85060078
1.57700,35.41551557
1.57750,45.79212544
1.57800,54.03237444
1.57850,65.62976194
1.57900,80.58428791
1.57950,95.23361948
1.58000,102.8634797
1.58050,100.4219244
1.58100,90.96089778
1.58150,77.53234384
1.58200,60.74665141
1.58250,39.99343169
1.58300,18.62982315
1.58350,4.285685988
1.58400,1.844130726
1.58450,4.896074803
1.58500,1.233741911
1.58550,-15.85714492
1.58600,-38.7467255
1.58650,-54.00644588
1.58700,-60.72072285
1.58750,-67.43499982
1.58800,-76.28563765
1.58850,-74.4544712
1.58900,-52.17527944
1.58950,-16.16233933
1.59000,17.40904552
1.59050,44.2661534
1.59100,68.37651161
1.59150,89.12973133
1.59200,99.8115356
1.59250,99.20114678
1.59300,92.48686981
1.59350,83.33103758
1.59400,68.37651161
1.59450,47.62329188
1.59500,24.12332249
1.59550,-0.5974245352
1.59600,-28.98050445
1.59650,-55.22722351
1.59700,-69.87655508
1.59750,-70.79213831
1.59800,-67.12980541
1.59850,-65.29863897
1.59900,-61.63630608
1.59950,-51.87008503
1.60000,-42.40905839
1.60050,-40.57789194
1.60100,-42.40905839
1.60150,-35.38958701
1.60200,-15.2467561
1.60250,10.99996296
1.60300,34.49993235
1.60350,53.42198563
1.60400,68.98690042
1.60450,79.9738991
1.60500,85.46739844
1.60550,88.82453692
1.60600,98.59075797
1.60650,117.2076168
1.60700,137.3504477
1.60750,147.7270576
1.60800,148.6426408
1.60850,148.9478352
1.60900,153.2205569
1.60950,153.5257514
1.61000,141.0127806
1.61050,122.7011162
1.61100,113.5452839
1.61150,118.7335889
1.61200,128.4998099
1.61250,129.7205876
1.61300,119.3439777
1.61350,99.8115356
1.61400,74.48039976
1.61450,49.14926392
1.61500,26.87007216
1.61550,3.98049158
1.61600,-27.75972682
1.61650,-63.77266693
1.61700,-88.18821955
1.61750,-93.37652448
1.61800,-90.93496921
1.61850,-92.15574685
1.61900,-94.2921077
1.61950,-89.10380277
1.62000,-79.33758172
1.62050,-72.01291594
1.62100,-66.82461101
1.62150,-61.02591726
1.62200,-61.02591726
1.62250,-70.79213831
1.62300,-79.03238731
1.62350,-68.35058304
1.62400,-41.79866957
1.62450,-18.60389459
1.62500,-8.227284728
1.62550,-4.870146243
1.62600,-2.428590981
1.62650,-3.649368612
1.62700,-7.311701505
1.62750,-1.818202166
1.62800,20.4609896
1.62850,52.201208
1.62900,77.22714943
1.62950,86.99337048
1.63000,84.85700962
1.63050,79.66870469
1.63100,79.36351028
1.63150,85.16220403
1.63200,92.48686981
1.63250,96.14920271
1.63300,93.70764744
1.63350,82.11025995
1.63400,58.91548497
1.63450,30.53240505
1.63500,11.30515737
1.63550,4.896074803
1.63600,-2.428590981
1.63650,-22.26622748
1.63700,-42.40905839
1.63750,-43.93503043
1.63800,-28.67531004
1.63850,-14.9415617
1.63900,-9.753256766
1.63950,-1.818202166
1.64000,13.13632381
1.64050,23.20773927
1.64100,15.57787907
1.64150,-4.870146243
1.64200,-26.8441436
1.64250,-46.37658569
1.64300,-66.82461101
1.64350,-88.18821955
1.64400,-106.1946896
1.64450,-115.3505218
1.64500,-114.740133
1.64550,-104.3635232
1.64600,-87.27263632
1.64650,-66.82461101
1.64700,-43.01944721
1.64750,-17.07792255
1.64800,5.811658027
1.64850,17.71423993
1.64900,13.44151822
1.64950,-3.95456302
1.65000,-28.98050445
1.65050,-54.31164029
1.65100,-69.87655508
1.65150,-68.35058304
1.65200,-51.56489062
1.65250,-32.03244853
1.65300,-18.60389459
1.65350,-7.006507097
1.65400,10.08437973
1.65450,30.53240505
1.65500,42.43498695
1.65550,43.04537577
1.65600,43.96095899
1.65650,53.42198563
1.65700,65.62976194
1.65750,69.90248364
1.65800,69.29209483
1.65850,73.25962213
1.65900,81.19467673
1.65950,84.55181521
1.66000,80.58428791
1.66050,72.95442772
1.66100,59.52587378
1.66150,33.58434913
1.66200,1.233741911
1.66250,-21.35064426
1.66300,-30.20128208
1.66350,-37.22075346
1.66400,-50.34411299
1.66450,-60.11033404
1.66500,-57.05838996
1.66550,-47.90255773
1.66600,-44.24022484
1.66650,-46.07139128
1.66700,-46.37658569
1.66750,-44.54541924
1.66800,-44.24022484
1.66850,-45.46100247
1.66900,-47.59736332
1.66950,-52.17527944
1.67000,-61.33111167
1.67050,-71.09733271
1.67100,-76.28563765
1.67150,-74.75966561
1.67200,-64.07786134
1.67250,-43.62983602
1.67300,-21.96103307
1.67350,-10.66883999
1.67400,-10.9740344
1.67450,-13.72078407
1.67500,-16.16233933
1.67550,-24.70778274
1.67600,-35.99997583
1.67650,-34.7791982
1.67700,-18.909089
1.67750,-6.701312689
1.67800,-11.88961762
1.67850,-23.79219952
1.67900,-25.92856037
1.67950,-19.21428341
1.68000,-15.55195051
1.68050,-16.16233933
1.68100,-11.88961762
1.68150,0.3181586879
1.68200,18.01943433
1.68250,41.51940373
1.68300,69.90248364
1.68350,97.36998034
1.68400,117.8180057
1.68450,133.077726
1.68500,144.9803079
1.68550,144.9803079
1.68600,124.5322826
1.68650,88.21414811
1.68700,49.14926392
1.68750,12.8311294
1.68800,-22.57142189
1.68850,-58.27916759
1.68900,-90.3245804
1.68950,-113.8245498
1.69000,-126.0323261
1.69050,-122.6751876
1.69100,-103.7531343
1.69150,-77.50641528
1.69200,-52.48047384
1.69250,-30.8116709
1.69300,-10.66883999
1.69350,5.811658027
1.69400,15.57787907
1.69450,18.62982315
1.69500,20.766184
1.69550,25.34410012
1.69600,30.53240505
1.69650,32.6687659
1.69700,30.83759946
1.69750,26.87007216
1.69800,25.03890571
1.69850,26.87007216
1.69900,30.53240505
1.69950,34.80512676
1.70000,43.35057017
1.70050,56.77912411
1.70100,67.76612279
1.70150,69.90248364
1.70200,66.24015075
1.70250,66.24015075
1.70300,71.12326127
1.70350,70.81806687
1.70400,59.22067937
1.70450,41.21420932
1.70500,25.03890571
1.70550,15.88307348
1.70600,20.15579519
1.70650,43.04537577
1.70700,79.9738991
1.70750,116.2920336
1.70800,137.3504477
1.70850,142.2335583
1.70900,135.2140869
1.70950,121.1751441
1.71000,104.3894517
1.71050,87.9089537
1.71100,72.0388445
1.71150,53.72718004
1.71200,33.88954354
1.71250,18.62982315
1.71300,11.61035177
1.71350,8.863602104
1.71400,7.032435657
1.71450,5.506463619
1.71500,2.75971395
1.71550,-6.701312689
1.71600,-27.45453241
1.71650,-53.39605707
1.71700,-73.53888798
1.71750,-84.22069225
1.71800,-88.79860836
1.71850,-90.62977481
1.71900,-86.66224751
1.71950,-73.23369357
1.72000,-51.25969621
1.72050,-27.14933801
1.72100,-5.175340651
1.72150,19.24021197
1.72200,50.98043037
1.72250,82.41545436
1.72300,97.06478593
1.72350,88.51934251
1.72400,71.42845568
1.72450,63.49340108
1.72500,62.57781786
1.72550,50.67523596
1.72600,18.32462874
1.72650,-22.57142189
1.72700,-54.00644588
1.72750,-69.26616627
1.72800,-72.01291594
1.72850,-69.57136068
1.72900,-67.12980541
1.72950,-68.04538864
1.73000,-72.31811035
1.73050,-75.98044324
1.73100,-78.11680409
1.73150,-81.47394258
1.73200,-87.57783073
1.73250,-90.93496921
1.73300,-86.66224751
1.73350,-76.89602646
1.73400,-67.12980541
1.73450,-57.97397318
1.73500,-45.46100247
1.73550,-30.50647649
1.73600,-20.43506104
1.73650,-18.909089
1.73700,-21.65583867
1.73750,-19.82467222
1.73800,-13.11039525
1.73850,-6.701312689
1.73900,-4.564951835
1.73950,-4.259757428
1.74000,-1.207813351
1.74050,7.337630065
1.74100,21.98696163
1.74150,41.21420932
1.74200,61.66223464
1.74250,79.9738991
1.74300,94.31803626
1.74350,105.3050349
1.74400,112.9348951
1.74450,116.2920336
1.74500,114.7660616
1.74550,110.1881455
1.74600,103.7790629
1.74650,95.8440083
1.74700,83.9414264
1.74750,65.62976194
1.74800,41.51940373
1.74850,18.32462874
1.74900,2.149325134
1.74950,-7.616895912
1.75000,-19.82467222
1.75050,-41.18828076
1.75100,-67.43499982
1.75150,-90.62977481
1.75200,-108.6362449
1.75250,-125.1167429
1.75300,-138.8504912
1.75350,-143.4284073
1.75400,-136.1037416
1.75450,-122.0647988
1.75500,-105.5843008
1.75550,-86.96744191
1.75600,-67.74019423
1.75650,-53.39605707
1.75700,-46.6817801
1.75750,-41.49347517
1.75800,-30.8116709
1.75850,-19.51947781
1.75900,-16.16233933
1.75950,-22.57142189
1.76000,-30.20128208
1.76050,-30.20128208
1.76100,-19.21428341
1.76150,1.844130726
1.76200,30.53240505
1.76250,59.83106819
1.76300,83.02584317
1.76350,95.23361948
1.76400,95.23361948
1.76450,82.72064877
1.76500,60.74665141
1.76550,38.77265406
1.76600,25.95448893
1.76650,20.766184
1.76700,13.74671263
1.76750,4.285685988
1.76800,3.675297173
1.76850,19.85060078
1.76900,44.5713478
1.76950,63.79859549
1.77000,72.34403891
1.77050,76.31156621
1.77100,77.83753824
1.77150,72.34403891
1.77200,56.77912411
1.77250,34.80512676
1.77300,14.35710144
1.77350,0.01296428019
1.77400,-6.701312689
1.77450,-6.090923874
1.77500,-4.870146243
1.77550,-14.02597847
1.77600,-37.22075346
1.77650,-64.68825015
1.77700,-81.16874817
1.77750,-83.91549784
1.77800,-85.44146988
1.77850,-93.68171888
1.77900,-102.2271623
1.77950,-98.56482941
1.78000,-86.05185869
1.78050,-77.81160968
1.78100,-77.81160968
1.78150,-73.84408238
1.78200,-56.44800114
1.78250,-33.55842057
1.78300,-15.2467561
1.78350,2.149325134
1.78400,28.3960442
1.78450,56.1687353
1.78500,68.0713172
1.78550,60.44145701
1.78600,47.62329188
1.78650,40.2986261
1.78700,31.44798827
1.78750,12.22074059
1.78800,-10.36364558
1.78850,-25.01297715
1.78900,-28.67531004
1.78950,-27.75972682
1.79000,-22.26622748
1.79050,-2.123396574
1.79100,37.55187643
1.79150,88.51934251
1.79200,134.2985037
1.79250,165.4283333
1.79300,181.6036369
1.79350,184.0451921
1.79400,172.4478046
1.79450,147.1166688
1.79500,112.6297007
1.79550,75.09078857
1.79600,36.3310988
1.79650,-3.649368612
1.79700,-43.01944721
1.79750,-74.75966561
1.79800,-93.98691329
1.79850,-102.8375511
1.79900,-107.1102728
1.79950,-110.7726057
1.80000,-113.8245498
1.80050,-114.740133
1.80100,-113.8245498
1.80150,-110.7726057
1.80200,-104.6687176
1.80250,-96.12327415
1.80300,-87.27263632
1.80350,-77.81160968
1.80400,-65.29863897
1.80450,-47.59736332
1.80500,-26.23375478
1.80550,-6.396118282
1.80600,4.285685988
1.80650,3.064908357
1.80700,-7.92209032
1.80750,-20.74025544
1.80800,-28.98050445
1.80850,-31.11686531
1.80900,-29.28569886
1.80950,-23.48700511
1.81000,-14.33117288
1.81050,-6.701312689
1.81100,-3.038979797
1.81150,4.285685988
1.81200,25.64929453
1.81250,54.03237444
1.81300,68.68170601
1.81350,58.61029056
1.81400,37.85707084
1.81450,25.34410012
1.81500,21.07137841
1.81550,14.35710144
1.81600,3.370102765
1.81650,-6.701312689
1.81700,-17.99350577
1.81750,-35.08439261
1.81800,-52.78566825
1.81850,-58.584362
1.81900,-50.95450181
1.81950,-39.66230872
1.82000,-29.89608767
1.82050,-13.72078407
1.82100,11.61035177
1.82150,37.55187643
1.82200,52.81159681
1.82250,59.52587378
1.82300,70.20767805
1.82350,91.57128659
1.82400,115.9868392
1.82450,129.7205876
1.82500,124.837477
1.82550,107.7465902
1.82600,87.60375929
1.82650,63.49340108
1.82700,28.09084979
1.82750,-17.68831137
1.82800,-60.72072285
1.82850,-90.93496921
1.82900,-113.214161
1.82950,-134.5777695
1.83000,-151.0582675
1.83050,-156.2465725
1.83100,-155.9413781
1.83150,-159.9089054
1.83200,-162.9608494
1.83250,-149.5322955
1.83300,-116.2661051
1.83350,-77.20122087
1.83400,-47.90255773
1.83450,-31.72725412
1.83500,-23.79219952
1.83550,-18.29870018
1.83600,-13.41558966
1.83650,-9.448062359
1.83700,-9.142867951
1.83750,-15.85714492
1.83800,-27.45453241
1.83850,-37.83114227
1.83900,-40.57789194
1.83950,-35.08439261
1.84000,-24.09739393
1.84050,-12.50000644
1.84100,0.3181586879
1.84150,19.85060078
1.84200,49.45445833
1.84250,82.41545436
1.84300,102.5582853
1.84350,99.50634119
1.84400,74.78559417
1.84450,39.68823728
1.84500,6.116852434
1.84550,-15.2467561
1.84600,-20.74025544
1.84650,-14.63636729
1.84700,-5.175340651
1.84750,3.675297173
1.84800,14.96749026
1.84850,28.3960442
1.84900,42.12979254
1.84950,56.1687353
1.85000,70.81806687
1.85050,83.02584317
1.85100,88.21414811
1.85150,91.26609218
1.85200,100.11673
1.85250,115.071256
1.85300,126.0582547
1.85350,127.2790323
1.85400,121.1751441
1.85450,111.4089231
1.85500,97.36998034
1.85550,82.72064877
1.85600,75.09078857
1.85650,76.92195502
1.85700,76.31156621
1.85750,62.57781786
1.85800,39.38304287
1.85850,20.15579519
1.85900,12.22074059
1.85950,12.525935
1.86000,13.44151822
1.86050,8.253213288
1.86100,-7.92209032
1.86150,-31.11686531
1.86200,-48.20775214
1.86250,-50.95450181
1.86300,-46.6817801
1.86350,-47.90255773
1.86400,-55.83761233
1.86450,-63.46747252
1.86500,-71.09733271
1.86550,-82.3895258
1.86600,-92.46094125
1.86650,-91.85055244
1.86700,-81.77913698
1.86750,-72.62330475
1.86800,-66.21422219
1.86850,-55.83761233
1.86900,-42.7142528
1.86950,-40.57789194
1.87000,-51.87008503
1.87050,-58.88955641
1.87100,-45.46100247
1.87150,-16.77272814
1.87200,7.94801888
1.87250,17.40904552
1.87300,14.05190703
1.87350,9.168796511
1.87400,16.18826789
1.87450,36.94148761
1.87500,58.30509615
1.87550,61.96742904
1.87600,46.70770866
1.87650,22.59735045
1.87700,-3.344174205
1.87750,-32.33764294
1.87800,-54.31164029
1.87850,-55.22722351
1.87900,-37.83114227
1.87950,-23.48700511
1.88000,-22.8766163
1.88050,-25.62336597
1.88100,-22.26622748
1.88150,-20.74025544
1.88200,-29.89608767
1.88250,-43.93503043
1.88300,-54.6168347
1.88350,-60.11033404
1.88400,-56.75319555
1.88450,-40.57789194
1.88500,-21.35064426
1.88550,-17.68831137
1.88600,-26.53894919
1.88650,-19.51947781
1.88700,18.93501756
1.88750,66.24015075
1.88800,89.12973133
1.88850,81.19467673
1.88900,58.91548497
1.88950,34.49993235
1.89000,12.22074059
1.89050,-0.9026189429
1.89100,0.01296428019
1.89150,9.473990919
1.89200,20.766184
1.89250,34.80512676
1.89300,53.42198563
1.89350,65.62976194
1.89400,57.99990174
1.89450,32.6687659
1.89500,4.590880396
1.89550,-17.07792255
1.89600,-33.55842057
1.89650,-43.32464161
1.89700,-42.7142528
1.89750,-34.16880938
1.89800,-29.59089327
1.89850,-35.08439261
1.89900,-44.54541924
1.89950,-46.07139128
1.90000,-38.44153109
1.90050,-30.8116709
1.90100,-31.11686531
1.90150,-37.22075346
1.90200,-39.66230872
1.90250,-32.94803175
1.90300,-21.04544985
1.90350,-10.66883999
1.90400,-6.396118282
1.90450,-8.532479135
1.90500,-15.2467561
1.90550,-22.26622748
1.90600,-25.01297715
1.90650,-23.18181071
1.90700,-20.74025544
1.90750,-16.77272814
1.90800,-7.616895912
1.90850,8.558407696
1.90900,25.64929453
1.90950,37.24668202
1.91000,39.68823728
1.91050,30.53240505
1.91100,9.168796511
1.91150,-16.77272814
1.91200,-33.55842057
1.91250,-33.86361497
1.91300,-22.26622748
1.91350,-7.311701505
1.91400,6.422046842
1.91450,18.32462874
1.91500,26.56487775
1.91550,35.11032117
1.91600,51.59081918
1.91650,76.0063718
1.91700,97.06478593
1.91750,104.3894517
1.91800,99.8115356
1.91850,90.04531455
1.91900,75.09078857
1.91950,51.28562477
1.92000,20.4609896
1.92050,-12.50000644
1.92100,-46.37658569
1.92150,-77.20122087
1.92200,-97.64924618
1.92250,-103.7531343
1.92300,-100.3959959
1.92350,-92.15574685
1.92400,-74.14927679
1.92450,-38.44153109
1.92500,10.38957414
1.92550,54.64276326
1.92600,79.36351028
1.92650,83.63623199
1.92700,78.14273265
1.92750,72.34403891
1.92800,70.20767805
1.92850,68.98690042
1.92900,67.46092838
1.92950,68.68170601
1.93000,78.44792706
1.93050,93.40245304
1.93100,100.4219244
1.93150,89.12973133
1.93200,64.40898431
1.93250,43.65576458
1.93300,38.16226524
1.93350,40.6038205
1.93400,32.97396031
1.93450,6.116852434
1.93500,-32.33764294
1.93550,-66.21422219
1.93600,-86.96744191
1.93650,-94.59730211
1.93700,-92.76613566
1.93750,-84.83108106
1.93800,-77.50641528
1.93850,-76.59083205
1.93900,-75.98044324
1.93950,-61.94150048
1.94000,-32.33764294
1.94050,-3.95456302
1.94100,7.642824473
1.94150,8.558407696
1.94200,12.8311294
1.94250,18.32462874
1.94300,12.22074059
1.94350,-2.733785389
1.94400,-6.396118282
1.94450,14.66229585
1.94500,50.37004155
1.94550,82.72064877
1.94600,104.3894517
1.94650,116.2920336
1.94700,115.9868392
1.94750,101.0323132
1.94800,75.39598298
1.94850,45.18173662
1.94900,9.168796511
1.94950,-35.08439261
1.95000,-83.30510902
1.95050,-121.1492156
1.95100,-142.5128241
1.95150,-150.7530731
1.95200,-150.7530731
1.95250,-141.9024353
1.95300,-125.7271317
1.95350,-108.9414393
1.95400,-95.20769092
1.95450,-79.94797054
1.95500,-57.97397318
1.95550,-32.33764294
1.95600,-9.448062359
1.95650,7.642824473
1.95700,21.37657282
1.95750,29.31162742
1.95800,27.78565538
1.95850,19.54540637
1.95900,12.8311294
1.95950,10.38957414
1.96000,7.94801888
1.96050,1.844130726
1.96100,-5.785729466
1.96150,-12.80520084
1.96200,-19.82467222
1.96250,-26.53894919
1.96300,-25.31817156
1.96350,-10.66883999
1.96400,11.91554618
1.96450,30.22721064
1.96500,36.3310988
1.96550,36.02590439
1.96600,37.85707084
1.96650,41.21420932
1.96700,39.68823728
1.96750,32.97396031
1.96800,25.34410012
1.96850,17.40904552
1.96900,3.98049158
1.96950,-14.63636729
1.97000,-32.94803175
1.97050,-50.34411299
1.97100,-71.09733271
1.97150,-89.40899718
1.97200,-89.40899718
1.97250,-73.53888798
1.97300,-67.43499982
1.97350,-85.13627547
1.97400,-99.17521822
1.97450,-72.92849916
1.97500,-17.68831137
1.97550,17.10385111
1.97600,11.30515737
1.97650,-5.175340651
1.97700,0.01296428019
1.97750,18.01943433
1.97800,21.68176723
1.97850,9.779185327
1.97900,3.064908357
1.97950,10.08437973
1.98000,22.59735045
1.98050,33.27915472
1.98100,40.90901491
1.98150,46.09731984
1.98200,51.28562477
1.98250,65.62976194
1.98300,92.18167541
1.98350,115.3764504
1.98400,118.1232001
1.98450,103.7790629
1.98500,91.26609218
1.98550,87.60375929
1.98600,81.80506554
1.98650,65.93495634
1.98700,45.79212544
1.98750,30.22721064
1.98800,20.15579519
1.98850,11.61035177
1.98900,0.6233530956
1.98950,-14.33117288
1.99000,-32.94803175
1.99050,-48.81814095
1.99100,-57.36358437
1.99150,-58.27916759
1.99200,-52.17527944
1.99250,-38.13633668
1.99300,-16.77272814
1.99350,2.149325134
1.99400,10.69476855
1.99450,11.61035177
1.99500,11.61035177
1.99550,9.473990919
1.99600,-0.5974245352
1.99650,-16.46753374
1.99700,-28.98050445
1.99750,-35.99997583
1.99800,-42.7142528
1.99850,-48.81814095
1.99900,-48.81814095
1.99950,-43.32464161
2.00000,-36.61036464
2.00050,-26.53894919
2.00100,-4.259757428
2.00150,24.12332249
2.00200,41.21420932
2.00250,36.94148761
2.00300,27.78565538
2.00350,34.19473794
2.00400,57.99990174
2.00450,82.41545436
2.00500,96.45439711
2.00550,104.6946461
2.00600,116.597228
2.00650,135.2140869
2.00700,153.8309458
2.00750,160.8504171
2.00800,148.9478352
2.00850,119.0387833
2.00900,79.36351028
2.00950,38.46745965
2.01000,-0.2922301275
2.01050,-36.61036464
2.01100,-71.09733271
2.01150,-103.7531343
2.01200,-136.1037416
2.01250,-166.0127935
2.01300,-190.1231517
2.01350,-205.6880665
2.01400,-215.1490931
2.01450,-220.9477869
2.01500,-222.4737589
2.01550,-216.9802596
2.01600,-203.2465112
2.01650,-181.2725139
2.01700,-148.6167123
2.01750,-104.3635232
2.01800,-54.31164029
2.01850,-9.142867951
2.01900,29.00643301
2.01950,67.46092838
2.02000,106.2206182
2.02050,131.8569484
2.02100,130.9413652
2.02150,109.2725622
2.02200,86.07778725
2.02250,70.81806687
2.02300,58.91548497
2.02350,47.92848629
2.02400,46.70770866
2.02450,60.44145701
2.02500,80.58428791
2.02550,93.09725863
2.02600,97.06478593
2.02650,100.7271188
2.02700,104.0842573
2.02750,97.67517474
2.02800,76.92195502
2.02850,53.11679122
2.02900,41.82459814
2.02950,43.96095899
2.03000,46.70770866
2.03050,40.90901491
2.03100,30.53240505
2.03150,22.90254486
2.03200,12.8311294
2.03250,-8.837673543
2.03300,-43.32464161
2.03350,-79.33758172
2.03400,-106.1946896
2.03450,-122.3699932
2.03500,-131.220631
2.03550,-134.2725751
2.03600,-131.8310198
2.03650,-125.4219373
2.03700,-114.740133
2.03750,-95.20769092
2.03800,-63.77266693
2.03850,-25.01297715
2.03900,10.99996296
2.03950,35.72070998
2.04000,45.18173662
2.04050,39.68823728
2.04100,22.29215604
2.04150,-4.259757428
2.04200,-37.52594787
2.04250,-69.26616627
2.04300,-90.3245804
2.04350,-98.259635
2.04400,-100.0908014
2.04450,-103.7531343
2.04500,-108.025856
2.04550,-109.5518281
2.04600,-107.1102728
2.04650,-95.51288533
2.04700,-68.04538864
2.04750,-26.53894919
2.04800,11.91554618
2.04850,33.88954354
2.04900,45.79212544
2.04950,63.18820667
2.05000,85.77259284
2.05050,99.8115356
2.05100,101.642702
2.05150,104.0842573
2.05200,116.9024224
2.05250,131.2465596
2.05300,133.3829204
2.05350,121.1751441
2.05400,103.1686741
2.05450,85.77259284
2.05500,68.68170601
2.05550,49.14926392
2.05600,26.25968334
2.05650,2.454519542
2.05700,-17.38311696
2.05750,-32.33764294
2.05800,-44.85061365
2.05850,-57.36358437
2.05900,-68.96097186
2.05950,-77.81160968
2.06000,-80.55835935
2.06050,-75.37005442
2.06100,-63.77266693
2.06150,-55.83761233
2.06200,-59.49994522
2.06250,-64.38305574
2.06300,-48.20775214
2.06350,-6.090923874
2.06400,35.11032117
2.06450,50.06484714
2.06500,45.79212544
2.06550,50.06484714
2.06600,68.68170601
2.06650,76.92195502
2.06700,60.1362626
2.06750,34.19473794
2.06800,21.98696163
2.06850,22.90254486
2.06900,21.68176723
2.06950,16.18826789
2.07000,18.62982315
2.07050,33.58434913
2.07100,47.62329188
2.07150,47.92848629
2.07200,37.85707084
2.07250,27.78565538
2.07300,20.4609896
2.07350,12.22074059
2.07400,4.590880396
2.07450,3.370102765
2.07500,9.779185327
2.07550,18.32462874
2.07600,25.34410012
2.07650,36.3310988
2.07700,53.42198563
2.07750,66.85053957
2.07800,63.79859549
2.07850,45.48693103
2.07900,28.3960442
2.07950,25.34410012
2.08000,35.11032117
2.08050,48.2336807
2.08100,53.42198563
2.08150,45.48693103
2.08200,25.03890571
2.08250,3.675297173
2.08300,-8.532479135
2.08350,-12.50000644
2.08400,-14.63636729
2.08450,-12.19481203
2.08500,2.75971395
2.08550,31.44798827
2.08600,63.79859549
2.08650,91.57128659
2.08700,109.8829511
2.08750,110.4933399
2.08800,86.68817607
2.08850,51.28562477
2.08900,30.22721064
2.08950,31.14279387
2.09000,32.6687659
2.09050,15.57787907
2.09100,-14.02597847
2.09150,-41.18828076
2.09200,-63.77266693
2.09250,-86.05185869
2.09300,-101.9219679
2.09350,-103.4479399
2.09400,-94.59730211
2.09450,-85.13627547
2.09500,-74.4544712
2.09550,-57.36358437
2.09600,-38.44153109
2.09650,-27.45453241
2.09700,-21.04544985
2.09750,-9.142867951
2.09800,9.779185327
2.09850,29.61682183
2.09900,49.75965274
2.09950,74.17520535
2.10000,96.14920271
2.10050,99.50634119
2.10100,79.66870469
2.10150,50.67523596
2.10200,28.3960442
2.10250,14.35710144
2.10300,5.201269211
2.10350,6.116852434
2.10400,25.03890571
2.10450,55.25315207
2.10500,77.22714943
2.10550,79.9738991
2.10600,70.20767805
2.10650,59.52587378
2.10700,48.2336807
2.10750,29.00643301
2.10800,-1.207813351
2.10850,-40.27269754
2.10900,-81.47394258
2.10950,-117.1816883
2.11000,-134.2725751
2.11050,-126.9479093
2.11100,-108.025856
2.11150,-99.48041263
2.11200,-108.6362449
2.11250,-119.6232435
2.11300,-116.2661051
2.11350,-97.64924618
2.11400,-75.98044324
2.11450,-59.80513963
2.11500,-50.95450181
2.11550,-45.76619688
2.11600,-37.22075346
2.11650,-20.43506104
2.11700,-3.95456302
2.11750,-2.123396574
2.11800,-17.68831137
2.11850,-34.47400379
2.11900,-36.91555905
2.11950,-26.23375478
2.12000,-14.63636729
2.12050,-4.870146243
2.12100,9.168796511
2.12150,31.14279387
2.12200,57.99990174
2.12250,84.24662081
2.12300,101.642702
2.12350,100.4219244
2.12400,76.0063718
2.12450,36.94148761
2.12500,-2.733785389
2.12550,-34.47400379
2.12600,-54.00644588
2.12650,-56.14280674
2.12700,-43.93503043
2.12750,-32.33764294
2.12800,-38.44153109
2.12850,-60.41552844
2.12900,-78.11680409
2.12950,-76.89602646
2.13000,-56.75319555
2.13050,-25.31817156
2.13100,9.473990919
2.13150,38.77265406
2.13200,53.11679122
2.13250,55.86354089
2.13300,56.4739297
2.13350,56.77912411
2.13400,45.79212544
2.13450,19.85060078
2.13500,-6.396118282
2.13550,-15.85714492
2.13600,-8.532479135
2.13650,1.233741911
2.13700,5.201269211
2.13750,6.422046842
2.13800,11.30515737
2.13850,21.68176723
2.13900,35.41551557
2.13950,48.2336807
2.14000,56.1687353
2.14050,57.69470734
2.14100,54.64276326
2.14150,50.98043037
2.14200,49.14926392
2.14250,50.37004155
2.14300,52.201208
2.14350,52.201208
2.14400,56.4739297
2.14450,77.22714943
2.14500,114.1556728
2.14550,141.6231695
2.14600,127.8894211
2.14650,67.76612279
2.14700,-10.9740344
2.14750,-74.14927679
2.14800,-108.3310505
2.14850,-119.0128547
2.14900,-116.2661051
2.14950,-105.5843008
2.15000,-86.05185869
2.15050,-54.31164029
2.15100,-10.66883999
2.15150,34.49993235
2.15200,68.98690042
2.15250,84.55181521
2.15300,76.92195502
2.15350,45.79212544
2.15400,-0.2922301275
2.15450,-42.10386398
2.15500,-64.38305574
2.15550,-72.92849916
2.15600,-83.91549784
2.15650,-98.87002382
2.15700,-105.2791064
2.15750,-99.78560704
2.15800,-91.54535803
2.15850,-83.61030343
2.15900,-65.29863897
2.15950,-32.94803175
2.16000,-0.2922301275
2.16050,19.24021197
2.16100,31.75318268
2.16150,46.09731984
2.16200,58.30509615
2.16250,59.22067937
2.16300,49.45445833
2.16350,34.80512676
2.16400,16.18826789
2.16450,-7.006507097
2.16500,-27.45453241
2.16550,-37.52594787
2.16600,-43.93503043
2.16650,-57.97397318
2.16700,-73.23369357
2.16750,-68.04538864
2.16800,-33.25322616
2.16850,14.66229585
2.16900,54.03237444
2.16950,78.75312147
2.17000,93.40245304
2.17050,98.59075797
2.17100,91.876481
2.17150,77.22714943
2.17200,62.27262345
2.17250,50.06484714
2.17300,40.90901491
2.17350,37.85707084
2.17400,40.2986261
2.17450,36.6362932
2.17500,14.96749026
2.17550,-17.07792255
2.17600,-37.83114227
2.17650,-38.44153109
2.17700,-33.86361497
2.17750,-39.96750313
2.17800,-50.95450181
2.17850,-52.78566825
2.17900,-44.24022484
2.17950,-35.99997583
2.18000,-29.59089327
2.18050,-20.43506104
2.18100,-10.36364558
2.18150,-10.66883999
2.18200,-21.04544985
2.18250,-24.70778274
2.18300,-11.58442321
2.18350,7.337630065
2.18400,15.27268467
2.18450,11.91554618
2.18500,9.779185327
2.18550,15.27268467
2.18600,23.81812808
2.18650,32.97396031
2.18700,44.2661534
2.18750,55.86354089
2.18800,60.74665141
2.18850,55.55834648
2.18900,43.04537577
2.18950,25.03890571
2.19000,0.6233530956
2.19050,-24.70778274
2.19100,-42.40905839
2.19150,-49.42852977
2.19200,-52.48047384
2.19250,-54.00644588
2.19300,-48.51294654
2.19350,-34.47400379
2.19400,-19.21428341
2.19450,-7.311701505
2.19500,4.285685988
2.19550,17.40904552
2.19600,27.78565538
2.19650,38.77265406
2.19700,64.1037899
2.19750,108.9673678
2.19800,158.1036675
2.19850,194.1166076
2.19900,217.9217714
2.19950,235.0126582
2.20000,238.6749911
2.20050,220.9737155
2.20100,190.7594691
2.20150,165.1231388
2.20200,144.6751135
2.20250,118.1232001
2.20300,91.57128659
2.20350,84.85700962
2.20400,98.28556356
2.20450,103.1686741
2.20500,75.70117739
2.20550,27.17526657
2.20600,-17.68831137
2.20650,-57.66877878
2.20700,-105.5843008
2.20750,-158.0777389
2.20800,-192.564707
2.20850,-200.4997616
2.20900,-199.5841784
2.20950,-203.2465112
2.21000,-197.1426231
2.21050,-158.0777389
2.21100,-93.68171888
2.21150,-37.52594787
2.21200,-11.2792288
2.21250,-8.532479135
2.21300,-14.02597847
2.21350,-20.43506104
2.21400,-25.31817156
2.21450,-22.8766163
2.21500,-16.77272814
2.21550,-21.35064426
2.21600,-42.10386398
2.21650,-64.07786134
2.21700,-68.96097186
2.21750,-59.19475081
2.21800,-52.17527944
2.21850,-54.6168347
2.21900,-56.44800114
2.21950,-48.20775214
2.22000,-35.69478142
2.22050,-29.28569886
2.22100,-31.11686531
2.22150,-30.8116709
2.22200,-18.909089
2.22250,-1.818202166
2.22300,2.75971395
2.22350,-10.66883999
2.22400,-29.28569886
2.22450,-37.52594787
2.22500,-39.66230872
2.22550,-51.87008503
2.22600,-72.92849916
2.22650,-86.96744191
2.22700,-87.27263632
2.22750,-84.52588665
2.22800,-86.66224751
2.22850,-85.44146988
2.22900,-70.4869439
2.22950,-43.01944721
2.23000,-11.88961762
2.23050,20.4609896
2.23100,54.64276326
2.23150,86.07778725
2.23200,106.831007
2.23250,113.8504784
2.23300,110.7985343
2.23350,107.4413958
2.23400,112.0193119
2.23450,120.2595609
2.23500,115.071256
2.23550,83.9414264
2.23600,38.16226524
2.23650,2.75971395
2.23700,-14.9415617
2.23750,-31.11686531
2.23800,-59.80513963
2.23850,-95.20769092
2.23900,-122.3699932
2.23950,-137.0193248
2.24000,-146.4803514
2.24050,-154.1102116
2.24100,-154.1102116
2.24150,-139.7660744
2.24200,-111.9933833
2.24250,-80.86355376
2.24300,-58.584362
2.24350,-49.73372418
2.24400,-46.98697451
2.24450,-39.05191991
2.24500,-24.40258834
2.24550,-10.05845117
2.24600,2.149325134
2.24650,17.71423993
2.24700,38.77265406
2.24750,55.86354089
2.24800,57.08431852
2.24850,39.99343169
2.24900,13.44151822
2.24950,-13.41558966
2.25000,-34.47400379
2.25050,-43.32464161
2.25100,-38.7467255
2.25150,-27.75972682
2.25200,-21.35064426
2.25250,-24.09739393
2.25300,-30.8116709
2.25350,-35.69478142
2.25400,-36.61036464
2.25450,-34.16880938
2.25500,-27.75972682
2.25550,-17.68831137
2.25600,-6.701312689
2.25650,0.6233530956
2.25700,4.896074803
2.25750,7.032435657
2.25800,8.253213288
2.25850,9.168796511
2.25900,10.99996296
2.25950,13.74671263
2.26000,18.62982315
2.26050,26.56487775
2.26100,37.24668202
2.26150,47.31809747
2.26200,53.11679122
2.26250,52.81159681
2.26300,47.92848629
2.26350,39.07784847
2.26400,28.3960442
2.26450,19.54540637
2.26500,16.4934623
2.26550,20.766184
2.26600,30.53240505
2.26650,42.43498695
2.26700,52.201208
2.26750,53.72718004
2.26800,45.48693103
2.26850,33.58434913
2.26900,31.44798827
2.26950,47.92848629
2.27000,79.36351028
2.27050,109.8829511
2.27100,122.7011162
2.27150,112.0193119
2.27200,89.74012014
2.27250,73.87001094
2.27300,74.48039976
2.27350,85.46739844
2.27400,93.40245304
2.27450,91.57128659
2.27500,83.33103758
2.27550,74.48039976
2.27600,67.15573397
2.27650,57.38951293
2.27700,40.2986261
2.27750,15.57787907
2.27800,-10.9740344
2.27850,-35.69478142
2.27900,-61.63630608
2.27950,-97.03885737
2.28000,-141.9024353
2.28050,-181.5777083
2.28100,-199.5841784
2.28150,-194.7010678
2.28200,-179.4413474
2.28250,-165.7075991
2.28300,-152.889434
2.28350,-136.408936
2.28400,-117.7920771
2.28450,-104.6687176
2.28500,-102.5323567
2.28550,-105.2791064
2.28600,-101.3115791
2.28650,-84.22069225
2.28700,-65.90902778
2.28750,-67.43499982
2.28800,-91.24016362
2.28850,-109.5518281
2.28900,-91.24016362
2.28950,-37.83114227
2.29000,15.57787907
2.29050,42.74018136
2.29100,46.09731984
2.29150,41.82459814
2.29200,36.02590439
2.29250,27.48046097
2.29300,20.4609896
2.29350,19.85060078
2.29400,19.54540637
2.29450,9.168796511
2.29500,-9.142867951
2.29550,-23.48700511
2.29600,-22.57142189
2.29650,-7.616895912
2.29700,8.863602104
2.29750,16.7986567
2.29800,16.18826789
2.29850,20.766184
2.29900,38.46745965
2.29950,55.55834648
2.30000,51.59081918
2.30050,29.92201623
2.30100,18.93501756
2.30150,35.72070998
2.30200,61.96742904
2.30250,70.20767805
2.30300,62.27262345
2.30350,59.83106819
2.30400,72.0388445
2.30450,86.68817607
2.30500,91.57128659
2.30550,86.99337048
2.30600,78.14273265
2.30650,69.59728924
2.30700,65.32456753
2.30750,63.79859549
2.30800,55.25315207
2.30850,35.11032117
2.30900,17.10385111
2.30950,20.766184
2.31000,45.18173662
2.31050,69.59728924
2.31100,80.58428791
2.31150,81.80506554
2.31200,80.88948232
2.31250,76.0063718
2.31300,65.62976194
2.31350,54.03237444
2.31400,42.74018136
2.31450,27.78565538
2.31500,9.473990919
2.31550,-7.616895912
2.31600,-27.75972682
2.31650,-59.80513963
2.31700,-99.17521822
2.31750,-128.168687
2.31800,-139.46088
2.31850,-144.0387962
2.31900,-147.0907402
2.31950,-132.7466031
2.32000,-92.15574685
2.32050,-44.85061365
2.32100,-13.11039525
2.32150,7.94801888
2.32200,36.02590439
2.32250,65.32456753
2.32300,76.0063718
2.32350,68.37651161
2.32400,62.27262345
2.32450,62.27262345
2.32500,53.11679122
2.32550,29.31162742
2.32600,7.94801888
2.32650,2.75971395
2.32700,5.811658027
2.32750,4.590880396
2.32800,2.149325134
2.32850,5.506463619
2.32900,9.473990919
2.32950,5.811658027
2.33000,-0.5974245352
2.33050,-2.733785389
2.33100,-3.649368612
2.33150,-12.80520084
2.33200,-28.37011564
2.33250,-37.52594787
2.33300,-34.7791982
2.33350,-25.31817156
2.33400,-17.07792255
2.33450,-13.41558966
2.33500,-14.63636729
2.33550,-20.74025544
2.33600,-28.06492123
2.33650,-29.59089327
2.33700,-24.70778274
2.33750,-21.65583867
2.33800,-28.67531004
2.33850,-47.90255773
2.33900,-76.28563765
2.33950,-105.2791064
2.34000,-121.7596044
2.34050,-116.5712995
2.34100,-97.64924618
2.34150,-85.44146988
2.34200,-85.44146988
2.34250,-74.75966561
2.34300,-32.64283734
2.34350,24.4285169
2.34400,57.08431852
2.34450,50.67523596
2.34500,31.44798827
2.34550,27.48046097
2.34600,33.27915472
2.34650,26.56487775
2.34700,4.896074803
2.34750,-13.72078407
2.34800,-20.12986663
2.34850,-20.74025544
2.34900,-16.46753374
2.34950,3.064908357
2.35000,38.77265406
2.35050,72.34403891
2.35100,89.43492574
2.35150,95.8440083
2.35200,102.8634797
2.35250,102.8634797
2.35300,82.11025995
2.35350,45.79212544
2.35400,17.71423993
2.35450,10.38957414
2.35500,11.61035177
2.35550,7.642824473
2.35600,1.538936319
2.35650,1.233741911
2.35700,0.6233530956
2.35750,-9.448062359
2.35800,-24.40258834
2.35850,-28.98050445
2.35900,-21.96103307
2.35950,-18.60389459
2.36000,-31.72725412
2.36050,-58.27916759
2.36100,-83.30510902
2.36150,-93.68171888
2.36200,-84.22069225
2.36250,-63.46747252
2.36300,-46.6817801
2.36350,-40.57789194
2.36400,-34.7791982
2.36450,-19.51947781
2.36500,-0.9026189429
2.36550,9.168796511
2.36600,12.22074059
2.36650,22.29215604
2.36700,43.96095899
2.36750,67.46092838
2.36800,82.11025995
2.36850,84.24662081
2.36900,75.39598298
2.36950,58.91548497
2.37000,42.12979254
2.37050,32.97396031
2.37100,32.97396031
2.37150,40.2986261
2.37200,53.11679122
2.37250,64.71417871
2.37300,66.24015075
2.37350,56.1687353
2.37400,45.48693103
2.37450,41.82459814
2.37500,41.82459814
2.37550,36.94148761
2.37600,27.17526657
2.37650,14.05190703
2.37700,-1.207813351
2.37750,-16.77272814
2.37800,-29.28569886
2.37850,-43.62983602
2.37900,-69.26616627
2.37950,-97.95444059
2.38000,-107.1102728
2.38050,-89.40899718
2.38100,-66.5194166
2.38150,-54.31164029
2.38200,-35.08439261
2.38250,14.96749026
2.38300,88.21414811
2.38350,146.2010856
2.38400,156.8828898
2.38450,121.4803385
2.38500,67.76612279
2.38550,29.61682183
2.38600,21.68176723
2.38650,29.31162742
2.38700,24.4285169
2.38750,3.675297173
2.38800,-13.11039525
2.38850,-15.55195051
2.38900,-18.909089
2.38950,-37.52594787
2.39000,-60.11033404
2.39050,-67.74019423
2.39100,-60.72072285
2.39150,-50.34411299
2.39200,-39.66230872
2.39250,-27.75972682
2.39300,-17.99350577
2.39350,-8.227284728
2.39400,11.91554618
2.39450,46.40251425
2.39500,78.14273265
2.39550,92.18167541
2.39600,94.01284185
2.39650,93.70764744
2.39700,85.77259284
2.39750,63.18820667
2.39800,36.02590439
2.39850,20.15579519
2.39900,16.7986567
2.39950,16.18826789
2.40000,18.32462874
2.40050,27.17526657
2.40100,36.6362932
2.40150,40.2986261
2.40200,47.31809747
2.40250,71.73365009
2.40300,106.5258126
2.40350,130.025782
2.40400,136.1296701
2.40450,138.8764198
2.40500,144.0647247
2.40550,136.7400589
2.40600,106.831007
2.40650,65.32456753
2.40700,32.97396031
2.40750,17.40904552
2.40800,12.22074059
2.40850,7.032435657
2.40900,-4.259757428
2.40950,-21.35064426
2.41000,-31.11686531
2.41050,-20.74025544
2.41100,3.064908357
2.41150,17.40904552
2.41200,10.99996296
2.41250,-6.396118282
2.41300,-25.31817156
2.41350,-50.03891858
2.41400,-81.77913698
2.41450,-104.0583287
2.41500,-106.1946896
2.41550,-106.8050784
2.41600,-123.5907708
2.41650,-136.7141304
2.41700,-108.6362449
2.41750,-40.27269754
2.41800,21.07137841
2.41850,37.85707084
2.41900,21.37657282
2.41950,6.422046842
2.42000,7.032435657
2.42050,14.66229585
2.42100,20.4609896
2.42150,25.03890571
2.42200,28.09084979
2.42250,28.3960442
2.42300,29.00643301
2.42350,33.27915472
2.42400,34.49993235
2.42450,26.25968334
2.42500,14.35710144
2.42550,13.74671263
2.42600,29.61682183
2.42650,48.5388751
2.42700,54.33756885
2.42750,46.70770866
2.42800,37.55187643
2.42850,33.27915472
2.42900,28.7012386
2.42950,16.18826789
2.43000,-1.818202166
2.43050,-18.29870018
2.43100,-29.89608767
2.43150,-38.44153109
2.43200,-44.54541924
2.43250,-49.73372418
2.43300,-55.53241792
2.43350,-60.41552844
2.43400,-56.44800114
2.43450,-38.7467255
2.43500,-15.2467561
2.43550,1.538936319
2.43600,10.08437973
2.43650,18.93501756
2.43700,33.58434913
2.43750,47.62329188
2.43800,53.11679122
2.43850,49.75965274
2.43900,43.65576458
2.43950,40.90901491
2.44000,43.65576458
2.44050,48.84406951
2.44100,49.45445833
2.44150,40.2986261
2.44200,23.51293367
2.44250,3.98049158
2.44300,-15.85714492
2.44350,-38.7467255
2.44400,-67.43499982
2.44450,-104.6687176
2.44500,-151.0582675
2.44550,-196.5322343
2.44600,-219.1166204
2.44650,-200.1945672
2.44700,-149.2271011
2.44750,-94.2921077
2.44800,-54.31164029
2.44850,-22.8766163
2.44900,13.74671263
2.44950,52.81159681
2.45000,79.36351028
2.45050,85.16220403
2.45100,75.39598298
2.45150,58.30509615
2.45200,42.12979254
2.45250,32.6687659
2.45300,31.44798827
2.45350,30.83759946
2.45400,26.25968334
2.45450,24.12332249
2.45500,33.88954354
2.45550,50.06484714
2.45600,55.86354089
2.45650,42.74018136
2.45700,20.4609896
2.45750,3.98049158
2.45800,-1.818202166
2.45850,-2.428590981
2.45900,-5.480535058
2.45950,-16.46753374
2.46000,-33.25322616
2.46050,-43.32464161
2.46100,-36.61036464
2.46150,-19.82467222
2.46200,-9.142867951
2.46250,-5.480535058
2.46300,3.675297173
2.46350,19.24021197
2.46400,24.12332249
2.46450,10.69476855
2.46500,-6.701312689
2.46550,-17.07792255
2.46600,-30.20128208
2.46650,-56.14280674
2.46700,-81.47394258
2.46750,-82.3895258
2.46800,-55.53241792
2.46850,-19.51947781
2.46900,9.779185327
2.46950,28.3960442
2.47000,35.11032117
2.47050,31.44798827
2.47100,28.7012386
2.47150,36.3310988
2.47200,50.37004155
2.47250,59.83106819
2.47300,64.71417871
2.47350,72.34403891
2.47400,82.72064877
2.47450,87.29856488
2.47500,82.72064877
2.47550,73.25962213
2.47600,58.61029056
2.47650,34.80512676
2.47700,7.94801888
2.47750,-8.532479135
2.47800,-11.88961762
2.47850,-12.50000644
2.47900,-18.29870018
2.47950,-24.70778274
2.48000,-25.31817156
2.48050,-23.48700511
2.48100,-21.04544985
2.48150,-10.36364558
2.48200,13.44151822
2.48250,40.2986261
2.48300,51.28562477
2.48350,43.04537577
2.48400,31.14279387
2.48450,29.92201623
2.48500,36.02590439
2.48550,32.97396031
2.48600,13.13632381
2.48650,-13.72078407
2.48700,-33.25322616
2.48750,-40.57789194
2.48800,-45.15580806
2.48850,-53.70125148
2.48900,-60.72072285
2.48950,-55.53241792
2.49000,-37.83114227
2.49050,-18.909089
2.49100,-10.9740344
2.49150,-16.77272814
2.49200,-28.98050445
2.49250,-35.08439261
2.49300,-27.14933801
2.49350,-10.05845117
2.49400,4.285685988
2.49450,13.13632381
2.49500,27.17526657
2.49550,55.86354089
2.49600,90.04531455
2.49650,112.3245063
2.49700,117.2076168
2.49750,112.3245063
2.49800,101.9478965
2.49850,82.72064877
2.49900,56.1687353
2.49950,33.88954354
2.50000,20.15579519
2.50050,8.253213288
2.50100,-5.175340651
2.50150,-14.33117288
2.50200,-16.77272814
2.50250,-18.909089
2.50300,-19.51947781
2.50350,-4.870146243
2.50400,29.92201623
2.50450,66.54534516
2.50500,80.58428791
2.50550,69.29209483
2.50600,49.45445833
2.50650,32.05837709
2.50700,16.7986567
2.50750,1.233741911
2.50800,-11.2792288
2.50850,-16.16233933
2.50900,-12.80520084
2.50950,-3.344174205
2.51000,3.98049158
2.51050,0.3181586879
2.51100,-17.68831137
2.51150,-41.79866957
2.51200,-64.38305574
2.51250,-86.66224751
2.51300,-112.2985778
2.51350,-139.46088
2.51400,-160.8244886
2.51450,-167.5387655
2.51500,-152.5842396
2.51550,-115.9609106
2.51600,-72.92849916
2.51650,-39.66230872
2.51700,-18.909089
2.51750,0.01296428019
2.51800,18.62982315
2.51850,29.92201623
2.51900,34.80512676
2.51950,43.96095899
2.52000,56.1687353
2.52050,56.4739297
2.52100,42.43498695
2.52150,31.75318268
2.52200,31.14279387
2.52250,21.68176723
2.52300,-5.175340651
2.52350,-27.75972682
2.52400,-26.53894919
2.52450,-23.18181071
2.52500,-50.03891858
2.52550,-97.34405178
2.52600,-122.6751876
2.52650,-108.6362449
2.52700,-80.55835935
2.52750,-64.99344456
2.52800,-60.72072285
2.52850,-58.584362
2.52900,-63.16227811
2.52950,-80.25316495
2.53000,-100.7011903
2.53050,-111.3829945
2.53100,-110.7726057
2.53150,-101.6167735
2.53200,-78.72719291
2.53250,-34.7791982
2.53300,21.37657282
2.53350,67.15573397
2.53400,86.99337048
2.53450,88.51934251
2.53500,90.04531455
2.53550,99.50634119
2.53600,107.4413958
2.53650,103.7790629
2.53700,90.65570337
2.53750,80.27909351
2.53800,79.05831587
2.53850,83.63623199
2.53900,86.38298166
2.53950,79.05831587
2.54000,55.25315207
2.54050,11.91554618
2.54100,-42.10386398
2.54150,-93.07133007
2.54200,-131.220631
2.54250,-153.4998228
2.54300,-156.5517669
2.54350,-139.1556856
2.54400,-110.1622169
2.54450,-86.66224751
2.54500,-79.03238731
2.54550,-78.11680409
2.54600,-70.18174949
2.54650,-51.87008503
2.54700,-30.50647649
2.54750,-13.41558966
2.54800,-1.818202166
2.54850,3.675297173
2.54900,3.370102765
2.54950,0.01296428019
2.55000,-3.344174205
2.55050,-3.95456302
2.55100,-4.259757428
2.55150,-2.733785389
2.55200,6.116852434
2.55250,27.48046097
2.55300,54.03237444
2.55350,71.42845568
2.55400,72.0388445
2.55450,63.49340108
2.55500,61.66223464
2.55550,74.48039976
2.55600,94.31803626
2.55650,102.2530909
2.55700,85.16220403
2.55750,48.5388751
2.55800,15.57787907
2.55850,4.590880396
2.55900,8.558407696
2.55950,2.75971395
2.56000,-26.53894919
2.56050,-66.21422219
2.56100,-92.76613566
2.56150,-98.87002382
2.56200,-92.15574685
2.56250,-79.33758172
2.56300,-60.41552844
2.56350,-42.40905839
2.56400,-37.83114227
2.56450,-51.25969621
2.56500,-71.40252712
2.56550,-86.96744191
2.56600,-99.48041263
2.56650,-111.9933833
2.56700,-118.0972715
2.56750,-110.7726057
2.56800,-97.64924618
2.56850,-90.93496921
2.56900,-84.83108106
2.56950,-64.07786134
2.57000,-29.59089327
2.57050,0.3181586879
2.57100,14.96749026
2.57150,27.48046097
2.57200,47.92848629
2.57250,66.54534516
2.57300,70.81806687
2.57350,70.20767805
2.57400,82.41545436
2.57450,105.9154238
2.57500,123.0063106
2.57550,126.0582547
2.57600,126.6686435
2.57650,131.551754
2.57700,131.2465596
2.57750,117.2076168
2.57800,96.75959152
2.57850,83.33103758
2.57900,75.39598298
2.57950,62.57781786
2.58000,44.87654221
2.58050,33.88954354
2.58100,35.11032117
2.58150,36.02590439
2.58200,20.766184
2.58250,-13.41558966
2.58300,-57.36358437
2.58350,-104.973912
2.58400,-155.6361836
2.58450,-202.330928
2.58500,-227.6620639
2.58550,-220.9477869
2.58600,-190.1231517
2.58650,-153.8050172
2.58700,-121.1492156
2.58750,-90.01938599
2.58800,-58.88955641
2.58850,-31.11686531
2.58900,-11.2792288
2.58950,-0.2922301275
2.59000,3.370102765
2.59050,6.422046842
2.59100,14.05190703
2.59150,24.7337113
2.59200,28.3960442
2.59250,20.766184
2.59300,10.38957414
2.59350,8.253213288
2.59400,10.38957414
2.59450,2.149325134
2.59500,-22.26622748
2.59550,-48.51294654
2.59600,-56.44800114
2.59650,-38.7467255
2.59700,-8.837673543
2.59750,8.558407696
2.59800,1.538936319
2.59850,-18.29870018
2.59900,-28.98050445
2.59950,-22.57142189
2.60000,-13.41558966
2.60050,-13.41558966
2.60100,-16.16233933
2.60150,-14.9415617
2.60200,-16.46753374
2.60250,-28.67531004
2.60300,-37.52594787
2.60350,-21.65583867
2.60400,17.40904552
2.60450,52.5064024
2.60500,62.57781786
2.60550,51.89601359
2.60600,37.55187643
2.60650,32.97396031
2.60700,37.24668202
2.60750,39.68823728
2.60800,27.17526657
2.60850,4.285685988
2.60900,-7.616895912
2.60950,0.3181586879
2.61000,5.811658027
2.61050,-14.33117288
2.61100,-45.46100247
2.61150,-49.73372418
2.61200,-26.23375478
2.61250,-13.11039525
2.61300,-25.92856037
2.61350,-30.50647649
2.61400,2.454519542
2.61450,50.06484714
2.61500,68.37651161
2.61550,54.64276326
2.61600,36.6362932
2.61650,25.64929453
2.61700,10.38957414
2.61750,-4.870146243
2.61800,2.454519542
2.61850,35.41551557
2.61900,64.71417871
2.61950,69.29209483
2.62000,57.99990174
2.62050,46.09731984
2.62100,32.3635715
2.62150,15.27268467
2.62200,9.473990919
2.62250,26.25968334
2.62300,52.81159681
2.62350,66.54534516
2.62400,62.88301227
2.62450,55.55834648
2.62500,54.94795767
2.62550,57.99990174
2.62600,55.25315207
2.62650,39.99343169
2.62700,11.91554618
2.62750,-14.9415617
2.62800,-25.31817156
2.62850,-19.21428341
2.62900,-15.2467561
2.62950,-21.96103307
2.63000,-22.57142189
2.63050,-0.2922301275
2.63100,32.3635715
2.63150,46.09731984
2.63200,33.88954354
2.63250,17.71423993
2.63300,14.96749026
2.63350,14.05190703
2.63400,-3.344174205
2.63450,-31.72725412
2.63500,-46.07139128
2.63550,-37.83114227
2.63600,-23.79219952
2.63650,-21.35064426
2.63700,-23.79219952
2.63750,-13.41558966
2.63800,10.69476855
2.63850,32.6687659
2.63900,38.77265406
2.63950,28.3960442
2.64000,8.253213288
2.64050,-17.38311696
2.64100,-42.40905839
2.64150,-61.94150048
2.64200,-75.67524883
2.64250,-79.94797054
2.64300,-64.07786134
2.64350,-25.62336597
2.64400,9.168796511
2.64450,12.8311294
2.64500,-7.006507097
2.64550,-17.38311696
2.64600,-15.55195051
2.64650,-34.16880938
2.64700,-79.64277613
2.64750,-106.499884
2.64800,-77.81160968
2.64850,-25.62336597
2.64900,-5.480535058
2.64950,-21.65583867
2.65000,-32.94803175
2.65050,-18.60389459
2.65100,2.454519542
2.65150,13.74671263
2.65200,21.07137841
2.65250,28.09084979
2.65300,25.64929453
2.65350,12.8311294
2.65400,1.538936319
2.65450,1.844130726
2.65500,13.13632381
2.65550,35.11032117
2.65600,60.44145701
2.65650,65.01937312
2.65700,29.61682183
2.65750,-28.98050445
2.65800,-73.53888798
2.65850,-93.07133007
2.65900,-109.8570225
2.65950,-132.1362143
2.66000,-138.5452968
2.66050,-112.2985778
2.66100,-74.4544712
2.66150,-52.78566825
2.66200,-46.37658569
2.66250,-33.55842057
2.66300,-8.837673543
2.66350,11.91554618
2.66400,21.07137841
2.66450,30.53240505
2.66500,51.59081918
2.66550,73.25962213
2.66600,75.09078857
2.66650,56.4739297
2.66700,41.21420932
2.66750,47.62329188
2.66800,65.01937312
2.66850,67.15573397
2.66900,50.06484714
2.66950,36.3310988
2.67000,44.5713478
2.67050,66.85053957
2.67100,81.80506554
2.67150,78.14273265
2.67200,62.27262345
2.67250,47.62329188
2.67300,47.62329188
2.67350,65.93495634
2.67400,87.9089537
2.67450,92.18167541
2.67500,71.12326127
2.67550,40.2986261
2.67600,18.01943433
2.67650,9.779185327
2.67700,16.4934623
2.67750,39.38304287
2.67800,70.20767805
2.67850,87.29856488
2.67900,78.75312147
2.67950,53.72718004
2.68000,22.59735045
2.68050,-23.18181071
2.68100,-82.99991461
2.68150,-122.980382
2.68200,-108.6362449
2.68250,-56.14280674
2.68300,-17.68831137
2.68350,-16.16233933
2.68400,-25.01297715
2.68450,-18.909089
2.68500,-7.311701505
2.68550,-3.038979797
2.68600,4.285685988
2.68650,23.81812808
2.68700,41.82459814
2.68750,45.79212544
2.68800,48.5388751
2.68850,61.96742904
2.68900,72.0388445
2.68950,65.62976194
2.69000,60.74665141
2.69050,77.83753824
2.69100,94.31803626
2.69150,73.25962213
2.69200,25.64929453
2.69250,2.75971395
2.69300,24.4285169
2.69350,53.72718004
2.69400,53.11679122
2.69450,28.09084979
2.69500,2.454519542
2.69550,-21.65583867
2.69600,-53.70125148
2.69650,-87.57783073
2.69700,-108.3310505
2.69750,-115.3505218
2.69800,-119.6232435
2.69850,-123.2855764
2.69900,-119.3180491
2.69950,-105.5843008
2.70000,-88.49341395
2.70050,-72.31811035
2.70100,-57.05838996
2.70150,-44.54541924
2.70200,-38.13633668
2.70250,-35.69478142
2.70300,-30.20128208
2.70350,-21.96103307
2.70400,-18.60389459
2.70450,-21.35064426
2.70500,-19.82467222
2.70550,-4.870146243
2.70600,18.32462874
2.70650,35.41551557
2.70700,39.38304287
2.70750,36.02590439
2.70800,34.19473794
2.70850,38.77265406
2.70900,50.98043037
2.70950,70.51287246
2.71000,90.96089778
2.71050,104.6946461
2.71100,109.5777566
2.71150,110.4933399
2.71200,110.4933399
2.71250,104.9998405
2.71300,88.21414811
2.71350,59.83106819
2.71400,28.3960442
2.71450,5.201269211
2.71500,-4.259757428
2.71550,-9.142867951
2.71600,-20.12986663
2.71650,-29.89608767
2.71700,-21.04544985
2.71750,3.370102765
2.71800,14.05190703
2.71850,0.3181586879
2.71900,-5.785729466
2.71950,28.09084979
2.72000,80.27909351
2.72050,101.3375076
2.72100,83.63623199
2.72150,64.1037899
2.72200,60.44145701
2.72250,51.89601359
2.72300,30.83759946
2.72350,26.87007216
2.72400,53.11679122
2.72450,75.09078857
2.72500,56.1687353
2.72550,11.61035177
2.72600,-17.99350577
2.72650,-24.40258834
2.72700,-31.72725412
2.72750,-55.22722351
2.72800,-88.49341395
2.72850,-122.3699932
2.72900,-153.8050172
2.72950,-175.7790146
2.73000,-180.0517363
2.73050,-170.5907096
2.73100,-156.2465725
2.73150,-137.0193248
2.73200,-109.2466337
2.73250,-75.98044324
2.73300,-44.85061365
2.73350,-17.68831137
2.73400,6.72724125
2.73450,29.00643301
2.73500,47.62329188
2.73550,63.79859549
2.73600,73.56481654
2.73650,70.20767805
2.73700,58.91548497
2.73750,58.30509615
2.73800,75.09078857
2.73850,90.65570337
2.73900,86.38298166
2.73950,68.68170601
2.74000,55.25315207
2.74050,49.45445833
2.74100,45.18173662
2.74150,44.5713478
2.74200,52.201208
2.74250,60.44145701
2.74300,60.1362626
2.74350,55.86354089
2.74400,57.08431852
2.74450,58.91548497
2.74500,50.67523596
2.74550,37.55187643
2.74600,32.05837709
2.74650,30.22721064
2.74700,21.07137841
2.74750,9.168796511
2.74800,6.422046842
2.74850,4.285685988
2.74900,-14.33117288
2.74950,-43.93503043
2.75000,-63.46747252
2.75050,-71.70772153
2.75100,-83.61030343
2.75150,-96.42846855
2.75200,-90.62977481
2.75250,-68.65577745
2.75300,-50.95450181
2.75350,-39.66230872
2.75400,-16.16233933
2.75450,15.57787907
2.75500,29.61682183
2.75550,23.81812808
2.75600,24.7337113
2.75650,39.07784847
2.75700,43.35057017
2.75750,35.72070998
2.75800,47.62329188
2.75850,83.9414264
2.75900,103.7790629
2.75950,84.24662081
2.76000,56.77912411
2.76050,48.5388751
2.76100,34.80512676
2.76150,-3.649368612
2.76200,-30.50647649
2.76250,-4.564951835
2.76300,46.09731984
2.76350,67.76612279
2.76400,62.27262345
2.76450,74.48039976
2.76500,109.8829511
2.76550,127.2790323
2.76600,109.8829511
2.76650,92.48686981
2.76700,105.9154238
2.76750,138.8764198
2.76800,163.9023612
2.76850,174.2789711
2.76900,175.8049431
2.76950,171.5322214
2.77000,160.8504171
2.77050,143.7595303
2.77100,113.2400895
2.77150,60.74665141
2.77200,-8.532479135
2.77250,-79.64277613
2.77300,-141.5972409
2.77350,-191.0387349
2.77400,-223.6945366
2.77450,-233.1555632
2.77500,-220.6425925
2.77550,-193.4802902
2.77600,-157.4673501
2.77650,-117.1816883
2.77700,-80.55835935
2.77750,-56.44800114
2.77800,-43.62983602
2.77850,-38.13633668
2.77900,-39.35711431
2.77950,-48.81814095
2.78000,-60.41552844
2.78050,-66.21422219
2.78100,-70.18174949
2.78150,-85.13627547
2.78200,-111.3829945
2.78250,-129.0842702
2.78300,-121.7596044
2.78350,-96.73366296
2.78400,-74.4544712
2.78450,-62.5518893
2.78500,-52.48047384
2.78550,-38.13633668
2.78600,-23.18181071
2.78650,-8.532479135
2.78700,14.66229585
2.78750,49.14926392
2.78800,81.80506554
2.78850,98.28556356
2.78900,97.06478593
2.78950,81.49987114
2.79000,49.14926392
2.79050,1.538936319
2.79100,-42.40905839
2.79150,-60.72072285
2.79200,-48.20775214
2.79250,-18.29870018
2.79300,14.96749026
2.79350,44.2661534
2.79400,63.18820667
2.79450,68.68170601
2.79500,64.1037899
2.79550,51.28562477
2.79600,26.56487775
2.79650,-6.396118282
2.79700,-28.37011564
2.79750,-26.23375478
2.79800,-17.38311696
2.79850,-26.8441436
2.79900,-45.46100247
2.79950,-37.22075346
2.80000,6.72724125
2.80050,52.81159681
2.80100,70.20767805
2.80150,69.29209483
2.80200,73.87001094
2.80250,83.02584317
2.80300,79.36351028
2.80350,58.61029056
2.80400,29.00643301
2.80450,-6.090923874
2.80500,-44.24022484
2.80550,-68.35058304
2.80600,-62.5518893
2.80650,-39.96750313
2.80700,-29.28569886
2.80750,-36.61036464
2.80800,-40.27269754
2.80850,-29.28569886
2.80900,-17.68831137
2.80950,-18.29870018
2.81000,-24.09739393
2.81050,-22.57142189
2.81100,-15.2467561
2.81150,-10.05845117
2.81200,-9.448062359
2.81250,-12.19481203
2.81300,-17.68831137
2.81350,-19.82467222
2.81400,-8.532479135
2.81450,12.8311294
2.81500,27.78565538
2.81550,25.03890571
2.81600,12.525935
2.81650,5.201269211
2.81700,6.72724125
2.81750,13.13632381
2.81800,21.98696163
2.81850,33.27915472
2.81900,42.74018136
2.81950,46.70770866
2.82000,43.65576458
2.82050,34.19473794
2.82100,21.68176723
2.82150,9.473990919
2.82200,-2.733785389
2.82250,-20.74025544
2.82300,-41.18828076
2.82350,-49.42852977
2.82400,-38.44153109
2.82450,-22.57142189
2.82500,-21.65583867
2.82550,-35.69478142
2.82600,-54.00644588
2.82650,-74.4544712
2.82700,-94.2921077
2.82750,-94.90249651
2.82800,-64.07786134
2.82850,-22.26622748
2.82900,0.9285475033
2.82950,14.96749026
2.83000,46.09731984
2.83050,84.85700962
2.83100,93.70764744
2.83150,72.64923331
2.83200,61.66223464
2.83250,73.25962213
2.83300,67.76612279
2.83350,19.24021197
2.83400,-42.7142528
2.83450,-79.03238731
2.83500,-91.24016362
2.83550,-98.259635
2.83600,-98.56482941
2.83650,-86.96744191
2.83700,-84.22069225
2.83750,-110.1622169
2.83800,-148.3115179
2.83850,-166.0127935
2.83900,-154.415406
2.83950,-126.3375205
2.84000,-87.88302514
2.84050,-41.79866957
2.84100,-1.818202166
2.84150,22.29215604
2.84200,43.04537577
2.84250,72.34403891
2.84300,98.89595238
2.84350,105.9154238
2.84400,99.20114678
2.84450,97.06478593
2.84500,99.8115356
2.84550,97.36998034
2.84600,90.96089778
2.84650,86.99337048
2.84700,79.9738991
2.84750,65.62976194
2.84800,55.86354089
2.84850,57.38951293
2.84900,49.75965274
2.84950,17.10385111
2.85000,-18.909089
2.85050,-28.67531004
2.85100,-26.23375478
2.85150,-52.78566825
2.85200,-107.7206616
2.85250,-143.4284073
2.85300,-135.7985471
2.85350,-115.3505218
2.85400,-112.2985778
2.85450,-106.499884
2.85500,-63.77266693
2.85550,6.72724125
2.85600,65.01937312
2.85650,93.40245304
2.85700,105.6102293
2.85750,112.9348951
2.85800,108.6621734
2.85850,85.46739844
2.85900,47.31809747
2.85950,-1.513007758
2.86000,-55.53241792
2.86050,-99.48041263
2.86100,-116.5712995
2.86150,-111.0778001
2.86200,-102.2271623
2.86250,-96.12327415
2.86300,-82.08433139
2.86350,-56.44800114
2.86400,-38.7467255
2.86450,-42.7142528
2.86500,-55.83761233
2.86550,-58.88955641
2.86600,-55.83761233
2.86650,-70.18174949
2.86700,-103.4479399
2.86750,-127.8634925
2.86800,-118.0972715
2.86850,-83.91549784
2.86900,-54.92202911
2.86950,-41.79866957
2.87000,-30.20128208
2.87050,-4.870146243
2.87100,27.78565538
2.87150,53.11679122
2.87200,62.88301227
2.87250,57.99990174
2.87300,40.6038205
2.87350,18.32462874
2.87400,6.72724125
2.87450,15.27268467
2.87500,31.75318268
2.87550,38.16226524
2.87600,31.14279387
2.87650,21.68176723
2.87700,11.61035177
2.87750,-7.616895912
2.87800,-35.08439261
2.87850,-51.87008503
2.87900,-45.46100247
2.87950,-23.79219952
2.88000,-2.123396574
2.88050,13.13632381
2.88100,19.54540637
2.88150,10.99996296
2.88200,-11.2792288
2.88250,-31.11686531
2.88300,-31.42205971
2.88350,-11.88961762
2.88400,13.13632381
2.88450,32.6687659
2.88500,39.99343169
2.88550,32.6687659
2.88600,18.62982315
2.88650,15.88307348
2.88700,34.49993235
2.88750,62.27262345
2.88800,79.05831587
2.88850,76.0063718
2.88900,60.1362626
2.88950,40.90901491
2.89000,25.34410012
2.89050,22.59735045
2.89100,34.49993235
2.89150,46.70770866
2.89200,41.51940373
2.89250,18.62982315
2.89300,-3.344174205
2.89350,-14.9415617
2.89400,-20.43506104
2.89450,-21.35064426
2.89500,-6.701312689
2.89550,26.87007216
2.89600,58.30509615
2.89650,65.32456753
2.89700,57.69470734
2.89750,68.0713172
2.89800,103.4738685
2.89850,133.6881149
2.89900,130.3309764
2.89950,101.9478965
2.90000,75.39598298
2.90050,60.1362626
2.90100,48.2336807
2.90150,37.55187643
2.90200,36.6362932
2.90250,43.96095899
2.90300,48.5388751
2.90350,46.09731984
2.90400,41.82459814
2.90450,34.49993235
2.90500,18.62982315
2.90550,1.233741911
2.90600,-3.649368612
2.90650,0.3181586879
2.90700,-6.396118282
2.90750,-31.11686531
2.90800,-59.19475081
2.90850,-78.4219985
2.90900,-93.37652448
2.90950,-108.025856
2.91000,-112.9089666
2.91050,-104.0583287
2.91100,-96.42846855
2.91150,-101.0063847
2.91200,-104.973912
2.91250,-91.54535803
2.91300,-61.94150048
2.91350,-25.62336597
2.91400,17.40904552
2.91450,68.37651161
2.91500,110.1881455
2.91550,124.837477
2.91600,116.597228
2.91650,101.642702
2.91700,83.33103758
2.91750,56.4739297
2.91800,27.78565538
2.91850,7.337630065
2.91900,-8.837673543
2.91950,-31.11686531
2.92000,-50.6493074
2.92050,-56.75319555
2.92100,-63.46747252
2.92150,-92.76613566
2.92200,-128.168687
2.92250,-119.3180491
2.92300,-56.75319555
2.92350,-0.5974245352
2.92400,-10.36364558
2.92450,-69.57136068
2.92500,-110.7726057
2.92550,-102.8375511
2.92600,-74.4544712
2.92650,-59.19475081
2.92700,-51.56489062
2.92750,-27.75972682
2.92800,12.22074059
2.92850,51.89601359
2.92900,78.14273265
2.92950,93.70764744
2.93000,104.9998405
2.93050,115.3764504
2.93100,124.837477
2.93150,130.6361708
2.93200,129.1101987
2.93250,125.1426714
2.93300,125.1426714
2.93350,127.5842267
2.93400,121.4803385
2.93450,108.356979
2.93500,106.2206182
2.93550,126.0582547
2.93600,148.9478352
2.93650,145.5906968
2.93700,108.9673678
2.93750,59.22067937
