type,name,time_units,begin_time,frequency,count,units
signal,"Noraxon Ultium-RT BICEPS BR.","s",0.00000,2000,49840,"uV"

time,value
0.00000,0.3622372405
0.00050,0.9726260559
0.00100,0.9726260559
0.00150,0.3622372405
0.00200,-0.2481515749
0.00250,-0.5533459826
0.00300,-0.2481515749
0.00350,-0.5533459826
0.00400,-1.163734798
0.00450,-2.384512429
0.00500,-3.300095652
0.00550,-4.215678875
0.00600,-4.215678875
0.00650,-3.300095652
0.00700,-1.774123613
0.00750,-2.689706836
0.00800,-5.131262098
0.00850,-6.962428544
0.00900,-6.657234137
0.00950,-5.131262098
0.01000,-3.300095652
0.01050,-0.5533459826
0.01100,3.10898691
0.01150,6.771319802
0.01200,6.771319802
0.01250,4.329764541
0.01300,2.498598094
0.01350,2.498598094
0.01400,3.414181318
0.01450,3.719375725
0.01500,3.414181318
0.01550,2.498598094
0.01600,1.583014871
0.01650,0.3622372405
0.01700,0.3622372405
0.01750,0.6674316482
0.01800,0.6674316482
0.01850,0.05704283282
0.01900,-0.2481515749
0.01950,0.3622372405
0.02000,1.583014871
0.02050,1.583014871
0.02100,0.05704283282
0.02150,-1.163734798
0.02200,-2.079318021
0.02250,-2.384512429
0.02300,-2.689706836
0.02350,-3.300095652
0.02400,-4.215678875
0.02450,-4.82606769
0.02500,-4.82606769
0.02550,-4.215678875
0.02600,-3.60529006
0.02650,-2.689706836
0.02700,-1.774123613
0.02750,-2.079318021
0.02800,-3.300095652
0.02850,-3.910484467
0.02900,-1.774123613
0.02950,1.888209279
0.03000,5.245347764
0.03050,6.771319802
0.03100,5.550542171
0.03150,2.803792502
0.03200,0.05704283282
0.03250,-1.468929206
0.03300,-1.163734798
0.03350,0.05704283282
0.03400,0.6674316482
0.03450,0.6674316482
0.03500,0.6674316482
0.03550,1.277820464
0.03600,1.277820464
0.03650,0.9726260559
0.03700,0.9726260559
0.03750,1.888209279
0.03800,2.498598094
0.03850,1.888209279
0.03900,1.583014871
0.03950,1.277820464
0.04000,0.3622372405
0.04050,-0.5533459826
0.04100,-1.163734798
0.04150,-0.5533459826
0.04200,-0.2481515749
0.04250,-1.774123613
0.04300,-3.300095652
0.04350,-4.215678875
0.04400,-5.131262098
0.04450,-7.267622952
0.04500,-9.098789398
0.04550,-10.01437262
0.04600,-9.709178214
0.04650,-9.403983806
0.04700,-7.267622952
0.04750,-2.384512429
0.04800,2.498598094
0.04850,5.550542171
0.04900,5.855736579
0.04950,5.245347764
0.05000,4.329764541
0.05050,3.10898691
0.05100,3.719375725
0.05150,5.855736579
0.05200,7.992097433
0.05250,7.381708618
0.05300,5.245347764
0.05350,3.414181318
0.05400,2.803792502
0.05450,2.193403687
0.05500,1.277820464
0.05550,0.05704283282
0.05600,-0.5533459826
0.05650,-0.5533459826
0.05700,0.05704283282
0.05750,0.9726260559
0.05800,0.6674316482
0.05850,-0.2481515749
0.05900,-0.2481515749
0.05950,1.277820464
0.06000,2.498598094
0.06050,0.6674316482
0.06100,-2.079318021
0.06150,-3.60529006
0.06200,-2.384512429
0.06250,-0.5533459826
0.06300,0.05704283282
0.06350,0.05704283282
0.06400,0.6674316482
0.06450,0.6674316482
0.06500,0.05704283282
0.06550,-1.774123613
0.06600,-3.300095652
0.06650,-3.60529006
0.06700,-2.994901244
0.06750,-1.774123613
0.06800,-1.468929206
0.06850,-1.163734798
0.06900,-0.8585403903
0.06950,0.9726260559
0.07000,4.329764541
0.07050,7.07651421
0.07100,7.686903025
0.07150,5.855736579
0.07200,3.414181318
0.07250,1.583014871
0.07300,0.9726260559
0.07350,0.9726260559
0.07400,1.277820464
0.07450,1.277820464
0.07500,0.3622372405
0.07550,-0.8585403903
0.07600,-1.163734798
0.07650,0.3622372405
0.07700,1.888209279
0.07750,1.583014871
0.07800,0.05704283282
0.07850,0.05704283282
0.07900,0.6674316482
0.07950,1.583014871
0.08000,1.888209279
0.08050,1.583014871
0.08100,0.9726260559
0.08150,0.05704283282
0.08200,-0.2481515749
0.08250,-0.5533459826
0.08300,-1.163734798
0.08350,-2.689706836
0.08400,-3.910484467
0.08450,-4.215678875
0.08500,-4.520873283
0.08550,-6.046845321
0.08600,-6.657234137
0.08650,-4.82606769
0.08700,-2.079318021
0.08750,-0.5533459826
0.08800,-0.2481515749
0.08850,0.3622372405
0.08900,1.888209279
0.08950,1.888209279
0.09000,0.3622372405
0.09050,-0.2481515749
0.09100,0.9726260559
0.09150,3.10898691
0.09200,3.414181318
0.09250,2.498598094
0.09300,1.888209279
0.09350,1.583014871
0.09400,1.277820464
0.09450,0.3622372405
0.09500,-0.5533459826
0.09550,-1.774123613
0.09600,-2.689706836
0.09650,-2.689706836
0.09700,-1.774123613
0.09750,-1.163734798
0.09800,-2.079318021
0.09850,-3.300095652
0.09900,-4.215678875
0.09950,-3.910484467
0.10000,-3.60529006
0.10050,-3.60529006
0.10100,-3.300095652
0.10150,-3.300095652
0.10200,-3.300095652
0.10250,-2.689706836
0.10300,-1.163734798
0.10350,0.05704283282
0.10400,0.3622372405
0.10450,0.3622372405
0.10500,0.05704283282
0.10550,0.05704283282
0.10600,-0.5533459826
0.10650,-1.468929206
0.10700,-1.468929206
0.10750,-1.163734798
0.10800,-2.079318021
0.10850,-3.60529006
0.10900,-3.910484467
0.10950,-2.994901244
0.11000,-2.689706836
0.11050,-4.215678875
0.11100,-5.741650914
0.11150,-5.436456506
0.11200,-4.215678875
0.11250,-4.215678875
0.11300,-4.82606769
0.11350,-5.436456506
0.11400,-5.131262098
0.11450,-4.520873283
0.11500,-2.689706836
0.11550,0.6674316482
0.11600,4.940153356
0.11650,7.07651421
0.11700,6.771319802
0.11750,4.634958948
0.11800,2.193403687
0.11850,0.05704283282
0.11900,-1.468929206
0.11950,-1.774123613
0.12000,-0.5533459826
0.12050,1.888209279
0.12100,5.550542171
0.12150,7.992097433
0.12200,7.992097433
0.12250,5.245347764
0.12300,1.888209279
0.12350,0.3622372405
0.12400,0.3622372405
0.12450,1.277820464
0.12500,1.277820464
0.12550,0.6674316482
0.12600,0.05704283282
0.12650,-0.2481515749
0.12700,-0.8585403903
0.12750,-0.8585403903
0.12800,0.05704283282
0.12850,1.583014871
0.12900,3.414181318
0.12950,4.024570133
0.13000,3.10898691
0.13050,1.888209279
0.13100,0.9726260559
0.13150,0.3622372405
0.13200,-0.5533459826
0.13250,-0.8585403903
0.13300,0.05704283282
0.13350,0.9726260559
0.13400,0.3622372405
0.13450,-0.8585403903
0.13500,-1.163734798
0.13550,-0.2481515749
0.13600,0.05704283282
0.13650,-1.163734798
0.13700,-2.689706836
0.13750,-2.384512429
0.13800,-0.5533459826
0.13850,0.05704283282
0.13900,-1.163734798
0.13950,-2.384512429
0.14000,-2.689706836
0.14050,-2.079318021
0.14100,-1.163734798
0.14150,-0.5533459826
0.14200,-0.2481515749
0.14250,-0.8585403903
0.14300,-1.774123613
0.14350,-3.300095652
0.14400,-3.60529006
0.14450,-2.689706836
0.14500,-0.5533459826
0.14550,0.6674316482
0.14600,0.6674316482
0.14650,-0.5533459826
0.14700,-2.079318021
0.14750,-2.079318021
0.14800,-0.5533459826
0.14850,-0.2481515749
0.14900,-1.163734798
0.14950,-1.774123613
0.15000,-0.8585403903
0.15050,0.05704283282
0.15100,0.3622372405
0.15150,-0.5533459826
0.15200,-1.468929206
0.15250,-2.079318021
0.15300,-1.774123613
0.15350,-1.163734798
0.15400,-0.5533459826
0.15450,-0.8585403903
0.15500,-1.468929206
0.15550,-1.774123613
0.15600,-1.163734798
0.15650,-0.8585403903
0.15700,-0.5533459826
0.15750,0.05704283282
0.15800,0.6674316482
0.15850,1.277820464
0.15900,0.9726260559
0.15950,0.6674316482
0.16000,0.05704283282
0.16050,-0.2481515749
0.16100,-0.2481515749
0.16150,0.3622372405
0.16200,1.583014871
0.16250,1.583014871
0.16300,0.05704283282
0.16350,-1.163734798
0.16400,-1.774123613
0.16450,-1.774123613
0.16500,-1.774123613
0.16550,-1.774123613
0.16600,-1.163734798
0.16650,-0.5533459826
0.16700,-0.8585403903
0.16750,-1.468929206
0.16800,-1.468929206
0.16850,-0.5533459826
0.16900,0.9726260559
0.16950,3.414181318
0.17000,5.855736579
0.17050,6.771319802
0.17100,5.550542171
0.17150,3.414181318
0.17200,2.193403687
0.17250,1.888209279
0.17300,0.3622372405
0.17350,-1.468929206
0.17400,-1.468929206
0.17450,0.6674316482
0.17500,4.024570133
0.17550,5.245347764
0.17600,4.024570133
0.17650,2.193403687
0.17700,1.583014871
0.17750,1.888209279
0.17800,1.583014871
0.17850,0.3622372405
0.17900,-0.8585403903
0.17950,-2.384512429
0.18000,-3.300095652
0.18050,-2.994901244
0.18100,-2.689706836
0.18150,-3.300095652
0.18200,-3.910484467
0.18250,-3.60529006
0.18300,-2.689706836
0.18350,-2.384512429
0.18400,-1.163734798
0.18450,2.498598094
0.18500,8.297291841
0.18550,12.26481914
0.18600,12.57001355
0.18650,10.7388471
0.18700,8.602486248
0.18750,6.160930987
0.18800,3.414181318
0.18850,1.888209279
0.18900,1.583014871
0.18950,0.05704283282
0.19000,-2.079318021
0.19050,-2.689706836
0.19100,-0.5533459826
0.19150,0.05704283282
0.19200,-1.163734798
0.19250,-1.774123613
0.19300,0.6674316482
0.19350,4.634958948
0.19400,6.771319802
0.19450,6.771319802
0.19500,6.771319802
0.19550,6.466125395
0.19600,3.414181318
0.19650,0.05704283282
0.19700,-1.468929206
0.19750,-0.5533459826
0.19800,0.3622372405
0.19850,1.583014871
0.19900,3.10898691
0.19950,4.940153356
0.20000,4.634958948
0.20050,3.10898691
0.20100,1.583014871
0.20150,1.277820464
0.20200,0.9726260559
0.20250,1.583014871
0.20300,3.10898691
0.20350,4.940153356
0.20400,5.245347764
0.20450,4.024570133
0.20500,2.803792502
0.20550,2.498598094
0.20600,1.888209279
0.20650,0.6674316482
0.20700,0.05704283282
0.20750,0.05704283282
0.20800,-0.2481515749
0.20850,-1.468929206
0.20900,-2.384512429
0.20950,-2.079318021
0.21000,-1.163734798
0.21050,-0.5533459826
0.21100,-0.8585403903
0.21150,-2.079318021
0.21200,-2.689706836
0.21250,-2.384512429
0.21300,-1.163734798
0.21350,-0.8585403903
0.21400,-2.079318021
0.21450,-3.910484467
0.21500,-4.82606769
0.21550,-4.215678875
0.21600,-3.300095652
0.21650,-3.300095652
0.21700,-2.994901244
0.21750,-2.994901244
0.21800,-4.215678875
0.21850,-6.046845321
0.21900,-6.046845321
0.21950,-3.910484467
0.22000,-1.163734798
0.22050,0.05704283282
0.22100,0.05704283282
0.22150,1.277820464
0.22200,2.803792502
0.22250,3.414181318
0.22300,2.803792502
0.22350,2.498598094
0.22400,2.193403687
0.22450,2.193403687
0.22500,1.583014871
0.22550,1.888209279
0.22600,2.193403687
0.22650,1.583014871
0.22700,0.3622372405
0.22750,-0.2481515749
0.22800,-0.5533459826
0.22850,-0.8585403903
0.22900,-0.8585403903
0.22950,-0.2481515749
0.23000,0.3622372405
0.23050,0.6674316482
0.23100,0.05704283282
0.23150,0.05704283282
0.23200,0.05704283282
0.23250,0.05704283282
0.23300,-0.5533459826
0.23350,-0.8585403903
0.23400,-0.5533459826
0.23450,-0.5533459826
0.23500,-1.774123613
0.23550,-2.994901244
0.23600,-3.910484467
0.23650,-4.520873283
0.23700,-4.82606769
0.23750,-4.520873283
0.23800,-2.994901244
0.23850,-1.163734798
0.23900,-0.5533459826
0.23950,-1.468929206
0.24000,-2.689706836
0.24050,-3.910484467
0.24100,-4.82606769
0.24150,-5.436456506
0.24200,-4.82606769
0.24250,-1.468929206
0.24300,4.024570133
0.24350,8.602486248
0.24400,9.823263879
0.24450,7.686903025
0.24500,5.245347764
0.24550,5.550542171
0.24600,7.686903025
0.24650,9.823263879
0.24700,9.823263879
0.24750,7.992097433
0.24800,5.550542171
0.24850,3.10898691
0.24900,0.9726260559
0.24950,0.05704283282
0.25000,0.3622372405
0.25050,0.6674316482
0.25100,0.05704283282
0.25150,-1.774123613
0.25200,-2.079318021
0.25250,-0.8585403903
0.25300,0.3622372405
0.25350,1.583014871
0.25400,1.583014871
0.25450,0.6674316482
0.25500,-0.5533459826
0.25550,-1.163734798
0.25600,-0.8585403903
0.25650,-0.5533459826
0.25700,-1.468929206
0.25750,-2.994901244
0.25800,-2.994901244
0.25850,-1.774123613
0.25900,-0.8585403903
0.25950,-0.2481515749
0.26000,0.6674316482
0.26050,3.10898691
0.26100,5.550542171
0.26150,7.07651421
0.26200,7.686903025
0.26250,8.602486248
0.26300,8.297291841
0.26350,5.855736579
0.26400,3.414181318
0.26450,3.10898691
0.26500,4.634958948
0.26550,5.550542171
0.26600,5.245347764
0.26650,4.329764541
0.26700,3.719375725
0.26750,2.498598094
0.26800,0.6674316482
0.26850,0.05704283282
0.26900,0.6674316482
0.26950,1.277820464
0.27000,0.05704283282
0.27050,-1.774123613
0.27100,-3.300095652
0.27150,-4.215678875
0.27200,-5.436456506
0.27250,-7.57281736
0.27300,-8.793594991
0.27350,-9.098789398
0.27400,-9.098789398
0.27450,-9.098789398
0.27500,-9.709178214
0.27550,-10.01437262
0.27600,-10.31956703
0.27650,-11.54034466
0.27700,-12.45592788
0.27750,-11.84553907
0.27800,-7.878011767
0.27850,-1.468929206
0.27900,4.024570133
0.27950,7.381708618
0.28000,8.602486248
0.28050,9.518069472
0.28100,9.212875064
0.28150,7.07651421
0.28200,3.414181318
0.28250,0.6674316482
0.28300,0.05704283282
0.28350,0.05704283282
0.28400,-0.5533459826
0.28450,-0.5533459826
0.28500,0.05704283282
0.28550,1.583014871
0.28600,1.888209279
0.28650,0.6674316482
0.28700,-0.2481515749
0.28750,0.05704283282
0.28800,0.9726260559
0.28850,2.803792502
0.28900,3.414181318
0.28950,2.193403687
0.29000,0.6674316482
0.29050,-0.2481515749
0.29100,-0.5533459826
0.29150,-2.079318021
0.29200,-3.910484467
0.29250,-5.741650914
0.29300,-6.046845321
0.29350,-5.436456506
0.29400,-4.82606769
0.29450,-2.994901244
0.29500,-0.5533459826
0.29550,0.3622372405
0.29600,0.05704283282
0.29650,-1.774123613
0.29700,-2.994901244
0.29750,-2.994901244
0.29800,-3.300095652
0.29850,-2.994901244
0.29900,-1.774123613
0.29950,0.05704283282
0.30000,0.9726260559
0.30050,0.05704283282
0.30100,-0.8585403903
0.30150,-1.468929206
0.30200,-1.163734798
0.30250,-1.468929206
0.30300,-1.774123613
0.30350,0.05704283282
0.30400,2.803792502
0.30450,4.024570133
0.30500,2.803792502
0.30550,0.05704283282
0.30600,-0.8585403903
0.30650,-1.774123613
0.30700,-2.994901244
0.30750,-3.60529006
0.30800,-1.163734798
0.30850,3.414181318
0.30900,6.771319802
0.30950,6.466125395
0.31000,4.024570133
0.31050,2.193403687
0.31100,0.9726260559
0.31150,0.05704283282
0.31200,-0.2481515749
0.31250,-0.2481515749
0.31300,0.05704283282
0.31350,0.05704283282
0.31400,-0.8585403903
0.31450,-2.079318021
0.31500,-2.689706836
0.31550,-2.994901244
0.31600,-2.994901244
0.31650,-3.300095652
0.31700,-4.215678875
0.31750,-4.520873283
0.31800,-4.520873283
0.31850,-4.520873283
0.31900,-4.215678875
0.31950,-3.60529006
0.32000,-2.079318021
0.32050,-0.8585403903
0.32100,0.05704283282
0.32150,0.3622372405
0.32200,0.6674316482
0.32250,0.05704283282
0.32300,-0.8585403903
0.32350,-0.8585403903
0.32400,0.05704283282
0.32450,0.3622372405
0.32500,0.9726260559
0.32550,2.193403687
0.32600,4.940153356
0.32650,6.771319802
0.32700,4.940153356
0.32750,1.583014871
0.32800,0.3622372405
0.32850,1.277820464
0.32900,1.888209279
0.32950,0.3622372405
0.33000,-0.8585403903
0.33050,-0.2481515749
0.33100,0.3622372405
0.33150,0.05704283282
0.33200,-1.468929206
0.33250,-1.468929206
0.33300,-0.8585403903
0.33350,-1.774123613
0.33400,-3.300095652
0.33450,-3.60529006
0.33500,-1.468929206
0.33550,0.6674316482
0.33600,2.803792502
0.33650,4.329764541
0.33700,4.329764541
0.33750,2.193403687
0.33800,-0.8585403903
0.33850,-2.689706836
0.33900,-2.384512429
0.33950,-1.468929206
0.34000,-0.2481515749
0.34050,2.193403687
0.34100,5.550542171
0.34150,6.771319802
0.34200,5.245347764
0.34250,2.803792502
0.34300,1.277820464
0.34350,-0.5533459826
0.34400,-3.910484467
0.34450,-6.352039729
0.34500,-5.131262098
0.34550,-1.163734798
0.34600,2.193403687
0.34650,4.024570133
0.34700,3.414181318
0.34750,1.277820464
0.34800,-0.8585403903
0.34850,-1.163734798
0.34900,2.193403687
0.34950,6.160930987
0.35000,7.686903025
0.35050,5.855736579
0.35100,3.10898691
0.35150,1.277820464
0.35200,0.6674316482
0.35250,0.9726260559
0.35300,2.498598094
0.35350,4.329764541
0.35400,5.550542171
0.35450,5.245347764
0.35500,4.024570133
0.35550,1.888209279
0.35600,-0.2481515749
0.35650,-1.468929206
0.35700,-1.468929206
0.35750,-1.468929206
0.35800,-2.994901244
0.35850,-4.520873283
0.35900,-4.82606769
0.35950,-2.994901244
0.36000,-0.8585403903
0.36050,-0.5533459826
0.36100,-1.468929206
0.36150,-2.689706836
0.36200,-2.994901244
0.36250,-2.079318021
0.36300,-0.5533459826
0.36350,0.3622372405
0.36400,1.583014871
0.36450,3.414181318
0.36500,4.634958948
0.36550,3.719375725
0.36600,0.9726260559
0.36650,-1.163734798
0.36700,-2.079318021
0.36750,-2.384512429
0.36800,-2.689706836
0.36850,-2.384512429
0.36900,0.6674316482
0.36950,5.855736579
0.37000,9.212875064
0.37050,8.297291841
0.37100,4.634958948
0.37150,1.277820464
0.37200,-0.5533459826
0.37250,-1.468929206
0.37300,-1.774123613
0.37350,-1.163734798
0.37400,0.05704283282
0.37450,1.583014871
0.37500,2.193403687
0.37550,2.193403687
0.37600,1.888209279
0.37650,1.277820464
0.37700,0.3622372405
0.37750,-0.8585403903
0.37800,-2.079318021
0.37850,-2.384512429
0.37900,-1.468929206
0.37950,0.05704283282
0.38000,2.498598094
0.38050,4.329764541
0.38100,4.329764541
0.38150,3.10898691
0.38200,1.277820464
0.38250,0.05704283282
0.38300,-1.468929206
0.38350,-3.60529006
0.38400,-6.352039729
0.38450,-8.488400583
0.38500,-9.403983806
0.38550,-9.403983806
0.38600,-9.098789398
0.38650,-8.183206175
0.38700,-5.741650914
0.38750,-3.300095652
0.38800,-1.774123613
0.38850,-2.079318021
0.38900,-1.774123613
0.38950,0.3622372405
0.39000,4.634958948
0.39050,7.992097433
0.39100,8.907680656
0.39150,7.686903025
0.39200,6.466125395
0.39250,4.940153356
0.39300,2.803792502
0.39350,0.05704283282
0.39400,-2.384512429
0.39450,-3.910484467
0.39500,-4.215678875
0.39550,-4.520873283
0.39600,-5.131262098
0.39650,-4.82606769
0.39700,-3.910484467
0.39750,-2.384512429
0.39800,-1.468929206
0.39850,-1.163734798
0.39900,-0.2481515749
0.39950,1.277820464
0.40000,3.719375725
0.40050,5.245347764
0.40100,5.245347764
0.40150,4.329764541
0.40200,3.414181318
0.40250,3.719375725
0.40300,4.940153356
0.40350,4.634958948
0.40400,2.498598094
0.40450,0.05704283282
0.40500,0.05704283282
0.40550,1.583014871
0.40600,3.10898691
0.40650,4.024570133
0.40700,4.024570133
0.40750,3.414181318
0.40800,2.803792502
0.40850,1.888209279
0.40900,1.277820464
0.40950,0.6674316482
0.41000,0.05704283282
0.41050,0.05704283282
0.41100,0.9726260559
0.41150,1.583014871
0.41200,0.9726260559
0.41250,0.05704283282
0.41300,-0.2481515749
0.41350,0.05704283282
0.41400,0.6674316482
0.41450,1.583014871
0.41500,2.498598094
0.41550,3.10898691
0.41600,1.888209279
0.41650,0.05704283282
0.41700,-0.2481515749
0.41750,0.05704283282
0.41800,0.3622372405
0.41850,0.05704283282
0.41900,-0.2481515749
0.41950,-0.2481515749
0.42000,-0.8585403903
0.42050,-2.689706836
0.42100,-3.910484467
0.42150,-3.910484467
0.42200,-2.994901244
0.42250,-2.384512429
0.42300,-1.774123613
0.42350,-0.8585403903
0.42400,-1.163734798
0.42450,-2.994901244
0.42500,-4.82606769
0.42550,-4.82606769
0.42600,-2.994901244
0.42650,-0.8585403903
0.42700,0.3622372405
0.42750,0.6674316482
0.42800,0.3622372405
0.42850,0.05704283282
0.42900,1.277820464
0.42950,3.414181318
0.43000,4.634958948
0.43050,4.024570133
0.43100,2.498598094
0.43150,1.583014871
0.43200,0.9726260559
0.43250,0.05704283282
0.43300,-0.2481515749
0.43350,0.05704283282
0.43400,0.05704283282
0.43450,0.05704283282
0.43500,0.3622372405
0.43550,2.498598094
0.43600,4.024570133
0.43650,3.719375725
0.43700,1.888209279
0.43750,0.3622372405
0.43800,0.6674316482
0.43850,1.583014871
0.43900,2.498598094
0.43950,2.193403687
0.44000,0.05704283282
0.44050,-2.079318021
0.44100,-2.994901244
0.44150,-2.384512429
0.44200,-2.384512429
0.44250,-4.520873283
0.44300,-5.741650914
0.44350,-4.215678875
0.44400,-2.689706836
0.44450,-3.910484467
0.44500,-7.267622952
0.44550,-9.709178214
0.44600,-10.31956703
0.44650,-10.62476144
0.44700,-11.23515025
0.44750,-11.23515025
0.44800,-9.403983806
0.44850,-6.352039729
0.44900,-2.689706836
0.44950,0.9726260559
0.45000,4.024570133
0.45050,4.024570133
0.45100,1.277820464
0.45150,-1.163734798
0.45200,-2.079318021
0.45250,-2.994901244
0.45300,-5.131262098
0.45350,-6.657234137
0.45400,-5.741650914
0.45450,-2.689706836
0.45500,-0.2481515749
0.45550,0.05704283282
0.45600,0.3622372405
0.45650,3.414181318
0.45700,7.686903025
0.45750,11.65443033
0.45800,13.79079118
0.45850,13.48559677
0.45900,11.34923592
0.45950,8.297291841
0.46000,5.550542171
0.46050,3.719375725
0.46100,2.498598094
0.46150,0.9726260559
0.46200,0.3622372405
0.46250,0.6674316482
0.46300,0.9726260559
0.46350,1.888209279
0.46400,2.498598094
0.46450,3.10898691
0.46500,2.498598094
0.46550,0.9726260559
0.46600,-0.5533459826
0.46650,-0.5533459826
0.46700,0.3622372405
0.46750,0.6674316482
0.46800,0.05704283282
0.46850,0.05704283282
0.46900,0.3622372405
0.46950,1.277820464
0.47000,0.9726260559
0.47050,0.05704283282
0.47100,-0.2481515749
0.47150,-0.2481515749
0.47200,0.05704283282
0.47250,0.05704283282
0.47300,-1.163734798
0.47350,-1.774123613
0.47400,-1.774123613
0.47450,-1.468929206
0.47500,-1.468929206
0.47550,-1.774123613
0.47600,-2.079318021
0.47650,-2.384512429
0.47700,-2.384512429
0.47750,-1.774123613
0.47800,-0.5533459826
0.47850,0.05704283282
0.47900,0.05704283282
0.47950,0.05704283282
0.48000,0.3622372405
0.48050,0.05704283282
0.48100,-1.468929206
0.48150,-2.994901244
0.48200,-2.079318021
0.48250,0.05704283282
0.48300,0.05704283282
0.48350,-2.079318021
0.48400,-4.215678875
0.48450,-4.215678875
0.48500,-4.215678875
0.48550,-6.046845321
0.48600,-7.267622952
0.48650,-4.82606769
0.48700,-0.2481515749
0.48750,4.329764541
0.48800,7.992097433
0.48850,9.518069472
0.48900,7.992097433
0.48950,4.024570133
0.49000,0.3622372405
0.49050,-0.2481515749
0.49100,0.6674316482
0.49150,1.888209279
0.49200,2.803792502
0.49250,2.803792502
0.49300,1.583014871
0.49350,0.05704283282
0.49400,0.05704283282
0.49450,1.888209279
0.49500,3.414181318
0.49550,2.193403687
0.49600,0.05704283282
0.49650,0.05704283282
0.49700,0.9726260559
0.49750,0.9726260559
0.49800,0.05704283282
0.49850,0.05704283282
0.49900,2.193403687
0.49950,4.024570133
0.50000,3.719375725
0.50050,2.193403687
0.50100,1.888209279
0.50150,2.193403687
0.50200,1.277820464
0.50250,-0.2481515749
0.50300,-1.163734798
0.50350,-0.8585403903
0.50400,-1.774123613
0.50450,-3.910484467
0.50500,-5.131262098
0.50550,-4.82606769
0.50600,-3.910484467
0.50650,-3.910484467
0.50700,-3.910484467
0.50750,-1.468929206
0.50800,3.10898691
0.50850,6.466125395
0.50900,7.381708618
0.50950,6.466125395
0.51000,5.550542171
0.51050,4.634958948
0.51100,3.10898691
0.51150,0.9726260559
0.51200,-0.8585403903
0.51250,-2.689706836
0.51300,-5.131262098
0.51350,-7.267622952
0.51400,-6.962428544
0.51450,-5.131262098
0.51500,-3.300095652
0.51550,-3.300095652
0.51600,-5.436456506
0.51650,-7.878011767
0.51700,-8.183206175
0.51750,-5.741650914
0.51800,-1.163734798
0.51850,3.10898691
0.51900,5.855736579
0.51950,5.855736579
0.52000,3.10898691
0.52050,-1.163734798
0.52100,-5.131262098
0.52150,-6.962428544
0.52200,-6.962428544
0.52250,-5.436456506
0.52300,-3.300095652
0.52350,-0.5533459826
0.52400,3.10898691
0.52450,7.686903025
0.52500,10.7388471
0.52550,11.04404151
0.52600,7.992097433
0.52650,3.719375725
0.52700,1.583014871
0.52750,1.583014871
0.52800,2.803792502
0.52850,4.329764541
0.52900,5.855736579
0.52950,6.160930987
0.53000,4.940153356
0.53050,2.803792502
0.53100,1.888209279
0.53150,1.888209279
0.53200,1.583014871
0.53250,0.3622372405
0.53300,0.05704283282
0.53350,0.05704283282
0.53400,0.05704283282
0.53450,-0.5533459826
0.53500,-1.468929206
0.53550,-1.774123613
0.53600,-1.163734798
0.53650,-0.5533459826
0.53700,0.05704283282
0.53750,0.3622372405
0.53800,0.3622372405
0.53850,0.05704283282
0.53900,-0.5533459826
0.53950,-0.2481515749
0.54000,-0.5533459826
0.54050,-1.163734798
0.54100,-0.5533459826
0.54150,0.3622372405
0.54200,1.277820464
0.54250,0.9726260559
0.54300,0.9726260559
0.54350,2.193403687
0.54400,2.193403687
0.54450,0.05704283282
0.54500,-2.689706836
0.54550,-2.689706836
0.54600,-0.5533459826
0.54650,0.05704283282
0.54700,-1.163734798
0.54750,-2.079318021
0.54800,-1.468929206
0.54850,-1.468929206
0.54900,-2.689706836
0.54950,-3.60529006
0.55000,-3.910484467
0.55050,-4.520873283
0.55100,-6.046845321
0.55150,-6.657234137
0.55200,-5.436456506
0.55250,-4.215678875
0.55300,-5.131262098
0.55350,-7.267622952
0.55400,-8.183206175
0.55450,-6.962428544
0.55500,-4.82606769
0.55550,-2.079318021
0.55600,0.05704283282
0.55650,2.193403687
0.55700,3.414181318
0.55750,3.719375725
0.55800,3.719375725
0.55850,2.803792502
0.55900,1.277820464
0.55950,0.05704283282
0.56000,0.05704283282
0.56050,0.3622372405
0.56100,0.3622372405
0.56150,0.6674316482
0.56200,1.277820464
0.56250,1.888209279
0.56300,1.888209279
0.56350,1.277820464
0.56400,0.6674316482
0.56450,0.05704283282
0.56500,-0.8585403903
0.56550,-0.8585403903
0.56600,-0.2481515749
0.56650,-0.5533459826
0.56700,-2.384512429
0.56750,-3.910484467
0.56800,-3.60529006
0.56850,-2.689706836
0.56900,-3.300095652
0.56950,-5.436456506
0.57000,-7.267622952
0.57050,-8.183206175
0.57100,-8.183206175
0.57150,-7.57281736
0.57200,-6.046845321
0.57250,-3.60529006
0.57300,-2.689706836
0.57350,-3.910484467
0.57400,-5.741650914
0.57450,-6.046845321
0.57500,-4.215678875
0.57550,-1.468929206
0.57600,0.05704283282
0.57650,0.05704283282
0.57700,0.9726260559
0.57750,6.771319802
0.57800,17.14792966
0.57850,26.91415071
0.57900,30.88167801
0.57950,28.74531716
0.58000,23.86220663
0.58050,19.28429052
0.58100,15.01156881
0.58150,10.12845829
0.58200,5.245347764
0.58250,2.193403687
0.58300,0.05704283282
0.58350,-1.163734798
0.58400,-3.300095652
0.58450,-4.520873283
0.58500,-5.131262098
0.58550,-6.657234137
0.58600,-9.709178214
0.58650,-12.45592788
0.58700,-12.15073348
0.58750,-9.098789398
0.58800,-6.962428544
0.58850,-7.878011767
0.58900,-9.098789398
0.58950,-8.183206175
0.59000,-6.046845321
0.59050,-5.131262098
0.59100,-6.046845321
0.59150,-6.657234137
0.59200,-6.046845321
0.59250,-4.82606769
0.59300,-4.215678875
0.59350,-3.300095652
0.59400,-1.468929206
0.59450,-0.5533459826
0.59500,-1.774123613
0.59550,-3.910484467
0.59600,-4.82606769
0.59650,-5.131262098
0.59700,-4.520873283
0.59750,-4.215678875
0.59800,-4.520873283
0.59850,-5.436456506
0.59900,-6.657234137
0.59950,-7.267622952
0.60000,-6.962428544
0.60050,-6.352039729
0.60100,-6.046845321
0.60150,-5.131262098
0.60200,-3.910484467
0.60250,-2.079318021
0.60300,0.3622372405
0.60350,3.719375725
0.60400,6.771319802
0.60450,7.381708618
0.60500,5.550542171
0.60550,3.719375725
0.60600,3.719375725
0.60650,4.024570133
0.60700,4.024570133
0.60750,3.414181318
0.60800,2.803792502
0.60850,1.888209279
0.60900,0.9726260559
0.60950,0.05704283282
0.61000,-0.5533459826
0.61050,-0.5533459826
0.61100,0.05704283282
0.61150,0.9726260559
0.61200,1.583014871
0.61250,2.193403687
0.61300,5.245347764
0.61350,10.12845829
0.61400,13.79079118
0.61450,13.79079118
0.61500,11.65443033
0.61550,11.34923592
0.61600,11.95962473
0.61650,9.518069472
0.61700,3.719375725
0.61750,-1.163734798
0.61800,-3.300095652
0.61850,-4.215678875
0.61900,-6.046845321
0.61950,-7.57281736
0.62000,-7.878011767
0.62050,-7.57281736
0.62100,-7.57281736
0.62150,-7.878011767
0.62200,-6.962428544
0.62250,-4.82606769
0.62300,-2.994901244
0.62350,-0.5533459826
0.62400,2.498598094
0.62450,5.855736579
0.62500,7.381708618
0.62550,7.381708618
0.62600,6.771319802
0.62650,6.160930987
0.62700,4.329764541
0.62750,0.6674316482
0.62800,-3.300095652
0.62850,-6.962428544
0.62900,-9.098789398
0.62950,-10.31956703
0.63000,-9.709178214
0.63050,-8.183206175
0.63100,-6.657234137
0.63150,-5.131262098
0.63200,-2.994901244
0.63250,0.05704283282
0.63300,3.10898691
0.63350,5.245347764
0.63400,5.550542171
0.63450,4.940153356
0.63500,5.245347764
0.63550,6.771319802
0.63600,7.686903025
0.63650,7.686903025
0.63700,7.992097433
0.63750,9.212875064
0.63800,11.34923592
0.63850,11.95962473
0.63900,11.34923592
0.63950,11.04404151
0.64000,11.95962473
0.64050,11.95962473
0.64100,10.43365269
0.64150,8.907680656
0.64200,8.602486248
0.64250,10.12845829
0.64300,11.04404151
0.64350,10.7388471
0.64400,9.518069472
0.64450,8.297291841
0.64500,7.381708618
0.64550,6.466125395
0.64600,4.940153356
0.64650,3.10898691
0.64700,1.277820464
0.64750,0.6674316482
0.64800,0.9726260559
0.64850,0.9726260559
0.64900,0.05704283282
0.64950,-0.8585403903
0.65000,-2.384512429
0.65050,-4.520873283
0.65100,-6.962428544
0.65150,-8.488400583
0.65200,-9.403983806
0.65250,-11.23515025
0.65300,-13.98189992
0.65350,-15.20267755
0.65400,-14.89748314
0.65450,-13.98189992
0.65500,-14.28709433
0.65550,-14.28709433
0.65600,-13.67670551
0.65650,-13.98189992
0.65700,-15.50787196
0.65750,-16.42345518
0.65800,-14.59228874
0.65850,-10.92995584
0.65900,-7.878011767
0.65950,-6.046845321
0.66000,-4.215678875
0.66050,-2.994901244
0.66100,-3.300095652
0.66150,-4.215678875
0.66200,-4.215678875
0.66250,-3.910484467
0.66300,-4.520873283
0.66350,-5.741650914
0.66400,-4.215678875
0.66450,-0.2481515749
0.66500,2.193403687
0.66550,2.193403687
0.66600,0.9726260559
0.66650,1.583014871
0.66700,3.719375725
0.66750,4.634958948
0.66800,3.719375725
0.66850,2.498598094
0.66900,3.10898691
0.66950,5.550542171
0.67000,7.07651421
0.67050,7.07651421
0.67100,6.160930987
0.67150,5.245347764
0.67200,4.329764541
0.67250,3.10898691
0.67300,1.888209279
0.67350,0.9726260559
0.67400,1.277820464
0.67450,1.888209279
0.67500,2.193403687
0.67550,2.193403687
0.67600,1.888209279
0.67650,1.277820464
0.67700,0.6674316482
0.67750,0.05704283282
0.67800,-1.163734798
0.67850,-0.8585403903
0.67900,3.719375725
0.67950,12.57001355
0.68000,20.81026256
0.68050,24.77778986
0.68100,24.77778986
0.68150,23.86220663
0.68200,22.3362346
0.68250,17.75831848
0.68300,11.65443033
0.68350,7.07651421
0.68400,4.634958948
0.68450,1.583014871
0.68500,-2.994901244
0.68550,-6.962428544
0.68600,-8.793594991
0.68650,-10.01437262
0.68700,-11.23515025
0.68750,-11.54034466
0.68800,-9.709178214
0.68850,-6.962428544
0.68900,-5.436456506
0.68950,-3.60529006
0.69000,-1.468929206
0.69050,-0.5533459826
0.69100,-1.163734798
0.69150,-1.468929206
0.69200,-0.2481515749
0.69250,0.3622372405
0.69300,-0.5533459826
0.69350,-1.774123613
0.69400,-1.468929206
0.69450,-0.5533459826
0.69500,-0.8585403903
0.69550,-1.163734798
0.69600,-0.2481515749
0.69650,0.3622372405
0.69700,0.3622372405
0.69750,0.05704283282
0.69800,-0.2481515749
0.69850,-1.163734798
0.69900,-2.079318021
0.69950,-1.163734798
0.70000,0.05704283282
0.70050,-0.2481515749
0.70100,-0.5533459826
0.70150,5.855736579
0.70200,21.72584578
0.70250,38.2063438
0.70300,46.1413984
0.70350,45.53100958
0.70400,44.31023195
0.70450,44.31023195
0.70500,41.25828787
0.70550,33.62842768
0.70600,25.08298426
0.70650,18.36870729
0.70700,12.26481914
0.70750,4.634958948
0.70800,-3.300095652
0.70850,-10.62476144
0.70900,-16.11826078
0.70950,-20.39098248
0.71000,-23.13773215
0.71050,-24.35850978
0.71100,-24.9688986
0.71150,-24.66370419
0.71200,-22.83253774
0.71250,-20.69617689
0.71300,-19.47539926
0.71350,-19.78059367
0.71400,-20.39098248
0.71450,-20.39098248
0.71500,-20.39098248
0.71550,-21.0013713
0.71600,-22.22214893
0.71650,-23.13773215
0.71700,-23.13773215
0.71750,-21.91695452
0.71800,-19.78059367
0.71850,-18.25462163
0.71900,-17.64423281
0.71950,-17.033844
0.72000,-15.20267755
0.72050,-12.76112229
0.72100,-11.23515025
0.72150,-10.92995584
0.72200,-10.92995584
0.72250,-10.92995584
0.72300,-10.92995584
0.72350,-10.62476144
0.72400,-10.01437262
0.72450,-9.098789398
0.72500,-8.793594991
0.72550,-8.793594991
0.72600,-8.183206175
0.72650,-6.962428544
0.72700,-5.741650914
0.72750,-5.741650914
0.72800,-6.657234137
0.72850,-6.352039729
0.72900,-5.436456506
0.72950,-4.520873283
0.73000,-4.520873283
0.73050,-4.520873283
0.73100,-3.300095652
0.73150,-1.468929206
0.73200,-1.163734798
0.73250,-1.468929206
0.73300,-1.468929206
0.73350,0.05704283282
0.73400,0.9726260559
0.73450,1.277820464
0.73500,1.277820464
0.73550,1.888209279
0.73600,2.498598094
0.73650,1.888209279
0.73700,1.277820464
0.73750,1.583014871
0.73800,1.888209279
0.73850,1.888209279
0.73900,1.888209279
0.73950,2.193403687
0.74000,2.498598094
0.74050,2.498598094
0.74100,2.193403687
0.74150,3.10898691
0.74200,4.024570133
0.74250,4.024570133
0.74300,3.719375725
0.74350,4.024570133
0.74400,4.329764541
0.74450,4.024570133
0.74500,3.414181318
0.74550,2.498598094
0.74600,2.498598094
0.74650,2.498598094
0.74700,2.498598094
0.74750,2.803792502
0.74800,3.414181318
0.74850,4.329764541
0.74900,4.634958948
0.74950,4.024570133
0.75000,3.10898691
0.75050,2.803792502
0.75100,3.10898691
0.75150,4.024570133
0.75200,4.634958948
0.75250,4.940153356
0.75300,5.855736579
0.75350,6.771319802
0.75400,5.855736579
0.75450,3.719375725
0.75500,1.888209279
0.75550,1.888209279
0.75600,2.498598094
0.75650,2.193403687
0.75700,1.888209279
0.75750,3.10898691
0.75800,5.245347764
0.75850,5.550542171
0.75900,4.024570133
0.75950,3.414181318
0.76000,6.466125395
0.76050,10.7388471
0.76100,12.57001355
0.76150,12.26481914
0.76200,11.34923592
0.76250,11.04404151
0.76300,9.212875064
0.76350,4.634958948
0.76400,0.05704283282
0.76450,-2.079318021
0.76500,-2.079318021
0.76550,-1.468929206
0.76600,-1.468929206
0.76650,-2.994901244
0.76700,-6.046845321
0.76750,-9.403983806
0.76800,-8.793594991
0.76850,-1.468929206
0.76900,9.212875064
0.76950,18.06351289
0.77000,21.11545696
0.77050,20.19987374
0.77100,18.06351289
0.77150,15.31676322
0.77200,11.65443033
0.77250,8.907680656
0.77300,8.297291841
0.77350,9.212875064
0.77400,9.823263879
0.77450,8.297291841
0.77500,5.550542171
0.77550,3.719375725
0.77600,3.719375725
0.77650,3.414181318
0.77700,2.193403687
0.77750,0.3622372405
0.77800,0.05704283282
0.77850,1.583014871
0.77900,4.329764541
0.77950,7.381708618
0.78000,10.12845829
0.78050,11.34923592
0.78100,11.34923592
0.78150,12.26481914
0.78200,15.01156881
0.78250,18.97909611
0.78300,21.11545696
0.78350,21.42065137
0.78400,20.50506815
0.78450,18.97909611
0.78500,16.84273526
0.78550,14.09598559
0.78600,12.57001355
0.78650,10.43365269
0.78700,6.466125395
0.78750,0.9726260559
0.78800,-3.910484467
0.78850,-6.962428544
0.78900,-9.403983806
0.78950,-10.31956703
0.79000,-9.098789398
0.79050,-7.878011767
0.79100,-9.709178214
0.79150,-13.37151111
0.79200,-15.81306637
0.79250,-15.20267755
0.79300,-13.67670551
0.79350,-13.0663167
0.79400,-13.37151111
0.79450,-12.45592788
0.79500,-10.62476144
0.79550,-8.793594991
0.79600,-7.267622952
0.79650,-6.962428544
0.79700,-7.878011767
0.79750,-8.488400583
0.79800,-8.183206175
0.79850,-7.57281736
0.79900,-8.488400583
0.79950,-8.488400583
0.80000,-6.352039729
0.80050,-4.520873283
0.80100,-4.215678875
0.80150,-3.300095652
0.80200,0.05704283282
0.80250,4.024570133
0.80300,4.329764541
0.80350,3.10898691
0.80400,4.024570133
0.80450,6.160930987
0.80500,5.245347764
0.80550,3.10898691
0.80600,4.024570133
0.80650,5.855736579
0.80700,3.719375725
0.80750,2.193403687
0.80800,12.87520796
0.80850,39.12192702
0.80900,67.81020134
0.80950,84.59589377
0.81000,87.95303225
0.81050,84.90108817
0.81100,78.79720002
0.81150,69.33617338
0.81200,56.82320267
0.81250,43.69984313
0.81300,32.10245564
0.81350,20.19987374
0.81400,7.992097433
0.81450,-3.910484467
0.81500,-15.81306637
0.81550,-26.49487064
0.81600,-36.8714805
0.81650,-45.41692391
0.81700,-51.52081207
0.81750,-53.65717292
0.81800,-52.43639529
0.81850,-50.30003444
0.81900,-48.16367358
0.81950,-43.28056306
0.82000,-33.51434201
0.82050,-21.0013713
0.82100,-11.84553907
0.82150,-7.267622952
0.82200,-5.131262098
0.82250,-3.300095652
0.82300,-3.300095652
0.82350,-5.131262098
0.82400,-6.657234137
0.82450,-7.878011767
0.82500,-10.31956703
0.82550,-14.28709433
0.82600,-16.72864959
0.82650,-13.37151111
0.82700,-3.60529006
0.82750,9.212875064
0.82800,19.89467933
0.82850,26.3037619
0.82900,29.05051156
0.82950,30.5764836
0.83000,31.49206683
0.83050,30.5764836
0.83100,27.52453953
0.83150,25.69337308
0.83200,27.82973393
0.83250,30.5764836
0.83300,28.13492834
0.83350,18.06351289
0.83400,2.498598094
0.83450,-13.67670551
0.83500,-28.63123149
0.83550,-42.05978543
0.83600,-53.96236733
0.83650,-64.33897719
0.83700,-71.96883738
0.83750,-76.24155909
0.83800,-78.37791995
0.83850,-80.20908639
0.83900,-80.81947521
0.83950,-78.98830876
0.84000,-74.71558705
0.84050,-70.44286535
0.84100,-69.22208772
0.84150,-69.22208772
0.84200,-67.69611568
0.84250,-64.6441716
0.84300,-60.37144989
0.84350,-55.18314496
0.84400,-49.07925681
0.84450,-42.97536865
0.84500,-38.09225813
0.84550,-33.51434201
0.84600,-28.63123149
0.84650,-24.35850978
0.84700,-21.0013713
0.84750,-17.033844
0.84800,-12.15073348
0.84850,-7.267622952
0.84900,-3.910484467
0.84950,-2.384512429
0.85000,-1.163734798
0.85050,0.05704283282
0.85100,1.583014871
0.85150,4.634958948
0.85200,7.992097433
0.85250,9.823263879
0.85300,10.7388471
0.85350,13.18040236
0.85400,18.36870729
0.85450,24.16740104
0.85500,29.05051156
0.85550,32.71284446
0.85600,34.5440109
0.85650,35.45959413
0.85700,35.15439972
0.85750,34.2388165
0.85800,30.2712892
0.85850,23.55701223
0.85900,18.97909611
0.85950,22.03104019
0.86000,32.10245564
0.86050,41.25828787
0.86100,44.00503754
0.86150,40.34270465
0.86200,32.40765005
0.86250,23.25181782
0.86300,18.36870729
0.86350,22.641429
0.86400,32.71284446
0.86450,40.64789906
0.86500,42.4790655
0.86550,42.78425991
0.86600,44.92062076
0.86650,45.22581517
0.86700,39.12192702
0.86750,28.74531716
0.86800,19.28429052
0.86850,13.18040236
0.86900,8.602486248
0.86950,3.719375725
0.87000,-1.468929206
0.87050,-5.741650914
0.87100,-6.962428544
0.87150,-5.741650914
0.87200,-4.82606769
0.87250,-4.82606769
0.87300,-3.300095652
0.87350,0.3622372405
0.87400,3.414181318
0.87450,5.855736579
0.87500,16.84273526
0.87550,44.92062076
0.87600,83.37511614
0.87650,113.2841681
0.87700,124.5763612
0.87750,121.5244171
0.87800,113.5893625
0.87850,101.6867806
0.87900,84.59589377
0.87950,64.75825727
0.88000,46.1413984
0.88050,27.82973393
0.88100,7.07651421
0.88150,-15.81306637
0.88200,-37.78706372
0.88250,-56.40392259
0.88300,-72.5792262
0.88350,-87.22855777
0.88400,-98.82594526
0.88450,-103.4038614
0.88500,-99.13113967
0.88550,-88.4493354
0.88600,-75.93636468
0.88650,-64.33897719
0.88700,-54.26756174
0.88750,-46.63770155
0.88800,-42.36497984
0.88850,-39.31303576
0.88900,-35.65070287
0.88950,-32.29356438
0.89000,-30.46239794
0.89050,-27.10525945
0.89100,-16.72864959
0.89150,0.05704283282
0.89200,14.7063744
0.89250,20.19987374
0.89300,19.89467933
0.89350,19.89467933
0.89400,18.6739017
0.89450,12.26481914
0.89500,1.277820464
0.89550,-8.183206175
0.89600,-15.50787196
0.89650,-23.44292656
0.89700,-31.98836998
0.89750,-39.00784135
0.89800,-43.89095188
0.89850,-47.85847918
0.89900,-51.52081207
0.89950,-53.35197851
0.90000,-52.7415897
0.90050,-50.60522885
0.90100,-45.11172951
0.90150,-33.51434201
0.90200,-17.64423281
0.90250,-3.60529006
0.90300,3.719375725
0.90350,5.245347764
0.90400,3.10898691
0.90450,-0.5533459826
0.90500,-5.131262098
0.90550,-10.92995584
0.90600,-17.64423281
0.90650,-24.66370419
0.90700,-29.85200912
0.90750,-31.37798116
0.90800,-31.68317557
0.90850,-31.98836998
0.90900,-32.29356438
0.90950,-30.76759235
0.91000,-27.41045386
0.91050,-23.13773215
0.91100,-18.55981604
0.91150,-14.28709433
0.91200,-10.31956703
0.91250,-8.183206175
0.91300,-7.878011767
0.91350,-8.488400583
0.91400,-9.098789398
0.91450,-9.709178214
0.91500,-10.62476144
0.91550,-11.23515025
0.91600,-10.92995584
0.91650,-8.793594991
0.91700,-4.520873283
0.91750,0.05704283282
0.91800,4.634958948
0.91850,10.12845829
0.91900,15.92715203
0.91950,19.89467933
0.92000,19.58948493
0.92050,18.06351289
0.92100,18.97909611
0.92150,21.42065137
0.92200,23.25181782
0.92250,25.38817867
0.92300,29.35570597
0.92350,32.10245564
0.92400,30.5764836
0.92450,29.05051156
0.92500,36.98556616
0.92550,54.3816474
0.92600,70.55695101
0.92650,76.05045035
0.92700,74.2192839
0.92750,71.47253423
0.92800,67.81020134
0.92850,60.18034115
0.92900,49.80373129
0.92950,40.64789906
0.93000,31.18687242
0.93050,19.58948493
0.93100,9.212875064
0.93150,4.024570133
0.93200,2.498598094
0.93250,0.05704283282
0.93300,-4.82606769
0.93350,-8.183206175
0.93400,-9.098789398
0.93450,-7.878011767
0.93500,-2.689706836
0.93550,9.212875064
0.93600,25.99856749
0.93650,40.34270465
0.93700,48.88814807
0.93750,50.4141201
0.93800,45.22581517
0.93850,35.76478853
0.93900,26.6089563
0.93950,20.50506815
0.94000,14.7063744
0.94050,9.823263879
0.94100,15.31676322
0.94150,39.73231583
0.94200,76.05045035
0.94250,106.5698911
0.94300,119.6932507
0.94350,118.7776674
0.94400,112.0633905
0.94450,103.2127526
0.94500,91.00497633
0.94550,76.66083917
0.94600,61.09592437
0.94650,45.22581517
0.94700,31.79726123
0.94750,22.03104019
0.94800,13.79079118
0.94850,3.719375725
0.94900,-9.098789398
0.94950,-24.05331538
0.95000,-39.31303576
0.95050,-53.04678411
0.95100,-62.50781075
0.95150,-67.08572686
0.95200,-70.74805975
0.95250,-76.85194791
0.95300,-84.78700251
0.95350,-90.58569625
0.95400,-94.24802915
0.95450,-96.07919559
0.95500,-96.38439
0.95550,-94.24802915
0.95600,-91.50127948
0.95650,-90.28050185
0.95700,-87.53375218
0.95750,-80.5142808
0.95800,-70.44286535
0.95850,-60.98183871
0.95900,-53.35197851
0.95950,-45.11172951
0.96000,-35.95589728
0.96050,-27.41045386
0.96100,-18.86501044
0.96150,-9.098789398
0.96200,1.277820464
0.96250,11.04404151
0.96300,18.97909611
0.96350,25.08298426
0.96400,28.13492834
0.96450,26.91415071
0.96500,22.3362346
0.96550,16.84273526
0.96600,11.65443033
0.96650,5.550542171
0.96700,-1.774123613
0.96750,-7.878011767
0.96800,-11.23515025
0.96850,-13.0663167
0.96900,-15.20267755
0.96950,-17.33903841
0.97000,-18.86501044
0.97050,-19.17020485
0.97100,-18.55981604
0.97150,-17.33903841
0.97200,-14.89748314
0.97250,-12.15073348
0.97300,-8.793594991
0.97350,-5.436456506
0.97400,-3.300095652
0.97450,-1.774123613
0.97500,-0.5533459826
0.97550,0.9726260559
0.97600,3.414181318
0.97650,5.245347764
0.97700,6.160930987
0.97750,7.07651421
0.97800,7.07651421
0.97850,6.160930987
0.97900,4.024570133
0.97950,1.277820464
0.98000,-0.8585403903
0.98050,-3.300095652
0.98100,-4.82606769
0.98150,-4.215678875
0.98200,-2.994901244
0.98250,-2.384512429
0.98300,-2.994901244
0.98350,-3.910484467
0.98400,-3.300095652
0.98450,-1.468929206
0.98500,0.3622372405
0.98550,1.888209279
0.98600,2.803792502
0.98650,3.719375725
0.98700,5.245347764
0.98750,7.381708618
0.98800,9.823263879
0.98850,11.34923592
0.98900,11.65443033
0.98950,11.95962473
0.99000,12.87520796
0.99050,13.48559677
0.99100,13.79079118
0.99150,14.09598559
0.99200,15.01156881
0.99250,15.62195763
0.99300,15.01156881
0.99350,14.09598559
0.99400,14.09598559
0.99450,14.7063744
0.99500,14.7063744
0.99550,14.40117999
0.99600,13.79079118
0.99650,13.48559677
0.99700,13.48559677
0.99750,13.48559677
0.99800,13.18040236
0.99850,12.26481914
0.99900,11.95962473
0.99950,12.57001355
1.00000,13.18040236
1.00050,13.18040236
1.00100,12.87520796
1.00150,12.57001355
1.00200,12.57001355
1.00250,11.95962473
1.00300,10.7388471
1.00350,9.823263879
1.00400,9.212875064
1.00450,8.602486248
1.00500,7.686903025
1.00550,7.992097433
1.00600,8.907680656
1.00650,9.518069472
1.00700,9.518069472
1.00750,9.518069472
1.00800,9.518069472
1.00850,9.518069472
1.00900,9.518069472
1.00950,8.907680656
1.01000,8.602486248
1.01050,8.907680656
1.01100,9.823263879
1.01150,10.43365269
1.01200,10.12845829
1.01250,8.907680656
1.01300,8.602486248
1.01350,9.212875064
1.01400,9.823263879
1.01450,9.212875064
1.01500,7.992097433
1.01550,7.07651421
1.01600,6.466125395
1.01650,5.855736579
1.01700,5.855736579
1.01750,6.466125395
1.01800,6.466125395
1.01850,5.245347764
1.01900,4.329764541
1.01950,4.024570133
1.02000,4.024570133
1.02050,3.719375725
1.02100,3.10898691
1.02150,2.803792502
1.02200,2.803792502
1.02250,2.803792502
1.02300,3.10898691
1.02350,4.329764541
1.02400,4.634958948
1.02450,3.10898691
1.02500,1.277820464
1.02550,1.277820464
1.02600,2.498598094
1.02650,2.193403687
1.02700,0.6674316482
1.02750,-0.2481515749
1.02800,-0.2481515749
1.02850,0.05704283282
1.02900,0.05704283282
1.02950,0.05704283282
1.03000,-0.5533459826
1.03050,-1.163734798
1.03100,-2.079318021
1.03150,-1.468929206
1.03200,-0.5533459826
1.03250,-0.5533459826
1.03300,-1.468929206
1.03350,-1.774123613
1.03400,-0.5533459826
1.03450,0.05704283282
1.03500,0.05704283282
1.03550,0.05704283282
1.03600,0.6674316482
1.03650,0.6674316482
1.03700,-0.5533459826
1.03750,-1.774123613
1.03800,-0.2481515749
1.03850,1.277820464
1.03900,0.3622372405
1.03950,-1.774123613
1.04000,-2.384512429
1.04050,-0.5533459826
1.04100,0.3622372405
1.04150,-0.2481515749
1.04200,-1.163734798
1.04250,-1.163734798
1.04300,-0.8585403903
1.04350,-1.163734798
1.04400,-2.079318021
1.04450,-2.079318021
1.04500,-2.079318021
1.04550,-2.384512429
1.04600,-2.079318021
1.04650,-1.468929206
1.04700,-1.163734798
1.04750,-1.163734798
1.04800,-2.384512429
1.04850,-4.215678875
1.04900,-4.82606769
1.04950,-2.689706836
1.05000,0.05704283282
1.05050,-0.2481515749
1.05100,-5.436456506
1.05150,-10.01437262
1.05200,-9.403983806
1.05250,-6.352039729
1.05300,-4.215678875
1.05350,0.05704283282
1.05400,11.34923592
1.05450,25.99856749
1.05500,36.98556616
1.05550,43.39464873
1.05600,51.32970333
1.05650,61.70631319
1.05700,67.81020134
1.05750,65.9790349
1.05800,58.95956352
1.05850,49.49853688
1.05900,36.68037176
1.05950,20.81026256
1.06000,6.466125395
1.06050,-4.215678875
1.06100,-13.98189992
1.06150,-23.74812097
1.06200,-31.68317557
1.06250,-37.17667491
1.06300,-42.67017425
1.06350,-47.24809036
1.06400,-46.02731273
1.06450,-37.48186931
1.06500,-27.41045386
1.06550,-21.91695452
1.06600,-20.08578808
1.06650,-16.72864959
1.06700,-10.62476144
1.06750,-4.520873283
1.06800,-1.468929206
1.06850,-0.8585403903
1.06900,1.888209279
1.06950,12.87520796
1.07000,32.40765005
1.07050,54.076453
1.07100,68.72578457
1.07150,71.47253423
1.07200,64.45306286
1.07250,54.076453
1.07300,46.4465928
1.07350,46.75178721
1.07400,54.3816474
1.07450,62.0115076
1.07500,60.18034115
1.07550,47.66737043
1.07600,32.40765005
1.07650,21.72584578
1.07700,14.09598559
1.07750,5.245347764
1.07800,-4.215678875
1.07850,-12.76112229
1.07900,-20.39098248
1.07950,-29.24162031
1.08000,-37.48186931
1.08050,-41.75459102
1.08100,-42.05978543
1.08150,-40.8390078
1.08200,-37.78706372
1.08250,-31.37798116
1.08300,-24.66370419
1.08350,-22.52734334
1.08400,-23.44292656
1.08450,-21.0013713
1.08500,-13.98189992
1.08550,-10.62476144
1.08600,-16.42345518
1.08650,-23.44292656
1.08700,-22.22214893
1.08750,-16.42345518
1.08800,-19.17020485
1.08850,-34.73511965
1.08900,-53.96236733
1.08950,-69.22208772
1.09000,-83.56622488
1.09050,-100.9623061
1.09100,-116.2220265
1.09150,-118.6635818
1.09200,-105.2350278
1.09250,-83.87141929
1.09300,-64.94936601
1.09350,-51.21561766
1.09400,-39.31303576
1.09450,-25.27409301
1.09500,-12.15073348
1.09550,-5.131262098
1.09600,-2.994901244
1.09650,0.6674316482
1.09700,9.212875064
1.09750,15.31676322
1.09800,16.84273526
1.09850,25.08298426
1.09900,47.97256484
1.09950,74.52447831
1.10000,81.54394969
1.10050,63.23228523
1.10100,36.98556616
1.10150,18.6739017
1.10200,6.466125395
1.10250,-9.709178214
1.10300,-31.07278675
1.10350,-49.07925681
1.10400,-57.92989463
1.10450,-58.84547785
1.10500,-53.35197851
1.10550,-42.97536865
1.10600,-30.76759235
1.10650,-19.78059367
1.10700,-9.098789398
1.10750,3.719375725
1.10800,17.45312407
1.10850,27.82973393
1.10900,30.5764836
1.10950,23.55701223
1.11000,7.07651421
1.11050,-16.11826078
1.11100,-42.67017425
1.11150,-70.13767094
1.11200,-98.52075085
1.11250,-128.1246084
1.11300,-154.0661331
1.11350,-169.9362423
1.11400,-174.8193528
1.11450,-174.208964
1.11500,-171.4622143
1.11550,-161.3907988
1.11600,-142.1635512
1.11650,-119.579165
1.11700,-99.13113967
1.11750,-77.76753113
1.11800,-52.43639529
1.11850,-29.24162031
1.11900,-14.28709433
1.11950,6.160930987
1.12000,55.29723063
1.12050,131.901027
1.12100,200.5697687
1.12150,228.6476542
1.12200,216.7450723
1.12250,188.056798
1.12300,154.7906075
1.12350,113.8945569
1.12400,65.9790349
1.12450,21.11545696
1.12500,-12.45592788
1.12550,-38.70264695
1.12600,-63.72858838
1.12650,-87.53375218
1.12700,-103.098667
1.12750,-104.624639
1.12800,-92.4168627
1.12850,-75.63117028
1.12900,-62.20261634
1.12950,-53.04678411
1.13000,-43.28056306
1.13050,-31.07278675
1.13100,-22.22214893
1.13150,-20.39098248
1.13200,-22.22214893
1.13250,-23.13773215
1.13300,-23.13773215
1.13350,-25.57928741
1.13400,-29.54681471
1.13450,-31.37798116
1.13500,-29.24162031
1.13550,-21.91695452
1.13600,-8.488400583
1.13650,8.297291841
1.13700,22.641429
1.13750,29.05051156
1.13800,29.35570597
1.13850,25.69337308
1.13900,16.84273526
1.13950,1.277820464
1.14000,-14.59228874
1.14050,-22.52734334
1.14100,-22.83253774
1.14150,-24.66370419
1.14200,-34.42992524
1.14250,-47.55328477
1.14300,-57.92989463
1.14350,-64.6441716
1.14400,-69.22208772
1.14450,-68.6116989
1.14500,-60.37144989
1.14550,-47.85847918
1.14600,-36.56628609
1.14650,-26.18967623
1.14700,-10.92995584
1.14750,10.7388471
1.14800,31.79726123
1.14850,45.22581517
1.14900,54.68684181
1.14950,70.55695101
1.15000,97.7192533
1.15050,129.1542773
1.15100,151.7386635
1.15150,158.147746
1.15200,154.1802187
1.15250,150.8230802
1.15300,148.6867194
1.15350,140.141276
1.15400,120.3036395
1.15450,97.41405889
1.15500,82.1543385
1.15550,75.74525594
1.15600,70.55695101
1.15650,59.56995233
1.15700,42.4790655
1.15750,19.89467933
1.15800,-4.215678875
1.15850,-25.57928741
1.15900,-43.89095188
1.15950,-63.11819956
1.16000,-83.87141929
1.16050,-99.13113967
1.16100,-103.098667
1.16150,-100.6571117
1.16200,-97.91036204
1.16250,-91.19608507
1.16300,-73.49480942
1.16350,-46.63770155
1.16400,-18.86501044
1.16450,6.771319802
1.16500,35.15439972
1.16550,65.9790349
1.16600,93.751726
1.16650,114.5049457
1.16700,125.4919444
1.16750,124.5763612
1.16800,112.0633905
1.16850,93.44653159
1.16900,72.99850627
1.16950,47.97256484
1.17000,17.14792966
1.17050,-11.54034466
1.17100,-34.12473083
1.17150,-54.57275615
1.17200,-70.74805975
1.17250,-62.50781075
1.17300,-17.033844
1.17350,47.36217603
1.17400,100.1608086
1.17450,130.0698605
1.17500,146.2451641
1.17550,152.3490523
1.17600,142.5828312
1.17650,122.1348059
1.17700,101.3815862
1.17750,72.99850627
1.17800,21.42065137
1.17850,-44.50134069
1.17900,-95.16361237
1.17950,-114.6960545
1.18000,-121.7155258
1.18050,-135.4492742
1.18100,-150.0986058
1.18150,-149.7934113
1.18200,-133.6181077
1.18250,-109.8129439
1.18300,-80.81947521
1.18350,-46.94289595
1.18400,-15.50787196
1.18450,2.498598094
1.18500,7.07651421
1.18550,5.245347764
1.18600,3.414181318
1.18650,3.414181318
1.18700,6.160930987
1.18750,10.12845829
1.18800,13.79079118
1.18850,15.01156881
1.18900,15.92715203
1.18950,18.6739017
1.19000,24.16740104
1.19050,31.18687242
1.19100,36.98556616
1.19150,37.59595498
1.19200,29.35570597
1.19250,12.26481914
1.19300,-10.31956703
1.19350,-28.9364259
1.19400,-28.9364259
1.19450,-2.994901244
1.19500,37.59595498
1.19550,72.38811746
1.19600,89.7841987
1.19650,95.27769804
1.19700,94.66730922
1.19750,84.59589377
1.19800,63.84267404
1.19850,40.34270465
1.19900,24.47259545
1.19950,18.06351289
1.20000,19.58948493
1.20050,28.74531716
1.20100,43.39464873
1.20150,54.99203622
1.20200,58.0439803
1.20250,57.43359148
1.20300,56.51800826
1.20350,50.71931451
1.20400,34.5440109
1.20450,12.87520796
1.20500,-6.962428544
1.20550,-25.57928741
1.20600,-46.63770155
1.20650,-68.6116989
1.20700,-86.00778014
1.20750,-96.99477882
1.20800,-101.5726949
1.20850,-99.13113967
1.20900,-90.58569625
1.20950,-79.90389198
1.21000,-68.91689331
1.21050,-55.79353378
1.21100,-39.61823017
1.21150,-23.74812097
1.21200,-10.01437262
1.21250,2.498598094
1.21300,11.95962473
1.21350,14.09598559
1.21400,10.43365269
1.21450,11.04404151
1.21500,17.75831848
1.21550,21.42065137
1.21600,16.23234644
1.21650,9.212875064
1.21700,5.855736579
1.21750,2.498598094
1.21800,-2.079318021
1.21850,0.05704283282
1.21900,16.23234644
1.21950,37.90114939
1.22000,57.43359148
1.22050,77.8816168
1.22100,102.9075582
1.22150,125.4919444
1.22200,141.9724424
1.22250,166.387995
1.22300,211.8619618
1.22350,264.6605943
1.22400,295.4852295
1.22450,291.8228966
1.22500,264.9657887
1.22550,226.2060989
1.22600,174.9334384
1.22650,112.6737793
1.22700,48.27775925
1.22750,-10.01437262
1.22800,-60.6766443
1.22850,-99.13113967
1.22900,-118.9687762
1.22950,-123.5466923
1.23000,-122.0207202
1.23050,-113.4752768
1.23100,-86.61816895
1.23150,-38.39745254
1.23200,14.7063744
1.23250,52.55048096
1.23300,66.58942371
1.23350,58.65436911
1.23400,32.40765005
1.23450,-5.741650914
1.23500,-46.94289595
1.23550,-83.26103047
1.23600,-112.5596936
1.23650,-130.2609693
1.23700,-128.1246084
1.23750,-104.624639
1.23800,-70.44286535
1.23850,-37.78706372
1.23900,-10.62476144
1.23950,8.602486248
1.24000,15.92715203
1.24050,10.7388471
1.24100,4.634958948
1.24150,6.771319802
1.24200,9.212875064
1.24250,-4.215678875
1.24300,-38.09225813
1.24350,-80.5142808
1.24400,-120.1895538
1.24450,-155.2869107
1.24500,-186.4167403
1.24550,-208.695932
1.24600,-218.1569587
1.24650,-217.2413755
1.24700,-210.2219041
1.24750,-198.929711
1.24800,-184.8907682
1.24850,-170.5466311
1.24900,-154.0661331
1.24950,-129.6505804
1.25000,-96.68958441
1.25050,-64.94936601
1.25100,-43.28056306
1.25150,-28.9364259
1.25200,-14.28709433
1.25250,0.05704283282
1.25300,7.686903025
1.25350,6.771319802
1.25400,3.719375725
1.25450,5.550542171
1.25500,10.7388471
1.25550,12.87520796
1.25600,7.686903025
1.25650,-0.8585403903
1.25700,-6.657234137
1.25750,-6.657234137
1.25800,-5.131262098
1.25850,-6.962428544
1.25900,-8.793594991
1.25950,-4.215678875
1.26000,1.583014871
1.26050,-0.8585403903
1.26100,-10.01437262
1.26150,-7.878011767
1.26200,17.14792966
1.26250,53.77125859
1.26300,80.62836647
1.26350,91.31017074
1.26400,93.44653159
1.26450,90.69978192
1.26500,80.32317206
1.26550,63.84267404
1.26600,51.02450892
1.26650,46.1413984
1.26700,45.83620399
1.26750,47.97256484
1.26800,55.29723063
1.26850,68.42059016
1.26900,82.76472732
1.26950,95.88808685
1.27000,109.0114464
1.27050,125.4919444
1.27100,148.381525
1.27150,178.9009657
1.27200,210.3359897
1.27250,227.4268766
1.27300,218.5762387
1.27350,189.58277
1.27400,152.6542467
1.27450,110.5374184
1.27500,59.26475793
1.27550,5.855736579
1.27600,-30.15720353
1.27650,-39.92342458
1.27700,-35.34550846
1.27750,-35.95589728
1.27800,-46.33250714
1.27850,-57.62470022
1.27900,-63.11819956
1.27950,-66.78053245
1.28000,-73.18961502
1.28050,-81.73505843
1.28100,-86.31297455
1.28150,-84.78700251
1.28200,-79.29350317
1.28250,-71.05325416
1.28300,-58.54028345
1.28350,-40.53381339
1.28400,-21.0013713
1.28450,-6.046845321
1.28500,5.245347764
1.28550,19.58948493
1.28600,38.5115382
1.28650,51.63489773
1.28700,52.55048096
1.28750,53.46606418
1.28800,70.55695101
1.28850,95.88808685
1.28900,96.80367007
1.28950,57.12839707
1.29000,-2.079318021
1.29050,-50.60522885
1.29100,-86.00778014
1.29150,-124.4622755
1.29200,-159.8648268
1.29250,-164.1375485
1.29300,-128.1246084
1.29350,-78.07272554
1.29400,-35.95589728
1.29450,4.024570133
1.29500,54.3816474
1.29550,104.4335303
1.29600,140.141276
1.29650,166.6931894
1.29700,193.8554917
1.29750,213.9983226
1.29800,214.303517
1.29850,203.9269072
1.29900,195.0762694
1.29950,177.9853825
1.30000,135.8685543
1.30050,80.32317206
1.30100,41.86867669
1.30150,26.6089563
1.30200,14.09598559
1.30250,-3.300095652
1.30300,-13.37151111
1.30350,-11.54034466
1.30400,-16.11826078
1.30450,-38.39745254
1.30500,-67.08572686
1.30550,-89.05972422
1.30600,-105.2350278
1.30650,-118.9687762
1.30700,-125.9882475
1.30750,-123.8518867
1.30800,-117.4428041
1.30850,-109.5077495
1.30900,-100.0467229
1.30950,-96.99477882
1.31000,-105.2350278
1.31050,-112.5596936
1.31100,-100.6571117
1.31150,-75.93636468
1.31200,-68.6116989
1.31250,-96.38439
1.31300,-146.7414673
1.31350,-196.1829613
1.31400,-233.7218735
1.31450,-254.1698988
1.31500,-256.0010652
1.31550,-246.845233
1.31600,-241.3517337
1.31650,-240.7413448
1.31700,-229.4491518
1.31750,-198.3193222
1.31800,-157.1180771
1.31850,-116.2220265
1.31900,-70.74805975
1.31950,-16.11826078
1.32000,34.84920531
1.32050,65.36864608
1.32100,74.82967272
1.32150,77.57642239
1.32200,79.40758884
1.32250,73.60889509
1.32300,56.82320267
1.32350,37.90114939
1.32400,22.641429
1.32450,5.245347764
1.32500,-19.47539926
1.32550,-41.14420221
1.32600,-49.38445121
1.32650,-53.65717292
1.32700,-68.91689331
1.32750,-86.00778014
1.32800,-74.41039265
1.32850,-26.80006504
1.32900,29.05051156
1.32950,71.47253423
1.33000,114.1997513
1.33050,173.7126608
1.33100,231.0892095
1.33150,250.0112627
1.33200,223.1541549
1.33250,174.3230496
1.33300,122.4400003
1.33350,72.38811746
1.33400,31.79726123
1.33450,10.43365269
1.33500,3.414181318
1.33550,-3.60529006
1.33600,-14.59228874
1.33650,-20.69617689
1.33700,-20.39098248
1.33750,-17.33903841
1.33800,-3.60529006
1.33850,30.2712892
1.33900,74.2192839
1.33950,106.2646967
1.34000,125.4919444
1.34050,149.6023026
1.34100,181.6477154
1.34150,203.9269072
1.34200,207.8944345
1.34250,208.1996289
1.34300,214.9139059
1.34350,217.0502667
1.34400,205.7580736
1.34450,191.4139365
1.34500,182.5632986
1.34550,163.336051
1.34600,114.5049457
1.34650,39.42712143
1.34700,-41.14420221
1.34750,-117.4428041
1.34800,-192.215434
1.34850,-262.7153422
1.34900,-312.4620307
1.34950,-326.5009734
1.35000,-303.9165872
1.35050,-259.6633981
1.35100,-214.7998202
1.35150,-186.1115459
1.35200,-172.3777975
1.35250,-154.9817163
1.35300,-118.3583874
1.35350,-69.52728212
1.35400,-34.42992524
1.35450,-25.88448182
1.35500,-27.41045386
1.35550,-8.488400583
1.35600,40.64789906
1.35650,101.6867806
1.35700,147.1607473
1.35750,165.7776062
1.35800,165.4724118
1.35850,156.621774
1.35900,141.667248
1.35950,117.8620842
1.36000,87.34264344
1.36050,58.0439803
1.36100,37.29076057
1.36150,23.86220663
1.36200,10.12845829
1.36250,-10.01437262
1.36300,-36.56628609
1.36350,-58.84547785
1.36400,-66.17014364
1.36450,-54.26756174
1.36500,-29.85200912
1.36550,-5.436456506
1.36600,7.07651421
1.36650,6.466125395
1.36700,-2.079318021
1.36750,-16.42345518
1.36800,-39.61823017
1.36850,-72.88442061
1.36900,-107.9817775
1.36950,-135.1440798
1.37000,-151.9297722
1.37050,-162.9167709
1.37100,-169.3258534
1.37150,-167.494687
1.37200,-156.8128827
1.37250,-140.9427735
1.37300,-122.0207202
1.37350,-98.82594526
1.37400,-75.63117028
1.37450,-60.06625548
1.37500,-53.04678411
1.37550,-46.02731273
1.37600,-33.81953642
1.37650,-22.22214893
1.37700,-17.033844
1.37750,-18.55981604
1.37800,-22.83253774
1.37850,-28.02084268
1.37900,-29.54681471
1.37950,-24.05331538
1.38000,-15.81306637
1.38050,-12.45592788
1.38100,-7.878011767
1.38150,8.602486248
1.38200,31.79726123
1.38250,41.25828787
1.38300,35.45959413
1.38350,44.61542636
1.38400,92.22575396
1.38450,162.4204677
1.38500,217.6606555
1.38550,239.0242641
1.38600,234.1411535
1.38650,216.7450723
1.38700,193.8554917
1.38750,170.6607167
1.38800,151.1282746
1.38850,134.952971
1.38900,119.9984451
1.38950,105.3491135
1.39000,86.73225462
1.39050,57.73878589
1.39100,26.3037619
1.39150,15.92715203
1.39200,36.06998294
1.39250,65.67384049
1.39300,76.96603357
1.39350,66.89461812
1.39400,53.46606418
1.39450,47.36217603
1.39500,44.61542636
1.39550,38.81673261
1.39600,32.40765005
1.39650,31.49206683
1.39700,47.97256484
1.39750,90.69978192
1.39800,146.5503585
1.39850,180.7321322
1.39900,167.3035783
1.39950,119.9984451
1.40000,74.82967272
1.40050,48.58295366
1.40100,27.82973393
1.40150,-1.163734798
1.40200,-29.85200912
1.40250,-39.00784135
1.40300,-24.9688986
1.40350,-0.8585403903
1.40400,12.57001355
1.40450,1.583014871
1.40500,-38.39745254
1.40550,-96.99477882
1.40600,-150.4038002
1.40650,-177.5661024
1.40700,-175.1245472
1.40750,-158.0336604
1.40800,-140.6375791
1.40850,-125.6830531
1.40900,-109.8129439
1.40950,-95.16361237
1.41000,-87.83894659
1.41050,-88.75452981
1.41100,-89.67011303
1.41150,-79.90389198
1.41200,-54.26756174
1.41250,-14.89748314
1.41300,33.62842768
1.41350,81.54394969
1.41400,114.5049457
1.41450,123.0503891
1.41500,113.2841681
1.41550,100.1608086
1.41600,92.83614277
1.41650,87.03744903
1.41700,72.38811746
1.41750,43.39464873
1.41800,1.583014871
1.41850,-46.33250714
1.41900,-93.02725152
1.41950,-132.3973301
1.42000,-159.5596324
1.42050,-172.3777975
1.42100,-171.1570199
1.42150,-159.254438
1.42200,-143.3843288
1.42250,-128.4298028
1.42300,-115.6116377
1.42350,-102.4882782
1.42400,-90.58569625
1.42450,-82.04025284
1.42500,-77.76753113
1.42550,-75.93636468
1.42600,-76.24155909
1.42650,-82.04025284
1.42700,-96.07919559
1.42750,-117.1376097
1.42800,-139.7219959
1.42850,-156.5076883
1.42900,-160.78041
1.42950,-152.8453554
1.43000,-137.2804406
1.43050,-117.1376097
1.43100,-89.05972422
1.43150,-54.87795055
1.43200,-25.27409301
1.43250,-10.01437262
1.43300,-4.520873283
1.43350,5.245347764
1.43400,22.641429
1.43450,35.15439972
1.43500,32.10245564
1.43550,16.84273526
1.43600,-0.5533459826
1.43650,-13.0663167
1.43700,-17.33903841
1.43750,-15.50787196
1.43800,-15.81306637
1.43850,-21.61176011
1.43900,-21.0013713
1.43950,3.414181318
1.44000,50.1089257
1.44050,95.88808685
1.44100,122.7451947
1.44150,132.8166102
1.44200,138.0049151
1.44250,141.9724424
1.44300,145.3295809
1.44350,153.2646355
1.44400,168.5243559
1.44450,181.0373266
1.44500,178.2905769
1.44550,161.5048845
1.44600,142.2776368
1.44650,124.5763612
1.44700,99.55041974
1.44750,63.84267404
1.44800,25.08298426
1.44850,-8.488400583
1.44900,-41.75459102
1.44950,-77.46233672
1.45000,-103.4038614
1.45050,-104.0142502
1.45100,-84.17661369
1.45150,-66.17014364
1.45200,-57.01431141
1.45250,-38.70264695
1.45300,-2.079318021
1.45350,29.05051156
1.45400,31.18687242
1.45450,21.42065137
1.45500,39.42712143
1.45550,91.00497633
1.45600,138.9204983
1.45650,151.4334691
1.45700,133.7321934
1.45750,102.2971694
1.45800,57.73878589
1.45850,-3.60529006
1.45900,-71.05325416
1.45950,-129.345386
1.46000,-176.6505192
1.46050,-215.1050146
1.46100,-236.7738175
1.46150,-237.3842064
1.46200,-226.7024021
1.46250,-214.1894314
1.46300,-194.9621837
1.46350,-161.6959932
1.46400,-122.3259147
1.46450,-87.22855777
1.46500,-57.62470022
1.46550,-31.37798116
1.46600,-14.28709433
1.46650,-3.300095652
1.46700,19.58948493
1.46750,62.92709082
1.46800,104.4335303
1.46850,117.5568898
1.46900,109.6218352
1.46950,109.6218352
1.47000,127.3231108
1.47050,144.7191921
1.47100,145.6347753
1.47150,133.7321934
1.47200,119.0828618
1.47250,102.6023638
1.47300,83.06992173
1.47350,64.14786845
1.47400,51.32970333
1.47450,45.83620399
1.47500,44.92062076
1.47550,42.78425991
1.47600,36.98556616
1.47650,32.71284446
1.47700,36.68037176
1.47750,48.58295366
1.47800,61.70631319
1.47850,76.66083917
1.47900,98.63483652
1.47950,123.660778
1.48000,139.2256927
1.48050,145.9399697
1.48100,159.9789125
1.48150,186.8360203
1.48200,210.9463786
1.48250,217.3554611
1.48300,205.4528792
1.48350,176.1542161
1.48400,124.2711668
1.48450,59.26475793
1.48500,11.04404151
1.48550,1.277820464
1.48600,14.09598559
1.48650,19.89467933
1.48700,8.297291841
1.48750,-8.793594991
1.48800,-19.17020485
1.48850,-12.45592788
1.48900,18.6739017
1.48950,68.11539575
1.49000,106.2646967
1.49050,103.517947
1.49100,58.95956352
1.49150,-8.183206175
1.49200,-85.09219692
1.49250,-166.5791038
1.49300,-243.7932889
1.49350,-303.3061984
1.49400,-342.0658882
1.49450,-367.0918296
1.49500,-379.2996059
1.49550,-374.111301
1.49600,-351.8321092
1.49650,-321.3126685
1.49700,-286.520506
1.49750,-244.0984833
1.49800,-192.8258228
1.49850,-140.6375791
1.49900,-99.43633408
1.49950,-75.02078146
1.50000,-64.03378278
1.50050,-56.40392259
1.50100,-43.58575747
1.50150,-24.9688986
1.50200,-6.962428544
1.50250,7.07651421
1.50300,22.3362346
1.50350,40.34270465
1.50400,57.43359148
1.50450,70.55695101
1.50500,83.37511614
1.50550,99.85561415
1.50600,116.3361122
1.50650,126.712722
1.50700,130.3750549
1.50750,129.1542773
1.50800,119.3880562
1.50850,97.10886448
1.50900,67.81020134
1.50950,43.69984313
1.51000,27.52453953
1.51050,10.12845829
1.51100,-13.37151111
1.51150,-36.56628609
1.51200,-50.30003444
1.51250,-56.40392259
1.51300,-63.11819956
1.51350,-71.05325416
1.51400,-72.5792262
1.51450,-64.33897719
1.51500,-50.91042325
1.51550,-38.39745254
1.51600,-26.80006504
1.51650,-10.31956703
1.51700,12.87520796
1.51750,41.86867669
1.51800,70.55695101
1.51850,91.00497633
1.51900,99.24522534
1.51950,96.80367007
1.52000,88.86861547
1.52050,78.79720002
1.52100,67.50500693
1.52150,56.21281385
1.52200,48.88814807
1.52250,48.88814807
1.52300,57.73878589
1.52350,72.08292305
1.52400,86.1218658
1.52450,91.31017074
1.52500,87.34264344
1.52550,85.51147699
1.52600,106.2646967
1.52650,159.0633292
1.52700,229.258043
1.52750,284.8034252
1.52800,303.7254785
1.52850,293.0436742
1.52900,277.4787594
1.52950,267.407344
1.53000,251.8424292
1.53050,218.8814332
1.53100,176.4594105
1.53150,140.7516648
1.53200,110.5374184
1.53250,68.11539575
1.53300,6.466125395
1.53350,-61.89742193
1.53400,-121.105137
1.53450,-166.8842982
1.53500,-201.6764607
1.53550,-221.2089028
1.53600,-220.2933195
1.53650,-202.2868495
1.53700,-179.0920745
1.53750,-160.1700212
1.53800,-145.5206896
1.53850,-132.0921357
1.53900,-120.4947482
1.53950,-113.7804712
1.54000,-110.4233328
1.54050,-102.4882782
1.54100,-83.56622488
1.54150,-58.54028345
1.54200,-42.97536865
1.54250,-46.33250714
1.54300,-62.50781075
1.54350,-77.76753113
1.54400,-89.36491862
1.54450,-103.098667
1.54500,-117.4428041
1.54550,-118.0531929
1.54600,-96.68958441
1.54650,-64.33897719
1.54700,-38.39745254
1.54750,-25.57928741
1.54800,-18.25462163
1.54850,-8.183206175
1.54900,5.550542171
1.54950,22.94662341
1.55000,41.56348228
1.55050,55.90761944
1.55100,58.95956352
1.55150,51.32970333
1.55200,40.64789906
1.55250,32.71284446
1.55300,23.86220663
1.55350,9.823263879
1.55400,-5.436456506
1.55450,-16.42345518
1.55500,-22.83253774
1.55550,-31.37798116
1.55600,-42.97536865
1.55650,-53.65717292
1.55700,-59.76106108
1.55750,-61.28703312
1.55800,-57.62470022
1.55850,-46.33250714
1.55900,-27.71564827
1.55950,-6.046845321
1.56000,16.53754085
1.56050,39.42712143
1.56100,58.65436911
1.56150,72.08292305
1.56200,82.45953291
1.56250,89.17380988
1.56300,87.34264344
1.56350,76.05045035
1.56400,67.50500693
1.56450,75.44006154
1.56500,94.66730922
1.56550,106.2646967
1.56600,101.991975
1.56650,86.1218658
1.56700,64.75825727
1.56750,46.1413984
1.56800,49.19334247
1.56850,92.53094837
1.56900,162.1152733
1.56950,214.303517
1.57000,221.017794
1.57050,200.5697687
1.57100,187.4464092
1.57150,188.9723812
1.57200,184.6996595
1.57250,164.862023
1.57300,143.4984145
1.57350,130.9854437
1.57400,119.0828618
1.57450,97.10886448
1.57500,68.42059016
1.57550,40.03751024
1.57600,2.498598094
1.57650,-55.18314496
1.57700,-115.9168321
1.57750,-142.1635512
1.57800,-125.6830531
1.57850,-107.6765831
1.57900,-131.4817469
1.57950,-183.0596018
1.58000,-209.3063209
1.58050,-186.7219347
1.58100,-148.2674393
1.58150,-137.8908294
1.58200,-160.1700212
1.58250,-188.8582955
1.58300,-208.3907376
1.58350,-221.8192916
1.58400,-233.1114847
1.58450,-236.4686231
1.58500,-222.124486
1.58550,-189.7738788
1.58600,-148.8778281
1.58650,-111.9493048
1.58700,-82.65064165
1.58750,-51.52081207
1.58800,-10.62476144
1.58850,28.44012275
1.58900,45.83620399
1.58950,36.37517735
1.59000,13.79079118
1.59050,-9.709178214
1.59100,-37.17667491
1.59150,-71.35844857
1.59200,-104.624639
1.59250,-129.6505804
1.59300,-148.5726337
1.59350,-164.1375485
1.59400,-170.5466311
1.59450,-163.2219653
1.59500,-149.7934113
1.59550,-140.6375791
1.59600,-135.1440798
1.59650,-125.0726643
1.59700,-106.7609999
1.59750,-81.42986402
1.59800,-52.43639529
1.59850,-24.05331538
1.59900,0.05704283282
1.59950,20.50506815
1.60000,40.64789906
1.60050,54.076453
1.60100,49.49853688
1.60150,28.44012275
1.60200,7.07651421
1.60250,-2.079318021
1.60300,-1.468929206
1.60350,7.686903025
1.60400,34.5440109
1.60450,78.1868112
1.60500,116.6413066
1.60550,131.5958326
1.60600,133.7321934
1.60650,146.8555529
1.60700,169.7451335
1.60750,177.0697993
1.60800,156.3165796
1.60850,122.4400003
1.60900,93.44653159
1.60950,73.60889509
1.61000,57.43359148
1.61050,44.92062076
1.61100,37.59595498
1.61150,33.01803886
1.61200,29.35570597
1.61250,27.82973393
1.61300,24.77778986
1.61350,16.53754085
1.61400,3.719375725
1.61450,-6.962428544
1.61500,-14.89748314
1.61550,-23.13773215
1.61600,-31.07278675
1.61650,-34.12473083
1.61700,-32.9039532
1.61750,-33.20914761
1.61800,-33.81953642
1.61850,-28.32603708
1.61900,-15.81306637
1.61950,-2.079318021
1.62000,8.907680656
1.62050,16.53754085
1.62100,16.23234644
1.62150,6.160930987
1.62200,-2.079318021
1.62250,6.466125395
1.62300,33.62842768
1.62350,67.19981253
1.62400,103.2127526
1.62450,144.4139977
1.62500,178.5957713
1.62550,183.7840763
1.62600,155.4009964
1.62650,117.5568898
1.62700,90.0893931
1.62750,70.55695101
1.62800,49.80373129
1.62850,33.93362209
1.62900,29.66090038
1.62950,31.79726123
1.63000,31.49206683
1.63050,30.2712892
1.63100,34.84920531
1.63150,42.1738711
1.63200,46.75178721
1.63250,48.88814807
1.63300,52.24528655
1.63350,58.65436911
1.63400,70.2517566
1.63450,86.73225462
1.63500,100.7711974
1.63550,105.9595023
1.63600,107.1802799
1.63650,109.9270296
1.63700,104.1283359
1.63750,75.13486713
1.63800,25.38817867
1.63850,-27.41045386
1.63900,-79.90389198
1.63950,-140.3323847
1.64000,-201.0660718
1.64050,-239.8257616
1.64100,-253.55951
1.64150,-258.4426205
1.64200,-255.085482
1.64250,-219.3777363
1.64300,-147.3518561
1.64350,-72.5792262
1.64400,-24.66370419
1.64450,3.10898691
1.64500,26.6089563
1.64550,35.76478853
1.64600,16.84273526
1.64650,-12.15073348
1.64700,-24.05331538
1.64750,-17.64423281
1.64800,-12.15073348
1.64850,-9.403983806
1.64900,6.771319802
1.64950,37.90114939
1.65000,62.92709082
1.65050,70.86214542
1.65100,70.86214542
1.65150,72.08292305
1.65200,69.9465622
1.65250,63.53747963
1.65300,65.06345167
1.65350,81.23875528
1.65400,99.85561415
1.65450,101.991975
1.65500,86.73225462
1.65550,65.06345167
1.65600,40.64789906
1.65650,6.466125395
1.65700,-36.56628609
1.65750,-77.46233672
1.65800,-107.9817775
1.65850,-135.1440798
1.65900,-164.1375485
1.65950,-187.0271291
1.66000,-194.3517949
1.66050,-193.4362116
1.66100,-194.0466005
1.66150,-188.8582955
1.66200,-166.5791038
1.66250,-134.8388854
1.66300,-112.2544992
1.66350,-98.82594526
1.66400,-77.46233672
1.66450,-49.68964562
1.66500,-38.39745254
1.66550,-48.7740624
1.66600,-52.43639529
1.66650,-26.80006504
1.66700,12.87520796
1.66750,40.34270465
1.66800,48.88814807
1.66850,45.53100958
1.66900,31.18687242
1.66950,12.87520796
1.67000,18.97909611
1.67050,70.2517566
1.67100,147.7711362
1.67150,208.1996289
1.67200,232.6151815
1.67250,231.3944039
1.67300,215.8294891
1.67350,186.2256315
1.67400,147.1607473
1.67450,106.8750855
1.67500,65.9790349
1.67550,18.6739017
1.67600,-28.32603708
1.67650,-63.42339397
1.67700,-85.70258573
1.67750,-101.5726949
1.67800,-108.8973607
1.67850,-99.43633408
1.67900,-79.29350317
1.67950,-68.00131008
1.68000,-74.41039265
1.68050,-88.14414099
1.68100,-97.91036204
1.68150,-102.1830837
1.68200,-102.7934726
1.68250,-99.13113967
1.68300,-91.19608507
1.68350,-78.98830876
1.68400,-56.09872818
1.68450,-20.08578808
1.68500,14.09598559
1.68550,29.35570597
1.68600,29.05051156
1.68650,33.93362209
1.68700,47.66737043
1.68750,48.27775925
1.68800,28.74531716
1.68850,22.03104019
1.68900,65.36864608
1.68950,142.8880256
1.69000,198.1282134
1.69050,196.297047
1.69100,159.9789125
1.69150,130.3750549
1.69200,115.7257234
1.69250,98.02444771
1.69300,71.47253423
1.69350,54.076453
1.69400,58.95956352
1.69450,76.35564476
1.69500,94.66730922
1.69550,119.6932507
1.69600,162.7256621
1.69650,216.1346835
1.69700,259.7774838
1.69750,281.4462867
1.69800,280.5307035
1.69850,251.5372348
1.69900,187.4464092
1.69950,93.44653159
1.70000,-7.878011767
1.70050,-102.7934726
1.70100,-191.9102396
1.70150,-272.1763688
1.70200,-320.0918908
1.70250,-313.3776139
1.70300,-263.0205366
1.70350,-208.3907376
1.70400,-177.5661024
1.70450,-168.1050758
1.70500,-164.4427429
1.70550,-159.5596324
1.70600,-157.1180771
1.70650,-157.4232715
1.70700,-158.3388548
1.70750,-159.5596324
1.70800,-161.6959932
1.70850,-161.0856044
1.70900,-154.0661331
1.70950,-142.77394
1.71000,-132.3973301
1.71050,-123.5466923
1.71100,-111.9493048
1.71150,-96.07919559
1.71200,-80.20908639
1.71250,-68.00131008
1.71300,-55.18314496
1.71350,-37.48186931
1.71400,-17.033844
1.71450,-1.468929206
1.71500,7.07651421
1.71550,17.45312407
1.71600,36.68037176
1.71650,62.92709082
1.71700,86.1218658
1.71750,97.10886448
1.71800,96.19328126
1.71850,91.00497633
1.71900,87.95303225
1.71950,87.03744903
1.72000,81.8491441
1.72050,66.89461812
1.72100,45.83620399
1.72150,31.18687242
1.72200,34.5440109
1.72250,55.60242503
1.72300,80.62836647
1.72350,92.22575396
1.72400,84.59589377
1.72450,69.9465622
1.72500,67.19981253
1.72550,82.45953291
1.72600,101.6867806
1.72650,111.1478072
1.72700,109.9270296
1.72750,104.1283359
1.72800,92.83614277
1.72850,71.16733983
1.72900,41.25828787
1.72950,12.87520796
1.73000,-8.183206175
1.73050,-24.9688986
1.73100,-43.58575747
1.73150,-68.00131008
1.73200,-97.91036204
1.73250,-121.7155258
1.73300,-125.0726643
1.73350,-111.0337216
1.73400,-98.21555645
1.73450,-90.28050185
1.73500,-62.50781075
1.73550,-0.8585403903
1.73600,65.06345167
1.73650,96.19328126
1.73700,101.991975
1.73750,126.4075276
1.73800,176.7646049
1.73850,208.1996289
1.73900,191.4139365
1.73950,158.147746
1.74000,151.4334691
1.74050,163.336051
1.74100,157.5373572
1.74150,129.7646661
1.74200,108.0958632
1.74250,100.1608086
1.74300,85.8166714
1.74350,56.82320267
1.74400,38.5115382
1.74450,50.1089257
1.74500,71.77772864
1.74550,65.06345167
1.74600,16.23234644
1.74650,-57.92989463
1.74700,-135.7544686
1.74750,-203.5076271
1.74800,-255.085482
1.74850,-287.4360892
1.74900,-302.0854208
1.74950,-305.4425593
1.75000,-300.5594488
1.75050,-283.1633675
1.75100,-252.3387323
1.75150,-215.1050146
1.75200,-180.6180465
1.75250,-148.8778281
1.75300,-114.0856656
1.75350,-76.85194791
1.75400,-42.67017425
1.75450,-11.84553907
1.75500,18.97909611
1.75550,48.88814807
1.75600,72.38811746
1.75650,93.44653159
1.75700,123.0503891
1.75750,161.5048845
1.75800,190.4983532
1.75850,199.9593799
1.75900,201.4853519
1.75950,206.3684624
1.76000,203.3165184
1.76050,176.4594105
1.76100,135.8685543
1.76150,107.7906688
1.76200,97.7192533
1.76250,81.8491441
1.76300,41.25828787
1.76350,-11.54034466
1.76400,-48.7740624
1.76450,-56.709117
1.76500,-46.33250714
1.76550,-39.00784135
1.76600,-44.8065351
1.76650,-59.15067226
1.76700,-70.44286535
1.76750,-74.41039265
1.76800,-77.15714232
1.76850,-85.39739132
1.76900,-98.52075085
1.76950,-111.9493048
1.77000,-122.9363035
1.77050,-130.8713581
1.77100,-135.1440798
1.77150,-136.3648574
1.77200,-133.6181077
1.77250,-120.4947482
1.77300,-93.63764033
1.77350,-61.59222752
1.77400,-37.17667491
1.77450,-13.37151111
1.77500,32.10245564
1.77550,105.3491135
1.77600,179.2061602
1.77650,221.6281828
1.77700,230.1736262
1.77750,223.1541549
1.77800,208.1996289
1.77850,175.8490217
1.77900,125.18675
1.77950,79.40758884
1.78000,62.92709082
1.78050,75.13486713
1.78100,92.83614277
1.78150,94.36211481
1.78200,76.96603357
1.78250,52.24528655
1.78300,27.21934512
1.78350,0.05704283282
1.78400,-31.98836998
1.78450,-66.17014364
1.78500,-96.68958441
1.78550,-122.9363035
1.78600,-144.299912
1.78650,-152.8453554
1.78700,-140.3323847
1.78750,-107.3713887
1.78800,-67.69611568
1.78850,-37.17667491
1.78900,-22.83253774
1.78950,-21.0013713
1.79000,-22.83253774
1.79050,-24.35850978
1.79100,-28.32603708
1.79150,-35.65070287
1.79200,-41.44939661
1.79250,-42.97536865
1.79300,-44.19614628
1.79350,-49.99484003
1.79400,-56.09872818
1.79450,-55.79353378
1.79500,-56.09872818
1.79550,-67.08572686
1.79600,-85.09219692
1.79650,-94.85841796
1.79700,-89.05972422
1.79750,-75.02078146
1.79800,-61.28703312
1.79850,-47.24809036
1.79900,-31.68317557
1.79950,-12.15073348
1.80000,16.84273526
1.80050,53.16086977
1.80100,79.40758884
1.80150,82.45953291
1.80200,80.32317206
1.80250,102.6023638
1.80300,148.0763306
1.80350,182.868493
1.80400,186.5308259
1.80450,173.7126608
1.80500,163.0308565
1.80550,149.907497
1.80600,120.6088339
1.80650,77.57642239
1.80700,33.93362209
1.80750,-2.384512429
1.80800,-30.76759235
1.80850,-53.04678411
1.80900,-77.15714232
1.80950,-111.338916
1.81000,-146.1310785
1.81050,-161.0856044
1.81100,-151.6245778
1.81150,-132.0921357
1.81200,-107.9817775
1.81250,-67.69611568
1.81300,-7.57281736
1.81350,59.56995233
1.81400,132.8166102
1.81450,229.8684318
1.81500,353.472167
1.81550,467.0044866
1.81600,526.2122017
1.81650,522.2446744
1.81700,470.9720139
1.81750,382.4656357
1.81800,260.693067
1.81850,121.5244171
1.81900,-8.793594991
1.81950,-119.8843594
1.82000,-213.884237
1.82050,-287.7412836
1.82100,-329.8581119
1.82150,-337.7931665
1.82200,-325.8905846
1.82250,-312.7672251
1.82300,-305.1373649
1.82350,-298.1178935
1.82400,-280.7218123
1.82450,-249.8971771
1.82500,-211.7478761
1.82550,-178.1764913
1.82600,-155.2869107
1.82650,-143.9947176
1.82700,-143.0791344
1.82750,-149.7934113
1.82800,-156.8128827
1.82850,-158.0336604
1.82900,-157.4232715
1.82950,-158.9492436
1.83000,-151.3193834
1.83050,-113.4752768
1.83100,-47.85847918
1.83150,13.79079118
1.83200,43.39464873
1.83250,42.4790655
1.83300,33.62842768
1.83350,28.74531716
1.83400,25.08298426
1.83450,22.94662341
1.83500,30.88167801
1.83550,50.4141201
1.83600,68.11539575
1.83650,73.30370068
1.83700,73.9140895
1.83750,82.1543385
1.83800,99.24522534
1.83850,112.6737793
1.83900,113.5893625
1.83950,100.466003
1.84000,76.96603357
1.84050,47.05698162
1.84100,19.89467933
1.84150,3.719375725
1.84200,-2.079318021
1.84250,-6.657234137
1.84300,-11.23515025
1.84350,-6.962428544
1.84400,8.907680656
1.84450,26.91415071
1.84500,38.5115382
1.84550,50.71931451
1.84600,72.99850627
1.84650,97.7192533
1.84700,107.7906688
1.84750,101.991975
1.84800,94.97250363
1.84850,92.22575396
1.84900,81.54394969
1.84950,55.90761944
1.85000,26.3037619
1.85050,4.329764541
1.85100,-10.01437262
1.85150,-21.0013713
1.85200,-24.35850978
1.85250,-19.78059367
1.85300,-19.17020485
1.85350,-23.44292656
1.85400,-9.403983806
1.85450,44.31023195
1.85500,123.3555835
1.85550,187.4464092
1.85600,213.0827394
1.85650,204.537296
1.85700,168.8295503
1.85750,109.6218352
1.85800,50.1089257
1.85850,28.74531716
1.85900,58.65436911
1.85950,103.8231415
1.86000,117.2516954
1.86050,89.7841987
1.86100,47.05698162
1.86150,10.43365269
1.86200,-22.83253774
1.86250,-65.55975482
1.86300,-119.8843594
1.86350,-176.3453248
1.86400,-219.3777363
1.86450,-238.604984
1.86500,-237.3842064
1.86550,-227.9231797
1.86600,-213.5790426
1.86650,-183.975185
1.86700,-135.7544686
1.86750,-82.65064165
1.86800,-40.22861898
1.86850,-6.657234137
1.86900,23.55701223
1.86950,41.86867669
1.87000,33.93362209
1.87050,10.43365269
1.87100,-1.163734798
1.87150,8.297291841
1.87200,20.19987374
1.87250,15.01156881
1.87300,-0.2481515749
1.87350,-8.183206175
1.87400,-4.520873283
1.87450,0.6674316482
1.87500,0.05704283282
1.87550,-6.962428544
1.87600,-20.39098248
1.87650,-35.34550846
1.87700,-45.41692391
1.87750,-47.24809036
1.87800,-42.05978543
1.87850,-29.85200912
1.87900,-6.046845321
1.87950,27.52453953
1.88000,59.87514674
1.88050,85.51147699
1.88100,110.232224
1.88150,137.6997207
1.88200,158.7581348
1.88250,169.1347447
1.88300,177.3749937
1.88350,185.6152427
1.88400,174.0178552
1.88450,121.8296115
1.88500,38.81673261
1.88550,-45.41692391
1.88600,-113.1700824
1.88650,-165.3583261
1.88700,-201.0660718
1.88750,-218.7673475
1.88800,-223.0400692
1.88850,-215.1050146
1.88900,-178.7868801
1.88950,-100.3519173
1.89000,-0.8585403903
1.89050,74.82967272
1.89100,107.1802799
1.89150,116.3361122
1.89200,130.3750549
1.89250,152.9594411
1.89300,169.4399391
1.89350,166.0828006
1.89400,142.2776368
1.89450,113.5893625
1.89500,102.6023638
1.89550,113.8945569
1.89600,123.660778
1.89650,109.0114464
1.89700,78.1868112
1.89750,53.77125859
1.89800,31.79726123
1.89850,-13.0663167
1.89900,-83.26103047
1.89950,-146.7414673
1.90000,-179.0920745
1.90050,-186.1115459
1.90100,-179.3972689
1.90150,-156.5076883
1.90200,-119.579165
1.90250,-89.36491862
1.90300,-82.34544725
1.90350,-92.72205711
1.90400,-109.2025551
1.90450,-132.0921357
1.90500,-162.0011877
1.90550,-183.975185
1.90600,-184.2803794
1.90650,-169.3258534
1.90700,-152.2349666
1.90750,-133.6181077
1.90800,-107.6765831
1.90850,-80.20908639
1.90900,-62.50781075
1.90950,-54.26756174
1.91000,-48.7740624
1.91050,-44.19614628
1.91100,-39.61823017
1.91150,-25.88448182
1.91200,4.940153356
1.91250,47.66737043
1.91300,91.61536514
1.91350,135.8685543
1.91400,181.342521
1.91450,215.2191003
1.91500,221.6281828
1.91550,203.6217128
1.91600,181.9529098
1.91650,166.9983838
1.91700,153.8750243
1.91750,137.3945263
1.91800,123.660778
1.91850,113.8945569
1.91900,102.2971694
1.91950,84.90108817
1.92000,66.58942371
1.92050,48.27775925
1.92100,21.11545696
1.92150,-15.50787196
1.92200,-46.94289595
1.92250,-62.50781075
1.92300,-71.96883738
1.92350,-86.92336336
1.92400,-100.6571117
1.92450,-97.29997322
1.92500,-80.5142808
1.92550,-66.78053245
1.92600,-62.81300515
1.92650,-60.37144989
1.92700,-54.87795055
1.92750,-54.26756174
1.92800,-60.98183871
1.92850,-66.78053245
1.92900,-68.00131008
1.92950,-73.49480942
1.93000,-84.4818081
1.93050,-87.83894659
1.93100,-74.41039265
1.93150,-53.35197851
1.93200,-37.17667491
1.93250,-21.0013713
1.93300,5.245347764
1.93350,39.42712143
1.93400,70.2517566
1.93450,94.36211481
1.93500,113.8945569
1.93550,126.712722
1.93600,130.3750549
1.93650,130.3750549
1.93700,135.2581654
1.93750,146.2451641
1.93800,159.6737181
1.93850,173.7126608
1.93900,184.3944651
1.93950,179.816549
1.94000,153.8750243
1.94050,119.9984451
1.94100,97.7192533
1.94150,89.47900429
1.94200,82.1543385
1.94250,66.58942371
1.94300,49.80373129
1.94350,43.08945432
1.94400,48.27775925
1.94450,54.076453
1.94500,42.1738711
1.94550,4.329764541
1.94600,-40.22861898
1.94650,-58.84547785
1.94700,-35.34550846
1.94750,11.04404151
1.94800,49.80373129
1.94850,67.81020134
1.94900,72.99850627
1.94950,75.44006154
1.95000,74.82967272
1.95050,60.18034115
1.95100,22.94662341
1.95150,-31.37798116
1.95200,-85.39739132
1.95250,-125.6830531
1.95300,-158.3388548
1.95350,-194.0466005
1.95400,-226.0920133
1.95450,-237.3842064
1.95500,-227.9231797
1.95550,-216.3257922
1.95600,-212.9686537
1.95650,-209.6115153
1.95700,-195.5725725
1.95750,-170.2414367
1.95800,-133.3129133
1.95850,-82.34544725
1.95900,-25.88448182
1.95950,18.36870729
1.96000,43.08945432
1.96050,55.29723063
1.96100,58.95956352
1.96150,51.02450892
1.96200,38.81673261
1.96250,38.81673261
1.96300,53.46606418
1.96350,62.316702
1.96400,49.49853688
1.96450,19.89467933
1.96500,-16.11826078
1.96550,-59.45586667
1.96600,-108.5921663
1.96650,-145.825884
1.96700,-156.5076883
1.96750,-148.5726337
1.96800,-141.2479679
1.96850,-144.299912
1.96900,-152.540161
1.96950,-159.254438
1.97000,-158.0336604
1.97050,-142.77394
1.97100,-115.9168321
1.97150,-87.22855777
1.97200,-61.28703312
1.97250,-32.29356438
1.97300,2.193403687
1.97350,32.71284446
1.97400,49.49853688
1.97450,58.3491747
1.97500,70.2517566
1.97550,82.76472732
1.97600,86.73225462
1.97650,83.68031054
1.97700,85.8166714
1.97750,96.80367007
1.97800,109.9270296
1.97850,118.1672786
1.97900,123.0503891
1.97950,127.0179164
1.98000,130.9854437
1.98050,136.4789431
1.98100,144.7191921
1.98150,152.6542467
1.98200,156.621774
1.98250,163.9464398
1.98300,182.868493
1.98350,206.063268
1.98400,212.1671562
1.98450,190.4983532
1.98500,153.5698299
1.98550,123.660778
1.98600,108.0958632
1.98650,96.19328126
1.98700,74.52447831
1.98750,38.81673261
1.98800,-5.436456506
1.98850,-48.46886799
1.98900,-82.04025284
1.98950,-107.0661943
1.99000,-134.2284966
1.99050,-169.6310478
1.99100,-201.9816551
1.99150,-215.1050146
1.99200,-210.5270985
1.99250,-208.0855432
1.99300,-220.9037083
1.99350,-235.2478455
1.99400,-226.3972077
1.99450,-184.5855738
1.99500,-121.105137
1.99550,-52.13120088
1.99600,11.65443033
1.99650,63.53747963
1.99700,96.49847567
1.99750,110.8426128
1.99800,112.6737793
1.99850,107.7906688
1.99900,101.3815862
1.99950,104.1283359
2.00000,123.660778
2.00050,148.6867194
2.00100,159.6737181
2.00150,155.7061908
2.00200,163.0308565
2.00250,201.4853519
2.00300,254.5891789
2.00350,286.0242028
2.00400,278.3943427
2.00450,246.3489298
2.00500,209.4204065
2.00550,167.3035783
2.00600,110.232224
2.00650,37.90114939
2.00700,-37.78706372
2.00750,-111.0337216
2.00800,-183.975185
2.00850,-255.6958708
2.00900,-310.3256698
2.00950,-330.7736951
2.01000,-318.2607244
2.01050,-295.3711438
2.01100,-281.0270067
2.01150,-270.3452024
2.01200,-245.9296498
2.01250,-203.2024327
2.01300,-157.1180771
2.01350,-125.3778587
2.01400,-109.5077495
2.01450,-102.4882782
2.01500,-96.38439
2.01550,-85.70258573
2.01600,-68.00131008
2.01650,-46.63770155
2.01700,-29.54681471
2.01750,-19.78059367
2.01800,-7.878011767
2.01850,13.79079118
2.01900,41.56348228
2.01950,64.45306286
2.02000,76.96603357
2.02050,79.40758884
2.02100,75.74525594
2.02150,73.9140895
2.02200,83.68031054
2.02250,102.2971694
2.02300,112.3685849
2.02350,102.6023638
2.02400,85.8166714
2.02450,84.90108817
2.02500,98.32964211
2.02550,104.1283359
2.02600,92.83614277
2.02650,80.32317206
2.02700,79.10239443
2.02750,81.23875528
2.02800,75.13486713
2.02850,66.2842293
2.02900,63.23228523
2.02950,57.12839707
2.03000,34.84920531
2.03050,3.719375725
2.03100,-18.86501044
2.03150,-31.98836998
2.03200,-49.68964562
2.03250,-76.85194791
2.03300,-100.0467229
2.03350,-110.4233328
2.03400,-113.4752768
2.03450,-119.2739706
2.03500,-125.9882475
2.03550,-126.293442
2.03600,-118.0531929
2.03650,-101.8778893
2.03700,-78.68311435
2.03750,-52.13120088
2.03800,-31.68317557
2.03850,-23.44292656
2.03900,-19.17020485
2.03950,-2.384512429
2.04000,30.2712892
2.04050,65.67384049
2.04100,86.42706021
2.04150,91.61536514
2.04200,88.86861547
2.04250,81.23875528
2.04300,66.58942371
2.04350,47.97256484
2.04400,35.15439972
2.04450,33.62842768
2.04500,36.37517735
2.04550,38.81673261
2.04600,47.97256484
2.04650,76.35564476
2.04700,121.5244171
2.04750,164.862023
2.04800,185.0048539
2.04850,172.7970776
2.04900,135.2581654
2.04950,89.47900429
2.05000,47.05698162
2.05050,6.771319802
2.05100,-38.39745254
2.05150,-88.4493354
2.05200,-130.5661637
2.05250,-152.540161
2.05300,-151.6245778
2.05350,-131.7869413
2.05400,-103.4038614
2.05450,-83.87141929
2.05500,-86.92336336
2.05550,-108.2869719
2.05600,-127.2090252
2.05650,-125.0726643
2.05700,-102.7934726
2.05750,-72.5792262
2.05800,-45.41692391
2.05850,-28.63123149
2.05900,-19.47539926
2.05950,-4.82606769
2.06000,27.52453953
2.06050,68.42059016
2.06100,92.22575396
2.06150,86.42706021
2.06200,67.19981253
2.06250,54.3816474
2.06300,47.66737043
2.06350,32.40765005
2.06400,4.329764541
2.06450,-28.63123149
2.06500,-56.09872818
2.06550,-69.52728212
2.06600,-60.6766443
2.06650,-27.71564827
2.06700,22.03104019
2.06750,78.49200561
2.06800,132.8166102
2.06850,177.3749937
2.06900,202.0957407
2.06950,205.4528792
2.07000,197.2126302
2.07050,187.7516036
2.07100,174.628244
2.07150,150.8230802
2.07200,117.2516954
2.07250,77.8816168
2.07300,31.49206683
2.07350,-25.88448182
2.07400,-88.75452981
2.07450,-143.0791344
2.07500,-181.2284353
2.07550,-208.0855432
2.07600,-226.3972077
2.07650,-227.6179853
2.07700,-201.3712663
2.07750,-156.5076883
2.07800,-118.0531929
2.07850,-100.6571117
2.07900,-91.50127948
2.07950,-66.47533805
2.08000,-21.91695452
2.08050,23.86220663
2.08100,54.68684181
2.08150,72.99850627
2.08200,88.25822666
2.08250,101.6867806
2.08300,108.0958632
2.08350,105.6543079
2.08400,96.80367007
2.08450,84.90108817
2.08500,72.69331187
2.08550,61.70631319
2.08600,47.36217603
2.08650,24.47259545
2.08700,-4.82606769
2.08750,-33.51434201
2.08800,-58.84547785
2.08850,-81.42986402
2.08900,-94.55322355
2.08950,-91.50127948
2.09000,-79.29350317
2.09050,-71.35844857
2.09100,-64.03378278
2.09150,-38.70264695
2.09200,3.719375725
2.09250,37.90114939
2.09300,45.83620399
2.09350,45.22581517
2.09400,63.23228523
2.09450,98.02444771
2.09500,124.8815556
2.09550,130.6802493
2.09600,125.4919444
2.09650,122.7451947
2.09700,120.6088339
2.09750,109.3166408
2.09800,83.06992173
2.09850,46.1413984
2.09900,8.602486248
2.09950,-23.44292656
2.10000,-51.52081207
2.10050,-78.68311435
2.10100,-103.7090558
2.10150,-118.9687762
2.10200,-119.8843594
2.10250,-106.150611
2.10300,-81.12466962
2.10350,-53.35197851
2.10400,-35.95589728
2.10450,-33.20914761
2.10500,-28.32603708
2.10550,1.583014871
2.10600,55.60242503
2.10650,105.6543079
2.10700,129.4594717
2.10750,132.8166102
2.10800,134.6477766
2.10850,138.9204983
2.10900,133.426999
2.10950,110.8426128
2.11000,79.10239443
2.11050,52.85567537
2.11100,37.29076057
2.11150,25.08298426
2.11200,2.803792502
2.11250,-37.48186931
2.11300,-93.02725152
2.11350,-153.1505498
2.11400,-202.5920439
2.11450,-227.6179853
2.11500,-221.5140972
2.11550,-191.6050452
2.11600,-156.5076883
2.11650,-130.5661637
2.11700,-108.5921663
2.11750,-76.85194791
2.11800,-32.9039532
2.11850,11.04404151
2.11900,44.00503754
2.11950,63.84267404
2.12000,75.74525594
2.12050,85.20628258
2.12100,95.27769804
2.12150,106.8750855
2.12200,115.7257234
2.12250,115.4205289
2.12300,105.0439191
2.12350,91.92055955
2.12400,85.20628258
2.12450,83.06992173
2.12500,73.9140895
2.12550,52.24528655
2.12600,28.44012275
2.12650,18.36870729
2.12700,20.19987374
2.12750,11.04404151
2.12800,-24.05331538
2.12850,-70.13767094
2.12900,-100.0467229
2.12950,-110.1181383
2.13000,-119.579165
2.13050,-135.7544686
2.13100,-143.0791344
2.13150,-130.8713581
2.13200,-113.4752768
2.13250,-104.0142502
2.13300,-89.05972422
2.13350,-53.96236733
2.13400,-17.64423281
2.13450,-15.81306637
2.13500,-49.68964562
2.13550,-85.70258573
2.13600,-100.0467229
2.13650,-104.624639
2.13700,-117.1376097
2.13750,-132.0921357
2.13800,-134.533691
2.13850,-122.6311091
2.13900,-100.0467229
2.13950,-62.81300515
2.14000,-13.98189992
2.14050,23.25181782
2.14100,28.44012275
2.14150,10.7388471
2.14200,-2.384512429
2.14250,0.05704283282
2.14300,10.43365269
2.14350,23.86220663
2.14400,42.4790655
2.14450,58.3491747
2.14500,57.43359148
2.14550,43.39464873
2.14600,39.12192702
2.14650,56.51800826
2.14700,83.37511614
2.14750,101.3815862
2.14800,105.6543079
2.14850,98.94003093
2.14900,81.23875528
2.14950,54.68684181
2.15000,28.44012275
2.15050,11.95962473
2.15100,7.686903025
2.15150,11.95962473
2.15200,16.53754085
2.15250,13.79079118
2.15300,3.10898691
2.15350,-3.60529006
2.15400,0.05704283282
2.15450,7.381708618
2.15500,13.79079118
2.15550,27.21934512
2.15600,54.076453
2.15650,77.8816168
2.15700,81.8491441
2.15750,79.40758884
2.15800,97.7192533
2.15850,134.6477766
2.15900,163.6412454
2.15950,177.3749937
2.16000,194.7710749
2.16050,220.7125996
2.16100,232.0047927
2.16150,215.2191003
2.16200,185.6152427
2.16250,151.1282746
2.16300,93.14133718
2.16350,4.940153356
2.16400,-77.15714232
2.16450,-119.579165
2.16500,-133.3129133
2.16550,-150.4038002
2.16600,-169.020659
2.16650,-161.6959932
2.16700,-128.7349972
2.16750,-99.43633408
2.16800,-86.00778014
2.16850,-68.30650449
2.16900,-35.65070287
2.16950,-7.57281736
2.17000,-0.2481515749
2.17050,-1.774123613
2.17100,3.10898691
2.17150,6.771319802
2.17200,-5.436456506
2.17250,-28.32603708
2.17300,-44.50134069
2.17350,-53.35197851
2.17400,-69.22208772
2.17450,-94.85841796
2.17500,-119.579165
2.17550,-136.6700518
2.17600,-147.6570505
2.17650,-149.7934113
2.17700,-136.6700518
2.17750,-109.8129439
2.17800,-82.65064165
2.17850,-62.50781075
2.17900,-46.02731273
2.17950,-34.12473083
2.18000,-34.42992524
2.18050,-44.50134069
2.18100,-42.36497984
2.18150,-10.01437262
2.18200,44.61542636
2.18250,101.6867806
2.18300,151.4334691
2.18350,197.823019
2.18400,234.7515424
2.18450,247.5697075
2.18500,232.9203759
2.18550,205.4528792
2.18600,175.5438273
2.18650,136.1737487
2.18700,80.93356087
2.18750,22.03104019
2.18800,-22.22214893
2.18850,-54.57275615
2.18900,-88.75452981
2.18950,-127.5142196
2.19000,-152.2349666
2.19050,-146.7414673
2.19100,-118.6635818
2.19150,-90.58569625
2.19200,-76.5467535
2.19250,-70.44286535
2.19300,-60.37144989
2.19350,-46.94289595
2.19400,-40.22861898
2.19450,-42.67017425
2.19500,-43.28056306
2.19550,-36.26109168
2.19600,-33.20914761
2.19650,-46.33250714
2.19700,-67.69611568
2.19750,-75.32597587
2.19800,-59.45586667
2.19850,-25.57928741
2.19900,16.84273526
2.19950,59.26475793
2.20000,84.90108817
2.20050,80.93356087
2.20100,60.48553556
2.20150,49.80373129
2.20200,53.46606418
2.20250,49.80373129
2.20300,28.44012275
2.20350,3.719375725
2.20400,-13.37151111
2.20450,-33.20914761
2.20500,-62.50781075
2.20550,-83.87141929
2.20600,-79.29350317
2.20650,-52.7415897
2.20700,-16.11826078
2.20750,26.91415071
2.20800,71.47253423
2.20850,99.24522534
2.20900,104.1283359
2.20950,110.5374184
2.21000,142.5828312
2.21050,181.9529098
2.21100,193.2451029
2.21150,170.3555223
2.21200,139.2256927
2.21250,115.1153345
2.21300,88.25822666
2.21350,48.88814807
2.21400,3.10898691
2.21450,-44.50134069
2.21500,-96.07919559
2.21550,-143.0791344
2.21600,-165.0531317
2.21650,-155.2869107
2.21700,-131.4817469
2.21750,-109.8129439
2.21800,-89.36491862
2.21850,-65.25456042
2.21900,-42.67017425
2.21950,-28.32603708
2.22000,-15.81306637
2.22050,2.803792502
2.22100,22.03104019
2.22150,33.01803886
2.22200,40.34270465
2.22250,58.0439803
2.22300,86.42706021
2.22350,110.232224
2.22400,117.5568898
2.22450,112.6737793
2.22500,102.6023638
2.22550,86.42706021
2.22600,61.40111878
2.22650,34.2388165
2.22700,12.57001355
2.22750,-5.436456506
2.22800,-32.59875879
2.22850,-73.80000383
2.22900,-120.1895538
2.22950,-160.78041
2.23000,-194.6569893
2.23050,-223.9556524
2.23100,-242.5725113
2.23150,-237.6894008
2.23200,-207.16996
2.23250,-165.0531317
2.23300,-125.3778587
2.23350,-86.92336336
2.23400,-41.44939661
2.23450,5.550542171
2.23500,36.06998294
2.23550,40.95309346
2.23600,33.62842768
2.23650,32.10245564
2.23700,34.84920531
2.23750,29.96609479
2.23800,18.06351289
2.23850,12.87520796
2.23900,19.58948493
2.23950,25.08298426
2.24000,21.11545696
2.24050,15.62195763
2.24100,15.62195763
2.24150,11.34923592
2.24200,-4.215678875
2.24250,-16.11826078
2.24300,-3.300095652
2.24350,30.2712892
2.24400,63.23228523
2.24450,84.29069936
2.24500,99.85561415
2.24550,111.1478072
2.24600,108.4010576
2.24650,90.39458751
2.24700,71.47253423
2.24750,61.09592437
2.24800,55.29723063
2.24850,47.36217603
2.24900,40.34270465
2.24950,36.06998294
2.25000,27.52453953
2.25050,10.12845829
2.25100,-6.352039729
2.25150,-10.31956703
2.25200,-2.079318021
2.25250,5.245347764
2.25300,3.10898691
2.25350,-5.436456506
2.25400,-9.098789398
2.25450,-0.2481515749
2.25500,14.7063744
2.25550,18.36870729
2.25600,2.803792502
2.25650,-17.64423281
2.25700,-25.88448182
2.25750,-26.18967623
2.25800,-37.48186931
2.25850,-61.59222752
2.25900,-76.5467535
2.25950,-68.00131008
2.26000,-48.16367358
2.26050,-33.81953642
2.26100,-19.78059367
2.26150,8.602486248
2.26200,48.27775925
2.26250,79.40758884
2.26300,94.66730922
2.26350,107.4854743
2.26400,127.9334997
2.26450,144.7191921
2.26500,138.6153039
2.26550,106.2646967
2.26600,59.87514674
2.26650,11.95962473
2.26700,-31.07278675
2.26750,-67.39092127
2.26800,-95.77400119
2.26850,-119.8843594
2.26900,-141.8583567
2.26950,-154.3713275
2.27000,-146.7414673
2.27050,-120.1895538
2.27100,-88.4493354
2.27150,-63.42339397
2.27200,-48.16367358
2.27250,-42.36497984
2.27300,-43.89095188
2.27350,-42.67017425
2.27400,-27.10525945
2.27450,0.05704283282
2.27500,18.06351289
2.27550,13.79079118
2.27600,-2.079318021
2.27650,-12.15073348
2.27700,-13.67670551
2.27750,-15.81306637
2.27800,-21.30656571
2.27850,-24.66370419
2.27900,-23.74812097
2.27950,-19.47539926
2.28000,-6.962428544
2.28050,18.06351289
2.28100,47.66737043
2.28150,66.89461812
2.28200,71.47253423
2.28250,70.55695101
2.28300,69.03097897
2.28350,65.36864608
2.28400,61.09592437
2.28450,62.0115076
2.28500,66.2842293
2.28550,63.23228523
2.28600,52.24528655
2.28650,45.83620399
2.28700,52.24528655
2.28750,64.45306286
2.28800,70.2517566
2.28850,66.2842293
2.28900,52.55048096
2.28950,29.66090038
2.29000,4.940153356
2.29050,-8.183206175
2.29100,-8.183206175
2.29150,-9.098789398
2.29200,-22.83253774
2.29250,-44.50134069
2.29300,-62.81300515
2.29350,-72.5792262
2.29400,-74.10519824
2.29450,-64.6441716
2.29500,-49.38445121
2.29550,-39.92342458
2.29600,-38.70264695
2.29650,-33.20914761
2.29700,-17.033844
2.29750,-5.131262098
2.29800,-13.0663167
2.29850,-28.63123149
2.29900,-25.57928741
2.29950,-1.163734798
2.30000,22.3362346
2.30050,29.05051156
2.30100,25.69337308
2.30150,24.16740104
2.30200,21.11545696
2.30250,7.07651421
2.30300,-18.55981604
2.30350,-45.41692391
2.30400,-63.72858838
2.30450,-68.91689331
2.30500,-62.50781075
2.30550,-50.30003444
2.30600,-38.70264695
2.30650,-31.07278675
2.30700,-24.05331538
2.30750,-12.45592788
2.30800,4.940153356
2.30850,19.89467933
2.30900,20.50506815
2.30950,6.160930987
2.31000,-6.657234137
2.31050,-5.436456506
2.31100,7.686903025
2.31150,22.94662341
2.31200,39.73231583
2.31250,64.75825727
2.31300,94.66730922
2.31350,118.1672786
2.31400,132.8166102
2.31450,145.3295809
2.31500,155.4009964
2.31550,152.9594411
2.31600,137.0893319
2.31650,116.0309178
2.31700,90.0893931
2.31750,52.85567537
2.31800,13.48559677
2.31850,-6.046845321
2.31900,-5.436456506
2.31950,-9.403983806
2.32000,-33.51434201
2.32050,-57.92989463
2.32100,-57.01431141
2.32150,-36.56628609
2.32200,-19.78059367
2.32250,-13.0663167
2.32300,-5.131262098
2.32350,2.498598094
2.32400,-6.962428544
2.32450,-39.00784135
2.32500,-72.88442061
2.32550,-88.14414099
2.32600,-85.70258573
2.32650,-75.93636468
2.32700,-61.89742193
2.32750,-39.31303576
2.32800,-11.54034466
2.32850,12.87520796
2.32900,34.2388165
2.32950,58.3491747
2.33000,81.23875528
2.33050,87.64783784
2.33100,69.64136779
2.33150,40.95309346
2.33200,16.84273526
2.33250,-2.994901244
2.33300,-27.10525945
2.33350,-48.7740624
2.33400,-53.35197851
2.33450,-41.44939661
2.33500,-34.42992524
2.33550,-43.28056306
2.33600,-56.40392259
2.33650,-56.709117
2.33700,-45.11172951
2.33750,-34.12473083
2.33800,-28.02084268
2.33850,-22.22214893
2.33900,-15.81306637
2.33950,-14.59228874
2.34000,-17.033844
2.34050,-13.98189992
2.34100,-1.774123613
2.34150,8.602486248
2.34200,3.719375725
2.34250,-17.64423281
2.34300,-40.22861898
2.34350,-49.99484003
2.34400,-52.7415897
2.34450,-64.94936601
2.34500,-88.4493354
2.34550,-100.6571117
2.34600,-81.12466962
2.34650,-41.14420221
2.34700,-10.92995584
2.34750,3.10898691
2.34800,27.52453953
2.34850,78.1868112
2.34900,132.2062214
2.34950,160.8944957
2.35000,171.8814944
2.35050,195.0762694
2.35100,228.9528486
2.35150,237.498292
2.35200,197.823019
2.35250,128.8490829
2.35300,60.18034115
2.35350,-0.5533459826
2.35400,-58.54028345
2.35450,-107.6765831
2.35500,-137.585635
2.35550,-148.5726337
2.35600,-143.3843288
2.35650,-119.579165
2.35700,-82.04025284
2.35750,-50.30003444
2.35800,-32.59875879
2.35850,-14.59228874
2.35900,7.07651421
2.35950,0.6674316482
2.36000,-65.25456042
2.36050,-166.2739094
2.36100,-239.8257616
2.36150,-255.6958708
2.36200,-236.1634287
2.36250,-208.695932
2.36300,-176.6505192
2.36350,-138.5012183
2.36400,-105.5402222
2.36450,-82.65064165
2.36500,-54.87795055
2.36550,-14.28709433
2.36600,23.86220663
2.36650,43.69984313
2.36700,51.32970333
2.36750,63.23228523
2.36800,82.45953291
2.36850,102.9075582
2.36900,125.18675
2.36950,149.2971082
2.37000,161.1996901
2.37050,144.1088033
2.37100,101.991975
2.37150,59.56995233
2.37200,32.10245564
2.37250,14.09598559
2.37300,-3.300095652
2.37350,-12.76112229
2.37400,-0.8585403903
2.37450,29.96609479
2.37500,60.18034115
2.37550,74.82967272
2.37600,80.01797765
2.37650,87.64783784
2.37700,96.19328126
2.37750,95.88808685
2.37800,83.37511614
2.37850,69.33617338
2.37900,63.53747963
2.37950,64.45306286
2.38000,63.23228523
2.38050,52.85567537
2.38100,32.71284446
2.38150,6.771319802
2.38200,-20.69617689
2.38250,-49.68964562
2.38300,-79.90389198
2.38350,-105.8454166
2.38400,-119.2739706
2.38450,-116.8324153
2.38500,-104.9298334
2.38550,-91.19608507
2.38600,-78.07272554
2.38650,-63.11819956
2.38700,-44.19614628
2.38750,-23.13773215
2.38800,-4.520873283
2.38850,4.634958948
2.38900,6.771319802
2.38950,13.79079118
2.39000,34.84920531
2.39050,58.65436911
2.39100,67.19981253
2.39150,59.26475793
2.39200,50.4141201
2.39250,45.22581517
2.39300,32.40765005
2.39350,8.297291841
2.39400,-14.59228874
2.39450,-26.18967623
2.39500,-30.15720353
2.39550,-30.76759235
2.39600,-24.9688986
2.39650,-17.33903841
2.39700,-21.0013713
2.39750,-35.95589728
2.39800,-42.05978543
2.39850,-27.10525945
2.39900,-2.994901244
2.39950,16.53754085
2.40000,37.59595498
2.40050,63.23228523
2.40100,79.40758884
2.40150,72.08292305
2.40200,53.46606418
2.40250,43.69984313
2.40300,41.25828787
2.40350,32.10245564
2.40400,15.92715203
2.40450,9.212875064
2.40500,14.7063744
2.40550,15.92715203
2.40600,-1.774123613
2.40650,-33.51434201
2.40700,-61.59222752
2.40750,-71.96883738
2.40800,-64.6441716
2.40850,-48.16367358
2.40900,-32.59875879
2.40950,-22.83253774
2.41000,-18.86501044
2.41050,-19.47539926
2.41100,-21.61176011
2.41150,-20.39098248
2.41200,-12.76112229
2.41250,-4.520873283
2.41300,-2.384512429
2.41350,-3.60529006
2.41400,2.193403687
2.41450,17.75831848
2.41500,33.01803886
2.41550,40.64789906
2.41600,40.95309346
2.41650,33.32323327
2.41700,17.14792966
2.41750,-2.384512429
2.41800,-15.81306637
2.41850,-22.83253774
2.41900,-28.9364259
2.41950,-33.81953642
2.42000,-33.20914761
2.42050,-32.29356438
2.42100,-39.31303576
2.42150,-45.11172951
2.42200,-28.9364259
2.42250,7.381708618
2.42300,36.68037176
2.42350,44.92062076
2.42400,46.75178721
2.42450,56.51800826
2.42500,59.26475793
2.42550,37.90114939
2.42600,5.855736579
2.42650,-9.098789398
2.42700,-2.384512429
2.42750,12.57001355
2.42800,32.71284446
2.42850,66.2842293
2.42900,115.7257234
2.42950,169.4399391
2.43000,215.8294891
2.43050,241.1606249
2.43100,226.5112933
2.43150,163.0308565
2.43200,74.52447831
2.43250,0.05704283282
2.43300,-45.41692391
2.43350,-79.59869758
2.43400,-123.2414979
2.43450,-171.1570199
2.43500,-204.1180159
2.43550,-210.5270985
2.43600,-190.0790732
2.43650,-147.3518561
2.43700,-94.55322355
2.43750,-50.91042325
2.43800,-32.29356438
2.43850,-38.70264695
2.43900,-53.65717292
2.43950,-58.23508904
2.44000,-44.50134069
2.44050,-18.86501044
2.44100,1.888209279
2.44150,8.907680656
2.44200,7.381708618
2.44250,10.7388471
2.44300,24.16740104
2.44350,40.03751024
2.44400,45.53100958
2.44450,33.93362209
2.44500,5.550542171
2.44550,-30.46239794
2.44600,-62.81300515
2.44650,-81.42986402
2.44700,-92.11166829
2.44750,-104.9298334
2.44800,-119.8843594
2.44850,-124.1570811
2.44900,-113.7804712
2.44950,-101.2675005
2.45000,-95.77400119
2.45050,-86.00778014
2.45100,-57.01431141
2.45150,-17.033844
2.45200,12.26481914
2.45250,23.25181782
2.45300,27.52453953
2.45350,34.5440109
2.45400,43.69984313
2.45450,53.77125859
2.45500,64.14786845
2.45550,70.86214542
2.45600,68.42059016
2.45650,65.06345167
2.45700,74.2192839
2.45750,96.49847567
2.45800,117.8620842
2.45850,129.4594717
2.45900,131.5958326
2.45950,116.3361122
2.46000,73.60889509
2.46050,12.57001355
2.46100,-36.56628609
2.46150,-56.09872818
2.46200,-59.45586667
2.46250,-68.91689331
2.46300,-85.39739132
2.46350,-88.75452981
2.46400,-64.94936601
2.46450,-18.55981604
2.46500,31.49206683
2.46550,68.11539575
2.46600,89.47900429
2.46650,106.8750855
2.46700,125.7971388
2.46750,136.4789431
2.46800,133.426999
2.46850,130.6802493
2.46900,138.3101095
2.46950,132.2062214
2.47000,79.40758884
2.47050,-10.62476144
2.47100,-89.67011303
2.47150,-125.3778587
2.47200,-129.6505804
2.47250,-122.6311091
2.47300,-103.7090558
2.47350,-70.44286535
2.47400,-40.8390078
2.47450,-32.9039532
2.47500,-38.39745254
2.47550,-37.48186931
2.47600,-25.27409301
2.47650,-13.98189992
2.47700,-12.45592788
2.47750,-18.25462163
2.47800,-19.78059367
2.47850,-1.163734798
2.47900,40.64789906
2.47950,83.06992173
2.48000,95.27769804
2.48050,75.74525594
2.48100,55.60242503
2.48150,52.55048096
2.48200,45.22581517
2.48250,15.31676322
2.48300,-16.11826078
2.48350,-19.17020485
2.48400,-2.689706836
2.48450,-1.774123613
2.48500,-23.74812097
2.48550,-42.36497984
2.48600,-45.41692391
2.48650,-49.38445121
2.48700,-63.72858838
2.48750,-67.08572686
2.48800,-43.28056306
2.48850,-14.28709433
2.48900,-13.0663167
2.48950,-39.31303576
2.49000,-60.37144989
2.49050,-51.52081207
2.49100,-16.72864959
2.49150,24.77778986
2.49200,52.85567537
2.49250,50.1089257
2.49300,18.6739017
2.49350,-14.28709433
2.49400,-22.22214893
2.49450,-8.793594991
2.49500,2.498598094
2.49550,7.992097433
2.49600,25.38817867
2.49650,53.46606418
2.49700,61.09592437
2.49750,26.91415071
2.49800,-27.41045386
2.49850,-67.08572686
2.49900,-85.39739132
2.49950,-97.91036204
2.50000,-109.5077495
2.50050,-112.864888
2.50100,-102.7934726
2.50150,-80.81947521
2.50200,-43.89095188
2.50250,6.771319802
2.50300,53.77125859
2.50350,78.1868112
2.50400,84.90108817
2.50450,97.41405889
2.50500,125.7971388
2.50550,156.3165796
2.50600,173.7126608
2.50650,177.0697993
2.50700,168.5243559
2.50750,144.1088033
2.50800,99.24522534
2.50850,38.81673261
2.50900,-24.9688986
2.50950,-79.59869758
2.51000,-116.8324153
2.51050,-137.2804406
2.51100,-144.9103008
2.51150,-135.4492742
2.51200,-100.0467229
2.51250,-40.53381339
2.51300,21.11545696
2.51350,62.92709082
2.51400,82.76472732
2.51450,93.44653159
2.51500,100.466003
2.51550,98.94003093
2.51600,87.03744903
2.51650,68.11539575
2.51700,39.73231583
2.51750,0.3622372405
2.51800,-39.92342458
2.51850,-66.17014364
2.51900,-75.93636468
2.51950,-83.26103047
2.52000,-94.55322355
2.52050,-98.82594526
2.52100,-85.39739132
2.52150,-66.78053245
2.52200,-63.42339397
2.52250,-74.71558705
2.52300,-73.80000383
2.52350,-38.09225813
2.52400,20.19987374
2.52450,68.42059016
2.52500,86.42706021
2.52550,83.68031054
2.52600,77.57642239
2.52650,69.9465622
2.52700,52.24528655
2.52750,25.69337308
2.52800,6.466125395
2.52850,4.634958948
2.52900,12.26481914
2.52950,13.79079118
2.53000,4.940153356
2.53050,-5.741650914
2.53100,-9.403983806
2.53150,-5.741650914
2.53200,-0.8585403903
2.53250,-0.2481515749
2.53300,-3.300095652
2.53350,-2.079318021
2.53400,8.907680656
2.53450,19.58948493
2.53500,11.04404151
2.53550,-14.59228874
2.53600,-24.66370419
2.53650,13.18040236
2.53700,87.95303225
2.53750,151.4334691
2.53800,170.0503279
2.53850,157.2321628
2.53900,145.0243865
2.53950,142.2776368
2.54000,130.3750549
2.54050,89.17380988
2.54100,18.36870729
2.54150,-66.47533805
2.54200,-142.4687456
2.54250,-190.3842676
2.54300,-208.0855432
2.54350,-210.5270985
2.54400,-211.7478761
2.54450,-209.0011264
2.54500,-193.4362116
2.54550,-164.7479373
2.54600,-128.7349972
2.54650,-88.4493354
2.54700,-45.41692391
2.54750,-9.709178214
2.54800,5.550542171
2.54850,0.05704283282
2.54900,-14.59228874
2.54950,-23.74812097
2.55000,-15.50787196
2.55050,12.57001355
2.55100,47.66737043
2.55150,67.50500693
2.55200,62.62189641
2.55250,50.4141201
2.55300,52.55048096
2.55350,62.316702
2.55400,51.63489773
2.55450,8.907680656
2.55500,-44.50134069
2.55550,-81.73505843
2.55600,-97.60516763
2.55650,-104.3194446
2.55700,-105.2350278
2.55750,-91.80647389
2.55800,-63.11819956
2.55850,-32.59875879
2.55900,-15.50787196
2.55950,-12.15073348
2.56000,-15.20267755
2.56050,-18.25462163
2.56100,-17.94942722
2.56150,-8.488400583
2.56200,11.95962473
2.56250,36.06998294
2.56300,53.16086977
2.56350,59.26475793
2.56400,56.21281385
2.56450,44.61542636
2.56500,24.77778986
2.56550,5.855736579
2.56600,-1.163734798
2.56650,3.719375725
2.56700,15.01156881
2.56750,27.82973393
2.56800,36.68037176
2.56850,32.71284446
2.56900,14.7063744
2.56950,-1.774123613
2.57000,-1.468929206
2.57050,10.7388471
2.57100,16.84273526
2.57150,13.48559677
2.57200,11.04404151
2.57250,9.212875064
2.57300,-9.403983806
2.57350,-47.55328477
2.57400,-78.37791995
2.57450,-75.32597587
2.57500,-42.67017425
2.57550,-9.098789398
2.57600,6.771319802
2.57650,9.823263879
2.57700,9.823263879
2.57750,7.992097433
2.57800,1.888209279
2.57850,-4.82606769
2.57900,-5.741650914
2.57950,1.888209279
2.58000,13.48559677
2.58050,23.55701223
2.58100,33.32323327
2.58150,44.61542636
2.58200,59.87514674
2.58250,85.51147699
2.58300,131.2906381
2.58350,189.2775756
2.58400,227.4268766
2.58450,220.4074052
2.58500,185.3100483
2.58550,166.9983838
2.58600,183.4788819
2.58650,207.8944345
2.58700,208.8100177
2.58750,182.868493
2.58800,142.2776368
2.58850,91.31017074
2.58900,30.5764836
2.58950,-29.54681471
2.59000,-79.59869758
2.59050,-119.579165
2.59100,-146.7414673
2.59150,-147.6570505
2.59200,-114.6960545
2.59250,-64.6441716
2.59300,-26.80006504
2.59350,-14.89748314
2.59400,-23.13773215
2.59450,-44.19614628
2.59500,-73.80000383
2.59550,-104.3194446
2.59600,-127.2090252
2.59650,-140.0271903
2.59700,-147.3518561
2.59750,-154.6765219
2.59800,-160.78041
2.59850,-160.4752156
2.59900,-146.7414673
2.59950,-119.579165
2.60000,-88.14414099
2.60050,-64.33897719
2.60100,-49.99484003
2.60150,-41.44939661
2.60200,-36.8714805
2.60250,-33.20914761
2.60300,-19.78059367
2.60350,10.43365269
2.60400,45.53100958
2.60450,66.89461812
2.60500,74.2192839
2.60550,85.20628258
2.60600,103.2127526
2.60650,110.8426128
2.60700,99.85561415
2.60750,86.1218658
2.60800,80.32317206
2.60850,65.36864608
2.60900,21.72584578
2.60950,-35.65070287
2.61000,-73.18961502
2.61050,-77.76753113
2.61100,-65.86494923
2.61150,-57.31950582
2.61200,-56.40392259
2.61250,-58.54028345
2.61300,-60.37144989
2.61350,-55.48833937
2.61400,-36.56628609
2.61450,-5.436456506
2.61500,29.66090038
2.61550,64.45306286
2.61600,93.14133718
2.61650,99.85561415
2.61700,72.99850627
2.61750,30.2712892
2.61800,6.160930987
2.61850,8.602486248
2.61900,9.212875064
2.61950,-12.45592788
2.62000,-41.75459102
2.62050,-52.7415897
2.62100,-48.46886799
2.62150,-46.33250714
2.62200,-44.50134069
2.62250,-27.10525945
2.62300,3.414181318
2.62350,27.52453953
2.62400,36.37517735
2.62450,40.34270465
2.62500,45.22581517
2.62550,41.86867669
2.62600,29.05051156
2.62650,19.58948493
2.62700,22.3362346
2.62750,29.66090038
2.62800,37.90114939
2.62850,56.82320267
2.62900,93.751726
2.62950,131.5958326
2.63000,145.0243865
2.63050,127.3231108
2.63100,90.0893931
2.63150,44.31023195
2.63200,-9.098789398
2.63250,-65.55975482
2.63300,-109.5077495
2.63350,-128.7349972
2.63400,-130.8713581
2.63450,-133.9233021
2.63500,-147.3518561
2.63550,-163.5271597
2.63600,-170.2414367
2.63650,-162.0011877
2.63700,-139.4168015
2.63750,-102.4882782
2.63800,-52.43639529
2.63850,-4.520873283
2.63900,19.28429052
2.63950,12.87520796
2.64000,-1.468929206
2.64050,4.024570133
2.64100,31.79726123
2.64150,52.55048096
2.64200,46.4465928
2.64250,27.82973393
2.64300,19.89467933
2.64350,17.45312407
2.64400,-1.774123613
2.64450,-33.51434201
2.64500,-40.53381339
2.64550,-3.910484467
2.64600,48.27775925
2.64650,80.01797765
2.64700,86.42706021
2.64750,82.1543385
2.64800,69.33617338
2.64850,46.1413984
2.64900,35.76478853
2.64950,61.70631319
2.65000,102.9075582
2.65050,106.8750855
2.65100,55.60242503
2.65150,-12.45592788
2.65200,-60.6766443
2.65250,-92.4168627
2.65300,-126.5986364
2.65350,-152.540161
2.65400,-148.5726337
2.65450,-123.8518867
2.65500,-116.5272209
2.65550,-141.5531623
2.65600,-170.5466311
2.65650,-172.0726031
2.65700,-154.0661331
2.65750,-146.7414673
2.65800,-150.7089946
2.65850,-129.6505804
2.65900,-59.76106108
2.65950,31.79726123
2.66000,99.85561415
2.66050,130.0698605
2.66100,143.8036089
2.66150,154.4854131
2.66200,147.7711362
2.66250,109.6218352
2.66300,51.94009214
2.66350,-0.2481515749
2.66400,-31.37798116
2.66450,-36.8714805
2.66500,-20.08578808
2.66550,2.193403687
2.66600,13.18040236
2.66650,9.823263879
2.66700,8.297291841
2.66750,19.89467933
2.66800,38.81673261
2.66850,54.99203622
2.66900,66.58942371
2.66950,77.27122798
2.67000,88.56342107
2.67050,105.9595023
2.67100,136.7841375
2.67150,176.4594105
2.67200,203.011324
2.67250,200.8749631
2.67300,178.5957713
2.67350,155.4009964
2.67400,135.2581654
2.67450,105.6543079
2.67500,61.40111878
2.67550,19.28429052
2.67600,0.05704283282
2.67650,0.05704283282
2.67700,-9.403983806
2.67750,-46.63770155
2.67800,-91.80647389
2.67850,-108.8973607
2.67900,-94.55322355
2.67950,-83.87141929
2.68000,-98.21555645
2.68050,-110.1181383
2.68100,-83.87141929
2.68150,-36.56628609
2.68200,-16.42345518
2.68250,-32.29356438
2.68300,-39.00784135
2.68350,-10.01437262
2.68400,20.19987374
2.68450,11.95962473
2.68500,-13.37151111
2.68550,0.05704283282
2.68600,61.40111878
2.68650,124.8815556
2.68700,156.3165796
2.68750,171.5763
2.68800,193.5502973
2.68850,208.8100177
2.68900,192.6347141
2.68950,148.9919138
2.69000,100.466003
2.69050,54.3816474
2.69100,5.245347764
2.69150,-39.31303576
2.69200,-62.81300515
2.69250,-60.6766443
2.69300,-47.85847918
2.69350,-40.53381339
2.69400,-47.24809036
2.69450,-71.66364298
2.69500,-103.4038614
2.69550,-117.1376097
2.69600,-95.16361237
2.69650,-53.96236733
2.69700,-26.49487064
2.69750,-24.05331538
2.69800,-30.46239794
2.69850,-31.37798116
2.69900,-29.85200912
2.69950,-32.29356438
2.70000,-41.14420221
2.70050,-62.20261634
2.70100,-100.6571117
2.70150,-147.9622449
2.70200,-180.6180465
2.70250,-180.0076577
2.70300,-145.5206896
2.70350,-88.75452981
2.70400,-27.41045386
2.70450,16.84273526
2.70500,33.32323327
2.70550,29.96609479
2.70600,22.94662341
2.70650,15.92715203
2.70700,4.940153356
2.70750,-4.520873283
2.70800,1.277820464
2.70850,19.58948493
2.70900,24.77778986
2.70950,2.803792502
2.71000,-26.18967623
2.71050,-31.37798116
2.71100,-1.468929206
2.71150,49.19334247
2.71200,102.2971694
2.71250,143.8036089
2.71300,157.5373572
2.71350,136.4789431
2.71400,98.02444771
2.71450,77.8816168
2.71500,89.47900429
2.71550,105.0439191
2.71600,88.86861547
2.71650,42.1738711
2.71700,-2.689706836
2.71750,-30.76759235
2.71800,-54.87795055
2.71850,-79.29350317
2.71900,-82.34544725
2.71950,-53.96236733
2.72000,-22.22214893
2.72050,-21.61176011
2.72100,-42.67017425
2.72150,-47.85847918
2.72200,-24.35850978
2.72250,1.888209279
2.72300,7.381708618
2.72350,-6.352039729
2.72400,-28.63123149
2.72450,-54.57275615
2.72500,-75.02078146
2.72550,-74.71558705
2.72600,-50.91042325
2.72650,-23.44292656
2.72700,-16.11826078
2.72750,-33.20914761
2.72800,-58.54028345
2.72850,-68.30650449
2.72900,-44.8065351
2.72950,7.381708618
2.73000,60.48553556
2.73050,85.20628258
2.73100,77.57642239
2.73150,57.12839707
2.73200,38.2063438
2.73250,18.36870729
2.73300,-2.689706836
2.73350,-15.50787196
2.73400,-11.54034466
2.73450,-2.384512429
2.73500,-6.962428544
2.73550,-26.18967623
2.73600,-38.70264695
2.73650,-24.66370419
2.73700,13.18040236
2.73750,55.90761944
2.73800,88.56342107
2.73850,109.9270296
2.73900,119.0828618
2.73950,108.706252
2.74000,74.2192839
2.74050,27.52453953
2.74100,-12.45592788
2.74150,-38.70264695
2.74200,-54.57275615
2.74250,-66.47533805
2.74300,-75.02078146
2.74350,-79.29350317
2.74400,-78.98830876
2.74450,-78.07272554
2.74500,-82.04025284
2.74550,-89.67011303
2.74600,-86.92336336
2.74650,-67.08572686
2.74700,-53.35197851
2.74750,-75.93636468
2.74800,-123.5466923
2.74850,-145.5206896
2.74900,-116.5272209
2.74950,-68.30650449
2.75000,-39.61823017
2.75050,-27.10525945
2.75100,-13.98189992
2.75150,-10.31956703
2.75200,-28.63123149
2.75250,-46.02731273
2.75300,-32.29356438
2.75350,3.10898691
2.75400,35.15439972
2.75450,68.42059016
2.75500,119.3880562
2.75550,163.9464398
2.75600,160.5893013
2.75650,112.6737793
2.75700,62.62189641
2.75750,29.05051156
2.75800,0.6674316482
2.75850,-16.11826078
2.75900,2.803792502
2.75950,49.49853688
2.76000,79.71278324
2.76050,69.64136779
2.76100,40.64789906
2.76150,14.40117999
2.76200,-11.84553907
2.76250,-39.61823017
2.76300,-50.60522885
2.76350,-36.8714805
2.76400,-13.67670551
2.76450,2.193403687
2.76500,9.823263879
2.76550,12.57001355
2.76600,15.31676322
2.76650,27.52453953
2.76700,49.49853688
2.76750,58.65436911
2.76800,41.56348228
2.76850,23.86220663
2.76900,40.03751024
2.76950,77.57642239
2.77000,94.97250363
2.77050,84.59589377
2.77100,78.49200561
2.77150,87.34264344
2.77200,83.68031054
2.77250,53.16086977
2.77300,23.25181782
2.77350,16.84273526
2.77400,17.75831848
2.77450,2.803792502
2.77500,-19.47539926
2.77550,-26.80006504
2.77600,-15.81306637
2.77650,-1.774123613
2.77700,5.855736579
2.77750,8.907680656
2.77800,10.7388471
2.77850,9.823263879
2.77900,1.583014871
2.77950,-19.17020485
2.78000,-47.24809036
2.78050,-62.81300515
2.78100,-51.82600648
2.78150,-28.63123149
2.78200,-15.50787196
2.78250,-12.76112229
2.78300,-2.384512429
2.78350,15.92715203
2.78400,22.641429
2.78450,7.686903025
2.78500,-18.25462163
2.78550,-45.72211832
2.78600,-70.13767094
2.78650,-75.93636468
2.78700,-45.11172951
2.78750,8.297291841
2.78800,42.4790655
2.78850,36.37517735
2.78900,10.43365269
2.78950,-11.23515025
2.79000,-27.71564827
2.79050,-35.95589728
2.79100,-16.42345518
2.79150,27.52453953
2.79200,55.29723063
2.79250,40.64789906
2.79300,13.79079118
2.79350,11.65443033
2.79400,16.84273526
2.79450,-7.878011767
2.79500,-51.21561766
2.79550,-62.50781075
2.79600,-31.37798116
2.79650,-0.8585403903
2.79700,-2.689706836
2.79750,-18.25462163
2.79800,-20.69617689
2.79850,-7.878011767
2.79900,12.26481914
2.79950,43.08945432
2.80000,77.57642239
2.80050,92.83614277
2.80100,76.35564476
2.80150,44.00503754
2.80200,16.53754085
2.80250,-2.384512429
2.80300,-18.55981604
2.80350,-29.54681471
2.80400,-34.42992524
2.80450,-43.58575747
2.80500,-61.89742193
2.80550,-77.15714232
2.80600,-76.5467535
2.80650,-65.55975482
2.80700,-57.92989463
2.80750,-57.62470022
2.80800,-57.01431141
2.80850,-49.99484003
2.80900,-39.00784135
2.80950,-28.9364259
2.81000,-25.57928741
2.81050,-31.98836998
2.81100,-38.09225813
2.81150,-21.91695452
2.81200,28.13492834
2.81250,91.61536514
2.81300,128.2386941
2.81350,118.1672786
2.81400,80.32317206
2.81450,52.55048096
2.81500,51.02450892
2.81550,62.92709082
2.81600,65.67384049
2.81650,52.55048096
2.81700,31.79726123
2.81750,11.95962473
2.81800,-1.774123613
2.81850,-6.352039729
2.81900,1.583014871
2.81950,19.58948493
2.82000,33.93362209
2.82050,31.79726123
2.82100,14.09598559
2.82150,-3.910484467
2.82200,-10.62476144
2.82250,-11.84553907
2.82300,-26.80006504
2.82350,-61.28703312
2.82400,-94.85841796
2.82450,-99.74152849
2.82500,-68.00131008
2.82550,-21.0013713
2.82600,10.7388471
2.82650,11.95962473
2.82700,-12.76112229
2.82750,-50.30003444
2.82800,-86.61816895
2.82850,-113.7804712
2.82900,-122.6311091
2.82950,-107.9817775
2.83000,-79.90389198
2.83050,-65.86494923
2.83100,-86.00778014
2.83150,-118.0531929
2.83200,-113.1700824
2.83250,-53.96236733
2.83300,18.36870729
2.83350,50.1089257
2.83400,35.45959413
2.83450,14.7063744
2.83500,18.6739017
2.83550,42.4790655
2.83600,67.50500693
2.83650,81.8491441
2.83700,78.79720002
2.83750,55.60242503
2.83800,22.3362346
2.83850,-2.689706836
2.83900,-12.15073348
2.83950,-10.01437262
2.84000,-1.468929206
2.84050,8.297291841
2.84100,7.992097433
2.84150,-6.962428544
2.84200,-16.72864959
2.84250,1.583014871
2.84300,34.84920531
2.84350,45.83620399
2.84400,24.16740104
2.84450,-0.5533459826
2.84500,-7.267622952
2.84550,-8.793594991
2.84600,-19.78059367
2.84650,-22.52734334
2.84700,6.771319802
2.84750,58.95956352
2.84800,97.7192533
2.84850,101.991975
2.84900,83.06992173
2.84950,62.92709082
2.85000,47.97256484
2.85050,24.77778986
2.85100,-17.33903841
2.85150,-67.08572686
2.85200,-92.72205711
2.85250,-79.59869758
2.85300,-50.30003444
2.85350,-33.81953642
2.85400,-25.57928741
2.85450,-6.352039729
2.85500,18.36870729
2.85550,25.99856749
2.85600,21.11545696
2.85650,32.71284446
2.85700,65.67384049
2.85750,91.31017074
2.85800,92.53094837
2.85850,87.34264344
2.85900,88.86861547
2.85950,81.54394969
2.86000,52.55048096
2.86050,20.19987374
2.86100,5.855736579
2.86150,4.634958948
2.86200,4.024570133
2.86250,8.907680656
2.86300,28.13492834
2.86350,53.77125859
2.86400,69.33617338
2.86450,71.77772864
2.86500,69.9465622
2.86550,66.2842293
2.86600,57.43359148
2.86650,38.81673261
2.86700,3.10898691
2.86750,-53.04678411
2.86800,-120.4947482
2.86850,-177.8712969
2.86900,-210.8322929
2.86950,-212.6634593
2.87000,-177.260908
2.87050,-109.5077495
2.87100,-38.70264695
2.87150,1.583014871
2.87200,7.381708618
2.87250,-1.468929206
2.87300,-12.45592788
2.87350,-26.18967623
2.87400,-40.8390078
2.87450,-53.04678411
2.87500,-71.66364298
2.87550,-105.2350278
2.87600,-132.3973301
2.87650,-123.8518867
2.87700,-84.4818081
2.87750,-51.52081207
2.87800,-41.44939661
2.87850,-38.09225813
2.87900,-27.10525945
2.87950,-15.20267755
2.88000,-6.352039729
2.88050,7.686903025
2.88100,25.99856749
2.88150,37.29076057
2.88200,46.4465928
2.88250,68.72578457
2.88300,91.61536514
2.88350,77.57642239
2.88400,25.08298426
2.88450,-18.25462163
2.88500,-19.17020485
2.88550,-2.994901244
2.88600,-11.23515025
2.88650,-39.00784135
2.88700,-48.16367358
2.88750,-22.83253774
2.88800,14.40117999
2.88850,39.42712143
2.88900,48.58295366
2.88950,50.71931451
2.89000,47.36217603
2.89050,39.12192702
2.89100,33.93362209
2.89150,43.69984313
2.89200,66.2842293
2.89250,76.35564476
2.89300,50.4141201
2.89350,0.9726260559
2.89400,-30.15720353
2.89450,-22.52734334
2.89500,-0.5533459826
2.89550,1.888209279
2.89600,-17.64423281
2.89650,-41.44939661
2.89700,-59.15067226
2.89750,-64.6441716
2.89800,-46.94289595
2.89850,-8.488400583
2.89900,21.72584578
2.89950,27.21934512
2.90000,32.40765005
2.90050,59.56995233
2.90100,82.76472732
2.90150,66.2842293
2.90200,32.71284446
2.90250,38.2063438
2.90300,81.54394969
2.90350,96.80367007
2.90400,50.4141201
2.90450,-10.92995584
2.90500,-31.98836998
2.90550,-17.33903841
2.90600,-4.82606769
2.90650,-1.468929206
2.90700,11.34923592
2.90750,37.90114939
2.90800,61.09592437
2.90850,69.64136779
2.90900,66.58942371
2.90950,55.90761944
2.91000,42.78425991
2.91050,35.15439972
2.91100,34.2388165
2.91150,28.44012275
2.91200,6.771319802
2.91250,-23.44292656
2.91300,-44.8065351
2.91350,-46.02731273
2.91400,-25.27409301
2.91450,11.04404151
2.91500,49.19334247
2.91550,70.2517566
2.91600,67.50500693
2.91650,53.16086977
2.91700,39.12192702
2.91750,23.25181782
2.91800,-1.774123613
2.91850,-25.88448182
2.91900,-24.9688986
2.91950,9.823263879
2.92000,54.076453
2.92050,71.16733983
2.92100,52.85567537
2.92150,23.55701223
2.92200,4.940153356
2.92250,-10.31956703
2.92300,-39.92342458
2.92350,-74.41039265
2.92400,-86.92336336
