type,name,time_units,begin_time,frequency,count,units
signal_4d,"Noraxon MyoMotion-Segments-Forearm RT-Orientation","s",0.0000,200,4984,""

time,x,y,z,w
0.0000,0.1793579008,-0.6115201358,-0.7345096407,0.2331725856
0.0050,0.1794269778,-0.6116141314,-0.7344463877,0.2330721294
0.0100,0.1794960499,-0.61170811,-0.7343831144,0.2329716668
0.0150,0.1795651169,-0.6118020716,-0.7343198208,0.2328711979
0.0200,0.1796373639,-0.6119041309,-0.7342513256,0.2327632765
0.0250,0.1797119521,-0.6120138118,-0.7341779956,0.2326486174
0.0300,0.1797879908,-0.6121305254,-0.7341002721,0.2325280385
0.0350,0.1798645764,-0.612253585,-0.7340186607,0.2324024259
0.0400,0.1799408327,-0.6123822234,-0.7339337159,0.2322727058
0.0450,0.1800159449,-0.6125156165,-0.7338460181,0.2321398305
0.0500,0.180089183,-0.612652904,-0.7337561527,0.2320047709
0.0550,0.1801599222,-0.6127932059,-0.7336646956,0.2318685053
0.0600,0.1802276625,-0.6129356352,-0.7335722002,0.2317320087
0.0650,0.180292048,-0.6130793093,-0.7334791849,0.2315962503
0.0700,0.1803528894,-0.6132233606,-0.7333861182,0.2314621935
0.0750,0.1804101933,-0.6133669477,-0.7332934021,0.2313307936
0.0800,0.18046419,-0.6135092591,-0.7332013639,0.2312029953
0.0850,0.1805153528,-0.6136495099,-0.7331102537,0.2310797314
0.0900,0.180564398,-0.6137869433,-0.7330202438,0.2309619203
0.0950,0.1806122626,-0.6139208397,-0.7329314284,0.2308504592
0.1000,0.180660065,-0.6140505269,-0.7328438305,0.2307462056
0.1050,0.1807090506,-0.6141753892,-0.7327574162,0.2306499495
0.1100,0.1807605235,-0.6142948719,-0.7326721171,0.2305623827
0.1150,0.1808157704,-0.614408477,-0.7325878576,0.2304840807
0.1200,0.1808759925,-0.6145157552,-0.7325045801,0.2304154988
0.1250,0.1809422504,-0.6146163024,-0.73242226,0.2303569748
0.1300,0.1810154227,-0.6147097644,-0.732340912,0.2303087296
0.1350,0.1810961701,-0.6147958471,-0.7322605894,0.2302708682
0.1400,0.1811849019,-0.6148743311,-0.7321813801,0.2302433819
0.1450,0.1812817505,-0.6149450855,-0.7321034001,0.2302261503
0.1500,0.1813865636,-0.61500808,-0.7320267847,0.2302189448
0.1550,0.181506992,-0.6151362506,-0.7318963799,0.2301962078
0.1600,0.1816240585,-0.6152549289,-0.7317710603,0.2301851192
0.1650,0.1817347504,-0.6153632119,-0.7316524077,0.2301854737
0.1700,0.181840064,-0.6154618408,-0.7315401994,0.2301952438
0.1750,0.1819378377,-0.6155502756,-0.7314352754,0.2302149417
0.1800,0.1820287061,-0.6156304287,-0.7313361559,0.2302436805
0.1850,0.182109962,-0.6157018048,-0.7312435435,0.2302827161
0.1900,0.1821807853,-0.6157637142,-0.731158843,0.2303301022
0.1950,0.1822408506,-0.6158175387,-0.7310813064,0.2303847974
0.2000,0.1822875711,-0.6158625195,-0.73101232,0.2304464938
0.2050,0.1823194105,-0.6158990978,-0.7309523149,0.2305138766
0.2100,0.1823344077,-0.6159283057,-0.7309009917,0.2305867005
0.2150,0.1823306304,-0.6159499013,-0.7308597332,0.2306627637
0.2200,0.1823046313,-0.6159654497,-0.7308277798,0.2307430226
0.2250,0.1822574319,-0.6159738854,-0.7308062921,0.2308258315
0.2300,0.1821868297,-0.6159774405,-0.7307944938,0.230909419
0.2350,0.1820923116,-0.6159742398,-0.7307937082,0.2309949828
0.2400,0.1819760085,-0.6159649883,-0.7308033295,0.2310808498
0.2450,0.1818388038,-0.6159500403,-0.7308224324,0.2311682712
0.2500,0.1816812534,-0.6159296676,-0.7308512544,0.2312552932
0.2550,0.1815046051,-0.6159042805,-0.730888767,0.2313430481
0.2600,0.1813097605,-0.6158747442,-0.7309350802,0.2314281287
0.2650,0.1810973771,-0.6158417702,-0.730989049,0.2315116939
0.2700,0.1808679089,-0.6158049947,-0.7310518647,0.231590542
0.2750,0.1806209569,-0.6157657203,-0.7311223024,0.2316653334
0.2800,0.1803578364,-0.6157241774,-0.7312002314,0.2317347833
0.2850,0.1800804022,-0.6156800207,-0.7312856665,0.231798263
0.2900,0.1797903457,-0.6156334436,-0.731378085,0.2318555403
0.2950,0.1794888724,-0.6155864536,-0.7314755158,0.2319065169
0.3000,0.1791781485,-0.6155383787,-0.7315778205,0.2319516933
0.3050,0.1788623926,-0.6154901946,-0.7316834675,0.2319900177
0.3100,0.1785423615,-0.6154426253,-0.7317912501,0.2320227714
0.3150,0.1782229839,-0.6153953123,-0.7319007403,0.2320484518
0.3200,0.1779045567,-0.6153504637,-0.7320094014,0.2320689805
0.3250,0.1775899442,-0.6153084338,-0.7321163942,0.2320838824
0.3300,0.1772795578,-0.615269462,-0.7322221099,0.2320909938
0.3350,0.1769746788,-0.6152356724,-0.7323246859,0.2320896053
0.3400,0.1766781927,-0.6152069992,-0.7324228027,0.2320818873
0.3450,0.1763904608,-0.6151838455,-0.7325162931,0.2320670636
0.3500,0.1761136865,-0.6151670523,-0.7326043816,0.2320437184
0.3550,0.1758494194,-0.6151560583,-0.7326868247,0.2320129793
0.3600,0.1755990086,-0.6151529673,-0.7327620655,0.2319732107
0.3650,0.1753631612,-0.6151577306,-0.7328295388,0.2319258399
0.3700,0.1751421713,-0.6151708003,-0.732888516,0.2318717953
0.3750,0.1749377399,-0.6151925136,-0.7329385217,0.2318104436
0.3800,0.1747517797,-0.6152230719,-0.7329784048,0.2317434904
0.3850,0.1745832654,-0.6152627372,-0.7330086212,0.2316696113
0.3900,0.1744328163,-0.615311667,-0.7330288438,0.2315889876
0.3950,0.1742995181,-0.615369263,-0.7330395878,0.2315022914
0.4000,0.1741812646,-0.6154379661,-0.7330396833,0.2314083396
0.4050,0.1740765087,-0.6155146084,-0.7330320406,0.2313075082
0.4100,0.1739842421,-0.615600922,-0.733015927,0.2311982679
0.4150,0.1739013977,-0.615696256,-0.7329924314,0.2310811973
0.4200,0.1738264207,-0.6157998639,-0.7329628806,0.230955231
0.4250,0.1737579217,-0.6159121983,-0.7329271726,0.230820511
0.4300,0.1736924667,-0.6160319383,-0.7328866797,0.2306787652
0.4350,0.173629497,-0.616159082,-0.7328418199,0.2305290665
0.4400,0.1735663405,-0.616293169,-0.7327937217,0.2303710413
0.4450,0.1735024114,-0.6164336979,-0.7327425888,0.2302057944
0.4500,0.1734358681,-0.6165799027,-0.7326894263,0.2300335364
0.4550,0.1733666571,-0.6167311984,-0.7326346428,0.2298545438
0.4600,0.1732918693,-0.6168878369,-0.732579227,0.2296671524
0.4650,0.1732118291,-0.6170488438,-0.7325240947,0.2294707765
0.4700,0.1731226984,-0.6172139528,-0.7324699349,0.2292667927
0.4750,0.1730237075,-0.6173831564,-0.7324174107,0.229053643
0.4800,0.1729140028,-0.6175556512,-0.7323672041,0.2288319113
0.4850,0.1727932875,-0.617730416,-0.7323205364,0.2286006233
0.4900,0.1726605813,-0.6179074308,-0.732277783,0.2283593201
0.4950,0.1725172547,-0.6180861715,-0.7322382764,0.2281104733
0.5000,0.1723635503,-0.6182671445,-0.7322015661,0.2278539252
0.5050,0.1722004029,-0.6184490051,-0.7321683609,0.2275902913
0.5100,0.1720279436,-0.6186312311,-0.7321392407,0.22731898
0.5150,0.1718479199,-0.6188139749,-0.7321130442,0.2270419506
0.5200,0.1716615654,-0.6189952464,-0.7320910725,0.2267594619
0.5250,0.1714691312,-0.6191762095,-0.7320725254,0.2264706961
0.5300,0.1712731914,-0.6193555068,-0.7320570844,0.2261784148
0.5350,0.1710768917,-0.6195340466,-0.7320433196,0.2258823597
0.5400,0.170879315,-0.6197111193,-0.7320320901,0.2255823738
0.5450,0.1706810971,-0.6198867149,-0.7320227483,0.2252800918
0.5500,0.1704848053,-0.6200603724,-0.7320148936,0.224976135
0.5550,0.1702904293,-0.6202316616,-0.7320089419,0.2246703464
0.5600,0.1700992517,-0.6204015829,-0.732003151,0.2243646751
0.5650,0.1699105148,-0.6205694256,-0.7319986435,0.224058008
0.5700,0.1697241633,-0.6207364266,-0.7319940159,0.2237515537
0.5750,0.1695409261,-0.6209013725,-0.7319896054,0.2234470351
0.5800,0.1693613112,-0.6210645405,-0.7319848388,0.2231451961
0.5850,0.1691848711,-0.6212264973,-0.7319790662,0.2228469543
0.5900,0.1690101314,-0.621387145,-0.7319725118,0.2225529904
0.5950,0.1688380604,-0.6215454448,-0.7319659718,0.2222628748
0.6000,0.1686659706,-0.6217035544,-0.7319584066,0.2219760613
0.6050,0.1684923284,-0.6218602454,-0.7319503657,0.2216953601
0.6100,0.1683162387,-0.6220161104,-0.7319420925,0.2214190044
0.6150,0.1681358535,-0.6221715137,-0.7319335288,0.2211475791
0.6200,0.1679501589,-0.6223261396,-0.7319255308,0.2208799162
0.6250,0.1677590059,-0.622479051,-0.7319184,0.2206177751
0.6300,0.1675625915,-0.6226312392,-0.7319104679,0.2203637558
0.6350,0.1673605025,-0.6227803272,-0.7319037064,0.2201183564
0.6400,0.1671544927,-0.622925996,-0.7318978137,0.2198821716
0.6450,0.1669443045,-0.6230680899,-0.7318927736,0.2196559183
0.6500,0.166728677,-0.6232056967,-0.7318892785,0.2194408619
0.6550,0.1665067981,-0.6233387278,-0.7318873277,0.2192378984
0.6600,0.1662799808,-0.6234658992,-0.7318873597,0.2190482441
0.6650,0.1660496169,-0.6235864651,-0.7318894869,0.2188726213
0.6700,0.1658159697,-0.6236995697,-0.7318941693,0.2187117643
0.6750,0.1655798247,-0.6238037165,-0.7319023744,0.2185661437
0.6800,0.1653397004,-0.623899293,-0.7319137501,0.2184369889
0.6850,0.1650975451,-0.6239844781,-0.731929582,0.2183237475
0.6900,0.1648522159,-0.6240604128,-0.7319492273,0.2182262053
0.6950,0.1646049296,-0.6241269844,-0.7319720882,0.2181457922
0.7000,0.1643553678,-0.6241822915,-0.7319997105,0.2180830207
0.7050,0.1641034923,-0.6242268318,-0.7320319907,0.2180368566
0.7100,0.1638490547,-0.6242600972,-0.7320689976,0.2180087179
0.7150,0.1635934156,-0.624283115,-0.7321097074,0.2179980801
0.7200,0.1633358205,-0.6242956937,-0.7321548365,0.2180036511
0.7250,0.1630777298,-0.6242978884,-0.7322039848,0.218025515
0.7300,0.1628184648,-0.6242921506,-0.7322558909,0.218061387
0.7350,0.1625593187,-0.6242770076,-0.7323118207,0.2181102543
0.7400,0.1623000037,-0.6242534908,-0.7323709907,0.2181719965
0.7450,0.1620405172,-0.6242224206,-0.7324334803,0.2182439856
0.7500,0.1617797279,-0.6241834823,-0.73250003,0.2183254591
0.7550,0.1615163045,-0.6241398962,-0.73256889,0.2184140443
0.7600,0.1612515423,-0.6240907306,-0.7326403645,0.2185104034
0.7650,0.1609859384,-0.6240366934,-0.7327140007,0.2186136458
0.7700,0.1607191101,-0.6239778423,-0.7327901314,0.2187227544
0.7750,0.1604521773,-0.6239153773,-0.732867627,0.2188372503
0.7800,0.1601845566,-0.6238500484,-0.73294662,0.2189549658
0.7850,0.1599165176,-0.6237826973,-0.7330264856,0.2190753875
0.7900,0.1596483099,-0.6237142962,-0.7331067104,0.2191972744
0.7950,0.1593796223,-0.6236454117,-0.7331875258,0.2193184636
0.8000,0.1591086571,-0.6235763563,-0.7332690411,0.219439004
0.8050,0.1588339258,-0.6235085225,-0.7333504799,0.2195586026
0.8100,0.1585564549,-0.6234427011,-0.7334311212,0.2196766704
0.8150,0.1582737441,-0.6233782677,-0.7335123759,0.2197920647
0.8200,0.1579851742,-0.6233159022,-0.7335939611,0.2199042316
0.8250,0.1576888692,-0.6232559694,-0.7336754499,0.2200148891
0.8300,0.1573825408,-0.623198534,-0.7337579259,0.2201218507
0.8350,0.1570638448,-0.6231437805,-0.7338418528,0.2202246865
0.8400,0.1567327276,-0.6230911889,-0.7339271449,0.2203251425
0.8450,0.1563883794,-0.6230418437,-0.7340139096,0.2204203174
0.8500,0.1560277635,-0.6229960358,-0.7341020549,0.2205117897
0.8550,0.1556512503,-0.6229539501,-0.7341915331,0.2205988599
0.8600,0.1552574966,-0.6229143902,-0.7342839675,0.2206803736
0.8650,0.1548462968,-0.6228782474,-0.7343789086,0.2207553664
0.8700,0.1544173152,-0.6228440418,-0.7344775093,0.220824321
0.8750,0.1539706934,-0.6228123452,-0.7345797373,0.2208855309
0.8800,0.1535042798,-0.6227823687,-0.7346866242,0.2209391807
0.8850,0.153019655,-0.6227544475,-0.7347977813,0.2209843975
0.8900,0.1525166032,-0.6227289642,-0.7349133575,0.2210196368
0.8950,0.1519942129,-0.6227045751,-0.7350341239,0.2210466199
0.9000,0.1514543346,-0.6226801933,-0.7351607197,0.2210648719
0.9050,0.1508980512,-0.6226570165,-0.735292179,0.2210733576
0.9100,0.1503289185,-0.6226332087,-0.735429049,0.2210728785
0.9150,0.1497489465,-0.6226090546,-0.7355701354,0.2210651355
0.9200,0.1491601722,-0.6225831438,-0.7357156593,0.2210518961
0.9250,0.1485668133,-0.6225564655,-0.7358640209,0.2210327849
0.9300,0.1479715913,-0.6225282,-0.7360154551,0.2210074619
0.9350,0.1473784168,-0.6224983449,-0.7361691895,0.2209758748
0.9400,0.1467885032,-0.6224664654,-0.7363244908,0.2209408946
0.9450,0.1462048298,-0.6224321714,-0.7364807303,0.2209037656
0.9500,0.1456301152,-0.6223955636,-0.7366373723,0.2208642429
0.9550,0.1450676795,-0.6223567447,-0.7367933522,0.2208234744
0.9600,0.1445181575,-0.6223156442,-0.7369485923,0.2207815965
0.9650,0.1439834014,-0.6222719009,-0.737102669,0.2207399304
0.9700,0.1434677492,-0.6222260196,-0.7372543953,0.2206983055
0.9750,0.1429722685,-0.622178999,-0.7374030593,0.2206557311
0.9800,0.1424997768,-0.622129739,-0.7375487929,0.22061319
0.9850,0.1420544475,-0.6220793454,-0.7376896636,0.2205714901
0.9900,0.1416399158,-0.6220280357,-0.7378247677,0.2205308803
0.9950,0.1412568094,-0.621976013,-0.7379540765,0.2204906667
1.0000,0.14090673,-0.6219244869,-0.7380764285,0.2204504747
1.0050,0.1405884915,-0.6218735087,-0.7381918512,0.2204109936
1.0100,0.1403007823,-0.621824199,-0.7383004978,0.2203695326
1.0150,0.1400409153,-0.6217753793,-0.7384038043,0.2203264432
1.0200,0.1398066015,-0.6217292943,-0.7385004659,0.2202813217
1.0250,0.1395933634,-0.6216858506,-0.7385917692,0.220233046
1.0300,0.1393983814,-0.6216441921,-0.7386786461,0.2201827593
1.0350,0.1392198534,-0.6216045707,-0.7387613697,0.2201300269
1.0400,0.1390549603,-0.6215675003,-0.7388398048,0.2200756767
1.0450,0.1389016989,-0.6215337342,-0.7389135443,0.2200202476
1.0500,0.1387570751,-0.6215024322,-0.738983544,0.2199648214
1.0550,0.1386200411,-0.6214732108,-0.7390496034,0.2199118374
1.0600,0.1384878765,-0.6214454514,-0.7391126373,0.2198617028
1.0650,0.1383584762,-0.6214188874,-0.7391727722,0.2198160851
1.0700,0.138230491,-0.6213928587,-0.7392300577,0.2197775428
1.0750,0.1381024079,-0.6213667879,-0.7392848879,0.219747342
1.0800,0.137971303,-0.6213396646,-0.7393371266,0.2197306397
1.0850,0.1378365831,-0.6213103056,-0.7393875138,0.219728662
1.0900,0.1376959953,-0.6212775199,-0.7394361766,0.219745755
1.0950,0.1375486494,-0.621238709,-0.7394850659,0.2197832404
1.1000,0.1373944987,-0.621193585,-0.7395335571,0.2198440347
1.1050,0.1372340308,-0.6211405284,-0.7395820346,0.2199310775
1.1100,0.1370646864,-0.6210777371,-0.7396323703,0.220044707
1.1150,0.1368864228,-0.6210047159,-0.739684095,0.220187851
1.1200,0.1366992159,-0.620920578,-0.7397378801,0.2203606792
1.1250,0.1365013161,-0.6208240507,-0.7397951658,0.2205629194
1.1300,0.1362920159,-0.6207143091,-0.7398561608,0.2207964995
1.1350,0.1360685376,-0.620590315,-0.7399226728,0.2210598388
1.1400,0.1358295245,-0.6204524949,-0.7399944673,0.22135318
1.1450,0.1355723631,-0.6202987266,-0.7400740773,0.2216754028
1.1500,0.1352955842,-0.6201276373,-0.7401634282,0.2220245887
1.1550,0.1349963737,-0.6199391553,-0.7402628021,0.2224014537
1.1600,0.1346733802,-0.6197309255,-0.7403742276,0.2228063369
1.1650,0.1343240447,-0.6195027073,-0.7404986592,0.2232379499
1.1700,0.1339466562,-0.6192532597,-0.7406374292,0.2236959813
1.1750,0.1335396443,-0.6189815278,-0.7407916586,0.2241801735
1.1800,0.1331019397,-0.6186878613,-0.74096175,0.2246884263
1.1850,0.132633314,-0.6183703051,-0.7411494529,0.225220022
1.1900,0.1321335156,-0.6180276525,-0.7413557674,0.2257746244
1.1950,0.1316036225,-0.6176600893,-0.7415805569,0.2263510066
1.2000,0.1310441474,-0.61726682,-0.7418242033,0.2269492362
1.2050,0.1304559038,-0.6168456782,-0.7420880499,0.2275697532
1.2100,0.129838012,-0.6163962481,-0.7423727073,0.2282115674
1.2150,0.1291907104,-0.6159187936,-0.7426781187,0.2288733535
1.2200,0.1285136662,-0.615412483,-0.7430050579,0.2295543451
1.2250,0.127806551,-0.6148759856,-0.7433542663,0.2302551684
1.2300,0.1270696625,-0.6143082856,-0.7437262439,0.2309759842
1.2350,0.1263020778,-0.6137085146,-0.7441214877,0.2317171893
1.2400,0.1255053897,-0.6130763135,-0.7445403236,0.2324769614
1.2450,0.1246783899,-0.612411412,-0.7449831585,0.2332544856
1.2500,0.123820357,-0.6117134291,-0.7454498875,0.2340505609
1.2550,0.1229302315,-0.6109814926,-0.7459413938,0.2348642393
1.2600,0.1220080093,-0.6102157017,-0.7464571895,0.235695794
1.2650,0.1210534476,-0.6094167578,-0.7469964582,0.2365450689
1.2700,0.1200634961,-0.6085825184,-0.7475614816,0.2374108389
1.2750,0.1190377476,-0.6077140136,-0.7481503287,0.2382955687
1.2800,0.1179759747,-0.6068107571,-0.7487636927,0.2391972135
1.2850,0.1168757588,-0.6058730343,-0.7494008069,0.2401173755
1.2900,0.115735259,-0.6049000892,-0.7500625788,0.2410546822
1.2950,0.1145533235,-0.6038926862,-0.7507480591,0.2420093209
1.3000,0.1133309596,-0.6028491395,-0.7514578105,0.2429818255
1.3050,0.1120700303,-0.6017715007,-0.7521893053,0.2439725769
1.3100,0.1107708868,-0.6006586303,-0.7529425057,0.2449828639
1.3150,0.1094338212,-0.5995118671,-0.7537166155,0.2460102103
1.3200,0.1080609055,-0.5983305426,-0.7545107523,0.247056526
1.3250,0.1066526445,-0.5971157919,-0.7553237023,0.2481210375
1.3300,0.1052109792,-0.5958687747,-0.7561542899,0.2492022133
1.3350,0.1037338968,-0.5945903645,-0.7570009286,0.2503021599
1.3400,0.1022237744,-0.5932809775,-0.7578636826,0.2514172235
1.3450,0.1006789323,-0.5919409364,-0.7587414934,0.2525490579
1.3500,0.09910234193,-0.5905717106,-0.7596326466,0.2536967141
1.3550,0.09749444305,-0.5891733527,-0.7605363079,0.2548609784
1.3600,0.0958568088,-0.5877466292,-0.7614510891,0.2560422054
1.3650,0.09419018441,-0.5862925208,-0.7623754691,0.2572410026
1.3700,0.09249590642,-0.5848119024,-0.763308754,0.2584555902
1.3750,0.0907744331,-0.5833048304,-0.7642499589,0.2596872684
1.3800,0.08902494539,-0.5817731074,-0.765197997,0.2609341603
1.3850,0.08724787836,-0.5802174164,-0.7661515341,0.2621972239
1.3900,0.08544323414,-0.5786390878,-0.7671100482,0.2634737821
1.3950,0.08361050526,-0.5770381689,-0.7680725381,0.2647655778
1.4000,0.08175024358,-0.5754156233,-0.7690381259,0.2660716426
1.4050,0.07986082165,-0.5737717285,-0.7700064814,0.2673916067
1.4100,0.0779440098,-0.5721068524,-0.7709762572,0.2687267974
1.4150,0.07600126553,-0.5704208665,-0.7719468734,0.2700775208
1.4200,0.07403217705,-0.5687131012,-0.7729181162,0.2714447106
1.4250,0.07203930242,-0.5669839527,-0.7738890146,0.272828388
1.4300,0.07002251897,-0.5652335005,-0.7748591538,0.274228424
1.4350,0.06798571838,-0.5634625023,-0.7758266111,0.2756465492
1.4400,0.06592688865,-0.5616703313,-0.776792044,0.2770815847
1.4450,0.06384672787,-0.5598564063,-0.7777547593,0.278535337
1.4500,0.06174508499,-0.5580218725,-0.7787134091,0.2800081441
1.4550,0.05962328666,-0.5561654461,-0.7796687903,0.2814989125
1.4600,0.0574823788,-0.5542893536,-0.7806185994,0.2830082875
1.4650,0.05532381775,-0.5523928848,-0.7815625916,0.2845369773
1.4700,0.05314942177,-0.5504763211,-0.7825002331,0.286084505
1.4750,0.0509599753,-0.5485405625,-0.7834311493,0.2876490336
1.4800,0.04875611042,-0.5465861586,-0.7843542321,0.2892314845
1.4850,0.04653778543,-0.5446131189,-0.7852688532,0.2908326211
1.4900,0.04430664277,-0.5426223064,-0.7861744735,0.2924511093
1.4950,0.04206252488,-0.5406143653,-0.7870704175,0.2940867389
1.5000,0.03980563967,-0.5385886428,-0.7879567044,0.2957397792
1.5050,0.0375381148,-0.5365472094,-0.7888323435,0.2974079958
1.5100,0.03525965373,-0.5344909648,-0.7896961978,0.2990920936
1.5150,0.0329712485,-0.5324183202,-0.7905489941,0.3007921492
1.5200,0.0306752496,-0.5303317801,-0.7913891599,0.3025069084
1.5250,0.02837002277,-0.5282320671,-0.79221585,0.3042368683
1.5300,0.02605654445,-0.5261195885,-0.7930292157,0.3059802251
1.5350,0.0237360929,-0.5239952761,-0.7938281721,0.3077375209
1.5400,0.02140754729,-0.5218587692,-0.7946132666,0.3095075097
1.5450,0.019074529,-0.5197099214,-0.7953842973,0.3112901853
1.5500,0.01673762773,-0.5175489173,-0.7961407296,0.3130861042
1.5550,0.01439712487,-0.5153761877,-0.7968826597,0.3148938467
1.5600,0.01205402227,-0.513192173,-0.7976094467,0.3167138528
1.5650,0.009709613176,-0.5109956988,-0.7983218655,0.3185456298
1.5700,0.007364967334,-0.5087880901,-0.7990189289,0.3203891196
1.5750,0.005021856068,-0.5065671239,-0.7997015715,0.3222451341
1.5800,0.002681553096,-0.5043336165,-0.8003687911,0.3241145025
1.5850,0.000344811927,-0.50208602,-0.8010216578,0.3259966462
1.5900,-0.001987329712,-0.4998251378,-0.8016588529,0.3278932231
1.5950,-0.004313784953,-0.4975495807,-0.8022815252,0.3298032145
1.6000,-0.006636321464,-0.4952612215,-0.8028881711,0.3317270962
1.6050,-0.008957702886,-0.4929590317,-0.8034801079,0.3336628071
1.6100,-0.01127961757,-0.4906433513,-0.8040566709,0.3356109981
1.6150,-0.01360110112,-0.4883138347,-0.8046182872,0.3375707641
1.6200,-0.01592272232,-0.4859716284,-0.8051642867,0.3395416245
1.6250,-0.01824302307,-0.4836146522,-0.8056955087,0.3415242416
1.6300,-0.02056295252,-0.4812446023,-0.8062113146,0.3435172687
1.6350,-0.02287921895,-0.4788613639,-0.8067123141,0.3455192872
1.6400,-0.02519359512,-0.4764632625,-0.8071983007,0.3475326541
1.6450,-0.02750381667,-0.4740518712,-0.807669237,0.3495550989
1.6500,-0.02981074892,-0.4716268874,-0.8081245911,0.3515878889
1.6550,-0.03211558068,-0.4691879133,-0.8085655131,0.3536284809
1.6600,-0.03441834893,-0.4667375941,-0.8089901495,0.3556772884
1.6650,-0.03671956515,-0.4642744205,-0.8093996004,0.3577334523
1.6700,-0.03901642024,-0.461798814,-0.8097931161,0.359798115
1.6750,-0.04130874365,-0.4593113196,-0.8101706252,0.3618704982
1.6800,-0.04359397765,-0.456810865,-0.8105330086,0.3639500525
1.6850,-0.0458720312,-0.4542979641,-0.8108798834,0.3660367895
1.6900,-0.04814248519,-0.4517716886,-0.8112114557,0.3681312492
1.6950,-0.05040425629,-0.4492349048,-0.8115266679,0.3702321955
1.7000,-0.0526554366,-0.4466862498,-0.8118260256,0.3723403058
1.7050,-0.05489538719,-0.4441258921,-0.8121095097,0.3744553814
1.7100,-0.0571227403,-0.4415552331,-0.8123773356,0.3765754018
1.7150,-0.05933812224,-0.4389743765,-0.812629812,0.3786994491
1.7200,-0.06154053428,-0.4363851513,-0.8128658084,0.3808279664
1.7250,-0.06373023695,-0.433784879,-0.8130867417,0.3829609459
1.7300,-0.06590743988,-0.4311737132,-0.8132927504,0.3850978326
1.7350,-0.06807193531,-0.4285513405,-0.8134844824,0.3872375978
1.7400,-0.07022355322,-0.4259167901,-0.8136621623,0.3893808241
1.7450,-0.07236202364,-0.423272448,-0.8138250146,0.3915265227
1.7500,-0.07448761597,-0.4206173483,-0.8139744811,0.3936726882
1.7550,-0.07660187643,-0.4179529305,-0.8141100638,0.3958185246
1.7600,-0.07870565765,-0.4152800961,-0.8142321794,0.3979620826
1.7650,-0.08079987897,-0.4125989969,-0.8143403957,0.4001039457
1.7700,-0.08288659893,-0.4099108674,-0.8144349847,0.4022419026
1.7750,-0.08496387411,-0.407214549,-0.8145162538,0.4043769571
1.7800,-0.08703175205,-0.4045087661,-0.814584917,0.4065089731
1.7850,-0.08908963096,-0.4017944878,-0.8146409382,0.4086372095
1.7900,-0.0911370824,-0.3990719878,-0.8146838249,0.410762518
1.7950,-0.09317315156,-0.3963408078,-0.814713995,0.4128847711
1.8000,-0.09519740441,-0.3936019407,-0.8147311798,0.4150037002
1.8050,-0.09721022627,-0.3908541454,-0.8147353867,0.4171204365
1.8100,-0.0992102471,-0.3880991403,-0.814726162,0.4192346182
1.8150,-0.1011978894,-0.3853373866,-0.8147029451,0.4213468843
1.8200,-0.1031736302,-0.3825684216,-0.81466621,0.4234566933
1.8250,-0.1051375587,-0.379791878,-0.8146167574,0.4255628763
1.8300,-0.1070897801,-0.3770080181,-0.8145531924,0.427667897
1.8350,-0.1090293623,-0.3742173565,-0.8144763763,0.4297699393
1.8400,-0.1109567426,-0.3714214611,-0.8143851115,0.4318698758
1.8450,-0.1128720351,-0.3686192429,-0.8142801161,0.4339673374
1.8500,-0.1147751466,-0.3658108925,-0.8141612959,0.4360624278
1.8550,-0.1166649747,-0.3629972762,-0.8140288199,0.4381544723
1.8600,-0.1185409632,-0.3601774246,-0.813882783,0.4402443394
1.8650,-0.1204064126,-0.3573520997,-0.8137231266,0.4423306974
1.8700,-0.1222612819,-0.3545231234,-0.8135482423,0.4444151116
1.8750,-0.1241072405,-0.3516901876,-0.8133590898,0.446495684
1.8800,-0.1259447204,-0.3488537667,-0.8131557299,0.4485718847
1.8850,-0.1277756223,-0.3460147632,-0.8129381021,0.4506426701
1.8900,-0.1296002893,-0.3431741107,-0.8127051162,0.4527092762
1.8950,-0.1314212316,-0.3403330692,-0.8124564363,0.4547707126
1.9000,-0.1332370774,-0.3374898148,-0.8121937748,0.4568257636
1.9050,-0.1350467577,-0.3346451625,-0.8119160549,0.4588761361
1.9100,-0.1368480155,-0.3318003752,-0.8116237303,0.4609208739
1.9150,-0.1386422529,-0.3289554159,-0.8113153584,0.4629622547
1.9200,-0.1404314452,-0.3261094354,-0.8109914519,0.4649994734
1.9250,-0.1422167455,-0.3232638367,-0.8106517409,0.4670317379
1.9300,-0.1439980845,-0.3204178894,-0.8102961083,0.4690598519
1.9350,-0.1457773493,-0.3175724828,-0.8099236356,0.4710842675
1.9400,-0.1475551992,-0.3147298346,-0.8095338779,0.4731041059
1.9450,-0.1493315378,-0.3118871949,-0.8091272356,0.4751206016
1.9500,-0.1511065137,-0.309045409,-0.8087043596,0.4771320734
1.9550,-0.1528777267,-0.3062056228,-0.8082648677,0.4791392501
1.9600,-0.1546456998,-0.3033655615,-0.8078099557,0.4811414752
1.9650,-0.1564092395,-0.3005271452,-0.8073395317,0.483138143
1.9700,-0.1581703893,-0.2976892565,-0.8068539258,0.4851288251
1.9750,-0.1599287055,-0.2948522333,-0.8063524933,0.4871145924
1.9800,-0.1616839195,-0.2920150131,-0.8058363212,0.4890944344
1.9850,-0.1634365546,-0.2891787213,-0.8053056386,0.4910671931
1.9900,-0.1651854719,-0.2863434643,-0.8047603427,0.4930334381
1.9950,-0.1669328404,-0.2835099879,-0.8042001569,0.4949925466
2.0000,-0.1686807279,-0.2806772328,-0.80362509,0.4969444816
2.0050,-0.170427228,-0.2778479627,-0.8030348277,0.4988889005
2.0100,-0.1721735633,-0.2750195542,-0.8024291003,0.5008273633
2.0150,-0.1739204592,-0.2721933022,-0.801808096,0.5027586471
2.0200,-0.1756668745,-0.2693692542,-0.801173098,0.5046811083
2.0250,-0.1774126168,-0.2665500241,-0.8005231855,0.5065949838
2.0300,-0.1791577238,-0.2637357732,-0.7998586234,0.5084998864
2.0350,-0.1809029969,-0.2609262156,-0.7991797759,0.5103952405
2.0400,-0.1826471687,-0.2581240844,-0.7984870484,0.5122796135
2.0450,-0.1843912977,-0.2553278012,-0.7977813122,0.5141522548
2.0500,-0.186133988,-0.2525385707,-0.7970618683,0.5160143282
2.0550,-0.1878743435,-0.2497568709,-0.79632872,0.5178661084
2.0600,-0.1896127474,-0.2469817451,-0.7955821119,0.5197077322
2.0650,-0.1913493843,-0.2442150471,-0.7948230551,0.521536897
2.0700,-0.1930827808,-0.2414544479,-0.7940514485,0.5233556023
2.0750,-0.1948131881,-0.2386994773,-0.7932678835,0.5251632569
2.0800,-0.1965372189,-0.2359491807,-0.7924736683,0.526959762
2.0850,-0.1982550311,-0.2332046555,-0.7916693836,0.5287439062
2.0900,-0.1999672803,-0.2304665807,-0.7908546014,0.5305160144
2.0950,-0.2016740493,-0.2277351392,-0.7900307085,0.5322741435
2.1000,-0.2033761079,-0.2250109618,-0.7891971878,0.5340187494
2.1050,-0.2050734676,-0.2222944739,-0.7883542461,0.5357495892
2.1100,-0.2067663973,-0.2195849489,-0.7875027341,0.5374658603
2.1150,-0.208454119,-0.2168832645,-0.7866423869,0.5391681417
2.1200,-0.2101369413,-0.2141899567,-0.7857731844,0.5408563868
2.1250,-0.211811354,-0.2115064924,-0.7848958034,0.5425306736
2.1300,-0.2134789133,-0.2088332086,-0.784010065,0.5441908328
2.1350,-0.2151411265,-0.2061703436,-0.7831157271,0.5458368283
2.1400,-0.21679605,-0.2035156911,-0.7822127289,0.5474706228
2.1450,-0.2184431206,-0.2008703467,-0.7813004978,0.549093106
2.1500,-0.2200796676,-0.1982331917,-0.7803806225,0.5507037549
2.1550,-0.2217049677,-0.1956013133,-0.7794524712,0.5523050595
2.1600,-0.2233189777,-0.1929754947,-0.7785164091,0.5538964646
2.1650,-0.2249188609,-0.1903569578,-0.7775730073,0.5554781301
2.1700,-0.2265065502,-0.187744687,-0.776621965,0.5570503018
2.1750,-0.2280806767,-0.1851403821,-0.7756631206,0.5586134327
2.1800,-0.2296423112,-0.1825424497,-0.7746968223,0.5601673826
2.1850,-0.2311912699,-0.1799518592,-0.7737225665,0.5617128405
2.1900,-0.2327291128,-0.1773677223,-0.7727411705,0.5632485549
2.1950,-0.234254695,-0.1747903637,-0.7717530121,0.5647746055
2.2000,-0.2357684017,-0.1722185843,-0.7707571392,0.5662927267
2.2050,-0.237268172,-0.1696527878,-0.7697554007,0.5678013467
2.2100,-0.238755186,-0.1670921924,-0.7687480089,0.5693001486
2.2150,-0.2402290296,-0.164536115,-0.7677352095,0.5707893905
2.2200,-0.2416892568,-0.161985551,-0.7667176923,0.5722682629
2.2250,-0.2431363171,-0.159440185,-0.7656950812,0.5737373975
2.2300,-0.2445724153,-0.1569005955,-0.7646675772,0.5751956477
2.2350,-0.2459990487,-0.1543677303,-0.7636343703,0.5766434084
2.2400,-0.2474161397,-0.1518416465,-0.762595949,0.5780802598
2.2450,-0.2488263341,-0.1493233753,-0.7615521303,0.5795052527
2.2500,-0.2502285475,-0.1468135187,-0.7605033491,0.5809183426
2.2550,-0.2516235785,-0.1443115745,-0.7594499232,0.5823191208
2.2600,-0.2530113901,-0.1418182804,-0.7583928408,0.5837063566
2.2650,-0.2543928951,-0.1393342168,-0.7573317049,0.5850802677
2.2700,-0.2557686594,-0.136860306,-0.7562666256,0.5864404833
2.2750,-0.2571362597,-0.1343939153,-0.7551988269,0.5877873351
2.2800,-0.2584947161,-0.1319342412,-0.7541289518,0.589120838
2.2850,-0.2598429491,-0.1294814971,-0.7530573831,0.5904411584
2.2900,-0.2611798459,-0.1270352698,-0.7519853658,0.5917475289
2.2950,-0.2625048675,-0.1245934032,-0.7509124903,0.5930414069
2.3000,-0.263818281,-0.1221565565,-0.7498395356,0.5943217657
2.3050,-0.2651195134,-0.1197225372,-0.7487687421,0.5955867096
2.3100,-0.266408311,-0.1172927134,-0.7476993209,0.596837295
2.3150,-0.2676840744,-0.1148679429,-0.7466319038,0.5980730659
2.3200,-0.2689496167,-0.1124477705,-0.7455659128,0.5992938113
2.3250,-0.2702063374,-0.1100314826,-0.7445015752,0.6004989696
2.3300,-0.2714543809,-0.107620527,-0.7434383942,0.6016890354
2.3350,-0.2726960963,-0.1052158219,-0.7423759867,0.6028634706
2.3400,-0.2739332057,-0.102816437,-0.7413137002,0.6040226626
2.3450,-0.2751653457,-0.1004246408,-0.7402506429,0.6051676707
2.3500,-0.2763954625,-0.09804086492,-0.7391870542,0.6062969866
2.3550,-0.2776253216,-0.09566440816,-0.738121252,0.6074121493
2.3600,-0.2788554241,-0.09329772146,-0.737053572,0.6085123003
2.3650,-0.2800848759,-0.09093735124,-0.7359838302,0.6095987714
2.3700,-0.2813136086,-0.08858575872,-0.7349123687,0.6106709649
2.3750,-0.2825419737,-0.08624424638,-0.7338385163,0.6117295113
2.3800,-0.2837724901,-0.08391275729,-0.732761978,0.6127737809
2.3850,-0.2850039732,-0.08159087135,-0.7316819737,0.6138054695
2.3900,-0.2862362434,-0.07927806468,-0.730599274,0.6148239604
2.3950,-0.2874677789,-0.07697397293,-0.7295133399,0.6158307969
2.4000,-0.2886980475,-0.07467791588,-0.7284257731,0.6168245613
2.4050,-0.2899255399,-0.07239028782,-0.7273372831,0.6178052316
2.4100,-0.291149905,-0.07011090726,-0.7262472515,0.6187738869
2.4150,-0.2923708174,-0.06784001,-0.7251565321,0.6197298138
2.4200,-0.2935892471,-0.06557689976,-0.7240646601,0.6206733378
2.4250,-0.2948063699,-0.0633208737,-0.7229710925,0.6216047543
2.4300,-0.2960211662,-0.06107305317,-0.7218764872,0.6225238057
2.4350,-0.2972337669,-0.05883466865,-0.7207799549,0.6234314928
2.4400,-0.2984471994,-0.05660737715,-0.7196817614,0.6243260658
2.4450,-0.2996642179,-0.05439152192,-0.7185804114,0.6252080544
2.4500,-0.3008861734,-0.05218815665,-0.7174750737,0.6260778111
2.4550,-0.3021137981,-0.04999860821,-0.7163669124,0.6269336798
2.4600,-0.3033458331,-0.04782371764,-0.7152566769,0.6277755043
2.4650,-0.3045851559,-0.0456634023,-0.7141422746,0.6286044449
2.4700,-0.3058282495,-0.04351692004,-0.7130248911,0.6294210547
2.4750,-0.3070769151,-0.04138499683,-0.7119044821,0.6302246097
2.4800,-0.3083314729,-0.03926685477,-0.7107806467,0.6310156014
2.4850,-0.3095884542,-0.03716164797,-0.7096540278,0.6317951897
2.4900,-0.3108471959,-0.03506823402,-0.7085260034,0.6325623624
2.4950,-0.3121046677,-0.03298521792,-0.7073980923,0.6333171328
2.5000,-0.3133618995,-0.03091403711,-0.7062703628,0.6340590011
2.5050,-0.3146210879,-0.02885306965,-0.705141975,0.6347880485
2.5100,-0.3158806458,-0.02679978471,-0.7040124763,0.6355058004
2.5150,-0.3171389548,-0.02475392667,-0.7028839574,0.6362108683
2.5200,-0.3183945179,-0.02271525939,-0.7017568384,0.6369036722
2.5250,-0.3196480136,-0.02068480061,-0.700631216,0.6375838656
2.5300,-0.3208974347,-0.01866194307,-0.6995068946,0.6382528282
2.5350,-0.3221430504,-0.01664535447,-0.6983842589,0.638910177
2.5400,-0.323383667,-0.01463482516,-0.6972649681,0.6395548375
2.5450,-0.3246159658,-0.0126301279,-0.6961492349,0.6401884077
2.5500,-0.32584106,-0.01062979487,-0.6950356568,0.6408120215
2.5550,-0.3270597158,-0.008635566666,-0.6939243573,0.6414252533
2.5600,-0.3282707293,-0.006645708308,-0.6928147056,0.6420295527
2.5650,-0.3294734295,-0.004659043014,-0.6917074156,0.6426246212
2.5700,-0.3306668094,-0.002677516513,-0.6906025148,0.6432110529
2.5750,-0.3318538283,-0.0007021051119,-0.6894993438,0.6437881628
2.5800,-0.333036035,0.001265203912,-0.6883956427,0.644357694
2.5850,-0.3342134953,0.003225090275,-0.6872898136,0.6449214297
2.5900,-0.33538454,0.005179601489,-0.6861830316,0.6454790695
2.5950,-0.3365461172,0.007129843437,-0.6850771865,0.6460302816
2.6000,-0.3376962045,0.009075452297,-0.683973757,0.6465746743
2.6050,-0.3388366705,0.01101504146,-0.6828693493,0.6471150063
2.6100,-0.3399671384,0.01294866297,-0.6817661934,0.6476492372
2.6150,-0.3410870876,0.01487780273,-0.6806640169,0.6481780201
2.6200,-0.3421948637,0.01680242986,-0.6795627787,0.6487023843
2.6250,-0.3432925322,0.01872122602,-0.6784621801,0.6492217058
2.6300,-0.3443807081,0.02063378294,-0.677360537,0.6497375453
2.6350,-0.3454593277,0.02254145906,-0.6762581482,0.6502496847
2.6400,-0.3465273953,0.02444559072,-0.6751558003,0.6507578834
2.6450,-0.347585169,0.02634738803,-0.6740536056,0.6512619305
2.6500,-0.3486314775,0.02824721553,-0.6729508612,0.651763244
2.6550,-0.3496658633,0.03014478955,-0.6718502143,0.652259431
2.6600,-0.3506881713,0.03204039029,-0.6707509462,0.6527513984
2.6650,-0.3516989762,0.03393236161,-0.6696525544,0.6532395283
2.6700,-0.3526995509,0.03582039676,-0.6685540149,0.6537242959
2.6750,-0.3536912095,0.03770293225,-0.6674549943,0.6542055088
2.6800,-0.3546758619,0.03958007366,-0.6663553065,0.6546824087
2.6850,-0.3556542096,0.04144878777,-0.6652553658,0.6551544699
2.6900,-0.3566261479,0.04331136249,-0.6641549619,0.6556219209
2.6950,-0.3575910981,0.04516711336,-0.6630542585,0.6560850469
2.7000,-0.3585487392,0.04701648512,-0.6619529295,0.6565444165
2.7050,-0.3594989301,0.04886002955,-0.6608521883,0.6569989361
2.7100,-0.3604405706,0.0506987767,-0.6597532613,0.6574479928
2.7150,-0.3613743392,0.05253211944,-0.6586555989,0.6578919102
2.7200,-0.3623003184,0.0543580382,-0.6575583138,0.6583317909
2.7250,-0.3632206321,0.05617767333,-0.656461857,0.6587660219
2.7300,-0.3641342502,0.05799157348,-0.6553665321,0.6591949134
2.7350,-0.3650405592,0.05980116039,-0.6542730809,0.659618031
2.7400,-0.3659394636,0.06160477436,-0.6531809508,0.6600362159
2.7450,-0.3668287856,0.06340313233,-0.6520930345,0.6604478475
2.7500,-0.3677104917,0.06519422484,-0.6510091124,0.6608523609
2.7550,-0.3685856747,0.06697687713,-0.6499284674,0.6612500931
2.7600,-0.3694551972,0.06875139786,-0.6488497251,0.6616420005
2.7650,-0.370318535,0.07051993975,-0.6477734544,0.6620276977
2.7700,-0.3711758257,0.07228313153,-0.6467007815,0.6624060344
2.7750,-0.3720251604,0.07404358538,-0.6456328002,0.6627768213
2.7800,-0.3728634681,0.07579948536,-0.6445713994,0.6631402441
2.7850,-0.3736945459,0.07755178077,-0.6435169345,0.6634938302
2.7900,-0.3745174041,0.07929889486,-0.6424690365,0.663838788
2.7950,-0.3753356723,0.08104076479,-0.6414245367,0.6641762502
2.8000,-0.3761481818,0.08277770453,-0.6403854929,0.6645049417
2.8050,-0.3769532545,0.0845098048,-0.6393517946,0.664826007
2.8100,-0.3777497508,0.08623582767,-0.6383258515,0.6651380421
2.8150,-0.3785399117,0.08795624094,-0.6373054388,0.6654419679
2.8200,-0.3793257914,0.08967119855,-0.6362896194,0.6657375912
2.8250,-0.3801052177,0.09138200924,-0.6352804577,0.6660240926
2.8300,-0.3808796691,0.09308962918,-0.6342760463,0.6663024056
2.8350,-0.3816472953,0.09479381667,-0.6332790195,0.6665711948
2.8400,-0.3824090211,0.09649545006,-0.632288161,0.6668310507
2.8450,-0.3831664067,0.09819293925,-0.6313029199,0.6670819101
2.8500,-0.383920986,0.09988624571,-0.6303218084,0.6673243831
2.8550,-0.3846734683,0.1015762857,-0.6293451046,0.667557728
2.8600,-0.3854250922,0.1032621096,-0.6283720676,0.6677821349
2.8650,-0.3861766348,0.104942385,-0.627401168,0.66799886
2.8700,-0.3869302755,0.1066201399,-0.6264305116,0.6682079929
2.8750,-0.3876856348,0.1082922698,-0.6254598765,0.6684104845
2.8800,-0.3884412894,0.109960886,-0.6244901879,0.6686059927
2.8850,-0.3891962124,0.1116266928,-0.6235220805,0.6687944414
2.8900,-0.3899539403,0.1132875191,-0.6225529457,0.6689766006
2.8950,-0.3907145403,0.1149423509,-0.6215816356,0.6691537
2.9000,-0.3914795727,0.1165911707,-0.6206076488,0.669325324
2.9050,-0.3922465575,0.1182373559,-0.6196311975,0.6694921544
2.9100,-0.3930174717,0.1198797317,-0.6186511712,0.6696542729
2.9150,-0.3937909292,0.121519369,-0.6176690698,0.669810919
2.9200,-0.3945670081,0.1231560986,-0.6166839597,0.6699629432
2.9250,-0.3953448594,0.1247914045,-0.6156956808,0.6701107193
2.9300,-0.3961237686,0.1264262857,-0.6147057442,0.6702530882
2.9350,-0.396903381,0.1280592929,-0.6137134985,0.6703911287
2.9400,-0.3976841566,0.1296899153,-0.6127189175,0.6705246943
2.9450,-0.3984686029,0.1313172436,-0.6117202864,0.6706540429
2.9500,-0.3992561619,0.1329418425,-0.6107182443,0.6707788083
2.9550,-0.400047607,0.13456307,-0.6097111318,0.6709001625
2.9600,-0.4008456157,0.1361817578,-0.608696743,0.6710183278
2.9650,-0.4016482846,0.1377976061,-0.6076761664,0.671133483
2.9700,-0.4024558075,0.1394103348,-0.606650743,0.6712443353
2.9750,-0.4032682433,0.1410225595,-0.6056201985,0.671350532
2.9800,-0.4040840009,0.1426317804,-0.6045835496,0.6714544117
2.9850,-0.4049035955,0.1442402694,-0.6035411056,0.6715548801
2.9900,-0.4057257717,0.1458464948,-0.6024930624,0.6716528179
2.9950,-0.4065507092,0.147453442,-0.6014397418,0.671747155
3.0000,-0.4073787259,0.1490581969,-0.6003816308,0.6718378711
3.0050,-0.4082101866,0.1506599861,-0.5993171887,0.6719262753
3.0100,-0.4090474455,0.1522580773,-0.5982454622,0.6720119286
3.0150,-0.4098885358,0.1538521196,-0.597166753,0.6720958136
3.0200,-0.410732274,0.1554425724,-0.5960829828,0.6721768245
3.0250,-0.4115784171,0.157028957,-0.5949935338,0.6722557608
3.0300,-0.4124265754,0.1586114387,-0.5938987463,0.6723325149
3.0350,-0.4132750249,0.1601910317,-0.5928007415,0.6724060291
3.0400,-0.4141224553,0.1617700002,-0.5917020022,0.6724743858
3.0450,-0.4149693332,0.1633464883,-0.590603183,0.6725371793
3.0500,-0.4158148903,0.1649201855,-0.5895031348,0.6725959883
3.0550,-0.4166596744,0.1664892818,-0.5884017235,0.6726510585
3.0600,-0.4175042535,0.1680553033,-0.5872992347,0.6727014362
3.0650,-0.4183460761,0.1696177197,-0.5861977982,0.6727470038
3.0700,-0.419184053,0.1711743255,-0.5850992106,0.6727874804
3.0750,-0.4200196576,0.172722274,-0.5840022883,0.6728237738
3.0800,-0.4208550339,0.1742617738,-0.5829053281,0.6728560419
3.0850,-0.421688697,0.1757909168,-0.5818084117,0.6728857024
3.0900,-0.4225194348,0.1773115306,-0.5807129536,0.6729118916
3.0950,-0.4233447392,0.178822868,-0.5796209241,0.672934765
3.1000,-0.4241638751,0.1803226389,-0.5785312447,0.6729564264
3.1050,-0.4249765042,0.1818105015,-0.5774446843,0.6729766333
3.1100,-0.4257834294,0.183286757,-0.5763601969,0.6729958093
3.1150,-0.4265819371,0.1847501759,-0.5752791373,0.6730149609
3.1200,-0.4273687332,0.1862014072,-0.5742028891,0.67303495
3.1250,-0.4281431292,0.187640841,-0.5731335903,0.6730544283
3.1300,-0.4289023551,0.1890689916,-0.5720732982,0.6730734192
3.1350,-0.4296461959,0.1904856607,-0.5710218899,0.6730923865
3.1400,-0.430373722,0.1918901268,-0.5699804212,0.6731114009
3.1450,-0.4310857085,0.1932825365,-0.5689477349,0.6731310779
3.1500,-0.4317811695,0.194659845,-0.5679261895,0.6731511046
3.1550,-0.4324607103,0.1960236902,-0.5669135605,0.6731726835
3.1600,-0.4331255441,0.1973720519,-0.565910179,0.673195518
3.1650,-0.4337742362,0.1987073142,-0.5649180765,0.673218302
3.1700,-0.4344042946,0.2000287753,-0.5639393033,0.6732413089
3.1750,-0.4350146938,0.2013403686,-0.5629756867,0.6732626889
3.1800,-0.4356065441,0.2026413916,-0.5620283347,0.6732811865
3.1850,-0.4361808705,0.203931654,-0.5610967497,0.6732967891
3.1900,-0.4367373109,0.205211175,-0.5601804348,0.6733103114
3.1950,-0.4372777371,0.206481204,-0.5592795452,0.6733201937
3.2000,-0.4378011539,0.2077429205,-0.5583925529,0.673328141
3.2050,-0.4383105765,0.2089950456,-0.5575205422,0.6733318309
3.2100,-0.4388054863,0.2102381163,-0.5566607873,0.6733338306
3.2150,-0.4392872676,0.2114742869,-0.5558107633,0.673334774
3.2200,-0.4397560301,0.2127047774,-0.5549720211,0.6733330287
3.2250,-0.4402105215,0.2139296992,-0.5541440351,0.673329911
3.2300,-0.4406517388,0.2151486983,-0.5533258781,0.6733257424
3.2350,-0.441082628,0.2163611842,-0.5525158518,0.6733202705
3.2400,-0.4415038609,0.2175693212,-0.5517114166,0.6733145209
3.2450,-0.4419135343,0.2187748776,-0.5509138177,0.6733082107
3.2500,-0.4423127984,0.219977541,-0.5501193622,0.6733037629
3.2550,-0.4427020753,0.2211789202,-0.5493275436,0.67330083
3.2600,-0.4430807558,0.2223784299,-0.5485392246,0.6732993367
3.2650,-0.4434514474,0.2235762683,-0.5477518917,0.673299585
3.2700,-0.4438142314,0.2247740671,-0.5469626969,0.6733033157
3.2750,-0.4441700239,0.2259707291,-0.5461719288,0.673310065
3.2800,-0.4445192452,0.2271663775,-0.5453788487,0.6733201237
3.2850,-0.4448624533,0.228361156,-0.5445822932,0.6733340226
3.2900,-0.4451998105,0.2295556421,-0.5437824303,0.6733513231
3.2950,-0.4455323548,0.2307483236,-0.542979335,0.6733717946
3.3000,-0.4458585559,0.2319418599,-0.5421730869,0.6733954749
3.3050,-0.4461799054,0.2331371292,-0.541362768,0.6734218028
3.3100,-0.4464940869,0.2343341749,-0.5405493353,0.6734515135
3.3150,-0.446800303,0.2355354103,-0.5397360441,0.6734816719
3.3200,-0.4470979241,0.2367429556,-0.5389226299,0.6735121515
3.3250,-0.4473871756,0.2379550276,-0.5381095064,0.6735430788
3.3300,-0.4476665663,0.2391719717,-0.5372985483,0.6735738144
3.3350,-0.4479371114,0.2403928848,-0.5364888667,0.6736047068
3.3400,-0.4481989356,0.2416175386,-0.5356802092,0.6736359497
3.3450,-0.4484519851,0.2428456372,-0.5348730041,0.6736673386
3.3500,-0.4486953362,0.2440787574,-0.5340706555,0.6736962152
3.3550,-0.4489270443,0.2453185624,-0.5332748696,0.6737219198
3.3600,-0.4491466578,0.2465619627,-0.5324879626,0.6737440523
3.3650,-0.4493556538,0.2478082791,-0.5317112439,0.6737608673
3.3700,-0.4495562459,0.2490580503,-0.5309431995,0.6737719111
3.3750,-0.4497491986,0.2503097846,-0.5301852849,0.6737761006
3.3800,-0.4499351037,0.2515630017,-0.5294379867,0.6737728675
3.3850,-0.4501144958,0.2528155643,-0.528702544,0.6737617169
3.3900,-0.4502882624,0.2540674863,-0.5279790508,0.6737420241
3.3950,-0.4504562105,0.2553170276,-0.5272700182,0.6737126581
3.4000,-0.4506208649,0.2565656773,-0.5265757274,0.6736712052
3.4050,-0.4507832865,0.2578111828,-0.5258967328,0.6736174353
3.4100,-0.4509439836,0.2590512896,-0.5252340515,0.6735511443
3.4150,-0.4511038835,0.2602863116,-0.5245891679,0.6734705095
3.4200,-0.4512637259,0.2615160051,-0.523963058,0.6733744446
3.4250,-0.4514240197,0.2627382924,-0.5233545337,0.6732644177
3.4300,-0.4515866288,0.2639507901,-0.5227644349,0.6731395418
3.4350,-0.451752822,0.2651524282,-0.5221923857,0.6729997696
3.4400,-0.4519226393,0.2663426757,-0.5216366271,0.6728467407
3.4450,-0.4520960218,0.2675225553,-0.5210997659,0.6726781574
3.4500,-0.4522724187,0.268692828,-0.5205808296,0.6724949244
3.4550,-0.4524507576,0.2698528234,-0.5200814561,0.6722968427
3.4600,-0.4526307738,0.2710034779,-0.5196018777,0.6720836156
3.4650,-0.4528124596,0.2721433573,-0.5191405064,0.6718571308
3.4700,-0.4529991357,0.273269865,-0.5186947418,0.671618291
3.4750,-0.4531914966,0.2743835612,-0.5182625933,0.6713680162
3.4800,-0.4533899853,0.2754819501,-0.5178410746,0.6711094083
3.4850,-0.4535944221,0.2765668035,-0.5174294322,0.6708425196
3.4900,-0.4538045101,0.2776402601,-0.5170279164,0.6705665412
3.4950,-0.45402002,0.2787017881,-0.5166373652,0.6702812601
3.5000,-0.4542430947,0.2797495269,-0.5162538982,0.669989049
3.5050,-0.4544741265,0.2807827626,-0.5158762272,0.6696909936
3.5100,-0.454715501,0.2818030488,-0.5155031166,0.6693858317
3.5150,-0.4549693097,0.2828082002,-0.5151330102,0.669074309
3.5200,-0.4552393002,0.2837961948,-0.5147600785,0.6687592698
3.5250,-0.4555282753,0.2847663893,-0.5143818769,0.6684410061
3.5300,-0.4558367628,0.2857205722,-0.5139969117,0.6681195814
3.5350,-0.4561628851,0.286662574,-0.5136032305,0.6677961609
3.5400,-0.4565084307,0.2875894664,-0.5132011333,0.6674705599
3.5450,-0.4568746718,0.2885011144,-0.5127882858,0.667143774
3.5500,-0.4572628087,0.2893987604,-0.5123648357,0.6668143342
3.5550,-0.4576733662,0.2902809782,-0.5119291589,0.6664837431
3.5600,-0.4581065334,0.2911485546,-0.5114814801,0.6661513482
3.5650,-0.4585621669,0.2920021301,-0.5110205391,0.6658179209
3.5700,-0.4590406721,0.2928411162,-0.5105465121,0.6654832838
3.5750,-0.4595413387,0.2936664606,-0.5100597402,0.6651472238
3.5800,-0.4600638085,0.2944789578,-0.5095612755,0.6648088011
3.5850,-0.4606066876,0.2952806689,-0.5090510211,0.6644681059
3.5900,-0.4611687225,0.296072643,-0.5085300013,0.6641247151
3.5950,-0.4617495976,0.296853828,-0.50799917,0.6637785453
3.6000,-0.4623485929,0.2976243425,-0.5074579739,0.663430429
3.6050,-0.4629640399,0.2983845318,-0.5069084237,0.6630797983
3.6100,-0.4635948953,0.2991344891,-0.5063525647,0.6627257432
3.6150,-0.4642415555,0.2998726098,-0.5057883941,0.662370211
3.6200,-0.4649021637,0.3005996312,-0.5052188881,0.6620118693
3.6250,-0.4655744518,0.3013178366,-0.5046466587,0.6616492583
3.6300,-0.4662584081,0.3020267065,-0.5040729389,0.6612816629
3.6350,-0.4669531583,0.3027260912,-0.5034980148,0.660909533
3.6400,-0.4676553354,0.3034150465,-0.5029245901,0.6605336127
3.6450,-0.4683643683,0.3040944115,-0.5023530406,0.6601536412
3.6500,-0.4690786978,0.3047639373,-0.5017835968,0.6597706721
3.6550,-0.4697986333,0.3054248142,-0.5012169091,0.6593834522
3.6600,-0.4705213472,0.3060776121,-0.500654053,0.6589929259
3.6650,-0.4712447434,0.3067224838,-0.5000969471,0.6585990839
3.6700,-0.471967088,0.3073595079,-0.4995454411,0.6582032764
3.6750,-0.4726852957,0.3079905499,-0.4990012459,0.657805586
3.6800,-0.4733972079,0.3086157555,-0.4984668733,0.6574056398
3.6850,-0.4741001483,0.3092360564,-0.4979421992,0.6570050814
3.6900,-0.4747933683,0.3098495688,-0.4974284556,0.6566044728
3.6950,-0.475477475,0.3104578275,-0.4969247615,0.6562033904
3.7000,-0.4761494287,0.3110588158,-0.496432645,0.6558039064
3.7050,-0.4768067527,0.3116542121,-0.4959539805,0.6554056926
3.7100,-0.4774472129,0.3122458595,-0.4954897375,0.6550088565
3.7150,-0.4780706984,0.3128325237,-0.4950401957,0.6546139504
3.7200,-0.4786770666,0.3134139108,-0.4946048132,0.6542217248
3.7250,-0.4792650083,0.3139889784,-0.4941839626,0.6538334531
3.7300,-0.4798319772,0.3145595449,-0.493778262,0.6534497642
3.7350,-0.4803780424,0.3151261434,-0.4933875892,0.6530705452
3.7400,-0.4809021673,0.3156876126,-0.4930142362,0.6526954877
3.7450,-0.4814045011,0.3162434161,-0.4926568059,0.6523258999
3.7500,-0.4818842162,0.3167917271,-0.4923170663,0.6519620465
3.7550,-0.4823426193,0.3173310624,-0.4919933898,0.6516050175
3.7600,-0.4827801556,0.3178616889,-0.491685608,0.6512545824
3.7650,-0.4831971454,0.3183823076,-0.4913928899,0.6509118624
3.7700,-0.4835926692,0.3188949907,-0.4911170396,0.6505752598
3.7750,-0.483967048,0.3193959068,-0.4908589758,0.6502458128
3.7800,-0.4843189789,0.3198873942,-0.4906202244,0.6499222854
3.7850,-0.4846491825,0.3203688294,-0.4903993851,0.6496055928
3.7900,-0.4849590221,0.3208356677,-0.4901965183,0.6492970004
3.7950,-0.4852487014,0.3212889223,-0.4900090214,0.6489979085
3.8000,-0.4855180723,0.3217269528,-0.4898397631,0.6487071572
3.8050,-0.4857655068,0.3221506578,-0.4896882043,0.6484260087
3.8100,-0.4859911529,0.3225581008,-0.4895553645,0.6481546235
3.8150,-0.4861942021,0.3229497513,-0.4894409181,0.6478936978
3.8200,-0.4863738753,0.3233245646,-0.4893479604,0.6476420716
3.8250,-0.4865298912,0.3236828869,-0.4892759865,0.6474002338
3.8300,-0.4866623494,0.3240227843,-0.4892254813,0.6471687735
3.8350,-0.48677245,0.3243421548,-0.4891987265,0.6469461759
3.8400,-0.4868595955,0.324641152,-0.4891937257,0.6467343778
3.8450,-0.4869258318,0.3249172778,-0.4892113347,0.6465324949
3.8500,-0.4869701113,0.3251693983,-0.4892524369,0.6463412613
3.8550,-0.4869928568,0.325398615,-0.4893175532,0.6461594469
3.8600,-0.4869921456,0.3256053574,-0.4894073942,0.6459877737
3.8650,-0.4869700761,0.3257864528,-0.4895222969,0.6458260238
3.8700,-0.4869260535,0.3259410665,-0.489663861,0.6456738673
3.8750,-0.4868604705,0.3260694809,-0.4898312923,0.6455314717
3.8800,-0.4867734031,0.3261709386,-0.4900258099,0.6453982325
3.8850,-0.4866659711,0.3262433109,-0.4902478916,0.6452740034
3.8900,-0.4865400445,0.3262853256,-0.4904972711,0.6451581965
3.8950,-0.4863964463,0.3262962361,-0.4907726559,0.6450515201
3.9000,-0.4862351907,0.3262757516,-0.4910751402,0.6449532386
3.9050,-0.4860567751,0.3262243802,-0.491404965,0.6448624858
3.9100,-0.4858610565,0.3261413995,-0.4917611356,0.644780433
3.9150,-0.4856485853,0.3260284086,-0.4921449647,0.6447047868
3.9200,-0.4854197623,0.3258848657,-0.4925549819,0.6446365631
3.9250,-0.4851742966,0.3257102668,-0.4929922944,0.6445753033
3.9300,-0.4849129267,0.3255067011,-0.4934547397,0.6445209546
3.9350,-0.4846353033,0.3252736055,-0.4939440838,0.6444726111
3.9400,-0.4843426409,0.3250109055,-0.4944588994,0.6444303797
3.9450,-0.4840346597,0.3247202205,-0.4949978771,0.644394544
3.9500,-0.4837135443,0.3244017157,-0.4955607247,0.6443634859
3.9550,-0.4833777706,0.324054206,-0.4961483384,0.6443381324
3.9600,-0.4830287394,0.3236790716,-0.4967589215,0.6443179878
3.9650,-0.4826676314,0.3232766836,-0.497390278,0.6443035424
3.9700,-0.4822944392,0.3228475769,-0.4980423436,0.6442944513
3.9750,-0.4819100361,0.3223910164,-0.4987148657,0.6442904876
3.9800,-0.4815143932,0.3219087013,-0.4994061791,0.6442919722
3.9850,-0.4811103212,0.3214012671,-0.5001157513,0.6442967637
3.9900,-0.4806961284,0.320871197,-0.5008424787,0.6443056096
3.9950,-0.4802711919,0.320317867,-0.5015863888,0.6443191297
4.0000,-0.4798360644,0.3197431704,-0.5023483746,0.6443351355
4.0050,-0.4793933396,0.319146665,-0.5031258627,0.6443537836
4.0100,-0.4789449067,0.3185262311,-0.5039160018,0.6443768149
4.0150,-0.4784899687,0.3178839739,-0.5047191743,0.6444033552
4.0200,-0.4780288136,0.3172197162,-0.5055355973,0.6444329793
4.0250,-0.4775623675,0.3165359014,-0.5063643344,0.6444644049
4.0300,-0.4770931051,0.3158300609,-0.5072038494,0.6444980969
4.0350,-0.4766197657,0.3151021945,-0.5080539624,0.6445350085
4.0400,-0.4761458692,0.314352238,-0.5089125794,0.6445740983
4.0450,-0.4756701278,0.3135789431,-0.5097789217,0.6446174267
4.0500,-0.4751952305,0.3127834582,-0.5106514349,0.6446635659
4.0550,-0.4747189086,0.3119660757,-0.511531907,0.6447125201
4.0600,-0.4742412531,0.3111253389,-0.5124187872,0.6447660381
4.0650,-0.4737632331,0.3102607101,-0.513313163,0.644822679
4.0700,-0.4732838424,0.3093728619,-0.5142140864,0.6448834858
4.0750,-0.4728047532,0.3084616239,-0.5151208094,0.6449477836
4.0800,-0.4723268057,0.3075265233,-0.5160323438,0.6450158497
4.0850,-0.4718484613,0.3065659222,-0.516951462,0.6450872428
4.0900,-0.4713690984,0.305581361,-0.517876568,0.6451628207
4.0950,-0.4708884527,0.3045714193,-0.5188090713,0.645242174
4.1000,-0.470406051,0.3035378645,-0.5197491013,0.6453245569
4.1050,-0.4699217372,0.3024809649,-0.5206971702,0.6454093923
4.1100,-0.4694343149,0.3014005728,-0.52165407,0.6454968241
4.1150,-0.468944941,0.3002956804,-0.5226197003,0.6455863967
4.1200,-0.4684505198,0.2991700477,-0.5235949041,0.6456777598
4.1250,-0.4679528282,0.2980219673,-0.5245794979,0.6457703989
4.1300,-0.4674527284,0.2968528301,-0.5255721325,0.6458639776
4.1350,-0.4669502603,0.2956607672,-0.5265726515,0.6459592927
4.1400,-0.466446006,0.2944469719,-0.5275807944,0.6460554231
4.1450,-0.4659384066,0.2932136133,-0.5285969627,0.6461520171
4.1500,-0.4654298483,0.291958887,-0.5296204439,0.6462485977
4.1550,-0.4649205509,0.2906825364,-0.5306517133,0.6463445703
4.1600,-0.4644132886,0.2893844247,-0.5316882612,0.6464399005
4.1650,-0.463906591,0.2880662729,-0.5327317929,0.6465333201
4.1700,-0.4634013668,0.2867290902,-0.5337798886,0.6466255737
4.1750,-0.4628966914,0.2853716903,-0.5348347961,0.6467158513
4.1800,-0.4623940885,0.2839952206,-0.5358953128,0.6468033977
4.1850,-0.46189234,0.2826011623,-0.536962122,0.6468877251
4.1900,-0.4613928607,0.2811887434,-0.53803476,0.646968404
4.1950,-0.4608961968,0.2797591494,-0.5391119779,0.6470454307
4.2000,-0.4604029784,0.2783118917,-0.5401938069,0.6471184122
4.2050,-0.459914386,0.2768465741,-0.541280041,0.6471867189
4.2100,-0.4594296144,0.2753649485,-0.5423694686,0.6472510595
4.2150,-0.4589489559,0.2738671415,-0.5434636281,0.6473097633
4.2200,-0.4584723668,0.2723560655,-0.5445614368,0.647362421
4.2250,-0.457997686,0.2708327557,-0.5456638595,0.647409214
4.2300,-0.4575243961,0.2692969091,-0.5467722595,0.6474493786
4.2350,-0.4570518442,0.2677513382,-0.547886804,0.6474819554
4.2400,-0.4565806856,0.2661975785,-0.5490084574,0.6475049347
4.2450,-0.4561102222,0.264635454,-0.5501381276,0.6475180169
4.2500,-0.4556390484,0.2630660638,-0.5512752269,0.6475221447
4.2550,-0.4551683014,0.2614903513,-0.5524194318,0.6475163202
4.2600,-0.4546986893,0.2599086248,-0.5535703822,0.6475001472
4.2650,-0.45423018,0.2583204766,-0.5547282242,0.6474736074
4.2700,-0.4537635499,0.2567275862,-0.5558924664,0.6474358292
4.2750,-0.4532980837,0.2551333064,-0.5570622355,0.6473866767
4.2800,-0.4528324037,0.2535365075,-0.5582387991,0.6473264221
4.2850,-0.4523664174,0.2519387435,-0.5594221922,0.6472544359
4.2900,-0.4519013575,0.2503389259,-0.5606135211,0.647169271
4.2950,-0.4514371014,0.2487387417,-0.5618121003,0.6470708971
4.3000,-0.4509742016,0.2471382057,-0.5630155857,0.6469609162
4.3050,-0.4505094128,0.2455374108,-0.5642266277,0.6468392084
4.3100,-0.4500442339,0.243937252,-0.5654452616,0.646704307
4.3150,-0.4495774965,0.242337285,-0.566671174,0.6465574185
4.3200,-0.4491111922,0.240736729,-0.5679023348,0.646399182
4.3250,-0.4486452161,0.2391355305,-0.5691377255,0.6462305452
4.3300,-0.4481783293,0.2375334932,-0.5703777479,0.6460520486
4.3350,-0.4477100756,0.2359306767,-0.571623114,0.6458633133
4.3400,-0.4472381187,0.2343276936,-0.5728745081,0.6456650798
4.3450,-0.4467613069,0.2327252342,-0.574133571,0.6454563832
4.3500,-0.4462782806,0.231125357,-0.5754004286,0.6452372528
4.3550,-0.4457886084,0.2295265767,-0.5766750905,0.6450084551
4.3600,-0.4452923334,0.2279285441,-0.5779582145,0.6447694308
4.3650,-0.4447887043,0.22633086,-0.5792492,0.6445213065
4.3700,-0.4442777686,0.224732543,-0.5805483688,0.6442640297
4.3750,-0.4437589419,0.223133242,-0.581855073,0.6439986271
4.3800,-0.4432312427,0.2215325719,-0.5831706379,0.6437246245
4.3850,-0.4426961066,0.2199319314,-0.5844932393,0.6434421155
4.3900,-0.4421514244,0.218331551,-0.5858257877,0.6431497479
4.3950,-0.4415973655,0.2167314793,-0.5871676167,0.6428479
4.4000,-0.4410347096,0.2151303916,-0.5885177687,0.6425372639
4.4050,-0.4404638926,0.2135286503,-0.589877073,0.6422165628
4.4100,-0.4398845165,0.2119257124,-0.5912455911,0.6418860923
4.4150,-0.4392964455,0.2103199402,-0.5926242368,0.641545532
4.4200,-0.4387016334,0.2087101684,-0.5940112042,0.6411954708
4.4250,-0.4380970194,0.2070993254,-0.5954080074,0.6408355294
4.4300,-0.4374822668,0.2054852587,-0.5968170071,0.6404643119
4.4350,-0.4368557408,0.2038703599,-0.5982378162,0.6400823801
4.4400,-0.4362171592,0.2022527795,-0.599671608,0.6396892728
4.4450,-0.4355667107,0.2006306063,-0.6011187215,0.639284978
4.4500,-0.434904851,0.1990052552,-0.6025776997,0.6388699358
4.4550,-0.4342307204,0.1973762028,-0.6040479625,0.6384452796
4.4600,-0.4335430078,0.1957423682,-0.6055306083,0.6380110251
4.4650,-0.432842378,0.1941035697,-0.6070247313,0.6375674518
4.4700,-0.432130502,0.1924560549,-0.6085307667,0.6371139633
4.4750,-0.4314098409,0.1907993565,-0.6100454714,0.6366519281
4.4800,-0.430678483,0.1891311067,-0.6115697878,0.6361822565
4.4850,-0.4299379254,0.1874495089,-0.6131027448,0.6357051881
4.4900,-0.4291865126,0.1857557186,-0.6146447583,0.635220884
4.4950,-0.4284221787,0.1840497895,-0.6161978435,0.6347285478
4.5000,-0.4276436043,0.182332253,-0.617763656,0.6342270591
4.5050,-0.4268481457,0.1806038868,-0.6193426246,0.6337172949
4.5100,-0.4260379996,0.1788640314,-0.6209358465,0.633196617
4.5150,-0.4252099274,0.1771139679,-0.6225433066,0.6326665721
4.5200,-0.4243623983,0.1753521051,-0.62416589,0.632127468
4.5250,-0.423497672,0.1735781064,-0.6258027239,0.6315784303
4.5300,-0.4226163238,0.1717901993,-0.6274536478,0.6310194055
4.5350,-0.4217193443,0.1699867743,-0.6291162535,0.6304522431
4.5400,-0.4208082086,0.1681671897,-0.6307887351,0.6298776227
4.5450,-0.4198831863,0.1663309403,-0.6324696964,0.6292966004
4.5500,-0.4189426432,0.1644777749,-0.6341599999,0.6287091679
4.5550,-0.4179867203,0.1626094696,-0.635859679,0.6281144248
4.5600,-0.4170126715,0.1607259877,-0.6375698191,0.6275128003
4.5650,-0.4160209963,0.1588273258,-0.6392891915,0.6269048897
4.5700,-0.415010491,0.1569121916,-0.6410173724,0.6262919325
4.5750,-0.4139812012,0.1549787956,-0.6427546978,0.6256736661
4.5800,-0.4129347723,0.1530272344,-0.6444986789,0.6250511917
4.5850,-0.4118689255,0.1510578046,-0.6462505578,0.6244243304
4.5900,-0.4107847585,0.1490701114,-0.6480080568,0.6237944713
4.5950,-0.4096840296,0.1470623608,-0.649770203,0.6231615692
4.6000,-0.4085659197,0.145035789,-0.6515372311,0.6225252972
4.6050,-0.4074338547,0.1429899652,-0.6533058613,0.6218866259
4.6100,-0.4062858104,0.1409267279,-0.6550767238,0.6212455099
4.6150,-0.4051219949,0.1388464612,-0.6568487719,0.6206025461
4.6200,-0.403940372,0.1367497549,-0.6586239889,0.6199565482
4.6250,-0.4027413644,0.1346348187,-0.6604010905,0.6193086942
4.6300,-0.401527319,0.1325034699,-0.6621786416,0.6186582976
4.6350,-0.400299493,0.1303549473,-0.6639550367,0.6180061593
4.6400,-0.399058416,0.1281904274,-0.6657282013,0.6173536725
4.6450,-0.3978064126,0.1260094523,-0.6674970783,0.6167003539
4.6500,-0.3965430349,0.1238101457,-0.6692599031,0.6160485788
4.6550,-0.3952701192,0.1215945548,-0.671015689,0.6153976294
4.6600,-0.3939871047,0.1193633447,-0.6727628897,0.6147492558
4.6650,-0.3926930639,0.1171198659,-0.6745024665,0.6141022042
4.6700,-0.3913881836,0.1148644092,-0.6762343093,0.6134562871
4.6750,-0.3900706985,0.1125972674,-0.6779599139,0.612810787
4.6800,-0.3887422674,0.1103174089,-0.6796783517,0.6121657104
4.6850,-0.3874038922,0.1080238093,-0.6813883434,0.6115218773
4.6900,-0.3860582733,0.1057156633,-0.683088295,0.6108793575
4.6950,-0.3847058999,0.1033936026,-0.684776744,0.6102392517
4.7000,-0.3833455442,0.1010597383,-0.6864549435,0.6096004705
4.7050,-0.3819781201,0.09871205731,-0.6881226672,0.6089629221
4.7100,-0.3806044111,0.09635211727,-0.6897795017,0.6083262207
4.7150,-0.3792241446,0.09397942204,-0.6914243629,0.607691753
4.7200,-0.3778396062,0.09159295104,-0.6930585422,0.6070566863
4.7250,-0.3764513919,0.08919092064,-0.6946814983,0.6064214254
4.7300,-0.3750589475,0.08677601892,-0.696293203,0.60578584
4.7350,-0.3736630593,0.08434689101,-0.697893073,0.6051502118
4.7400,-0.372263915,0.08190401666,-0.6994834676,0.6045115286
4.7450,-0.3708599255,0.07944958518,-0.7010638528,0.6038709741
4.7500,-0.3694518706,0.07698312252,-0.7026351868,0.6032269128
4.7550,-0.3680389809,0.07450412648,-0.704198481,0.6025785783
4.7600,-0.3666223355,0.07201263042,-0.7057533116,0.6019256659
4.7650,-0.3652016596,0.06950847714,-0.7073000882,0.6012677479
4.7700,-0.3637758562,0.06699316739,-0.7088403709,0.6006033387
4.7750,-0.3623426379,0.06446681592,-0.7103755017,0.5999320703
4.7800,-0.3609020589,0.06193029888,-0.7119054776,0.5992536465
4.7850,-0.3594531489,0.05938397118,-0.7134316922,0.5985667869
4.7900,-0.3579968509,0.05682886415,-0.7149541175,0.5978706757
4.7950,-0.3565332569,0.05426337975,-0.716473104,0.5971648127
4.8000,-0.3550609053,0.05168870434,-0.7179881658,0.5964503543
4.8050,-0.353579124,0.04910331762,-0.719501023,0.595725562
4.8100,-0.3520884736,0.04650729627,-0.7210119477,0.5949895372
4.8150,-0.3505901526,0.04389818664,-0.7225205797,0.5942419591
4.8200,-0.3490852601,0.04127513706,-0.7240260567,0.5934830355
4.8250,-0.3475726068,0.03863874703,-0.7255276227,0.5927140954
4.8300,-0.346053187,0.03598978233,-0.7270258246,0.5919335923
4.8350,-0.3445270005,0.03332914589,-0.7285197461,0.5911423632
4.8400,-0.3429903931,0.03065748244,-0.7300115041,0.5903396589
4.8450,-0.3414428691,0.02797644783,-0.7315017646,0.5895246
4.8500,-0.3398847835,0.02528547088,-0.7329907677,0.5886964527
4.8550,-0.3383159986,0.0225820577,-0.7344776998,0.5878561425
4.8600,-0.3367386552,0.01986715284,-0.7359622394,0.5870025183
4.8650,-0.3351515251,0.01713955361,-0.7374453,0.5861348996
4.8700,-0.3335541753,0.01439856918,-0.7389286051,0.5852510657
4.8750,-0.3319501348,0.01164380658,-0.7404100929,0.5843512848
4.8800,-0.3303408953,0.008875371484,-0.7418894258,0.5834348298
4.8850,-0.3287251824,0.006091747805,-0.7433662703,0.5825025607
4.8900,-0.3271021998,0.003294518469,-0.7448407215,0.5815544658
4.8950,-0.3254706809,0.0004853051861,-0.7463129841,0.5805906735
4.9000,-0.3238295514,-0.002335510019,-0.7477824053,0.5796123199
4.9050,-0.3221772654,-0.005165234407,-0.7492493676,0.5786194908
4.9100,-0.3205114428,-0.008004467472,-0.7507139514,0.5776131117
4.9150,-0.3188352493,-0.01085525354,-0.7521760759,0.576591188
4.9200,-0.3171484519,-0.0137187582,-0.7536336015,0.575556296
4.9250,-0.31545391,-0.01659723177,-0.7550858587,0.5745073617
4.9300,-0.3137508527,-0.01949061964,-0.7565341595,0.5734427466
4.9350,-0.3120410739,-0.02240113888,-0.7579773371,0.5723625718
4.9400,-0.310323111,-0.02532888133,-0.7594168622,0.5712653008
4.9450,-0.3085946951,-0.02827395264,-0.7608534771,0.5701507557
4.9500,-0.3068561719,-0.03123684767,-0.7622876839,0.5690176061
4.9550,-0.3051073231,-0.03421955057,-0.7637192114,0.5678657499
4.9600,-0.3033471096,-0.03722178886,-0.7651494591,0.5666933693
4.9650,-0.3015773049,-0.04024513507,-0.7665754298,0.5655029342
4.9700,-0.2997982647,-0.04329110342,-0.7679962107,0.5642948708
4.9750,-0.2980097349,-0.04635668029,-0.7694100918,0.5630713691
4.9800,-0.296211578,-0.04944319373,-0.7708170773,0.5618319188
4.9850,-0.2944016614,-0.05254953172,-0.7722177741,0.5605764157
4.9900,-0.2925808482,-0.05567647647,-0.7736121979,0.5593038034
4.9950,-0.2907491815,-0.05882678725,-0.7749999461,0.5580138045
5.0000,-0.2889101976,-0.06200334293,-0.7763795619,0.5567057203
5.0050,-0.287059799,-0.06520336079,-0.7777511019,0.5553813259
5.0100,-0.2851964555,-0.06842537744,-0.7791152946,0.554039987
5.0150,-0.283315587,-0.07166536108,-0.78047346,0.552682126
5.0200,-0.281414971,-0.0749252104,-0.7818259129,0.5513075992
5.0250,-0.2794966596,-0.07820490942,-0.7831723604,0.549915142
5.0300,-0.2775646531,-0.08150651823,-0.7845093574,0.5485067173
5.0350,-0.2756190251,-0.08482747637,-0.785836531,0.5470826252
5.0400,-0.2736607283,-0.08816645011,-0.7871513762,0.5456456669
5.0450,-0.2716907564,-0.09152482395,-0.7884520485,0.544197305
5.0500,-0.2697075186,-0.0949008064,-0.7897388965,0.5427376592
5.0550,-0.2677118754,-0.09829284812,-0.7910108429,0.5412676918
5.0600,-0.2657020609,-0.1016980983,-0.7922679712,0.5397882672
5.0650,-0.263674677,-0.1051152811,-0.7935110259,0.5382998181
5.0700,-0.2616272862,-0.10854088,-0.7947396725,0.5368043344
5.0750,-0.259559914,-0.1119767007,-0.7959537466,0.5353013196
5.0800,-0.2574757374,-0.115422158,-0.7971528865,0.5337895144
5.0850,-0.2553760963,-0.1188776238,-0.7983365606,0.5322686314
5.0900,-0.2532641667,-0.1223457647,-0.7995026991,0.530739305
5.0950,-0.251142952,-0.1258253901,-0.800650392,0.529201416
5.1000,-0.2490162437,-0.1293154832,-0.8017785421,0.5276547978
5.1050,-0.246884715,-0.132813892,-0.8028865883,0.5261003079
5.1100,-0.2447475005,-0.1363182186,-0.8039745202,0.5245388213
5.1150,-0.2426057791,-0.1398261425,-0.8050414296,0.5229716842
5.1200,-0.2404584957,-0.1433361701,-0.8060890501,0.5213970632
5.1250,-0.2383063904,-0.1468495084,-0.8071170722,0.5198146957
5.1300,-0.2361504184,-0.1503677399,-0.808124393,0.5182253256
5.1350,-0.2339925783,-0.1538917829,-0.8091125362,0.5166252957
5.1400,-0.2318346029,-0.1574216687,-0.8100798706,0.5150162506
5.1450,-0.2296752979,-0.1609583071,-0.8110264933,0.5133981964
5.1500,-0.2275158386,-0.1644998263,-0.8119519706,0.5117717731
5.1550,-0.2253540239,-0.168045208,-0.8128564081,0.5101380517
5.1600,-0.2231897757,-0.1715922177,-0.8137402675,0.5084970127
5.1650,-0.2210217405,-0.1751372994,-0.8146037316,0.5068501524
5.1700,-0.2188472364,-0.1786792354,-0.8154468156,0.5051990784
5.1750,-0.2166636768,-0.18221577,-0.8162716457,0.5035423168
5.1800,-0.2144706164,-0.1857471937,-0.8170783939,0.5018796996
5.1850,-0.2122714647,-0.1892744341,-0.8178664934,0.5002103686
5.1900,-0.2100674782,-0.1927949854,-0.8186362742,0.4985342503
5.1950,-0.2078583642,-0.1963091784,-0.8193877713,0.4968513733
5.2000,-0.2056463237,-0.1998178104,-0.8201217319,0.4951593452
5.2050,-0.2034320755,-0.203322916,-0.820837727,0.4934578081
5.2100,-0.2012197131,-0.2068241444,-0.8215365136,0.4917439955
5.2150,-0.1990079101,-0.2103192223,-0.8222173913,0.4900206505
5.2200,-0.1967973547,-0.2138055906,-0.8228812167,0.4882872861
5.2250,-0.1945841094,-0.2172793737,-0.823530489,0.4865431449
5.2300,-0.1923681175,-0.2207406952,-0.824164139,0.4847901864
5.2350,-0.1901501827,-0.2241855412,-0.8247839432,0.4830271194
5.2400,-0.1879309092,-0.2276176079,-0.8253888596,0.4812540165
5.2450,-0.1857147084,-0.2310346891,-0.8259781816,0.4794716498
5.2500,-0.1835014421,-0.2344366137,-0.8265516858,0.4776808617
5.2550,-0.1812912751,-0.2378231565,-0.8271098305,0.4758812332
5.2600,-0.1790856857,-0.2411945203,-0.8276522261,0.4740731095
5.2650,-0.1768857234,-0.244552513,-0.8281797955,0.472253889
5.2700,-0.1746908109,-0.2478950206,-0.8286927195,0.4704248675
5.2750,-0.172503097,-0.2512250743,-0.8291915489,0.4685829903
5.2800,-0.1703236539,-0.2545403951,-0.8296759808,0.4667299082
5.2850,-0.1681537716,-0.2578429497,-0.8301470819,0.464862501
5.2900,-0.165994891,-0.261131641,-0.8306036632,0.4629832792
5.2950,-0.1638469382,-0.2644038022,-0.831047834,0.4610903467
5.3000,-0.161707572,-0.2676567552,-0.8314798484,0.4591860018
5.3050,-0.1595793065,-0.2708920653,-0.8318992583,0.4572696774
5.3100,-0.1574622127,-0.2741100571,-0.8323057766,0.4553420939
5.3150,-0.1553604496,-0.2773139551,-0.8326980708,0.4534027171
5.3200,-0.1532734876,-0.2805000181,-0.8330763417,0.4514540804
5.3250,-0.1511997879,-0.2836678873,-0.8334410153,0.4494966383
5.3300,-0.1491364776,-0.2868177213,-0.8337938027,0.447528547
5.3350,-0.1470860224,-0.2899505775,-0.8341352835,0.4455476332
5.3400,-0.1450481535,-0.2930688118,-0.8344649553,0.4435537657
5.3450,-0.1430245005,-0.2961714661,-0.8347834068,0.4415462815
5.3500,-0.1410141462,-0.299261382,-0.8350903136,0.4395245203
5.3550,-0.1390168695,-0.3023386158,-0.8353851878,0.4374897249
5.3600,-0.137031944,-0.3054060329,-0.8356682943,0.4354398963
5.3650,-0.1350633168,-0.3084655865,-0.8359382287,0.4333753111
5.3700,-0.1331116716,-0.3115187857,-0.8361955302,0.431293826
5.3750,-0.1311763697,-0.3145647904,-0.8364391674,0.4291984063
5.3800,-0.129254107,-0.3176023401,-0.836669073,0.4270913152
5.3850,-0.1273408571,-0.3206290919,-0.8368856849,0.4249748721
5.3900,-0.1254291838,-0.3236426067,-0.8370903076,0.4228508009
5.3950,-0.1235141338,-0.3266430039,-0.8372836113,0.4207193375
5.4000,-0.1215936497,-0.3296319882,-0.8374657574,0.4185795527
5.4050,-0.119668514,-0.332610242,-0.8376354667,0.4164333063
5.4100,-0.1177397144,-0.3355776794,-0.8377923441,0.4142812678
5.4150,-0.1158071708,-0.3385345129,-0.8379361314,0.4121239165
5.4200,-0.1138720761,-0.3414806332,-0.8380653724,0.4099640949
5.4250,-0.1119360057,-0.3444146596,-0.838180399,0.4078020251
5.4300,-0.1099958863,-0.3473346608,-0.83828171,0.405639388
5.4350,-0.1080510307,-0.3502376674,-0.8383699498,0.4034778535
5.4400,-0.1061037625,-0.3531233478,-0.8384456073,0.4013164043
5.4450,-0.1041560953,-0.355993082,-0.8385081299,0.399154794
5.4500,-0.1022102305,-0.3588462848,-0.838558347,0.3969915759
5.4550,-0.1002688334,-0.3616837697,-0.8385953139,0.3948276982
5.4600,-0.09833363078,-0.3645065275,-0.8386192831,0.3926616692
5.4650,-0.09640810506,-0.3673151792,-0.838630221,0.3904924953
5.4700,-0.09449599943,-0.3701096256,-0.8386278616,0.3883203328
5.4750,-0.0925993663,-0.3728899211,-0.8386111863,0.3861473065
5.4800,-0.09071663225,-0.3756542148,-0.83858148,0.3839733128
5.4850,-0.08884697191,-0.3783984768,-0.8385395311,0.3818013399
5.4900,-0.0869889073,-0.3811248831,-0.8384847374,0.37963153
5.4950,-0.08514277297,-0.3838328519,-0.8384170695,0.3774650548
5.5000,-0.08330699133,-0.3865188823,-0.8383378741,0.3753034874
5.5050,-0.08148123345,-0.3891827644,-0.8382463622,0.3731495956
5.5100,-0.07966306843,-0.3918238628,-0.8381429875,0.3710042973
5.5150,-0.07785291484,-0.3944406964,-0.8380289636,0.3688670721
5.5200,-0.0760509654,-0.3970346522,-0.8379043497,0.3667370125
5.5250,-0.07426117187,-0.3996061113,-0.8377688079,0.3646143971
5.5300,-0.07248323407,-0.402155368,-0.8376234196,0.3624972383
5.5350,-0.0707177533,-0.4046836163,-0.8374676356,0.3603860837
5.5400,-0.06896837801,-0.4071877561,-0.8373036336,0.3582793873
5.5450,-0.06723426738,-0.4096695969,-0.8371312693,0.3561763786
5.5500,-0.06551761496,-0.4121293479,-0.8369519043,0.3540739367
5.5550,-0.06382122113,-0.4145665421,-0.8367650733,0.351973928
5.5600,-0.06214646218,-0.4169808718,-0.8365711963,0.3498762685
5.5650,-0.06049186423,-0.4193723516,-0.8363708541,0.3477806197
5.5700,-0.05885701358,-0.4217418514,-0.83616402,0.3456868444
5.5750,-0.05724294606,-0.4240895593,-0.8359511918,0.3435940856
5.5800,-0.05564926653,-0.4264184014,-0.8357313383,0.3415020296
5.5850,-0.05407451901,-0.4287264937,-0.8355056185,0.3394111098
5.5900,-0.05251710749,-0.4310156765,-0.8352741011,0.3373197534
5.5950,-0.05097502925,-0.4332869538,-0.8350366013,0.3352280366
5.6000,-0.04944834426,-0.4355417068,-0.8347930384,0.3331349064
5.6050,-0.04793804205,-0.4377794154,-0.8345433791,0.331041502
5.6100,-0.04644259084,-0.4400022233,-0.8342864671,0.3289486588
5.6150,-0.04496205009,-0.4422070656,-0.8340239584,0.3268567912
5.6200,-0.0434960779,-0.4443956579,-0.8337548298,0.3247667997
5.6250,-0.04204285293,-0.4465685679,-0.8334780065,0.3226814612
5.6300,-0.0406013006,-0.4487238139,-0.8331944488,0.3206017524
5.6350,-0.03916679163,-0.4508606855,-0.8329031848,0.3185323993
5.6400,-0.03773691624,-0.4529773708,-0.832604914,0.3164750921
5.6450,-0.03630680499,-0.4550725107,-0.8323005325,0.3144306753
5.6500,-0.03487437776,-0.4571450163,-0.8319901213,0.3124014242
5.6550,-0.03343943734,-0.4591954517,-0.8316746579,0.3103846075
5.6600,-0.03200329217,-0.4612240603,-0.8313540564,0.3083805901
5.6650,-0.03056465509,-0.4632297357,-0.8310297706,0.3063878819
5.6700,-0.02912379327,-0.4652148127,-0.8307011056,0.3044054138
5.6750,-0.02768159107,-0.4671797531,-0.8303694559,0.3024291232
5.6800,-0.0262387546,-0.4691257576,-0.83003476,0.3004577318
5.6850,-0.02479715273,-0.4710536343,-0.8296975043,0.2984889046
5.6900,-0.02335874019,-0.4729651161,-0.829357323,0.2965211609
5.6950,-0.02192484188,-0.474859807,-0.829014638,0.294554231
5.7000,-0.02049628314,-0.476736907,-0.8286700987,0.2925879208
5.7050,-0.01907311586,-0.4785974888,-0.8283238487,0.290620477
5.7100,-0.01765383307,-0.4804415379,-0.8279762012,0.2886514873
5.7150,-0.01623815096,-0.482269612,-0.8276273527,0.2866798021
5.7200,-0.014827832,-0.4840829957,-0.8272775617,0.2847026951
5.7250,-0.01342193995,-0.4858820851,-0.8269264734,0.2827208138
5.7300,-0.01202130261,-0.4876664281,-0.8265746548,0.2807334737
5.7350,-0.0106257636,-0.4894372681,-0.8262212745,0.2787412049
5.7400,-0.009232606749,-0.4911943783,-0.8258661031,0.276745409
5.7450,-0.007842368893,-0.4929361849,-0.825510192,0.2747459515
5.7500,-0.00645322392,-0.4946642189,-0.8251519151,0.2727452721
5.7550,-0.005065173101,-0.4963769037,-0.8247925446,0.2707426303
5.7600,-0.003675830382,-0.4980743269,-0.8244311215,0.2687411003
5.7650,-0.002284211663,-0.4997568042,-0.8240670672,0.2667421746
5.7700,-0.0008898449841,-0.5014233169,-0.8237007278,0.2647470047
5.7750,0.0005096562223,-0.5030716788,-0.8233331222,0.2627569144
5.7800,0.001913815472,-0.5047018898,-0.8229641845,0.2607724885
5.7850,0.003320428529,-0.5063150166,-0.8225935989,0.2587930637
5.7900,0.00472999672,-0.5079095646,-0.8222222353,0.2568191916
5.7950,0.006140491728,-0.5094845222,-0.8218514138,0.2548491115
5.8000,0.007549773324,-0.5110433033,-0.821479649,0.2528812555
5.8050,0.008956899829,-0.5125845028,-0.8211083184,0.2509143895
5.8100,0.01035920707,-0.5141083587,-0.8207373834,0.248948649
5.8150,0.0117562698,-0.515617483,-0.8203656735,0.2469829207
5.8200,0.01314460744,-0.5171116346,-0.8199934533,0.2450173735
5.8250,0.01452532034,-0.5185904153,-0.81962135,0.2430511034
5.8300,0.01589562237,-0.520053989,-0.8192495356,0.2410837535
5.8350,0.01725431369,-0.5215021677,-0.8188782399,0.2391154657
5.8400,0.01860289634,-0.5229351911,-0.8185073573,0.2371464196
5.8450,0.01994010609,-0.5243531487,-0.818136468,0.2351784162
5.8500,0.02126698754,-0.5257559976,-0.8177654561,0.2332123605
5.8550,0.02258364453,-0.5271433289,-0.817395129,0.2312468223
5.8600,0.02388928253,-0.5285153197,-0.8170252526,0.2292827854
5.8650,0.02518290017,-0.5298711776,-0.8166560621,0.2273218709
5.8700,0.02646128099,-0.5312115994,-0.8162882225,0.2253609885
5.8750,0.02772350895,-0.5325358499,-0.8159217064,0.2234026513
5.8800,0.02897040268,-0.5338427548,-0.815557615,0.2214461684
5.8850,0.03019882349,-0.5351337853,-0.8151947291,0.2194935454
5.8900,0.03141198518,-0.5364067745,-0.8148348418,0.217543651
5.8950,0.03260731682,-0.5376617532,-0.8144776204,0.2155987197
5.9000,0.03378575728,-0.538898141,-0.8141238103,0.2136579925
5.9050,0.03494678964,-0.5401170218,-0.8137728707,0.2117216086
5.9100,0.03608929679,-0.5413177713,-0.8134259132,0.2097877898
5.9150,0.03721446444,-0.5425023456,-0.8130814141,0.2078578908
5.9200,0.03832205024,-0.5436703567,-0.8127399737,0.2059312965
5.9250,0.03941052619,-0.5448213053,-0.8124026106,0.2040062597
5.9300,0.04048238405,-0.5459558451,-0.8120685381,0.2020843416
5.9350,0.04153724056,-0.5470756345,-0.8117377187,0.200161894
5.9400,0.04257490051,-0.5481807766,-0.8114101492,0.1982392083
5.9450,0.04359480362,-0.5492730817,-0.8110853055,0.1963140392
5.9500,0.04459635574,-0.5503532653,-0.8107635159,0.1943835631
5.9550,0.04558240489,-0.5514221198,-0.8104436807,0.1924498132
5.9600,0.0465560736,-0.5524791054,-0.8101262691,0.1905119372
5.9650,0.04751870076,-0.5535258261,-0.8098101677,0.1885699477
5.9700,0.04847067394,-0.5545615127,-0.8094957203,0.1866247605
5.9750,0.04941276422,-0.5555860636,-0.8091832693,0.1846752318
5.9800,0.05034483864,-0.5565991603,-0.808873643,0.1827189143
5.9850,0.05126700907,-0.5576027307,-0.8085656854,0.1807551408
5.9900,0.05217729845,-0.5585955458,-0.8082606217,0.178782866
5.9950,0.05307502234,-0.5595785104,-0.8079587425,0.1767981989
6.0000,0.05396004705,-0.5605512449,-0.8076597349,0.174803798
6.0050,0.05483336362,-0.561513097,-0.8073639618,0.1727998189
6.0100,0.05569432108,-0.5624642714,-0.8070711968,0.170786912
6.0150,0.05654303245,-0.5634045105,-0.8067818574,0.1687639702
6.0200,0.05737818404,-0.5643317241,-0.8064970303,0.166733288
6.0250,0.05819974432,-0.5652461133,-0.8062165763,0.1646950312
6.0300,0.05900458033,-0.5661466464,-0.8059413495,0.1626498553
6.0350,0.05979265118,-0.5670334131,-0.8056714054,0.1605974278
6.0400,0.0605600319,-0.5679061796,-0.8054072781,0.1585375984
6.0450,0.06130561855,-0.5687654405,-0.8051483955,0.1564722217
6.0500,0.06202738701,-0.5696079948,-0.8048971165,0.1544019666
6.0550,0.06272391043,-0.5704351514,-0.8046524986,0.1523279541
6.0600,0.06339271836,-0.5712472081,-0.8044144742,0.1502509375
6.0650,0.06403141967,-0.5720436495,-0.8041834613,0.1481722002
6.0700,0.06463933752,-0.5728221601,-0.803961145,0.1460924576
6.0750,0.06521620682,-0.5735849493,-0.8037459335,0.1440125924
6.0800,0.06576236842,-0.5743312926,-0.8035380792,0.1419346068
6.0850,0.06627904802,-0.5750601292,-0.8033382271,0.1398593167
6.0900,0.0667658222,-0.5757727092,-0.8031453782,0.1377882931
6.0950,0.06722449446,-0.5764694179,-0.8029589383,0.1357233255
6.1000,0.06765749705,-0.5771491319,-0.8027791203,0.1336675975
6.1050,0.06806481098,-0.5778122582,-0.8026058172,0.1316209637
6.1100,0.06844678725,-0.5784595879,-0.8024386333,0.1295831097
6.1150,0.06880517777,-0.5790901172,-0.8022779922,0.1275558972
6.1200,0.06914056815,-0.5797045698,-0.8021235649,0.1255387596
6.1250,0.06945481934,-0.5803032198,-0.8019750628,0.123532181
6.1300,0.0697503461,-0.5808862057,-0.8018318679,0.1215391327
6.1350,0.07002957902,-0.5814539389,-0.8016938451,0.1195581607
6.1400,0.07029162842,-0.5820077444,-0.801559979,0.1175911238
6.1450,0.07053821131,-0.5825473082,-0.8014307711,0.1156361258
6.1500,0.07077059098,-0.5830742252,-0.8013050234,0.1136935831
6.1550,0.07099063387,-0.5835884884,-0.8011824086,0.1117656218
6.1600,0.07119900777,-0.5840910264,-0.8010625284,0.1098508067
6.1650,0.07139657432,-0.584582528,-0.8009450631,0.1079481501
6.1700,0.07158614256,-0.5850642216,-0.8008287656,0.1060592707
6.1750,0.07176904678,-0.585537054,-0.8007128421,0.1041849643
6.1800,0.07194454333,-0.5860006487,-0.8005977408,0.1023253623
6.1850,0.07211591962,-0.5864558527,-0.8004826928,0.1004802739
6.1900,0.07228145925,-0.5869036454,-0.8003670154,0.09865162163
6.1950,0.07244340137,-0.5873441679,-0.8002505616,0.09683914828
6.2000,0.07260046127,-0.5877770338,-0.8001336947,0.09504421169
6.2050,0.07275322108,-0.5882037381,-0.8000153061,0.09326757889
6.2100,0.07290183456,-0.5886237811,-0.7998955767,0.09151192941
6.2150,0.07304599363,-0.5890367804,-0.7997750331,0.08977667032
6.2200,0.07318643651,-0.5894429763,-0.7996534805,0.08806267283
6.2250,0.07332549561,-0.5898434284,-0.7995301075,0.08636960626
6.2300,0.07346312899,-0.5902372915,-0.7994055702,0.08469854031
6.2350,0.07359926606,-0.5906248598,-0.7992798717,0.0830488399
6.2400,0.07373395019,-0.5910062897,-0.7991529871,0.08142096417
6.2450,0.07386521745,-0.5913817833,-0.7990251086,0.0798147345
6.2500,0.07399214815,-0.5917501294,-0.7988972869,0.07823088538
6.2550,0.07411139313,-0.5921129082,-0.7987689275,0.07666815388
6.2600,0.07421893332,-0.5924703702,-0.798640551,0.07512443454
6.2650,0.07431327232,-0.5928224044,-0.7985125611,0.07359907699
6.2700,0.07439361424,-0.5931698077,-0.7983847008,0.07209049118
6.2750,0.07445892117,-0.593511559,-0.7982578064,0.07060009173
6.2800,0.07450945699,-0.593847345,-0.7981321188,0.06912881141
6.2850,0.07454745979,-0.5941776311,-0.7980071885,0.06767677639
6.2900,0.07457435644,-0.594501785,-0.7978833946,0.06624486156
6.2950,0.07459246266,-0.5948192556,-0.7977607253,0.06483704878
6.3000,0.07460244963,-0.595130347,-0.7976391605,0.06345166874
6.3050,0.07460308499,-0.5954351273,-0.797518787,0.06209004109
6.3100,0.07459347873,-0.5957339413,-0.7973997082,0.0607502214
6.3150,0.07457151101,-0.5960269972,-0.797281984,0.05943354615
6.3200,0.07453806911,-0.5963146957,-0.7971652967,0.05814077506
6.3250,0.07449118333,-0.5965959294,-0.7970508418,0.05687104927
6.3300,0.07443139238,-0.596870899,-0.7969384148,0.05562608036
6.3350,0.07435612921,-0.5971392624,-0.7968285404,0.05440721021
6.3400,0.07426784238,-0.5974015609,-0.7967206458,0.05321536598
6.3450,0.07416679238,-0.5976564872,-0.7966157856,0.05205094061
6.3500,0.07405351038,-0.5979064054,-0.7965121977,0.05091489885
6.3550,0.0739296002,-0.59814942,-0.7964112372,0.04980789849
6.3600,0.07379572326,-0.5983861858,-0.7963124005,0.04873114733
6.3650,0.07365576481,-0.5986157912,-0.79621602,0.04768660657
6.3700,0.07350782273,-0.5988391984,-0.7961216921,0.04667403775
6.3750,0.07335306279,-0.5990570595,-0.7960289661,0.04569302772
6.3800,0.07318938387,-0.5992694743,-0.7959381238,0.0447427567
6.3850,0.0730170757,-0.5994762067,-0.7958493942,0.04382380606
6.3900,0.07283470488,-0.5996777794,-0.7957627027,0.04293469087
6.3950,0.07264291741,-0.5998729626,-0.7956789241,0.04207713204
6.4000,0.07244023786,-0.6000623409,-0.7955979381,0.04124948259
6.4050,0.07222824906,-0.6002451154,-0.7955203043,0.04045153704
6.4100,0.07200783819,-0.6004225679,-0.7954450138,0.03968426804
6.4150,0.07177765171,-0.6005950348,-0.7953720452,0.03894717757
6.4200,0.07154157445,-0.6007620769,-0.7953014396,0.03824068825
6.4250,0.07129859312,-0.6009240386,-0.7952330613,0.03756579101
6.4300,0.07105048655,-0.6010824012,-0.795165741,0.03692180447
6.4350,0.07079869536,-0.6012359694,-0.7951002806,0.03630974687
6.4400,0.0705447531,-0.6013867719,-0.7950350831,0.03572961112
6.4450,0.07028840878,-0.6015347353,-0.79497034,0.03518039592
6.4500,0.07002973315,-0.6016792975,-0.7949065081,0.03466270152
6.4550,0.06976723183,-0.6018222267,-0.7948425504,0.03417397931
6.4600,0.06950278581,-0.6019645312,-0.7947776774,0.03371215546
6.4650,0.06923239427,-0.6021077108,-0.7947111559,0.03327700167
6.4700,0.06895532135,-0.602251689,-0.7946432547,0.03286585639
6.4750,0.06867140703,-0.6023970756,-0.7945736245,0.03247701359
6.4800,0.06838015743,-0.6025446814,-0.7945018032,0.03210834268
6.4850,0.06808033216,-0.602695767,-0.7944270038,0.03175872298
6.4900,0.06777274595,-0.6028506436,-0.7943489732,0.03142713946
6.4950,0.06745643955,-0.6030116261,-0.794266113,0.03111188443
6.5000,0.06713363958,-0.6031795344,-0.7941776177,0.03081290787
6.5050,0.06680446934,-0.6033535661,-0.79408421,0.030527111
6.5100,0.06646912174,-0.6035353437,-0.7939846964,0.0302530442
6.5150,0.06612898743,-0.6037242645,-0.793879414,0.02999075789
6.5200,0.06578495213,-0.6039212488,-0.7937675295,0.02974179791
6.5250,0.0654385849,-0.6041250999,-0.7936497947,0.02950692494
6.5300,0.06509000417,-0.6043363984,-0.7935258745,0.02928302194
6.5350,0.06474060489,-0.6045541031,-0.7933963192,0.02907354741
6.5400,0.06439156157,-0.6047790802,-0.7932604612,0.02887614156
6.5450,0.06404429736,-0.605009308,-0.7931196479,0.0286930188
6.5500,0.06370063322,-0.6052457781,-0.7929729716,0.02852443944
6.5550,0.06336374569,-0.6054874456,-0.7928210243,0.02836921583
6.5600,0.06303607724,-0.6057333095,-0.7926642572,0.02823094238
6.5650,0.0627184846,-0.6059824141,-0.792503382,0.02810862693
6.5700,0.06241262139,-0.6062343546,-0.7923384684,0.02800577591
6.5750,0.06212075473,-0.6064886465,-0.792169689,0.02792341933
6.5800,0.06184439921,-0.6067453708,-0.7919969144,0.02786059739
6.5850,0.06158247561,-0.6070026405,-0.7918216135,0.02781951724
6.5900,0.0613360197,-0.6072606241,-0.7916436405,0.02779880507
6.5950,0.06110186228,-0.6075185791,-0.7914638769,0.02779694295
6.6000,0.06088092895,-0.6077759137,-0.7912827069,0.02781418702
6.6050,0.06067107098,-0.6080322067,-0.7911006932,0.02784869616
6.6100,0.06047302957,-0.6082857771,-0.7909190489,0.02790133037
6.6150,0.06028604554,-0.6085377036,-0.7907370235,0.02797169297
6.6200,0.06010955142,-0.6087876717,-0.7905550314,0.02805628334
6.6250,0.05994232433,-0.6090355301,-0.7903732411,0.02815635833
6.6300,0.05978377655,-0.6092815612,-0.7901915435,0.02827019415
6.6350,0.05963495231,-0.6095245739,-0.7900107886,0.02839754047
6.6400,0.05949457937,-0.609764875,-0.7898308432,0.02853824384
6.6450,0.05936320298,-0.6100031435,-0.7896511809,0.02869124336
6.6500,0.05924146216,-0.6102380157,-0.7894727846,0.02885716078
6.6550,0.05912814773,-0.6104698043,-0.7892955085,0.0290358471
6.6600,0.05902300025,-0.6106975062,-0.7891202065,0.02922569208
6.6650,0.05892484749,-0.6109205953,-0.7889473985,0.02942602609
6.6700,0.05883427119,-0.611140573,-0.788775901,0.02963623609
6.6750,0.05875056695,-0.6113550473,-0.7886076159,0.02985640988
6.6800,0.05867319865,-0.6115636342,-0.7884428459,0.03008746824
6.6850,0.05860315405,-0.6117671972,-0.7882808702,0.03032880566
6.6900,0.0585392619,-0.6119648467,-0.7881224341,0.03058120495
6.6950,0.05848146245,-0.612157116,-0.7879672229,0.03084216982
6.7000,0.05842963467,-0.6123431151,-0.7878158639,0.03111353006
6.7050,0.05838201455,-0.6125242092,-0.7876675139,0.03139300895
6.7100,0.05833983091,-0.6126989998,-0.7875230804,0.03168276526
6.7150,0.05830227255,-0.6128669837,-0.7873830211,0.03198254699
6.7200,0.05826836457,-0.6130273487,-0.7872480407,0.03229225662
6.7250,0.05823823993,-0.613181689,-0.7871169296,0.03261077881
6.7300,0.05821080128,-0.6133277475,-0.7869915421,0.03293765844
6.7350,0.05818550963,-0.6134683579,-0.7868697254,0.03327244425
6.7400,0.05816063231,-0.6136016737,-0.7867530534,0.03361487577
6.7450,0.05813507266,-0.6137292766,-0.7866404213,0.03396374548
6.7500,0.05810719836,-0.6138497873,-0.7865330904,0.03431748493
6.7550,0.05807564624,-0.6139646903,-0.7864300112,0.03467586937
6.7600,0.05803970526,-0.6140728064,-0.7863321488,0.03503901832
6.7650,0.05800191542,-0.6141743763,-0.7862391343,0.03540673527
6.7700,0.05796150137,-0.614270421,-0.7861501964,0.03577964341
6.7750,0.05791755552,-0.6143608205,-0.7860655331,0.03615683493
6.7800,0.05787126021,-0.6144466001,-0.7859841963,0.03653951194
6.7850,0.05782312225,-0.614526949,-0.7859067788,0.03692763976
6.7900,0.05777148244,-0.6146028163,-0.7858326585,0.03732113123
6.7950,0.0577164586,-0.6146725996,-0.7857630656,0.03772015996
6.8000,0.05765858771,-0.6147380353,-0.7856966328,0.03812396115
6.8050,0.05759834735,-0.6147983985,-0.7856337759,0.03853478605
6.8100,0.05753648949,-0.6148526403,-0.7855752123,0.03895342031
6.8150,0.05747034275,-0.6149024561,-0.785519813,0.03937959643
6.8200,0.05740030814,-0.6149470828,-0.7854681635,0.03981273777
6.8250,0.05732323053,-0.6149869578,-0.7854201729,0.0402522174
6.8300,0.05724067729,-0.6150206457,-0.785376731,0.04070012922
6.8350,0.05715058773,-0.6150494768,-0.7853369386,0.04115633885
6.8400,0.05705358538,-0.6150717505,-0.7853020401,0.04162133953
6.8450,0.05694826064,-0.6150882225,-0.7852715895,0.04209400023
6.8500,0.05683312205,-0.6150983841,-0.7852460238,0.04257530021
6.8550,0.05670568427,-0.6151001134,-0.7852270426,0.04306747587
6.8600,0.05656519751,-0.615094314,-0.7852141058,0.04356800815
6.8650,0.05641158687,-0.6150808841,-0.7852071065,0.0440799132
6.8700,0.05624420778,-0.6150573569,-0.7852081173,0.04460100237
6.8750,0.05605958482,-0.6150245868,-0.785216785,0.04512960316
6.8800,0.05585521155,-0.6149831405,-0.7852327489,0.04566686172
6.8850,0.05562939243,-0.6149310758,-0.7852577668,0.04621019841
6.8900,0.05538039584,-0.6148687078,-0.7852916235,0.0467605605
6.8950,0.05510786761,-0.6147955152,-0.7853346321,0.047319267
6.9000,0.0548094337,-0.6147111426,-0.7853872812,0.04788481607
6.9050,0.05448528656,-0.614614726,-0.785450128,0.04845811137
6.9100,0.05413583766,-0.6145075095,-0.7855220786,0.04903973803
6.9150,0.05376158801,-0.6143871616,-0.7856049334,0.04962858028
6.9200,0.05336211225,-0.614254928,-0.7856975151,0.05022731515
6.9250,0.05294133165,-0.6141101029,-0.7857999971,0.0508366149
6.9300,0.05249931531,-0.6139523125,-0.7859126041,0.05145637618
6.9350,0.0520366929,-0.6137830476,-0.7860340486,0.0520867311
6.9400,0.0515529751,-0.613601585,-0.7861648174,0.05272822339
6.9450,0.05104850897,-0.6134072616,-0.7863053107,0.05338107868
6.9500,0.05052300418,-0.6131997309,-0.786455787,0.05404452918
6.9550,0.04997598961,-0.6129804113,-0.7866150236,0.05471947134
6.9600,0.04941072745,-0.612747734,-0.7867838714,0.05540698678
6.9650,0.04882762722,-0.6125029742,-0.7869613264,0.05610561674
6.9700,0.04823104772,-0.6122456291,-0.787147269,0.05681753854
6.9750,0.04762066067,-0.6119755872,-0.7873416527,0.05754368044
6.9800,0.04700104578,-0.6116919996,-0.7875447209,0.05828474932
6.9850,0.04637230991,-0.6113943619,-0.7877567254,0.05904138172
6.9900,0.04573810125,-0.6110816591,-0.7879779763,0.05981589225
6.9950,0.04509843013,-0.610754429,-0.7882078813,0.06060936427
7.0000,0.04445234724,-0.6104118763,-0.7884472342,0.06141896203
7.0050,0.0437997003,-0.6100540862,-0.7886956901,0.06224714067
7.0100,0.04313839316,-0.6096806381,-0.7889537302,0.06309207644
7.0150,0.04246909062,-0.6092913901,-0.7892213637,0.06395324377
7.0200,0.0417894641,-0.6088867989,-0.7894982105,0.0648311849
7.0250,0.04109955308,-0.6084665279,-0.7897843906,0.06572615606
7.0300,0.0404001996,-0.6080306334,-0.7900797194,0.06663790071
7.0350,0.03969130459,-0.6075779871,-0.7903849797,0.06756606965
7.0400,0.03897563534,-0.6071081887,-0.7907001564,0.06851138444
7.0450,0.03825438728,-0.6066204147,-0.7910254661,0.06947651692
7.0500,0.03752959305,-0.6061167842,-0.79135903,0.0704617566
7.0550,0.03680326035,-0.6055956984,-0.7917018726,0.07146688088
7.0600,0.03607530803,-0.6050582577,-0.7920530207,0.07249199509
7.0650,0.03534463742,-0.604503228,-0.7924132526,0.07353802408
7.0700,0.03461147918,-0.6039304886,-0.7927824984,0.07460509765
7.0750,0.03387854754,-0.6033412653,-0.7931596207,0.07569265337
7.0800,0.03314281017,-0.6027354249,-0.7935446806,0.07680105211
7.0850,0.03240473703,-0.6021129369,-0.793937516,0.07793051323
7.0900,0.03166612491,-0.6014736842,-0.7943379588,0.07908141989
7.0950,0.03092732057,-0.6008178997,-0.7947456929,0.08025357234
7.1000,0.03018835126,-0.6001447763,-0.7951611524,0.08144723847
7.1050,0.02944877292,-0.5994554041,-0.795583426,0.08266196515
7.1100,0.02870699277,-0.5987506056,-0.7960117213,0.08389851258
7.1150,0.02796514621,-0.5980306303,-0.7964457734,0.08515542176
7.1200,0.02722118863,-0.5972951774,-0.7968856911,0.08643305688
7.1250,0.02647700702,-0.5965441684,-0.7973313426,0.08773114205
7.1300,0.02573081189,-0.5957790794,-0.797781341,0.08905136658
7.1350,0.0249834809,-0.595000156,-0.798235681,0.09039047281
7.1400,0.02423225468,-0.5942076032,-0.7986938185,0.09175132908
7.1450,0.0234787478,-0.593401284,-0.7991556647,0.09313371081
7.1500,0.02272461419,-0.5925813819,-0.7996207975,0.09453823496
7.1550,0.02197055843,-0.5917489677,-0.8000883476,0.09596400299
7.1600,0.02121619023,-0.5909039751,-0.8005579856,0.097412921
7.1650,0.02046050509,-0.5900456877,-0.8010302523,0.09888371485
7.1700,0.01970367811,-0.5891752553,-0.8015040538,0.1003769663
7.1750,0.01894638433,-0.5882922872,-0.8019792365,0.1018946693
7.1800,0.01818988348,-0.5873946723,-0.8024572825,0.103435665
7.1850,0.01743335223,-0.5864844425,-0.8029360995,0.1050033198
7.1900,0.01667691857,-0.5855592936,-0.8034172841,0.1065967242
7.1950,0.01591971739,-0.5846196816,-0.8039002233,0.1082165484
7.2000,0.01516055166,-0.5836648032,-0.8043852745,0.1098630298
7.2050,0.01439838715,-0.5826944637,-0.8048724811,0.1115353649
7.2100,0.01363153655,-0.5817087257,-0.8053615263,0.1132340571
7.2150,0.01285668639,-0.5807072115,-0.8058524433,0.1149594702
7.2200,0.01207332064,-0.5796890398,-0.8063457298,0.1167108226
7.2250,0.0112784277,-0.5786541536,-0.8068412983,0.1184874973
7.2300,0.01047177965,-0.5776030513,-0.8073386325,0.1202887752
7.2350,0.00965212468,-0.5765355022,-0.8078376657,0.1221145244
7.2400,0.008820901022,-0.5754501794,-0.808338926,0.123965574
7.2450,0.007977068339,-0.5743485398,-0.8088412032,0.1258412855
7.2500,0.007121475509,-0.5732314533,-0.8093433527,0.1277431915
7.2550,0.006254979428,-0.5720980846,-0.8098458054,0.1296704606
7.2600,0.005376154056,-0.5709487749,-0.8103483473,0.1316212352
7.2650,0.00448425685,-0.569783515,-0.8108504044,0.1335973766
7.2700,0.003578945135,-0.5686023351,-0.8113520179,0.1355967503
7.2750,0.002659390489,-0.5674057921,-0.8118528319,0.137617492
7.2800,0.00172407063,-0.5661937258,-0.8123530857,0.1396572827
7.2850,0.0007735704071,-0.5649673202,-0.8128517211,0.141715942
7.2900,-0.0001931060485,-0.5637265235,-0.8133492039,0.1437895748
7.2950,-0.001175142402,-0.5624711314,-0.8138452696,0.1458791366
7.3000,-0.002171802689,-0.5612020667,-0.8143389908,0.1479849034
7.3050,-0.003180273068,-0.5599180227,-0.8148310944,0.1501065666
7.3100,-0.004198483358,-0.5586198108,-0.8153208789,0.1522437
7.3150,-0.005227902452,-0.5573075627,-0.8158083614,0.1543945178
7.3200,-0.006266574664,-0.5559811501,-0.8162935498,0.156558396
7.3250,-0.00731428412,-0.554639957,-0.8167766176,0.1587355545
7.3300,-0.008373373572,-0.5532836465,-0.8172577791,0.1609248759
7.3350,-0.009442740245,-0.5519137924,-0.8177358363,0.1631260325
7.3400,-0.01052474906,-0.5505289301,-0.8182118355,0.1653375913
7.3450,-0.01161884445,-0.5491305886,-0.8186849096,0.1675578047
7.3500,-0.01272637312,-0.5477167857,-0.8191562111,0.1697865247
7.3550,-0.01384725387,-0.546288815,-0.8196246706,0.1720237877
7.3600,-0.01498208591,-0.5448463471,-0.8200904488,0.1742689041
7.3650,-0.01612959998,-0.5433904973,-0.8205528668,0.1765208094
7.3700,-0.01728921392,-0.5419213936,-0.8210115908,0.1787799039
7.3750,-0.01846274539,-0.5404381856,-0.821466788,0.1810469847
7.3800,-0.01964624208,-0.5389407546,-0.8219186046,0.1833212905
7.3850,-0.0208389516,-0.5374310495,-0.822365553,0.1856030777
7.3900,-0.0220401127,-0.5359082446,-0.8228084218,0.1878906273
7.3950,-0.02324817948,-0.534373503,-0.8232462735,0.190184265
7.4000,-0.02446239908,-0.5328273932,-0.8236786121,0.1924840359
7.4050,-0.02568253011,-0.5312684586,-0.8241062687,0.1947898622
7.4100,-0.02690599181,-0.5296976904,-0.8245288983,0.1971002794
7.4150,-0.02813323696,-0.5281139085,-0.8249471938,0.1994150148
7.4200,-0.02936129616,-0.5265178646,-0.8253608799,0.2017331665
7.4250,-0.03059077051,-0.5249092139,-0.8257702404,0.2040539928
7.4300,-0.03182227428,-0.5232889722,-0.8261748907,0.2063759785
7.4350,-0.03305563192,-0.5216568475,-0.8265747167,0.2087000153
7.4400,-0.0342891819,-0.5200128597,-0.8269703853,0.2110233625
7.4450,-0.03552453886,-0.5183585227,-0.8273607985,0.2133460994
7.4500,-0.0367622843,-0.5166933337,-0.8277462967,0.2156678039
7.4550,-0.0380035424,-0.5150172341,-0.8281269169,0.2179880477
7.4600,-0.0392474692,-0.5133300088,-0.8285028757,0.2203064301
7.4650,-0.0404934788,-0.5116328067,-0.8288735368,0.2226225716
7.4700,-0.04174195661,-0.5099259543,-0.829238593,0.2249366269
7.4750,-0.04299166749,-0.5082090638,-0.8295985327,0.2272477469
7.4800,-0.04424253738,-0.5064819711,-0.8299531329,0.229556982
7.4850,-0.04549291677,-0.5047436287,-0.8303031109,0.2318642012
7.4900,-0.04674222824,-0.5029954959,-0.8306476976,0.2341689512
7.4950,-0.04798970402,-0.5012364123,-0.8309878221,0.2364704778
7.5000,-0.04923467169,-0.4994671018,-0.8313228504,0.2387695117
7.5050,-0.05047490386,-0.4976863471,-0.8316529049,0.2410685166
7.5100,-0.05171088272,-0.495893212,-0.8319790813,0.2433653946
7.5150,-0.05293975071,-0.4940882302,-0.8323000693,0.2456639945
7.5200,-0.05416160242,-0.4922709832,-0.8326163795,0.247963232
7.5250,-0.05537586448,-0.4904417052,-0.8329281555,0.2502621329
7.5300,-0.05658360318,-0.4885992381,-0.8332352751,0.2525629758
7.5350,-0.05778417722,-0.4867426831,-0.8335380049,0.2548665214
7.5400,-0.05897841207,-0.4848731292,-0.8338360143,0.2571713374
7.5450,-0.06016691711,-0.482989276,-0.8341295135,0.2594788161
7.5500,-0.0613489747,-0.4810918674,-0.8344186305,0.2617870654
7.5550,-0.06252300325,-0.4791789697,-0.8347041679,0.2640972191
7.5600,-0.06368920724,-0.4772525274,-0.8349846205,0.2664101979
7.5650,-0.06484655072,-0.4753116347,-0.8352608767,0.2687248456
7.5700,-0.06599626468,-0.4733550849,-0.8355329575,0.2710426784
7.5750,-0.06713656883,-0.4713846284,-0.8357999982,0.2733634507
7.5800,-0.06826989637,-0.4694006793,-0.8360613051,0.2756877177
7.5850,-0.06939679693,-0.4674037661,-0.8363169013,0.2780141085
7.5900,-0.0705187525,-0.4653922986,-0.8365673153,0.2803430771
7.5950,-0.07163825764,-0.4633671241,-0.836811912,0.2826741803
7.6000,-0.07275498723,-0.4613284057,-0.8370508797,0.2850063835
7.6050,-0.07387230226,-0.4592757487,-0.8372845913,0.2873380984
7.6100,-0.07499211436,-0.4572084387,-0.8375131177,0.2896694739
7.6150,-0.07611312565,-0.4551269535,-0.8377352998,0.2920031091
7.6200,-0.0772362872,-0.4530306866,-0.8379519025,0.2943371571
7.6250,-0.07836349592,-0.4509197552,-0.838162197,0.296672662
7.6300,-0.07949351417,-0.448796432,-0.8383652502,0.2990087809
7.6350,-0.08062915027,-0.4466580923,-0.8385620845,0.3013455146
7.6400,-0.08176886633,-0.4445059918,-0.8387516293,0.3036840136
7.6450,-0.08291219098,-0.4423395784,-0.838933783,0.3060251195
7.6500,-0.0840599305,-0.440159811,-0.83910785,0.3083687483
7.6550,-0.08521147416,-0.4379645866,-0.8392745136,0.310715813
7.6600,-0.08636578821,-0.4357541256,-0.8394331997,0.3130673983
7.6650,-0.08752256918,-0.4335287636,-0.839583846,0.3154228536
7.6700,-0.08868213029,-0.4312894378,-0.8397255016,0.3177829174
7.6750,-0.08984449126,-0.4290352818,-0.8398589714,0.3201462204
7.6800,-0.091009268,-0.4267671574,-0.8399837097,0.32251275
7.6850,-0.09217901004,-0.4244832939,-0.8401007116,0.3248811438
7.6900,-0.09335428216,-0.422184779,-0.8402095496,0.3272505206
7.6950,-0.09453838995,-0.419871408,-0.8403104398,0.3296192627
7.7000,-0.09573347393,-0.4175436063,-0.840402948,0.3319869332
7.7050,-0.09693993996,-0.4152022506,-0.8404874264,0.3343510508
7.7100,-0.09816228437,-0.4128462794,-0.840563986,0.3367110051
7.7150,-0.09940207576,-0.4104771215,-0.8406325685,0.3390643668
7.7200,-0.100663978,-0.4080947493,-0.8406928218,0.3414103375
7.7250,-0.1019492406,-0.4057000249,-0.8407451081,0.3437462805
7.7300,-0.1032608625,-0.403293365,-0.8407892993,0.3460708166
7.7350,-0.1046021901,-0.4008719135,-0.8408268694,0.3483823567
7.7400,-0.1059740877,-0.398438398,-0.8408564884,0.3506803412
7.7450,-0.1073772689,-0.3959917928,-0.840878388,0.3529648123
7.7500,-0.1088131937,-0.3935315516,-0.840893243,0.3552339521
7.7550,-0.1102793723,-0.3910569396,-0.8409009157,0.3574892725
7.7600,-0.1117747629,-0.3885680236,-0.840901151,0.3597312158
7.7650,-0.1133003997,-0.3860643998,-0.8408936816,0.3619601013
7.7700,-0.1148543245,-0.3835450731,-0.8408789322,0.3641761695
7.7750,-0.1164370913,-0.3810110134,-0.8408557309,0.3663804732
7.7800,-0.1180475858,-0.3784624047,-0.8408237954,0.3685733589
7.7850,-0.119684357,-0.375898387,-0.8407836338,0.3707545529
7.7900,-0.1213474607,-0.3733190482,-0.8407336491,0.3729270886
7.7950,-0.1230345076,-0.3707252381,-0.8406734677,0.3750912268
7.8000,-0.1247437635,-0.3681149294,-0.8406031236,0.377248964
7.8050,-0.1264746563,-0.3654893227,-0.8405221619,0.3793998046
7.8100,-0.1282248838,-0.3628475217,-0.840429483,0.3815472961
7.8150,-0.1299914828,-0.360189289,-0.8403263508,0.3836893464
7.8200,-0.1317732456,-0.3575137552,-0.840212237,0.3858278417
7.8250,-0.1335677722,-0.3548220914,-0.8400863112,0.3879638172
7.8300,-0.1353725428,-0.3521146399,-0.8399487079,0.3900970688
7.8350,-0.137187473,-0.3493896586,-0.83980006,0.3922273869
7.8400,-0.1390111077,-0.3466477025,-0.8396398754,0.3943553752
7.8450,-0.1408432668,-0.3438898589,-0.8394679789,0.396480077
7.8500,-0.1426824269,-0.3411150488,-0.8392842734,0.3986027559
7.8550,-0.1445291871,-0.3383241919,-0.8390892478,0.4007209623
7.8600,-0.1463815237,-0.3355174655,-0.8388827266,0.4028352653
7.8650,-0.1482399416,-0.3326951214,-0.8386648623,0.4049445944
7.8700,-0.1501024893,-0.3298579132,-0.8384360352,0.4070479267
7.8750,-0.1519701089,-0.3270041015,-0.8381963352,0.4091458265
7.8800,-0.1538400642,-0.3241344823,-0.8379458228,0.4112382156
7.8850,-0.1557131492,-0.3212485787,-0.8376844172,0.4133250332
7.8900,-0.1575877512,-0.3183476605,-0.8374115173,0.4154068107
7.8950,-0.1594614247,-0.3154315661,-0.8371281627,0.4174822396
7.9000,-0.1613336324,-0.3125020219,-0.8368334356,0.4195518401
7.9050,-0.1632028881,-0.3095589767,-0.8365275355,0.4216156301
7.9100,-0.1650687475,-0.3066023836,-0.8362101176,0.4236743162
7.9150,-0.1669309721,-0.3036338584,-0.8358812915,0.4257264346
7.9200,-0.168787326,-0.3006525953,-0.8355406383,0.4277741195
7.9250,-0.1706368313,-0.2976586101,-0.8351894549,0.4298150743
7.9300,-0.1724770064,-0.2946511358,-0.8348273062,0.4318515477
7.9350,-0.1743076467,-0.2916314132,-0.8344538583,0.433883304
7.9400,-0.1761268615,-0.2885992141,-0.8340696181,0.4359101908
7.9450,-0.1779348148,-0.2855540828,-0.8336752547,0.4379310872
7.9500,-0.1797308385,-0.2824965002,-0.8332701427,0.4399470677
7.9550,-0.1815153448,-0.2794282638,-0.8328547631,0.4419558446
7.9600,-0.1832898091,-0.2763506742,-0.8324281258,0.4439578427
7.9650,-0.1850535923,-0.2732641344,-0.8319907456,0.4459521052
7.9700,-0.1868079868,-0.2701690679,-0.8315427853,0.447937548
7.9750,-0.1885519867,-0.2670667735,-0.8310843255,0.4499136925
7.9800,-0.1902854196,-0.2639567438,-0.8306152446,0.4518811922
7.9850,-0.1920083097,-0.2608412525,-0.8301354819,0.453838883
7.9900,-0.1937215185,-0.2577212564,-0.8296444045,0.4557871097
7.9950,-0.1954243294,-0.2545980019,-0.8291422771,0.4577251066
8.0000,-0.1971171158,-0.2514708291,-0.8286296304,0.4596522603
8.0050,-0.1987976612,-0.2483407638,-0.8281068325,0.4615684444
8.0100,-0.2004667581,-0.2452087674,-0.8275738286,0.4634730817
8.0150,-0.2021232328,-0.2420749449,-0.8270307113,0.4653666537
8.0200,-0.2037676893,-0.2389404786,-0.8264776403,0.4672482066
8.0250,-0.2053996931,-0.2358056986,-0.8259139691,0.4691191259
8.0300,-0.2070182466,-0.2326709217,-0.8253409008,0.4709777969
8.0350,-0.2086228297,-0.2295379669,-0.8247575357,0.4728253842
8.0400,-0.2102143168,-0.2264051816,-0.8241643471,0.4746617362
8.0450,-0.2117928415,-0.2232752316,-0.8235615386,0.47648542
8.0500,-0.2133587251,-0.2201476705,-0.8229484647,0.4782979009
8.0550,-0.2149135337,-0.2170247469,-0.8223248357,0.4800982158
8.0600,-0.2164598043,-0.213905696,-0.8216902938,0.4818864673
8.0650,-0.2179949336,-0.2107892604,-0.8210453585,0.4836637426
8.0700,-0.2195203052,-0.2076780586,-0.8203892696,0.4854298157
8.0750,-0.2210356922,-0.2045704963,-0.8197229843,0.487184117
8.0800,-0.2225415054,-0.2014686712,-0.8190453146,0.4889278326
8.0850,-0.2240395464,-0.1983724123,-0.8183560991,0.490660741
8.0900,-0.2255289274,-0.1952813894,-0.8176553434,0.4923836119
8.0950,-0.2270101175,-0.1921938936,-0.8169433626,0.4940966061
8.1000,-0.228481701,-0.1891128759,-0.8162204428,0.4957989726
8.1050,-0.2299438955,-0.1860378134,-0.8154864865,0.4974912334
8.1100,-0.2313974966,-0.1829698638,-0.8147422891,0.4991715436
8.1150,-0.2328459999,-0.1799089292,-0.8139868403,0.5008402354
8.1200,-0.2342877974,-0.1768555146,-0.8132199869,0.5024983661
8.1250,-0.2357242607,-0.1738079369,-0.812442005,0.5041456759
8.1300,-0.237156465,-0.1707677901,-0.8116528771,0.505781356
8.1350,-0.2385853518,-0.1677365606,-0.8108515991,0.5074063071
8.1400,-0.2400099831,-0.1647137683,-0.8100387741,0.5090203995
8.1450,-0.2414288112,-0.161696591,-0.8092152193,0.5106241969
8.1500,-0.2428437793,-0.1586873084,-0.8083808735,0.512216361
8.1550,-0.2442536732,-0.1556864351,-0.8075343039,0.5137997909
8.1600,-0.2456627892,-0.1526942079,-0.8066754091,0.5153727362
8.1650,-0.2470693221,-0.1497106458,-0.8058036585,0.5169370721
8.1700,-0.2484749032,-0.1467355587,-0.804918482,0.5184931394
8.1750,-0.2498772715,-0.1437685259,-0.8040212772,0.5200401387
8.1800,-0.2512759369,-0.1408087932,-0.8031123234,0.5215782619
8.1850,-0.2526701298,-0.137857073,-0.8021920212,0.523107249
8.1900,-0.2540606069,-0.1349144004,-0.8012609043,0.5246258436
8.1950,-0.2554476269,-0.1319805544,-0.8003189989,0.5261341494
8.2000,-0.2568299724,-0.1290526782,-0.799367298,0.5276321582
8.2050,-0.2582074529,-0.1261320075,-0.79840584,0.5291197809
8.2100,-0.2595807341,-0.123220428,-0.7974361094,0.5305942141
8.2150,-0.2609528031,-0.1203188428,-0.7964569123,0.5320558217
8.2200,-0.2623256925,-0.1174289008,-0.7954674537,0.5335046526
8.2250,-0.2636994053,-0.1145498988,-0.7944676408,0.534941223
8.2300,-0.2650759093,-0.1116823491,-0.7934581992,0.5363635907
8.2350,-0.2664553756,-0.1088271674,-0.7924386782,0.5377723698
8.2400,-0.2678392946,-0.1059860602,-0.79140887,0.5391670129
8.2450,-0.2692295474,-0.1031592296,-0.7903683345,0.5405474262
8.2500,-0.2706237741,-0.1003460956,-0.7893181997,0.5419134742
8.2550,-0.2720195778,-0.09754645561,-0.7882581153,0.5432671368
8.2600,-0.2734135867,-0.09475893986,-0.7871905489,0.5446070085
8.2650,-0.2748050489,-0.09198195133,-0.7861154251,0.5459341024
8.2700,-0.2761927879,-0.08921552733,-0.7850340086,0.5472474202
8.2750,-0.2775756323,-0.08645947726,-0.7839459594,0.5485483205
8.2800,-0.2789550774,-0.08371462884,-0.7828515513,0.5498357703
8.2850,-0.2803281431,-0.08098048443,-0.7817517622,0.551110221
8.2900,-0.2816943012,-0.07825436402,-0.7806461599,0.5523731965
8.2950,-0.2830523685,-0.07553743787,-0.7795352313,0.5536246701
8.3000,-0.2844031878,-0.07282827186,-0.7784194241,0.5548640102
8.3050,-0.2857467526,-0.07012773954,-0.777298703,0.5560913772
8.3100,-0.287082908,-0.06743526643,-0.7761741093,0.5573056979
8.3150,-0.2884111897,-0.06475102748,-0.7750458605,0.558507121
8.3200,-0.2897300598,-0.06207544391,-0.773914314,0.5596961375
8.3250,-0.2910408494,-0.05940684984,-0.7727793167,0.5608726931
8.3300,-0.2923427033,-0.05674463258,-0.7716406281,0.5620378382
8.3350,-0.2936358259,-0.05409120332,-0.7704984474,0.5631911629
8.3400,-0.2949183168,-0.05144633765,-0.7693530194,0.5643335825
8.3450,-0.2961907745,-0.04880810204,-0.7682046843,0.5654647268
8.3500,-0.2974530068,-0.04617794956,-0.7670530587,0.5665853076
8.3550,-0.2987032892,-0.04355340576,-0.7658993756,0.5676949817
8.3600,-0.2999402876,-0.04093614703,-0.7647445805,0.5687932685
8.3650,-0.3011636267,-0.03832711366,-0.7635885241,0.569880749
8.3700,-0.3023753638,-0.03572552624,-0.7624306233,0.5709574158
8.3750,-0.3035736739,-0.03312970459,-0.7612708051,0.5720246573
8.3800,-0.3047561676,-0.03053793927,-0.7601104239,0.573082242
8.3850,-0.3059225348,-0.02795146779,-0.7589495833,0.5741303408
8.3900,-0.3070730653,-0.02536879337,-0.7577895795,0.5751673757
8.3950,-0.3082086968,-0.02279116752,-0.7566291483,0.5761946666
8.4000,-0.3093277987,-0.02021563177,-0.7554693443,0.5772120157
8.4050,-0.3104297551,-0.01764142969,-0.7543113601,0.578218401
8.4100,-0.3115164213,-0.01506803932,-0.7531547218,0.579213638
8.4150,-0.3125883852,-0.01249771051,-0.7519992147,0.5801978023
8.4200,-0.3136496731,-0.009931272178,-0.7508437507,0.5811702972
8.4250,-0.3147028019,-0.007369941018,-0.7496872694,0.5821312812
8.4300,-0.3157484146,-0.004812804706,-0.7485292295,0.5830812706
8.4350,-0.3167848581,-0.002260236577,-0.7473708727,0.5840197117
8.4400,-0.3178131804,0.000289033748,-0.746212235,0.5849461506
8.4450,-0.3188357223,0.002833680527,-0.7450528049,0.5858601116
8.4500,-0.3198520933,0.005377055401,-0.7438922576,0.5867623325
8.4550,-0.3208617033,0.007919199465,-0.7427318905,0.5876515911
8.4600,-0.3218623137,0.01046199198,-0.7415733756,0.5885270822
8.4650,-0.3228539821,0.0130056784,-0.740416556,0.5893890754
8.4700,-0.3238376567,0.01554926278,-0.7392624375,0.5902359199
8.4750,-0.3248155663,0.01809138454,-0.7381091335,0.5910689103
8.4800,-0.325791303,0.02063109289,-0.7369554322,0.5918877223
8.4850,-0.3267652961,0.023169795,-0.7358007993,0.5926928257
8.4900,-0.3277391529,0.02570654633,-0.7346434748,0.5934856241
8.4950,-0.3287150244,0.02824016212,-0.7334830395,0.5942655608
8.5000,-0.3296936803,0.03076827895,-0.7323182206,0.5950339603
8.5050,-0.3306775712,0.03328860633,-0.731147617,0.5957913853
8.5100,-0.3316659412,0.03580392415,-0.7299701431,0.5965394979
8.5150,-0.3326540801,0.03831542887,-0.7287882541,0.5972778848
8.5200,-0.3336420171,0.04082425917,-0.7276025835,0.5980057397
8.5250,-0.3346294829,0.04332918935,-0.7264134772,0.5987229332
8.5300,-0.3356180505,0.04582940705,-0.7252190253,0.599431026
8.5350,-0.3366057548,0.04832690673,-0.7240208297,0.6001290811
8.5400,-0.3375935082,0.0508215411,-0.7228186193,0.6008169752
8.5450,-0.3385779037,0.05331303232,-0.7216123904,0.6014967013
8.5500,-0.3395605259,0.05580089608,-0.7204025394,0.6021669955
8.5550,-0.3405422698,0.05828573182,-0.7191903011,0.6028258843
8.5600,-0.3415244736,0.06076796789,-0.7179733975,0.603475342
8.5650,-0.3425077455,0.06324543523,-0.7167521544,0.6041148967
8.5700,-0.3434900389,0.06571899375,-0.7155261828,0.6047461358
8.5750,-0.3444716365,0.06818799635,-0.7142954732,0.6053690327
8.5800,-0.3454508681,0.07065241435,-0.7130617058,0.6059826216
8.5850,-0.3464292693,0.07311251675,-0.7118235443,0.6065876384
8.5900,-0.3474057917,0.07556657985,-0.7105815317,0.6071843169
8.5950,-0.3483798706,0.07801520137,-0.7093359431,0.6077726663
8.6000,-0.349350901,0.08045549375,-0.7080871311,0.6083530853
8.6050,-0.3503199831,0.08288633664,-0.7068347313,0.6089256336
8.6100,-0.3512858549,0.08530597854,-0.7055778155,0.609492481
8.6150,-0.3522500272,0.08771518105,-0.7043161217,0.6100530846
8.6200,-0.3532103998,0.09011525748,-0.7030511542,0.6106068525
8.6250,-0.3541653774,0.09250360243,-0.7017842006,0.6111537489
8.6300,-0.3551178094,0.09487945633,-0.7005140799,0.6116937584
8.6350,-0.3560673471,0.09724100679,-0.6992400862,0.6122283338
8.6400,-0.3570169236,0.09958701866,-0.6979621133,0.6127562569
8.6450,-0.3579657697,0.101914363,-0.6966788811,0.6132801212
8.6500,-0.3589145145,0.1042223683,-0.6953916126,0.6137984803
8.6550,-0.3598634948,0.1065091837,-0.6941000789,0.6143119236
8.6600,-0.3608108057,0.1087772543,-0.692805639,0.6148198257
8.6650,-0.3617542288,0.1110263003,-0.6915100806,0.6153217427
8.6700,-0.3626913105,0.1132570291,-0.6902146316,0.6158178472
8.6750,-0.3636216431,0.1154689878,-0.6889203279,0.6163075493
8.6800,-0.3645448594,0.1176623439,-0.6876286947,0.6167895886
8.6850,-0.3654575875,0.1198393985,-0.6863412919,0.6172640451
8.6900,-0.3663613921,0.1220000365,-0.6850586831,0.6177296514
8.6950,-0.3672530133,0.1241441835,-0.6837841158,0.618185028
8.7000,-0.3681359079,0.1262725735,-0.6825163094,0.6186296775
8.7050,-0.3690082812,0.1283849728,-0.6812559465,0.6190642314
8.7100,-0.3698694808,0.1304818822,-0.6800041291,0.6194880387
8.7150,-0.3707173449,0.1325647718,-0.6787621996,0.6199008855
8.7200,-0.3715514266,0.1346349026,-0.6775311418,0.6203019687
8.7250,-0.3723703483,0.1366910852,-0.6763110399,0.6206925554
8.7300,-0.3731756109,0.1387330412,-0.6751014764,0.6210725426
8.7350,-0.3739686655,0.1407589933,-0.673901408,0.6214428657
8.7400,-0.3747507883,0.1427692444,-0.6727112029,0.6218025627
8.7450,-0.3755217411,0.1447619577,-0.6715304694,0.6221528962
8.7500,-0.3762824152,0.1467366784,-0.6703587535,0.622494203
8.7550,-0.3770352849,0.1486918103,-0.6691952929,0.6228264602
8.7600,-0.3777829311,0.1506266824,-0.6680371917,0.6231516428
8.7650,-0.3785275181,0.1525412276,-0.6668853451,0.6234677445
8.7700,-0.379269954,0.1544347724,-0.6657376949,0.6237768227
8.7750,-0.3800115114,0.1563074539,-0.6645929747,0.6240796496
8.7800,-0.3807487871,0.1581599571,-0.6634536447,0.6243757286
8.7850,-0.3814792397,0.1599947048,-0.6623208331,0.6246650288
8.7900,-0.3822015262,0.1618125377,-0.6611962161,0.6249466055
8.7950,-0.3829157574,0.1636154373,-0.6600794164,0.6252205015
8.8000,-0.3836220381,0.1654044116,-0.6589715203,0.6254854498
8.8050,-0.3843179651,0.1671819184,-0.6578733897,0.6257415688
8.8100,-0.3850053659,0.1689481099,-0.6567852267,0.625987676
8.8150,-0.3856867112,0.1707019617,-0.6557065136,0.6262232582
8.8200,-0.3863623456,0.1724424563,-0.6546375464,0.6264482581
8.8250,-0.3870321112,0.1741703299,-0.6535772639,0.6266638661
8.8300,-0.3876946286,0.1758876886,-0.6525274222,0.6268686937
8.8350,-0.3883489379,0.1775932254,-0.6514883457,0.6270635408
8.8400,-0.3889933011,0.1792890018,-0.6504621895,0.6272468458
8.8450,-0.3896284468,0.1809757247,-0.6494493152,0.6274177616
8.8500,-0.3902547034,0.1826504581,-0.6484496378,0.6275772015
8.8550,-0.3908739606,0.184314515,-0.6474600118,0.6277270422
8.8600,-0.3914868896,0.1859650978,-0.646481241,0.6278670263
8.8650,-0.392094834,0.1876012167,-0.6455123264,0.6279978193
8.8700,-0.3926996937,0.1892225619,-0.6445522354,0.6281195654
8.8750,-0.393303439,0.1908264224,-0.6435991112,0.6282339257
8.8800,-0.3939055897,0.1924142146,-0.6426531612,0.6283407283
8.8850,-0.3945055381,0.1939860777,-0.64171461,0.6284402449
8.8900,-0.3951051646,0.195541155,-0.6407838833,0.6285312884
8.8950,-0.3957054868,0.1970798126,-0.639860283,0.628613978
8.9000,-0.3963055243,0.1986031955,-0.6389430448,0.6286895001
8.9050,-0.396905386,0.2001133539,-0.6380323827,0.6287570586
8.9100,-0.397505169,0.201611147,-0.6371281652,0.6288165767
8.9150,-0.3981056222,0.2030939945,-0.63623031,0.6288686155
8.9200,-0.3987092144,0.2045608043,-0.6353377804,0.6289131454
8.9250,-0.3993179558,0.2060138586,-0.6344478386,0.6289510318
8.9300,-0.3999283839,0.2074538005,-0.6335625285,0.6289822977
8.9350,-0.4005395798,0.2088844943,-0.6326826396,0.6290055569
8.9400,-0.4011496771,0.2103082534,-0.6318082787,0.6290212032
8.9450,-0.4017578605,0.2117299621,-0.6309395525,0.6290280803
8.9500,-0.4023621511,0.2131494035,-0.6300764527,0.6290275788
8.9550,-0.402961909,0.2145699223,-0.6292180669,0.6290199302
8.9600,-0.4035566394,0.2159911645,-0.6283642233,0.6290057698
8.9650,-0.4041491301,0.2174152042,-0.6275120158,0.6289855162
8.9700,-0.4047376895,0.2188425634,-0.6266621788,0.6289593379
8.9750,-0.4053227027,0.2202731769,-0.625813526,0.6289281874
8.9800,-0.4059075918,0.2217070442,-0.6249612868,0.6288945885
8.9850,-0.4064938838,0.223142167,-0.6241047394,0.6288589428
8.9900,-0.4070785534,0.2245799323,-0.6232443779,0.6288221933
8.9950,-0.4076624005,0.2260221748,-0.6223784109,0.6287849055
9.0000,-0.4082449779,0.2274685309,-0.6215078499,0.6287464496
9.0050,-0.4088294633,0.2289183617,-0.6206297948,0.6287078109
9.0100,-0.4094161075,0.2303731212,-0.6197432774,0.6286691866
9.0150,-0.410006024,0.2318325749,-0.6188473847,0.6286307596
9.0200,-0.4105985422,0.2332979397,-0.6179422333,0.62859232
9.0250,-0.4111950933,0.2347713689,-0.6170275836,0.6285522736
9.0300,-0.4117938329,0.236256302,-0.6161037807,0.6285100878
9.0350,-0.4123938007,0.2377536462,-0.6151733635,0.6284634355
9.0400,-0.4129968306,0.2392642407,-0.614233474,0.6284134629
9.0450,-0.4136027947,0.2407874644,-0.613284251,0.6283602093
9.0500,-0.4142147799,0.2423215748,-0.6123228152,0.6283049741
9.0550,-0.414832542,0.2438670916,-0.6113493084,0.6282474249
9.0600,-0.415452417,0.2454253428,-0.6103656594,0.6281874339
9.0650,-0.4160727409,0.2469978535,-0.6093712875,0.6281259178
9.0700,-0.4166936858,0.2485833979,-0.6083661496,0.6280631294
9.0750,-0.4173149022,0.2501812467,-0.6073503234,0.6279993637
9.0800,-0.4179363691,0.2517895015,-0.6063224285,0.6279365821
9.0850,-0.4185603979,0.2534056893,-0.6052823626,0.6278742003
9.0900,-0.4191858329,0.2550288119,-0.6042294893,0.6278138791
9.0950,-0.4198121687,0.2566574718,-0.6031635788,0.6277566267
9.1000,-0.4204382201,0.2582908407,-0.6020850569,0.627703058
9.1050,-0.4210649613,0.2599282798,-0.6009960395,0.6276506578
9.1100,-0.4216905721,0.2615649247,-0.5998982005,0.6276009883
9.1150,-0.4223138174,0.2632014526,-0.5987922989,0.6275538365
9.1200,-0.4229336554,0.2648365122,-0.5976802281,0.6275086373
9.1250,-0.4235490119,0.2664690863,-0.5965658881,0.627462829
9.1300,-0.4241598071,0.2680963514,-0.5954513459,0.6274157307
9.1350,-0.4247675501,0.2697171372,-0.594337524,0.6273660032
9.1400,-0.4253719663,0.2713292028,-0.5932265727,0.6273128306
9.1450,-0.4259733962,0.2729310359,-0.5921210053,0.6272543587
9.1500,-0.4265709008,0.2745244876,-0.5910239852,0.6271875487
9.1550,-0.4271653792,0.2761047039,-0.5899399894,0.627109831
9.1600,-0.4277578637,0.277672833,-0.5888694722,0.6270197386
9.1650,-0.428345279,0.2792280643,-0.5878172065,0.6269154184
9.1700,-0.4289287267,0.2807698878,-0.5867859546,0.6267939542
9.1750,-0.4295049021,0.2823026364,-0.5857803748,0.6266515085
9.1800,-0.4300737856,0.2838260462,-0.5848020189,0.6264869616
9.1850,-0.4306362234,0.2853397931,-0.5838534575,0.6262976814
9.1900,-0.4311914055,0.2868425551,-0.5829351857,0.6260845707
9.1950,-0.4317388844,0.2883338505,-0.5820467632,0.6258487771
9.2000,-0.4322796608,0.2898121968,-0.5811894427,0.6255893359
9.2050,-0.4328140788,0.29127667,-0.5803613521,0.6253083845
9.2100,-0.4333415817,0.2927258696,-0.5795641847,0.6250055957
9.2150,-0.4338614524,0.2941608228,-0.5787964572,0.6246825686
9.2200,-0.4343740214,0.2955810059,-0.5780564705,0.624341089
9.2250,-0.434876921,0.296986201,-0.5773454074,0.6239820034
9.2300,-0.4353719974,0.2983754139,-0.5766617812,0.6236060666
9.2350,-0.4358619734,0.2997459488,-0.5760024289,0.6232157799
9.2400,-0.4363477689,0.3010949734,-0.5753659363,0.6228133597
9.2450,-0.4368309431,0.302420908,-0.5747505719,0.6224002745
9.2500,-0.4373129012,0.3037252766,-0.5741547474,0.6219764536
9.2550,-0.4377959398,0.3050052023,-0.573577797,0.6215424783
9.2600,-0.4382798839,0.306263124,-0.5730189538,0.6210981571
9.2650,-0.4387647714,0.3074984806,-0.572478658,0.6206434935
9.2700,-0.4392498736,0.3087141127,-0.5719557741,0.6201787949
9.2750,-0.439736205,0.3099108957,-0.5714504915,0.6197028662
9.2800,-0.4402203804,0.3110899507,-0.5709659237,0.6192148038
9.2850,-0.4407034479,0.3122543361,-0.5705001682,0.6187141979
9.2900,-0.441187133,0.3134030682,-0.5700499976,0.6182033895
9.2950,-0.4416733916,0.3145357757,-0.569614681,0.6176819376
9.3000,-0.4421602568,0.3156536386,-0.5691917461,0.617153015
9.3050,-0.4426476705,0.3167588731,-0.5687830147,0.6166139297
9.3100,-0.443134461,0.3178517092,-0.5683870177,0.6160668296
9.3150,-0.4436187066,0.3189350683,-0.568002774,0.6155125621
9.3200,-0.4440986394,0.3200080672,-0.5676310121,0.6149522498
9.3250,-0.4445716148,0.3210727841,-0.5672728116,0.6143857939
9.3300,-0.445037833,0.3221283597,-0.5669261592,0.6138154259
9.3350,-0.4454992016,0.3231730342,-0.5665861769,0.6132452654
9.3400,-0.4459535731,0.3242076999,-0.5662546306,0.6126748495
9.3450,-0.4464010783,0.3252344162,-0.5659283075,0.6121060386
9.3500,-0.4468388226,0.3262543941,-0.5656090341,0.6115386804
9.3550,-0.4472656918,0.3272694215,-0.565295786,0.61097365
9.3600,-0.4476831012,0.3282800132,-0.5649863061,0.6104117853
9.3650,-0.4480897572,0.3292855494,-0.5646800143,0.6098549647
9.3700,-0.4484847529,0.3302896967,-0.5643769336,0.6093019116
9.3750,-0.4488665129,0.3312926245,-0.5640772911,0.60875353
9.3800,-0.4492359597,0.3322958908,-0.5637792012,0.6082100836
9.3850,-0.4495947274,0.3332991883,-0.5634801508,0.6076728987
9.3900,-0.4499434984,0.3343037514,-0.5631799722,0.6071409794
9.3950,-0.4502825895,0.3353090003,-0.5628799256,0.606613265
9.4000,-0.450613549,0.3363143284,-0.5625783599,0.6060904973
9.4050,-0.4509354745,0.3373207558,-0.5622760976,0.60557204
9.4100,-0.4512489448,0.3383299242,-0.561973272,0.6050564385
9.4150,-0.4515542248,0.3393413055,-0.5616710732,0.6045426917
9.4200,-0.4518522665,0.3403547544,-0.5613687394,0.604030884
9.4250,-0.4521444307,0.3413696071,-0.5610654303,0.6035211579
9.4300,-0.4524302517,0.342386844,-0.5607628167,0.6030117576
9.4350,-0.4527083596,0.3434070418,-0.5604607614,0.6025035102
9.4400,-0.4529800249,0.3444288158,-0.5601582576,0.601997188
9.4450,-0.4532445556,0.345451854,-0.5598568757,0.6014920349
9.4500,-0.4535025196,0.3464737906,-0.5595549633,0.6009905325
9.4550,-0.4537513851,0.3474953586,-0.5592535698,0.6004932148
9.4600,-0.4539916968,0.3485144789,-0.5589536328,0.600000028
9.4650,-0.4542259402,0.3495304901,-0.5586520432,0.5995124072
9.4700,-0.4544532247,0.3505415153,-0.5583499379,0.5990311006
9.4750,-0.454675244,0.3515418438,-0.5580465895,0.5985589014
9.4800,-0.4548941338,0.3525283427,-0.5577408817,0.5980971522
9.4850,-0.4551100569,0.3534985086,-0.5574330667,0.5976470669
9.4900,-0.4553241522,0.3544524834,-0.5571227746,0.5972081442
9.4950,-0.455536463,0.3553879709,-0.5568120161,0.5967799425
9.5000,-0.4557461936,0.3563053168,-0.5565016719,0.5963621529
9.5050,-0.4559543854,0.3572029318,-0.5561928468,0.5959540092
9.5100,-0.4561612321,0.3580797046,-0.5558859361,0.5955557753
9.5150,-0.4563673961,0.3589337917,-0.5555814859,0.5951676617
9.5200,-0.4565720925,0.3597638444,-0.5552819925,0.594788878
9.5250,-0.4567787068,0.3605680162,-0.5549867273,0.5944187507
9.5300,-0.4569864081,0.3613441951,-0.5546954543,0.5940595495
9.5350,-0.4571929432,0.3620943419,-0.5544109736,0.5937093334
9.5400,-0.4573970597,0.3628178785,-0.5541356209,0.5933673655
9.5450,-0.4575973337,0.3635144074,-0.5538718068,0.5930328638
9.5500,-0.4577915389,0.3641816393,-0.5536213234,0.5927074074
9.5550,-0.4579810231,0.3648194338,-0.5533841748,0.592390174
9.5600,-0.4581650565,0.3654255247,-0.5531609715,0.5920826856
9.5650,-0.458343086,0.3659992039,-0.55295289,0.5917848424
9.5700,-0.4585161544,0.3665381488,-0.5527608314,0.5914965637
9.5750,-0.4586822123,0.3670419385,-0.552585959,0.5912187425
9.5800,-0.458840608,0.3675108265,-0.5524297638,0.5909504589
9.5850,-0.4589902686,0.3679437993,-0.5522926516,0.5906929159
9.5900,-0.4591287944,0.3683414244,-0.5521779651,0.5904446123
9.5950,-0.4592551656,0.3687037021,-0.5520855782,0.5902065632
9.6000,-0.4593697646,0.3690292985,-0.5520172258,0.589977778
9.6050,-0.4594710738,0.3693175344,-0.5519719521,0.5897608458
9.6100,-0.459558517,0.369568002,-0.551951645,0.5895547837
9.6150,-0.4596338603,0.3697795949,-0.5519563802,0.589358906
9.6200,-0.4596965541,0.3699528067,-0.5519850319,0.5891744424
9.6250,-0.4597490819,0.3700861674,-0.5520354679,0.5890024216
9.6300,-0.4597916593,0.3701789945,-0.5521085571,0.5888423247
9.6350,-0.4598221252,0.370233324,-0.5522061531,0.588692843
9.6400,-0.4598401509,0.3702492166,-0.5523272324,0.5885551645
9.6450,-0.459844756,0.3702285333,-0.5524736516,0.5884271389
9.6500,-0.4598359132,0.3701707473,-0.5526452192,0.588309283
9.6550,-0.4598143796,0.3700761124,-0.5528410456,0.5882016539
9.6600,-0.4597814408,0.3699446769,-0.5530596562,0.5881045651
9.6650,-0.4597380637,0.3697753755,-0.5533001287,0.5880187514
9.6700,-0.459685211,0.3695683836,-0.5535614271,0.5879442686
9.6750,-0.4596231218,0.3693243017,-0.5538430315,0.5878809765
9.6800,-0.4595523443,0.3690446224,-0.5541457082,0.5878267122
9.6850,-0.4594712395,0.368730435,-0.5544698093,0.5877816576
9.6900,-0.4593804374,0.3683806151,-0.5548148615,0.5877463786
9.6950,-0.459278825,0.3679982378,-0.5551803971,0.5877201585
9.7000,-0.4591660625,0.3675852473,-0.5555674456,0.5877009668
9.7050,-0.4590434527,0.3671402345,-0.5559742043,0.5876902594
9.7100,-0.4589115209,0.3666637351,-0.5563995491,0.5876882363
9.7150,-0.4587732217,0.3661550562,-0.5568403733,0.5876958435
9.7200,-0.4586282018,0.3656152682,-0.5572970559,0.5877122081
9.7250,-0.4584761074,0.3650447477,-0.5577695254,0.5877373118
9.7300,-0.4583181309,0.3644436245,-0.5582560879,0.5877716187
9.7350,-0.4581551587,0.3638122296,-0.5587573349,0.5878135357
9.7400,-0.457988873,0.3631511569,-0.5592714543,0.5878629686
9.7450,-0.4578185269,0.3624615576,-0.559798202,0.5879198829
9.7500,-0.4576462833,0.3617450783,-0.5603374749,0.5879815405
