type,name,time_units,begin_time,frequency,count,units
signal,"Noraxon MyoMotion-Segments-Upper arm RT-Pitch","s",0.0000,200,4984,"deg"

time,value
0.0000,8.287855662
0.0050,8.282980995
0.0100,8.278106477
0.0150,8.273232109
0.0200,8.267788693
0.0250,8.261770916
0.0300,8.255178575
0.0350,8.248015021
0.0400,8.2402858
0.0450,8.231997833
0.0500,8.223159266
0.0550,8.213779955
0.0600,8.203871995
0.0650,8.193450181
0.0700,8.182533122
0.0750,8.171144529
0.0800,8.15931357
0.0850,8.147074749
0.0900,8.134468123
0.0950,8.12153978
0.1000,8.108342463
0.1050,8.094936303
0.1100,8.081389349
0.1150,8.067777859
0.1200,8.054186296
0.1250,8.040706869
0.1300,8.027438828
0.1350,8.014487564
0.1400,8.001962926
0.1450,7.989976603
0.1500,7.978639044
0.1550,7.961308779
0.1600,7.944892589
0.1650,7.929545507
0.1700,7.915290903
0.1750,7.902124103
0.1800,7.890371819
0.1850,7.879962312
0.1900,7.87098152
0.1950,7.863408173
0.2000,7.857299502
0.2050,7.852500621
0.2100,7.849090892
0.2150,7.847008979
0.2200,7.846074673
0.2250,7.846280702
0.2300,7.84734746
0.2350,7.849151501
0.2400,7.851705467
0.2450,7.854671888
0.2500,7.857964797
0.2550,7.861398757
0.2600,7.865063954
0.2650,7.868670882
0.2700,7.872334204
0.2750,7.875912951
0.2800,7.879306934
0.2850,7.882665479
0.2900,7.885736482
0.2950,7.888639914
0.3000,7.891366812
0.3050,7.894013662
0.3100,7.896507326
0.3150,7.898973343
0.3200,7.901341683
0.3250,7.903552985
0.3300,7.905735521
0.3350,7.90781775
0.3400,7.909765342
0.3450,7.911496636
0.3500,7.913160289
0.3550,7.914530714
0.3600,7.91557959
0.3650,7.916084899
0.3700,7.916220416
0.3750,7.915861664
0.3800,7.914910046
0.3850,7.913297882
0.3900,7.911200747
0.3950,7.908442488
0.4000,7.905178773
0.4050,7.901190801
0.4100,7.896458443
0.4150,7.891163677
0.4200,7.885202718
0.4250,7.878599113
0.4300,7.871381409
0.4350,7.863644897
0.4400,7.855323311
0.4450,7.846373068
0.4500,7.836888867
0.4550,7.826808591
0.4600,7.816005152
0.4650,7.804585398
0.4700,7.792463291
0.4750,7.779819081
0.4800,7.766413883
0.4850,7.75239322
0.4900,7.737709265
0.4950,7.722448405
0.5000,7.706515574
0.5050,7.690162049
0.5100,7.673157101
0.5150,7.655613341
0.5200,7.637594549
0.5250,7.619275396
0.5300,7.60097053
0.5350,7.582595715
0.5400,7.564073434
0.5450,7.545705366
0.5500,7.52772442
0.5550,7.510035377
0.5600,7.492661744
0.5650,7.475722048
0.5700,7.45909777
0.5750,7.442916155
0.5800,7.427264478
0.5850,7.411888784
0.5900,7.397135965
0.5950,7.383009819
0.6000,7.369372284
0.6050,7.356033536
0.6100,7.34318023
0.6150,7.330594861
0.6200,7.31822932
0.6250,7.306182194
0.6300,7.29423427
0.6350,7.2824408
0.6400,7.270776036
0.6450,7.259053736
0.6500,7.247273961
0.6550,7.23557852
0.6600,7.223775781
0.6650,7.212073303
0.6700,7.20031961
0.6750,7.188572705
0.6800,7.176923546
0.6850,7.165432649
0.6900,7.153854184
0.6950,7.142421053
0.7000,7.130843782
0.7050,7.119385283
0.7100,7.107878435
0.7150,7.096269042
0.7200,7.084553719
0.7250,7.072766491
0.7300,7.060817047
0.7350,7.048859959
0.7400,7.036866701
0.7450,7.024801864
0.7500,7.012718646
0.7550,7.000785295
0.7600,6.989036651
0.7650,6.97734254
0.7700,6.965654035
0.7750,6.954170032
0.7800,6.942940686
0.7850,6.931958678
0.7900,6.921365574
0.7950,6.91095938
0.8000,6.900978682
0.8050,6.891428895
0.8100,6.882403683
0.8150,6.87386071
0.8200,6.865818151
0.8250,6.858208322
0.8300,6.850839377
0.8350,6.843820741
0.8400,6.83721385
0.8450,6.830958014
0.8500,6.824731032
0.8550,6.818742688
0.8600,6.812859727
0.8650,6.807155049
0.8700,6.801552685
0.8750,6.796153828
0.8800,6.790817706
0.8850,6.785597098
0.8900,6.780522654
0.8950,6.775420488
0.9000,6.770409468
0.9050,6.765576881
0.9100,6.760965601
0.9150,6.75658203
0.9200,6.752555317
0.9250,6.748771981
0.9300,6.745434495
0.9350,6.742511019
0.9400,6.740075019
0.9450,6.738211581
0.9500,6.73689213
0.9550,6.736020401
0.9600,6.735932654
0.9650,6.736560891
0.9700,6.737792169
0.9750,6.739718254
0.9800,6.742381775
0.9850,6.745863006
0.9900,6.750213933
0.9950,6.755316564
1.0000,6.761264965
1.0050,6.767991709
1.0100,6.775705439
1.0150,6.784162521
1.0200,6.793426304
1.0250,6.803375675
1.0300,6.813961619
1.0350,6.824925265
1.0400,6.836147778
1.0450,6.847679738
1.0500,6.859256327
1.0550,6.870696515
1.0600,6.881985178
1.0650,6.892990528
1.0700,6.903711332
1.0750,6.913990901
1.0800,6.923684499
1.0850,6.932645504
1.0900,6.940842548
1.0950,6.948340583
1.1000,6.954837415
1.1050,6.960323224
1.1100,6.964815803
1.1150,6.968260834
1.1200,6.970510547
1.1250,6.971629311
1.1300,6.971633566
1.1350,6.970436808
1.1400,6.967906908
1.1450,6.96404167
1.1500,6.958988664
1.1550,6.952579396
1.1600,6.94511204
1.1650,6.936259609
1.1700,6.926444071
1.1750,6.915331495
1.1800,6.903276709
1.1850,6.890360861
1.1900,6.876671878
1.1950,6.862407582
1.2000,6.847689792
1.2050,6.832632462
1.2100,6.817341888
1.2150,6.802034665
1.2200,6.786734674
1.2250,6.771537277
1.2300,6.756482871
1.2350,6.741446642
1.2400,6.726858497
1.2450,6.712604442
1.2500,6.698822895
1.2550,6.685492067
1.2600,6.672557368
1.2650,6.660029092
1.2700,6.648138926
1.2750,6.636890313
1.2800,6.626210528
1.2850,6.61597732
1.2900,6.606412691
1.2950,6.597505366
1.3000,6.589388105
1.3050,6.582030174
1.3100,6.575510634
1.3150,6.569910929
1.3200,6.565333612
1.3250,6.561804775
1.3300,6.559304235
1.3350,6.558051542
1.3400,6.558070041
1.3450,6.559304575
1.3500,6.561867667
1.3550,6.56577797
1.3600,6.571049076
1.3650,6.577562956
1.3700,6.585466931
1.3750,6.594539364
1.3800,6.604885729
1.3850,6.616579663
1.3900,6.629349385
1.3950,6.64335596
1.4000,6.658497327
1.4050,6.674546127
1.4100,6.691429767
1.4150,6.708956494
1.4200,6.727113336
1.4250,6.745886221
1.4300,6.765129377
1.4350,6.784658696
1.4400,6.804569087
1.4450,6.824953179
1.4500,6.845552158
1.4550,6.86647892
1.4600,6.887438906
1.4650,6.908758623
1.4700,6.930201176
1.4750,6.951989702
1.4800,6.974086856
1.4850,6.996586096
1.4900,7.01939354
1.4950,7.042570058
1.5000,7.066187834
1.5050,7.090297233
1.5100,7.11481768
1.5150,7.140025086
1.5200,7.165794966
1.5250,7.19231126
1.5300,7.219663938
1.5350,7.247969287
1.5400,7.277054687
1.5450,7.307110579
1.5500,7.338052575
1.5550,7.370089613
1.5600,7.40324773
1.5650,7.437674236
1.5700,7.473350734
1.5750,7.51042269
1.5800,7.548947475
1.5850,7.589020267
1.5900,7.630615954
1.5950,7.673566899
1.6000,7.717885851
1.6050,7.763595602
1.6100,7.810415948
1.6150,7.858323602
1.6200,7.907145849
1.6250,7.956921957
1.6300,8.007528991
1.6350,8.058701805
1.6400,8.110624207
1.6450,8.163139547
1.6500,8.216324337
1.6550,8.270025228
1.6600,8.324191515
1.6650,8.379013288
1.6700,8.434470414
1.6750,8.490596701
1.6800,8.547552737
1.6850,8.605098558
1.6900,8.66343667
1.6950,8.72247084
1.7000,8.782288638
1.7050,8.842942403
1.7100,8.904653652
1.7150,8.967307063
1.7200,9.030900698
1.7250,9.095312407
1.7300,9.160447526
1.7350,9.226298999
1.7400,9.292831722
1.7450,9.359589038
1.7500,9.426460962
1.7550,9.493311373
1.7600,9.559943542
1.7650,9.626193366
1.7700,9.692014175
1.7750,9.757342335
1.7800,9.822192734
1.7850,9.886435867
1.7900,9.950118857
1.7950,10.01323011
1.8000,10.07574828
1.8050,10.13783102
1.8100,10.19964514
1.8150,10.26100401
1.8200,10.32213257
1.8250,10.38294393
1.8300,10.44343234
1.8350,10.50385529
1.8400,10.56410829
1.8450,10.62417035
1.8500,10.68443169
1.8550,10.744659
1.8600,10.80497754
1.8650,10.86519393
1.8700,10.92532704
1.8750,10.98514228
1.8800,11.04463019
1.8850,11.10373024
1.8900,11.16233052
1.8950,11.22065552
1.9000,11.2786405
1.9050,11.33629045
1.9100,11.39358186
1.9150,11.45072848
1.9200,11.50761328
1.9250,11.56423165
1.9300,11.6207809
1.9350,11.6770855
1.9400,11.73323973
1.9450,11.78928734
1.9500,11.84506595
1.9550,11.90072566
1.9600,11.95620593
1.9650,12.01155268
1.9700,12.06672965
1.9750,12.12180349
1.9800,12.17656711
1.9850,12.23122533
1.9900,12.28578932
1.9950,12.34000598
2.0000,12.39397691
2.0050,12.44762357
2.0100,12.50088135
2.0150,12.553797
2.0200,12.60632256
2.0250,12.65858023
2.0300,12.7105832
2.0350,12.76241701
2.0400,12.81394409
2.0450,12.86546537
2.0500,12.91693661
2.0550,12.96841066
2.0600,13.02009853
2.0650,13.07194842
2.0700,13.12413395
2.0750,13.17662566
2.0800,13.22929897
2.0850,13.28237578
2.0900,13.33595611
2.0950,13.3900474
2.1000,13.4446227
2.1050,13.49972765
2.1100,13.55505174
2.1150,13.61089077
2.1200,13.6671745
2.1250,13.72393615
2.1300,13.78112611
2.1350,13.83880291
2.1400,13.89722085
2.1450,13.95657305
2.1500,14.0165601
2.1550,14.07740686
2.1600,14.13896499
2.1650,14.20151684
2.1700,14.26493447
2.1750,14.32925557
2.1800,14.39448186
2.1850,14.46067032
2.1900,14.52776297
2.1950,14.59592191
2.2000,14.66499028
2.2050,14.73508232
2.2100,14.80624103
2.2150,14.87832269
2.2200,14.95164427
2.2250,15.02603954
2.2300,15.10129409
2.2350,15.17754042
2.2400,15.25445926
2.2450,15.33210074
2.2500,15.41054648
2.2550,15.48967832
2.2600,15.56954317
2.2650,15.65012518
2.2700,15.73145609
2.2750,15.81358367
2.2800,15.89654018
2.2850,15.9804225
2.2900,16.06508258
2.2950,16.15064366
2.3000,16.23704431
2.3050,16.32409304
2.3100,16.41173433
2.3150,16.49986031
2.3200,16.58828065
2.3250,16.67682743
2.3300,16.76545282
2.3350,16.85408837
2.3400,16.94261203
2.3450,17.03074009
2.3500,17.11854242
2.3550,17.20575721
2.3600,17.29247173
2.3650,17.37862208
2.3700,17.46395772
2.3750,17.54845002
2.3800,17.63216693
2.3850,17.71505646
2.3900,17.79715293
2.3950,17.87846262
2.4000,17.95914974
2.4050,18.03904609
2.4100,18.11836456
2.4150,18.19688051
2.4200,18.27455446
2.4250,18.35142588
2.4300,18.42728948
2.4350,18.50200483
2.4400,18.57544573
2.4450,18.64757661
2.4500,18.71842133
2.4550,18.78784518
2.4600,18.8557744
2.4650,18.92210778
2.4700,18.98703299
2.4750,19.0507386
2.4800,19.11344449
2.4850,19.17512635
2.4900,19.2358737
2.4950,19.29551496
2.5000,19.35421176
2.5050,19.41216417
2.5100,19.46960741
2.5150,19.52648443
2.5200,19.58282471
2.5250,19.63861241
2.5300,19.69398978
2.5350,19.74909495
2.5400,19.80397579
2.5450,19.85866264
2.5500,19.91313716
2.5550,19.96747696
2.5600,20.02144358
2.5650,20.07509171
2.5700,20.12826704
2.5750,20.18093144
2.5800,20.23323954
2.5850,20.28494007
2.5900,20.3362445
2.5950,20.38710378
2.6000,20.43743221
2.6050,20.48747569
2.6100,20.53719403
2.6150,20.58687067
2.6200,20.63652068
2.6250,20.68626817
2.6300,20.73596955
2.6350,20.7858087
2.6400,20.83569139
2.6450,20.88560299
2.6500,20.93536405
2.6550,20.98517174
2.6600,21.03473562
2.6650,21.0840945
2.6700,21.1332042
2.6750,21.18208636
2.6800,21.23054923
2.6850,21.27857229
2.6900,21.32598612
2.6950,21.37282539
2.7000,21.41924924
2.7050,21.46532527
2.7100,21.51093824
2.7150,21.55606642
2.7200,21.60069809
2.7250,21.64480832
2.7300,21.68872035
2.7350,21.73245375
2.7400,21.77593583
2.7450,21.81904503
2.7500,21.86173381
2.7550,21.90407347
2.7600,21.94629752
2.7650,21.98833218
2.7700,22.03024928
2.7750,22.07203075
2.7800,22.11341483
2.7850,22.1543738
2.7900,22.19505502
2.7950,22.2354832
2.8000,22.27582447
2.8050,22.31579318
2.8100,22.3552476
2.8150,22.39430722
2.8200,22.43285867
2.8250,22.47103529
2.8300,22.5087422
2.8350,22.54607748
2.8400,22.58285093
2.8450,22.61899819
2.8500,22.65443126
2.8550,22.68912291
2.8600,22.72302649
2.8650,22.75607991
2.8700,22.78830455
2.8750,22.81961668
2.8800,22.84999702
2.8850,22.87970304
2.8900,22.90874995
2.8950,22.93728228
2.9000,22.96536959
2.9050,22.99309753
2.9100,23.02064244
2.9150,23.04807251
2.9200,23.07534183
2.9250,23.10221641
2.9300,23.12860855
2.9350,23.15425908
2.9400,23.17908958
2.9450,23.2030239
2.9500,23.22617052
2.9550,23.24829539
2.9600,23.2697426
2.9650,23.29026613
2.9700,23.30975295
2.9750,23.32815958
2.9800,23.34554885
2.9850,23.36202695
2.9900,23.37762643
2.9950,23.39242055
3.0000,23.40622097
3.0050,23.41902142
3.0100,23.43101545
3.0150,23.44247224
3.0200,23.45347014
3.0250,23.46432269
3.0300,23.47477769
3.0350,23.48466477
3.0400,23.49375435
3.0450,23.501883
3.0500,23.50892568
3.0550,23.51480436
3.0600,23.51911837
3.0650,23.52171637
3.0700,23.52233523
3.0750,23.52089322
3.0800,23.51723272
3.0850,23.51150021
3.0900,23.50344484
3.0950,23.49338703
3.1000,23.48120751
3.1050,23.46714624
3.1100,23.45164356
3.1150,23.43501364
3.1200,23.41758435
3.1250,23.39964919
3.1300,23.38168756
3.1350,23.36405492
3.1400,23.34716257
3.1450,23.33138116
3.1500,23.31680786
3.1550,23.30375571
3.1600,23.29257249
3.1650,23.28345355
3.1700,23.27634601
3.1750,23.27124627
3.1800,23.26807553
3.1850,23.26664254
3.1900,23.26680829
3.1950,23.26849339
3.2000,23.27149131
3.2050,23.27564502
3.2100,23.28086114
3.2150,23.28666957
3.2200,23.29334476
3.2250,23.30068541
3.2300,23.30900357
3.2350,23.31816023
3.2400,23.32837638
3.2450,23.33945468
3.2500,23.35143668
3.2550,23.36437711
3.2600,23.37779865
3.2650,23.39193755
3.2700,23.40678042
3.2750,23.42225817
3.2800,23.4383975
3.2850,23.45502069
3.2900,23.47224748
3.2950,23.49006986
3.3000,23.50856396
3.3050,23.52777929
3.3100,23.54791717
3.3150,23.56876897
3.3200,23.59045776
3.3250,23.61279366
3.3300,23.63592834
3.3350,23.65998732
3.3400,23.68516812
3.3450,23.71158608
3.3500,23.73930613
3.3550,23.76827492
3.3600,23.79847939
3.3650,23.82989232
3.3700,23.86243013
3.3750,23.89593004
3.3800,23.93041749
3.3850,23.96571093
3.3900,24.00177673
3.3950,24.03837411
3.4000,24.07541385
3.4050,24.11299026
3.4100,24.15094
3.4150,24.18908719
3.4200,24.22727382
3.4250,24.26559647
3.4300,24.30398182
3.4350,24.34231069
3.4400,24.38055309
3.4450,24.41863133
3.4500,24.45674789
3.4550,24.49457378
3.4600,24.53211241
3.4650,24.56899266
3.4700,24.60523262
3.4750,24.64079352
3.4800,24.67573466
3.4850,24.70988427
3.4900,24.74294573
3.4950,24.77465563
3.5000,24.80506683
3.5050,24.83403681
3.5100,24.86107634
3.5150,24.88623623
3.5200,24.90912772
3.5250,24.92972241
3.5300,24.94759895
3.5350,24.96272193
3.5400,24.97489739
3.5450,24.98432876
3.5500,24.99100001
3.5550,24.99499107
3.5600,24.99624782
3.5650,24.99493123
3.5700,24.99095311
3.5750,24.98452581
3.5800,24.9758411
3.5850,24.96498857
3.5900,24.95200054
3.5950,24.93683479
3.6000,24.91957688
3.6050,24.90023446
3.6100,24.87885657
3.6150,24.85561666
3.6200,24.83053937
3.6250,24.80395463
3.6300,24.77593719
3.6350,24.74664774
3.6400,24.71621314
3.6450,24.68484655
3.6500,24.65247398
3.6550,24.6193582
3.6600,24.5856952
3.6650,24.55163158
3.6700,24.51750064
3.6750,24.48325953
3.6800,24.44910182
3.6850,24.41508091
3.6900,24.38145888
3.6950,24.34819753
3.7000,24.31556694
3.7050,24.28377042
3.7100,24.25274199
3.7150,24.22256036
3.7200,24.19337549
3.7250,24.16542794
3.7300,24.13863122
3.7350,24.11300942
3.7400,24.08856616
3.7450,24.06537097
3.7500,24.04315646
3.7550,24.0221177
3.7600,24.00215522
3.7650,23.9833277
3.7700,23.9657841
3.7750,23.94944751
3.7800,23.93399143
3.7850,23.91948277
3.7900,23.90605055
3.7950,23.89382966
3.8000,23.88262411
3.8050,23.87222878
3.8100,23.86283886
3.8150,23.85430612
3.8200,23.84659787
3.8250,23.83963406
3.8300,23.83332265
3.8350,23.827678
3.8400,23.82257796
3.8450,23.81792186
3.8500,23.81366682
3.8550,23.8096423
3.8600,23.80580672
3.8650,23.80192921
3.8700,23.79812005
3.8750,23.79436464
3.8800,23.79030595
3.8850,23.7860528
3.8900,23.78141686
3.8950,23.77657647
3.9000,23.77148756
3.9050,23.76619215
3.9100,23.76053127
3.9150,23.75465942
3.9200,23.74859852
3.9250,23.74216599
3.9300,23.73539169
3.9350,23.72821218
3.9400,23.72072629
3.9450,23.71287664
3.9500,23.70483543
3.9550,23.69624304
3.9600,23.68724053
3.9650,23.67778112
3.9700,23.66765139
3.9750,23.65705258
3.9800,23.64595403
3.9850,23.63457434
3.9900,23.62291576
3.9950,23.61120619
4.0000,23.59936048
4.0050,23.58711482
4.0100,23.57466136
4.0150,23.5619227
4.0200,23.54906863
4.0250,23.5357396
4.0300,23.52223474
4.0350,23.50852156
4.0400,23.49455499
4.0450,23.48042167
4.0500,23.46611896
4.0550,23.45179686
4.0600,23.43734149
4.0650,23.42289867
4.0700,23.40842317
4.0750,23.39400317
4.0800,23.37989306
4.0850,23.36596676
4.0900,23.35224756
4.0950,23.33865795
4.1000,23.32532846
4.1050,23.3122966
4.1100,23.29957816
4.1150,23.28728848
4.1200,23.27532499
4.1250,23.263805
4.1300,23.25281305
4.1350,23.24216034
4.1400,23.23205
4.1450,23.22230704
4.1500,23.21288818
4.1550,23.20378057
4.1600,23.195155
4.1650,23.18675044
4.1700,23.17869138
4.1750,23.17082935
4.1800,23.16313723
4.1850,23.1553741
4.1900,23.14759526
4.1950,23.13957031
4.2000,23.13119466
4.2050,23.12251343
4.2100,23.11360661
4.2150,23.10422117
4.2200,23.09430151
4.2250,23.08383864
4.2300,23.07283791
4.2350,23.06121451
4.2400,23.04882825
4.2450,23.03572017
4.2500,23.02182042
4.2550,23.00742888
4.2600,22.99247977
4.2650,22.97700872
4.2700,22.96109749
4.2750,22.94469067
4.2800,22.92763928
4.2850,22.90990255
4.2900,22.89136721
4.2950,22.87205228
4.3000,22.85200035
4.3050,22.83134462
4.3100,22.80989725
4.3150,22.78790791
4.3200,22.76515954
4.3250,22.7420478
4.3300,22.71869828
4.3350,22.69494873
4.3400,22.67109928
4.3450,22.64705685
4.3500,22.62302466
4.3550,22.59891596
4.3600,22.57480611
4.3650,22.55055559
4.3700,22.52611232
4.3750,22.50162862
4.3800,22.47699226
4.3850,22.45244868
4.3900,22.42803381
4.3950,22.4037128
4.4000,22.37940669
4.4050,22.3549724
4.4100,22.33016782
4.4150,22.30512476
4.4200,22.2797939
4.4250,22.2540851
4.4300,22.22816862
4.4350,22.2020528
4.4400,22.1755821
4.4450,22.14889799
4.4500,22.12204326
4.4550,22.09513022
4.4600,22.06788291
4.4650,22.04042211
4.4700,22.01257716
4.4750,21.984272
4.4800,21.95565768
4.4850,21.92671604
4.4900,21.89749249
4.4950,21.86791008
4.5000,21.83794398
4.5050,21.80764234
4.5100,21.7770903
4.5150,21.74624057
4.5200,21.71531361
4.5250,21.68403719
4.5300,21.65225729
4.5350,21.61999425
4.5400,21.58721784
4.5450,21.55366293
4.5500,21.51940569
4.5550,21.48456345
4.5600,21.4491211
4.5650,21.41311366
4.5700,21.37662219
4.5750,21.33972042
4.5800,21.30255849
4.5850,21.26523335
4.5900,21.22796657
4.5950,21.19077834
4.6000,21.15374279
4.6050,21.11665609
4.6100,21.07972179
4.6150,21.04289275
4.6200,21.00626583
4.6250,20.96949641
4.6300,20.9323714
4.6350,20.89494774
4.6400,20.85704139
4.6450,20.81878018
4.6500,20.78006391
4.6550,20.74100789
4.6600,20.70149792
4.6650,20.66178424
4.6700,20.62195482
4.6750,20.58181053
4.6800,20.54140614
4.6850,20.50050032
4.6900,20.45920975
4.6950,20.41766987
4.7000,20.37590778
4.7050,20.33421858
4.7100,20.29263859
4.7150,20.2509733
4.7200,20.20933964
4.7250,20.16766775
4.7300,20.12598983
4.7350,20.08432011
4.7400,20.042689
4.7450,20.00086856
4.7500,19.95888031
4.7550,19.91639015
4.7600,19.8738167
4.7650,19.8311587
4.7700,19.78840383
4.7750,19.74551664
4.7800,19.70241375
4.7850,19.65918085
4.7900,19.61573581
4.7950,19.57233509
4.8000,19.52897231
4.8050,19.48566135
4.8100,19.44203998
4.8150,19.39811214
4.8200,19.35364086
4.8250,19.30902467
4.8300,19.26424015
4.8350,19.21934962
4.8400,19.17434236
4.8450,19.12933323
4.8500,19.08421647
4.8550,19.03890358
4.8600,18.9934747
4.8650,18.94810126
4.8700,18.90252214
4.8750,18.85684645
4.8800,18.81096922
4.8850,18.7648387
4.8900,18.71825121
4.8950,18.67113942
4.9000,18.62336877
4.9050,18.57498278
4.9100,18.52594672
4.9150,18.47614938
4.9200,18.42565965
4.9250,18.37452579
4.9300,18.32285193
4.9350,18.27075492
4.9400,18.21831056
4.9450,18.16548511
4.9500,18.11222792
4.9550,18.05859486
4.9600,18.00492648
4.9650,17.95118091
4.9700,17.89742817
4.9750,17.84379762
4.9800,17.79043307
4.9850,17.73774451
4.9900,17.68562504
4.9950,17.63401031
5.0000,17.58293819
5.0050,17.53244186
5.0100,17.48266737
5.0150,17.43387407
5.0200,17.38605824
5.0250,17.33931542
5.0300,17.29360862
5.0350,17.24899029
5.0400,17.20541416
5.0450,17.1629787
5.0500,17.12166669
5.0550,17.08170652
5.0600,17.04275085
5.0650,17.00484993
5.0700,16.96807008
5.0750,16.93263732
5.0800,16.89865956
5.0850,16.86623605
5.0900,16.83553343
5.0950,16.80647603
5.1000,16.7789604
5.1050,16.75257855
5.1100,16.72748322
5.1150,16.70338023
5.1200,16.68005323
5.1250,16.65707748
5.1300,16.6343045
5.1350,16.61171919
5.1400,16.58925877
5.1450,16.56714152
5.1500,16.5455442
5.1550,16.52422289
5.1600,16.50313325
5.1650,16.48224727
5.1700,16.46163076
5.1750,16.4412697
5.1800,16.42139331
5.1850,16.40197078
5.1900,16.3833055
5.1950,16.36539389
5.2000,16.34817615
5.2050,16.33177743
5.2100,16.31608999
5.2150,16.30096129
5.2200,16.28634821
5.2250,16.27214783
5.2300,16.2580412
5.2350,16.24417639
5.2400,16.23037983
5.2450,16.21645212
5.2500,16.20244435
5.2550,16.18811295
5.2600,16.17311036
5.2650,16.15731475
5.2700,16.14054393
5.2750,16.122627
5.2800,16.10345324
5.2850,16.08274597
5.2900,16.0603132
5.2950,16.03623134
5.3000,16.01056478
5.3050,15.98345627
5.3100,15.95488505
5.3150,15.92491009
5.3200,15.8935678
5.3250,15.86124093
5.3300,15.82810024
5.3350,15.79438063
5.3400,15.75995121
5.3450,15.72522718
5.3500,15.68998663
5.3550,15.65417746
5.3600,15.61811473
5.3650,15.58174661
5.3700,15.54529889
5.3750,15.50877622
5.3800,15.47230667
5.3850,15.43573833
5.3900,15.3991855
5.3950,15.36270682
5.4000,15.32644514
5.4050,15.29060118
5.4100,15.2553495
5.4150,15.22057519
5.4200,15.18651107
5.4250,15.15321985
5.4300,15.12095866
5.4350,15.08951127
5.4400,15.05895065
5.4450,15.02895516
5.4500,14.99943422
5.4550,14.97041464
5.4600,14.94163285
5.4650,14.91317763
5.4700,14.88478917
5.4750,14.85640808
5.4800,14.82773105
5.4850,14.79870127
5.4900,14.76909521
5.4950,14.73902389
5.5000,14.70869996
5.5050,14.67816728
5.5100,14.64750534
5.5150,14.61701765
5.5200,14.58664396
5.5250,14.55637425
5.5300,14.52628709
5.5350,14.49581232
5.5400,14.46507906
5.5450,14.43379701
5.5500,14.40169639
5.5550,14.3684439
5.5600,14.33386952
5.5650,14.29790656
5.5700,14.26049504
5.5750,14.22148525
5.5800,14.18091497
5.5850,14.13881992
5.5900,14.09556755
5.5950,14.05129444
5.6000,14.00610537
5.6050,13.96021668
5.6100,13.91366662
5.6150,13.86664755
5.6200,13.81960281
5.6250,13.77242849
5.6300,13.72548195
5.6350,13.67890968
5.6400,13.63336559
5.6450,13.58905627
5.6500,13.54655
5.6550,13.50623594
5.6600,13.46838587
5.6650,13.4333482
5.6700,13.40102165
5.6750,13.37147183
5.6800,13.34433897
5.6850,13.31968309
5.6900,13.29698329
5.6950,13.27592539
5.7000,13.25613897
5.7050,13.2375572
5.7100,13.21971563
5.7150,13.20264146
5.7200,13.18628682
5.7250,13.17052293
5.7300,13.15515778
5.7350,13.14024856
5.7400,13.12582554
5.7450,13.11180648
5.7500,13.09812444
5.7550,13.08507496
5.7600,13.07289101
5.7650,13.06152952
5.7700,13.05132643
5.7750,13.04229801
5.7800,13.03455405
5.7850,13.02832146
5.7900,13.02350918
5.7950,13.02009927
5.8000,13.01790082
5.8050,13.01689514
5.8100,13.01690772
5.8150,13.01772835
5.8200,13.01916229
5.8250,13.02127965
5.8300,13.02385476
5.8350,13.02702682
5.8400,13.03045595
5.8450,13.03423258
5.8500,13.03836565
5.8550,13.04295792
5.8600,13.04808425
5.8650,13.05367588
5.8700,13.05970676
5.8750,13.06638194
5.8800,13.07360854
5.8850,13.0813426
5.8900,13.08955164
5.8950,13.09838835
5.9000,13.1079338
5.9050,13.11800555
5.9100,13.12893939
5.9150,13.1406384
5.9200,13.15342677
5.9250,13.16746033
5.9300,13.18262884
5.9350,13.199063
5.9400,13.21675592
5.9450,13.23562172
5.9500,13.25544164
5.9550,13.27615225
5.9600,13.29743286
5.9650,13.31923745
5.9700,13.34176539
5.9750,13.364885
5.9800,13.38867793
5.9850,13.41324285
5.9900,13.4386536
5.9950,13.46512117
6.0000,13.49256013
6.0050,13.5207476
6.0100,13.54964641
6.0150,13.57928896
6.0200,13.60924805
6.0250,13.63952111
6.0300,13.66991059
6.0350,13.70038199
6.0400,13.73063677
6.0450,13.7609008
6.0500,13.79094877
6.0550,13.82069539
6.0600,13.85001055
6.0650,13.87885473
6.0700,13.90727643
6.0750,13.93551497
6.0800,13.96361441
6.0850,13.99145022
6.0900,14.01912947
6.0950,14.04667671
6.1000,14.07440665
6.1050,14.10223308
6.1100,14.13028816
6.1150,14.15882469
6.1200,14.18805112
6.1250,14.21796342
6.1300,14.24864825
6.1350,14.28029018
6.1400,14.31286006
6.1450,14.34649962
6.1500,14.38109434
6.1550,14.41661539
6.1600,14.4531436
6.1650,14.49049266
6.1700,14.52875351
6.1750,14.56788379
6.1800,14.60778213
6.1850,14.64855921
6.1900,14.68996435
6.1950,14.73197646
6.2000,14.77441514
6.2050,14.81729217
6.2100,14.86056099
6.2150,14.90412566
6.2200,14.94774909
6.2250,14.99140638
6.2300,15.03499548
6.2350,15.07845138
6.2400,15.12171632
6.2450,15.16460932
6.2500,15.20748082
6.2550,15.2501625
6.2600,15.29279131
6.2650,15.33531826
6.2700,15.37745299
6.2750,15.41912963
6.2800,15.46039217
6.2850,15.50098361
6.2900,15.54083664
6.2950,15.57975598
6.3000,15.61784288
6.3050,15.65515509
6.3100,15.69153907
6.3150,15.72697021
6.3200,15.76149726
6.3250,15.79493326
6.3300,15.82736508
6.3350,15.85870929
6.3400,15.88901606
6.3450,15.91795355
6.3500,15.94579717
6.3550,15.97246105
6.3600,15.99802154
6.3650,16.02229991
6.3700,16.04527574
6.3750,16.06675016
6.3800,16.08666901
6.3850,16.10485353
6.3900,16.1212922
6.3950,16.13570995
6.4000,16.14803674
6.4050,16.15833822
6.4100,16.16654987
6.4150,16.1725843
6.4200,16.17631755
6.4250,16.17773326
6.4300,16.17721341
6.4350,16.17468919
6.4400,16.17055869
6.4450,16.16465947
6.4500,16.1574369
6.4550,16.14880718
6.4600,16.13867994
6.4650,16.12738382
6.4700,16.114909
6.4750,16.1012585
6.4800,16.0866044
6.4850,16.07099346
6.4900,16.05468654
6.4950,16.03739274
6.5000,16.0194055
6.5050,16.00077247
6.5100,15.98144003
6.5150,15.96150967
6.5200,15.94086884
6.5250,15.91944523
6.5300,15.89727085
6.5350,15.87418779
6.5400,15.85004549
6.5450,15.82512076
6.5500,15.79904023
6.5550,15.77193331
6.5600,15.74376265
6.5650,15.71452574
6.5700,15.68441405
6.5750,15.65360057
6.5800,15.62203125
6.5850,15.58982214
6.5900,15.55701107
6.5950,15.5236317
6.6000,15.48967868
6.6050,15.45505657
6.6100,15.41999935
6.6150,15.38444572
6.6200,15.34858928
6.6250,15.31256607
6.6300,15.27628212
6.6350,15.23990699
6.6400,15.20327275
6.6450,15.16661012
6.6500,15.1297889
6.6550,15.09278782
6.6600,15.05575399
6.6650,15.01861394
6.6700,14.98140417
6.6750,14.94399671
6.6800,14.90645087
6.6850,14.86900177
6.6900,14.83157237
6.6950,14.79440869
6.7000,14.75734252
6.7050,14.72045666
6.7100,14.6838857
6.7150,14.64762299
6.7200,14.61170983
6.7250,14.57622353
6.7300,14.54102635
6.7350,14.50610517
6.7400,14.47127411
6.7450,14.43650674
6.7500,14.40172791
6.7550,14.36711251
6.7600,14.33280457
6.7650,14.29867463
6.7700,14.26477321
6.7750,14.23126004
6.7800,14.19814598
6.7850,14.16530307
6.7900,14.13265663
6.7950,14.10036814
6.8000,14.06839942
6.8050,14.03674961
6.8100,14.00532813
6.8150,13.974134
6.8200,13.9431142
6.8250,13.91230448
6.8300,13.88150779
6.8350,13.85090233
6.8400,13.82043837
6.8450,13.78997042
6.8500,13.75956088
6.8550,13.72933867
6.8600,13.6991689
6.8650,13.66924192
6.8700,13.63939055
6.8750,13.60950481
6.8800,13.57972628
6.8850,13.55005401
6.8900,13.52052124
6.8950,13.49095216
6.9000,13.46135231
6.9050,13.43180177
6.9100,13.40205079
6.9150,13.37212914
6.9200,13.34187618
6.9250,13.31129146
6.9300,13.28034962
6.9350,13.24893532
6.9400,13.21717536
6.9450,13.18487603
6.9500,13.15215803
6.9550,13.11897453
6.9600,13.08519214
6.9650,13.05081517
6.9700,13.0158487
6.9750,12.98017356
6.9800,12.94377252
6.9850,12.90638397
6.9900,12.86807015
6.9950,12.82863834
7.0000,12.78812978
7.0050,12.7464112
7.0100,12.70343168
7.0150,12.65921754
7.0200,12.61381884
7.0250,12.56714162
7.0300,12.51919006
7.0350,12.47009038
7.0400,12.41991019
7.0450,12.3687811
7.0500,12.31662518
7.0550,12.26353796
7.0600,12.20948846
7.0650,12.15468615
7.0700,12.09913554
7.0750,12.04295077
7.0800,11.98610488
7.0850,11.92881362
7.0900,11.87106315
7.0950,11.81302142
7.1000,11.75456885
7.1050,11.69572157
7.1100,11.63668266
7.1150,11.5774426
7.1200,11.51820084
7.1250,11.45901086
7.1300,11.39994703
7.1350,11.34108068
7.1400,11.28269488
7.1450,11.22478159
7.1500,11.16757091
7.1550,11.11097972
7.1600,11.05534188
7.1650,11.00056924
7.1700,10.94678359
7.1750,10.89397047
7.1800,10.84223855
7.1850,10.79152388
7.1900,10.74174035
7.1950,10.69300556
7.2000,10.64522531
7.2050,10.59830488
7.2100,10.55241307
7.2150,10.50739335
7.2200,10.46336022
7.2250,10.42000199
7.2300,10.37748558
7.2350,10.3357028
7.2400,10.2945161
7.2450,10.25394446
7.2500,10.2139444
7.2550,10.17443814
7.2600,10.13526168
7.2650,10.09646086
7.2700,10.05795138
7.2750,10.01974623
7.2800,9.981922499
7.2850,9.944408065
7.2900,9.907026704
7.2950,9.869920979
7.3000,9.832948111
7.3050,9.79609993
7.3100,9.759404319
7.3150,9.722752411
7.3200,9.686041108
7.3250,9.64936328
7.3300,9.612567204
7.3350,9.575798503
7.3400,9.538868101
7.3450,9.501936903
7.3500,9.465004723
7.3550,9.428138301
7.3600,9.391545358
7.3650,9.355275053
7.3700,9.31929139
7.3750,9.283845573
7.3800,9.248975804
7.3850,9.214883616
7.3900,9.181749189
7.3950,9.149676648
7.4000,9.118769735
7.4050,9.089153776
7.4100,9.060800955
7.4150,9.033827132
7.4200,9.008000969
7.4250,8.983311083
7.4300,8.959888031
7.4350,8.937605946
7.4400,8.916239101
7.4450,8.895854965
7.4500,8.87635163
7.4550,8.857809043
7.4600,8.840023347
7.4650,8.823003906
7.4700,8.806831146
7.4750,8.791489103
7.4800,8.776736444
7.4850,8.762671255
7.4900,8.749213172
7.4950,8.736485976
7.5000,8.72453163
7.5050,8.713277402
7.5100,8.702543999
7.5150,8.69263029
7.5200,8.683287579
7.5250,8.674677762
7.5300,8.666703143
7.5350,8.659384439
7.5400,8.652841562
7.5450,8.647178321
7.5500,8.642296485
7.5550,8.63838748
7.5600,8.635619007
7.5650,8.633966407
7.5700,8.633351755
7.5750,8.633940334
7.5800,8.635655438
7.5850,8.638500026
7.5900,8.642564371
7.5950,8.647796896
7.6000,8.654206829
7.6050,8.661565514
7.6100,8.670035914
7.6150,8.679496674
7.6200,8.689999001
7.6250,8.701703099
7.6300,8.714750575
7.6350,8.728869765
7.6400,8.744486136
7.6450,8.761590054
7.6500,8.780222822
7.6550,8.80065156
7.6600,8.822931049
7.6650,8.847250885
7.6700,8.873789857
7.6750,8.902592242
7.6800,8.933787465
7.6850,8.967224396
7.6900,9.003072323
7.6950,9.041164097
7.7000,9.081369957
7.7050,9.123692434
7.7100,9.168015091
7.7150,9.214191427
7.7200,9.262078304
7.7250,9.311545044
7.7300,9.362235516
7.7350,9.413963164
7.7400,9.466627617
7.7450,9.519969521
7.7500,9.573802754
7.7550,9.628001936
7.7600,9.682609191
7.7650,9.73737807
7.7700,9.792132364
7.7750,9.847033854
7.7800,9.902090461
7.7850,9.957254942
7.7900,10.01262846
7.7950,10.0681065
7.8000,10.1235959
7.8050,10.17936553
7.8100,10.23543055
7.8150,10.29174166
7.8200,10.34832639
7.8250,10.40535749
7.8300,10.46280286
7.8350,10.52048907
7.8400,10.57833976
7.8450,10.63644282
7.8500,10.69473897
7.8550,10.75292263
7.8600,10.81093495
7.8650,10.86890634
7.8700,10.92687067
7.8750,10.98467407
7.8800,11.04220733
7.8850,11.09964131
7.8900,11.15693571
7.8950,11.21404744
7.9000,11.27119327
7.9050,11.32859465
7.9100,11.38618615
7.9150,11.44407613
7.9200,11.50239314
7.9250,11.56108872
7.9300,11.62029907
7.9350,11.68014712
7.9400,11.74049594
7.9450,11.80139297
7.9500,11.8630278
7.9550,11.92508987
7.9600,11.98765726
7.9650,12.05056056
7.9700,12.11389467
7.9750,12.17762972
7.9800,12.24176965
7.9850,12.30635833
7.9900,12.37128901
7.9950,12.43650101
8.0000,12.50212945
8.0050,12.56805372
8.0100,12.6342688
8.0150,12.70057446
8.0200,12.76709421
8.0250,12.83382017
8.0300,12.90059514
8.0350,12.96763874
8.0400,13.03488942
8.0450,13.10241832
8.0500,13.17030816
8.0550,13.23849097
8.0600,13.30698929
8.0650,13.37574206
8.0700,13.44484992
8.0750,13.51396293
8.0800,13.58301323
8.0850,13.65197428
8.0900,13.72085502
8.0950,13.78959868
8.1000,13.85822038
8.1050,13.92663961
8.1100,13.99478723
8.1150,14.06278364
8.1200,14.13072688
8.1250,14.19833118
8.1300,14.26558821
8.1350,14.33277204
8.1400,14.39971191
8.1450,14.46639219
8.1500,14.53290397
8.1550,14.59947454
8.1600,14.6658879
8.1650,14.73211264
8.1700,14.79835367
8.1750,14.86468251
8.1800,14.93109263
8.1850,14.99742741
8.1900,15.06365943
8.1950,15.12978634
8.2000,15.19570207
8.2050,15.26121675
8.2100,15.32626233
8.2150,15.39081169
8.2200,15.45482399
8.2250,15.5180799
8.2300,15.5806013
8.2350,15.64250105
8.2400,15.70404116
8.2450,15.76529902
8.2500,15.82645578
8.2550,15.88762074
8.2600,15.94871614
8.2650,16.00989493
8.2700,16.07105254
8.2750,16.13225978
8.2800,16.1936338
8.2850,16.25540057
8.2900,16.31762772
8.2950,16.38028468
8.3000,16.44336377
8.3050,16.5068818
8.3100,16.57078309
8.3150,16.63497624
8.3200,16.69949503
8.3250,16.76432263
8.3300,16.82967744
8.3350,16.89542698
8.3400,16.96148386
8.3450,17.02797123
8.3500,17.09491363
8.3550,17.16241031
8.3600,17.23031514
8.3650,17.29897873
8.3700,17.36861292
8.3750,17.43945317
8.3800,17.51161576
8.3850,17.58513142
8.3900,17.65983254
8.3950,17.73591449
8.4000,17.81349811
8.4050,17.89234434
8.4100,17.97224118
8.4150,18.05280457
8.4200,18.1339246
8.4250,18.21552461
8.4300,18.29748495
8.4350,18.37946022
8.4400,18.46153507
8.4450,18.54368753
8.4500,18.62580295
8.4550,18.70768475
8.4600,18.78953202
8.4650,18.87132742
8.4700,18.95272108
8.4750,19.03355596
8.4800,19.11381794
8.4850,19.19346756
8.4900,19.27221858
8.4950,19.35008539
8.5000,19.42711135
8.5050,19.50340597
8.5100,19.5790925
8.5150,19.65424505
8.5200,19.72893434
8.5250,19.80335216
8.5300,19.87736676
8.5350,19.95090854
8.5400,20.02372534
8.5450,20.09571531
8.5500,20.16683263
8.5550,20.23702745
8.5600,20.30639257
8.5650,20.37502887
8.5700,20.44316481
8.5750,20.51052797
8.5800,20.5772627
8.5850,20.64301136
8.5900,20.70776624
8.5950,20.77147188
8.6000,20.83415405
8.6050,20.89579048
8.6100,20.95637128
8.6150,21.01601135
8.6200,21.07463326
8.6250,21.13205713
8.6300,21.18842325
8.6350,21.24375887
8.6400,21.29840226
8.6450,21.35222522
8.6500,21.40543325
8.6550,21.45796061
8.6600,21.51010087
8.6650,21.56167803
8.6700,21.61275598
8.6750,21.66356792
8.6800,21.71432676
8.6850,21.76499965
8.6900,21.81580462
8.6950,21.86658871
8.7000,21.91722346
8.7050,21.96790309
8.7100,22.01884742
8.7150,22.06999146
8.7200,22.12122786
8.7250,22.17257281
8.7300,22.22397512
8.7350,22.27551775
8.7400,22.32707259
8.7450,22.37833462
8.7500,22.42896168
8.7550,22.47886518
8.7600,22.52774286
8.7650,22.57533849
8.7700,22.62155905
8.7750,22.66663196
8.7800,22.71056689
8.7850,22.75372573
8.7900,22.7963434
8.7950,22.83841972
8.8000,22.87987576
8.8050,22.92078545
8.8100,22.96084502
8.8150,23.00021314
8.8200,23.03875437
8.8250,23.07646788
8.8300,23.11351314
8.8350,23.14999189
8.8400,23.18582596
8.8450,23.22090575
8.8500,23.25528725
8.8550,23.28893599
8.8600,23.32196591
8.8650,23.35424434
8.8700,23.38559995
8.8750,23.41614895
8.8800,23.445774
8.8850,23.47463936
8.8900,23.50279487
8.8950,23.53020471
8.9000,23.55699663
8.9050,23.58317678
8.9100,23.60894378
8.9150,23.63437601
8.9200,23.6593669
8.9250,23.68396542
8.9300,23.7082766
8.9350,23.73246907
8.9400,23.75642184
8.9450,23.78039735
8.9500,23.80425581
8.9550,23.82824298
8.9600,23.85233998
8.9650,23.87672886
8.9700,23.90110329
8.9750,23.92530833
8.9800,23.94920269
8.9850,23.972988
8.9900,23.99667415
8.9950,24.02014664
9.0000,24.04331354
9.0050,24.06613237
9.0100,24.08848495
9.0150,24.11032161
9.0200,24.1317041
9.0250,24.15258099
9.0300,24.17270808
9.0350,24.19173426
9.0400,24.2094164
9.0450,24.22554182
9.0500,24.2404564
9.0550,24.25379423
9.0600,24.26548721
9.0650,24.27558354
9.0700,24.28390108
9.0750,24.29015035
9.0800,24.29425973
9.0850,24.29586593
9.0900,24.29506595
9.0950,24.29203294
9.1000,24.28689897
9.1050,24.27961323
9.1100,24.2705329
9.1150,24.25973356
9.1200,24.24755978
9.1250,24.23428946
9.1300,24.21990092
9.1350,24.20490191
9.1400,24.1896407
9.1450,24.17434951
9.1500,24.15905725
9.1550,24.14400406
9.1600,24.1293768
9.1650,24.11525043
9.1700,24.10174438
9.1750,24.08887661
9.1800,24.07646711
9.1850,24.06446723
9.1900,24.05274596
9.1950,24.0414017
9.2000,24.03045807
9.2050,24.0198166
9.2100,24.00911313
9.2150,23.99833591
9.2200,23.98768073
9.2250,23.97715321
9.2300,23.96631503
9.2350,23.95494641
9.2400,23.94291804
9.2450,23.92995973
9.2500,23.91613539
9.2550,23.90134947
9.2600,23.88558619
9.2650,23.8687275
9.2700,23.85107532
9.2750,23.83246654
9.2800,23.81294821
9.2850,23.79233235
9.2900,23.77056305
9.2950,23.74788127
9.3000,23.72437091
9.3050,23.70000805
9.3100,23.67515661
9.3150,23.64999438
9.3200,23.6244148
9.3250,23.59865376
9.3300,23.57293382
9.3350,23.54762951
9.3400,23.52289532
9.3450,23.49890878
9.3500,23.47562852
9.3550,23.45344436
9.3600,23.43261358
9.3650,23.41313825
9.3700,23.39539127
9.3750,23.37921136
9.3800,23.36474371
9.3850,23.3518704
9.3900,23.3406082
9.3950,23.33061156
9.4000,23.32179776
9.4050,23.31442441
9.4100,23.30830078
9.4150,23.30336762
9.4200,23.29949834
9.4250,23.29649917
9.4300,23.29455683
9.4350,23.29319025
9.4400,23.29238355
9.4450,23.29223813
9.4500,23.29274645
9.4550,23.2938175
9.4600,23.29526631
9.4650,23.29697873
9.4700,23.29880829
9.4750,23.30060475
9.4800,23.30235872
9.4850,23.30397161
9.4900,23.30539326
9.4950,23.30662455
9.5000,23.30730071
9.5050,23.30727341
9.5100,23.30637324
9.5150,23.30462861
9.5200,23.30180439
9.5250,23.29769774
9.5300,23.29254971
9.5350,23.28628548
9.5400,23.2790006
9.5450,23.27068832
9.5500,23.26134695
9.5550,23.25104834
9.5600,23.23971013
9.5650,23.22754438
9.5700,23.21437375
9.5750,23.20049581
9.5800,23.18588689
9.5850,23.17064465
9.5900,23.15495271
9.5950,23.13864299
9.6000,23.12186389
9.6050,23.10462913
9.6100,23.08683593
9.6150,23.06833834
9.6200,23.04930523
9.6250,23.02971875
9.6300,23.00952164
9.6350,22.98891796
9.6400,22.96806024
9.6450,22.94698218
9.6500,22.9255687
9.6550,22.90392416
9.6600,22.88211577
9.6650,22.86000856
9.6700,22.83763258
9.6750,22.81519411
9.6800,22.79258455
9.6850,22.77000839
9.6900,22.74751686
9.6950,22.72514183
9.7000,22.70316412
9.7050,22.68114407
9.7100,22.65937559
9.7150,22.63779681
9.7200,22.6163808
9.7250,22.5951904
9.7300,22.57399606
9.7350,22.55316947
9.7400,22.53252145
9.7450,22.51210096
9.7500,22.49191489
9.7550,22.47202314
9.7600,22.45227782
9.7650,22.43277306
9.7700,22.4135307
9.7750,22.39457133
9.7800,22.37589048
9.7850,22.35765071
9.7900,22.33985239
9.7950,22.32250723
9.8000,22.30563998
9.8050,22.28937276
9.8100,22.27372656
9.8150,22.25860814
9.8200,22.24400325
9.8250,22.22991052
9.8300,22.21614995
9.8350,22.20271645
9.8400,22.18952839
9.8450,22.17646725
9.8500,22.16347305
9.8550,22.1504935
9.8600,22.13762182
9.8650,22.12476596
9.8700,22.11201785
9.8750,22.09935723
9.8800,22.08674079
9.8850,22.07430083
9.8900,22.06181591
9.8950,22.04934502
9.9000,22.03674758
9.9050,22.02407768
9.9100,22.01119911
9.9150,21.99821041
9.9200,21.98529167
9.9250,21.97233016
9.9300,21.95944675
9.9350,21.94650703
9.9400,21.93355072
9.9450,21.92044393
9.9500,21.90735795
9.9550,21.89422071
9.9600,21.88093694
9.9650,21.86782027
9.9700,21.85462897
9.9750,21.84141306
9.9800,21.8279547
9.9850,21.81432264
9.9900,21.80054135
9.9950,21.78679275
10.0000,21.77284067
10.0050,21.75886145
10.0100,21.74451827
10.0150,21.72987335
10.0200,21.71490313
10.0250,21.6995209
10.0300,21.68380176
10.0350,21.66735903
10.0400,21.65043089
10.0450,21.63285558
10.0500,21.61440476
10.0550,21.59501705
10.0600,21.57478644
10.0650,21.55373931
10.0700,21.53190631
10.0750,21.50930718
10.0800,21.48601259
10.0850,21.46189208
10.0900,21.43705107
10.0950,21.41140131
10.1000,21.38515021
10.1050,21.35837912
10.1100,21.33105522
10.1150,21.30327016
10.1200,21.27483352
10.1250,21.24579385
10.1300,21.21629476
10.1350,21.18624534
10.1400,21.15558401
10.1450,21.12429178
10.1500,21.09237947
10.1550,21.05975547
10.1600,21.02647485
10.1650,20.99247237
10.1700,20.95783901
10.1750,20.92253563
10.1800,20.88669829
10.1850,20.85034381
10.1900,20.81356441
10.1950,20.77638433
10.2000,20.73879496
10.2050,20.7007729
10.2100,20.6623983
10.2150,20.62371591
10.2200,20.58462179
10.2250,20.54524411
10.2300,20.50578244
10.2350,20.46611978
10.2400,20.4265157
10.2450,20.38714701
10.2500,20.34798911
10.2550,20.308974
10.2600,20.27008983
10.2650,20.23133735
10.2700,20.19268529
10.2750,20.15394894
10.2800,20.11547434
10.2850,20.07698285
10.2900,20.03845151
10.2950,19.99974023
10.3000,19.96095905
10.3050,19.92221798
10.3100,19.88373483
10.3150,19.84544726
10.3200,19.80752616
10.3250,19.77007057
10.3300,19.73279752
10.3350,19.69582873
10.3400,19.65881343
10.3450,19.62167271
10.3500,19.58471579
10.3550,19.54769463
10.3600,19.51079125
10.3650,19.4738925
10.3700,19.4370057
10.3750,19.40028038
10.3800,19.36389195
10.3850,19.32805307
10.3900,19.29276577
10.3950,19.25813969
10.4000,19.22392517
10.4050,19.19016467
10.4100,19.15716385
10.4150,19.12461042
10.4200,19.09272662
10.4250,19.06141673
10.4300,19.03075539
10.4350,19.0006658
10.4400,18.97123452
10.4450,18.942787
10.4500,18.91520544
10.4550,18.8886165
10.4600,18.86289733
10.4650,18.83786053
10.4700,18.81355715
10.4750,18.78976257
10.4800,18.76643643
10.4850,18.74343151
10.4900,18.72053862
10.4950,18.69769349
10.5000,18.67499911
10.5050,18.65252745
10.5100,18.63032681
10.5150,18.60837842
10.5200,18.5864319
10.5250,18.56447595
10.5300,18.54265519
10.5350,18.52107384
10.5400,18.49953253
10.5450,18.47794468
10.5500,18.4562531
10.5550,18.43431961
10.5600,18.4121904
10.5650,18.38968478
10.5700,18.36688791
10.5750,18.34386632
10.5800,18.32048339
10.5850,18.29683399
10.5900,18.27280316
10.5950,18.24856113
10.6000,18.22383121
10.6050,18.19869895
10.6100,18.17294345
10.6150,18.14652669
10.6200,18.11935203
10.6250,18.09135159
10.6300,18.06266525
10.6350,18.03324221
10.6400,18.00312667
10.6450,17.97225359
10.6500,17.9403507
10.6550,17.90771342
10.6600,17.87408316
10.6650,17.83943053
10.6700,17.80372841
10.6750,17.76705249
10.6800,17.72911399
10.6850,17.68978137
10.6900,17.64894127
10.6950,17.60665068
10.7000,17.56321689
10.7050,17.51849754
10.7100,17.4725632
10.7150,17.42554058
10.7200,17.37754521
10.7250,17.32867805
10.7300,17.27877605
10.7350,17.22796897
10.7400,17.17626828
10.7450,17.1236216
10.7500,17.07008121
10.7550,17.0155655
10.7600,16.96017519
10.7650,16.90412463
10.7700,16.84740409
10.7750,16.79019688
10.7800,16.73270986
10.7850,16.675077
10.7900,16.6176565
10.7950,16.56047479
10.8000,16.50357446
10.8050,16.44677519
10.8100,16.39009595
10.8150,16.33355222
10.8200,16.27722451
10.8250,16.22119745
10.8300,16.16526966
10.8350,16.10920477
10.8400,16.05317075
10.8450,15.9971909
10.8500,15.9414162
10.8550,15.88586237
10.8600,15.83070774
10.8650,15.77573781
10.8700,15.72089786
10.8750,15.66617001
10.8800,15.61145294
10.8850,15.5568125
10.8900,15.50238884
10.8950,15.44818573
10.9000,15.39436912
10.9050,15.34102589
10.9100,15.28807052
10.9150,15.23567777
10.9200,15.18388067
10.9250,15.13251238
10.9300,15.08144569
10.9350,15.03072491
10.9400,14.9803089
10.9450,14.93040903
10.9500,14.88105964
10.9550,14.83219317
10.9600,14.78405107
10.9650,14.73644199
10.9700,14.68937025
10.9750,14.64246237
10.9800,14.5957151
10.9850,14.54909613
10.9900,14.50275264
10.9950,14.45663888
11.0000,14.41066577
11.0050,14.36478087
11.0100,14.31883009
11.0150,14.27291932
11.0200,14.22683651
11.0250,14.18050638
11.0300,14.13411249
11.0350,14.08733278
11.0400,14.04027461
11.0450,13.99275453
11.0500,13.94470491
11.0550,13.89634535
11.0600,13.84742886
11.0650,13.79786471
11.0700,13.74736219
11.0750,13.69594464
11.0800,13.64338877
11.0850,13.58963168
11.0900,13.53478763
11.0950,13.47880433
11.1000,13.4218207
11.1050,13.36399504
11.1100,13.30533304
11.1150,13.24600343
11.1200,13.1861659
11.1250,13.1257217
11.1300,13.06460331
11.1350,13.00304843
11.1400,12.94085237
11.1450,12.87802015
11.1500,12.81423571
11.1550,12.74954125
11.1600,12.68345862
11.1650,12.61612024
11.1700,12.54764849
11.1750,12.47800655
11.1800,12.40740631
11.1850,12.33578352
11.1900,12.26324943
11.1950,12.18986827
11.2000,12.11577265
11.2050,12.04116528
11.2100,11.96649181
11.2150,11.89195269
11.2200,11.81784966
11.2250,11.74446066
11.2300,11.6722564
11.2350,11.60138012
11.2400,11.53224879
11.2450,11.46514182
11.2500,11.40015732
11.2550,11.33738137
11.2600,11.27685244
11.2650,11.21895826
11.2700,11.16376723
11.2750,11.11135311
11.2800,11.06203384
11.2850,11.01575865
11.2900,10.97222409
11.2950,10.9311406
11.3000,10.89238429
11.3050,10.85572438
11.3100,10.82079224
11.3150,10.78727036
11.3200,10.75491249
11.3250,10.72343379
11.3300,10.69256491
11.3350,10.66227813
11.3400,10.63230118
11.3450,10.6024563
11.3500,10.57275693
11.3550,10.54261785
11.3600,10.51202954
11.3650,10.48109328
11.3700,10.44968565
11.3750,10.41798525
11.3800,10.38584536
11.3850,10.35333709
11.3900,10.32029143
11.3950,10.28678842
11.4000,10.25279897
11.4050,10.21842829
11.4100,10.18384369
11.4150,10.14890658
11.4200,10.11362556
11.4250,10.07800423
11.4300,10.04211933
11.4350,10.00587613
11.4400,9.969318812
11.4450,9.93245051
11.4500,9.895387514
11.4550,9.858119041
11.4600,9.820934013
11.4650,9.783669729
11.4700,9.746196289
11.4750,9.708641079
11.4800,9.671010829
11.4850,9.633454039
11.4900,9.59606497
11.4950,9.559121466
11.5000,9.522982799
11.5050,9.487657977
11.5100,9.453480337
11.5150,9.420681477
11.5200,9.389492521
11.5250,9.360248713
11.5300,9.333260812
11.5350,9.308766979
11.5400,9.28702727
11.5450,9.267889935
11.5500,9.251598883
11.5550,9.238082618
11.5600,9.227329309
11.5650,9.219121036
11.5700,9.21339
11.5750,9.210046466
11.5800,9.208777837
11.5850,9.209382433
11.5900,9.211846791
11.5950,9.216246946
11.6000,9.222188039
11.6050,9.229711603
11.6100,9.23897883
11.6150,9.249988201
11.6200,9.262635258
11.6250,9.277098608
11.6300,9.29318937
11.6350,9.311178031
11.6400,9.330858534
11.6450,9.352348391
11.6500,9.375376506
11.6550,9.400209538
11.6600,9.42678536
11.6650,9.454868371
11.6700,9.484572519
11.6750,9.515504092
11.6800,9.547739234
11.6850,9.580798354
11.6900,9.614734141
11.6950,9.649284147
11.7000,9.684273865
11.7050,9.719506987
11.7100,9.754640419
11.7150,9.78953863
11.7200,9.824195801
11.7250,9.858503356
11.7300,9.892160394
11.7350,9.925051007
11.7400,9.957130852
11.7450,9.988145361
11.7500,10.01819073
11.7550,10.04714575
11.7600,10.07495285
11.7650,10.10169592
11.7700,10.12740876
11.7750,10.15217288
11.7800,10.17592968
11.7850,10.19868299
11.7900,10.22046032
11.7950,10.24118285
11.8000,10.26069459
11.8050,10.27902076
11.8100,10.29611151
11.8150,10.31188374
11.8200,10.32626078
11.8250,10.33929109
11.8300,10.35081288
11.8350,10.36087168
11.8400,10.3691889
11.8450,10.37597166
11.8500,10.38111857
11.8550,10.38478355
11.8600,10.38685651
11.8650,10.38743282
11.8700,10.3866168
11.8750,10.38444763
11.8800,10.38094668
11.8850,10.3763621
11.8900,10.37070187
11.8950,10.36401892
11.9000,10.35657679
11.9050,10.34835756
11.9100,10.33943112
11.9150,10.32982673
11.9200,10.31980006
11.9250,10.30924881
11.9300,10.29829397
11.9350,10.28692193
11.9400,10.27528821
11.9450,10.26338485
11.9500,10.25143456
11.9550,10.23943632
11.9600,10.22751608
11.9650,10.21585193
11.9700,10.20424419
11.9750,10.19286892
11.9800,10.18174082
11.9850,10.17100321
11.9900,10.16022299
11.9950,10.14964497
12.0000,10.1392457
12.0050,10.12897965
12.0100,10.11889199
12.0150,10.10899745
12.0200,10.09914521
12.0250,10.08943534
12.0300,10.07980883
12.0350,10.07038077
12.0400,10.06101128
12.0450,10.05172754
12.0500,10.04241975
12.0550,10.03310435
12.0600,10.02366224
12.0650,10.01413768
12.0700,10.00461455
12.0750,9.99490547
12.0800,9.985101006
12.0850,9.975119277
12.0900,9.964974672
12.0950,9.954692162
12.1000,9.944285231
12.1050,9.933806337
12.1100,9.923223848
12.1150,9.912633496
12.1200,9.902021816
12.1250,9.8912963
12.1300,9.880539346
12.1350,9.869709959
12.1400,9.858916619
12.1450,9.848052931
12.1500,9.8370617
12.1550,9.825837435
12.1600,9.814475601
12.1650,9.802966335
12.1700,9.791254996
12.1750,9.779293401
12.1800,9.767164498
12.1850,9.754698595
12.1900,9.741969753
12.1950,9.729022239
12.2000,9.715828049
12.2050,9.702420312
12.2100,9.688863664
12.2150,9.675199211
12.2200,9.661488912
12.2250,9.647939498
12.2300,9.634557388
12.2350,9.621408312
12.2400,9.608524997
12.2450,9.595954659
12.2500,9.583689162
12.2550,9.571700061
12.2600,9.560010845
12.2650,9.548586935
12.2700,9.537703677
12.2750,9.52728695
12.2800,9.517157426
12.2850,9.507396388
12.2900,9.498233795
12.2950,9.48946044
12.3000,9.481049934
12.3050,9.472886402
12.3100,9.464999786
12.3150,9.457319915
12.3200,9.449732456
12.3250,9.442139914
12.3300,9.434567375
12.3350,9.426931867
12.3400,9.419165752
12.3450,9.411532
12.3500,9.403611549
12.3550,9.395691563
12.3600,9.387474111
12.3650,9.379157819
12.3700,9.370510361
12.3750,9.361725931
12.3800,9.35255186
12.3850,9.343144235
12.3900,9.333337885
12.3950,9.323122086
12.4000,9.312532608
12.4050,9.301521549
12.4100,9.290133376
12.4150,9.278337291
12.4200,9.266370206
12.4250,9.254110592
12.4300,9.241630062
12.4350,9.229038259
12.4400,9.216381984
12.4450,9.203719837
12.4500,9.191078226
12.4550,9.178668935
12.4600,9.166428805
12.4650,9.15439209
12.4700,9.142542964
12.4750,9.131055033
12.4800,9.119888628
12.4850,9.109162929
12.4900,9.098861982
12.4950,9.088940295
12.5000,9.079315691
12.5050,9.07015878
12.5100,9.061284551
12.5150,9.052682744
12.5200,9.044379777
12.5250,9.036090762
12.5300,9.027957922
12.5350,9.01983267
12.5400,9.01178707
12.5450,9.003838353
12.5500,8.995922925
12.5550,8.987969238
12.5600,8.979912249
12.5650,8.971887255
12.5700,8.963582152
12.5750,8.954925211
12.5800,8.94599316
12.5850,8.936684434
12.5900,8.926931592
12.5950,8.916759005
12.6000,8.905986383
12.6050,8.894787524
12.6100,8.88287969
12.6150,8.870281894
12.6200,8.857006771
12.6250,8.842845334
12.6300,8.827886286
12.6350,8.811797377
12.6400,8.794747489
12.6450,8.776432345
12.6500,8.757024429
12.6550,8.736278918
12.6600,8.71422449
12.6650,8.690560879
12.6700,8.665378047
12.6750,8.638403281
12.6800,8.609798066
12.6850,8.57944093
12.6900,8.547302
12.6950,8.513448321
12.7000,8.477788371
12.7050,8.440426088
12.7100,8.401457157
12.7150,8.360841018
12.7200,8.318462934
12.7250,8.274585497
12.7300,8.229425903
12.7350,8.182820213
12.7400,8.134953704
12.7450,8.086000265
12.7500,8.03604389
12.7550,7.985324843
12.7600,7.933902929
12.7650,7.881894454
12.7700,7.829378765
12.7750,7.776510851
12.7800,7.723356454
12.7850,7.669780254
12.7900,7.615986242
12.7950,7.561980446
12.8000,7.508010278
12.8050,7.453942411
12.8100,7.399868619
12.8150,7.345792195
12.8200,7.291641806
12.8250,7.237690046
12.8300,7.183857795
12.8350,7.130286587
12.8400,7.077023495
12.8450,7.024127801
12.8500,6.971687509
12.8550,6.91992743
12.8600,6.868902643
12.8650,6.818475749
12.8700,6.768974793
12.8750,6.720580876
12.8800,6.673381965
12.8850,6.627363351
12.8900,6.58255354
12.8950,6.538884598
12.9000,6.496357659
12.9050,6.454800659
12.9100,6.414366508
12.9150,6.374932204
12.9200,6.336419926
12.9250,6.299002421
12.9300,6.262511952
12.9350,6.22713943
12.9400,6.192650197
12.9450,6.159041622
12.9500,6.126148576
12.9550,6.093936245
12.9600,6.062398657
12.9650,6.031499404
12.9700,6.001154792
12.9750,5.971424636
12.9800,5.942274488
12.9850,5.913785522
12.9900,5.88601393
12.9950,5.858891568
13.0000,5.832503091
13.0050,5.806858341
13.0100,5.781971949
13.0150,5.758032183
13.0200,5.73502822
13.0250,5.713073244
13.0300,5.692021563
13.0350,5.672090009
13.0400,5.6533175
13.0450,5.635770415
13.0500,5.619398077
13.0550,5.604035069
13.0600,5.58980949
13.0650,5.576639407
13.0700,5.564561047
13.0750,5.553378648
13.0800,5.543251868
13.0850,5.534141447
13.0900,5.525954456
13.0950,5.518644237
13.1000,5.512281467
13.1050,5.50676361
13.1100,5.502168551
13.1150,5.498563516
13.1200,5.49588235
13.1250,5.494309158
13.1300,5.49377058
13.1350,5.494295555
13.1400,5.495797619
13.1450,5.498463765
13.1500,5.50220265
13.1550,5.506936467
13.1600,5.512899311
13.1650,5.519935619
13.1700,5.527880298
13.1750,5.536686884
13.1800,5.546150154
13.1850,5.556371414
13.1900,5.567364375
13.1950,5.579146674
13.2000,5.591580759
13.2050,5.604592532
13.2100,5.618141682
13.2150,5.632066438
13.2200,5.646334543
13.2250,5.660741392
13.2300,5.675355728
13.2350,5.690087222
13.2400,5.704911241
13.2450,5.719762915
13.2500,5.734834636
13.2550,5.749950984
13.2600,5.765321326
13.2650,5.780920733
13.2700,5.796746746
13.2750,5.812876148
13.2800,5.829274768
13.2850,5.845999976
13.2900,5.863133297
13.2950,5.880571015
13.3000,5.898468588
13.3050,5.916824422
13.3100,5.935647008
13.3150,5.954744098
13.3200,5.974359698
13.3250,5.99434919
13.3300,6.014833685
13.3350,6.035816672
13.3400,6.057076897
13.3450,6.078712828
13.3500,6.100950619
13.3550,6.123825783
13.3600,6.147253656
13.3650,6.171457395
13.3700,6.19643919
13.3750,6.222357096
13.3800,6.24909409
13.3850,6.276920143
13.3900,6.3058217
13.3950,6.335991929
13.4000,6.367446708
13.4050,6.400310779
13.4100,6.434633246
13.4150,6.470405625
13.4200,6.507627947
13.4250,6.546319823
13.4300,6.58641154
13.4350,6.627878811
13.4400,6.670896059
13.4450,6.715068487
13.4500,6.760505312
13.4550,6.80722349
13.4600,6.854815981
13.4650,6.903472768
13.4700,6.953088668
13.4750,7.003580394
13.4800,7.054957582
13.4850,7.106960079
13.4900,7.159383295
13.4950,7.212100475
13.5000,7.265290335
13.5050,7.318782135
13.5100,7.372440528
13.5150,7.426307423
13.5200,7.480416591
13.5250,7.53475262
13.5300,7.589152501
13.5350,7.643694266
13.5400,7.698474736
13.5450,7.753422061
13.5500,7.808425542
13.5550,7.863504991
13.5600,7.918537278
13.5650,7.973453842
13.5700,8.028145061
13.5750,8.082578693
13.5800,8.13672705
13.5850,8.190545197
13.5900,8.244028351
13.5950,8.297272131
13.6000,8.350244468
13.6050,8.40296405
13.6100,8.455371193
13.6150,8.507441894
13.6200,8.559179206
13.6250,8.610645281
13.6300,8.661947012
13.6350,8.712993615
13.6400,8.764160182
13.6450,8.815279704
13.6500,8.866529005
13.6550,8.917786527
13.6600,8.969324741
13.6650,9.021044027
13.6700,9.072895015
13.6750,9.124969681
13.6800,9.177233695
13.6850,9.22955061
13.6900,9.281891822
13.6950,9.334111897
13.7000,9.386171078
13.7050,9.438032718
13.7100,9.489808416
13.7150,9.541537518
13.7200,9.593185909
13.7250,9.644810095
13.7300,9.696442114
13.7350,9.748185764
13.7400,9.799868925
13.7450,9.851881853
13.7500,9.904169982
13.7550,9.956668367
13.7600,10.00955128
13.7650,10.0627139
13.7700,10.11625138
13.7750,10.17000648
13.7800,10.2241876
13.7850,10.27882377
13.7900,10.33381679
13.7950,10.38919971
13.8000,10.44462362
13.8050,10.50035657
13.8100,10.55607282
13.8150,10.61159473
13.8200,10.66683404
13.8250,10.72168321
13.8300,10.7761386
13.8350,10.83010551
13.8400,10.88334815
13.8450,10.93602937
13.8500,10.98819759
13.8550,11.03980527
13.8600,11.09107408
13.8650,11.14205088
13.8700,11.19285234
13.8750,11.24354227
13.8800,11.29408076
13.8850,11.34470137
13.8900,11.3951913
13.8950,11.44568562
13.9000,11.49601653
13.9050,11.54638722
13.9100,11.59675897
13.9150,11.6475155
13.9200,11.69841239
13.9250,11.74968351
13.9300,11.80116808
13.9350,11.85311639
13.9400,11.90552017
13.9450,11.95884442
13.9500,12.01314256
13.9550,12.06864666
13.9600,12.12538703
13.9650,12.18339222
13.9700,12.24285132
13.9750,12.30390621
13.9800,12.36658935
13.9850,12.43122362
13.9900,12.49791016
13.9950,12.56664752
14.0000,12.6376264
14.0050,12.71097371
14.0100,12.78666351
14.0150,12.86447737
14.0200,12.9448462
14.0250,13.02764275
14.0300,13.11288532
14.0350,13.20044168
14.0400,13.29022544
14.0450,13.38190446
14.0500,13.47533068
14.0550,13.57034849
14.0600,13.66681734
14.0650,13.76454084
14.0700,13.86325874
14.0750,13.96279711
14.0800,14.06252593
14.0850,14.16240379
14.0900,14.26243155
14.0950,14.36234153
14.1000,14.46215053
14.1050,14.56123979
14.1100,14.65969845
14.1150,14.75739017
14.1200,14.85394504
14.1250,14.94950118
14.1300,15.04391078
14.1350,15.13698508
14.1400,15.22869519
14.1450,15.31890405
14.1500,15.40767172
14.1550,15.49508065
14.1600,15.5808838
14.1650,15.66530143
14.1700,15.74848854
14.1750,15.83048078
14.1800,15.91118314
14.1850,15.99031429
14.1900,16.06831795
14.1950,16.1451764
14.2000,16.2212673
14.2050,16.2964961
14.2100,16.3709792
14.2150,16.44459857
14.2200,16.51771545
14.2250,16.59044989
14.2300,16.66269859
14.2350,16.73491531
14.2400,16.80712638
14.2450,16.87922176
14.2500,16.95099963
14.2550,17.02255377
14.2600,17.09395796
14.2650,17.16528936
14.2700,17.23675463
14.2750,17.30835803
14.2800,17.38030676
14.2850,17.45256182
14.2900,17.52523107
14.2950,17.59851047
14.3000,17.67231394
14.3050,17.74657257
14.3100,17.82130836
14.3150,17.89677101
14.3200,17.97262137
14.3250,18.04879204
14.3300,18.12521098
14.3350,18.20156748
14.3400,18.27811413
14.3450,18.35473973
14.3500,18.43141799
14.3550,18.50807215
14.3600,18.58449657
14.3650,18.66070103
14.3700,18.73649062
14.3750,18.81211119
14.3800,18.88756195
14.3850,18.96282406
14.3900,19.03740686
14.3950,19.11119538
14.4000,19.18401208
14.4050,19.25590184
14.4100,19.32660972
14.4150,19.39604017
14.4200,19.4642295
14.4250,19.53062863
14.4300,19.59531961
14.4350,19.65813655
14.4400,19.7191118
14.4450,19.778291
14.4500,19.83544155
14.4550,19.8903158
14.4600,19.94297037
14.4650,19.99315654
14.4700,20.04069791
14.4750,20.08572029
14.4800,20.12837832
14.4850,20.16898081
14.4900,20.20747439
14.4950,20.24384372
14.5000,20.27795937
14.5050,20.31024589
14.5100,20.34087995
14.5150,20.37016019
14.5200,20.39816969
14.5250,20.42487752
14.5300,20.45087984
14.5350,20.47592115
14.5400,20.5003088
14.5450,20.52385972
14.5500,20.54696323
14.5550,20.5694669
14.5600,20.5913817
14.5650,20.61302332
14.5700,20.63444225
14.5750,20.65584141
14.5800,20.67738411
14.5850,20.6992261
14.5900,20.72177719
14.5950,20.7450105
14.6000,20.76916941
14.6050,20.79418342
14.6100,20.82020884
14.6150,20.84716863
14.6200,20.87538756
14.6250,20.90467433
14.6300,20.93517175
14.6350,20.96710533
14.6400,21.00012333
14.6450,21.03452474
14.6500,21.07029882
14.6550,21.1072804
14.6600,21.14546502
14.6650,21.18455069
14.6700,21.22460633
14.6750,21.26494689
14.6800,21.30569525
14.6850,21.34646811
14.6900,21.38720135
14.6950,21.42787686
14.7000,21.46819969
14.7050,21.50824308
14.7100,21.54792517
14.7150,21.58705385
14.7200,21.62544362
14.7250,21.66313215
14.7300,21.70003859
14.7350,21.73612394
14.7400,21.77139209
14.7450,21.80555237
14.7500,21.83860446
14.7550,21.87057374
14.7600,21.90160236
14.7650,21.93167935
14.7700,21.96093155
14.7750,21.98909908
14.7800,22.01617467
14.7850,22.04202993
14.7900,22.06649205
14.7950,22.08979445
14.8000,22.11200106
14.8050,22.13298376
14.8100,22.15278936
14.8150,22.17116849
14.8200,22.18818726
14.8250,22.20408512
14.8300,22.21870962
14.8350,22.232336
14.8400,22.24487638
14.8450,22.25669998
14.8500,22.26802164
14.8550,22.2790696
14.8600,22.29021475
14.8650,22.30154322
14.8700,22.31330307
14.8750,22.32544486
14.8800,22.33811169
14.8850,22.35153508
14.8900,22.36572686
14.8950,22.38088657
14.9000,22.39702446
14.9050,22.41466411
14.9100,22.43371334
14.9150,22.45433483
14.9200,22.47641552
14.9250,22.50006746
14.9300,22.52510601
14.9350,22.55125477
14.9400,22.57833241
14.9450,22.60569841
14.9500,22.63312538
14.9550,22.66061079
14.9600,22.68797299
14.9650,22.71521628
14.9700,22.74211809
14.9750,22.76849762
14.9800,22.79404855
14.9850,22.8186527
14.9900,22.84215526
14.9950,22.86414401
15.0000,22.88412401
15.0050,22.90186042
15.0100,22.91717007
15.0150,22.93013416
15.0200,22.94064822
15.0250,22.94859044
15.0300,22.95359089
15.0350,22.95527073
15.0400,22.95339845
15.0450,22.94788277
15.0500,22.93886859
15.0550,22.92660045
15.0600,22.91099983
15.0650,22.89223308
15.0700,22.87038233
15.0750,22.84541508
15.0800,22.81757933
15.0850,22.78711295
15.0900,22.75470104
15.0950,22.72061191
15.1000,22.68532989
15.1050,22.64917577
15.1100,22.61274463
15.1150,22.57660841
15.1200,22.54134384
15.1250,22.50742831
15.1300,22.47544235
15.1350,22.44569735
15.1400,22.41848597
15.1450,22.39384631
15.1500,22.37190048
15.1550,22.35325361
15.1600,22.33799689
15.1650,22.32632758
15.1700,22.31823697
15.1750,22.3139223
15.1800,22.31349215
15.1850,22.3170283
15.1900,22.32461181
15.1950,22.33639549
15.2000,22.35254938
15.2050,22.3727898
15.2100,22.39712795
15.2150,22.42550181
15.2200,22.45733455
15.2250,22.49240145
15.2300,22.53050156
15.2350,22.57144843
15.2400,22.61509466
15.2450,22.66110638
15.2500,22.70907893
15.2550,22.75837518
15.2600,22.80840343
15.2650,22.85860998
15.2700,22.90849578
15.2750,22.95772875
15.2800,23.00591843
15.2850,23.05272678
15.2900,23.09760778
15.2950,23.14051578
15.3000,23.18140175
15.3050,23.21988652
15.3100,23.25602225
15.3150,23.2894159
15.3200,23.3201484
15.3250,23.34834115
15.3300,23.37402181
15.3350,23.39757516
15.3400,23.41927631
15.3450,23.43910951
15.3500,23.45723544
15.3550,23.47323171
15.3600,23.48707739
15.3650,23.49870347
15.3700,23.50784004
15.3750,23.5150026
15.3800,23.5201822
15.3850,23.52356626
15.3900,23.52499719
15.3950,23.52457746
15.4000,23.52230193
15.4050,23.51813797
15.4100,23.51207951
15.4150,23.50430865
15.4200,23.4948532
15.4250,23.483737
15.4300,23.47113364
15.4350,23.45708509
15.4400,23.44181179
15.4450,23.42562932
15.4500,23.40867665
15.4550,23.39082484
15.4600,23.37215955
15.4650,23.35289445
15.4700,23.33321382
15.4750,23.31332143
15.4800,23.29335173
15.4850,23.27313636
15.4900,23.25266491
15.4950,23.23195537
15.5000,23.21080875
15.5050,23.18923133
15.5100,23.1671163
15.5150,23.14434481
15.5200,23.12103662
15.5250,23.09702226
15.5300,23.07218619
15.5350,23.04650965
15.5400,23.01998
15.5450,22.99273951
15.5500,22.96477758
15.5550,22.93619612
15.5600,22.90711808
15.5650,22.87742959
15.5700,22.84726478
15.5750,22.81659396
15.5800,22.78547665
15.5850,22.75374542
15.5900,22.72163675
15.5950,22.68898359
15.6000,22.65586291
15.6050,22.622371
15.6100,22.58816311
15.6150,22.55348983
15.6200,22.51829099
15.6250,22.48251015
15.6300,22.4461296
15.6350,22.40910124
15.6400,22.37132427
15.6450,22.33283136
15.6500,22.2933994
15.6550,22.25335393
15.6600,22.212729
15.6650,22.17157292
15.6700,22.12994412
15.6750,22.08767251
15.6800,22.04489733
15.6850,22.0015009
15.6900,21.95764579
15.6950,21.91351888
15.7000,21.86912805
15.7050,21.82482125
15.7100,21.78051579
15.7150,21.73638446
15.7200,21.69228665
15.7250,21.64824511
15.7300,21.60418972
15.7350,21.56005102
15.7400,21.5158073
15.7450,21.47134144
15.7500,21.42671657
15.7550,21.38195541
15.7600,21.33715255
15.7650,21.29239354
15.7700,21.24761866
15.7750,21.20294118
15.7800,21.15839477
15.7850,21.11429841
15.7900,21.07069769
15.7950,21.02747535
15.8000,20.98452137
15.8050,20.94203339
15.8100,20.89998863
15.8150,20.85835819
15.8200,20.81712675
15.8250,20.77632828
15.8300,20.73595554
15.8350,20.69608697
15.8400,20.65653257
15.8450,20.61745692
15.8500,20.5787869
15.8550,20.54046305
15.8600,20.50241585
15.8650,20.46471167
15.8700,20.4271245
15.8750,20.38960947
15.8800,20.35195811
15.8850,20.31396882
15.8900,20.27569682
15.8950,20.23695295
15.9000,20.19761417
15.9050,20.15752976
15.9100,20.11667032
15.9150,20.07496119
15.9200,20.03239991
15.9250,19.98873794
15.9300,19.94410459
15.9350,19.89846302
15.9400,19.85178514
15.9450,19.8040397
15.9500,19.75527086
15.9550,19.70545749
15.9600,19.65436396
15.9650,19.60195571
15.9700,19.54839802
15.9750,19.49379434
15.9800,19.43821106
15.9850,19.38181948
15.9900,19.32477854
15.9950,19.26693399
16.0000,19.20870864
16.0050,19.1497656
16.0100,19.09038086
16.0150,19.03043566
16.0200,18.97012963
16.0250,18.90932784
16.0300,18.84819316
16.0350,18.78682751
16.0400,18.72525997
16.0450,18.66358927
16.0500,18.60182023
16.0550,18.54008923
16.0600,18.47841671
16.0650,18.41662842
16.0700,18.3549941
16.0750,18.2934454
16.0800,18.23194239
16.0850,18.17057622
16.0900,18.10950624
16.0950,18.04891742
16.1000,17.98890552
16.1050,17.92927411
16.1100,17.87025183
16.1150,17.81202565
16.1200,17.75450073
16.1250,17.69789951
16.1300,17.64233447
16.1350,17.58768095
16.1400,17.5339004
16.1450,17.48082801
16.1500,17.42829558
16.1550,17.37616259
16.1600,17.3243135
16.1650,17.27258678
16.1700,17.22084763
16.1750,17.16909861
16.1800,17.11721898
16.1850,17.06533862
16.1900,17.01363422
16.1950,16.96213631
16.2000,16.91118918
16.2050,16.86075029
16.2100,16.8108385
16.2150,16.7616229
16.2200,16.71285316
16.2250,16.66463087
16.2300,16.61669638
16.2350,16.56900268
16.2400,16.52133105
16.2450,16.47371351
16.2500,16.42585799
16.2550,16.37784094
16.2600,16.32973778
16.2650,16.28153258
16.2700,16.23303946
16.2750,16.18414043
16.2800,16.13477878
16.2850,16.08505112
16.2900,16.0345649
16.2950,15.98345666
16.3000,15.93121557
16.3050,15.87822859
16.3100,15.8242983
16.3150,15.76956342
16.3200,15.71376691
16.3250,15.65696824
16.3300,15.59898018
16.3350,15.53997748
16.3400,15.4798417
16.3450,15.41869996
16.3500,15.35645326
16.3550,15.29332906
16.3600,15.22927171
16.3650,15.16437998
16.3700,15.09861167
16.3750,15.03205859
16.3800,14.96477367
16.3850,14.89676791
16.3900,14.82795764
16.3950,14.75837826
16.4000,14.68826344
16.4050,14.61781177
16.4100,14.54698287
16.4150,14.47586671
16.4200,14.40477492
16.4250,14.33377462
16.4300,14.26299437
16.4350,14.19270701
16.4400,14.12311237
16.4450,14.05427842
16.4500,13.98633824
16.4550,13.91944526
16.4600,13.85342366
16.4650,13.78831991
16.4700,13.72426024
16.4750,13.66132241
16.4800,13.59947878
16.4850,13.53858543
16.4900,13.47826731
16.4950,13.41858826
16.5000,13.35922906
16.5050,13.30029527
16.5100,13.24178903
16.5150,13.18346567
16.5200,13.12552945
16.5250,13.06796996
16.5300,13.01093429
16.5350,12.95443602
16.5400,12.89851587
16.5450,12.84307615
16.5500,12.78823886
16.5550,12.7338908
16.5600,12.67995769
16.5650,12.62646334
16.5700,12.57340138
16.5750,12.52094279
16.5800,12.46885186
16.5850,12.41686933
16.5900,12.36497844
16.5950,12.31298739
16.6000,12.26090815
16.6050,12.20859398
16.6100,12.15589813
16.6150,12.10292363
16.6200,12.04978479
16.6250,11.99652564
16.6300,11.943326
16.6350,11.89000867
16.6400,11.83688784
16.6450,11.78405485
16.6500,11.7317738
16.6550,11.67978558
16.6600,11.62835533
16.6650,11.57767155
16.6700,11.52780183
16.6750,11.47877354
16.6800,11.43083004
16.6850,11.38406075
16.6900,11.33844956
16.6950,11.29428165
16.7000,11.25143906
16.7050,11.21002334
16.7100,11.17006651
16.7150,11.13150757
16.7200,11.09433731
16.7250,11.05836613
16.7300,11.02369821
16.7350,10.98998082
16.7400,10.95721919
16.7450,10.925446
16.7500,10.89473538
16.7550,10.86506212
16.7600,10.83657417
16.7650,10.80926436
16.7700,10.78307082
16.7750,10.75796102
16.7800,10.73401647
16.7850,10.71124224
16.7900,10.68955121
16.7950,10.66875844
16.8000,10.64898462
16.8050,10.63000842
16.8100,10.61169889
16.8150,10.59387081
16.8200,10.57638675
16.8250,10.55916838
16.8300,10.54210206
16.8350,10.52508764
16.8400,10.50815559
16.8450,10.49115106
16.8500,10.47419337
16.8550,10.45702212
16.8600,10.43967897
16.8650,10.42204703
16.8700,10.40439141
16.8750,10.38645761
16.8800,10.36848409
16.8850,10.35062336
16.8900,10.33292111
16.8950,10.31555968
16.9000,10.29876194
16.9050,10.28255625
16.9100,10.26712732
16.9150,10.25251465
16.9200,10.23876718
16.9250,10.22589441
16.9300,10.2138174
16.9350,10.20245731
16.9400,10.19158973
16.9450,10.18120618
16.9500,10.17107026
16.9550,10.16118753
16.9600,10.15138551
16.9650,10.14146012
16.9700,10.13143143
16.9750,10.12130639
16.9800,10.11100617
16.9850,10.10044322
16.9900,10.08976445
16.9950,10.0787757
17.0000,10.06749853
17.0050,10.05590763
17.0100,10.0438113
17.0150,10.03121288
17.0200,10.01795757
17.0250,10.00418009
17.0300,9.989361799
17.0350,9.973742429
17.0400,9.957173014
17.0450,9.939379672
17.0500,9.920420888
17.0550,9.899901285
17.0600,9.877834804
17.0650,9.854145603
17.0700,9.82860294
17.0750,9.801014143
17.0800,9.771155611
17.0850,9.738886956
17.0900,9.704259684
17.0950,9.667134912
17.1000,9.627344202
17.1050,9.584889863
17.1100,9.5396593
17.1150,9.49186287
17.1200,9.441463667
17.1250,9.388601782
17.1300,9.333446421
17.1350,9.276152748
17.1400,9.216902175
17.1450,9.156201993
17.1500,9.094186778
17.1550,9.031254266
17.1600,8.967889383
17.1650,8.904236941
17.1700,8.840639806
17.1750,8.777426873
17.1800,8.71477067
17.1850,8.652820434
17.1900,8.591747685
17.1950,8.531806912
17.2000,8.472963794
17.2050,8.415425419
17.2100,8.359212068
17.2150,8.304311548
17.2200,8.250696326
17.2250,8.198725599
17.2300,8.148355148
17.2350,8.099756569
17.2400,8.053245406
17.2450,8.008640213
17.2500,7.966197672
17.2550,7.926042808
17.2600,7.888156728
17.2650,7.85275047
17.2700,7.81956987
17.2750,7.78864321
17.2800,7.759742263
17.2850,7.732828514
17.2900,7.707630459
17.2950,7.684146263
17.3000,7.662232535
17.3050,7.641696047
17.3100,7.622474216
17.3150,7.604338183
17.3200,7.587346237
17.3250,7.571332727
17.3300,7.556484807
17.3350,7.542746471
17.3400,7.53022668
17.3450,7.519159053
17.3500,7.50914153
17.3550,7.500555164
17.3600,7.493221869
17.3650,7.486895176
17.3700,7.481636318
17.3750,7.477340328
17.3800,7.474128905
17.3850,7.471801932
17.3900,7.470116377
17.3950,7.469175597
17.4000,7.468842563
17.4050,7.468980867
17.4100,7.46991829
17.4150,7.471185126
17.4200,7.472990173
17.4250,7.475116636
17.4300,7.477436494
17.4350,7.479854527
17.4400,7.482403792
17.4450,7.484793231
17.4500,7.486870792
17.4550,7.488640949
17.4600,7.489787831
17.4650,7.490486023
17.4700,7.490579022
17.4750,7.490126798
17.4800,7.489185049
17.4850,7.487768788
17.4900,7.486201369
17.4950,7.484156959
17.5000,7.481781041
17.5050,7.479054309
17.5100,7.476022599
17.5150,7.47270039
17.5200,7.469178529
17.5250,7.465294945
17.5300,7.461034348
17.5350,7.456383127
17.5400,7.451060233
17.5450,7.445204304
17.5500,7.438573259
17.5550,7.431243079
17.5600,7.423071096
17.5650,7.414068168
17.5700,7.404364555
17.5750,7.393991736
17.5800,7.38294941
17.5850,7.371287956
17.5900,7.359210588
17.5950,7.346701511
17.6000,7.333748892
17.6050,7.320389088
17.6100,7.306673968
17.6150,7.292707288
17.6200,7.278499844
17.6250,7.263973174
17.6300,7.249043884
17.6350,7.233656614
17.6400,7.217774814
17.6450,7.201032428
17.6500,7.183574394
17.6550,7.165219412
17.6600,7.145955381
17.6650,7.126051309
17.6700,7.105446287
17.6750,7.084060634
17.6800,7.061862471
17.6850,7.038962682
17.6900,7.015412291
17.6950,6.990974023
17.7000,6.965623754
17.7050,6.939445247
17.7100,6.912067815
17.7150,6.883779003
17.7200,6.854330234
17.7250,6.823730171
17.7300,6.792016202
17.7350,6.759379227
17.7400,6.725575553
17.7450,6.690867322
17.7500,6.655329313
17.7550,6.618945168
17.7600,6.581881657
17.7650,6.54412126
17.7700,6.505641926
17.7750,6.466364304
17.7800,6.426377437
17.7850,6.385768597
17.7900,6.344312295
17.7950,6.302217571
17.8000,6.259739162
17.8050,6.216660627
17.8100,6.173125964
17.8150,6.129171309
17.8200,6.084930124
17.8250,6.040313598
17.8300,5.995655013
17.8350,5.95094553
17.8400,5.906366449
17.8450,5.862008023
17.8500,5.818124435
17.8550,5.774655252
17.8600,5.731949189
17.8650,5.690077425
17.8700,5.64912798
17.8750,5.609253109
17.8800,5.570523791
17.8850,5.533017291
17.8900,5.496642438
17.8950,5.461386548
17.9000,5.427522265
17.9050,5.395121814
17.9100,5.364176943
17.9150,5.334608479
17.9200,5.306427029
17.9250,5.279824966
17.9300,5.25468599
17.9350,5.230900757
17.9400,5.208343936
17.9450,5.187102379
17.9500,5.167121727
17.9550,5.148235757
17.9600,5.130613448
17.9650,5.113910062
17.9700,5.09814901
17.9750,5.083309173
17.9800,5.069236435
17.9850,5.05599734
17.9900,5.043615449
17.9950,5.032267694
18.0000,5.021828978
18.0050,5.012301026
18.0100,5.003667594
18.0150,4.996003666
18.0200,4.98924336
18.0250,4.983482362
18.0300,4.978480366
18.0350,4.974213662
18.0400,4.970941941
18.0450,4.968533736
18.0500,4.966928616
18.0550,4.966218656
18.0600,4.966337841
18.0650,4.967309122
18.0700,4.969086289
18.0750,4.971763217
18.0800,4.975269183
18.0850,4.979467333
18.0900,4.984301519
18.0950,4.989853128
18.1000,4.996028971
18.1050,5.003053245
18.1100,5.011068744
18.1150,5.020048355
18.1200,5.029938166
18.1250,5.041032503
18.1300,5.053048904
18.1350,5.06611143
18.1400,5.08005025
18.1450,5.094932064
18.1500,5.110586021
18.1550,5.127074027
18.1600,5.14427214
18.1650,5.162042813
18.1700,5.180429855
18.1750,5.199153932
18.1800,5.218489512
18.1850,5.238245548
18.1900,5.258374223
18.1950,5.278812484
18.2000,5.299372662
18.2050,5.319880214
18.2100,5.340379635
18.2150,5.36055913
18.2200,5.380351353
18.2250,5.399484552
18.2300,5.417926676
18.2350,5.435599316
18.2400,5.452280805
18.2450,5.468028754
18.2500,5.482704498
18.2550,5.496409027
18.2600,5.508847614
18.2650,5.520337516
18.2700,5.530750882
18.2750,5.540138091
18.2800,5.548416386
18.2850,5.555360375
18.2900,5.561000435
18.2950,5.56525775
18.3000,5.568248795
18.3050,5.569809004
18.3100,5.570179634
18.3150,5.569043524
18.3200,5.566527089
18.3250,5.562528897
18.3300,5.556992159
18.3350,5.54971674
18.3400,5.540525349
18.3450,5.529334809
18.3500,5.516330146
18.3550,5.501465858
18.3600,5.484906994
18.3650,5.466761954
18.3700,5.447234095
18.3750,5.426486292
18.3800,5.404810695
18.3850,5.382403423
18.3900,5.359874934
18.3950,5.337406713
18.4000,5.315082016
18.4050,5.293157023
18.4100,5.271659335
18.4150,5.250671351
18.4200,5.230317176
18.4250,5.210627293
18.4300,5.191730666
18.4350,5.17360028
18.4400,5.156390576
18.4450,5.139959787
18.4500,5.124401927
18.4550,5.109482388
18.4600,5.095148747
18.4650,5.08122061
18.4700,5.067512988
18.4750,5.054079933
18.4800,5.040573151
18.4850,5.026939848
18.4900,5.01312267
18.4950,4.999110086
18.5000,4.98481308
18.5050,4.969998983
18.5100,4.954638284
18.5150,4.938940212
18.5200,4.922824643
18.5250,4.906232618
18.5300,4.889220725
18.5350,4.871789131
18.5400,4.854098816
18.5450,4.836002172
18.5500,4.817546533
18.5550,4.7987415
18.5600,4.779874748
18.5650,4.760576926
18.5700,4.741049523
18.5750,4.72134096
18.5800,4.701504398
18.5850,4.681738127
18.5900,4.662013502
18.5950,4.642439349
18.6000,4.623005972
18.6050,4.603919071
18.6100,4.585229295
18.6150,4.567129198
18.6200,4.549696795
18.6250,4.533142919
18.6300,4.517787591
18.6350,4.503924302
18.6400,4.491497354
18.6450,4.4809947
18.6500,4.472342621
18.6550,4.465739013
18.6600,4.461237547
18.6650,4.458734492
18.6700,4.45853024
18.6750,4.46049688
18.6800,4.464621886
18.6850,4.470900778
18.6900,4.479098986
18.6950,4.489231505
18.7000,4.501334755
18.7050,4.515091949
18.7100,4.530480188
18.7150,4.547504805
18.7200,4.566163747
18.7250,4.586348667
18.7300,4.607817343
18.7350,4.63072324
18.7400,4.654833977
18.7450,4.680017035
18.7500,4.706111118
18.7550,4.733077186
18.7600,4.760952944
18.7650,4.789563992
18.7700,4.818869984
18.7750,4.848565876
18.7800,4.878643537
18.7850,4.909028526
18.7900,4.939810868
18.7950,4.970948709
18.8000,5.002436279
18.8050,5.034542551
18.8100,5.067214076
18.8150,5.100260947
18.8200,5.13356527
18.8250,5.167181066
18.8300,5.201087102
18.8350,5.235094935
18.8400,5.269215899
18.8450,5.303498434
18.8500,5.337888323
18.8550,5.372460862
18.8600,5.406926633
18.8650,5.441534053
18.8700,5.476292063
18.8750,5.511230408
18.8800,5.546454858
18.8850,5.58196285
18.8900,5.617936912
18.8950,5.654500928
18.9000,5.69176375
18.9050,5.729851851
18.9100,5.768730179
18.9150,5.808567343
18.9200,5.849558251
18.9250,5.891672472
18.9300,5.935072908
18.9350,5.979861931
18.9400,6.026129358
18.9450,6.073833883
18.9500,6.123249072
18.9550,6.174238145
18.9600,6.226833316
18.9650,6.281252228
18.9700,6.337237813
18.9750,6.39487301
18.9800,6.454043728
18.9850,6.514822601
18.9900,6.577123119
18.9950,6.64086288
19.0000,6.705956309
19.0050,6.772500741
19.0100,6.840371098
19.0150,6.909342275
19.0200,6.979420983
19.0250,7.050525615
19.0300,7.122841062
19.0350,7.195996676
19.0400,7.269921252
19.0450,7.344658268
19.0500,7.420044163
19.0550,7.49608061
19.0600,7.572792659
19.0650,7.650052369
19.0700,7.728013234
19.0750,7.806823319
19.0800,7.886380238
19.0850,7.966733697
19.0900,8.047814705
19.0950,8.12967456
19.1000,8.212209771
19.1050,8.295182588
19.1100,8.378445516
19.1150,8.462161163
19.1200,8.546323721
19.1250,8.63068502
19.1300,8.715355074
19.1350,8.80040953
19.1400,8.885761518
19.1450,8.97144097
19.1500,9.057540853
19.1550,9.144098082
19.1600,9.231190866
19.1650,9.318830579
19.1700,9.40706131
19.1750,9.495942748
19.1800,9.585497944
19.1850,9.675769299
19.1900,9.766740006
19.1950,9.858345653
19.2000,9.950731329
19.2050,10.04408507
19.2100,10.13842988
19.2150,10.23395888
19.2200,10.3303339
19.2250,10.42769023
19.2300,10.52598785
19.2350,10.62501034
19.2400,10.72487578
19.2450,10.82552752
19.2500,10.92666921
19.2550,11.02832478
19.2600,11.13061216
19.2650,11.23331656
19.2700,11.33638406
19.2750,11.43979631
19.2800,11.54357627
19.2850,11.64768191
19.2900,11.75208086
19.2950,11.85681723
19.3000,11.96171474
19.3050,12.06668881
19.3100,12.17165878
19.3150,12.27655527
19.3200,12.38113265
19.3250,12.48531307
19.3300,12.58890369
19.3350,12.69198193
19.3400,12.79443854
19.3450,12.8959336
19.3500,12.99634642
19.3550,13.09555402
19.3600,13.19307722
19.3650,13.28912115
19.3700,13.38328614
19.3750,13.47552639
19.3800,13.56588297
19.3850,13.65420444
19.3900,13.74026155
19.3950,13.82385086
19.4000,13.90485564
19.4050,13.98336098
19.4100,14.05953769
19.4150,14.13337924
19.4200,14.20496055
19.4250,14.27465627
19.4300,14.34244496
19.4350,14.40856498
19.4400,14.47335814
19.4450,14.53699769
19.4500,14.59981979
19.4550,14.6619365
19.4600,14.72358345
19.4650,14.78503508
19.4700,14.84665256
19.4750,14.90873173
19.4800,14.97142648
19.4850,15.03489876
19.4900,15.09938806
19.4950,15.16505662
19.5000,15.23179372
19.5050,15.29956143
19.5100,15.36844282
19.5150,15.43854157
19.5200,15.51028391
19.5250,15.58368941
19.5300,15.65886296
19.5350,15.73577615
19.5400,15.81417393
19.5450,15.89411454
19.5500,15.97583538
19.5550,16.05944564
19.5600,16.14463401
19.5650,16.23130264
19.5700,16.3193022
19.5750,16.40819931
19.5800,16.49789618
19.5850,16.58822152
19.5900,16.67898592
19.5950,16.76990109
19.6000,16.86120201
19.6050,16.95304696
19.6100,17.04536628
19.6150,17.13797085
19.6200,17.23076358
19.6250,17.32345811
19.6300,17.41591741
19.6350,17.50788623
19.6400,17.59951359
19.6450,17.69092099
19.6500,17.78206937
19.6550,17.87280028
19.6600,17.96309522
19.6650,18.05260425
19.6700,18.14121066
19.6750,18.22838236
19.6800,18.31363162
19.6850,18.39672818
19.6900,18.47734975
19.6950,18.5550424
19.7000,18.62939462
19.7050,18.70009769
19.7100,18.76700745
19.7150,18.83017019
19.7200,18.88974185
19.7250,18.94574466
19.7300,18.99847333
19.7350,19.04812897
19.7400,19.09501155
19.7450,19.1394986
19.7500,19.18182219
19.7550,19.2222202
19.7600,19.26113438
19.7650,19.29874087
19.7700,19.3352299
19.7750,19.37096621
19.7800,19.40642943
19.7850,19.44183348
19.7900,19.47742293
19.7950,19.51361536
19.8000,19.55063991
19.8050,19.58859077
19.8100,19.62763595
19.8150,19.66757781
19.8200,19.70825247
19.8250,19.74973041
19.8300,19.79178105
19.8350,19.83437805
19.8400,19.87777913
19.8450,19.92170107
19.8500,19.96616506
19.8550,20.0109961
19.8600,20.05646286
19.8650,20.10279589
19.8700,20.15013522
19.8750,20.19881871
19.8800,20.24890093
19.8850,20.30030886
19.8900,20.35264529
19.8950,20.40585746
19.9000,20.45934601
19.9050,20.51285864
19.9100,20.56595857
19.9150,20.61881591
19.9200,20.67140159
19.9250,20.72347703
19.9300,20.77516353
19.9350,20.82658858
19.9400,20.87767615
19.9450,20.92848421
19.9500,20.97893711
19.9550,21.02934947
19.9600,21.07967743
19.9650,21.13000224
19.9700,21.18027236
19.9750,21.23061477
19.9800,21.28104531
19.9850,21.33144438
19.9900,21.38183238
19.9950,21.43210631
20.0000,21.48247092
20.0050,21.5328819
20.0100,21.58286712
20.0150,21.63209729
20.0200,21.68018321
20.0250,21.72703207
20.0300,21.77252832
20.0350,21.81642091
20.0400,21.85859408
20.0450,21.89886289
20.0500,21.93749626
20.0550,21.97481818
20.0600,22.01100896
20.0650,22.04631925
20.0700,22.08100842
20.0750,22.11554265
20.0800,22.14996932
20.0850,22.1847484
20.0900,22.21989362
20.0950,22.25514698
20.1000,22.29079101
20.1050,22.32683849
20.1100,22.36321059
20.1150,22.39979889
20.1200,22.4364729
20.1250,22.47292712
20.1300,22.50920257
20.1350,22.54540788
20.1400,22.58133069
20.1450,22.6171418
20.1500,22.65278799
20.1550,22.68831951
20.1600,22.72351335
20.1650,22.75819074
20.1700,22.79241895
20.1750,22.82613874
20.1800,22.85930648
20.1850,22.89210988
20.1900,22.92502031
20.1950,22.95797126
20.2000,22.99120529
20.2050,23.0243525
20.2100,23.05780835
20.2150,23.09144987
20.2200,23.12523201
20.2250,23.15937772
20.2300,23.1935403
20.2350,23.22775491
20.2400,23.26160131
20.2450,23.29495363
20.2500,23.32767157
20.2550,23.35945548
20.2600,23.39009063
20.2650,23.41953912
20.2700,23.44765911
20.2750,23.47455188
20.2800,23.50015327
20.2850,23.52447916
20.2900,23.54756532
20.2950,23.56957621
20.3000,23.59030279
20.3050,23.60996601
20.3100,23.6287189
20.3150,23.64668433
20.3200,23.66397293
20.3250,23.68055631
20.3300,23.69645563
20.3350,23.71175484
20.3400,23.72658943
20.3450,23.74113424
20.3500,23.75517981
20.3550,23.76871225
20.3600,23.7817861
20.3650,23.79445835
20.3700,23.80672266
20.3750,23.81837043
20.3800,23.82941198
20.3850,23.84001179
20.3900,23.8500692
20.3950,23.85966019
20.4000,23.8684847
20.4050,23.87652191
20.4100,23.88367487
20.4150,23.88995264
20.4200,23.89526015
20.4250,23.89946638
20.4300,23.90256374
20.4350,23.90438559
20.4400,23.90502012
20.4450,23.90427576
20.4500,23.90219875
20.4550,23.89879909
20.4600,23.89414179
20.4650,23.88841409
20.4700,23.88176895
20.4750,23.87425949
20.4800,23.86592787
20.4850,23.85690298
20.4900,23.84707243
20.4950,23.83666601
20.5000,23.82570442
20.5050,23.81443628
20.5100,23.8027376
20.5150,23.79082684
20.5200,23.77866751
20.5250,23.76637393
20.5300,23.75414984
20.5350,23.7417334
20.5400,23.72946669
20.5450,23.71729184
20.5500,23.70541796
20.5550,23.69385605
20.5600,23.68271551
20.5650,23.67209701
20.5700,23.66224508
20.5750,23.65298914
20.5800,23.64474583
20.5850,23.63759446
20.5900,23.63144153
20.5950,23.62632892
20.6000,23.62238568
20.6050,23.61938006
20.6100,23.61742182
20.6150,23.61640153
20.6200,23.61634147
20.6250,23.61710408
20.6300,23.61851298
20.6350,23.62058322
20.6400,23.62306228
20.6450,23.62582566
20.6500,23.62883323
20.6550,23.6319296
20.6600,23.63482832
20.6650,23.63751813
20.6700,23.6401608
20.6750,23.64238582
20.6800,23.64413434
20.6850,23.64525285
20.6900,23.64565048
20.6950,23.64533944
20.7000,23.6444921
20.7050,23.64304538
20.7100,23.64096739
20.7150,23.63821154
20.7200,23.63469809
20.7250,23.63052583
20.7300,23.62552945
20.7350,23.61969889
20.7400,23.61291929
20.7450,23.60538076
20.7500,23.59684653
20.7550,23.58740973
20.7600,23.57712998
20.7650,23.56593569
20.7700,23.55355484
20.7750,23.54008338
20.7800,23.52558434
20.7850,23.50991993
20.7900,23.49332374
20.7950,23.47572829
20.8000,23.4571747
20.8050,23.43775492
20.8100,23.41768887
20.8150,23.39677887
20.8200,23.37528234
20.8250,23.35316156
20.8300,23.33053778
20.8350,23.30752154
20.8400,23.28411367
20.8450,23.26035044
20.8500,23.23637907
20.8550,23.21218324
20.8600,23.18787339
20.8650,23.16350318
20.8700,23.13895853
20.8750,23.11446392
20.8800,23.08957898
20.8850,23.064451
20.8900,23.03909488
20.8950,23.01355892
20.9000,22.98806487
20.9050,22.96255699
20.9100,22.93716181
20.9150,22.9117288
20.9200,22.88632577
20.9250,22.86100331
20.9300,22.83579437
20.9350,22.81062531
20.9400,22.78542214
20.9450,22.76014786
20.9500,22.73469004
20.9550,22.70917193
20.9600,22.68377006
20.9650,22.6585166
20.9700,22.63317494
20.9750,22.60796836
20.9800,22.58301428
20.9850,22.55822022
20.9900,22.5336329
20.9950,22.50949484
21.0000,22.48574115
21.0050,22.46243438
21.0100,22.43956089
21.0150,22.41710308
21.0200,22.39508717
21.0250,22.37357576
21.0300,22.35240601
21.0350,22.33160776
21.0400,22.31124808
21.0450,22.29100405
21.0500,22.27087214
21.0550,22.2508009
21.0600,22.23060537
21.0650,22.21023401
21.0700,22.18978126
21.0750,22.16896447
21.0800,22.14767394
21.0850,22.12583136
21.0900,22.10360275
21.0950,22.08087542
21.1000,22.05778331
21.1050,22.03433675
21.1100,22.01058054
21.1150,21.98657774
21.1200,21.96226003
21.1250,21.93770398
21.1300,21.91267949
21.1350,21.88735164
21.1400,21.8617129
21.1450,21.83568763
21.1500,21.80931378
21.1550,21.78239188
21.1600,21.75509975
21.1650,21.72748533
21.1700,21.69960161
21.1750,21.67140765
21.1800,21.64313567
21.1850,21.61467116
21.1900,21.58635505
21.1950,21.55806137
21.2000,21.52975141
21.2050,21.50142836
21.2100,21.47308912
21.2150,21.44466864
21.2200,21.41607065
21.2250,21.38722264
21.2300,21.35831309
21.2350,21.32948432
21.2400,21.300877
21.2450,21.27259828
21.2500,21.24479399
21.2550,21.21745952
21.2600,21.19058543
21.2650,21.16405348
21.2700,21.13792327
21.2750,21.11222692
21.2800,21.08670691
21.2850,21.06122507
21.2900,21.03576822
21.2950,21.01008501
21.3000,20.98412188
21.3050,20.95773737
21.3100,20.93093091
21.3150,20.90392658
21.3200,20.87677217
21.3250,20.84944873
21.3300,20.82208811
21.3350,20.79464913
21.3400,20.76704514
21.3450,20.73930168
21.3500,20.71120866
21.3550,20.68248939
21.3600,20.6529778
21.3650,20.62253093
21.3700,20.59090461
21.3750,20.55830341
21.3800,20.52473437
21.3850,20.49010935
21.3900,20.45409518
21.3950,20.4168916
21.4000,20.37866736
21.4050,20.33951945
21.4100,20.29950937
21.4150,20.2585629
21.4200,20.21654415
21.4250,20.17318893
21.4300,20.12865732
21.4350,20.08290106
21.4400,20.03587646
21.4450,19.98759989
21.4500,19.93803219
21.4550,19.88731148
21.4600,19.83557301
21.4650,19.78262125
21.4700,19.72859188
21.4750,19.67320903
21.4800,19.61630487
21.4850,19.55759184
21.4900,19.49667125
21.4950,19.43355413
21.5000,19.36806052
21.5050,19.30034619
21.5100,19.23041222
21.5150,19.15863063
21.5200,19.08537568
21.5250,19.01103459
21.5300,18.93541912
21.5350,18.85878719
21.5400,18.78118794
21.5450,18.70252596
21.5500,18.62258583
21.5550,18.54130931
21.5600,18.45858424
21.5650,18.37440303
21.5700,18.28884956
21.5750,18.20186134
21.5800,18.11367164
21.5850,18.02439876
21.5900,17.93417349
21.5950,17.84283355
21.6000,17.75036582
21.6050,17.65663118
21.6100,17.56167754
21.6150,17.4651467
21.6200,17.36700609
21.6250,17.26697439
21.6300,17.16504788
21.6350,17.06084843
21.6400,16.95459824
21.6450,16.84621433
21.6500,16.73612303
21.6550,16.62470446
21.6600,16.51262034
21.6650,16.40022059
21.6700,16.28800756
21.6750,16.17622605
21.6800,16.06500176
21.6850,15.95459547
21.6900,15.84508426
21.6950,15.7364052
21.7000,15.62841002
21.7050,15.52105612
21.7100,15.41434188
21.7150,15.30841688
21.7200,15.2037126
21.7250,15.10043032
21.7300,14.9988259
21.7350,14.89899127
21.7400,14.801012
21.7450,14.70510473
21.7500,14.61128437
21.7550,14.51961566
21.7600,14.42972522
21.7650,14.34168445
21.7700,14.25528594
21.7750,14.17056278
21.7800,14.08770748
21.7850,14.00704119
21.7900,13.92884853
21.7950,13.85323414
21.8000,13.78045098
21.8050,13.7105083
21.8100,13.64353253
21.8150,13.57930236
21.8200,13.51766342
21.8250,13.45837438
21.8300,13.40131069
21.8350,13.34618075
21.8400,13.29266636
21.8450,13.2406257
21.8500,13.18981639
21.8550,13.13990067
21.8600,13.0906848
21.8650,13.04196603
21.8700,12.99312868
21.8750,12.94403507
21.8800,12.89434723
21.8850,12.84389413
21.8900,12.79240898
21.8950,12.74006388
21.9000,12.68684869
21.9050,12.63293693
21.9100,12.57817061
21.9150,12.52264611
21.9200,12.46629216
21.9250,12.40946693
21.9300,12.35210326
21.9350,12.29454192
21.9400,12.23678955
21.9450,12.17918628
21.9500,12.12145495
21.9550,12.06366056
21.9600,12.00535111
21.9650,11.946388
21.9700,11.88658972
21.9750,11.82574722
21.9800,11.76377928
21.9850,11.70066538
21.9900,11.63658204
21.9950,11.57174678
22.0000,11.50629848
22.0050,11.44056894
22.0100,11.37470037
22.0150,11.30902879
22.0200,11.24366243
22.0250,11.1790987
22.0300,11.11551418
22.0350,11.05320784
22.0400,10.9925874
22.0450,10.93396085
22.0500,10.87753073
22.0550,10.82358692
22.0600,10.77249415
22.0650,10.72424888
22.0700,10.67900074
22.0750,10.63686708
22.0800,10.59775177
22.0850,10.56151621
22.0900,10.52780396
22.0950,10.4965173
22.1000,10.46727327
22.1050,10.43982881
22.1100,10.41368547
22.1150,10.38869092
22.1200,10.36461812
22.1250,10.34129823
22.1300,10.31875593
22.1350,10.297008
22.1400,10.27621896
22.1450,10.25655016
22.1500,10.23855062
22.1550,10.2224459
22.1600,10.20840542
22.1650,10.19677728
22.1700,10.18796549
22.1750,10.18201895
22.1800,10.17909103
22.1850,10.17907908
22.1900,10.18220822
22.1950,10.18843129
22.2000,10.19755855
22.2050,10.20933799
22.2100,10.22385271
22.2150,10.24095578
22.2200,10.26066509
22.2250,10.28263414
22.2300,10.30695866
22.2350,10.33352947
22.2400,10.36209675
22.2450,10.39248501
22.2500,10.42478831
22.2550,10.45874049
22.2600,10.49439623
22.2650,10.53159989
22.2700,10.57022493
22.2750,10.61017555
22.2800,10.65147281
22.2850,10.69408988
22.2900,10.73768976
22.2950,10.78216959
22.3000,10.82751439
22.3050,10.87348561
22.3100,10.92002991
22.3150,10.96705384
22.3200,11.01450098
22.3250,11.0620416
22.3300,11.10973309
22.3350,11.15739017
22.3400,11.20498215
22.3450,11.25231965
22.3500,11.29935698
22.3550,11.34605931
22.3600,11.39223687
22.3650,11.43785687
22.3700,11.48286151
22.3750,11.52714523
22.3800,11.57062873
22.3850,11.61326747
22.3900,11.6550203
22.3950,11.69592704
22.4000,11.73598456
22.4050,11.77515681
22.4100,11.8135382
22.4150,11.85134803
22.4200,11.88854476
22.4250,11.92527658
22.4300,11.96142103
22.4350,11.99706138
22.4400,12.03225771
22.4450,12.06695926
22.4500,12.10092334
22.4550,12.13416463
22.4600,12.16660909
22.4650,12.19817849
22.4700,12.22884816
22.4750,12.25869076
22.4800,12.28771302
22.4850,12.3159213
22.4900,12.3431588
22.4950,12.36926986
22.5000,12.39443909
22.5050,12.41852519
22.5100,12.44140487
22.5150,12.46305857
22.5200,12.48345497
22.5250,12.50239754
22.5300,12.51984049
22.5350,12.53574499
22.5400,12.55019209
22.5450,12.56314893
22.5500,12.57447739
22.5550,12.58437162
22.5600,12.59285558
22.5650,12.60002163
22.5700,12.60596058
22.5750,12.61077378
22.5800,12.61435563
22.5850,12.61692503
22.5900,12.61878574
22.5950,12.6198143
22.6000,12.6197743
22.6050,12.61877144
22.6100,12.61669732
22.6150,12.61344288
22.6200,12.60907019
22.6250,12.60372082
22.6300,12.59724845
22.6350,12.58972015
22.6400,12.58115825
22.6450,12.57164709
22.6500,12.56122871
22.6550,12.55007455
22.6600,12.538303
22.6650,12.52603465
22.6700,12.51359649
22.6750,12.50107146
22.6800,12.48873689
22.6850,12.47669178
22.6900,12.46521508
22.6950,12.45453591
22.7000,12.44484081
22.7050,12.4363948
22.7100,12.42919641
22.7150,12.4233935
22.7200,12.41899535
22.7250,12.41607983
22.7300,12.41476377
22.7350,12.41513132
22.7400,12.41705455
22.7450,12.42060849
22.7500,12.42587045
22.7550,12.43261147
22.7600,12.44083095
22.7650,12.45053181
22.7700,12.46152167
22.7750,12.47358019
22.7800,12.48641345
22.7850,12.49986628
22.7900,12.51395806
22.7950,12.52857757
22.8000,12.54355567
22.8050,12.55898871
22.8100,12.57457501
22.8150,12.59017631
22.8200,12.60549624
22.8250,12.62067617
22.8300,12.63563734
22.8350,12.65028794
22.8400,12.66450308
22.8450,12.67846988
22.8500,12.6922919
22.8550,12.70588387
22.8600,12.71917715
22.8650,12.73230996
22.8700,12.74513767
22.8750,12.75781233
22.8800,12.77058505
22.8850,12.78303934
22.8900,12.79519512
22.8950,12.80724515
22.9000,12.81937586
22.9050,12.83155205
22.9100,12.84387145
22.9150,12.85662367
22.9200,12.86956959
22.9250,12.88276759
22.9300,12.89619638
22.9350,12.90980588
22.9400,12.92353353
22.9450,12.93738179
22.9500,12.95135315
22.9550,12.96542642
22.9600,12.97959949
22.9650,12.99390089
22.9700,13.0082025
22.9750,13.02254776
22.9800,13.03672229
22.9850,13.05071345
22.9900,13.06466198
22.9950,13.07822311
23.0000,13.09147099
23.0050,13.10427689
23.0100,13.11675305
23.0150,13.12877326
23.0200,13.14024685
23.0250,13.15115697
23.0300,13.16161648
23.0350,13.17134421
23.0400,13.18054013
23.0450,13.18902307
23.0500,13.19669641
23.0550,13.20369064
23.0600,13.21005786
23.0650,13.2154466
23.0700,13.22002503
23.0750,13.22369882
23.0800,13.22657884
23.0850,13.22874051
23.0900,13.22999696
23.0950,13.23042836
23.1000,13.22984754
23.1050,13.22825411
23.1100,13.22573124
23.1150,13.22225184
23.1200,13.21786421
23.1250,13.21262714
23.1300,13.20650011
23.1350,13.19952228
23.1400,13.19181548
23.1450,13.18335469
23.1500,13.17419144
23.1550,13.16448304
23.1600,13.15448601
23.1650,13.14433278
23.1700,13.13433352
23.1750,13.12434195
23.1800,13.11444779
23.1850,13.1047668
23.1900,13.09536559
23.1950,13.08622992
23.2000,13.07747131
23.2050,13.06904124
23.2100,13.06107602
23.2150,13.05352941
23.2200,13.04647043
23.2250,13.03997096
23.2300,13.0339554
23.2350,13.02866928
23.2400,13.02388678
23.2450,13.01962659
23.2500,13.01590359
23.2550,13.01256771
23.2600,13.0095082
23.2650,13.0066705
23.2700,13.00390871
23.2750,13.00119765
23.2800,12.99866824
23.2850,12.99612845
23.2900,12.99357419
23.2950,12.99106242
23.3000,12.98861618
23.3050,12.9861968
23.3100,12.98382268
23.3150,12.98138051
23.3200,12.97904197
23.3250,12.97669264
23.3300,12.97437661
23.3350,12.97201571
23.3400,12.96954051
23.3450,12.9670428
23.3500,12.96443926
23.3550,12.96172642
23.3600,12.95883104
23.3650,12.95607811
23.3700,12.95324791
23.3750,12.95032734
23.3800,12.94738475
23.3850,12.94444929
23.3900,12.94157068
23.3950,12.93867714
23.4000,12.93592292
23.4050,12.93315105
23.4100,12.93066964
23.4150,12.92843026
23.4200,12.92650928
23.4250,12.92494615
23.4300,12.92385895
23.4350,12.92326178
23.4400,12.92328318
23.4450,12.92400124
23.4500,12.92550039
23.4550,12.92770881
23.4600,12.93055762
23.4650,12.93387748
23.4700,12.93758943
23.4750,12.94176446
23.4800,12.94630863
23.4850,12.95164301
23.4900,12.95780588
23.4950,12.9649175
23.5000,12.97286503
23.5050,12.98161293
23.5100,12.99089732
23.5150,13.00041719
23.5200,13.01006111
23.5250,13.0194145
23.5300,13.02846776
23.5350,13.036683
23.5400,13.04410366
23.5450,13.05048084
23.5500,13.05560232
23.5550,13.05940975
23.5600,13.06182241
23.5650,13.06277909
23.5700,13.06226988
23.5750,13.06035224
23.5800,13.05675574
23.5850,13.05172636
23.5900,13.04526393
23.5950,13.03732559
23.6000,13.02779917
23.6050,13.01680858
23.6100,13.00433998
23.6150,12.99047302
23.6200,12.97506968
23.6250,12.95827004
23.6300,12.94008627
23.6350,12.92055453
23.6400,12.89966244
23.6450,12.87740979
23.6500,12.85385898
23.6550,12.82900358
23.6600,12.80295812
23.6650,12.77583092
23.6700,12.74770657
23.6750,12.71895866
23.6800,12.68973428
23.6850,12.66029727
23.6900,12.63084561
23.6950,12.60175465
23.7000,12.57335098
23.7050,12.5460641
23.7100,12.52007756
23.7150,12.49561376
23.7200,12.47310848
23.7250,12.45259612
23.7300,12.43407555
23.7350,12.41780854
23.7400,12.40376293
23.7450,12.39164281
23.7500,12.38141036
23.7550,12.37299577
23.7600,12.366063
23.7650,12.36085303
23.7700,12.3572594
23.7750,12.35508804
23.7800,12.35427505
23.7850,12.35455345
23.7900,12.35560079
23.7950,12.35714835
23.8000,12.35908574
23.8050,12.3613154
23.8100,12.36385001
23.8150,12.36665122
23.8200,12.36969083
23.8250,12.37292214
23.8300,12.37652734
23.8350,12.38045946
23.8400,12.38454698
23.8450,12.38887936
23.8500,12.39332023
23.8550,12.39766758
23.8600,12.40175553
23.8650,12.4054715
23.8700,12.40844543
23.8750,12.41041302
23.8800,12.41143264
23.8850,12.41109679
23.8900,12.40909377
23.8950,12.4054627
23.9000,12.4002061
23.9050,12.39316332
23.9100,12.38424329
23.9150,12.37338662
23.9200,12.3607763
23.9250,12.34639117
23.9300,12.33036946
23.9350,12.31279572
23.9400,12.29379847
23.9450,12.2733334
23.9500,12.25153151
23.9550,12.22853982
23.9600,12.20427967
23.9650,12.1787429
23.9700,12.15194877
23.9750,12.12391193
23.9800,12.09466522
23.9850,12.06431503
23.9900,12.03286874
23.9950,12.0003605
24.0000,11.96670305
24.0050,11.93187612
24.0100,11.89569971
24.0150,11.85838274
24.0200,11.8198595
24.0250,11.78006442
24.0300,11.73925716
24.0350,11.69723403
24.0400,11.65411553
24.0450,11.61011416
24.0500,11.56539775
24.0550,11.52009801
24.0600,11.47448161
24.0650,11.42852234
24.0700,11.38220421
24.0750,11.33590969
24.0800,11.28948124
24.0850,11.24300111
24.0900,11.19649261
24.0950,11.1500733
24.1000,11.10376635
24.1050,11.05765207
24.1100,11.01175636
24.1150,10.96606664
24.1200,10.92078321
24.1250,10.87593446
24.1300,10.83143379
24.1350,10.78753318
24.1400,10.74422883
24.1450,10.70150428
24.1500,10.65924626
24.1550,10.61741697
24.1600,10.57615445
24.1650,10.53542238
24.1700,10.49527409
24.1750,10.45576021
24.1800,10.4167786
24.1850,10.37838787
24.1900,10.34066165
24.1950,10.30350535
24.2000,10.2668199
24.2050,10.2307149
24.2100,10.19511264
24.2150,10.16015333
24.2200,10.1257732
24.2250,10.0920112
24.2300,10.05874022
24.2350,10.0259306
24.2400,9.993669964
24.2450,9.9621114
24.2500,9.931119552
24.2550,9.900778527
24.2600,9.871300513
24.2650,9.842546839
24.2700,9.814690137
24.2750,9.787784455
24.2800,9.761746914
24.2850,9.736587291
24.2900,9.712227188
24.2950,9.688749105
24.3000,9.666132309
24.3050,9.644362926
24.3100,9.623533615
24.3150,9.603514012
24.3200,9.584330626
24.3250,9.566086474
24.3300,9.54853843
24.3350,9.531973477
24.3400,9.516340575
24.3450,9.501680878
24.3500,9.487923559
24.3550,9.474946143
24.3600,9.462921633
24.3650,9.451775944
24.3700,9.441498404
24.3750,9.432075965
24.3800,9.423738586
24.3850,9.416198685
24.3900,9.409768849
24.3950,9.404193635
24.4000,9.399412383
24.4050,9.395487599
24.4100,9.392181763
24.4150,9.389653248
24.4200,9.387728003
24.4250,9.386301122
24.4300,9.385263706
24.4350,9.384548558
24.4400,9.384083505
24.4450,9.383742676
24.4500,9.38357223
24.4550,9.383557382
24.4600,9.383690215
24.4650,9.38381377
24.4700,9.384094077
24.4750,9.384568702
24.4800,9.385250903
24.4850,9.386277451
24.4900,9.38762373
24.4950,9.389388234
24.5000,9.39177822
24.5050,9.394857513
24.5100,9.39878316
24.5150,9.40356369
24.5200,9.409330679
24.5250,9.416115275
24.5300,9.424023339
24.5350,9.433213616
24.5400,9.443529573
24.5450,9.455126969
24.5500,9.468128266
24.5550,9.482405867
24.5600,9.497810111
24.5650,9.514491965
24.5700,9.532478772
24.5750,9.551654543
24.5800,9.572156321
24.5850,9.593863322
24.5900,9.616898109
24.5950,9.640980752
24.6000,9.666054607
24.6050,9.692095425
24.6100,9.719040818
24.6150,9.746886669
24.6200,9.775656089
24.6250,9.805287845
24.6300,9.835883236
24.6350,9.867179712
24.6400,9.899201221
24.6450,9.93185626
24.6500,9.965093522
24.6550,9.998917271
24.6600,10.03322545
24.6650,10.06782637
24.6700,10.10282493
24.6750,10.1380666
24.6800,10.17342751
24.6850,10.20896874
24.6900,10.24451078
24.6950,10.28017217
24.7000,10.3161213
24.7050,10.35214461
24.7100,10.38838484
24.7150,10.42493611
24.7200,10.46164215
24.7250,10.49886997
24.7300,10.53646528
24.7350,10.57451265
24.7400,10.61323084
24.7450,10.65277028
24.7500,10.69343272
24.7550,10.73530569
24.7600,10.77858904
24.7650,10.82356591
24.7700,10.87036318
24.7750,10.91916926
24.7800,10.97022612
24.7850,11.02371807
24.7900,11.07993908
24.7950,11.13898228
24.8000,11.20096572
24.8050,11.26589755
24.8100,11.33390256
24.8150,11.36067206
24.8200,11.39016576
24.8250,11.4222753
24.8300,11.45684269
24.8350,11.49366772
24.8400,11.53251367
24.8450,11.57311199
24.8500,11.61516705
24.8550,11.65836099
24.8600,11.70235778
24.8650,11.74680661
24.8700,11.79134549
24.8750,11.83560474
24.8800,11.87920985
24.8850,11.92178407
24.8900,11.96295109
24.8950,12.0023385
24.9000,12.03958286
24.9050,12.07433632
24.9100,12.10627456
24.9150,12.13510618
