type,name,time_units,begin_time,frequency,count,units
signal_3d,"Noraxon MyoMotion-Segments-Upper arm RT-Acceleration","s",0.0000,200,4984,"mG"

time,x,y,z
0.0000,-35.5090579,15.7013117,10.53805635
0.0050,-30.14765453,20.9051463,12.24022584
0.0100,-24.13911474,16.60819258,10.74738505
0.0150,-19.41130007,23.46423491,9.682667254
0.0200,-13.8195535,22.1495909,7.460685379
0.0250,-13.01514138,29.7588321,6.521428244
0.0300,-2.845041602,24.52840673,-0.2780850747
0.0350,8.350992579,27.94945525,-0.3927501345
0.0400,6.314357963,7.405532625,7.910878282
0.0450,7.51861582,16.2214617,-3.284935209
0.0500,17.7353026,8.775184383,-8.172559575
0.0550,13.07770376,0.537090702,2.506625665
0.0600,10.67590408,5.181194111,-6.324818942
0.0650,27.26023716,0.4600964074,-4.32505852
0.0700,11.98017991,-4.267946492,-6.69351879
0.0750,21.75402522,-0.5987829928,-6.949901086
0.0800,18.0941628,-2.848337799,-7.015666985
0.0850,24.57817963,5.580630655,-7.091795889
0.0900,16.73231098,2.497832319,-13.11612207
0.0950,20.1472154,-4.668927911,1.326760588
0.1000,15.10911937,2.010663176,-0.01924716013
0.1050,4.789781084,1.307448723,-4.739835857
0.1100,11.17360359,6.616086008,-4.887275082
0.1150,1.76019866,7.913345977,1.391557587
0.1200,-2.110516493,13.46047896,-4.442740965
0.1250,-10.33480493,14.85089566,-1.549256224
0.1300,-10.08361075,18.04613849,-4.141730356
0.1350,-14.56985444,11.15272125,0.333602748
0.1400,-17.69178624,21.88526244,-4.559988028
0.1450,-16.96748795,20.48709002,-5.97533162
0.1500,-30.58335866,22.08483848,-7.128713927
0.1550,-23.26492393,22.96925428,-9.34268918
0.1600,-29.32795215,21.87453129,-14.35190758
0.1650,-24.22316298,12.34535449,-10.69342097
0.1700,-28.13318285,19.81434613,-16.01034889
0.1750,-20.8875421,14.11023512,-14.32583404
0.1800,-16.89997673,11.19593885,-13.6379961
0.1850,-6.514239549,16.99183353,-17.02908047
0.1900,-9.037338179,-1.81588429,-7.35200696
0.1950,-9.6793119,-0.03554341742,-13.25377801
0.2000,13.54014964,-10.04549433,-15.77205495
0.2050,10.68559857,-11.67291215,-11.40052785
0.2100,17.0011745,-28.54963588,-4.649722857
0.2150,26.26789264,-33.50075281,-2.345373639
0.2200,34.84414738,-38.64244393,-9.558760524
0.2250,37.65948518,-44.85724166,-7.436169243
0.2300,55.75574632,-51.84535139,-4.207508348
0.2350,47.61138195,-43.4678635,-3.477394528
0.2400,53.00891418,-53.08367398,7.947242196
0.2450,52.77372402,-47.49935804,14.94040603
0.2500,49.22664411,-37.14801803,16.96607401
0.2550,49.48003184,-44.61788347,27.90455905
0.2600,58.74694334,-41.09911269,25.4093248
0.2650,49.36327014,-38.96432496,28.83127331
0.2700,59.5215314,-30.29095142,19.05149873
0.2750,42.22276562,-41.86316046,27.36428072
0.2800,44.47165732,-33.38124684,11.7568151
0.2850,41.69221205,-28.50018004,2.605313629
0.2900,44.13246171,-28.7231685,1.384429576
0.2950,21.65211743,-24.7852675,1.597207793
0.3000,27.0295702,-23.71262152,-8.113126541
0.3050,16.8650781,-21.97105258,-5.992929122
0.3100,9.621929873,-20.21860663,-6.282983673
0.3150,-3.24127315,-15.97969721,-1.270753899
0.3200,-13.47743984,-13.4033577,3.435151601
0.3250,-6.443630208,-7.628519359,-5.524905088
0.3300,-17.03988222,-0.05561783169,6.618666675
0.3350,-22.23488224,7.237524393,6.417741841
0.3400,-36.75499174,-0.7573037047,17.59281385
0.3450,-36.07398989,8.008634874,12.11655498
0.3500,-33.32815755,25.83722181,-0.8153482763
0.3550,-28.46649295,15.89431143,8.091564627
0.3600,-42.04580684,9.098075248,5.749258802
0.3650,-39.67506166,17.46553778,-1.286469834
0.3700,-36.99463148,8.527506562,3.171500324
0.3750,-41.9290556,26.00534135,4.772327132
0.3800,-44.48840398,32.03233719,0.1210980432
0.3850,-40.20921027,51.1169047,-11.68976782
0.3900,-41.77684835,45.38878954,-7.910449767
0.3950,-37.60556833,58.97000719,-14.79544428
0.4000,-50.14494706,44.90992817,-6.036037948
0.4050,-36.90566311,46.34607462,-16.5855554
0.4100,-34.70350782,35.02049663,-9.006333299
0.4150,-22.8508864,31.83926756,-8.613013028
0.4200,-32.55203691,20.10411277,-15.36038835
0.4250,-19.15573314,8.167497187,-9.586852725
0.4300,1.612729873,1.79902672,-10.89722579
0.4350,1.349561949,-3.94402316,-8.014955874
0.4400,7.888010504,-8.639863606,-13.69992327
0.4450,16.75970457,-14.80357952,-14.52096674
0.4500,18.67840889,-15.71706005,-10.54149959
0.4550,15.46008567,-14.31265964,-5.498471033
0.4600,36.51731655,-10.22267941,-7.003091018
0.4650,19.75152851,-17.21290817,5.893743726
0.4700,46.7487314,-4.042862697,0.9054649336
0.4750,31.37668243,-5.975871916,3.380181565
0.4800,34.12556746,-3.44112175,-7.016017869
0.4850,46.06909035,-5.835356505,8.20458059
0.4900,48.23717731,2.523687002,-5.895484254
0.4950,37.50102965,-1.635625346,5.301396264
0.5000,35.56245585,1.023944787,-2.709110713
0.5050,33.17696953,10.14250356,-5.798244292
0.5100,27.23660628,20.1139035,-4.722224269
0.5150,19.06320203,8.182508539,0.8418524817
0.5200,20.99797644,16.83265978,-6.10123544
0.5250,6.272515755,10.66111498,2.585912747
0.5300,-2.015819328,19.61289954,-1.338716264
0.5350,-11.06283685,17.33999935,6.843580141
0.5400,-6.385774128,13.12107804,-0.3859714618
0.5450,-16.59555978,18.00450615,-0.7666664712
0.5500,-17.72459798,24.81105079,-1.337069382
0.5550,-19.38628145,22.66180526,0.04144196098
0.5600,-16.99135229,26.88677309,1.468774596
0.5650,-20.71955809,24.86079727,11.05410351
0.5700,-29.93984985,24.29286933,13.18606542
0.5750,-22.85129091,25.18740516,18.72589025
0.5800,-21.5784555,30.24776895,19.43601237
0.5850,-29.05574178,23.22921038,29.00020213
0.5900,-31.58054228,25.08973589,22.57409395
0.5950,-30.67344736,27.96278374,23.35178474
0.6000,-22.63599676,35.98060637,15.55714596
0.6050,-17.96694298,25.21327726,26.00064096
0.6100,-30.90279363,33.06426196,19.30533746
0.6150,-28.49294186,32.21741128,14.92077839
0.6200,-13.66576559,27.91067257,8.361822129
0.6250,-26.2182536,22.86760158,11.3110441
0.6300,0.5285715769,13.70008467,10.3395217
0.6350,3.201856324,7.29473902,11.89109578
0.6400,9.439593672,-3.521098121,9.682304573
0.6450,16.76606992,-16.54090315,17.82029314
0.6500,20.57597162,-19.92795298,5.916805555
0.6550,17.31634992,-26.46197852,6.653029596
0.6600,31.91226143,-21.06762591,-5.567440512
0.6650,28.16400726,-29.03412256,-2.662589539
0.6700,30.28181303,-28.58157635,-4.756615073
0.6750,32.49644094,-30.15064002,2.731390772
0.6800,26.18754388,-26.3500498,-7.492430847
0.6850,28.69609481,-23.53495505,-6.075127881
0.6900,31.72185912,-13.21234656,-14.26328502
0.6950,25.83179311,-13.87852767,-10.48502508
0.7000,33.56322359,-10.48916932,-8.546792755
0.7050,32.7198256,-14.40214954,-4.811101211
0.7100,40.92597639,-8.468732578,-8.030712899
0.7150,45.90594566,-7.992057045,1.750749374
0.7200,45.25040617,-25.51319588,0.9893740379
0.7250,52.67832153,-16.68762481,-3.49443559
0.7300,57.16951967,-21.85030478,-3.924558457
0.7350,60.90707917,-18.61994802,-5.97493708
0.7400,44.0261382,-14.83855203,-7.013637823
0.7450,45.91637634,-8.653204305,-7.42449429
0.7500,38.65217715,-11.67150545,-6.40723754
0.7550,46.91928463,-5.845219126,-8.694985835
0.7600,34.14671916,-5.934171542,-9.083067259
0.7650,16.51587535,-3.076906349,-15.07423993
0.7700,23.0087446,-5.352074756,-4.873662528
0.7750,7.048113247,5.607188308,-7.067769371
0.7800,-2.632403842,4.764113486,2.323281627
0.7850,0.8531505094,18.81137029,3.178161757
0.7900,-15.16354105,11.68650893,12.2029983
0.7950,-20.73224978,15.21798712,12.35727688
0.8000,-21.73856342,10.89792282,14.06373937
0.8050,-13.16472869,9.688583988,12.47826672
0.8100,-31.12366974,10.09701901,10.0883917
0.8150,-36.39017909,5.594562786,15.0585573
0.8200,-25.30971482,1.710499891,14.23243599
0.8250,-26.96343981,4.964382545,2.08295114
0.8300,-19.20657208,-10.8843254,7.590555993
0.8350,-20.37671836,-12.96758138,11.99515835
0.8400,12.68705932,-6.355296885,3.084845236
0.8450,-13.50342116,-15.59830702,8.980917555
0.8500,6.163417944,-16.75666418,14.42377117
0.8550,-1.675873152,-11.88405041,15.40981135
0.8600,-11.4722893,-8.034395811,10.82017086
0.8650,-7.648552393,7.369987794,12.71483072
0.8700,-15.2355489,12.04167975,16.17736201
0.8750,-3.125012925,17.3153675,11.27249346
0.8800,2.976604638,9.146667549,16.99888011
0.8850,16.88100456,11.95335251,3.842655414
0.8900,10.0894709,3.743111585,7.653425186
0.8950,24.18620173,3.171247588,10.1544594
0.9000,29.25706181,6.106210878,6.701117124
0.9050,16.42499676,-2.155284246,11.28386646
0.9100,20.91864582,-5.705754585,6.860572356
0.9150,23.20087242,-0.3324775975,-0.3290927255
0.9200,9.37042092,-9.086680048,7.592750161
0.9250,11.79332982,1.962642923,3.589445227
0.9300,-7.724108417,-1.734864694,8.729282463
0.9350,-12.12512423,6.651951667,5.675751173
0.9400,-16.19975339,-5.130830276,12.17097641
0.9450,-9.384860324,0.285185304,2.637275541
0.9500,-1.842721078,1.230071965,-6.676981374
0.9550,-9.053578791,-2.934436052,-4.18512546
0.9600,-1.968711046,4.495581728,-2.03471052
0.9650,-9.441526256,1.842655456,4.167677787
0.9700,-1.146646849,1.400326018,1.720886165
0.9750,-16.41659393,13.67279404,2.439683179
0.9800,-15.96581592,7.481565531,5.73801677
0.9850,-12.7284452,21.11475503,-4.513015559
0.9900,-33.41941094,23.59296526,6.309381358
0.9950,-36.60033404,13.08841554,15.15020729
1.0000,-38.02281304,19.49092325,11.69621518
1.0050,-31.68922624,12.09769334,7.612719747
1.0100,-7.185062514,17.17785441,7.715953235
1.0150,-18.86817247,4.10008944,12.35791907
1.0200,-8.097616512,8.37744413,4.247301502
1.0250,-11.16902897,6.209525309,7.225640221
1.0300,-6.677257552,8.183227342,0.4050056096
1.0350,-3.83572327,-0.8422440222,3.979550644
1.0400,-2.504424151,-4.270139701,-7.162686766
1.0450,-4.938635503,-1.515665598,-17.97583619
1.0500,0.6749756783,-1.858861061,-19.56084444
1.0550,-2.842145881,-2.031374243,-12.82634918
1.0600,-9.685361089,-4.390901674,-10.74668448
1.0650,1.827274118,-8.332542973,-3.992327693
1.0700,-7.065032852,-7.550595833,-2.742412754
1.0750,3.286284384,-2.507411543,-3.534443809
1.0800,19.60022754,-4.420231163,-7.346347937
1.0850,20.60427985,0.2362619212,-3.307073189
1.0900,29.55591598,0.072570439,-4.35860712
1.0950,24.91173901,10.13832932,-0.5453020048
1.1000,41.05009389,5.920847241,0.1795247795
1.1050,30.76097795,6.935370242,-4.297137456
1.1100,45.42106073,2.841484183,-3.135592629
1.1150,39.13836498,5.009369687,-2.632403274
1.1200,34.59755567,4.185512126,6.937753732
1.1250,16.23683362,6.130054358,13.08259379
1.1300,38.14485436,17.081884,10.42774008
1.1350,41.45509729,10.15448497,17.41310509
1.1400,40.2293368,23.56566979,12.01889384
1.1450,66.64608629,14.19851198,30.28253133
1.1500,74.76503891,19.27526567,39.65092096
1.1550,75.26449961,24.19654618,42.6444002
1.1600,73.56165701,15.59464134,46.90941884
1.1650,66.865917,1.856515491,35.19754547
1.1700,69.01129878,7.097809595,13.14206826
1.1750,46.40304611,-11.26960176,13.66105002
1.1800,38.53103656,-16.76816265,8.608321675
1.1850,31.99920808,-22.30813422,13.34958847
1.1900,38.13930622,-16.54501164,1.349587443
1.1950,26.9741166,-21.98759719,-0.6914792492
1.2000,26.78393809,-14.30497216,-4.139072094
1.2050,20.35305807,-18.39912481,-5.003256853
1.2100,26.01809029,-11.65949994,-0.4894126993
1.2150,44.30345209,-10.09985235,3.714884053
1.2200,17.25918678,-6.464658751,4.581128404
1.2250,20.92218274,6.535444326,-4.470823911
1.2300,15.72255568,0.1965214846,-10.81352694
1.2350,9.037705128,1.188680665,-8.419014101
1.2400,27.97850741,-9.423796217,-8.73070806
1.2450,22.87366176,-12.97759971,-6.887536654
1.2500,32.07891453,-13.02985733,-4.590350808
1.2550,38.33709231,-15.05113498,2.089026781
1.2600,45.6315961,-28.4355106,-2.975955894
1.2650,32.40006291,-22.50937736,-5.132754564
1.2700,53.13506155,-17.38320239,-9.118928661
1.2750,46.22522002,-16.90342494,-8.179101595
1.2800,45.51344114,-13.59311711,-12.05321922
1.2850,56.06469869,-24.27839542,-3.725319989
1.2900,49.62144855,-13.0520642,-14.93606595
1.2950,49.99655764,-19.54514542,-7.133847385
1.3000,61.46921924,-14.7450359,-12.48861629
1.3050,69.66571376,-20.2380535,-3.377797315
1.3100,67.80520906,-13.58908278,-0.7618039579
1.3150,60.57722407,-11.53570364,3.282456845
1.3200,44.17762862,-4.059762874,-0.5854885974
1.3250,39.05968324,0.7523231657,-5.230210613
1.3300,25.30858581,4.711002491,2.747737377
1.3350,0.1398650397,9.37054425,6.353416611
1.3400,-5.617842486,8.810333006,9.847795636
1.3450,-11.08890175,13.50679077,5.299007616
1.3500,-6.306825298,13.81172972,2.275981735
1.3550,-4.975707615,4.904448401,8.664416715
1.3600,4.659254391,2.980551281,1.744737449
1.3650,-14.88511482,-8.237605094,9.432658682
1.3700,-17.58518288,-7.74105406,7.06946845
1.3750,-14.33742951,-8.51021032,4.517252074
1.3800,-29.32649964,-14.34443763,4.461668705
1.3850,-2.834603017,-16.96829234,16.64619898
1.3900,-5.697078477,-11.0954817,8.428992108
1.3950,9.360836093,-14.71578844,9.653368136
1.4000,6.243287785,-7.81537583,5.577782567
1.4050,-2.033592222,-1.924667915,11.11954635
1.4100,-0.308468108,-0.5788853531,13.68777405
1.4150,-13.77909213,12.07660223,14.2622905
1.4200,-12.56416273,7.525579979,7.231475728
1.4250,-25.01247193,15.69142952,9.441770139
1.4300,-6.071805571,11.37885152,5.016653642
1.4350,-17.27794643,11.38807657,0.1022683647
1.4400,-11.60871313,8.76541777,-0.04094836951
1.4450,-11.17056742,7.309831916,-4.773145591
1.4500,2.914140325,-11.02947911,0.363658879
1.4550,-1.483327111,-12.35594216,-1.460255832
1.4600,4.828910898,-11.16664748,-3.687362365
1.4650,16.6194127,-20.51723928,-4.268470868
1.4700,19.83513414,-18.5272526,-6.08494392
1.4750,4.417127556,-14.93318575,-9.263165295
1.4800,6.064731298,-19.7522587,-11.84790756
1.4850,12.00746844,-12.56188756,-8.195677399
1.4900,3.049800003,-14.31794171,-13.8422877
1.4950,2.063287507,-10.68382318,-4.781425125
1.5000,0.8380612149,-5.239750238,-9.827516871
1.5050,-6.380140332,0.4232002615,-0.9457155018
1.5100,-7.255877696,9.801831698,-3.394499022
1.5150,-35.80271306,17.26376107,-0.1258288186
1.5200,-48.75867917,19.01535274,5.180747195
1.5250,-48.03137279,22.00156432,-1.891213233
1.5300,-62.04802415,20.28134202,-1.927343206
1.5350,-55.38994531,10.03412275,0.5471859793
1.5400,-50.84296454,3.219275483,-3.357416781
1.5450,-63.56548323,4.272684408,-3.654715451
1.5500,-52.84944804,-12.43929105,5.560795311
1.5550,-52.81324612,-5.333552262,-0.6031699823
1.5600,-48.85443875,-5.413110165,-6.166478616
1.5650,-31.54010769,0.4299582964,-0.04210302879
1.5700,-40.89215025,4.690394029,-1.071771686
1.5750,-46.54406213,22.51237766,-2.632630131
1.5800,-24.3666919,25.18229997,-8.214971321
1.5850,-42.28431814,16.0683963,3.460831544
1.5900,-13.21949199,18.36906144,-0.5380441996
1.5950,-18.87589832,25.56568766,-2.469112241
1.6000,-22.38572888,25.8354523,-1.681720026
1.6050,-30.78650292,27.01390279,-1.537932862
1.6100,-19.18721604,25.89182834,-11.33161877
1.6150,-31.49849808,22.85666035,-14.71928905
1.6200,-29.34210304,10.3057474,-19.1369831
1.6250,-5.142524817,9.014895321,-23.51377066
1.6300,-9.648019349,-12.77423719,-19.28833768
1.6350,-12.32871058,3.778865093,-23.66658155
1.6400,-4.412846269,-4.727200415,-20.52550911
1.6450,-2.720812461,-3.74854195,-20.75173841
1.6500,-9.00074778,6.625181785,-18.14627976
1.6550,-16.66036699,0.8224415906,-5.101106418
1.6600,-14.72835342,4.236834238,-8.745062579
1.6650,-11.98369399,1.435196401,-7.874255425
1.6700,-14.36286999,9.341311159,-1.40040785
1.6750,-25.88246359,17.2372085,6.345051416
1.6800,-16.31092998,19.68187169,7.983921743
1.6850,-32.71038861,18.54654921,13.29671443
1.6900,-24.390011,29.51351914,12.59577781
1.6950,-32.46733255,24.41992893,18.17113736
1.7000,-15.1919252,25.27238265,18.78488672
1.7050,0.01284694501,35.97516569,9.737253105
1.7100,15.60832248,33.97539976,5.100781423
1.7150,-0.8311410303,25.45120632,10.02876013
1.7200,-5.505832202,16.72556454,14.91316508
1.7250,-14.21740019,7.563053732,22.04488961
1.7300,-12.23450146,19.19566109,23.8182809
1.7350,-12.82721091,12.42989773,27.4729891
1.7400,-7.021884779,17.77738027,16.42209323
1.7450,-2.023338805,13.42423232,6.687686738
1.7500,-11.14873945,4.130711782,5.68159944
1.7550,-27.03719517,15.08466555,0.7852237452
1.7600,-29.4364229,14.06915025,-1.834000281
1.7650,-21.37592191,18.57778383,5.419339639
1.7700,-7.443610105,20.52907796,1.881015801
1.7750,-27.33865894,17.57636719,2.194431906
1.7800,-15.90268312,7.810170168,-0.7840568612
1.7850,-9.855810132,-12.4474725,0.9150745996
1.7900,-5.917687148,-17.21603344,-8.10126207
1.7950,6.040754538,-7.792300235,-19.36125764
1.8000,-0.1886828256,-8.097814489,-18.18856782
1.8050,-5.282380248,-1.55452198,-13.30865237
1.8100,-5.272549885,-2.239167597,-5.462261792
1.8150,-11.42326462,7.174902585,1.474576195
1.8200,-3.256052385,12.91046948,2.016945156
1.8250,-1.806605325,9.904430134,3.128862083
1.8300,-1.010457811,16.30707556,3.026360294
1.8350,6.304349773,21.09342003,8.424099189
1.8400,-18.75590703,23.0161339,13.4273062
1.8450,-16.6716288,15.0063763,19.18026091
1.8500,-11.50744259,20.03490966,16.04675943
1.8550,-23.35136099,14.99613541,13.17967247
1.8600,-4.441524197,6.394377742,3.972241964
1.8650,-4.501255528,2.332288389,6.452509569
1.8700,-16.2915921,3.855653644,-10.99800043
1.8750,-26.18008791,-2.976285022,-8.568147992
1.8800,-6.126819231,-0.3637069259,-15.36285019
1.8850,4.858312604,3.709009707,-13.3454452
1.8900,9.386439906,-1.729117316,-7.864775411
1.8950,13.96882405,-1.411742448,-1.925986303
1.9000,-0.6205176887,-9.271356839,7.710278766
1.9050,-2.690247683,-5.81151585,14.57382815
1.9100,-15.01997987,6.611877382,6.515781039
1.9150,-24.5059109,5.019173851,9.352873417
1.9200,-10.06839268,5.492638994,12.53535768
1.9250,-32.32880305,9.167825145,7.747297881
1.9300,-16.76109149,10.12541637,1.275400746
1.9350,-0.3320273513,3.780423597,-9.178610177
1.9400,-3.341949022,2.892141903,-17.28099398
1.9450,-11.05066542,5.164086062,-21.45161021
1.9500,-9.579148584,-0.2884189523,-23.21587215
1.9550,-8.967709148,12.3567468,-32.37780478
1.9600,-7.628916336,1.957478919,-29.8648009
1.9650,15.78873033,5.863818466,-37.27835586
1.9700,0.2888475954,8.449510986,-32.44126243
1.9750,-7.523261151,10.21365109,-17.35839141
1.9800,-13.09650021,7.52958765,4.89797393
1.9850,-14.09302891,9.159948186,22.35134037
1.9900,-19.62928928,18.69963541,21.89126284
1.9950,-39.289355,12.38658814,19.68779274
2.0000,-31.90946434,6.961716498,13.35006895
2.0050,-18.87571194,8.971612389,5.751995051
2.0100,18.29170924,15.31095973,-8.950786961
2.0150,-1.741567346,3.249599318,-18.38647724
2.0200,-0.4285111332,-10.08831717,-13.58517769
2.0250,3.456800829,-5.345549312,-5.256397599
2.0300,8.934368644,-5.581209429,14.9617945
2.0350,-3.476697096,5.637965476,21.8970642
2.0400,-18.81685837,5.387418017,27.69031191
2.0450,-3.895127665,17.97145347,15.1938731
2.0500,-6.01338257,15.90354932,15.05187021
2.0550,-7.355314413,22.11939628,4.037211502
2.0600,-0.1814523045,12.94850788,0.9243541929
2.0650,-8.563277423,16.24408678,-3.162296195
2.0700,-2.538135301,-3.654280476,1.839730015
2.0750,-5.473266572,2.231503959,-2.847258569
2.0800,-18.05784617,1.204079793,-6.361187125
2.0850,-15.76312439,-1.953270022,-10.19166098
2.0900,-14.84472801,-8.521526462,-1.904734861
2.0950,-23.37106991,3.581155771,0.9085880581
2.1000,-23.47670192,2.197293997,2.884166913
2.1050,-17.5982282,21.47777184,-10.78747098
2.1100,-31.62876073,14.70121028,-12.54178727
2.1150,-26.10028012,4.268353236,-9.938955757
2.1200,-36.1991228,7.471680344,-14.68778976
2.1250,-22.1620042,-0.4852402977,-11.8841424
2.1300,-35.43913131,-0.3659688537,-11.55354942
2.1350,-0.9455581055,3.394592756,-11.5567767
2.1400,-5.998605138,-1.974755032,-12.35937819
2.1450,-15.91383905,-11.89103888,-1.814016322
2.1500,3.145354872,-9.945088205,3.23650037
2.1550,-5.795437131,3.281729932,18.26508969
2.1600,1.330215915,18.17349267,24.16841467
2.1650,-3.75396932,25.74395841,34.97866989
2.1700,-8.192014704,24.1395747,28.72080866
2.1750,-1.567953275,15.0224581,28.84846912
2.1800,0.4098298845,22.78720201,26.37431606
2.1850,8.832937551,37.91645448,20.62225832
2.1900,16.08631105,26.2388222,20.1727318
2.1950,26.16900552,31.45526579,3.596120232
2.2000,10.8947267,17.10149489,4.840281059
2.2050,21.56261076,6.461754383,2.526993836
2.2100,-7.138987588,4.496110729,11.73741961
2.2150,-9.402779528,0.5548652152,10.74700906
2.2200,-1.735813079,-4.702574627,-4.630724473
2.2250,8.044810781,0.731816633,-18.46197885
2.2300,-4.321853513,-10.14117434,-11.52042971
2.2350,-5.311108453,-14.6550398,-0.366889054
2.2400,1.340465153,-19.73407148,1.140071043
2.2450,11.50794078,-16.10871194,-4.614850391
2.2500,5.045137334,-14.43269396,-10.04669675
2.2550,4.806029426,-15.15278766,-9.92489757
2.2600,3.40112633,-3.694503546,-6.536840395
2.2650,-3.126548733,3.219005614,-5.314460248
2.2700,4.352285447,5.189202487,-3.139464099
2.2750,-3.835192978,-5.296465081,-0.839866666
2.2800,-15.31007632,-19.37300253,13.07118681
2.2850,-9.87490992,-3.338715636,15.91678164
2.2900,-12.83297529,25.57265507,19.93998085
2.2950,-26.15952368,31.21528415,15.56500144
2.3000,-13.50930156,24.17141441,9.97408892
2.3050,-19.70252564,24.09300547,-0.4239819851
2.3100,-13.48741052,18.06417979,6.64119231
2.3150,-12.57569522,6.03109015,11.30321496
2.3200,-16.42659466,9.340144864,-0.7828755763
2.3250,-18.74129433,0.4701516945,2.565417004
2.3300,-11.98639036,-33.14294084,0.2869119586
2.3350,-20.70209058,-38.90969785,3.116685105
2.3400,-8.644565395,-36.47980481,6.500322723
2.3450,-15.37628124,-5.314747582,4.872831633
2.3500,-17.08519099,11.78900824,3.756944953
2.3550,0.08164191338,7.548666787,0.5614338615
2.3600,-2.288065268,-3.182143737,-2.99358575
2.3650,17.26544024,-2.648598679,-12.04722755
2.3700,11.96566502,-9.492772696,-12.04985348
2.3750,29.67580987,-17.6851429,-24.55832848
2.3800,37.34952028,-27.40108088,-22.99316289
2.3850,26.79927982,-12.28274889,-1.187091242
2.3900,4.663699519,0.3893390363,12.68602919
2.3950,4.944435434,14.63007273,22.4488954
2.4000,-5.673647328,5.18743749,22.4246909
2.4050,-7.72255039,0.6312932451,20.82294932
2.4100,-11.60962896,-0.2617922455,14.15385461
2.4150,-6.391398891,-0.1689380986,10.41915589
2.4200,5.54775271,14.03003867,-6.099552239
2.4250,-13.01112818,9.460251349,-5.254654521
2.4300,-14.36521093,-14.38837362,2.623827914
2.4350,0.4501419573,-11.1742458,-6.324090239
2.4400,-3.042655441,-17.0316007,-6.93706708
2.4450,2.473537817,-9.313911738,-9.505208129
2.4500,-2.724583003,-9.343124879,-7.665722903
2.4550,11.36476411,-23.81411448,0.8322867066
2.4600,-16.94306672,-16.12470983,2.248549458
2.4650,-14.97508804,-8.441571111,-5.212597505
2.4700,7.252513118,-6.52056942,-21.05879894
2.4750,3.665641042,-14.87291877,-19.34416885
2.4800,-3.970380867,-12.09556315,-26.18682377
2.4850,7.239532426,-8.177487247,-24.00545147
2.4900,9.924222621,-0.1554157828,-25.02438492
2.4950,-1.843780377,-21.0871662,-6.824454776
2.5000,9.678986068,-35.6144258,-3.800334031
2.5050,-2.270117254,-41.44397877,9.65927824
2.5100,4.440163028,-30.50763299,16.10478787
2.5150,11.43127142,-5.911934611,14.95706969
2.5200,-2.471706384,-14.3605045,7.750328462
2.5250,8.211483932,-7.083593727,0.7651174414
2.5300,-10.96979166,-10.56206096,2.995934705
2.5350,-3.872417137,-8.295491349,15.92185416
2.5400,-5.949144107,0.3210346635,15.36358583
2.5450,9.815953921,-3.191088463,10.70847379
2.5500,-8.711699289,17.20930814,6.609352873
2.5550,-0.8703195298,5.251475604,7.283762842
2.5600,10.34388673,-3.037577614,7.365345008
2.5650,15.16642708,0.1436732755,-12.28039232
2.5700,32.187557,-6.430361463,-28.13997119
2.5750,39.34459801,-12.97784398,-21.10766141
2.5800,40.9093114,-5.78426671,-10.47070575
2.5850,33.47728514,-18.72207601,14.81633224
2.5900,10.79282929,-16.10798351,32.53246
2.5950,10.21689041,-4.053600157,31.23893255
2.6000,32.44641042,3.148191936,17.79105734
2.6050,34.77822217,18.23805169,2.742790633
2.6100,33.26046003,15.0506126,5.625982565
2.6150,27.70992156,9.890157745,8.133850896
2.6200,3.492588259,-9.862899498,16.07560109
2.6250,19.29541702,-1.681840577,26.80108323
2.6300,5.314430854,20.27557106,24.2356854
2.6350,27.48593031,23.89183053,7.343876632
2.6400,16.38098784,2.218444209,-3.027985633
2.6450,24.4913482,-17.87117489,3.282592216
2.6500,32.72996615,-14.54333576,5.89027343
2.6550,10.28937404,-11.13448444,16.62700203
2.6600,-1.630182524,0.6415822461,-3.61797514
2.6650,10.60362526,-4.162208022,-19.00350558
2.6700,28.10715515,-9.267631426,-27.85089019
2.6750,33.82652125,-12.01241887,-22.99722984
2.6800,26.0269671,-8.565689488,-17.96928589
2.6850,13.48725488,-2.88409054,-19.39895822
2.6900,16.61331754,1.008129641,-15.54240018
2.6950,24.87769319,-1.93426923,-8.646983525
2.7000,21.1765036,13.10214812,-0.6215038835
2.7050,17.93352886,8.951961062,8.192944811
2.7100,20.97434423,3.25387871,7.619726456
2.7150,31.17676908,-5.766744742,4.992028239
2.7200,32.93039406,-17.32982576,2.238748552
2.7250,14.14504794,-14.91546148,14.55417025
2.7300,6.384122434,-14.03317151,16.74848992
2.7350,5.570944581,-5.029091389,2.580026047
2.7400,13.38413212,-6.502086002,-10.49960337
2.7450,20.30970177,-7.23638765,-23.05131162
2.7500,13.28029213,-12.1742739,-4.367876507
2.7550,2.951286415,-11.91429792,2.323560587
2.7600,11.37426824,2.473079725,-14.59790322
2.7650,11.55607555,-4.660737881,-14.3017934
2.7700,17.93011216,-4.90723919,-9.152865756
2.7750,20.71577543,-21.88066326,19.03980591
2.7800,0.3658643715,-5.898634894,19.44875594
2.7850,16.68105374,4.731330777,18.94867857
2.7900,7.984904513,3.661314987,8.641616197
2.7950,5.782604253,-1.720757554,6.032430851
2.8000,7.265801975,1.429225428,2.572090521
2.8050,20.24471026,-12.91997774,10.04760276
2.8100,22.08909084,-6.121725672,-2.893784629
2.8150,5.277631109,-3.732840097,-5.492664444
2.8200,-1.047315271,-3.217764086,-12.25180889
2.8250,15.13775469,-1.85605273,-7.796950651
2.8300,2.420908912,-15.41726819,11.73153017
2.8350,5.727059738,-11.74538955,26.19583437
2.8400,-3.047771459,-10.87298602,24.0902959
2.8450,-11.1286862,-4.761086681,19.20736952
2.8500,-1.075370265,-2.79838249,-3.343054215
2.8550,7.772846633,6.152867314,-20.54520043
2.8600,2.428268331,-13.05632061,-10.14584038
2.8650,18.43884208,9.965570962,-27.46700132
2.8700,8.987313738,0.5367204014,-19.20667326
2.8750,-0.1543110469,-9.6934268,-13.08867307
2.8800,6.155621985,-14.61435773,-5.137017926
2.8850,12.7671508,-14.57066974,-15.32279417
2.8900,24.69603045,-18.21635215,-15.64097335
2.8950,18.49957416,-12.18004646,-12.25212821
2.9000,13.18014426,-21.38018626,-3.470708203
2.9050,4.907945889,-7.633574508,-3.280230842
2.9100,-1.372072837,0.6522525012,-2.769571907
2.9150,-4.090845464,-6.298473384,4.208817303
2.9200,2.174974289,-1.42064007,7.48890184
2.9250,8.357709251,4.961702383,11.05737049
2.9300,14.27339487,8.810224239,17.20105857
2.9350,19.65806665,20.0937657,5.078018865
2.9400,7.628063617,10.48918438,8.610783284
2.9450,18.44701616,-1.159884924,4.510134437
2.9500,-10.71723555,1.433089165,0.4268726758
2.9550,11.66198375,-1.209594258,-17.36259261
2.9600,10.5773753,-6.354729543,-15.36692284
2.9650,23.38439511,-17.8090774,-11.82186982
2.9700,-2.07029972,-9.039597489,-14.34672105
2.9750,8.36861066,-15.92575701,-17.77417815
2.9800,9.907196678,-3.610685624,-25.99545983
2.9850,9.178337276,-25.15417376,0.6238412093
2.9900,5.559131219,-14.36209716,2.167524762
2.9950,7.941494252,-13.67420314,-4.154704914
3.0000,5.710122368,-4.235097131,-28.18806679
3.0050,-0.1386050297,-1.997863878,-32.76559848
3.0100,20.24167294,-1.440834304,-28.06519082
3.0150,8.080217958,1.745994718,-11.33351136
3.0200,0.9914336254,10.9841028,0.9560583258
3.0250,13.35662841,3.751979061,11.75971737
3.0300,-0.4758251385,-5.195379142,24.18907907
3.0350,-2.050229912,17.46099684,15.29272462
3.0400,1.836263984,8.384889822,8.252184987
3.0450,-8.162293635,4.059590151,14.76972978
3.0500,10.22638383,-0.3614262827,15.13434854
3.0550,-2.061348415,2.825845427,33.10051214
3.0600,4.776686953,-7.487042384,30.88316717
3.0650,9.453488748,-14.79338476,10.00339355
3.0700,27.02385862,-17.69301189,-7.359171215
3.0750,43.9135022,-20.12702485,-26.68978796
3.0800,20.32589052,-26.87356139,-33.60159032
3.0850,45.84309597,-31.21608848,-40.52657594
3.0900,50.16512583,-30.80811705,-43.98822076
3.0950,35.13422679,-41.08126947,-35.12797052
3.1000,31.03353755,-28.4282077,-39.16263432
3.1050,46.61951347,-38.09282498,-18.70397846
3.1100,26.46341717,-19.12332364,-13.07429663
3.1150,32.82900322,-7.5265125,-32.16891454
3.1200,24.90147521,6.275018276,-28.62277164
3.1250,25.34766129,12.48607063,-27.57269028
3.1300,14.72086794,16.82714539,-23.22299124
3.1350,7.93990327,22.19166659,-16.99088103
3.1400,22.38328505,29.15729998,-15.80596336
3.1450,28.80681153,33.8469669,-15.51391211
3.1500,5.678953847,22.47992805,11.93448885
3.1550,18.97859872,31.84989331,18.40527764
3.1600,14.0409416,31.9469368,33.89820348
3.1650,9.399447028,23.3114072,48.79859119
3.1700,12.1687178,-2.739944614,60.50859293
3.1750,6.144282954,-3.62386222,39.25609358
3.1800,23.19815371,11.5833039,-7.268492477
3.1850,38.9731031,-3.692492556,-21.06768585
3.1900,38.08578086,-4.067377187,-12.50121909
3.1950,0.9104234174,-12.86318514,16.35921378
3.2000,-5.673476803,-3.93810652,13.1624085
3.2050,-4.097112925,6.223082634,-7.069643678
3.2100,28.7120945,-5.739114458,7.64359018
3.2150,17.85167269,-22.66230232,36.1092541
3.2200,11.41384935,-0.4761386947,23.11382646
3.2250,-1.507512288,5.432567549,11.26579631
3.2300,-14.58771584,0.9809147073,5.363435161
3.2350,0.5036183335,-1.711095923,0.6192978933
3.2400,20.29320152,-1.547688625,-4.376010741
3.2450,37.53391429,-7.537015051,-21.55615516
3.2500,19.52850945,0.6827050068,-26.05924508
3.2550,11.84417381,2.961827239,-15.4332169
3.2600,-10.72055666,-8.529531739,3.731773967
3.2650,10.99141963,5.448905415,-4.647834002
3.2700,16.08955187,7.584628243,-13.88764626
3.2750,31.98550947,14.90040911,-35.92286787
3.2800,21.67312049,2.76318271,-31.69570718
3.2850,16.39527131,12.15042483,-16.53667057
3.2900,11.56381373,5.095316324,1.295828063
3.2950,15.69006922,9.062331966,15.31789892
3.3000,7.9835306,1.563954675,23.81719981
3.3050,2.206772883,-8.380420623,24.44897266
3.3100,2.349693157,-19.32263707,21.52893548
3.3150,6.593978674,-16.1733298,22.49853698
3.3200,10.40324757,-9.520773095,-5.427322289
3.3250,5.320451008,-28.41210993,-0.4949092633
3.3300,3.235501374,-17.67438924,-7.613331704
3.3350,-10.19026919,-5.862562379,-5.853942992
3.3400,-13.3941402,-7.325468623,-24.31234834
3.3450,-3.695241626,-4.739263661,-25.02331873
3.3500,-9.672611077,8.061973346,-1.554508523
3.3550,-13.6135994,22.46783221,16.59996421
3.3600,-0.9317084045,34.4907627,8.754055206
3.3650,4.288196629,34.45219888,-4.198253087
3.3700,9.372876508,32.4903309,5.070103467
3.3750,-18.34418946,14.30816228,20.8351777
3.3800,-0.1473696125,16.86609238,12.61688499
3.3850,-11.43205561,0.001220632698,0.5122110886
3.3900,5.559017276,-8.656461325,-16.96807358
3.3950,0.2619806868,-26.48490124,-2.920885849
3.4000,19.84887552,-29.26999291,-10.38506186
3.4050,3.057592516,-30.74245973,-7.91550143
3.4100,-4.667838548,-33.99264371,-7.05836636
3.4150,-6.822541837,-42.29909555,-16.30894493
3.4200,-13.40866244,-32.20313613,-0.1613952909
3.4250,-4.279723736,-19.6466288,-0.2839709216
3.4300,-17.10791208,-18.34750825,8.057258558
3.4350,-18.28485193,6.379076602,3.238205361
3.4400,-11.4858131,14.34201371,3.040095099
3.4450,-17.53907998,17.89612897,10.40817097
3.4500,-8.216849201,4.910100847,17.85019225
3.4550,-15.03430769,9.671132643,10.16666122
3.4600,-1.314256062,0.6911451377,5.163185356
3.4650,9.39355668,-13.98824094,9.005432975
3.4700,3.769055893,-9.655382601,22.14124247
3.4750,-7.106207521,14.48165023,11.64729315
3.4800,9.706671854,15.04892679,8.854754988
3.4850,15.48013784,8.916162345,14.85102119
3.4900,-3.211434358,-2.831100989,12.85834917
3.4950,8.343524193,2.142712423,9.277787751
3.5000,5.793322541,-19.34039116,16.27309759
3.5050,17.09839783,-13.09752582,5.951487735
3.5100,9.430612701,-6.834938485,-11.02227419
3.5150,10.46340769,-9.251513234,-6.010139327
3.5200,-5.91076135,-0.120764962,3.365979351
3.5250,4.782030754,5.058987735,-4.470477674
3.5300,-1.383755889,-1.760849345,-21.19922472
3.5350,12.10931354,-25.00299794,-24.91604879
3.5400,3.968858115,-20.45606195,-20.68748733
3.5450,-13.16511024,-20.34383441,-14.22652756
3.5500,-3.926733656,-11.94485228,-20.62978259
3.5550,-18.40768461,-11.57033988,-11.72510841
3.5600,-6.042548991,-18.64224139,-24.56630227
3.5650,-12.5080665,-12.50151664,-27.82795103
3.5700,-20.15178127,-26.65704261,-27.51078332
3.5750,-12.95858166,-24.03624869,-28.88857185
3.5800,-23.60044015,-39.35046904,-12.39602071
3.5850,-23.71147056,-26.18519188,-10.05435785
3.5900,-31.05996338,-28.09758606,-7.818222652
3.5950,-18.30771656,-18.03775739,-10.33008743
3.6000,-4.28773213,-15.61353066,-21.79734999
3.6050,0.2589075494,-20.558078,-30.9575355
3.6100,-3.676777814,-10.53186914,-20.33183466
3.6150,-2.212203831,-4.721119637,-8.373871424
3.6200,-17.17578556,-8.13230698,28.19954049
3.6250,-17.5429697,-2.826404055,34.20846667
3.6300,-11.39194005,4.601824423,4.833562846
3.6350,-4.821859557,0.3978795948,-1.28628284
3.6400,0.3864647171,-5.707482496,-4.232214002
3.6450,-6.865426906,-10.99460175,8.250213023
3.6500,-5.119461388,-3.917356996,-3.301502475
3.6550,10.83796339,-4.499158773,-3.028516976
3.6600,-6.452072179,-26.25135094,25.3627181
3.6650,-0.02507433712,-12.90427577,20.51243369
3.6700,6.681860643,-11.7698635,10.56970574
3.6750,12.69599161,-1.615303375,2.019153093
3.6800,13.65399883,4.428422252,16.45729525
3.6850,29.18886213,14.86467712,16.95747747
3.6900,12.65958799,17.35190511,25.62717486
3.6950,19.03869204,15.1042481,25.05072511
3.7000,14.80736828,29.6981094,25.86032328
3.7050,20.96374697,31.43062759,25.80327977
3.7100,32.34402548,29.64163978,7.556966837
3.7150,19.00678378,35.17060821,2.847258668
3.7200,36.09043092,33.83159457,6.00704974
3.7250,34.68721766,26.77239558,13.5389868
3.7300,24.13603401,32.12702528,4.212861253
3.7350,32.08410458,16.87931861,2.65180192
3.7400,37.19545248,9.952788638,4.994282252
3.7450,41.05565345,-8.761731761,7.37454062
3.7500,39.18043603,-7.433111226,14.11896257
3.7550,24.77101213,-9.168051707,32.37562508
3.7600,35.44238844,2.017929946,35.291577
3.7650,26.25454716,10.49737117,49.03435928
3.7700,37.21076668,22.2343655,15.73026476
3.7750,30.3173622,16.87104018,19.28906882
3.7800,31.3102463,13.57769641,8.479520742
3.7850,36.06473985,20.32725115,2.253441878
3.7900,37.74580433,21.97341219,-1.291985196
3.7950,25.12882511,17.87122864,7.377813894
3.8000,32.75942873,17.6211049,7.110281356
3.8050,25.88481176,17.68795809,14.04700971
3.8100,50.01917626,15.52840729,-0.7612244638
3.8150,34.07921642,4.433087813,18.89794067
3.8200,41.78607329,7.065114707,15.28878907
3.8250,35.04252551,12.21224436,11.72357513
3.8300,38.27443334,-7.507840364,-1.34078675
3.8350,41.27551196,-5.67173865,2.729906607
3.8400,41.73711856,1.927678069,8.181835884
3.8450,35.42241365,9.253299354,23.67090686
3.8500,44.26188434,5.466229038,17.27683549
3.8550,49.56192989,17.82438271,5.573785742
3.8600,49.50611696,21.44732645,7.274163088
3.8650,56.15042075,29.22673692,0.8711742223
3.8700,64.79387021,15.69447145,8.126634904
3.8750,72.87946333,8.294537291,12.15600428
3.8800,66.96159741,4.894692211,14.28402444
3.8850,69.39456701,2.302142486,13.3140277
3.8900,65.14575845,-10.89723174,11.25303508
3.8950,56.53780261,-26.73271679,25.02323225
3.9000,60.08917903,-26.02738726,12.01613615
3.9050,59.19232975,-32.33179495,9.439947998
3.9100,47.32915294,-25.6814123,12.64131109
3.9150,46.99431879,-8.962698996,14.37078576
3.9200,38.90751503,-12.83234389,18.0431058
3.9250,48.35060353,-11.98089972,17.94269821
3.9300,43.62304043,4.92945233,14.71780576
3.9350,43.80623727,9.14423549,16.36812134
3.9400,40.12496166,18.46324909,9.513816508
3.9450,43.09605862,15.12171841,7.95631833
3.9500,42.33848409,8.934955158,21.44430648
3.9550,32.68832571,2.278182164,21.05079397
3.9600,37.72512488,-3.689894118,17.09659744
3.9650,40.1755229,-12.47884586,29.37863164
3.9700,33.8633925,-10.31702117,32.5975368
3.9750,27.81916943,-17.43302624,22.45491086
3.9800,38.71936671,-17.90242596,5.381964747
3.9850,34.37295265,-16.26167146,9.182172892
3.9900,32.17655254,-12.31578626,0.6167563694
3.9950,21.57429347,-13.08417944,10.94912133
4.0000,23.01951917,-0.8632956452,8.451075511
4.0050,17.82052654,-4.040131637,5.800180744
4.0100,4.94735331,-5.196115091,3.520620694
4.0150,8.04268658,12.41607509,-4.26198059
4.0200,-2.209456928,3.668273065,9.179905459
4.0250,-2.545330633,13.50830504,-3.359300934
4.0300,-0.286894246,9.521989519,-8.497415757
4.0350,-3.852722612,6.108563384,9.970813723
4.0400,0.3718395135,1.093548905,9.018571632
4.0450,-8.069662663,-4.302406311,12.71170177
4.0500,1.938157494,-13.16804832,11.75656782
4.0550,3.250557946,-6.453303021,2.177134694
4.0600,2.460983663,-9.564810268,9.119399343
4.0650,-0.4701812126,2.447006019,3.957066769
4.0700,4.679495177,-11.43466097,4.485055401
4.0750,4.429136975,7.139593582,3.16036075
4.0800,5.757036289,6.321526551,6.24440052
4.0850,12.84816826,-1.065760821,2.422837999
4.0900,12.08115101,7.925823698,2.553343534
4.0950,8.499610904,8.268721324,1.691843493
4.1000,16.46456743,11.54397469,-10.21704462
4.1050,11.79256927,1.867611179,-3.957103061
4.1100,14.5009521,-2.113297743,-4.582976807
4.1150,14.02265916,-4.419477647,7.805560294
4.1200,-0.7968988997,-6.297495961,17.0056858
4.1250,6.715592558,-0.2956287004,30.33296372
4.1300,13.57670448,-4.29540683,33.8865723
4.1350,-1.809609696,5.300454945,27.4996246
4.1400,13.90717751,-10.05207051,17.84050388
4.1450,5.872863983,-5.938995537,10.32416015
4.1500,3.583700033,-7.483071601,-4.850316789
4.1550,-4.93105863,-6.309159162,0.5569168165
4.1600,-9.72283012,2.685047293,-10.83217665
4.1650,-5.081496513,-9.868025277,-16.98648495
4.1700,-4.550151821,-8.281274149,-20.70456648
4.1750,-7.536552681,-4.579243474,-19.81399628
4.1800,-23.92872353,-3.12918266,-3.982925109
4.1850,-21.57322265,6.920071522,-15.8127131
4.1900,-16.24309984,5.202227178,-17.34130913
4.1950,-16.35999588,1.354963213,-13.59637603
4.2000,-19.29337563,-5.916866954,-5.819337667
4.2050,-18.44404534,6.043542226,-7.745102243
4.2100,-3.336167835,9.064721874,-18.34656149
4.2150,-10.09463345,3.092491112,-7.508154096
4.2200,-18.13781354,-6.811695044,-1.669782407
4.2250,-15.92517078,-8.619693198,2.086565978
4.2300,-16.66131626,-11.72421347,-0.5990718615
4.2350,-7.7160852,-15.14693239,3.267550495
4.2400,-20.42789254,-14.48102549,9.309254685
4.2450,-10.93471516,-9.628376416,-7.007035537
4.2500,-17.14991183,1.281476927,-8.620164567
4.2550,-24.52392735,10.52301328,-9.120211254
4.2600,-38.60696209,21.23042916,-16.14382694
4.2650,-34.02623644,20.2634123,-32.72942416
4.2700,-37.81651934,23.53409873,-41.53291749
4.2750,-34.9056739,13.0483451,-35.94996985
4.2800,-43.82115771,13.84651182,-35.98088007
4.2850,-27.49654551,16.50771045,-41.93483885
4.2900,-28.72452976,-6.362424675,-15.18725506
4.2950,-28.09117132,-9.041741284,-8.349788601
4.3000,-27.40497776,-6.230921992,-6.436906696
4.3050,-14.9586123,-11.05719417,-1.525769724
4.3100,-12.86530025,-13.87833464,4.707333686
4.3150,-24.48435447,-7.461445625,19.2083759
4.3200,-27.25668786,-17.36324374,34.45749905
4.3250,-13.6605982,-5.45485532,12.12193641
4.3300,-9.759321084,-4.709588794,0.9791212854
4.3350,-0.3525725263,2.498496297,-9.533514468
4.3400,-13.471532,5.293394429,-4.902664507
4.3450,-8.638756532,15.43360656,-10.07832369
4.3500,-12.0094009,28.18501383,-20.1281489
4.3550,-2.6202755,27.1214025,-18.16280508
4.3600,-22.29404892,21.82827344,-10.50279322
4.3650,-3.251272929,17.0180063,-15.44591445
4.3700,-4.227251593,23.38547105,-17.60466689
4.3750,1.640805959,13.17807641,-4.342649072
4.3800,-5.25945842,0.4103889003,9.952995128
4.3850,-2.891347913,-5.292714566,11.81070409
4.3900,0.4659805999,-10.65558228,16.95045979
4.3950,-2.253177519,-0.9400647551,9.493586388
4.4000,10.09017691,-10.1496008,8.876729189
4.4050,0.06654973279,-14.28024399,-1.823818103
4.4100,5.006443047,1.623465271,-17.35417488
4.4150,-1.904620737,-5.688586018,-17.2973722
4.4200,-9.264698013,-1.269199126,-25.12141923
4.4250,-10.20398858,3.908728321,-14.28722857
4.4300,6.565782684,0.6755326564,-20.94333747
4.4350,-17.17268858,7.941518204,-9.299054404
4.4400,-4.912577081,0.5181902528,-4.053864187
4.4450,1.409216606,-4.187434156,-3.495588981
4.4500,3.528239824,-8.143910178,-12.15711736
4.4550,0.4964727251,-4.871770726,-7.308196874
4.4600,-4.647308191,-10.04677109,-3.010626557
4.4650,-2.613394141,-7.728537525,3.308405598
4.4700,-1.797119901,-14.49995213,20.67503014
4.4750,3.632502575,5.139949438,17.84084054
4.4800,10.42139625,14.81774119,14.77033028
4.4850,21.89588783,21.16662174,0.382704044
4.4900,22.51835282,15.51973399,-4.500392714
4.4950,28.72601878,19.45518742,-12.35761044
4.5000,24.1873743,10.91205239,-6.464300852
4.5050,34.38397688,-0.2317203111,-5.628927936
4.5100,22.75448104,6.24608166,-2.369505584
4.5150,17.44873852,-8.84876901,7.897140332
4.5200,18.48364338,-7.07045584,16.61180625
4.5250,20.30839431,-18.15495369,28.10532653
4.5300,22.91720354,-21.29906574,23.01172758
4.5350,21.35628541,-18.16749551,16.31442252
4.5400,24.87667015,-13.38176908,-4.976342758
4.5450,28.53823644,-18.97039881,-11.52340861
4.5500,25.89187219,-6.922152176,-26.78843841
4.5550,7.288947206,-10.93611822,-10.86685305
4.5600,20.56924134,-13.35363901,-1.949005491
4.5650,15.44227686,0.2704734928,-3.280237618
4.5700,29.35483866,0.3481817986,-2.267280674
4.5750,40.96210223,8.450393911,-0.02945805925
4.5800,27.80809754,5.795551954,12.10017203
4.5850,32.13308332,5.772342826,5.202526564
4.5900,30.18806661,15.8575431,4.281527406
4.5950,31.75837807,7.751337427,10.35498419
4.6000,41.61713541,10.09945625,-3.49025548
4.6050,25.65974054,18.83565548,4.542561135
4.6100,27.47420061,33.00921279,-9.833782229
4.6150,29.07140649,14.5198601,-6.465843157
4.6200,20.67955706,-1.046350949,-6.192817343
4.6250,18.77528019,-14.35109301,0.3397636126
4.6300,1.784487058,-14.28155988,6.21760074
4.6350,1.086459971,-0.8432930375,3.351563429
4.6400,3.753490674,-1.648361361,-1.857872727
4.6450,3.494513545,-4.243512641,-6.048943541
4.6500,-2.363635342,-20.11931848,3.24506757
4.6550,4.329318988,-8.469415395,2.032779797
4.6600,-13.07605316,0.6213127239,4.723387829
4.6650,-1.555224181,4.849130867,5.597687391
4.6700,12.95178442,3.312808505,-14.51979665
4.6750,18.5711034,17.44148875,-28.9045224
4.6800,36.34052888,11.11878509,-32.88846556
4.6850,33.38390057,16.28533034,-22.42494728
4.6900,35.20462745,8.668603821,0.8465692329
4.6950,18.36492516,0.03147153743,17.82286657
4.7000,10.3761748,8.536751346,16.06292153
4.7050,5.717892154,6.438658099,14.90029989
4.7100,1.910282504,11.96515017,8.406851812
4.7150,12.27919617,24.4170636,-2.161338257
4.7200,14.71169333,21.71695919,-12.82764677
4.7250,1.167996774,10.83405396,2.233272228
4.7300,-5.955061573,15.5849846,14.99267808
4.7350,0.3470374805,10.87307996,18.05102329
4.7400,-7.101180002,13.81204858,26.37315002
4.7450,-4.568045889,8.136268303,22.66283132
4.7500,-5.414216345,-5.142701758,15.76116041
4.7550,-1.643985346,-3.683951479,7.008400754
4.7600,-7.033767884,-14.35793254,2.570048658
4.7650,-12.6256136,-17.92944198,3.30902988
4.7700,-7.624379895,-16.33848797,-6.652845699
4.7750,5.431138999,-7.089566759,-20.49619392
4.7800,-2.908715167,-15.51225888,-13.25713616
4.7850,-4.707894048,-4.491482488,-18.11807378
4.7900,0.1244375744,8.199653758,-20.7093851
4.7950,-8.180647747,17.09985402,-12.58690781
4.8000,5.089491442,21.89747299,-10.92992736
4.8050,-6.393834015,19.41802818,15.25320774
4.8100,-16.6013055,15.96130998,25.23000051
4.8150,-22.13301223,24.11715401,31.50298425
4.8200,-14.04061403,16.24458229,39.83964121
4.8250,-19.33017042,11.23543282,38.87803671
4.8300,-14.0544655,-3.674500633,32.28752382
4.8350,-11.20980101,-16.31862176,16.80452523
4.8400,-17.84086114,-4.673304651,2.912733702
4.8450,-9.754570608,-7.169877381,-5.968106517
4.8500,-8.812011785,-7.963174547,-10.85422186
4.8550,-3.588695736,-3.649877398,-11.30062607
4.8600,-3.054638688,3.600254274,-13.54346807
4.8650,-8.96198545,5.265000373,-9.325131218
4.8700,9.041098121,11.50693898,-10.40100556
4.8750,0.3213607591,22.84719828,-5.859475324
4.8800,6.020641887,11.53160971,6.212986577
4.8850,-12.62120022,13.05536513,5.14743911
4.8900,3.022543637,7.516728805,-4.389538468
4.8950,-8.636464261,6.613806375,1.388025667
4.9000,-25.76950704,4.324597028,7.596518458
4.9050,-25.41395966,8.415434168,-0.3285961043
4.9100,-25.60867694,7.210276894,5.699284632
4.9150,-16.36996372,-0.1999650526,1.777126113
4.9200,-4.041888893,6.389204833,-8.851692129
4.9250,0.2525287349,3.718131138,-1.592026029
4.9300,4.086732076,-13.46158357,5.792397857
4.9350,7.39308749,-25.40590479,17.9328512
4.9400,-0.905110182,-25.07526475,12.8847352
4.9450,12.89057518,-12.87831684,5.145237198
4.9500,-2.300175148,-3.956609241,1.624950532
4.9550,-21.13946691,12.86425059,1.473479794
4.9600,-14.07720563,10.40662047,1.676773796
4.9650,-9.908259131,16.03554357,-0.7278334518
4.9700,3.46262074,20.99474449,-19.09681132
4.9750,6.573355183,35.06101571,-21.28742353
4.9800,17.04434504,33.6079401,-22.53446606
4.9850,7.658753278,26.07165472,-5.69583131
4.9900,1.578146438,18.27953708,23.26055997
4.9950,-6.256958634,26.08055981,42.06721718
5.0000,-11.39954733,24.04938082,47.65599063
5.0050,-28.84729685,6.562667021,59.8688643
5.0100,-28.21418434,1.376719303,53.70711538
5.0150,-23.56833703,-7.696968937,49.81521616
5.0200,-33.05322442,-19.3243387,39.85478053
5.0250,-44.72003019,-30.42274876,30.46316466
5.0300,-44.32520317,-35.54970931,10.7441532
5.0350,-21.71743295,-11.23512826,-15.00874624
5.0400,9.361651959,-13.75735115,-31.12405239
5.0450,3.730442436,-4.752459327,-42.3664479
5.0500,-0.7749004586,2.920861531,-51.724662
5.0550,-12.58074414,15.5053467,-46.66268019
5.0600,10.57904711,23.94185282,-19.76576946
5.0650,-0.1788390245,48.34846647,4.610682111
5.0700,-11.70374132,52.06953287,30.9465974
5.0750,-32.53204372,48.7143527,44.54938838
5.0800,-33.05776665,35.51576924,47.59713265
5.0850,-44.58142341,32.60195196,43.07478286
5.0900,-53.39135539,18.23011504,42.28887105
5.0950,-72.80751822,3.740879973,52.50624101
5.1000,-64.53253133,9.835227692,34.78862855
5.1050,-63.06166715,-1.422551339,28.75757598
5.1100,-57.05145423,21.02904003,-3.96880881
5.1150,-57.73471182,15.85100268,-28.73307114
5.1200,-37.54178972,14.20236842,-78.51190634
5.1250,-39.29052737,-2.96038126,-95.68818883
5.1300,-7.056521579,0.7827461305,-105.7111141
5.1350,-8.275184518,3.894874147,-84.93382034
5.1400,6.772722298,9.561222657,-57.57440976
5.1450,36.2305734,20.57258289,-39.17835369
5.1500,2.621996615,-1.240332018,-0.9538058811
5.1550,-4.621338416,-14.15047404,3.83993714
5.1600,-44.41591237,-25.65543056,23.74028901
5.1650,-38.30927128,-22.7303585,40.50928459
5.1700,-44.42277031,-18.58172993,69.14582776
5.1750,-33.8439194,-13.85380257,72.33230521
5.1800,-41.63069136,-9.925287049,55.3757977
5.1850,-34.403527,-7.275448555,24.8597255
5.1900,6.941320772,-20.64098533,-3.60747076
5.1950,15.70864669,-4.738820461,-11.17647984
5.2000,23.98756338,26.21619783,-23.95950414
5.2050,33.00620142,33.39921421,-17.52523231
5.2100,31.54613358,53.98457068,-28.97868465
5.2150,11.03013906,58.67217025,-20.75671501
5.2200,-3.314970389,58.32404421,-12.90854571
5.2250,9.79713723,60.01555596,4.383622528
5.2300,-15.80018302,52.24799305,23.94057596
5.2350,-18.59531156,29.65425014,44.86806067
5.2400,-36.46530998,6.067080643,42.4879433
5.2450,-24.44040891,-20.33792435,38.95966518
5.2500,-12.43229599,-33.46629795,28.58078063
5.2550,12.73649357,-47.58204228,7.661733089
5.2600,13.62343398,-50.02056216,-23.37791202
5.2650,15.68371778,-48.37773567,-48.75619924
5.2700,34.78089182,-38.73735447,-72.70952656
5.2750,35.8662423,-33.87858824,-64.70947575
5.2800,34.45562576,-25.61225698,-58.21721157
5.2850,33.96357666,-14.68261737,-41.43680258
5.2900,9.60871486,-6.038988226,-25.35236721
5.2950,33.37569735,-8.580765367,-16.09813808
5.3000,57.44536353,-22.77257189,-4.891821154
5.3050,40.85677075,-10.80351517,2.14763433
5.3100,6.40255976,-16.90766503,11.98713262
5.3150,-13.03311775,-11.31899151,11.27693504
5.3200,-22.44690284,-20.05303974,5.437493484
5.3250,-18.35210435,-21.91428138,3.447562778
5.3300,-13.04267013,-13.46903468,-4.071945208
5.3350,7.464810293,-20.45366039,-14.10252881
5.3400,-13.02061488,-22.21775754,-9.997696095
5.3450,16.67056268,-28.0670655,-11.65901151
5.3500,32.88180398,-23.09309268,-18.63773775
5.3550,16.04509877,-17.87158241,-18.39855154
5.3600,29.68646068,-19.68134789,-19.26611943
5.3650,34.09514859,-7.91723769,-29.87764426
5.3700,30.14825513,-10.9448984,-12.31344445
5.3750,27.70038033,13.07474421,-10.50727495
5.3800,14.86960868,21.90546896,21.24370502
5.3850,2.378814494,47.6855873,31.54227695
5.3900,2.280306961,42.51614855,40.3385754
5.3950,-28.37719839,44.34301503,35.586539
5.4000,-41.72072878,22.84320501,38.42093667
5.4050,-36.61073148,16.40637802,33.8746633
5.4100,-34.94332767,7.633507435,28.60860371
5.4150,-51.77139625,-9.269587862,29.92668845
5.4200,-47.14007415,-14.32912185,15.70754479
5.4250,-32.19558981,-18.7980093,-8.08993058
5.4300,-8.433812287,-21.52215778,-36.36537433
5.4350,8.350071678,-36.65086052,-53.81557738
5.4400,49.83193142,-41.2873558,-76.87775081
5.4450,49.48512789,-40.93639489,-79.59744452
5.4500,67.94807626,-18.67632504,-80.35222134
5.4550,52.51024524,-11.02899794,-55.88250816
5.4600,27.36037366,1.102900928,-34.36718251
5.4650,10.66329526,-0.2825274024,-8.032305188
5.4700,-8.593607643,11.16341753,4.241952323
5.4750,-7.011246885,21.38683345,20.28319681
5.4800,-9.761928608,26.75327568,34.89690804
5.4850,-14.15204353,23.73070261,38.36563454
5.4900,-15.09840497,15.77090887,29.09830569
5.4950,-1.872764153,5.078134833,15.16280343
5.5000,-6.388520473,-4.438006044,6.780075637
5.5050,2.359725147,-6.821110243,5.611825549
5.5100,10.51691941,-7.984925691,-4.647365436
5.5150,17.32489152,-11.65048993,-4.815638657
5.5200,26.19038532,-12.73875994,-9.011418994
5.5250,22.56012286,-16.50948655,-17.66670181
5.5300,39.28202364,-6.760113041,-33.63081238
5.5350,31.70419279,-0.2623536684,-25.17405595
5.5400,37.57288881,7.243889681,-28.08457766
5.5450,25.63998733,9.816634394,-10.93724962
5.5500,31.37622631,7.460085633,-8.417338668
5.5550,33.95035661,6.382576729,-0.2865404812
5.5600,36.53881395,-7.277867537,2.619065752
5.5650,25.70803621,-13.0809845,22.27662328
5.5700,20.07732153,-22.1947885,36.22843143
5.5750,1.801639993,-25.49074695,52.00589296
5.5800,-6.219258648,-29.66944316,52.92183738
5.5850,-12.77077049,-34.18063574,49.00049461
5.5900,-28.29220638,-31.64445811,38.99510862
5.5950,-11.21559578,-18.89278527,24.74266829
5.6000,-1.271378602,-30.03283082,22.32919102
5.6050,3.845075679,-40.03245094,14.91911896
5.6100,7.120734241,-63.8085268,2.846968895
5.6150,25.10031079,-71.0858757,-2.405817456
5.6200,25.13869208,-63.90093579,-4.491920724
5.6250,9.525100316,-32.64359951,-1.826524909
5.6300,11.41499453,-13.59956225,4.651782984
5.6350,18.28587396,13.24509808,7.420630092
5.6400,12.03998838,36.34537758,11.12759312
5.6450,25.2582934,57.6625136,7.635789639
5.6500,45.86933617,80.31596233,13.58910349
5.6550,47.00665274,84.5494283,26.84046187
5.6600,51.59778896,92.10023905,23.06555826
5.6650,33.93172766,82.8712603,39.1136493
5.6700,19.47450087,74.12885887,31.18378581
5.6750,0.11419347,69.82425654,28.28146757
5.6800,-7.410922716,43.38219111,25.31760115
5.6850,-18.13246864,44.53368156,3.039107577
5.6900,-19.85214055,15.96502147,2.045320868
5.6950,-14.04757019,-1.803262208,-7.88883516
5.7000,-19.93623746,-16.04538578,-7.828105312
5.7050,-18.28758856,-40.09353115,-5.761535633
5.7100,-11.26332428,-59.11299229,0.3666862788
5.7150,-19.81747138,-59.04959912,1.188743631
5.7200,-25.59641663,-47.99365107,-7.06499636
5.7250,-28.68184029,-44.56710464,-7.778892151
5.7300,-40.08324613,-23.39996278,-11.70035206
5.7350,-28.37962841,-18.24767076,-2.395723856
5.7400,-29.67790755,-7.287932952,1.140060528
5.7450,-9.479537955,4.656282574,3.154090673
5.7500,-12.5886641,-8.64052329,3.341833058
5.7550,-14.34077126,-13.45343083,4.760409898
5.7600,6.285821104,-20.10441707,-8.066165826
5.7650,6.103956496,-13.72313384,-16.14080499
5.7700,23.46687392,-8.594451606,-15.09745239
5.7750,23.68287104,12.1105928,-10.39395172
5.7800,27.01007378,24.23445738,-7.90481178
5.7850,42.62186405,25.0938136,3.167901782
5.7900,34.67838414,24.24575839,17.13664553
5.7950,22.36893406,37.14501426,20.68911458
5.8000,6.565513153,43.89615483,26.00280645
5.8050,6.812651687,53.6066756,24.19262044
5.8100,-11.4455092,59.75010679,32.13203932
5.8150,-10.71289708,51.18344376,39.21056042
5.8200,-9.996838687,47.0341012,33.32532278
5.8250,-12.26740765,38.63178974,27.8308899
5.8300,-5.620916758,10.51688135,23.36208527
5.8350,-8.822982799,-13.19873955,22.5244562
5.8400,4.155460935,-24.64307998,7.965602701
5.8450,6.313871572,-34.4877619,3.990919648
5.8500,-7.883269657,-31.38316906,-10.19484728
5.8550,-2.949221991,-25.7054516,-15.68179254
5.8600,3.596504099,-21.99143802,-21.47337606
5.8650,1.128835506,-17.74633855,-25.15119447
5.8700,12.12412838,-13.12237016,-23.05107553
5.8750,-0.2892163201,-11.03871517,-12.02583595
5.8800,0.6098627156,-4.605466658,-10.35382257
5.8850,8.291325759,-0.3041963034,0.9752846205
5.8900,9.037589614,3.77707776,9.431420543
5.8950,2.417259011,10.53898667,13.18578569
5.9000,9.435384737,23.97213389,14.29523962
5.9050,26.32550236,23.28298665,14.24331478
5.9100,39.64292748,25.6514416,12.24042548
5.9150,41.28540091,26.40885544,14.00717786
5.9200,53.83494113,9.237733319,12.40959476
5.9250,35.2774279,10.44139984,2.443181316
5.9300,40.41096078,10.00995386,-2.186275013
5.9350,45.0575591,12.52077286,-3.440905473
5.9400,28.90957942,11.66314468,-0.07915739993
5.9450,29.19122407,10.2563985,7.677374193
5.9500,26.69185185,10.73937617,6.796391227
5.9550,13.92296088,13.20727056,19.3557668
5.9600,1.656235417,1.130482558,26.73567082
5.9650,-15.93868928,20.13776165,17.96576588
5.9700,-14.39090499,11.53823144,14.95808656
5.9750,-19.68921734,3.262062185,14.74270361
5.9800,-19.19597756,0.7923420346,12.3528016
5.9850,-8.029605224,-5.239567528,6.515073228
5.9900,-37.22951934,-1.136922251,4.318226096
5.9950,-41.08517152,-4.178874115,9.634905227
6.0000,-36.39175222,-13.38455855,9.761946192
6.0050,-29.07871537,-7.359506544,-2.021419587
6.0100,-26.45452679,-13.54454568,-3.203733546
6.0150,-18.43166246,-10.10286301,-5.919334968
6.0200,-14.68054196,-10.61213804,-6.475709509
6.0250,-17.91871363,-0.423784917,3.959391732
6.0300,0.2867102006,0.8863971941,-0.09091793517
6.0350,-15.81738181,6.984316477,12.409817
6.0400,-6.357621697,1.169902958,13.42743775
6.0450,11.07795981,-1.316267488,7.681313559
6.0500,11.92013524,1.348209176,6.090737892
6.0550,25.0475099,1.658017164,11.41624574
6.0600,19.79279019,11.19395851,8.372696285
6.0650,30.9625074,10.28719592,5.706852545
6.0700,21.13499831,3.312120784,6.795259437
6.0750,48.95565627,10.3957431,6.507491149
6.0800,40.13733733,15.5017021,23.42632362
6.0850,51.99011838,24.12093373,36.56561546
6.0900,55.17822596,30.0243268,41.13549782
6.0950,64.64867846,15.07676594,49.15424377
6.1000,67.16397581,20.85179306,47.05898026
6.1050,74.16206582,-0.5300619077,45.57413145
6.1100,60.03173674,-2.293518714,36.35351246
6.1150,60.59994034,-4.11238973,21.78543387
6.1200,66.15656661,3.707590248,0.8878545752
6.1250,32.36764408,-10.73980706,-4.347956251
6.1300,38.96687938,-15.8294569,-7.746502441
6.1350,31.42657966,-30.85699279,-5.551494127
6.1400,37.11554256,-39.79904246,2.631474752
6.1450,36.39823767,-48.29416495,14.30728436
6.1500,21.36721813,-29.72565266,13.01825992
6.1550,14.11483236,-30.98915017,5.229919804
6.1600,-1.495760383,-27.28179459,-8.299241269
6.1650,-10.48710014,-7.03520275,-22.91638412
6.1700,-2.554675152,2.302711269,-31.45572186
6.1750,-1.95392519,18.17175437,-28.46349808
6.1800,15.69593345,3.945640904,-25.61872206
6.1850,8.959636132,4.59643096,-8.27076742
6.1900,20.3184057,1.000805816,3.973841488
6.1950,35.71281088,-6.568181521,19.44783395
6.2000,27.09797639,0.7354728273,20.4685451
6.2050,21.22209184,10.35616672,12.27735512
6.2100,14.77815176,14.74412922,-8.069987253
6.2150,10.82226451,3.537175018,-20.86115237
6.2200,2.462806065,0.780719973,-25.31564842
6.2250,1.503989223,-3.463409023,-19.17261842
6.2300,-5.886888777,0.7465489192,-16.69111226
6.2350,-1.095289976,-6.920042709,-12.02769943
6.2400,-21.73272694,-20.20829443,-1.425431905
6.2450,-7.134279602,-20.92274587,-3.176080632
6.2500,-0.439121714,-36.64928549,9.172161423
6.2550,1.878795066,-35.19923184,12.68807431
6.2600,9.499026257,-37.90320914,-5.389697376
6.2650,15.56306722,-24.56741337,-18.04739519
6.2700,14.86073158,-32.03031347,-19.61020788
6.2750,20.59765917,-17.26947226,-12.21407638
6.2800,25.79974756,-32.82587119,0.9405525315
6.2850,16.95662222,-17.77555639,6.649055285
6.2900,4.506474294,-13.73301889,-4.66220084
6.2950,-1.511666267,-2.963790983,-10.96411134
6.3000,1.171612455,-5.325441208,-16.80992953
6.3050,-0.7667163059,-16.48582657,-8.523117666
6.3100,-9.064604998,-17.94127583,-7.296326772
6.3150,-25.81078211,-22.50573691,15.35468629
6.3200,-23.08939574,-17.7578489,11.5554613
6.3250,-24.51476437,-19.63522927,9.450867393
6.3300,-3.412983785,-17.83908493,-20.47308124
6.3350,-6.275729341,-13.88406587,-37.02726162
6.3400,-4.031580968,-19.11346273,-49.7758897
6.3450,20.21312591,-27.03603051,-48.90551652
6.3500,17.38429931,-36.32535583,-30.7748905
6.3550,24.26451925,-28.2894864,-24.72254324
6.3600,23.16359454,-28.33009834,-17.44778632
6.3650,12.15099241,-13.13380855,-15.06927426
6.3700,9.767648083,-2.096625944,-24.81953301
6.3750,5.243381345,-8.576080547,-13.37373029
6.3800,-2.67683261,-5.724971462,-12.0332063
6.3850,5.878211603,-3.333164404,-5.753561499
6.3900,3.246170337,-13.03616957,0.8237562942
6.3950,19.54211438,-16.74456296,-1.319418289
6.4000,-1.572045131,-17.25177284,1.08794521
6.4050,10.74513771,-23.18431339,-3.811560998
6.4100,-3.801443337,-8.071311549,-13.47318076
6.4150,9.310930656,-19.39163392,-20.06099171
6.4200,10.64690453,-14.86573379,-23.04479958
6.4250,13.32214238,-10.22124869,-12.24548122
6.4300,21.69742409,-18.74985626,-12.29164829
6.4350,18.11169129,-8.647625358,-8.900137995
6.4400,24.58950448,-14.51912887,-8.940758835
6.4450,27.54161923,-17.83803834,-3.189543394
6.4500,27.7001365,-14.34199625,3.420699129
6.4550,30.70149795,-0.1408191758,1.087960821
6.4600,24.7148206,4.465065208,8.686178369
6.4650,35.6338595,9.062666487,10.75382884
6.4700,40.86341516,19.77797319,-1.632641039
6.4750,29.39478563,22.80275188,-3.166323484
6.4800,4.034137966,32.1102672,-17.59958791
6.4850,21.96855284,15.98928896,-10.21121549
6.4900,-18.90548322,22.91051998,-1.043109515
6.4950,-28.99537763,8.819433534,0.9158794088
6.5000,-40.12904324,-11.9960061,-8.684897351
6.5050,-56.64503581,-40.29314759,-8.084877536
6.5100,-41.41335481,-41.68959445,-10.24599331
6.5150,-51.27327093,-50.97264833,-11.38182277
6.5200,-50.50057248,-48.3292931,-19.88043916
6.5250,-46.71842262,-45.64018202,-23.58221034
6.5300,-44.91175,-23.23853602,-29.92133326
6.5350,-28.06455808,-6.148310987,-28.30351322
6.5400,-32.45153576,-5.204292126,-17.28496118
6.5450,-24.3456864,-8.030676846,-5.733896829
6.5500,-29.23522529,-3.223494767,2.927019353
6.5550,-12.27492922,5.500374377,17.32635405
6.5600,-12.03172171,32.49421978,14.47032903
6.5650,-17.25612878,46.55845558,17.59371702
6.5700,-18.68197496,65.47998033,0.1295131583
6.5750,0.7887110995,58.73185558,-11.4474547
6.5800,13.77202539,43.34597193,-16.62824302
6.5850,-7.610076846,21.78960383,-0.5639362417
6.5900,-18.67019731,6.528346336,-5.873499902
6.5950,-26.33499954,0.8354066551,-8.199309061
6.6000,-12.91460217,-8.765627057,-10.60636855
6.6050,-35.72580207,-0.4188895102,-8.586321955
6.6100,-5.442155378,-9.122108331,-20.95131451
6.6150,-16.98844836,-12.36290279,-15.42139739
6.6200,-24.12265229,-16.55434315,-12.74760837
6.6250,-16.04000482,-23.92402102,-6.707125619
6.6300,-27.27615401,-10.0773786,-0.323999055
6.6350,-14.02381432,-1.498560293,5.050268363
6.6400,-10.88301876,18.19602322,1.54715445
6.6450,-3.162350748,23.33286322,8.611859636
6.6500,6.017275189,37.10373325,10.75845049
6.6550,-0.7303609168,52.94292359,4.252371883
6.6600,-10.39087431,37.92704412,7.242653604
6.6650,-12.33445452,37.07802375,7.141556972
6.6700,2.194731825,15.97801772,6.325623323
6.6750,-11.56933045,15.36212594,12.48796721
6.6800,-18.82227985,15.41570419,12.84153894
6.6850,-25.22986033,4.027665445,16.46612612
6.6900,-31.04887665,1.669458254,7.272722307
6.6950,-40.62570034,11.6420517,-4.63953581
6.7000,-20.94481509,9.42767228,-22.28336917
6.7050,-24.35562704,2.889871015,-9.958991079
6.7100,-11.65678364,3.544477822,-7.470932404
6.7150,-19.46000881,3.534305928,0.1453363762
6.7200,-14.71711279,-9.223758725,8.704649599
6.7250,2.84017256,1.829272132,3.179874426
6.7300,5.111618746,-11.6098148,0.5990936895
6.7350,1.43673172,0.7152034821,1.868314271
6.7400,17.80222061,-0.2268604622,4.388778353
6.7450,10.87203566,-1.182735618,10.58500074
6.7500,15.32256504,3.830919536,2.555407582
6.7550,8.731706003,20.67803161,-3.241450696
6.7600,12.03311709,12.74010237,-1.407433125
6.7650,0.2001457191,12.45741579,9.774470886
6.7700,-6.582063788,11.83859606,14.0263163
6.7750,-17.16255483,15.84648185,14.43427116
6.7800,-5.558023322,6.908783638,3.151009908
6.7850,-0.6416806573,-0.4579315078,2.874105745
6.7900,-19.25852642,5.953270761,8.676288153
6.7950,-16.91610172,6.148184217,16.94757303
6.8000,-8.417916542,6.627872352,5.038862449
6.8050,-13.50160411,-0.1128472159,-2.759287479
6.8100,-17.45342025,17.06016978,-14.05053805
6.8150,-11.9905802,4.216268885,-11.69988401
6.8200,-27.40239224,6.02563883,-12.64940181
6.8250,-11.19873121,6.363922825,-7.816931254
6.8300,-22.44304105,7.160794094,-12.15148274
6.8350,-25.35457427,16.94197503,-10.741009
6.8400,-18.54519887,12.98880607,-12.78770155
6.8450,-12.95458549,7.940113659,-14.95521263
6.8500,-7.74900292,9.939734858,-16.2381154
6.8550,-2.225046789,-1.023096396,-8.181441481
6.8600,-1.319572247,-10.48493005,0.9450739353
6.8650,21.40352125,-18.10684896,4.697899693
6.8700,17.62874957,-7.991091375,5.814419696
6.8750,23.70315214,11.24372231,-1.884062666
6.8800,24.69534624,11.77044209,2.135734171
6.8850,33.37416277,18.71253578,-1.578914053
6.8900,26.63178485,15.9829774,3.267163259
6.8950,24.56083479,11.39774412,-1.23076186
6.9000,16.72123395,-4.165410782,-8.098433222
6.9050,20.89536663,-11.63345828,-11.71922618
6.9100,25.35217249,-39.45762348,-4.247979236
6.9150,3.95002045,-42.37622827,-8.718750278
6.9200,9.80750833,-42.56471707,-17.31284479
6.9250,-0.328421922,-53.615993,-11.80556752
6.9300,0.2554023953,-52.26453967,0.7278226395
6.9350,2.020861556,-34.62740465,3.388227199
6.9400,0.7070335748,-22.53749127,-3.01954597
6.9450,-0.01488068467,-17.67190767,1.944455515
6.9500,14.08576972,-14.97480959,-0.1753410822
6.9550,12.00581622,-16.67792861,3.880336453
6.9600,9.621202127,-4.152986957,-1.218536451
6.9650,11.19258299,-9.315051352,10.08487253
6.9700,13.9593977,-11.2463484,9.178617383
6.9750,16.21952143,-5.25894441,13.42377526
6.9800,12.67366417,-5.598521422,7.382777611
6.9850,13.28826392,-2.560240351,0.4456105893
6.9900,2.3760777,-4.628052929,1.894644089
6.9950,12.34717606,-12.48939571,10.00115761
7.0000,19.09776056,-5.7313266,4.914896646
7.0050,12.05974081,-1.203162474,17.99801178
7.0100,3.826636545,-1.413841034,27.1515987
7.0150,2.760838425,8.820648938,22.165419
7.0200,17.22832529,1.234801039,11.03401391
7.0250,12.67309869,-9.231796242,11.31745258
7.0300,23.05333033,-10.07498704,4.546103897
7.0350,20.90756552,-28.25629435,15.29779309
7.0400,26.87603776,-36.17010455,9.124145425
7.0450,23.23890221,-38.98195231,14.62203133
7.0500,28.02340863,-41.63425557,3.799814178
7.0550,8.869460436,-29.33005735,5.997658809
7.0600,27.56411715,-27.53913199,3.773872563
7.0650,23.94633437,-11.5059859,2.350976054
7.0700,33.08196303,-10.35448007,1.710024729
7.0750,37.46030447,7.396529641,-2.369973976
7.0800,21.2036587,13.10914133,0.7158902064
7.0850,16.6293536,19.86818721,8.506411399
7.0900,18.35297796,18.97278961,3.656665348
7.0950,9.705402074,7.778737269,6.102079115
7.1000,-1.967989663,15.8222642,-1.802909017
7.1050,-11.55025176,9.18410193,3.936846072
7.1100,-25.94170244,-0.5338231264,4.802159332
7.1150,-20.01294779,3.224757001,1.291095853
7.1200,-10.46266148,-7.584436091,4.561343561
7.1250,-2.26097042,-12.32798604,6.849448218
7.1300,-0.736432233,-25.52586646,5.563736897
7.1350,13.76759005,-26.75504398,18.62403765
7.1400,20.70112956,-25.10026262,16.45228544
7.1450,34.13168922,-13.74748422,8.97564348
7.1500,29.49646936,-17.96431748,13.86662884
7.1550,36.89752294,-4.012838164,4.511576641
7.1600,34.96715087,-4.246831548,0.09524022062
7.1650,22.63233754,9.066331435,-3.565969229
7.1700,17.28737584,13.65634751,0.2738217671
7.1750,3.933819423,21.53188557,2.309816329
7.1800,-8.256976052,17.39296511,-4.390076941
7.1850,-2.529853346,36.33303763,-4.829349942
7.1900,-37.46453993,58.77564125,-9.746680501
7.1950,-22.41139127,47.37238352,-5.50093803
7.2000,-23.22883102,39.86813666,-13.51100549
7.2050,-8.419910923,21.20766261,-16.71670636
7.2100,16.18472309,14.30675399,-23.08236214
7.2150,17.03528059,-5.795693705,-9.997884056
7.2200,16.1580063,-24.38575594,-14.47366621
7.2250,16.64101312,-20.99876025,-15.97383053
7.2300,12.48022992,-29.18944268,-12.19374836
7.2350,34.71125574,-31.17793335,-18.71463406
7.2400,48.06323354,-26.96125698,-16.67963645
7.2450,43.41236639,-21.42299291,-15.25361292
7.2500,46.41740427,-27.4717782,-5.389956356
7.2550,16.00969254,-18.45666658,17.30163371
7.2600,20.46780768,0.2928548122,13.22353974
7.2650,12.72427464,-10.19519365,36.20724256
7.2700,2.133273725,-3.622314631,31.49687132
7.2750,-7.257326342,9.58235578,21.66069229
7.2800,-3.228922526,19.25106381,6.806437358
7.2850,-3.658156,25.73201033,3.916660385
7.2900,-21.91303249,28.46157641,8.218412223
7.2950,-13.04958245,24.83431565,6.627524577
7.3000,-27.43924829,21.85569887,4.539148575
7.3050,-13.17085992,15.78747951,7.465154876
7.3100,-25.49750914,11.06782905,3.693007759
7.3150,-6.123491134,1.416817863,10.45534715
7.3200,-12.44368483,-9.791048325,19.49259909
7.3250,-2.625630282,-4.90924491,21.71973576
7.3300,-5.751085116,-10.31124214,18.39718096
7.3350,-12.62105369,-8.695221973,11.49576646
7.3400,7.223514809,-7.172060253,2.272812106
7.3450,4.074257271,-7.842420081,5.322408126
7.3500,1.988688014,-0.7772114733,1.795096734
7.3550,13.80861941,-0.5997870968,3.231754713
7.3600,-10.26399158,11.37059448,0.3444374982
7.3650,-15.52610078,13.21521278,10.39743291
7.3700,-7.362993993,9.356819204,8.908100591
7.3750,-23.19164464,15.89265445,6.895100333
7.3800,-12.93611559,5.836765139,7.550727073
7.3850,-9.825095598,14.60739814,-0.3955968868
7.3900,-2.582360919,1.972490193,4.612027985
7.3950,-4.656797749,5.437819622,2.554731781
7.4000,14.7598942,3.854919768,0.9037848727
7.4050,9.925473476,4.097368474,14.71650584
7.4100,-2.036722383,6.106636199,11.67069737
7.4150,-0.7023983864,10.53632884,6.941698977
7.4200,2.086360732,7.071865998,1.232458247
7.4250,-3.45913731,10.67138593,2.024647983
7.4300,4.238832086,10.29102148,-4.388611578
7.4350,-6.798786765,16.63689771,2.131479126
7.4400,-5.577171844,7.785891412,11.26339097
7.4450,-10.60962266,7.894819035,11.98835852
7.4500,-12.76635453,-2.584896048,4.523582567
7.4550,-21.03068544,-1.054736485,5.775965091
7.4600,-32.28205721,7.072394455,2.573895925
7.4650,-25.88959438,-1.519610194,7.055544647
7.4700,-31.69910265,5.235752595,7.939464713
7.4750,-24.94163899,2.195342179,11.55455097
7.4800,-12.93828063,0.6943381347,7.549145634
7.4850,-11.43749588,11.05507672,1.060366029
7.4900,0.4596608353,3.039286756,7.307694436
7.4950,-14.38365547,7.285878542,3.986351506
7.5000,3.255715823,2.841286059,4.25039622
7.5050,-1.84554462,8.458368709,5.837643496
7.5100,11.80439324,8.442613243,8.139929965
7.5150,14.08236764,11.09106213,1.375119107
7.5200,17.7939791,3.823139746,-2.988551999
7.5250,32.28958033,-5.575837339,5.399496971
7.5300,24.30168408,1.842497503,4.340375354
7.5350,19.04234356,14.17156518,11.28230683
7.5400,8.991947317,23.41742391,2.355402092
7.5450,4.973214411,10.48735872,9.346668522
7.5500,-6.035131926,16.58341111,9.363180048
7.5550,-1.471953614,21.47239119,5.301972138
7.5600,-12.46709042,24.16665553,3.385000134
7.5650,6.835190598,23.08545115,3.46557666
7.5700,9.570132392,21.59884189,3.63454383
7.5750,14.48826277,8.803417029,11.49620825
7.5800,8.39552008,9.041973504,4.985357077
7.5850,4.366891259,4.992447331,6.050933038
7.5900,11.62150875,2.510935512,6.443255722
7.5950,-0.310446553,1.562048832,8.883046552
7.6000,7.691226395,2.025695283,12.97833894
7.6050,5.004544964,1.74929271,14.16064018
7.6100,-2.247504827,6.77643651,14.59535615
7.6150,1.504612267,6.191617747,17.64416164
7.6200,5.54674044,7.438162177,14.228671
7.6250,-4.521614455,17.27166809,18.97208039
7.6300,-17.87986867,24.11128431,14.54818552
7.6350,-20.59212039,24.1725072,12.20463958
7.6400,-22.87958941,25.62681251,1.218511646
7.6450,0.8739286566,27.85527944,-5.156416209
7.6500,0.5130583085,15.62719855,-7.592940977
7.6550,8.392726404,4.067462043,-4.397384477
7.6600,13.6711019,4.526552691,-5.272921138
7.6650,28.66097252,18.32660928,-6.096965042
7.6700,17.09314415,10.65331129,1.999822646
7.6750,21.74457288,18.62449842,-3.416301782
7.6800,18.38132138,25.35293223,-10.47941811
7.6850,11.93327642,30.26538929,2.789274436
7.6900,5.575317023,40.13064939,7.034927602
7.6950,7.259005249,42.17231437,21.96045521
7.7000,-6.572124307,37.97017659,22.4597441
7.7050,-8.004944861,23.69777192,29.25445955
7.7100,-25.14146453,16.83929654,20.5517877
7.7150,-17.99028298,6.489996153,16.43970948
7.7200,-10.57113892,2.738265927,-1.121095434
7.7250,-5.610616833,-27.2479077,-8.452384475
7.7300,-13.64842786,-42.51053677,-24.96971175
7.7350,-24.24128062,-46.55861523,-30.91458027
7.7400,-22.343545,-51.89342527,-32.02936034
7.7450,-29.13715981,-57.12355825,-34.45611851
7.7500,-30.7462494,-66.17073885,-33.62047964
7.7550,-37.94842719,-51.79359142,-38.69904807
7.7600,-47.27497143,-54.49930761,-27.99375397
7.7650,-42.98992637,-42.84062289,-23.03152
7.7700,-21.43262023,-39.20971185,-21.82823184
7.7750,-27.30060391,-40.25129617,-11.21872396
7.7800,-21.28435435,-31.15839731,-7.428118018
7.7850,1.496682255,-7.11214186,-8.520129873
7.7900,-3.432935172,-5.226782381,-0.2095937213
7.7950,-14.18182333,-8.427720347,6.400074367
7.8000,-13.03894487,15.85324613,3.799109067
7.8050,-12.25498578,14.78412625,5.226938374
7.8100,-13.85327618,27.55143711,-1.657878186
7.8150,-14.24347336,25.91674633,6.048252603
7.8200,-3.715948403,32.04135347,-2.224414922
7.8250,-9.22026928,22.32492154,-3.856707669
7.8300,-11.4206428,22.96339397,-9.087584082
7.8350,-17.29581891,17.05433794,-10.13908392
7.8400,-5.320469175,8.765670139,-10.03002649
7.8450,6.3453125,-4.174030901,-14.06027413
7.8500,-1.662765309,2.801548776,-19.45009801
7.8550,-12.65412002,-4.335949245,-10.12256744
7.8600,-10.14118208,-15.67052807,-9.987318593
7.8650,-2.408259754,-26.16051575,1.104961225
7.8700,-9.114272184,-29.4365224,6.806239735
7.8750,7.33870815,-24.00017857,14.69956168
7.8800,-10.11236882,-17.31383158,20.0115571
7.8850,-9.634498429,-4.801542176,22.94315553
7.8900,-15.62933769,3.776823171,12.72740132
7.8950,-23.37542837,18.72988159,2.415813407
7.9000,-7.132276345,27.02339778,-0.4765109166
7.9050,-19.91849973,27.34265024,0.8472401536
7.9100,7.996830823,25.66653497,-9.112067322
7.9150,-14.94288363,14.16711391,-2.65908583
7.9200,-15.74266927,14.33794266,-4.565735601
7.9250,-2.795977686,24.48045088,-8.777926354
7.9300,-14.34803624,15.05621628,-5.025410245
7.9350,-14.81008311,0.5979864418,-2.521053579
7.9400,4.210666906,-9.978921973,4.37992924
7.9450,7.368466604,-13.84150283,3.293062937
7.9500,-11.11244279,-11.47338726,3.05031569
7.9550,-7.563604326,-14.6868926,9.187493193
7.9600,-15.48891321,7.771352109,3.40673573
7.9650,-14.47191859,23.46320725,7.987369824
7.9700,-11.24326779,9.176640419,21.22171362
7.9750,-1.499163919,13.01632172,5.135694582
7.9800,5.813070397,15.2356903,-2.897447724
7.9850,3.836529844,9.492182966,-11.0272982
7.9900,6.182434264,9.485286937,-10.74335411
7.9950,-12.86063967,14.03217286,0.5208581049
8.0000,-19.58095069,17.63936579,0.9547445015
8.0050,-25.26418554,17.06316218,10.71349003
8.0100,-12.1064941,13.57065272,9.950581019
8.0150,-20.92431914,9.095251493,8.759360097
8.0200,-26.63441576,4.077483023,1.918485454
8.0250,-26.70095644,-3.137235763,4.907300647
8.0300,-11.04625574,-12.50583866,2.32786071
8.0350,-2.487146375,-6.440417776,-5.933953524
8.0400,-14.85261436,-2.595179805,-5.225903906
8.0450,4.667358874,1.488372351,-9.909936248
8.0500,-4.219042646,3.499835526,3.979865276
8.0550,15.14283825,6.852222815,7.468502016
8.0600,-1.400814781,17.98005062,6.674288
8.0650,-22.16598752,19.10179854,8.155681073
8.0700,-17.98205204,24.83103338,8.451703167
8.0750,-13.62817653,19.50161991,15.59399538
8.0800,-5.550251783,17.04841887,4.436275783
8.0850,-3.478868936,15.74051678,-1.09171362
8.0900,8.816340242,-0.4700866764,-4.120487423
8.0950,-3.274600506,-18.88203002,3.721658062
8.1000,1.639414114,-18.58805952,-7.167571835
8.1050,4.372653887,-18.12311821,0.8978623048
8.1100,-6.384492402,-6.416148664,1.255602076
8.1150,4.875924309,2.671943388,-2.249346221
8.1200,-11.76757425,3.923525255,-1.796593081
8.1250,-3.165442796,1.240700097,-10.76851593
8.1300,6.799695172,-5.054829504,-7.276916539
8.1350,8.009156081,0.01206548484,-5.132860552
8.1400,15.67714652,12.26428835,6.742666816
8.1450,6.156554631,2.023346356,22.13628052
8.1500,11.6435253,8.482235934,17.99211898
8.1550,1.30078548,-3.897047416,21.84389449
8.1600,2.578239811,-19.46928901,17.51266588
8.1650,-8.624569382,-23.15206356,22.73206689
8.1700,6.944806858,-19.97242232,18.14574702
8.1750,-3.190465919,2.612625254,13.92382555
8.1800,15.82917478,0.9260286564,1.97531
8.1850,2.205718486,-7.620571566,9.751578271
8.1900,7.421310289,-2.912862633,8.996006284
8.1950,8.214587695,8.02087071,11.51065914
8.2000,9.337463263,6.109213588,12.89844023
8.2050,-2.119744422,8.388793501,4.807241457
8.2100,2.547003247,12.20079868,-7.535546137
8.2150,9.403941875,2.015938365,-11.36658987
8.2200,12.00083488,1.046453404,-6.622866263
8.2250,14.93889711,4.429423986,1.532651254
8.2300,8.310893753,7.001900454,0.2590872482
8.2350,-2.089680648,-1.510473859,11.29378478
8.2400,1.708678948,-15.00543029,6.220229824
8.2450,-11.69207288,-25.47542729,17.93273805
8.2500,-5.618150525,-16.06958527,9.403069037
8.2550,-14.6598803,-25.39661584,28.80886225
8.2600,-21.5179998,-16.60554183,26.51263727
8.2650,-10.82954892,-6.536896734,16.97660083
8.2700,-7.386376771,-3.898522126,-1.629677015
8.2750,6.746742392,-11.01530557,-12.97340183
8.2800,1.862404745,-11.81487864,-14.36707919
8.2850,6.911148178,-1.98954803,-24.08016006
8.2900,-2.747945212,-11.8902363,-9.631724265
8.2950,4.300355797,4.615774453,-9.51777464
8.3000,-5.831642941,20.35731045,-4.637725012
8.3050,6.152207225,24.68015749,7.48899177
8.3100,8.835613996,28.51042852,7.554160629
8.3150,-3.60925868,18.20417099,13.5459635
8.3200,-20.51081198,11.13949328,16.61927132
8.3250,-22.83056826,15.73496683,10.81499284
8.3300,-18.60106658,11.56130677,15.98764201
8.3350,-0.7788272384,15.53886075,15.48058468
8.3400,-8.935883312,8.385150828,11.89314235
8.3450,-1.304592195,-1.216122727,8.515065271
8.3500,-2.194275113,-5.667918258,-10.75398949
8.3550,8.69869193,-17.86926559,-13.9745177
8.3600,24.44367813,-13.62838345,-17.39104384
8.3650,22.02545998,-9.314334071,-9.759681488
8.3700,20.70244623,9.250536513,-15.94519102
8.3750,-6.434764926,0.2365827489,0.7378830161
8.3800,-3.258147546,1.818361849,1.801728176
8.3850,10.11181346,3.130598736,3.047475543
8.3900,5.194574319,1.97738979,25.75728454
8.3950,7.430640287,22.93772672,35.29853571
8.4000,19.97866084,50.2217755,19.31735557
8.4050,-2.926057477,51.55628798,24.76280724
8.4100,12.74341643,44.89925656,9.488554508
8.4150,3.053093987,30.07689294,-0.009935649346
8.4200,-0.6191335497,14.74615774,-4.562373303
8.4250,-2.144015211,-7.106554096,6.870852345
8.4300,-19.69254629,-9.742665413,7.648465637
8.4350,-19.69887996,-14.73816949,11.77746902
8.4400,-9.971346293,-28.46804032,12.72683403
8.4450,-15.98225013,-36.43485849,4.904012082
8.4500,-24.95297386,-39.94819528,1.696089757
8.4550,-14.54536229,-14.74612608,-22.22029259
8.4600,1.060684359,-14.76607035,-34.70936754
8.4650,31.34799067,-13.86893868,-37.51782665
8.4700,18.7569608,-11.35523661,-23.79248083
8.4750,15.39870595,-15.50641463,-12.03725403
8.4800,3.272716493,-3.467651969,-17.23009923
8.4850,8.184717058,3.726226121,-12.64390324
8.4900,1.231943538,3.36278824,0.8235405774
8.4950,7.931753489,15.1958037,3.814290262
8.5000,-6.653726479,23.47706228,3.87211303
8.5050,-7.110957753,25.03694799,5.0616572
8.5100,-8.121188491,-0.2029409001,9.107269279
8.5150,-19.75079703,-15.41579443,15.23477713
8.5200,-16.17461278,-23.18381141,8.635109977
8.5250,-4.468609389,-14.22665816,-5.973978019
8.5300,-17.48450457,-9.955459738,-7.585318348
8.5350,-22.23961116,-14.72176675,5.435294248
8.5400,-13.71932841,-26.8474645,7.41881154
8.5450,-1.624065284,-33.03229904,4.360988898
8.5500,3.049777139,-13.13202402,-24.4634686
8.5550,-7.296093014,-13.50707721,-33.70972485
8.5600,7.148903718,-21.09502108,-49.13433045
8.5650,8.955260305,-30.9754763,-34.46098644
8.5700,8.838036036,-29.25388519,-23.82137224
8.5750,12.95256171,-29.05342697,-3.194199381
8.5800,7.417240277,-2.846389858,-2.153776868
8.5850,25.11719509,11.42112777,10.44467083
8.5900,-1.759638669,25.04971619,46.13755132
8.5950,-24.87992953,43.85696755,65.84607903
8.6000,-24.87838911,50.33491441,70.37434619
8.6050,-3.330344464,50.16348658,51.7875121
8.6100,-16.17715444,21.09282791,37.45797227
8.6150,16.37753189,-1.175135933,-1.711976068
8.6200,21.82381877,-19.8386218,-25.13079118
8.6250,29.07600671,-33.61352129,-46.92739878
8.6300,43.87890703,-44.93016151,-63.29451362
8.6350,46.68030155,-30.76829183,-70.76297381
8.6400,37.71822244,-27.47363504,-55.51006068
8.6450,25.7923979,-15.05543186,-27.05160433
8.6500,25.47416157,-11.73911351,-4.06876343
8.6550,14.8858377,-1.601837269,8.899407766
8.6600,-4.859106161,-22.57796542,26.01960123
8.6650,-11.97192362,0.7428589058,21.33434687
8.6700,-2.4621857,-8.678269499,15.17754774
8.6750,-2.49118499,3.77950398,8.515230483
8.6800,-8.007051588,-4.559050378,11.21100719
8.6850,7.131134875,6.778063555,7.452376897
8.6900,9.470466195,22.06997982,7.828922061
8.6950,23.0561504,17.56625696,8.390171279
8.7000,14.47203678,25.56136919,-0.3512455566
8.7050,-7.476853572,20.60137145,16.04879986
8.7100,25.12630497,-17.03060576,11.8174245
8.7150,11.2378889,-10.87015019,5.442554939
8.7200,20.21063836,-20.91032381,-1.142817641
8.7250,20.19498017,-18.57462062,-2.027146013
8.7300,39.79974676,-17.10431193,1.469731812
8.7350,24.59307414,-16.16318436,3.975885642
8.7400,17.97055907,-11.08061816,-5.787369285
8.7450,11.1018456,-15.13478828,2.078672643
8.7500,20.79193908,-21.08879246,4.491781587
8.7550,11.46783833,-15.22426989,24.33507479
8.7600,8.133570309,-1.582648613,21.45135015
8.7650,25.17739043,7.303109783,11.56797976
8.7700,33.24204228,6.272578307,-4.745163101
8.7750,51.26096847,-5.401618423,-8.229344364
8.7800,32.38934226,-1.784841556,-15.53883739
8.7850,22.3533373,-14.23274225,-15.21666009
8.7900,39.96326546,-5.132111662,-36.21617986
8.7950,36.56205037,-6.84379121,-39.6909616
8.8000,33.8595013,-18.40317168,-30.39430317
8.8050,20.47502017,-27.69470304,-25.71510472
8.8100,22.8970844,-17.27786147,-27.80984639
8.8150,27.32865728,-19.50970087,-14.66053698
8.8200,3.631785402,-27.96083574,8.580414826
8.8250,15.18309804,-28.46443275,13.38815429
8.8300,7.087836492,-20.97761085,16.05832089
8.8350,-6.980651765,-7.324180324,25.2454808
8.8400,-5.05252775,-12.72038008,13.50383863
8.8450,5.922984342,-31.93108385,7.32532748
8.8500,13.52439335,-34.57066146,-1.658255052
8.8550,11.35938773,-25.74579943,0.74342353
8.8600,15.92951982,-22.2954381,-13.23677642
8.8650,15.03303496,-11.5265091,-12.76777695
8.8700,39.64013604,1.243068736,-13.58052717
8.8750,18.82090445,-0.06891311653,6.450738098
8.8800,10.64946727,4.824164848,3.403558639
8.8850,24.9992145,4.930394844,0.09259346718
8.8900,16.85830607,9.743515015,-1.340002266
8.8950,27.71884466,4.0558608,-14.9938547
8.9000,26.31204449,-18.88611814,-13.99932716
8.9050,15.2549096,-20.55673754,-14.10628629
8.9100,3.205325844,-27.80715801,-5.256315704
8.9150,-7.020314737,-7.703205292,-1.388751524
8.9200,-13.32547424,-15.31799455,8.597852398
8.9250,-10.50123624,-24.2651089,12.11244227
8.9300,-10.18560364,-25.47770102,12.3905355
8.9350,-14.36859077,-19.50752727,7.814977298
8.9400,3.292712661,-12.54972568,-14.73688606
8.9450,26.29128373,-5.138722687,-27.28479921
8.9500,11.87921151,-0.4887730492,-26.34256365
8.9550,-0.9316665577,6.588188071,-8.363013358
8.9600,-8.576128739,28.91405045,0.4020094188
8.9650,0.5696250343,30.76125035,14.38931457
8.9700,4.247748571,26.81726175,21.19221894
8.9750,3.358666326,26.97963594,20.91443572
8.9800,1.515329931,16.02186359,20.5783294
8.9850,-0.3636536856,29.32493944,3.193707939
8.9900,14.47061755,10.39760972,-2.006126604
8.9950,6.027047697,9.919050772,-2.511798041
9.0000,-16.49461187,-3.574343764,-1.182509037
9.0050,-9.039657662,5.630766749,-19.68612641
9.0100,-14.40482941,11.90616471,-19.66802757
9.0150,-15.99358768,4.52981263,-10.15297245
9.0200,-17.71619954,6.941355822,-5.440315072
9.0250,8.117137787,-1.516335823,-10.50759423
9.0300,-7.403556674,-5.321064155,-1.445224025
9.0350,-4.085709687,-4.004968628,-0.5065640916
9.0400,-15.81337523,-16.71782898,14.23713485
9.0450,-27.12757524,-19.88531878,18.15959144
9.0500,-19.05388267,-28.70736076,2.825640334
9.0550,-22.30759794,-31.63642894,11.23693671
9.0600,-24.74393871,-16.59203327,-4.918474485
9.0650,-6.645760857,-9.414400977,-23.91808595
9.0700,-4.910971543,0.1700178026,-33.39442169
9.0750,0.1072869718,-6.805130976,-28.14676557
9.0800,5.472445451,-13.28189056,-32.15986599
9.0850,-6.285452996,-17.04855992,-23.58152829
9.0900,16.26681014,-20.72184602,-25.78221714
9.0950,36.58742095,-13.0196881,-25.81057944
9.1000,18.83657289,-8.560227616,-24.19457523
9.1050,30.46669409,-2.41770148,-45.0320631
9.1100,24.63988905,-0.2986306083,-67.98451762
9.1150,20.57033412,0.9630050539,-83.0162186
9.1200,19.29662336,-3.127046303,-69.04237502
9.1250,30.68586021,1.816797196,-46.93182109
9.1300,2.412716064,-5.35960182,-4.852972045
9.1350,0.0197074028,5.786866046,-3.721421545
9.1400,14.76535424,23.42967778,-9.300914178
9.1450,16.67086452,20.15340622,-8.840926183
9.1500,4.647491603,-5.914289059,-9.691988919
9.1550,13.08210764,1.53556472,-19.31506222
9.1600,-1.333866699,-13.52262255,3.553224414
9.1650,-12.92611528,-24.09582683,21.37291229
9.1700,-22.90343195,-23.81220915,19.70657022
9.1750,-4.836399935,-15.37576519,-0.04192688305
9.1800,7.452068486,-1.372839945,-34.8972966
9.1850,-3.070452534,-10.52455623,-34.8578083
9.1900,-4.814417992,-9.661830058,-16.68336156
9.1950,-0.04417586498,-6.393150775,-0.1419215011
9.2000,2.943059848,0.5594286811,-1.610221516
9.2050,-9.881541181,-10.33524364,1.461442169
9.2100,-1.716936019,-30.15476353,12.56943384
9.2150,-16.62378096,-17.56608292,24.17509319
9.2200,6.293067741,-2.72720008,5.980691186
9.2250,11.42981686,-0.87450963,2.617491388
9.2300,28.989301,-12.01740554,-1.697137511
9.2350,23.0260292,-11.90391577,3.945060244
9.2400,32.44059635,-16.51541392,3.10795292
9.2450,33.42989756,-17.87661211,7.778106149
9.2500,23.2994246,-9.725187688,-2.20776456
9.2550,22.26423397,-12.07239081,0.3911220219
9.2600,21.89850785,-7.258701087,-13.69161779
9.2650,31.61427842,2.12797319,-21.6163274
9.2700,26.47339999,-8.056714412,-7.077202085
9.2750,13.99652746,-15.4036512,13.39207796
9.2800,-5.061197827,-21.05398423,18.98802682
9.2850,5.026860188,-19.16783041,1.840566695
9.2900,7.265871394,-42.8442101,3.968517665
9.2950,-8.356930394,-60.26644579,16.19319319
9.3000,2.166360452,-60.05272898,10.7582594
9.3050,-12.33072316,-48.68075093,14.02961937
9.3100,-10.50333315,-60.04485709,9.530099131
9.3150,-23.30777506,-52.22459853,20.82933281
9.3200,2.151798502,-47.65658228,5.283190572
9.3250,21.89236264,-43.40500564,-1.81604695
9.3300,16.87969385,-33.33611255,-0.6548132318
9.3350,37.10373165,-15.63940232,7.427984178
9.3400,25.70051898,-1.137842072,23.65519553
9.3450,27.13820401,27.95779461,24.28250456
9.3500,20.87055864,44.4631081,33.75356849
9.3550,42.18073461,55.03352374,33.30363691
9.3600,50.74444328,73.16299785,28.16650182
9.3650,34.93652552,68.1661429,28.68289447
9.3700,23.73138394,63.02802859,-1.017390743
9.3750,20.35236834,34.14329791,11.07969013
9.3800,6.365704775,20.48645873,6.833535069
9.3850,-12.63680725,3.442581045,5.673349663
9.3900,-6.595636876,-2.868892496,5.502465335
9.3950,-39.10370246,-14.25656129,27.35674615
9.4000,-18.49784652,-23.89266316,24.82923574
9.4050,-18.97182985,-11.43926767,10.4721212
9.4100,-6.541548397,-23.87890439,13.65939942
9.4150,-18.94517906,-9.144444782,11.61857314
9.4200,-17.43922757,15.21145744,1.637059011
9.4250,-16.57120941,8.375207118,10.118436
9.4300,-11.57852154,32.82050513,4.797354766
9.4350,0.6042480485,51.89542925,10.55377349
9.4400,-4.642923188,53.9000547,16.12034685
9.4450,4.040392803,57.66790199,5.962122902
9.4500,11.14014532,37.87184159,9.529565343
9.4550,22.27970331,23.18973868,30.95304248
9.4600,26.87553798,12.41514145,31.23774492
9.4650,2.166457853,24.7467732,22.48771922
9.4700,10.01498671,0.3875511338,13.76638471
9.4750,-10.98881394,-13.17570221,14.28244174
9.4800,6.221703024,-23.71274021,2.791942796
9.4850,0.6404338775,-19.64975146,-1.986114927
9.4900,-1.866051064,-19.58071964,2.98510844
9.4950,-0.8277987349,-23.72750841,8.411998623
9.5000,-3.566829588,-20.40923243,0.8481192702
9.5050,12.17380373,-16.11995522,-2.171311243
9.5100,15.77511866,1.032043455,-4.003700181
9.5150,26.13602224,11.88987401,-10.89849794
9.5200,36.06884598,23.95608432,-20.44303272
9.5250,26.78881787,18.64934924,-26.08963342
9.5300,43.8343802,12.2982657,-40.39460191
9.5350,27.4530935,-1.912768774,-9.530598506
9.5400,12.53583465,-10.50865167,20.62399962
9.5450,6.158138688,-22.16687408,34.49075107
9.5500,12.59327718,-28.67669255,7.543202637
9.5550,9.01858637,-45.97906568,3.787709599
9.5600,19.51940874,-45.50408567,-8.213019267
9.5650,12.77002371,-48.03497582,-2.829351532
9.5700,23.46088899,-44.30497729,-19.17346083
9.5750,28.34160169,-33.32437428,-21.35596503
9.5800,40.98378697,-5.797406618,-15.38537174
9.5850,48.07051276,21.16367288,-2.185195775
9.5900,52.91183134,45.52579405,-17.27284362
9.5950,62.40544424,49.56464495,-27.74012013
9.6000,72.03515893,49.0417315,-22.10262095
9.6050,65.30516123,42.76258413,-9.875612759
9.6100,59.50118426,18.95544571,6.760806792
9.6150,34.92782931,-7.933696362,17.35986762
9.6200,44.31828192,-25.18775527,5.025865652
9.6250,41.75000204,-42.0195759,16.50873492
9.6300,29.65433528,-34.68779991,20.46982932
9.6350,25.59641719,-37.69530822,18.35806295
9.6400,28.15830339,-45.8655908,-1.787350043
9.6450,35.05850551,-31.36140142,0.1198614151
9.6500,35.6542465,-19.43269582,9.5747335
9.6550,45.31530697,11.6915457,7.40631721
9.6600,46.01138954,24.29721701,-0.2710793353
9.6650,43.93481076,31.95995492,-3.781716578
9.6700,44.31427195,32.02424235,-7.18373212
9.6750,56.82167293,27.84027677,3.087512441
9.6800,32.1968028,19.78293177,11.82237958
9.6850,41.78616451,13.09119347,4.615453356
9.6900,31.57909603,5.269570557,9.2605486
9.6950,28.66342037,-0.8804180613,15.09582157
9.7000,25.0967842,-12.50904115,24.43697693
9.7050,20.83599449,-7.374472456,18.99535522
9.7100,24.5573574,-27.14903785,19.35585476
9.7150,9.607522785,-24.76043714,25.22568965
9.7200,11.73245039,-30.77852769,23.27771446
9.7250,9.846529234,-16.31901698,18.84973874
9.7300,19.7376307,-2.465117384,6.105087932
9.7350,18.949739,5.659105699,8.07110115
9.7400,13.14940676,23.10105207,15.24445074
9.7450,16.78841672,27.86675303,10.33847518
9.7500,9.606239805,31.75196863,20.30655833
9.7550,0.08633766291,40.17103994,18.67471056
9.7600,-4.2072502,26.30947209,16.09914523
9.7650,0.9680757918,21.03874528,13.7623711
9.7700,-2.381811725,3.15017835,17.32218833
9.7750,-18.07365587,-0.8027740207,23.66917419
9.7800,-17.30102959,-8.10353277,13.83487033
9.7850,-13.17421766,-18.28276206,5.256077972
9.7900,-24.86635616,-25.47951241,7.335170911
9.7950,-25.23040277,-11.59386659,3.891433963
9.8000,-18.09323069,-9.99336066,-3.487223116
9.8050,-24.45504301,8.825391196,3.966679656
9.8100,-15.2311866,10.55875865,8.364546098
9.8150,-8.188599395,19.33565168,3.896945661
9.8200,7.467418125,28.16082022,1.79557521
9.8250,3.695844943,36.76869693,11.62192261
9.8300,3.683126341,37.0207055,8.403713722
9.8350,-4.8871042,43.37405362,5.721656542
9.8400,-11.53240284,30.70491451,14.72736513
9.8450,-1.220152781,32.02309792,11.59544508
9.8500,0.4492171807,18.85499746,12.03554506
9.8550,-9.706299194,-3.62155005,7.237450333
9.8600,-14.77378736,-18.8760823,8.248768308
9.8650,-17.52651401,-17.33841412,-0.1324854665
9.8700,-10.89763911,-15.90044068,-13.04341676
9.8750,-16.73280686,-26.54167422,7.789307411
9.8800,-15.383258,-20.49405262,6.785356596
9.8850,-4.461167238,-27.23631982,9.391330836
9.8900,4.160824043,-9.740620677,6.370687891
9.8950,0.1578242213,-2.211509031,7.647997081
9.9000,15.0265405,2.586796647,-11.67015553
9.9050,4.69415842,3.736846834,-6.207179311
9.9100,7.925158333,13.80835219,-4.131527134
9.9150,15.4471191,19.10439641,-11.88252669
9.9200,-5.657484397,10.60427203,-0.7103700787
9.9250,7.515325782,8.74692825,2.459743889
9.9300,5.701406916,14.2821482,-1.480589849
9.9350,17.0265225,22.53945592,-4.288542152
9.9400,-0.3139320209,2.701524993,10.63060502
9.9450,-6.995902063,-12.3524792,3.016183372
9.9500,11.44538319,-20.99803168,-10.60491693
9.9550,11.81307372,-14.94850176,-13.64112334
9.9600,-2.611564996,-10.19900369,-7.255037548
9.9650,7.365871565,-7.050303109,-15.96935806
9.9700,1.315825052,4.271800157,-10.11249074
9.9750,-2.697436004,9.648352036,-10.01990689
9.9800,-1.855163635,5.151101308,-10.26399065
9.9850,12.6802751,11.72643848,-23.73798026
9.9900,12.06935783,15.76387588,-19.15541664
9.9950,9.946634259,14.26590128,-10.42188894
10.0000,-0.6802485546,7.780241868,1.5324734
10.0050,-2.681970776,19.28588393,2.569209677
10.0100,-2.507405952,0.4324137291,7.730033611
10.0150,-0.6791669931,1.223255581,2.46908891
10.0200,-10.94801892,0.4155945523,0.61368589
10.0250,-8.739613837,8.892974579,-4.235424027
10.0300,-0.5039513085,-3.369042113,-3.925718302
10.0350,-3.722415029,-9.853862578,2.650874512
10.0400,6.935997384,-5.449605758,-12.05574843
10.0450,3.842069162,-8.050471165,-10.43997978
10.0500,-1.800085379,-10.5743961,-11.42900683
10.0550,4.515272256,0.3478044675,-18.0491696
10.0600,2.602213942,-0.2225429192,-13.36186628
10.0650,0.5312608863,-2.886076549,-10.49628434
10.0700,2.472665785,-7.384392845,-4.592157086
10.0750,8.33117634,-0.9433655873,-11.35029818
10.0800,-0.2920906337,-2.219150248,-18.0185764
10.0850,1.629816723,-6.72237964,-20.62291387
10.0900,0.8174054883,-4.170963575,-25.87496213
10.0950,3.562374398,-4.171689781,-23.22026602
10.1000,0.7737085669,-6.174270929,-15.18784853
10.1050,-4.511699382,-0.8870886571,-2.237639246
10.1100,8.690860665,0.2278844146,-5.729401162
10.1150,5.803091536,8.659828463,-1.205549779
10.1200,4.689268397,6.65719003,-1.626755356
10.1250,-0.8967571158,6.945169816,0.3744036245
10.1300,12.26596402,25.43177026,-11.0065864
10.1350,16.93710112,9.442828228,5.664020514
10.1400,6.683272383,16.61379409,7.361490349
10.1450,29.44543256,2.188086463,3.972307906
10.1500,18.83118825,1.235468217,-0.4521151677
10.1550,32.90878131,-12.5929938,-6.029847714
10.1600,27.63561574,-16.37089912,-5.975025283
10.1650,19.59780542,-12.73969246,-4.359408375
10.1700,14.4903517,-2.841541668,-4.980754554
10.1750,21.18771787,2.780259015,-2.564658356
10.1800,10.69004609,7.908828945,-1.766771939
10.1850,9.991084732,4.845427883,5.997653684
10.1900,27.23522952,17.77806598,-16.30180345
10.1950,16.88592287,7.716871528,-8.667325773
10.2000,20.49209469,4.686090095,-8.58503986
10.2050,6.780939119,8.519027453,-0.4115063921
10.2100,18.56218669,3.919038782,4.522517442
10.2150,29.46562485,9.598780568,8.206662684
10.2200,31.79441931,-4.51152589,15.26244166
10.2250,20.15522742,-5.246629348,10.18837643
10.2300,17.22320776,-3.431809696,7.288763734
10.2350,10.30815836,8.701200306,7.681877085
10.2400,13.05805664,10.41068205,-1.861369969
10.2450,31.09398602,2.196282156,-11.37942816
10.2500,23.11409465,-16.24239108,-7.701654819
10.2550,29.31825255,-4.800132935,-4.893461997
10.2600,25.45793636,-3.57020807,-6.630325881
10.2650,19.33120912,3.496277326,-6.675190284
10.2700,25.88369683,1.876850133,3.130445758
10.2750,20.54904017,12.92605877,6.364370862
10.2800,26.40954016,8.457752403,2.624476116
10.2850,24.7921729,6.114366938,4.225761808
10.2900,30.6291001,5.478492243,6.804710327
10.2950,30.04068411,8.699783374,15.16530475
10.3000,13.07199411,5.225086832,20.08179501
10.3050,34.84896485,5.837227943,13.80832026
10.3100,16.82067582,-0.699035711,18.31780311
10.3150,29.5083195,-4.559425196,7.189613502
10.3200,18.67158631,-13.76670538,4.707205001
10.3250,22.15183945,0.2251970368,-3.992944569
10.3300,21.27537967,-2.559685016,-1.844796254
10.3350,10.36076684,6.209564466,1.613868374
10.3400,13.21134962,2.0159654,0.09999741437
10.3450,22.84444129,-1.670074516,-4.532305262
10.3500,30.76683347,-0.6325907537,-12.53051303
10.3550,12.47695801,-4.54400893,-0.4408795151
10.3600,13.08441601,-7.401177073,-3.620721328
10.3650,0.03338361279,-14.30184845,6.468840354
10.3700,-0.1771230228,-17.31288964,3.785916121
10.3750,-15.48450453,-26.25968769,20.119457
10.3800,-8.367635015,-17.05166755,14.07385033
10.3850,-2.424523269,-17.08140354,12.70326461
10.3900,11.11795743,-4.010603447,8.684485628
10.3950,-2.356960846,-7.264336212,21.2711806
10.4000,-13.20093636,4.506080212,19.82000554
10.4050,-20.09977458,3.576763993,21.39927684
10.4100,-8.141817248,18.60305702,10.3685272
10.4150,-6.263592003,25.55973656,7.642072979
10.4200,-2.127196985,24.31324116,0.3603794288
10.4250,-4.150506719,28.13594123,-9.127019868
10.4300,-9.642557083,20.97282222,-17.3472239
10.4350,-26.8384385,22.42773981,-12.57686121
10.4400,-36.885919,20.83258031,-7.334421709
10.4450,-39.66149805,10.84397249,-4.950977758
10.4500,-45.81433532,2.211398297,2.91647486
10.4550,-46.77431217,10.02101148,0.02841369322
10.4600,-35.44944762,5.092285112,-0.5285458351
10.4650,-22.18919038,-12.36283866,1.276136011
10.4700,-17.06738356,-5.008926732,-0.7205238418
10.4750,-5.309852092,-1.569069555,1.507745074
10.4800,-5.477368839,2.569568925,1.912609048
10.4850,6.885919816,10.60101318,-7.317282293
10.4900,18.77084148,14.80318914,-6.695267276
10.4950,8.467025444,18.77578427,-1.278181383
10.5000,-9.968543365,15.74496206,12.34038946
10.5050,-2.441865928,20.19274759,6.303088699
10.5100,-13.99705076,25.80462596,15.13077257
10.5150,-2.112203474,16.76654062,26.26685472
10.5200,9.387256901,19.59389411,27.96692203
10.5250,-9.555054262,12.97001821,33.69342354
10.5300,-18.86929635,8.16415824,27.01822227
10.5350,-19.16487354,6.687882624,20.50989905
10.5400,-8.082883461,32.68114348,-1.673761972
10.5450,7.703609028,34.88811156,-10.83222451
10.5500,24.76954239,18.01179126,-24.62145351
10.5550,24.14589386,2.185827769,-27.0319349
10.5600,13.54670385,-2.415747548,-21.79157105
10.5650,5.198858166,4.258766265,-16.60234276
10.5700,19.92460273,19.81686778,-18.5520437
10.5750,10.44399524,15.1127862,-4.110375565
10.5800,13.57840751,13.52779062,5.537451404
10.5850,17.17211323,11.54528304,4.365939418
10.5900,-2.622200781,-6.752007904,14.68438164
10.5950,-18.60460937,-13.50938519,26.26273648
10.6000,-17.4670998,-24.984878,35.49247032
10.6050,-16.37039032,-16.67435881,34.26530719
10.6100,-7.549622639,-18.61112431,24.72985365
10.6150,-7.514486206,-34.61337773,36.85727509
10.6200,-11.50675328,-19.88936158,21.73950519
10.6250,-2.767183947,-5.007914408,1.19218013
10.6300,20.78534597,-0.6425966326,-18.76226538
10.6350,26.87478979,-0.7738394113,-15.07666778
10.6400,18.13256837,-3.551176666,-5.053886062
10.6450,15.4351324,-0.9299289115,-3.922752604
10.6500,-9.898017285,6.37257901,9.653199683
10.6550,30.03441685,32.40440081,-10.83434688
10.6600,27.9041985,32.12432303,-6.672023405
10.6650,34.29181991,32.10832216,-6.121692587
10.6700,-6.599803738,2.865805866,10.0145587
10.6750,-11.32068722,-3.589285941,17.22853986
10.6800,-10.77733046,-1.969642522,18.43969806
10.6850,-22.45308303,6.530593051,34.02482277
10.6900,-20.96015799,18.23349759,16.22013951
10.6950,-26.17419102,14.55397816,10.08079834
10.7000,-7.152506477,-4.647430113,-2.989847477
10.7050,12.12749064,-13.48309427,-20.33882483
10.7100,5.912988081,-19.75465969,-37.11661259
10.7150,9.08529795,-25.15363884,-48.98015709
10.7200,2.102407959,-9.59836849,-52.95814939
10.7250,21.21802972,-20.19537487,-41.17151424
10.7300,24.50818185,-18.28714711,-21.57367447
10.7350,3.47154913,-4.764717031,-10.35638192
10.7400,5.458402239,4.899949455,-6.347616528
10.7450,-6.612957415,12.49227417,-0.2709961097
10.7500,-5.342103165,6.490409915,10.99415355
10.7550,6.29682367,25.94779115,21.71445302
10.7600,-14.11263723,17.91377989,45.58878991
10.7650,-28.56141446,13.29266345,54.35823921
10.7700,-44.7931976,7.332752936,53.69859415
10.7750,-35.34768364,16.72211137,35.97455094
10.7800,-32.46412222,15.38643637,27.55358886
10.7850,-14.32975077,8.797174462,6.042242921
10.7900,2.916824332,-2.546931762,-22.11209236
10.7950,-4.10163704,3.581898727,-38.43242869
10.8000,9.363075435,8.356987054,-44.47184734
10.8050,16.02236722,17.95677418,-26.35802694
10.8100,7.1777977,17.92785257,-17.73007865
10.8150,-0.02526872116,26.89935876,-2.013313726
10.8200,-2.238914298,33.9822936,4.366450343
10.8250,14.51609415,29.03882224,16.32576211
10.8300,-6.930401153,32.37905152,20.38716309
10.8350,-10.32163614,40.3272964,13.75654413
10.8400,-19.70869952,34.86098837,21.30586426
10.8450,-39.71522765,18.32403741,25.61776738
10.8500,-55.43872363,2.672964606,40.00617067
10.8550,-71.46229509,-0.4159379072,29.8259674
10.8600,-72.67098831,-13.33741474,6.487836713
10.8650,-71.73883792,-33.188971,-13.05384655
10.8700,-26.48122273,-41.34917145,-40.84738973
10.8750,-0.4900246083,-52.43104648,-58.70331704
10.8800,24.19076013,-57.30807915,-75.20826427
10.8850,38.32942536,-48.19449804,-108.0704176
10.8900,33.18097062,-68.84412038,-96.83697915
10.8950,39.94878072,-45.82192759,-90.56116669
10.9000,39.55030102,-27.85259554,-72.91213466
10.9050,43.73005045,-19.57592631,-35.82578942
10.9100,25.18913373,9.168146147,-10.38818741
10.9150,0.5598831396,12.21701832,34.91653397
10.9200,0.565906052,20.62101575,57.47066237
10.9250,-15.74764711,8.240166486,78.30511238
10.9300,-35.04190912,15.78848413,81.2934123
10.9350,-49.7895199,14.69366899,88.3089991
10.9400,-57.10367065,9.848775791,71.91795178
10.9450,-41.00365498,18.08454685,42.68769521
10.9500,-16.99087103,-9.411554615,8.833331488
10.9550,1.7718054,-24.88007534,-29.59614291
10.9600,26.4891194,-40.01650794,-62.26205138
10.9650,15.14960051,-26.96830246,-78.89965845
10.9700,35.37345164,-10.6827228,-72.64140906
10.9750,36.540279,-3.790153381,-39.20833216
10.9800,32.54065278,5.864593268,-12.80490178
10.9850,16.3856838,8.962255299,22.79036628
10.9900,-1.365629896,16.26554816,43.6739019
10.9950,-28.49606588,23.35235424,58.11987002
11.0000,-37.92125549,21.34132462,68.44988568
11.0050,-47.19363503,27.87997608,59.46444675
11.0100,-44.24342377,14.83256742,54.7985966
11.0150,-47.60216202,5.368478606,30.87782279
11.0200,-43.33754166,-2.935579942,0.9178901404
11.0250,-41.25374514,-7.877237916,-29.137414
11.0300,-32.54255326,-8.179931515,-44.94852224
11.0350,-28.42175925,-4.361494538,-45.37268426
11.0400,0.3129692977,-2.38234908,-36.12220295
11.0450,13.42661325,-5.315763381,-30.51781097
11.0500,7.007212215,-10.96777694,-22.99271438
11.0550,19.22682196,-13.61378611,-20.75160171
11.0600,12.85987734,-11.09836046,-27.33998331
11.0650,43.90849121,-20.64415231,-33.06749648
11.0700,36.64288223,-20.87559342,-15.37574809
11.0750,15.73608868,-23.4909291,9.824282103
11.0800,-3.46702463,-8.489413973,9.167763811
11.0850,-11.7599765,-4.353037263,26.22239592
11.0900,-23.37614255,-1.590972423,35.8748831
11.0950,-21.79382205,11.97771052,31.68132783
11.1000,-36.26497721,6.050554713,28.32034924
11.1050,-43.12794509,6.242733165,15.19720052
11.1100,-49.97563838,-4.531197893,15.13523196
11.1150,-26.68950898,-11.53216053,0.01042698648
11.1200,-0.3072252835,-8.595578509,-22.53377847
11.1250,12.0980849,-12.14514406,-39.82991072
11.1300,24.30485134,-6.220301611,-62.31754428
11.1350,37.92474625,-19.5813439,-55.66707049
11.1400,62.65682846,-36.14018014,-42.56408027
11.1450,73.38201316,-34.70683494,-27.16976636
11.1500,68.83603473,-42.83781245,-11.82166648
11.1550,64.52273814,-34.48615105,9.16868276
11.1600,39.53294278,-37.71808843,24.96176309
11.1650,12.60022498,-36.54556178,54.16170569
11.1700,-10.20393317,-24.31324293,57.72560171
11.1750,-22.86115054,-7.18157468,55.76541782
11.1800,-13.63382175,-8.320889025,41.22996531
11.1850,-28.63017439,-13.70251848,29.69699625
11.1900,-2.896879672,-27.27823004,14.08490272
11.1950,2.465572029,-42.13974177,2.071432755
11.2000,15.17812109,-59.93373884,-19.33958269
11.2050,21.57832376,-71.00400309,-46.73415922
11.2100,43.67197391,-80.8599353,-60.67800059
11.2150,31.4109091,-77.15523406,-47.05433124
11.2200,42.24992633,-55.61784678,-26.37606396
11.2250,25.75213992,-17.2130162,-7.063812572
11.2300,22.06644581,20.69050203,2.86313586
11.2350,19.06110834,52.35433835,7.417658999
11.2400,15.74622853,74.862158,13.76497952
11.2450,9.113361999,95.97639176,17.40894079
11.2500,22.70426183,103.9555628,24.9763245
11.2550,11.89652058,103.2937319,41.91300087
11.2600,-0.4880999204,106.8968421,43.80073221
11.2650,-3.503750115,94.42266944,46.23924457
11.2700,-9.79756111,77.98960686,35.57546902
11.2750,-7.415980631,69.90632826,23.72576953
11.2800,0.1607381998,25.43248077,19.78880095
11.2850,14.45481422,10.04066178,5.38968418
11.2900,21.42189128,-9.333680883,-1.879569359
11.2950,41.69429861,-14.3423091,-6.254229171
11.3000,54.43139148,-23.39788006,-6.029184967
11.3050,35.37679944,-23.15531151,11.51805638
11.3100,39.71141502,-16.91152889,7.472375912
11.3150,43.64853524,-8.783719537,15.32076793
11.3200,30.24464718,-13.76947687,31.68825884
11.3250,36.20375287,3.609295174,24.12936723
11.3300,-0.2745112582,-3.644507238,36.22392672
11.3350,-15.25342819,5.173334911,30.5751407
11.3400,-11.26147557,-8.141038041,17.53010303
11.3450,-26.89015144,-14.77261356,13.93078367
11.3500,-44.00574606,-19.04925829,7.53256307
11.3550,-64.27366526,-9.396522882,4.303560025
11.3600,-44.95435826,-27.01108768,-8.56700414
11.3650,-52.34636658,-29.94099255,-19.35071775
11.3700,-39.4355706,-54.38983725,-29.5539014
11.3750,-10.79250708,-67.57351159,-38.36748274
11.3800,-6.93950242,-66.50310581,-40.69434019
11.3850,20.32145332,-69.39923011,-42.74467952
11.3900,21.86992718,-59.11588186,-38.23440269
11.3950,19.1512534,-37.39798491,-30.09539339
11.4000,25.25758648,-18.5238378,-18.98633321
11.4050,23.03367374,-0.02911606962,-8.89493764
11.4100,-4.811366372,39.85464304,4.754292798
11.4150,-9.639736651,41.25474086,23.93098949
11.4200,-25.61625392,47.4183545,22.48225415
11.4250,-33.92202437,51.06997278,22.421326
11.4300,-38.32722379,41.51829996,17.56918121
11.4350,-51.32246927,25.57198126,14.41184203
11.4400,-36.02682506,5.232834253,-2.948431346
11.4450,-24.82351936,-8.475869057,-26.25367978
11.4500,-8.963016414,-42.54435406,-25.63794478
11.4550,18.8677861,-56.9504021,-39.70429468
11.4600,25.7401475,-80.58076405,-23.85857007
11.4650,48.94718493,-64.51706229,-23.55340198
11.4700,46.61087008,-58.60088659,-0.8410104651
11.4750,48.03037265,-23.9394918,8.491386522
11.4800,68.39245962,-0.06620056714,19.59637605
11.4850,32.59828127,13.32294487,47.88380756
11.4900,22.31957115,27.92914268,43.12839381
11.4950,13.56064941,43.98062902,48.41405897
11.5000,-3.577090795,35.30809259,48.17761522
11.5050,-53.51828282,33.07622801,28.8306002
11.5100,-54.79919313,36.63409289,8.688578642
11.5150,-38.29946664,63.03800514,-4.579742721
11.5200,-13.30113558,61.60208418,-7.433946669
11.5250,-3.658244771,35.93098021,0.8364843358
11.5300,17.22802625,4.57805566,-6.841194417
11.5350,51.31033448,-5.273931124,-9.399026563
11.5400,56.67903082,-8.249006917,9.343761484
11.5450,84.44484773,4.151463155,18.27930913
11.5500,83.92803795,11.47589975,30.55714568
11.5550,40.87132839,16.82727954,23.37820006
11.5600,33.60456969,21.08616496,9.352297262
11.5650,24.27395999,23.1952379,9.420014215
11.5700,11.47801781,19.89848311,11.70445598
11.5750,-26.19200425,25.00453616,17.63344497
11.5800,-30.56421275,28.94224187,8.880455057
11.5850,-46.28578111,23.88520492,8.027918192
11.5900,-56.2461701,11.22894419,8.532825373
11.5950,-53.54778889,2.349431103,-1.47830503
11.6000,-59.99716965,-2.217167592,-8.343298015
11.6050,-69.12452081,-20.33033898,-8.812373001
11.6100,-57.67647128,-23.60639359,-18.69182804
11.6150,-60.49575666,-26.04091677,-16.83182939
11.6200,-69.54021602,-34.49372283,-9.555267923
11.6250,-62.14967265,-22.99522333,-0.9519467994
11.6300,-39.13906065,-9.864368872,2.227300482
11.6350,-18.7923871,4.280308083,-4.918042023
11.6400,-6.370761869,22.54880744,3.11475837
11.6450,0.3176261255,40.05469687,-5.792307578
11.6500,11.57844719,52.84525548,-8.971570424
11.6550,3.578475861,60.18605731,7.577085525
11.6600,27.82259223,53.86744701,-0.2210880886
11.6650,17.47125091,66.18909243,9.69885983
11.6700,35.24806347,58.72319448,10.59724874
11.6750,26.07465336,51.33760241,10.14334066
11.6800,10.46273445,34.51908534,5.147566901
11.6850,32.18665374,0.08505908546,10.41469725
11.6900,26.71675863,3.10571471,2.934645409
11.6950,20.83267297,-11.27426784,12.97643975
11.7000,30.27486831,-32.62391562,19.02665618
11.7050,32.41874361,-24.71759058,14.83303504
11.7100,34.46076073,-29.6734015,7.339123826
11.7150,39.70021105,-22.88562127,-5.572880153
11.7200,49.97865573,-20.47624499,-3.183829753
11.7250,75.28555483,-28.07340189,-0.03106108546
11.7300,75.59940083,-24.12950522,5.886557247
11.7350,76.57235466,-29.18235755,24.83575473
11.7400,69.15471184,-14.48984311,26.65166731
11.7450,61.53235242,2.224777407,23.24979251
11.7500,73.36958928,5.911162122,14.12337575
11.7550,63.68452128,9.180212001,8.665519818
11.7600,51.0974138,11.52580383,5.87166625
11.7650,56.96108868,0.9525322543,2.244516559
11.7700,57.62914934,-4.694799499,5.071507972
11.7750,46.20048838,-20.78621699,5.385808589
11.7800,34.82669346,-27.95977908,5.370837711
11.7850,26.53432056,-25.0449692,5.975635688
11.7900,23.63598803,-15.01028716,-0.6620933408
11.7950,18.3810777,-13.46619719,13.20127843
11.8000,33.30919748,-12.61267522,-0.4038218766
11.8050,28.94760169,-21.62751295,9.075165484
11.8100,29.54263854,-19.82784816,11.18041152
11.8150,32.45865654,-19.95890755,19.45374833
11.8200,38.23514435,2.284387041,9.948046874
11.8250,41.83424139,-10.52769191,11.37423961
11.8300,51.22290209,-3.174109448,6.647638886
11.8350,39.21483267,10.20129276,4.480754207
11.8400,51.51845733,-7.039036824,-1.834541998
11.8450,34.10396665,-8.386606892,-2.128520391
11.8500,49.58754853,-16.26475858,-8.8537739
11.8550,49.9809402,-27.5164328,-3.321023157
11.8600,44.74426461,-33.63656274,-0.5157985025
11.8650,44.6175456,-29.63816135,-5.09727571
11.8700,30.97040326,-40.7762842,-1.364795874
11.8750,32.67575921,-33.10762276,-10.80120219
11.8800,44.1417937,-34.76771045,-17.81703339
11.8850,31.46742686,-37.49731753,-6.040409481
11.8900,31.4423702,-27.31882448,-1.845616849
11.8950,23.05460988,-12.56199244,-7.055161584
11.9000,35.38951398,-9.585700164,-11.74931834
11.9050,28.06136698,-5.69350421,-3.628007634
11.9100,25.60269974,4.663047759,-10.63212065
11.9150,12.24033666,8.465751591,3.361890102
11.9200,11.84222478,3.836076279,11.75999818
11.9250,2.264672084,10.59216333,0.979529469
11.9300,2.444625888,3.032283918,-4.590752905
11.9350,-18.67371786,-0.06403272441,5.027933603
11.9400,-19.78809248,0.410413852,0.8270819875
11.9450,-25.86616858,-0.22537704,-9.10522675
11.9500,-26.19933568,-11.55763553,-9.14743224
11.9550,-34.35888144,-10.63507757,-13.19916637
11.9600,-35.93323743,-18.10766722,-10.55686228
11.9650,-37.51785574,-15.98033138,-1.495402009
11.9700,-38.97268616,-15.14756979,2.242556173
11.9750,-31.08662023,-0.217399404,-12.44196533
11.9800,-51.33086587,6.386038278,-11.31745229
11.9850,-46.90001074,10.16841616,-10.6369348
11.9900,-51.15335943,6.536244168,-9.586663044
11.9950,-40.85898706,8.482490079,-11.8820869
12.0000,-43.91397312,9.070288261,-13.76041223
12.0050,-29.67541208,10.19156751,-15.99506909
12.0100,-16.47082953,-6.676163519,-7.780638512
12.0150,-30.72181955,3.070675084,0.9806998949
12.0200,-16.85649911,-16.9457111,8.912047004
12.0250,-14.02172439,-15.60980798,-2.64501457
12.0300,-31.8946031,-12.42694173,-12.23472142
12.0350,-25.58590941,-2.144933984,-27.87777661
12.0400,-28.3306095,2.039958403,-31.14109048
12.0450,-27.39513366,6.173239345,-29.09557043
12.0500,-44.79705521,7.406251897,-19.33249221
12.0550,-33.55405097,11.69762343,-22.29402691
12.0600,-31.35993849,11.78487327,-21.71921053
12.0650,-19.57708397,13.73952584,-20.19256111
12.0700,-14.54757463,3.895754423,-13.47879379
12.0750,-43.41413634,10.29251879,-7.498326602
12.0800,-17.61851446,4.313510089,-18.89921743
12.0850,-31.04230812,3.53535238,-6.736696913
12.0900,-18.70561733,16.82436195,-9.744536629
12.0950,-25.1703072,22.48576054,3.749380087
12.1000,-9.986012313,13.46063392,14.16988678
12.1050,-1.53993001,29.93424358,11.54113272
12.1100,-9.686655349,20.22598281,14.35556672
12.1150,-9.963882185,33.67512709,0.7175248
12.1200,-8.691142307,34.75742636,3.164663746
12.1250,-11.42360367,34.54637339,2.159879422
12.1300,-20.42179725,35.60625909,8.692418347
12.1350,-14.81194631,42.0125989,-2.911801058
12.1400,-6.16790285,24.59040375,-1.363588322
12.1450,-1.769556408,16.29175678,1.743657154
12.1500,0.3790548334,4.726856546,9.802302483
12.1550,-20.1628631,8.028619031,10.04354862
12.1600,-8.294758095,-8.168157708,1.515501389
12.1650,-22.71846388,-4.607431793,-8.58376976
12.1700,-6.496548638,-14.66291712,-17.26799903
12.1750,6.474390416,-3.647066068,-26.46974721
12.1800,-3.666685441,-17.06152785,-2.08874151
12.1850,-10.24784811,-6.923724388,8.191113532
12.1900,-1.38411497,0.7343895568,4.195199498
12.1950,-6.877288219,13.7311732,0.5381812141
12.2000,-6.292273682,20.86303908,1.128191705
12.2050,0.634858355,24.9601808,3.380213985
12.2100,1.22261502,28.92910959,4.858320454
12.2150,2.054055205,20.0804259,3.443518445
12.2200,-13.2538282,19.0096412,-4.481159901
12.2250,-19.45507585,17.00626323,-12.35193218
12.2300,-6.100776086,1.756591011,-20.52132817
12.2350,-12.9434724,3.851707689,-16.88064387
12.2400,-9.246918095,1.73618684,-12.59320362
12.2450,-13.92899875,-7.515823604,-2.828867121
12.2500,-16.83048394,4.376757884,4.315666525
12.2550,-25.92163498,13.49199153,4.094825127
12.2600,-25.16258933,5.019563603,10.88072155
12.2650,-34.72605935,20.26890534,-4.344369045
12.2700,-27.55422689,14.68370476,-5.361481945
12.2750,-32.98000132,17.02676848,-2.478815179
12.2800,-35.60717973,12.70710395,0.7519167489
12.2850,-31.64252182,11.3594923,2.183941186
12.2900,-43.5858819,14.98158108,1.093214007
12.2950,-26.56164402,9.258356347,8.809305749
12.3000,-31.16126152,9.842845407,12.81018137
12.3050,-23.86545406,21.84875226,11.00467727
12.3100,-9.848895193,26.65150878,4.525426134
12.3150,-17.47612141,17.02781924,19.51954254
12.3200,-9.016004079,19.65489827,4.227254213
12.3250,-0.8131291198,8.639889395,7.249320736
12.3300,14.16375972,-1.886901694,1.437303275
12.3350,20.57803582,-7.835116589,3.692890969
12.3400,17.18386924,-12.8216632,8.602449082
12.3450,28.07537635,-10.2120881,11.46391699
12.3500,23.88787006,-17.16257228,17.63999641
12.3550,31.96685494,-16.41901698,16.179354
12.3600,42.98142102,-14.34821345,11.80805364
12.3650,33.12548418,-3.848504708,8.518708251
12.3700,41.31237856,-2.051765343,-0.9125019239
12.3750,38.72552493,-9.430533234,2.786797226
12.3800,39.02190287,-4.824338296,-5.090116825
12.3850,25.82995092,-19.49803509,-2.591384773
12.3900,17.58108753,-11.77438384,-12.76726765
12.3950,22.10722116,-11.14002726,-11.06620203
12.4000,24.40113831,-15.19186491,-15.80998404
12.4050,23.28619717,-18.702775,-12.16895548
12.4100,23.47044581,-17.47139924,-8.456556932
12.4150,24.48099472,-5.792208803,-13.16890967
12.4200,19.19064721,-2.384819092,-6.929989717
12.4250,11.48240294,5.744106913,-5.468226251
12.4300,-2.71530069,2.789684752,1.941159955
12.4350,-0.03303152551,8.785407466,-7.607997452
12.4400,-5.664210128,2.028972314,-6.611967191
12.4450,8.797150935,0.803221102,-2.091007404
12.4500,3.310488655,2.487715989,-0.6218607646
12.4550,0.9938299162,-10.0274275,7.824106425
12.4600,12.20052516,-3.578572644,1.195664024
12.4650,14.73027952,-6.442637667,-1.261455359
12.4700,7.843743949,-1.574867609,0.5626937792
12.4750,12.9386022,-6.486123802,9.894462211
12.4800,19.1660931,1.844836599,4.091831145
12.4850,16.9032727,-4.765517276,18.1621081
12.4900,34.34777238,8.61271742,5.332860452
12.4950,28.36184487,7.774498461,23.66409827
12.5000,36.27707667,6.61985863,20.92935053
12.5050,36.9385107,15.71933847,17.84597252
12.5100,42.63978523,13.1707917,9.722124521
12.5150,25.44511013,5.334370452,15.59202071
12.5200,23.05075424,-0.1711459939,7.165661267
12.5250,35.09137476,-12.04481942,0.1264271642
12.5300,33.52317471,-17.11043544,-0.3503610017
12.5350,32.58310079,-23.92671874,0.7593006315
12.5400,26.82166204,-13.06061218,-7.2056803
12.5450,32.55359674,-15.58223395,-2.706525852
12.5500,35.44840146,-15.45251195,-5.756140221
12.5550,8.790346857,-7.092803492,-1.590217075
12.5600,10.00719937,-3.904599283,-2.748210265
12.5650,5.209144479,-0.3012947323,-3.545991586
12.5700,13.65650414,2.178008767,-5.881455193
12.5750,-0.05078751396,1.616372548,5.164404428
12.5800,-2.507304093,-2.665152116,0.4796832578
12.5850,2.61389677,-1.976771364,0.5756095827
12.5900,5.460361423,4.3171078,-0.3843123858
12.5950,-3.973824702,2.594125949,5.540465059
12.6000,-4.738596441,6.159445902,-0.1528745793
12.6050,-3.882302071,8.149494356,0.09312443228
12.6100,-5.953881121,6.081763866,1.309155287
12.6150,-2.675040369,3.605230771,1.782672501
12.6200,7.223886978,-8.134062093,2.242983952
12.6250,10.81971734,-16.56768987,9.743276777
12.6300,8.278141041,-9.040956275,7.111977073
12.6350,17.45004061,-8.979433577,7.183337547
12.6400,15.80168507,-9.683569773,5.466943643
12.6450,15.27865341,-7.20707465,1.998458103
12.6500,14.90535388,-16.96311563,6.610390431
12.6550,6.57251192,-17.79841673,21.06826248
12.6600,19.03788102,-15.67773568,17.12991446
12.6650,5.492142479,-5.324439455,20.91758014
12.6700,10.44853009,-0.8975735867,18.97824326
12.6750,7.181209665,-0.9903373035,28.26867616
12.6800,15.29741356,-5.291072686,22.61529943
12.6850,15.35517591,-7.339019486,26.73439558
12.6900,9.20245398,-4.672717185,21.86501233
12.6950,18.62241173,-11.58928089,15.9351869
12.7000,20.5950522,-17.36218297,12.37326481
12.7050,14.42989816,-19.63367063,13.22522378
12.7100,9.970999736,-17.09329482,7.4135047
12.7150,24.07815979,-19.65165869,10.21349433
12.7200,2.070957777,-8.684518,8.642836153
12.7250,14.87021123,-4.018159574,-4.822938445
12.7300,6.581893238,-9.566698622,-0.9593287436
12.7350,3.756369216,-17.27554569,4.347773161
12.7400,9.812817145,-5.432826166,0.1031497302
12.7450,15.78019717,-25.93710712,9.091168827
12.7500,4.193480497,-21.81410788,2.064048198
12.7550,-4.873568171,-10.53024697,-4.988801498
12.7600,9.3153344,-19.26196845,-7.119025854
12.7650,-17.75101392,-14.82917197,-7.0960719
12.7700,-2.458547977,-10.67194518,-18.67142564
12.7750,-18.80396817,-5.896209692,-6.830641423
12.7800,-16.96022366,6.696388845,-10.59404735
12.7850,-9.729823704,11.10779212,-8.174160592
12.7900,-16.3042352,10.45102312,-7.407813952
12.7950,4.296316179,6.752185847,-8.634129092
12.8000,8.326497557,-0.8773037445,-0.5868036637
12.8050,13.71894135,2.26012787,-0.9757072312
12.8100,19.4519638,-7.782149526,0.797305437
12.8150,18.0914072,-6.82227245,2.203420122
12.8200,36.87115978,-9.324733524,-0.9799967088
12.8250,17.03370998,-18.53243559,5.876855259
12.8300,13.19425441,-7.255773908,2.627616777
12.8350,3.871497817,-4.262805841,1.573030752
12.8400,21.00009201,-19.24160607,-2.339787847
12.8450,5.874882983,0.02412005165,-10.07383016
12.8500,5.303102074,4.066181734,-15.04561553
12.8550,11.26758006,6.522617586,-13.63101815
12.8600,7.073585996,5.548743815,-12.81461309
12.8650,15.85935138,7.300890768,-12.15314996
12.8700,13.24300225,9.421373231,-4.260422291
12.8750,26.02202653,0.1452903767,2.269643523
12.8800,30.14690675,4.591022292,-8.810270465
12.8850,21.68161974,9.305038462,-6.236793792
12.8900,24.69616399,-3.43978547,-7.368861065
12.8950,15.36550671,-4.15478895,-4.167858695
12.9000,24.7475683,-15.15240732,-1.490960764
12.9050,1.605859779,-5.446281768,4.750860231
12.9100,-18.71385114,-7.816758094,20.63406174
12.9150,-12.73449817,-13.42983351,28.26563259
12.9200,-18.13895854,-13.45599887,17.50801362
12.9250,0.7203840548,-5.805236578,14.28456655
12.9300,11.90485108,-5.470171149,17.16778937
12.9350,24.9261081,3.743847799,16.95765514
12.9400,31.07596694,7.244794651,17.31548155
12.9450,37.64923399,3.293933573,29.92373793
12.9500,48.86996463,12.565144,12.92384736
12.9550,44.18970492,5.460770691,17.87325132
12.9600,37.89778649,18.07032117,11.03220974
12.9650,29.54506977,27.00640752,15.4214093
12.9700,24.78961367,22.01518866,24.11235061
12.9750,26.78701249,35.26028589,11.14778944
12.9800,-4.806748812,19.73370841,16.40920424
12.9850,-3.985351069,27.22322463,6.705922029
12.9900,5.180812127,17.27425925,-1.648611876
12.9950,-13.53670191,18.87709916,8.126830222
13.0000,1.92435247,-1.026010529,16.05791139
13.0050,15.77800064,8.103433039,6.25198863
13.0100,8.097579401,-1.50812355,10.73940836
13.0150,24.36571577,-0.136539356,12.25823865
13.0200,14.78628287,-5.712553123,14.55574771
13.0250,15.83014095,6.711494417,-5.003931067
13.0300,-5.113716044,2.992614462,-7.833795795
13.0350,4.050806749,0.452023438,-15.48873167
13.0400,-17.81575199,-1.291916143,-12.37796582
13.0450,-26.8111935,14.95743609,-16.5477905
13.0500,-36.33892132,19.71400918,-10.95619327
13.0550,-46.78081607,26.36259022,-5.475249788
13.0600,-62.85613236,25.91220082,-1.687816238
13.0650,-63.42640485,42.61737035,0.1097658976
13.0700,-58.00328059,44.90183084,-0.6885137026
13.0750,-56.77131545,36.91917469,7.90782028
13.0800,-42.82196594,38.49328678,-1.07823584
13.0850,-40.95136851,18.76027717,6.507077061
13.0900,-44.45335823,13.91258739,-2.611855397
13.0950,-41.65060413,-5.721609873,5.339259779
13.1000,-35.53603918,-16.7456316,-1.543611764
13.1050,-32.58146603,-15.64701593,-18.31147088
13.1100,-53.04956651,-20.30647275,-17.64175657
13.1150,-32.1800581,-24.50661689,-31.59860648
13.1200,-29.13240224,-31.42255305,-30.26397817
13.1250,-35.662474,-30.80080696,-24.07521547
13.1300,-18.31720763,-14.84208294,-37.31270986
13.1350,-13.92691827,-18.33995917,-20.91284529
13.1400,-33.23142581,-10.99774602,-12.05271321
13.1450,-18.41346369,8.645583239,-12.84910293
13.1500,-15.91775484,20.15408166,-1.045941325
13.1550,-25.40637878,33.50851634,3.269714222
13.1600,-16.21446042,41.76053089,-4.933168291
13.1650,-34.67626023,41.5343114,17.36488948
13.1700,-27.49600016,47.33416207,15.53209861
13.1750,-38.37140394,40.31751539,20.44153088
13.1800,-44.88378463,38.74911705,9.458351236
13.1850,-46.6456162,37.19276398,-2.698965571
13.1900,-47.07723436,23.35908276,-0.8418887243
13.1950,-41.74029211,10.11612787,-3.96654055
13.2000,-35.82768954,-7.405771568,-8.921838793
13.2050,-19.19944341,-21.37707434,-20.44973756
13.2100,-23.20344788,-28.98793615,-21.76323804
13.2150,-17.05128403,-36.32496003,-24.16920403
13.2200,1.689106055,-45.97838233,-21.81845322
13.2250,-4.338563797,-45.84324785,-16.54382789
13.2300,4.219465103,-35.61539684,-13.86055417
13.2350,-2.918949126,-16.41527992,0.9417939289
13.2400,9.000121403,-6.918050801,9.236772742
13.2450,0.7164360289,9.823385547,7.51947699
13.2500,7.86562124,17.23542312,14.40080635
13.2550,3.892912743,37.46309482,14.80242943
13.2600,-3.256199637,38.3799606,15.32532353
13.2650,0.04086023516,20.90789491,19.06958109
13.2700,-7.840493646,21.08821294,7.09625363
13.2750,-9.900093346,16.69241759,8.503311446
13.2800,1.02902131,5.75446665,11.6671008
13.2850,0.08603180942,10.61135375,7.777213356
13.2900,-12.16373966,6.558053165,8.87851803
13.2950,-8.928664321,1.662040317,6.380117716
13.3000,1.898790304,-14.40710774,7.700866686
13.3050,8.630247494,-21.07314914,3.10843942
13.3100,20.08196911,-24.3066715,4.494395276
13.3150,7.612719861,-9.897709632,3.735720845
13.3200,23.74555176,-14.98394554,1.219880056
13.3250,-3.300423705,-4.391932216,7.680533362
13.3300,16.81622225,8.933057371,11.79371076
13.3350,10.56391205,12.34161312,27.98477588
13.3400,-2.655426336,27.35051578,27.48146122
13.3450,15.04503523,30.67943977,19.01428561
13.3500,-11.58551594,31.29863945,23.27980545
13.3550,-4.772393967,31.08528526,19.03449185
13.3600,-13.19429858,21.2482921,13.74503572
13.3650,-0.588228081,14.8455444,6.98797108
13.3700,-6.769580227,11.51389739,-4.627234573
13.3750,-19.50641702,-1.488938315,-0.3301727412
13.3800,3.892735885,-12.30190982,-4.232459883
13.3850,11.22182698,-21.27037345,-1.611554995
13.3900,21.83717065,-22.29381337,-2.965045784
13.3950,4.719747324,-14.17140029,2.83236308
13.4000,-6.486505347,-4.260830112,-2.038484766
13.4050,2.576977725,8.972586164,-11.71772781
13.4100,19.41969989,1.301565275,2.057000586
13.4150,10.97865778,5.173612769,12.35590613
13.4200,10.76773396,20.37219348,-0.2572928398
13.4250,7.117282575,19.87923313,0.8038643292
13.4300,1.42407446,21.11391381,1.596450155
13.4350,3.864765072,22.52301611,7.20357782
13.4400,-6.093855053,25.76878275,8.756931363
13.4450,-1.449919281,23.75911417,3.930060161
13.4500,2.119635084,15.99687382,-3.507108188
13.4550,-4.489866943,3.125393516,2.19538947
13.4600,5.138977196,8.774719031,-5.576028919
13.4650,-6.777748538,-3.173598082,5.212322068
