type,name,time_units,begin_time,frequency,count,units
signal,"Noraxon MyoMotion-Joints-Elbow RT-Flexion","s",0.0000,200,4984,"deg"

time,value
0.0000,1.58675763
0.0050,1.58018166
0.0100,1.573598637
0.0150,1.567008561
0.0200,1.560006009
0.0250,1.552654419
0.0300,1.545025434
0.0350,1.537198957
0.0400,1.529262321
0.0450,1.521307814
0.0500,1.513429844
0.0550,1.505722235
0.0600,1.498275963
0.0650,1.491177076
0.0700,1.484503587
0.0750,1.478322068
0.0800,1.472686344
0.0850,1.467637855
0.0900,1.463205317
0.0950,1.459403554
0.1000,1.456232688
0.1050,1.453678074
0.1100,1.451711391
0.1150,1.450292928
0.1200,1.449374112
0.1250,1.448899325
0.1300,1.448806536
0.1350,1.449027009
0.1400,1.449485143
0.1450,1.450099076
0.1500,1.450781769
0.1550,1.448880537
0.1600,1.447213532
0.1650,1.445834819
0.1700,1.444641326
0.1750,1.443748831
0.1800,1.442556403
0.1850,1.441224722
0.1900,1.439834189
0.1950,1.438246123
0.2000,1.436567113
0.2050,1.434941077
0.2100,1.433174221
0.2150,1.431456723
0.2200,1.429771918
0.2250,1.428289873
0.2300,1.427030053
0.2350,1.426380654
0.2400,1.426197724
0.2450,1.426712723
0.2500,1.42799685
0.2550,1.430108447
0.2600,1.432923111
0.2650,1.436570433
0.2700,1.441082718
0.2750,1.446401411
0.2800,1.452612221
0.2850,1.45961278
0.2900,1.467601693
0.2950,1.476150128
0.3000,1.485306477
0.3050,1.494775755
0.3100,1.504480924
0.3150,1.51430001
0.3200,1.523909672
0.3250,1.533285156
0.3300,1.54231439
0.3350,1.550761185
0.3400,1.558538972
0.3450,1.565714958
0.3500,1.572013447
0.3550,1.577686912
0.3600,1.58248733
0.3650,1.586600673
0.3700,1.589754865
0.3750,1.592034913
0.3800,1.593435787
0.3850,1.594063772
0.3900,1.593698597
0.3950,1.592624055
0.4000,1.590410382
0.4050,1.587768362
0.4100,1.584528857
0.4150,1.580625906
0.4200,1.576323083
0.4250,1.571536619
0.4300,1.566417528
0.4350,1.560872948
0.4400,1.555091275
0.4450,1.549134877
0.4500,1.543005277
0.4550,1.53683386
0.4600,1.530790918
0.4650,1.524917889
0.4700,1.519372776
0.4750,1.514036259
0.4800,1.50925698
0.4850,1.505095461
0.4900,1.501635952
0.4950,1.498767892
0.5000,1.496524543
0.5050,1.494847243
0.5100,1.494064918
0.5150,1.493980865
0.5200,1.494810111
0.5250,1.496250009
0.5300,1.498080132
0.5350,1.500201146
0.5400,1.502846204
0.5450,1.505664884
0.5500,1.508437497
0.5550,1.511349773
0.5600,1.514131747
0.5650,1.516842948
0.5700,1.519383563
0.5750,1.521729697
0.5800,1.523738104
0.5850,1.525553551
0.5900,1.526840576
0.5950,1.527753497
0.6000,1.528178229
0.6050,1.528445176
0.6100,1.52833813
0.6150,1.52805325
0.6200,1.527747606
0.6250,1.527401486
0.6300,1.527006085
0.6350,1.5268612
0.6400,1.526991628
0.6450,1.527554602
0.6500,1.528693485
0.6550,1.530246351
0.6600,1.532540076
0.6650,1.535399072
0.6700,1.539071556
0.6750,1.543679215
0.6800,1.549053211
0.6850,1.555344693
0.6900,1.562649796
0.6950,1.570645275
0.7000,1.579898175
0.7050,1.590073888
0.7100,1.601359412
0.7150,1.61365187
0.7200,1.627014896
0.7250,1.641385499
0.7300,1.656570204
0.7350,1.672649757
0.7400,1.6895187
0.7450,1.707186323
0.7500,1.725712651
0.7550,1.744544999
0.7600,1.763770384
0.7650,1.78343219
0.7700,1.803631959
0.7750,1.823994333
0.7800,1.844461888
0.7850,1.864924284
0.7900,1.885155064
0.7950,1.905361036
0.8000,1.925314285
0.8050,1.944838593
0.8100,1.963748769
0.8150,1.982258701
0.8200,2.00030671
0.8250,2.017875892
0.8300,2.035271097
0.8350,2.052402676
0.8400,2.069248783
0.8450,2.085781519
0.8500,2.102288218
0.8550,2.118535229
0.8600,2.134889856
0.8650,2.151166247
0.8700,2.167621937
0.8750,2.184121435
0.8800,2.200941873
0.8850,2.217962226
0.8900,2.235140617
0.8950,2.252821321
0.9000,2.270998466
0.9050,2.289410012
0.9100,2.308200599
0.9150,2.327188739
0.9200,2.346386097
0.9250,2.365671525
0.9300,2.384925003
0.9350,2.404105923
0.9400,2.423088568
0.9450,2.441781201
0.9500,2.460141265
0.9550,2.478168719
0.9600,2.495525239
0.9650,2.51229164
0.9700,2.528403566
0.9750,2.543641341
0.9800,2.558050781
0.9850,2.571305961
0.9900,2.583267315
0.9950,2.594052932
1.0000,2.603355793
1.0050,2.611246521
1.0100,2.617456187
1.0150,2.6224043
1.0200,2.625750333
1.0250,2.627722252
1.0300,2.628511546
1.0350,2.628364746
1.0400,2.627359485
1.0450,2.625330039
1.0500,2.622715549
1.0550,2.619695531
1.0600,2.616435036
1.0650,2.613103632
1.0700,2.609772263
1.0750,2.606668581
1.0800,2.604008333
1.0850,2.602137174
1.0900,2.601209057
1.0950,2.601541766
1.1000,2.603424829
1.1050,2.607040234
1.1100,2.612684867
1.1150,2.620413107
1.1200,2.630480674
1.1250,2.643091096
1.1300,2.658256683
1.1350,2.676331321
1.1400,2.697341381
1.1450,2.721700158
1.1500,2.74952559
1.1550,2.78098961
1.1600,2.81612727
1.1650,2.855330458
1.1700,2.898395106
1.1750,2.945819845
1.1800,2.997230511
1.1850,3.052870765
1.1900,3.112819534
1.1950,3.176849578
1.2000,3.244941754
1.2050,3.317268058
1.2100,3.393807977
1.2150,3.474350758
1.2200,3.558953012
1.2250,3.647703817
1.2300,3.740672818
1.2350,3.838065454
1.2400,3.939533532
1.2450,4.045247257
1.2500,4.155048171
1.2550,4.269093819
1.2600,4.387358823
1.2650,4.509680455
1.2700,4.636209286
1.2750,4.766672417
1.2800,4.901261869
1.2850,5.039999281
1.2900,5.182821042
1.2950,5.329588137
1.3000,5.480391094
1.3050,5.634883891
1.3100,5.793124448
1.3150,5.954939458
1.3200,6.120207392
1.3250,6.288742985
1.3300,6.460443697
1.3350,6.634940258
1.3400,6.812245044
1.3450,6.992336191
1.3500,7.174853184
1.3550,7.359772449
1.3600,7.546921223
1.3650,7.736231952
1.3700,7.92746621
1.3750,8.120879971
1.3800,8.316220699
1.3850,8.513287906
1.3900,8.712294593
1.3950,8.913015162
1.4000,9.11546356
1.4050,9.319892344
1.4100,9.526252424
1.4150,9.734759516
1.4200,9.945535955
1.4250,10.15847349
1.4300,10.37379794
1.4350,10.59146144
1.4400,10.8115986
1.4450,11.03410063
1.4500,11.25904331
1.4550,11.48648436
1.4600,11.71643003
1.4650,11.94862569
1.4700,12.18326204
1.4750,12.42001677
1.4800,12.65883715
1.4850,12.89959615
1.4900,13.1422362
1.4950,13.38659521
1.5000,13.63272479
1.5050,13.88034048
1.5100,14.12936319
1.5150,14.3797657
1.5200,14.63141944
1.5250,14.88415115
1.5300,15.13786478
1.5350,15.39236201
1.5400,15.64794627
1.5450,15.90440832
1.5500,16.16193472
1.5550,16.42026615
1.5600,16.6793737
1.5650,16.93921589
1.5700,17.19964254
1.5750,17.46065262
1.5800,17.72189595
1.5850,17.98351828
1.5900,18.24523871
1.5950,18.50736539
1.6000,18.76944759
1.6050,19.03186341
1.6100,19.29467089
1.6150,19.55799703
1.6200,19.8218993
1.6250,20.08665635
1.6300,20.3521533
1.6350,20.6187679
1.6400,20.8864295
1.6450,21.15521303
1.6500,21.42502164
1.6550,21.69624021
1.6600,21.96844533
1.6650,22.24188576
1.6700,22.51647868
1.6750,22.79206203
1.6800,23.06859206
1.6850,23.34617776
1.6900,23.62461867
1.6950,23.90369501
1.7000,24.18333103
1.7050,24.46359444
1.7100,24.74414559
1.7150,25.0252394
1.7200,25.30662403
1.7250,25.58883391
1.7300,25.87199903
1.7350,26.15615389
1.7400,26.4414937
1.7450,26.72807619
1.7500,27.01609264
1.7550,27.30549169
1.7600,27.59621664
1.7650,27.88846972
1.7700,28.18222696
1.7750,28.47768587
1.7800,28.77496474
1.7850,29.07396203
1.7900,29.37466967
1.7950,29.6769488
1.8000,29.9805057
1.8050,30.28534763
1.8100,30.5911534
1.8150,30.89794448
1.8200,31.20559991
1.8250,31.51410207
1.8300,31.82353061
1.8350,32.13365899
1.8400,32.44439112
1.8450,32.75590672
1.8500,33.06787321
1.8550,33.38062319
1.8600,33.69411559
1.8650,34.00879183
1.8700,34.32432081
1.8750,34.64105432
1.8800,34.95894903
1.8850,35.27804754
1.8900,35.59818637
1.8950,35.91933358
1.9000,36.24186877
1.9050,36.56559786
1.9100,36.89050132
1.9150,37.21641916
1.9200,37.54381691
1.9250,37.87254259
1.9300,38.2024906
1.9350,38.53369225
1.9400,38.86588691
1.9450,39.19954126
1.9500,39.53469248
1.9550,39.87093701
1.9600,40.20886957
1.9650,40.54804282
1.9700,40.8889294
1.9750,41.23163738
1.9800,41.57665264
1.9850,41.92383558
1.9900,42.27317623
1.9950,42.62509942
2.0000,42.97986539
2.0050,43.33671231
2.0100,43.6959122
2.0150,44.05701924
2.0200,44.42019602
2.0250,44.78484868
2.0300,45.1509135
2.0350,45.5184489
2.0400,45.88725024
2.0450,46.25734507
2.0500,46.628712
2.0550,47.00123414
2.0600,47.37483432
2.0650,47.74941559
2.0700,48.12478756
2.0750,48.50092638
2.0800,48.87777832
2.0850,49.25493061
2.0900,49.63219529
2.0950,50.00971327
2.1000,50.38749917
2.1050,50.76518672
2.1100,51.1431946
2.1150,51.52106585
2.1200,51.89885837
2.1250,52.27637927
2.1300,52.65356229
2.1350,53.03072246
2.1400,53.4077206
2.1450,53.78428339
2.1500,54.16040511
2.1550,54.53634042
2.1600,54.91197149
2.1650,55.28648311
2.1700,55.66049898
2.1750,56.03387756
2.1800,56.40691094
2.1850,56.77933883
2.1900,57.15145003
2.1950,57.52290684
2.2000,57.89404479
2.2050,58.26407226
2.2100,58.63292065
2.2150,59.00089456
2.2200,59.36728582
2.2250,59.73217534
2.2300,60.09575806
2.2350,60.45776735
2.2400,60.8181189
2.2450,61.17652577
2.2500,61.53308252
2.2550,61.88812431
2.2600,62.24199708
2.2650,62.59477737
2.2700,62.94650569
2.2750,63.29721699
2.2800,63.64710969
2.2850,63.99619026
2.2900,64.34477062
2.2950,64.69309268
2.3000,65.04128539
2.3050,65.38994787
2.3100,65.73922273
2.3150,66.08919956
2.3200,66.44005618
2.3250,66.79212216
2.3300,67.14536424
2.3350,67.49971132
2.3400,67.85528315
2.3450,68.2118038
2.3500,68.56923555
2.3550,68.92801119
2.3600,69.28775421
2.3650,69.6486665
2.3700,70.01050579
2.3750,70.3729749
2.3800,70.73611409
2.3850,71.0999067
2.3900,71.46475777
2.3950,71.83018805
2.4000,72.19626763
2.4050,72.56314257
2.4100,72.93045225
2.4150,73.29839882
2.4200,73.66695936
2.4250,74.03612234
2.4300,74.40530887
2.4350,74.77386768
2.4400,75.14187067
2.4450,75.50953859
2.4500,75.87667916
2.4550,76.24274746
2.4600,76.60770966
2.4650,76.9719455
2.4700,77.33474273
2.4750,77.69592995
2.4800,78.05614125
2.4850,78.41508867
2.4900,78.77290763
2.4950,79.12939123
2.5000,79.48447232
2.5050,79.83840184
2.5100,80.19211236
2.5150,80.54568809
2.5200,80.89906764
2.5250,81.25223573
2.5300,81.60542845
2.5350,81.95872418
2.5400,82.31234334
2.5450,82.66628375
2.5500,83.0210207
2.5550,83.37648338
2.5600,83.73302759
2.5650,84.09091235
2.5700,84.44930059
2.5750,84.80884859
2.5800,85.16938464
2.5850,85.53178938
2.5900,85.89601236
2.5950,86.26177099
2.6000,86.62922525
2.6050,86.99816731
2.6100,87.36846865
2.6150,87.73982577
2.6200,88.11221034
2.6250,88.48531803
2.6300,88.85925514
2.6350,89.23419215
2.6400,89.61047349
2.6450,89.98839835
2.6500,90.36823552
2.6550,90.74905013
2.6600,91.13118473
2.6650,91.51417364
2.6700,91.89817787
2.6750,92.28239552
2.6800,92.66701488
2.6850,93.05153316
2.6900,93.43596875
2.6950,93.820277
2.7000,94.20444278
2.7050,94.58830014
2.7100,94.97176246
2.7150,95.3546705
2.7200,95.7366869
2.7250,96.11816397
2.7300,96.49896242
2.7350,96.87906193
2.7400,97.25831029
2.7450,97.63628784
2.7500,98.01257737
2.7550,98.38675502
2.7600,98.75881396
2.7650,99.12922061
2.7700,99.49802078
2.7750,99.86526782
2.7800,100.2307349
2.7850,100.5944947
2.7900,100.9562853
2.7950,101.3167932
2.8000,101.6756371
2.8050,102.0334611
2.8100,102.3894245
2.8150,102.7433808
2.8200,103.0959921
2.8250,103.4470862
2.8300,103.7968253
2.8350,104.1449122
2.8400,104.4918267
2.8450,104.8376353
2.8500,105.1824487
2.8550,105.5261187
2.8600,105.8688577
2.8650,106.2105322
2.8700,106.5519391
2.8750,106.8925233
2.8800,107.232576
2.8850,107.5714164
2.8900,107.9094172
2.8950,108.2469385
2.9000,108.5834187
2.9050,108.9197906
2.9100,109.256205
2.9150,109.5926253
2.9200,109.9293858
2.9250,110.2673794
2.9300,110.6064466
2.9350,110.9468501
2.9400,111.2880098
2.9450,111.6303312
2.9500,111.9733461
2.9550,112.3179429
2.9600,112.6640136
2.9650,113.0115806
2.9700,113.3607054
2.9750,113.7116285
2.9800,114.0644625
2.9850,114.4190679
2.9900,114.7753246
2.9950,115.1332884
3.0000,115.4924612
3.0050,115.8530842
3.0100,116.2147988
3.0150,116.5773945
3.0200,116.9406071
3.0250,117.3043072
3.0300,117.6689751
3.0350,118.0348281
3.0400,118.4012765
3.0450,118.768009
3.0500,119.1352695
3.0550,119.5028742
3.0600,119.871245
3.0650,120.2401169
3.0700,120.6087069
3.0750,120.9769651
3.0800,121.3447115
3.0850,121.7117722
3.0900,122.0783642
3.0950,122.4436195
3.1000,122.8074739
3.1050,123.1693084
3.1100,123.5287593
3.1150,123.8857058
3.1200,124.2397115
3.1250,124.5900803
3.1300,124.9361137
3.1350,125.2773682
3.1400,125.6132755
3.1450,125.9437751
3.1500,126.2683096
3.1550,126.5873169
3.1600,126.9000677
3.1650,127.2064911
3.1700,127.5068251
3.1750,127.8014375
3.1800,128.0900463
3.1850,128.3729455
3.1900,128.650623
3.1950,128.923069
3.2000,129.1913261
3.2050,129.4552804
3.2100,129.7154661
3.2150,129.9735896
3.2200,130.22875
3.2250,130.4811986
3.2300,130.7306882
3.2350,130.9776742
3.2400,131.2226878
3.2450,131.4659385
3.2500,131.7079339
3.2550,131.9488523
3.2600,132.189085
3.2650,132.4286886
3.2700,132.6680902
3.2750,132.9073154
3.2800,133.1461148
3.2850,133.3849904
3.2900,133.6233701
3.2950,133.8611006
3.3000,134.0979887
3.3050,134.334032
3.3100,134.5689031
3.3150,134.8022248
3.3200,135.0338952
3.3250,135.263686
3.3300,135.490755
3.3350,135.7148404
3.3400,135.9356459
3.3450,136.1529744
3.3500,136.3660526
3.3550,136.5749325
3.3600,136.7788452
3.3650,136.9770704
3.3700,137.1700436
3.3750,137.3574054
3.3800,137.5391657
3.3850,137.7150703
3.3900,137.8849033
3.3950,138.0485895
3.4000,138.2060363
3.4050,138.3570312
3.4100,138.5016206
3.4150,138.6395582
3.4200,138.7709402
3.4250,138.8956921
3.4300,139.0136084
3.4350,139.1248375
3.4400,139.229836
3.4450,139.3283453
3.4500,139.4206923
3.4550,139.5071615
3.4600,139.5880131
3.4650,139.6639161
3.4700,139.7348322
3.4750,139.8013642
3.4800,139.8640079
3.4850,139.9235247
3.4900,139.9805243
3.4950,140.0352028
3.5000,140.0877956
3.5050,140.1386102
3.5100,140.1885508
3.5150,140.2374222
3.5200,140.2864493
3.5250,140.3359536
3.5300,140.3869437
3.5350,140.4399314
3.5400,140.4949432
3.5450,140.5518346
3.5500,140.6105382
3.5550,140.6710602
3.5600,140.7335137
3.5650,140.7979225
3.5700,140.8642273
3.5750,140.9322584
3.5800,141.001582
3.5850,141.0721535
3.5900,141.1440396
3.5950,141.2170422
3.6000,141.2915765
3.6050,141.367257
3.6100,141.4438178
3.6150,141.521437
3.6200,141.5998301
3.6250,141.6784894
3.6300,141.7570919
3.6350,141.8354385
3.6400,141.9131822
3.6450,141.9900113
3.6500,142.0664284
3.6550,142.1419483
3.6600,142.2164187
3.6650,142.2896725
3.6700,142.3615237
3.6750,142.4321584
3.6800,142.5011696
3.6850,142.5689413
3.6900,142.6350462
3.6950,142.6996644
3.7000,142.7624973
3.7050,142.8233016
3.7100,142.8823515
3.7150,142.9394657
3.7200,142.994631
3.7250,143.0475236
3.7300,143.0986075
3.7350,143.1480135
3.7400,143.1953546
3.7450,143.2407935
3.7500,143.2843129
3.7550,143.3257761
3.7600,143.3652505
3.7650,143.4029041
3.7700,143.4384966
3.7750,143.4715608
3.7800,143.5026628
3.7850,143.5317448
3.7900,143.558245
3.7950,143.5824427
3.8000,143.6042635
3.8050,143.6243226
3.8100,143.6421681
3.8150,143.658072
3.8200,143.6716849
3.8250,143.6834006
3.8300,143.693183
3.8350,143.7004256
3.8400,143.7057849
3.8450,143.7087973
3.8500,143.7097139
3.8550,143.708699
3.8600,143.70577
3.8650,143.7008606
3.8700,143.6937067
3.8750,143.6843204
3.8800,143.672909
3.8850,143.6591425
3.8900,143.6430707
3.8950,143.624438
3.9000,143.6030958
3.9050,143.5789571
3.9100,143.5523555
3.9150,143.5228212
3.9200,143.4904122
3.9250,143.4550876
3.9300,143.4172514
3.9350,143.3765681
3.9400,143.3331314
3.9450,143.2873257
3.9500,143.2385279
3.9550,143.1871157
3.9600,143.1331457
3.9650,143.0767873
3.9700,143.0182993
3.9750,142.9572665
3.9800,142.8939273
3.9850,142.8277883
3.9900,142.7592414
3.9950,142.6879565
4.0000,142.6137411
4.0050,142.5368983
4.0100,142.4572133
4.0150,142.3746501
4.0200,142.2888018
4.0250,142.2003087
4.0300,142.1083987
4.0350,142.0131587
4.0400,141.9146064
4.0450,141.8127426
4.0500,141.7076279
4.0550,141.5988644
4.0600,141.4868701
4.0650,141.3708838
4.0700,141.2512868
4.0750,141.127945
4.0800,141.0003119
4.0850,140.8680197
4.0900,140.7317212
4.0950,140.5911324
4.1000,140.4462183
4.1050,140.2968508
4.1100,140.142931
4.1150,139.9843333
4.1200,139.8214517
4.1250,139.653744
4.1300,139.4812018
4.1350,139.3040516
4.1400,139.1217144
4.1450,138.934863
4.1500,138.74282
4.1550,138.545374
4.1600,138.3424346
4.1650,138.1340941
4.1700,137.9206137
4.1750,137.7015631
4.1800,137.4773752
4.1850,137.2481742
4.1900,137.014004
4.1950,136.7754913
4.2000,136.5324681
4.2050,136.2849734
4.2100,136.0331642
4.2150,135.7768247
4.2200,135.5166134
4.2250,135.2526288
4.2300,134.9845226
4.2350,134.7127076
4.2400,134.4371493
4.2450,134.1575294
4.2500,133.8742109
4.2550,133.5868991
4.2600,133.295628
4.2650,133.000231
4.2700,132.7008465
4.2750,132.3980541
4.2800,132.0919907
4.2850,131.7824395
4.2900,131.4691933
4.2950,131.1524022
4.3000,130.8326096
4.3050,130.5093656
4.3100,130.1830873
4.3150,129.8536945
4.3200,129.5217817
4.3250,129.1874266
4.3300,128.8504041
4.3350,128.511065
4.3400,128.1690839
4.3450,127.8243958
4.3500,127.4770128
4.3550,127.126816
4.3600,126.7734499
4.3650,126.4173641
4.3700,126.0585246
4.3750,125.6968385
4.3800,125.3324401
4.3850,124.9655222
4.3900,124.5956335
4.3950,124.2233254
4.4000,123.8483607
4.4050,123.4708592
4.4100,123.091242
4.4150,122.7087438
4.4200,122.3239385
4.4250,121.9368755
4.4300,121.5472224
4.4350,121.1552995
4.4400,120.7613393
4.4450,120.3647292
4.4500,119.9664583
4.4550,119.5665268
4.4600,119.1652734
4.4650,118.7628625
4.4700,118.3586305
4.4750,117.9531582
4.4800,117.5457176
4.4850,117.1363627
4.4900,116.7247197
4.4950,116.3108339
4.5000,115.8944928
4.5050,115.4753201
4.5100,115.0532038
4.5150,114.6286572
4.5200,114.2011774
4.5250,113.7713242
4.5300,113.3390305
4.5350,112.9043501
4.5400,112.4673507
4.5450,112.0288213
4.5500,111.5881267
4.5550,111.1455051
4.5600,110.7008162
4.5650,110.25418
4.5700,109.8052156
4.5750,109.3534146
4.5800,108.8990852
4.5850,108.4419466
4.5900,107.9820552
4.5950,107.5193761
4.6000,107.0539629
4.6050,106.5865874
4.6100,106.1168326
4.6150,105.6450005
4.6200,105.1706578
4.6250,104.6936327
4.6300,104.2151665
4.6350,103.7350096
4.6400,103.2543099
4.6450,102.7728621
4.6500,102.2906835
4.6550,101.8082318
4.6600,101.3258219
4.6650,100.8435443
4.6700,100.3612827
4.6750,99.8790756
4.6800,99.3967589
4.6850,98.9146127
4.6900,98.43222732
4.6950,97.9500393
4.7000,97.46829461
4.7050,96.98676895
4.7100,96.50546148
4.7150,96.02466289
4.7200,95.54424994
4.7250,95.06393548
4.7300,94.58373963
4.7350,94.10379628
4.7400,93.62352806
4.7450,93.14369464
4.7500,92.66397211
4.7550,92.18408152
4.7600,91.70372455
4.7650,91.22285113
4.7700,90.74167333
4.7750,90.26011195
4.7800,89.77792903
4.7850,89.29499593
4.7900,88.81168633
4.7950,88.32744422
4.8000,87.84233788
4.8050,87.35614066
4.8100,86.86921721
4.8150,86.38135673
4.8200,85.89309708
4.8250,85.40392727
4.8300,84.91417006
4.8350,84.42438126
4.8400,83.93421586
4.8450,83.44377108
4.8500,82.95347507
4.8550,82.46261528
4.8600,81.97146661
4.8650,81.47955049
4.8700,80.9868355
4.8750,80.49372661
4.8800,80.00063807
4.8850,79.50739365
4.8900,79.01451226
4.8950,78.52213201
4.9000,78.03016168
4.9050,77.5388764
4.9100,77.04784048
4.9150,76.55711899
4.9200,76.06608347
4.9250,75.57495278
4.9300,75.08332691
4.9350,74.59115773
4.9400,74.09783087
4.9450,73.60341064
4.9500,73.10789959
4.9550,72.61114838
4.9600,72.11272025
4.9650,71.61278025
4.9700,71.11147365
4.9750,70.60919244
4.9800,70.10573408
4.9850,69.60057827
4.9900,69.09342296
4.9950,68.58337729
5.0000,68.07046266
5.0050,67.55459325
5.0100,67.03607071
5.0150,66.51494732
5.0200,65.99048525
5.0250,65.46285842
5.0300,64.93255718
5.0350,64.4003128
5.0400,63.86676624
5.0450,63.33136873
5.0500,62.79448805
5.0550,62.25637672
5.0600,61.7178169
5.0650,61.1787873
5.0700,60.63944207
5.0750,60.09961273
5.0800,59.56007836
5.0850,59.02097333
5.0900,58.48245475
5.0950,57.94486746
5.1000,57.409086
5.1050,56.87561535
5.1100,56.34426784
5.1150,55.81548854
5.1200,55.28898685
5.1250,54.76427428
5.1300,54.24115805
5.1350,53.71922568
5.1400,53.19852346
5.1450,52.67855462
5.1500,52.15885162
5.1550,51.63970255
5.1600,51.12138705
5.1650,50.60434175
5.1700,50.08861025
5.1750,49.57425189
5.1800,49.06107429
5.1850,48.54962886
5.1900,48.04029522
5.1950,47.53310675
5.2000,47.02846103
5.2050,46.52614718
5.2100,46.02678355
5.2150,45.53080273
5.2200,45.03847877
5.2250,44.54974424
5.2300,44.06450246
5.2350,43.58273198
5.2400,43.10364086
5.2450,42.62749313
5.2500,42.15380624
5.2550,41.68227375
5.2600,41.21292249
5.2650,40.74525206
5.2700,40.27908253
5.2750,39.81452789
5.2800,39.35185367
5.2850,38.89125251
5.2900,38.43344902
5.2950,37.97924903
5.3000,37.52874867
5.3050,37.08190844
5.3100,36.63864283
5.3150,36.19891859
5.3200,35.7636071
5.3250,35.33263579
5.3300,34.90597929
5.3350,34.48356083
5.3400,34.06532678
5.3450,33.6515446
5.3500,33.2420706
5.3550,32.83699803
5.3600,32.43558129
5.3650,32.03798768
5.3700,31.64406093
5.3750,31.25383703
5.3800,30.86694667
5.3850,30.48332515
5.3900,30.1025756
5.3950,29.72423421
5.4000,29.34781971
5.4050,28.97289669
5.4100,28.59912906
5.4150,28.22632254
5.4200,27.85377346
5.4250,27.48177271
5.4300,27.1099759
5.4350,26.7390895
5.4400,26.36938161
5.4450,26.00113944
5.4500,25.63500473
5.4550,25.27086943
5.4600,24.90906582
5.4650,24.5496149
5.4700,24.19281119
5.4750,23.83868511
5.4800,23.4875215
5.4850,23.13963844
5.4900,22.79485993
5.4950,22.45343737
5.5000,22.11563292
5.5050,21.78160095
5.5100,21.45140033
5.5150,21.12512666
5.5200,20.80293428
5.5250,20.4851439
5.5300,20.17184235
5.5350,19.86337733
5.5400,19.56014068
5.5450,19.26199801
5.5500,18.96922349
5.5550,18.68187536
5.5600,18.39981256
5.5650,18.12284474
5.5700,17.85067941
5.5750,17.58316711
5.5800,17.31982119
5.5850,17.06068911
5.5900,16.80512675
5.5950,16.55271685
5.6000,16.30333554
5.6050,16.05692435
5.6100,15.81342792
5.6150,15.57328752
5.6200,15.33597418
5.6250,15.10156779
5.6300,14.87017325
5.6350,14.6418005
5.6400,14.41622052
5.6450,14.19368715
5.6500,13.97401022
5.6550,13.75742166
5.6600,13.54396141
5.6650,13.33360616
5.6700,13.1263116
5.6750,12.92205993
5.6800,12.72093254
5.6850,12.52263496
5.6900,12.32718697
5.6950,12.13450796
5.7000,11.94462796
5.7050,11.75710264
5.7100,11.57211758
5.7150,11.38935427
5.7200,11.2086775
5.7250,11.02982298
5.7300,10.85291233
5.7350,10.6775101
5.7400,10.50322826
5.7450,10.33024867
5.7500,10.15822944
5.7550,9.987200276
5.7600,9.816961975
5.7650,9.647669598
5.7700,9.479297033
5.7750,9.312268443
5.7800,9.146739885
5.7850,8.982680918
5.7900,8.820501817
5.7950,8.660555302
5.8000,8.502720606
5.8050,8.347202677
5.8100,8.194099393
5.8150,8.043261421
5.8200,7.894666568
5.8250,7.748131982
5.8300,7.603609873
5.8350,7.460762389
5.8400,7.319683867
5.8450,7.18009716
5.8500,7.041857333
5.8550,6.905095211
5.8600,6.769737013
5.8650,6.635931022
5.8700,6.503782089
5.8750,6.373153653
5.8800,6.244364427
5.8850,6.117255151
5.8900,5.9923517
5.8950,5.869473537
5.9000,5.748827555
5.9050,5.630527413
5.9100,5.514459432
5.9150,5.400472089
5.9200,5.288312963
5.9250,5.177965726
5.9300,5.069309615
5.9350,4.962111379
5.9400,4.8562845
5.9450,4.751779859
5.9500,4.648742025
5.9550,4.546930043
5.9600,4.44663613
5.9650,4.347676734
5.9700,4.249757867
5.9750,4.153051679
5.9800,4.057507779
5.9850,3.962807778
5.9900,3.868976525
5.9950,3.775837285
6.0000,3.683359187
6.0050,3.591851062
6.0100,3.501242341
6.0150,3.41153303
6.0200,3.323315886
6.0250,3.236613888
6.0300,3.151744955
6.0350,3.068729365
6.0400,2.98799913
6.0450,2.909177755
6.0500,2.832938645
6.0550,2.75915841
6.0600,2.68788905
6.0650,2.619162077
6.0700,2.553250409
6.0750,2.489586912
6.0800,2.428157794
6.0850,2.369263631
6.0900,2.31257906
6.0950,2.257959274
6.1000,2.205139401
6.1050,2.154108749
6.1100,2.104629622
6.1150,2.056485135
6.1200,2.009377864
6.1250,1.963218985
6.1300,1.91779065
6.1350,1.872918073
6.1400,1.828383226
6.1450,1.784144263
6.1500,1.740105385
6.1550,1.69619723
6.1600,1.652277834
6.1650,1.608485356
6.1700,1.564558691
6.1750,1.520397583
6.1800,1.476153157
6.1850,1.431635786
6.1900,1.386848843
6.1950,1.341843569
6.2000,1.296774348
6.2050,1.251384777
6.2100,1.205712035
6.2150,1.159884075
6.2200,1.11410201
6.2250,1.068269809
6.2300,1.022608099
6.2350,0.977174243
6.2400,0.9320148327
6.2450,0.8872328848
6.2500,0.8425904892
6.2550,0.7980111039
6.2600,0.7533384257
6.2650,0.7086068851
6.2700,0.6640282605
6.2750,0.6197420701
6.2800,0.5757312087
6.2850,0.532199028
6.2900,0.4893192344
6.2950,0.4472880316
6.3000,0.4060268928
6.3050,0.3654274947
6.3100,0.3256534384
6.3150,0.2866715069
6.3200,0.2483623881
6.3250,0.2110829105
6.3300,0.1746805447
6.3350,0.1392145332
6.3400,0.1045656028
6.3450,0.07124382747
6.3500,0.03863389447
6.3550,0.00709495613
6.3600,-0.02355728893
6.3650,-0.05301233121
6.3700,-0.08138107351
6.3750,-0.1085229666
6.3800,-0.1343846038
6.3850,-0.1587831325
6.3900,-0.1817578811
6.3950,-0.2029109294
6.4000,-0.2222257099
6.4050,-0.2396171167
6.4100,-0.2552136456
6.4150,-0.268969964
6.4200,-0.2806362036
6.4250,-0.2902678744
6.4300,-0.298401044
6.4350,-0.3047941428
6.4400,-0.3100944488
6.4450,-0.3140998624
6.4500,-0.3171975831
6.4550,-0.3194982555
6.4600,-0.3209573664
6.4650,-0.3221788677
6.4700,-0.3230835784
6.4750,-0.3237228649
6.4800,-0.3243402862
6.4850,-0.3251523169
6.4900,-0.3264293944
6.4950,-0.3281757613
6.5000,-0.3307683491
6.5050,-0.3340547012
6.5100,-0.3381744956
6.5150,-0.3431270576
6.5200,-0.3489570764
6.5250,-0.3554188596
6.5300,-0.3625394189
6.5350,-0.3700959983
6.5400,-0.3779609905
6.5450,-0.3861660586
6.5500,-0.3944393261
6.5550,-0.4026670634
6.5600,-0.4107242504
6.5650,-0.4184221696
6.5700,-0.4259569729
6.5750,-0.433418318
6.5800,-0.4407001947
6.5850,-0.4477323037
6.5900,-0.4545215658
6.5950,-0.4610065172
6.6000,-0.4670840815
6.6050,-0.4725860712
6.6100,-0.4775246969
6.6150,-0.4819972535
6.6200,-0.48605959
6.6250,-0.4898874589
6.6300,-0.4933954795
6.6350,-0.4965666957
6.6400,-0.4993034301
6.6450,-0.5018874222
6.6500,-0.5040127711
6.6550,-0.5057149135
6.6600,-0.5069646924
6.6650,-0.5076130713
6.6700,-0.5078807897
6.6750,-0.5073096342
6.6800,-0.5059461723
6.6850,-0.5040955368
6.6900,-0.5015983734
6.6950,-0.4987043181
6.7000,-0.4951698949
6.7050,-0.4912363724
6.7100,-0.486880975
6.7150,-0.4820386777
6.7200,-0.4766592145
6.7250,-0.4710088144
6.7300,-0.4646393591
6.7350,-0.4579384711
6.7400,-0.450484063
6.7450,-0.4424555493
6.7500,-0.4335577461
6.7550,-0.4241934049
6.7600,-0.4143537519
6.7650,-0.4038846046
6.7700,-0.3930114666
6.7750,-0.3818654738
6.7800,-0.3706159858
6.7850,-0.3590129945
6.7900,-0.3471426347
6.7950,-0.3349433851
6.8000,-0.3226041318
6.8050,-0.3100733291
6.8100,-0.2971193615
6.8150,-0.2840262522
6.8200,-0.2706138994
6.8250,-0.2570090725
6.8300,-0.242858332
6.8350,-0.2285577733
6.8400,-0.2138355207
6.8450,-0.1986428774
6.8500,-0.183022778
6.8550,-0.1669106164
6.8600,-0.1502281818
6.8650,-0.1332389533
6.8700,-0.1153630885
6.8750,-0.09662810455
6.8800,-0.07731907435
6.8850,-0.05712212051
6.8900,-0.03616296211
6.8950,-0.01425772743
6.9000,0.008641873996
6.9050,0.03254314636
6.9100,0.05750270254
6.9150,0.08384282156
6.9200,0.1114701754
6.9250,0.1404954337
6.9300,0.1710018936
6.9350,0.2029022164
6.9400,0.2361621987
6.9450,0.2710572354
6.9500,0.3075459352
6.9550,0.3454350406
6.9600,0.3851163567
6.9650,0.4264790961
6.9700,0.4695908246
6.9750,0.5145742544
6.9800,0.5616266043
6.9850,0.6110651909
6.9900,0.6629878556
6.9950,0.7175001715
7.0000,0.7747575141
7.0050,0.8348278991
7.0100,0.8978499297
7.0150,0.9638443081
7.0200,1.032670992
7.0250,1.104436131
7.0300,1.17916989
7.0350,1.25692171
7.0400,1.337701704
7.0450,1.421458794
7.0500,1.507992167
7.0550,1.597527482
7.0600,1.689940374
7.0650,1.785139192
7.0700,1.883153517
7.0750,1.983777046
7.0800,2.087005989
7.0850,2.192664535
7.0900,2.300804892
7.0950,2.411248023
7.1000,2.524215323
7.1050,2.639517778
7.1100,2.756761619
7.1150,2.876013242
7.1200,2.997018943
7.1250,3.119761762
7.1300,3.243865169
7.1350,3.369341101
7.1400,3.495728124
7.1450,3.623089818
7.1500,3.751183829
7.1550,3.879968099
7.1600,4.009044938
7.1650,4.138604142
7.1700,4.268326858
7.1750,4.398232706
7.1800,4.52854423
7.1850,4.658941034
7.1900,4.789852914
7.1950,4.92110536
7.2000,5.052899802
7.2050,5.185350531
7.2100,5.318248135
7.2150,5.451786572
7.2200,5.585939654
7.2250,5.72104785
7.2300,5.856928707
7.2350,5.993687429
7.2400,6.13161812
7.2450,6.270561269
7.2500,6.410427081
7.2550,6.551442146
7.2600,6.69378359
7.2650,6.837416806
7.2700,6.982542053
7.2750,7.129195607
7.2800,7.277492218
7.2850,7.427437054
7.2900,7.579418383
7.2950,7.733321034
7.3000,7.889227973
7.3050,8.047348709
7.3100,8.207618996
7.3150,8.370230683
7.3200,8.535342012
7.3250,8.70296397
7.3300,8.873320097
7.3350,9.04607727
7.3400,9.221651582
7.3450,9.399709309
7.3500,9.580424622
7.3550,9.76343951
7.3600,9.948571364
7.3650,10.13568275
7.3700,10.32476055
7.3750,10.51557186
7.3800,10.7081262
7.3850,10.90178874
7.3900,11.09657664
7.3950,11.29207673
7.4000,11.48822247
7.4050,11.68510171
7.4100,11.88273917
7.4150,12.08127044
7.4200,12.28086769
7.4250,12.48161519
7.4300,12.68333033
7.4350,12.88610225
7.4400,13.09018204
7.4450,13.29520057
7.4500,13.50122374
7.4550,13.70815791
7.4600,13.91608434
7.4650,14.12491319
7.4700,14.33445376
7.4750,14.54479274
7.4800,14.75608087
7.4850,14.96836553
7.4900,15.18171222
7.4950,15.39624022
7.5000,15.61180197
7.5050,15.82865421
7.5100,16.04723258
7.5150,16.26692916
7.5200,16.48807914
7.5250,16.71057952
7.5300,16.93449325
7.5350,17.16000783
7.5400,17.38686037
7.5450,17.61511047
7.5500,17.84484665
7.5550,18.0761722
7.5600,18.30876792
7.5650,18.54275737
7.5700,18.77836342
7.5750,19.01518946
7.5800,19.25321576
7.5850,19.49236716
7.5900,19.7327397
7.5950,19.97443297
7.6000,20.21730077
7.6050,20.46182719
7.6100,20.70818336
7.6150,20.95621957
7.6200,21.2062209
7.6250,21.45811568
7.6300,21.71145698
7.6350,21.96691912
7.6400,22.22380568
7.6450,22.48203871
7.6500,22.74157156
7.6550,23.00240111
7.6600,23.26440614
7.6650,23.52742531
7.6700,23.79113852
7.6750,24.0556163
7.6800,24.32049145
7.6850,24.58646446
7.6900,24.85305197
7.6950,25.12065229
7.7000,25.38918531
7.7050,25.65846427
7.7100,25.92863192
7.7150,26.19967909
7.7200,26.47174557
7.7250,26.7446863
7.7300,27.01855522
7.7350,27.29400055
7.7400,27.57061355
7.7450,27.84871106
7.7500,28.12860067
7.7550,28.41034088
7.7600,28.69392583
7.7650,28.97966387
7.7700,29.2679466
7.7750,29.55862364
7.7800,29.85179438
7.7850,30.14776452
7.7900,30.44634368
7.7950,30.7474675
7.8000,31.05151377
7.8050,31.35807109
7.8100,31.66713369
7.8150,31.97897616
7.8200,32.29370077
7.8250,32.61102704
7.8300,32.93095646
7.8350,33.25387525
7.8400,33.57979608
7.8450,33.90858824
7.8500,34.24013119
7.8550,34.5746618
7.8600,34.91194451
7.8650,35.25175037
7.8700,35.59402399
7.8750,35.93923257
7.8800,36.28727144
7.8850,36.63825225
7.8900,36.9919875
7.8950,37.34860475
7.9000,37.70797903
7.9050,38.06985785
7.9100,38.43412617
7.9150,38.80079065
7.9200,39.16956251
7.9250,39.54074764
7.9300,39.91441605
7.9350,40.29037495
7.9400,40.66899513
7.9450,41.05051353
7.9500,41.43467905
7.9550,41.82166536
7.9600,42.21113483
7.9650,42.60300777
7.9700,42.99727517
7.9750,43.39379735
7.9800,43.79278537
7.9850,44.19359899
7.9900,44.59635366
7.9950,45.00076153
8.0000,45.40696228
8.0050,45.81475877
8.0100,46.22413735
8.0150,46.63494432
8.0200,47.04716189
8.0250,47.46076513
8.0300,47.87586804
8.0350,48.29176422
8.0400,48.70905017
8.0450,49.12725672
8.0500,49.54650898
8.0550,49.96687607
8.0600,50.3888328
8.0650,50.81237634
8.0700,51.23706179
8.0750,51.66352697
8.0800,52.09142466
8.0850,52.52098113
8.0900,52.95198091
8.0950,53.3846662
8.1000,53.81860683
8.1050,54.25388045
8.1100,54.69085276
8.1150,55.12930927
8.1200,55.56937272
8.1250,56.01138334
8.1300,56.45522141
8.1350,56.90045147
8.1400,57.34716146
8.1450,57.79544293
8.1500,58.24514775
8.1550,58.69608517
8.1600,59.14873284
8.1650,59.60326024
8.1700,60.05956855
8.1750,60.51767278
8.1800,60.97778824
8.1850,61.43991742
8.1900,61.90441517
8.1950,62.37106403
8.2000,62.8403916
8.2050,63.31215307
8.2100,63.78620196
8.2150,64.26219119
8.2200,64.73998147
8.2250,65.21964801
8.2300,65.7009389
8.2350,66.1836579
8.2400,66.66712512
8.2450,67.15178387
8.2500,67.63702744
8.2550,68.12278456
8.2600,68.60897746
8.2650,69.09564224
8.2700,69.58256905
8.2750,70.06978584
8.2800,70.55681616
8.2850,71.04363731
8.2900,71.53071166
8.2950,72.01797317
8.3000,72.5056817
8.3050,72.99386206
8.3100,73.48303124
8.3150,73.97264195
8.3200,74.46212823
8.3250,74.95160704
8.3300,75.4410026
8.3350,75.92966894
8.3400,76.41742671
8.3450,76.90429667
8.3500,77.38980112
8.3550,77.87370238
8.3600,78.35566453
8.3650,78.83514834
8.3700,79.31275923
8.3750,79.78866773
8.3800,80.26310021
8.3850,80.73557679
8.3900,81.20692779
8.3950,81.67716757
8.4000,82.14652044
8.4050,82.61497409
8.4100,83.08284306
8.4150,83.5505111
8.4200,84.0176211
8.4250,84.48416074
8.4300,84.9503418
8.4350,85.41593239
8.4400,85.88117463
8.4450,86.34594186
8.4500,86.81099329
8.4550,87.27616853
8.4600,87.7415811
8.4650,88.20719948
8.4700,88.67260842
8.4750,89.13765867
8.4800,89.60248371
8.4850,90.06689896
8.4900,90.53076778
8.4950,90.99398646
8.5000,91.45595664
8.5050,91.91699811
8.5100,92.37724593
8.5150,92.8368263
8.5200,93.29615717
8.5250,93.7545386
8.5300,94.21206733
8.5350,94.66913883
8.5400,95.12588259
8.5450,95.58191451
8.5500,96.03707598
8.5550,96.49080317
8.5600,96.94373269
8.5650,97.39547326
8.5700,97.8456918
8.5750,98.29472799
8.5800,98.74224531
8.5850,99.18886917
8.5900,99.63415569
8.5950,100.0780861
8.6000,100.5197843
8.6050,100.9592021
8.6100,101.3954916
8.6150,101.8299469
8.6200,102.2624116
8.6250,102.6922762
8.6300,103.1196579
8.6350,103.5444565
8.6400,103.9661192
8.6450,104.3850486
8.6500,104.8009498
8.6550,105.2137303
8.6600,105.6231769
8.6650,106.0298579
8.6700,106.4333107
8.6750,106.8330083
8.6800,107.2285647
8.6850,107.6205862
8.6900,108.0085944
8.6950,108.3924674
8.7000,108.7726397
8.7050,109.1490106
8.7100,109.5211711
8.7150,109.8888032
8.7200,110.2525155
8.7250,110.6120355
8.7300,110.9677838
8.7350,111.3194371
8.7400,111.667267
8.7450,112.0116934
8.7500,112.3525454
8.7550,112.6899413
8.7600,113.0241106
8.7650,113.3546759
8.7700,113.6826689
8.7750,114.0080292
8.7800,114.330558
8.7850,114.6501759
8.7900,114.9664894
8.7950,115.2798985
8.8000,115.5908205
8.8050,115.8990519
8.8100,116.2049064
8.8150,116.5083847
8.8200,116.8090369
8.8250,117.1074202
8.8300,117.4033584
8.8350,117.6964248
8.8400,117.986532
8.8450,118.2737726
8.8500,118.5579053
8.8550,118.8398501
8.8600,119.1189381
8.8650,119.3952311
8.8700,119.6690342
8.8750,119.9399977
8.8800,120.2084785
8.8850,120.4740075
8.8900,120.7361814
8.8950,120.9950809
8.9000,121.2511227
8.9050,121.5045737
8.9100,121.7553308
8.9150,122.0024698
8.9200,122.2461848
8.9250,122.4873988
8.9300,122.7260547
8.9350,122.9622153
8.9400,123.196507
8.9450,123.4291844
8.9500,123.6605932
8.9550,123.8912921
8.9600,124.121427
8.9650,124.3512269
8.9700,124.5810313
8.9750,124.8112783
8.9800,125.0430523
8.9850,125.2758096
8.9900,125.5097959
8.9950,125.7456305
9.0000,125.9831948
9.0050,126.2229157
9.0100,126.4651542
9.0150,126.7100379
9.0200,126.957355
9.0250,127.2076761
9.0300,127.4613661
9.0350,127.7184483
9.0400,127.9797058
9.0450,128.2448742
9.0500,128.5139032
9.0550,128.7868484
9.0600,129.0638987
9.0650,129.3455092
9.0700,129.6317039
9.0750,129.9228703
9.0800,130.2190487
9.0850,130.5202212
9.0900,130.8264717
9.0950,131.1372736
9.1000,131.452097
9.1050,131.7702616
9.1100,132.0906473
9.1150,132.4129637
9.1200,132.7365527
9.1250,133.0598973
9.1300,133.3823771
9.1350,133.7029321
9.1400,134.0205231
9.1450,134.3341915
9.1500,134.6432876
9.1550,134.946173
9.1600,135.242302
9.1650,135.5308103
9.1700,135.8109957
9.1750,136.0825023
9.1800,136.3453272
9.1850,136.5990341
9.1900,136.8435871
9.1950,137.0793542
9.2000,137.3057707
9.2050,137.5233538
9.2100,137.7324458
9.2150,137.9337006
9.2200,138.127234
9.2250,138.3131641
9.2300,138.491794
9.2350,138.6638359
9.2400,138.8293743
9.2450,138.9888601
9.2500,139.1424291
9.2550,139.290023
9.2600,139.4319704
9.2650,139.5683867
9.2700,139.6994684
9.2750,139.8254078
9.2800,139.9458016
9.2850,140.0615214
9.2900,140.173085
9.2950,140.2801091
9.3000,140.3834581
9.3050,140.4830993
9.3100,140.5790197
9.3150,140.671796
9.3200,140.7618706
9.3250,140.8489762
9.3300,140.9332247
9.3350,141.0148456
9.3400,141.0934555
9.3450,141.1699493
9.3500,141.2443625
9.3550,141.3168425
9.3600,141.3873317
9.3650,141.4561875
9.3700,141.5230047
9.3750,141.5881354
9.3800,141.6515757
9.3850,141.713973
9.3900,141.7750383
9.3950,141.835177
9.4000,141.8946239
9.4050,141.9532105
9.4100,142.0109738
9.4150,142.0676385
9.4200,142.1233845
9.4250,142.1786327
9.4300,142.232809
9.4350,142.2867266
9.4400,142.3405094
9.4450,142.3937693
9.4500,142.446735
9.4550,142.4995856
9.4600,142.5523449
9.4650,142.6053612
9.4700,142.6585668
9.4750,142.7119547
9.4800,142.7651789
9.4850,142.8183505
9.4900,142.8715996
9.4950,142.9242526
9.5000,142.97683
9.5050,143.0291694
9.5100,143.0814016
9.5150,143.1331556
9.5200,143.1843751
9.5250,143.235116
9.5300,143.2852862
9.5350,143.3349559
9.5400,143.3838052
9.5450,143.4315695
9.5500,143.4782617
9.5550,143.5235866
9.5600,143.5676697
9.5650,143.6099744
9.5700,143.6504487
9.5750,143.6888516
9.5800,143.7253188
9.5850,143.7597315
9.5900,143.7915215
9.5950,143.8213426
9.6000,143.8485297
9.6050,143.8734441
9.6100,143.8960662
9.6150,143.9162914
9.6200,143.9341357
9.6250,143.9496977
9.6300,143.9629919
9.6350,143.9737127
9.6400,143.9819512
9.6450,143.9873952
9.6500,143.9902872
9.6550,143.9903881
9.6600,143.9876658
9.6650,143.9822262
9.6700,143.9740922
9.6750,143.9629743
9.6800,143.9489435
9.6850,143.9317029
9.6900,143.9111398
9.6950,143.8872956
9.7000,143.8596578
9.7050,143.8286768
9.7100,143.7941922
9.7150,143.7564446
9.7200,143.7152232
9.7250,143.6704659
9.7300,143.622514
9.7350,143.5706163
9.7400,143.515107
9.7450,143.4559117
9.7500,143.3928201
9.7550,143.3258371
9.7600,143.2549194
9.7650,143.1796557
9.7700,143.1001793
9.7750,143.0162455
9.7800,142.9278459
9.7850,142.8349415
9.7900,142.7374273
9.7950,142.6356213
9.8000,142.5294036
9.8050,142.4185386
9.8100,142.3031746
9.8150,142.1833861
9.8200,142.0594653
9.8250,141.9309884
9.8300,141.7981858
9.8350,141.6611783
9.8400,141.5199059
9.8450,141.3745795
9.8500,141.2253277
9.8550,141.0719789
9.8600,140.9145218
9.8650,140.7531776
9.8700,140.5878685
9.8750,140.4185812
9.8800,140.2454027
9.8850,140.0678539
9.8900,139.8863161
9.8950,139.7005795
9.9000,139.5105482
9.9050,139.3162669
9.9100,139.1178105
9.9150,138.9153203
9.9200,138.70799
9.9250,138.4963569
9.9300,138.2804288
9.9350,138.0607535
9.9400,137.8377545
9.9450,137.6112671
9.9500,137.3813142
9.9550,137.1482931
9.9600,136.9123353
9.9650,136.6728132
9.9700,136.4303343
9.9750,136.1847721
9.9800,135.9362134
9.9850,135.6845666
9.9900,135.4300544
9.9950,135.1721535
10.0000,134.9114849
10.0050,134.6479912
10.0100,134.3824345
10.0150,134.1145096
10.0200,133.8441693
10.0250,133.5714629
10.0300,133.2962823
10.0350,133.0189868
10.0400,132.7387558
10.0450,132.4557782
10.0500,132.1701687
10.0550,131.8820225
10.0600,131.5913604
10.0650,131.2982576
10.0700,131.002492
10.0750,130.7040912
10.0800,130.4035237
10.0850,130.1005768
10.0900,129.7954575
10.0950,129.4877762
10.1000,129.1775338
10.1050,128.8642384
10.1100,128.5480864
10.1150,128.2295351
10.1200,127.9085785
10.1250,127.585508
10.1300,127.260144
10.1350,126.9323514
10.1400,126.6025189
10.1450,126.270644
10.1500,125.9368716
10.1550,125.6018542
10.1600,125.2653789
10.1650,124.9279465
10.1700,124.5890656
10.1750,124.2487756
10.1800,123.9066833
10.1850,123.5629108
10.1900,123.2172692
10.1950,122.8695227
10.2000,122.5198678
10.2050,122.1678909
10.2100,121.8135998
10.2150,121.456971
10.2200,121.0981192
10.2250,120.7370494
10.2300,120.3727936
10.2350,120.0052436
10.2400,119.6334678
10.2450,119.2577723
10.2500,118.8785552
10.2550,118.4958825
10.2600,118.1100304
10.2650,117.7206859
10.2700,117.3277448
10.2750,116.9313638
10.2800,116.5311347
10.2850,116.1274568
10.2900,115.7198362
10.2950,115.3085367
10.3000,114.8930771
10.3050,114.4734039
10.3100,114.0481812
10.3150,113.6172063
10.3200,113.1802618
10.3250,112.7373663
10.3300,112.2886419
10.3350,111.8337542
10.3400,111.3733517
10.3450,110.9074548
10.3500,110.4354986
10.3550,109.9577177
10.3600,109.474007
10.3650,108.984561
10.3700,108.4892427
10.3750,107.987914
10.3800,107.4806131
10.3850,106.9675437
10.3900,106.4482634
10.3950,105.923338
10.4000,105.3926857
10.4050,104.8570651
10.4100,104.3166433
10.4150,103.7713198
10.4200,103.2214407
10.4250,102.6677991
10.4300,102.1105853
10.4350,101.549965
10.4400,100.9864349
10.4450,100.4204071
10.4500,99.85198603
10.4550,99.28133214
10.4600,98.70841073
10.4650,98.13357961
10.4700,97.55740731
10.4750,96.98017038
10.4800,96.40249986
10.4850,95.82456423
10.4900,95.24689774
10.4950,94.67018374
10.5000,94.09456848
10.5050,93.52037963
10.5100,92.94713176
10.5150,92.37449241
10.5200,91.80353948
10.5250,91.23373986
10.5300,90.66557855
10.5350,90.09883114
10.5400,89.53384404
10.5450,88.97067664
10.5500,88.40850684
10.5550,87.84703559
10.5600,87.28640429
10.5650,86.72665862
10.5700,86.16829248
10.5750,85.61122525
10.5800,85.05594506
10.5850,84.50173536
10.5900,83.94874815
10.5950,83.39709971
10.6000,82.84659386
10.6050,82.29710972
10.6100,81.74903486
10.6150,81.20208868
10.6200,80.65683612
10.6250,80.11261774
10.6300,79.569703
10.6350,79.02841299
10.6400,78.48915581
10.6450,77.95257262
10.6500,77.41889553
10.6550,76.88789918
10.6600,76.35930948
10.6650,75.8332115
10.6700,75.30946725
10.6750,74.78804948
10.6800,74.26894812
10.6850,73.75244953
10.6900,73.23839703
10.6950,72.72696047
10.7000,72.2175677
10.7050,71.71059778
10.7100,71.20566937
10.7150,70.70322663
10.7200,70.20265538
10.7250,69.70371891
10.7300,69.20656095
10.7350,68.71158523
10.7400,68.21835047
10.7450,67.72653166
10.7500,67.23553557
10.7550,66.74511203
10.7600,66.2553057
10.7650,65.76541484
10.7700,65.27549056
10.7750,64.78524596
10.7800,64.29469303
10.7850,63.80447497
10.7900,63.31405355
10.7950,62.82324508
10.8000,62.33199413
10.8050,61.84073873
10.8100,61.3499737
10.8150,60.86015094
10.8200,60.37065171
10.8250,59.88143253
10.8300,59.39225851
10.8350,58.90275928
10.8400,58.41216302
10.8450,57.92040683
10.8500,57.42713879
10.8550,56.93255791
10.8600,56.43597878
10.8650,55.9373614
10.8700,55.43693209
10.8750,54.93482097
10.8800,54.43128373
10.8850,53.92674046
10.8900,53.42145115
10.8950,52.91523567
10.9000,52.40858456
10.9050,51.90170414
10.9100,51.3952645
10.9150,50.88970592
10.9200,50.38496111
10.9250,49.88172192
10.9300,49.38055408
10.9350,48.88129115
10.9400,48.3842163
10.9450,47.88916028
10.9500,47.39646937
10.9550,46.90666095
10.9600,46.42013745
10.9650,45.93723026
10.9700,45.45836434
10.9750,44.98396682
10.9800,44.51435398
10.9850,44.049485
10.9900,43.5892453
10.9950,43.13361852
11.0000,42.68277186
11.0050,42.23638284
11.0100,41.79434579
11.0150,41.35584571
11.0200,40.92080503
11.0250,40.48924655
11.0300,40.06058315
11.0350,39.63497217
11.0400,39.21241565
11.0450,38.79330453
11.0500,38.37790035
11.0550,37.96637787
11.0600,37.55893738
11.0650,37.15552408
11.0700,36.7558128
11.0750,36.35946638
11.0800,35.9659044
11.0850,35.57442158
11.0900,35.18484646
11.0950,34.79713801
11.1000,34.41112521
11.1050,34.02658689
11.1100,33.64341091
11.1150,33.26146085
11.1200,32.88087603
11.1250,32.50191752
11.1300,32.12487222
11.1350,31.74979932
11.1400,31.37727821
11.1450,31.00708914
11.1500,30.63955444
11.1550,30.27440795
11.1600,29.91200187
11.1650,29.55214839
11.1700,29.1943934
11.1750,28.83871653
11.1800,28.48482637
11.1850,28.13286738
11.1900,27.78301754
11.1950,27.43539408
11.2000,27.09022828
11.2050,26.7476458
11.2100,26.40759183
11.2150,26.07059295
11.2200,25.73683745
11.2250,25.40677983
11.2300,25.08060224
11.2350,24.75869012
11.2400,24.44091833
11.2450,24.12754917
11.2500,23.81859954
11.2550,23.51398933
11.2600,23.21365126
11.2650,22.91714791
11.2700,22.62457133
11.2750,22.33546483
11.2800,22.04941192
11.2850,21.76610873
11.2900,21.48560126
11.2950,21.20778814
11.3000,20.93247686
11.3050,20.65953656
11.3100,20.38876403
11.3150,20.12022577
11.3200,19.85368838
11.3250,19.58895479
11.3300,19.32616133
11.3350,19.06507637
11.3400,18.80572256
11.3450,18.54817901
11.3500,18.29242879
11.3550,18.03912887
11.3600,17.78829109
11.3650,17.54013975
11.3700,17.29517533
11.3750,17.05329064
11.3800,16.81471779
11.3850,16.57964383
11.3900,16.34842119
11.3950,16.1206666
11.4000,15.89637464
11.4050,15.67541493
11.4100,15.45757321
11.4150,15.24299073
11.4200,15.03153819
11.4250,14.8230333
11.4300,14.61737483
11.4350,14.41475954
11.4400,14.21515531
11.4450,14.01857487
11.4500,13.82489988
11.4550,13.63437495
11.4600,13.44671031
11.4650,13.26224565
11.4700,13.08126713
11.4750,12.90379426
11.4800,12.7300926
11.4850,12.56019017
11.4900,12.39396899
11.4950,12.23159127
11.5000,12.07238654
11.5050,11.91651387
11.5100,11.76353599
11.5150,11.61313365
11.5200,11.46480091
11.5250,11.31814993
11.5300,11.17272722
11.5350,11.02797251
11.5400,10.8836562
11.5450,10.73964914
11.5500,10.59564567
11.5550,10.45160477
11.5600,10.30740651
11.5650,10.16295498
11.5700,10.01803343
11.5750,9.872675334
11.5800,9.726793115
11.5850,9.580449862
11.5900,9.433418267
11.5950,9.285460893
11.6000,9.136775605
11.6050,8.987117533
11.6100,8.836640321
11.6150,8.685194151
11.6200,8.533213517
11.6250,8.380594672
11.6300,8.227679589
11.6350,8.074297131
11.6400,7.920920165
11.6450,7.767413298
11.6500,7.614149966
11.6550,7.460796797
11.6600,7.307439756
11.6650,7.154432626
11.6700,7.001789308
11.6750,6.849974591
11.6800,6.699204415
11.6850,6.55005972
11.6900,6.402468523
11.6950,6.256870776
11.7000,6.113606508
11.7050,5.972951547
11.7100,5.835280304
11.7150,5.700768001
11.7200,5.569512314
11.7250,5.441736265
11.7300,5.317594871
11.7350,5.197329062
11.7400,5.080723682
11.7450,4.967895234
11.7500,4.85881849
11.7550,4.753571064
11.7600,4.652121401
11.7650,4.554429931
11.7700,4.4605153
11.7750,4.37003337
11.7800,4.28305456
11.7850,4.199364557
11.7900,4.118916879
11.7950,4.041678677
11.8000,3.967730419
11.8050,3.897169596
11.8100,3.829861967
11.8150,3.765691285
11.8200,3.704803805
11.8250,3.646953765
11.8300,3.592263543
11.8350,3.540770672
11.8400,3.492772765
11.8450,3.447924003
11.8500,3.406201747
11.8550,3.367420291
11.8600,3.331576602
11.8650,3.298645329
11.8700,3.268315097
11.8750,3.240715209
11.8800,3.215747703
11.8850,3.193040765
11.8900,3.172546553
11.8950,3.153848395
11.9000,3.136857537
11.9050,3.121405206
11.9100,3.107104167
11.9150,3.094084135
11.9200,3.081884664
11.9250,3.070566078
11.9300,3.059689803
11.9350,3.049296406
11.9400,3.038945327
11.9450,3.028744599
11.9500,3.018264785
11.9550,3.00739978
11.9600,2.996199175
11.9650,2.984070924
11.9700,2.97117307
11.9750,2.957310057
11.9800,2.94258245
11.9850,2.926705999
11.9900,2.910184002
11.9950,2.892761808
12.0000,2.874459456
12.0050,2.855362567
12.0100,2.835357101
12.0150,2.814475739
12.0200,2.792955845
12.0250,2.770619439
12.0300,2.747608648
12.0350,2.723674325
12.0400,2.69914119
12.0450,2.67407792
12.0500,2.648615163
12.0550,2.622622944
12.0600,2.596239223
12.0650,2.569426955
12.0700,2.542063815
12.0750,2.514530073
12.0800,2.486613538
12.0850,2.458537874
12.0900,2.430408724
12.0950,2.402088897
12.1000,2.373690212
12.1050,2.345131154
12.1100,2.316467042
12.1150,2.287782857
12.1200,2.259018582
12.1250,2.230444698
12.1300,2.201892597
12.1350,2.173491656
12.1400,2.145318483
12.1450,2.117395863
12.1500,2.089980387
12.1550,2.063174019
12.1600,2.036823273
12.1650,2.011133212
12.1700,1.986106697
12.1750,1.961647851
12.1800,1.937669603
12.1850,1.914350263
12.1900,1.891645777
12.1950,1.869713256
12.2000,1.848465092
12.2050,1.827873094
12.2100,1.80792158
12.2150,1.788545449
12.2200,1.769608992
12.2250,1.751018898
12.2300,1.732671203
12.2350,1.714636091
12.2400,1.696814642
12.2450,1.678978892
12.2500,1.661355571
12.2550,1.643910521
12.2600,1.626590486
12.2650,1.609423427
12.2700,1.592276668
12.2750,1.575089074
12.2800,1.557992866
12.2850,1.540968922
12.2900,1.523714743
12.2950,1.506304502
12.3000,1.488786524
12.3050,1.471198522
12.3100,1.453612405
12.3150,1.436011931
12.3200,1.418379085
12.3250,1.400869575
12.3300,1.383476071
12.3350,1.366247264
12.3400,1.349307968
12.3450,1.332494768
12.3500,1.316029714
12.3550,1.299829329
12.3600,1.284169791
12.3650,1.26875485
12.3700,1.253946735
12.3750,1.239484159
12.3800,1.225829448
12.3850,1.212677481
12.3900,1.200328937
12.3950,1.188821666
12.4000,1.178336197
12.4050,1.168631217
12.4100,1.159937549
12.4150,1.15214626
12.4200,1.145203128
12.4250,1.139061416
12.4300,1.133792612
12.4350,1.129413592
12.4400,1.125539301
12.4450,1.122491535
12.4500,1.120052229
12.4550,1.118118633
12.4600,1.116880611
12.4650,1.116188644
12.4700,1.11616861
12.4750,1.116674503
12.4800,1.11791447
12.4850,1.11983206
12.4900,1.122333994
12.4950,1.125661883
12.5000,1.12977673
12.5050,1.134798741
12.5100,1.140912376
12.5150,1.148026113
12.5200,1.15609934
12.5250,1.1654287
12.5300,1.176115624
12.5350,1.188092655
12.5400,1.201519807
12.5450,1.216290023
12.5500,1.232475993
12.5550,1.250180152
12.5600,1.269260259
12.5650,1.289699743
12.5700,1.311700121
12.5750,1.335481264
12.5800,1.360759162
12.5850,1.387547815
12.5900,1.416031148
12.5950,1.446224171
12.6000,1.478089968
12.6050,1.51149312
12.6100,1.546607757
12.6150,1.583420852
12.6200,1.622018255
12.6250,1.662480772
12.6300,1.704760146
12.6350,1.749089292
12.6400,1.795284072
12.6450,1.843731418
12.6500,1.894278197
12.6550,1.947040693
12.6600,2.00211771
12.6650,2.059770077
12.6700,2.119854373
12.6750,2.182803203
12.6800,2.248239936
12.6850,2.316371559
12.6900,2.38709263
12.6950,2.460505389
12.7000,2.536423411
12.7050,2.614809027
12.7100,2.695596837
12.7150,2.778798629
12.7200,2.864389635
12.7250,2.9522865
12.7300,3.042243884
12.7350,3.134255651
12.7400,3.228379784
12.7450,3.324346874
12.7500,3.422127679
12.7550,3.521454489
12.7600,3.622159351
12.7650,3.724043772
12.7700,3.82724061
12.7750,3.931758179
12.7800,4.037414173
12.7850,4.144292916
12.7900,4.252337331
12.7950,4.361568569
12.8000,4.471901327
12.8050,4.583472133
12.8100,4.696178112
12.8150,4.810296448
12.8200,4.926052109
12.8250,5.043219207
12.8300,5.161850766
12.8350,5.282047917
12.8400,5.40377947
12.8450,5.52701823
12.8500,5.651578524
12.8550,5.77757958
12.8600,5.904898407
12.8650,6.033712642
12.8700,6.163688257
12.8750,6.294669074
12.8800,6.426605769
12.8850,6.559626694
12.8900,6.693536727
12.8950,6.828564927
12.9000,6.964626904
12.9050,7.101824337
12.9100,7.240275093
12.9150,7.38017652
12.9200,7.521523405
12.9250,7.664404764
12.9300,7.809046678
12.9350,7.955562674
12.9400,8.104194546
12.9450,8.254930724
12.9500,8.40813783
12.9550,8.563958303
12.9600,8.72239761
12.9650,8.88365157
12.9700,9.047977341
12.9750,9.215289815
12.9800,9.38558294
12.9850,9.5589898
12.9900,9.735360369
12.9950,9.914675429
13.0000,10.09687393
13.0050,10.28193936
13.0100,10.46975535
13.0150,10.65997825
13.0200,10.85253767
13.0250,11.04716553
13.0300,11.24381865
13.0350,11.44232485
13.0400,11.64245173
13.0450,11.84397224
13.0500,12.04691641
13.0550,12.25143098
13.0600,12.45743259
13.0650,12.66495249
13.0700,12.87383946
13.0750,13.08411961
13.0800,13.2955825
13.0850,13.50822114
13.0900,13.72205305
13.0950,13.937085
13.1000,14.15299646
13.1050,14.37000216
13.1100,14.58782832
13.1150,14.80641891
13.1200,15.0256953
13.1250,15.24537769
13.1300,15.46567607
13.1350,15.68644607
13.1400,15.9076572
13.1450,16.12923729
13.1500,16.35146269
13.1550,16.57411345
13.1600,16.79716178
13.1650,17.02093425
13.1700,17.24555277
13.1750,17.47122304
13.1800,17.69805141
13.1850,17.92586633
13.1900,18.15469385
13.1950,18.38449384
13.2000,18.61545506
13.2050,18.84767376
13.2100,19.08091324
13.2150,19.31537807
13.2200,19.55127719
13.2250,19.78863269
13.2300,20.02734455
13.2350,20.2675316
13.2400,20.50918947
13.2450,20.75216307
13.2500,20.99647733
13.2550,21.24226714
13.2600,21.48929825
13.2650,21.73777339
13.2700,21.98737114
13.2750,22.23817989
13.2800,22.49058763
13.2850,22.74428122
13.2900,22.99931321
13.2950,23.25571833
13.3000,23.51348704
13.3050,23.77241395
13.3100,24.03247111
13.3150,24.29365599
13.3200,24.55575156
13.3250,24.81910189
13.3300,25.0836933
13.3350,25.34908112
13.3400,25.61543083
13.3450,25.88274317
13.3500,26.15072945
13.3550,26.41944434
13.3600,26.68905701
13.3650,26.95915539
13.3700,27.22987613
13.3750,27.5011789
13.3800,27.77315462
13.3850,28.04562619
13.3900,28.31849687
13.3950,28.59149651
13.4000,28.86517683
13.4050,29.13904171
13.4100,29.41322947
13.4150,29.68763973
13.4200,29.96214063
13.4250,30.23678496
13.4300,30.51155137
13.4350,30.78635033
13.4400,31.06099846
13.4450,31.33617713
13.4500,31.61173881
13.4550,31.88765854
13.4600,32.16447078
13.4650,32.44188252
13.4700,32.72020444
13.4750,32.99954218
13.4800,33.2801175
13.4850,33.56239555
13.4900,33.84703337
13.4950,34.13388611
13.5000,34.4232022
13.5050,34.71492811
13.5100,35.00957055
13.5150,35.30679458
13.5200,35.60647158
13.5250,35.90899131
13.5300,36.2143362
13.5350,36.52233646
13.5400,36.83331507
13.5450,37.14723686
13.5500,37.46437551
13.5550,37.78453566
13.5600,38.10765804
13.5650,38.43333423
13.5700,38.76186958
13.5750,39.09287194
13.5800,39.42602485
13.5850,39.76151853
13.5900,40.09914057
13.5950,40.43852176
13.6000,40.77949618
13.6050,41.12233188
13.6100,41.46649203
13.6150,41.81242539
13.6200,42.15990471
13.6250,42.50862235
13.6300,42.85836127
13.6350,43.20944212
13.6400,43.56175437
13.6450,43.91534984
13.6500,44.2703642
13.6550,44.62692622
13.6600,44.98463998
13.6650,45.34420347
13.6700,45.70538066
13.6750,46.06815659
13.6800,46.43310585
13.6850,46.80038186
13.6900,47.16966098
13.6950,47.54135582
13.7000,47.91502197
13.7050,48.29094411
13.7100,48.66905273
13.7150,49.0493742
13.7200,49.43194715
13.7250,49.81660978
13.7300,50.20348641
13.7350,50.59255117
13.7400,50.98426325
13.7450,51.37778789
13.7500,51.77344047
13.7550,52.17117703
13.7600,52.57049529
13.7650,52.97217598
13.7700,53.37575669
13.7750,53.7814936
13.7800,54.18962606
13.7850,54.60004815
13.7900,55.01255796
13.7950,55.42767232
13.8000,55.84557723
13.8050,56.26630072
13.8100,56.68994123
13.8150,57.11691432
13.8200,57.54726459
13.8250,57.9805252
13.8300,58.41690792
13.8350,58.85640152
13.8400,59.29873734
13.8450,59.74398297
13.8500,60.1913019
13.8550,60.64080248
13.8600,61.09231991
13.8650,61.54603666
13.8700,62.00196473
13.8750,62.45958078
13.8800,62.91899817
13.8850,63.37964963
13.8900,63.84136976
13.8950,64.30375537
13.9000,64.76701455
13.9050,65.23072955
13.9100,65.69515236
13.9150,66.15993196
13.9200,66.62484147
13.9250,67.08998774
13.9300,67.55504348
13.9350,68.01980722
13.9400,68.48444234
13.9450,68.94872843
13.9500,69.41311006
13.9550,69.87719481
13.9600,70.34122274
13.9650,70.80556379
13.9700,71.26997757
13.9750,71.73464683
13.9800,72.19905895
13.9850,72.66256121
13.9900,73.12581605
13.9950,73.58852374
14.0000,74.05089804
14.0050,74.51327538
14.0100,74.97562164
14.0150,75.43792762
14.0200,75.9000931
14.0250,76.36241119
14.0300,76.82501919
14.0350,77.28846652
14.0400,77.7524967
14.0450,78.2177266
14.0500,78.68409602
14.0550,79.15192291
14.0600,79.62190777
14.0650,80.09368411
14.0700,80.56830407
14.0750,81.0456616
14.0800,81.52626071
14.0850,82.01039223
14.0900,82.49843258
14.0950,82.99005526
14.1000,83.48572183
14.1050,83.98587136
14.1100,84.49014126
14.1150,84.99874729
14.1200,85.51120232
14.1250,86.02768958
14.1300,86.54854262
14.1350,87.0733779
14.1400,87.60202837
14.1450,88.13399346
14.1500,88.66942323
14.1550,89.20746541
14.1600,89.74816795
14.1650,90.29116223
14.1700,90.83584686
14.1750,91.38312728
14.1800,91.93252451
14.1850,92.48408795
14.1900,93.0370525
14.1950,93.59196475
14.2000,94.14740117
14.2050,94.7028756
14.2100,95.25759918
14.2150,95.81123561
14.2200,96.36361976
14.2250,96.91375134
14.2300,97.46095627
14.2350,98.00489431
14.2400,98.54439373
14.2450,99.07929382
14.2500,99.60868189
14.2550,100.1317256
14.2600,100.6477145
14.2650,101.1559785
14.2700,101.6553994
14.2750,102.146214
14.2800,102.6273148
14.2850,103.0992376
14.2900,103.5610534
14.2950,104.0122712
14.3000,104.4523863
14.3050,104.8809839
14.3100,105.2983086
14.3150,105.7044224
14.3200,106.1000247
14.3250,106.4852146
14.3300,106.8599703
14.3350,107.2245426
14.3400,107.578794
14.3450,107.9230879
14.3500,108.257952
14.3550,108.5838177
14.3600,108.9010462
14.3650,109.2103686
14.3700,109.5125006
14.3750,109.8077769
14.3800,110.0971974
14.3850,110.3814773
14.3900,110.6616977
14.3950,110.9383124
14.4000,111.2124012
14.4050,111.483996
14.4100,111.7541699
14.4150,112.0235497
14.4200,112.2931272
14.4250,112.5640642
14.4300,112.8360462
14.4350,113.1103413
14.4400,113.3871339
14.4450,113.6668577
14.4500,113.9498282
14.4550,114.236678
14.4600,114.5276181
14.4650,114.822648
14.4700,115.1225522
14.4750,115.4260853
14.4800,115.7328038
14.4850,116.0421754
14.4900,116.3542714
14.4950,116.6684264
14.5000,116.9851979
14.5050,117.3039091
14.5100,117.6244829
14.5150,117.9459523
14.5200,118.267576
14.5250,118.5890736
14.5300,118.9092375
14.5350,119.2280786
14.5400,119.5449739
14.5450,119.8597
14.5500,120.17125
14.5550,120.4796098
14.5600,120.7840045
14.5650,121.0835881
14.5700,121.3783917
14.5750,121.6677464
14.5800,121.9513537
14.5850,122.2287332
14.5900,122.4997155
14.5950,122.7646962
14.6000,123.022954
14.6050,123.2749593
14.6100,123.5205988
14.6150,123.760206
14.6200,123.9933174
14.6250,124.2202603
14.6300,124.4416837
14.6350,124.6573157
14.6400,124.8684319
14.6450,125.0748585
14.6500,125.2769469
14.6550,125.4756562
14.6600,125.671468
14.6650,125.8648371
14.6700,126.0560469
14.6750,126.246127
14.6800,126.4354999
14.6850,126.6244359
14.6900,126.8134407
14.6950,127.0030657
14.7000,127.1930246
14.7050,127.3840445
14.7100,127.5762145
14.7150,127.7694159
14.7200,127.9639317
14.7250,128.1597706
14.7300,128.3571316
14.7350,128.5555932
14.7400,128.7549311
14.7450,128.9557145
14.7500,129.1576527
14.7550,129.3608088
14.7600,129.5645285
14.7650,129.7690661
14.7700,129.9738531
14.7750,130.179151
14.7800,130.3848683
14.7850,130.5908571
14.7900,130.7965495
14.7950,131.0015203
14.8000,131.2055836
14.8050,131.4084615
14.8100,131.6099731
14.8150,131.8102184
14.8200,132.0089764
14.8250,132.2055731
14.8300,132.4002183
14.8350,132.5923249
14.8400,132.7821662
14.8450,132.9696328
14.8500,133.1544742
14.8550,133.3366596
14.8600,133.5164236
14.8650,133.6941897
14.8700,133.869738
14.8750,134.0431554
14.8800,134.214735
14.8850,134.3841965
14.8900,134.5519025
14.8950,134.717404
14.9000,134.880888
14.9050,135.0419432
14.9100,135.2005829
14.9150,135.3566348
14.9200,135.5106404
14.9250,135.6626767
14.9300,135.8122542
14.9350,135.959701
14.9400,136.1048584
14.9450,136.248208
14.9500,136.3899574
14.9550,136.5291497
14.9600,136.665715
14.9650,136.7993575
14.9700,136.9299695
14.9750,137.0579598
14.9800,137.1828464
14.9850,137.3051045
14.9900,137.4245917
14.9950,137.5417413
15.0000,137.6574611
15.0050,137.7715652
15.0100,137.8842092
15.0150,137.995124
15.0200,138.103946
15.0250,138.2105283
15.0300,138.3148133
15.0350,138.4174149
15.0400,138.5184688
15.0450,138.6184238
15.0500,138.7174419
15.0550,138.8155426
15.0600,138.9128676
15.0650,139.0095542
15.0700,139.1050579
15.0750,139.2003348
15.0800,139.2954472
15.0850,139.3904881
15.0900,139.4855059
15.0950,139.5805559
15.1000,139.6756236
15.1050,139.7712251
15.1100,139.8668302
15.1150,139.9624878
15.1200,140.0583592
15.1250,140.1544198
15.1300,140.2507946
15.1350,140.3472722
15.1400,140.4436619
15.1450,140.5401277
15.1500,140.6369952
15.1550,140.7335668
15.1600,140.8293867
15.1650,140.923828
15.1700,141.0171881
15.1750,141.1094946
15.1800,141.2003482
15.1850,141.2898804
15.1900,141.3777514
15.1950,141.4641835
15.2000,141.5490757
15.2050,141.6322733
15.2100,141.7138993
15.2150,141.7937339
15.2200,141.8720599
15.2250,141.9487583
15.2300,142.0235624
15.2350,142.0959384
15.2400,142.1656474
15.2450,142.2320793
15.2500,142.2953642
15.2550,142.35553
15.2600,142.4126014
15.2650,142.4669593
15.2700,142.5182178
15.2750,142.5661582
15.2800,142.6106661
15.2850,142.6514901
15.2900,142.6889889
15.2950,142.7226489
15.3000,142.7521453
15.3050,142.7774148
15.3100,142.798409
15.3150,142.8150309
15.3200,142.8277369
15.3250,142.8362423
15.3300,142.8412135
15.3350,142.8420916
15.3400,142.8389885
15.3450,142.832111
15.3500,142.8211854
15.3550,142.8066003
15.3600,142.7885923
15.3650,142.7670909
15.3700,142.7429558
15.3750,142.7153312
15.3800,142.6842291
15.3850,142.6497444
15.3900,142.6120754
15.3950,142.5713152
15.4000,142.527597
15.4050,142.4812752
15.4100,142.4324558
15.4150,142.3812587
15.4200,142.3276608
15.4250,142.271939
15.4300,142.2140674
15.4350,142.1548449
15.4400,142.0938358
15.4450,142.0310575
15.4500,141.9659993
15.4550,141.898874
15.4600,141.8300962
15.4650,141.7594738
15.4700,141.6868865
15.4750,141.6119389
15.4800,141.5348296
15.4850,141.4557533
15.4900,141.3749337
15.4950,141.2916759
15.5000,141.2063202
15.5050,141.1192479
15.5100,141.03015
15.5150,140.9388018
15.5200,140.8451464
15.5250,140.749024
15.5300,140.6508503
15.5350,140.5507935
15.5400,140.4490678
15.5450,140.3458329
15.5500,140.2406231
15.5550,140.1334573
15.5600,140.0244676
15.5650,139.9131171
15.5700,139.7994327
15.5750,139.683332
15.5800,139.5648787
15.5850,139.4438236
15.5900,139.319823
15.5950,139.1927318
15.6000,139.0621559
15.6050,138.9281337
15.6100,138.7908784
15.6150,138.6503876
15.6200,138.506124
15.6250,138.3584339
15.6300,138.2068262
15.6350,138.0517633
15.6400,137.8926889
15.6450,137.7296417
15.6500,137.5628476
15.6550,137.3920755
15.6600,137.2174366
15.6650,137.0391267
15.6700,136.8572118
15.6750,136.6720559
15.6800,136.4836071
15.6850,136.2921578
15.6900,136.0973057
15.6950,135.8990602
15.7000,135.6977899
15.7050,135.4928273
15.7100,135.2844682
15.7150,135.0722221
15.7200,134.8566018
15.7250,134.6374925
15.7300,134.4148289
15.7350,134.1884111
15.7400,133.958658
15.7450,133.7255833
15.7500,133.4894826
15.7550,133.2507406
15.7600,133.0088773
15.7650,132.7642756
15.7700,132.5166642
15.7750,132.2661266
15.7800,132.0121344
15.7850,131.7545674
15.7900,131.4924465
15.7950,131.2264578
15.8000,130.9564267
15.8050,130.6821101
15.8100,130.4032763
15.8150,130.1204444
15.8200,129.8335174
15.8250,129.5423377
15.8300,129.2470455
15.8350,128.947958
15.8400,128.6446088
15.8450,128.3366703
15.8500,128.0240622
15.8550,127.7066918
15.8600,127.3838155
15.8650,127.0554295
15.8700,126.7211343
15.8750,126.3804322
15.8800,126.0330874
15.8850,125.6793011
15.8900,125.3184565
15.8950,124.9507075
15.9000,124.5763847
15.9050,124.1952961
15.9100,123.8072699
15.9150,123.4124175
15.9200,123.010885
15.9250,122.602784
15.9300,122.1881728
15.9350,121.7667089
15.9400,121.3388715
15.9450,120.9046038
15.9500,120.4641377
15.9550,120.0175028
15.9600,119.5647107
15.9650,119.1063356
15.9700,118.6420893
15.9750,118.1719155
15.9800,117.6960087
15.9850,117.2143872
15.9900,116.7274579
15.9950,116.2358205
16.0000,115.7387369
16.0050,115.2370767
16.0100,114.7315141
16.0150,114.2226664
16.0200,113.710344
16.0250,113.1947788
16.0300,112.6763958
16.0350,112.1549282
16.0400,111.6304638
16.0450,111.1032062
16.0500,110.5730352
16.0550,110.0400248
16.0600,109.5048464
16.0650,108.9673285
16.0700,108.4276912
16.0750,107.8858188
16.0800,107.342842
16.0850,106.7981751
16.0900,106.2524916
16.0950,105.7051541
16.1000,105.1569251
16.1050,104.6072571
16.1100,104.0559789
16.1150,103.5025627
16.1200,102.9467885
16.1250,102.388549
16.1300,101.8273166
16.1350,101.2631085
16.1400,100.6963888
16.1450,100.127808
16.1500,99.55819891
16.1550,98.98778028
16.1600,98.41633934
16.1650,97.84449856
16.1700,97.2726824
16.1750,96.70092995
16.1800,96.12969668
16.1850,95.55885582
16.1900,94.98796165
16.1950,94.41730188
16.2000,93.84595279
16.2050,93.27454648
16.2100,92.70300315
16.2150,92.13125076
16.2200,91.55938464
16.2250,90.98778902
16.2300,90.41596975
16.2350,89.84436208
16.2400,89.27279954
16.2450,88.70124145
16.2500,88.12952778
16.2550,87.55792129
16.2600,86.9863225
16.2650,86.41406697
16.2700,85.84132121
16.2750,85.26806112
16.2800,84.69377227
16.2850,84.11871211
16.2900,83.54313253
16.2950,82.96742573
16.3000,82.39267772
16.3050,81.81807956
16.3100,81.24378842
16.3150,80.66916124
16.3200,80.09459809
16.3250,79.52047099
16.3300,78.94688296
16.3350,78.37424633
16.3400,77.80273593
16.3450,77.23214311
16.3500,76.66305337
16.3550,76.09504977
16.3600,75.52832942
16.3650,74.96308349
16.3700,74.39955901
16.3750,73.83810419
16.3800,73.27872919
16.3850,72.72179279
16.3900,72.16784964
16.3950,71.61727254
16.4000,71.06939688
16.4050,70.52430507
16.4100,69.98213517
16.4150,69.4431614
16.4200,68.90740164
16.4250,68.37482669
16.4300,67.84568816
16.4350,67.31939635
16.4400,66.79634621
16.4450,66.27629449
16.4500,65.75940743
16.4550,65.24601865
16.4600,64.73687711
16.4650,64.23170127
16.4700,63.73060921
16.4750,63.23361964
16.4800,62.74058349
16.4850,62.25137697
16.4900,61.76565889
16.4950,61.28332339
16.5000,60.80446867
16.5050,60.32842902
16.5100,59.85523604
16.5150,59.38476994
16.5200,58.9170237
16.5250,58.45181965
16.5300,57.98922284
16.5350,57.52950625
16.5400,57.07322644
16.5450,56.62078652
16.5500,56.1721514
16.5550,55.72718913
16.5600,55.28616645
16.5650,54.84899538
16.5700,54.41582915
16.5750,53.98662
16.5800,53.56170999
16.5850,53.14113731
16.5900,52.72459956
16.5950,52.31183059
16.6000,51.90258845
16.6050,51.49691806
16.6100,51.09481039
16.6150,50.69666581
16.6200,50.3023241
16.6250,49.91169472
16.6300,49.52400019
16.6350,49.13953553
16.6400,48.75758294
16.6450,48.37797824
16.6500,48.00024755
16.6550,47.6243477
16.6600,47.25024854
16.6650,46.87770927
16.6700,46.50678734
16.6750,46.13735907
16.6800,45.7692296
16.6850,45.40284333
16.6900,45.03854421
16.6950,44.67599352
16.7000,44.31548108
16.7050,43.95723839
16.7100,43.60110127
16.7150,43.24706296
16.7200,42.8949875
16.7250,42.5449278
16.7300,42.19636603
16.7350,41.84947026
16.7400,41.50372958
16.7450,41.15880113
16.7500,40.81435285
16.7550,40.47023402
16.7600,40.12610143
16.7650,39.78242578
16.7700,39.43939787
16.7750,39.0970893
16.7800,38.7553252
16.7850,38.41465399
16.7900,38.07552753
16.7950,37.73790806
16.8000,37.40198278
16.8050,37.06787046
16.8100,36.73556316
16.8150,36.40537836
16.8200,36.07707262
16.8250,35.7507439
16.8300,35.42660131
16.8350,35.10427328
16.8400,34.78385314
16.8450,34.46515936
16.8500,34.14811761
16.8550,33.83277386
16.8600,33.51922169
16.8650,33.20748586
16.8700,32.89761105
16.8750,32.58976567
16.8800,32.28366777
16.8850,31.97905808
16.8900,31.67597335
16.8950,31.37428012
16.9000,31.07358072
16.9050,30.77400208
16.9100,30.47544066
16.9150,30.17785767
16.9200,29.88125028
16.9250,29.58581452
16.9300,29.29208805
16.9350,29.00025606
16.9400,28.7106547
16.9450,28.42323786
16.9500,28.13801285
16.9550,27.85517954
16.9600,27.57436435
16.9650,27.29514816
16.9700,27.01705752
16.9750,26.74007071
16.9800,26.46398609
16.9850,26.18859181
16.9900,25.91363008
16.9950,25.63956629
17.0000,25.3664144
17.0050,25.09424946
17.0100,24.82358279
17.0150,24.55431594
17.0200,24.28695728
17.0250,24.02124733
17.0300,23.75777773
17.0350,23.49633661
17.0400,23.23678714
17.0450,22.97924811
17.0500,22.72334548
17.0550,22.46949202
17.0600,22.2177605
17.0650,21.96767909
17.0700,21.71958337
17.0750,21.47382648
17.0800,21.23114237
17.0850,20.99170885
17.0900,20.755699
17.0950,20.52379285
17.1000,20.29631451
17.1050,20.07379454
17.1100,19.85682271
17.1150,19.64510602
17.1200,19.43917952
17.1250,19.23917306
17.1300,19.04514036
17.1350,18.85735947
17.1400,18.675624
17.1450,18.49980306
17.1500,18.32966044
17.1550,18.1650708
17.1600,18.00533315
17.1650,17.85035691
17.1700,17.69948852
17.1750,17.55220381
17.1800,17.40810237
17.1850,17.266515
17.1900,17.12698885
17.1950,16.98858144
17.2000,16.8512628
17.2050,16.71429254
17.2100,16.57742443
17.2150,16.44014303
17.2200,16.30217686
17.2250,16.16303358
17.2300,16.02249447
17.2350,15.88011214
17.2400,15.73583331
17.2450,15.58979776
17.2500,15.44183885
17.2550,15.2918845
17.2600,15.14005744
17.2650,14.98635493
17.2700,14.83122446
17.2750,14.67453478
17.2800,14.51692947
17.2850,14.35835623
17.2900,14.19914574
17.2950,14.03904561
17.3000,13.87835129
17.3050,13.71719938
17.3100,13.55552671
17.3150,13.39359736
17.3200,13.23131641
17.3250,13.06914195
17.3300,12.90674084
17.3350,12.74420763
17.3400,12.58161909
17.3450,12.41914602
17.3500,12.25730348
17.3550,12.09578074
17.3600,11.93455086
17.3650,11.77415667
17.3700,11.61456327
17.3750,11.45600979
17.3800,11.29817835
17.3850,11.14144422
17.3900,10.98593508
17.3950,10.83162069
17.4000,10.67890512
17.4050,10.52783526
17.4100,10.37824566
17.4150,10.23076341
17.4200,10.0851635
17.4250,9.941768604
17.4300,9.800749354
17.4350,9.662274209
17.4400,9.526419562
17.4450,9.393254384
17.4500,9.262935109
17.4550,9.135372473
17.4600,9.010803781
17.4650,8.888743469
17.4700,8.769270767
17.4750,8.65206055
17.4800,8.536698298
17.4850,8.423368764
17.4900,8.311433846
17.4950,8.201455321
17.5000,8.093019076
17.5050,7.986039836
17.5100,7.880296265
17.5150,7.775970452
17.5200,7.672929038
17.5250,7.571075245
17.5300,7.47062595
17.5350,7.371483886
17.5400,7.273860758
17.5450,7.177667811
17.5500,7.082987044
17.5550,6.989707505
17.5600,6.897972117
17.5650,6.807923512
17.5700,6.719355107
17.5750,6.632438564
17.5800,6.547072137
17.5850,6.463096194
17.5900,6.380275099
17.5950,6.298498419
17.6000,6.217683856
17.6050,6.137785307
17.6100,6.0586515
17.6150,5.980144072
17.6200,5.902239644
17.6250,5.824964371
17.6300,5.748372049
17.6350,5.67246884
17.6400,5.597325659
17.6450,5.523099502
17.6500,5.449664851
17.6550,5.377155658
17.6600,5.305767601
17.6650,5.235239161
17.6700,5.165558069
17.6750,5.096817028
17.6800,5.029151888
17.6850,4.962376728
17.6900,4.896639517
17.6950,4.831960926
17.7000,4.768364255
17.7050,4.705683682
17.7100,4.644302553
17.7150,4.584065952
17.7200,4.525182178
17.7250,4.467690936
17.7300,4.411658129
17.7350,4.356812423
17.7400,4.303410422
17.7450,4.251292825
17.7500,4.200461618
17.7550,4.151006544
17.7600,4.102758546
17.7650,4.055827807
17.7700,4.010252294
17.7750,3.966138616
17.7800,3.923846469
17.7850,3.882952915
17.7900,3.844009454
17.7950,3.806704975
17.8000,3.770846595
17.8050,3.736734654
17.8100,3.70423884
17.8150,3.673282656
17.8200,3.643700989
17.8250,3.615706927
17.8300,3.588974873
17.8350,3.56343277
17.8400,3.539063084
17.8450,3.515648606
17.8500,3.493189777
17.8550,3.471700131
17.8600,3.450732583
17.8650,3.430122179
17.8700,3.409968237
17.8750,3.389959545
17.8800,3.370023914
17.8850,3.350278725
17.8900,3.33067147
17.8950,3.311411198
17.9000,3.292075477
17.9050,3.272611177
17.9100,3.253072085
17.9150,3.233352424
17.9200,3.213466904
17.9250,3.193276479
17.9300,3.172766363
17.9350,3.152090212
17.9400,3.131346383
17.9450,3.110558335
17.9500,3.089710408
17.9550,3.069068235
17.9600,3.048224069
17.9650,3.027548658
17.9700,3.007186961
17.9750,2.986880602
17.9800,2.966666282
17.9850,2.946607073
17.9900,2.926524912
17.9950,2.906336198
18.0000,2.886121898
18.0050,2.865946657
18.0100,2.845813624
18.0150,2.8254475
18.0200,2.805040926
18.0250,2.784423987
18.0300,2.763738639
18.0350,2.743062572
18.0400,2.722257385
18.0450,2.701198497
18.0500,2.679993743
18.0550,2.658413458
18.0600,2.636577733
18.0650,2.614601528
18.0700,2.592553854
18.0750,2.57030203
18.0800,2.547779685
18.0850,2.525310131
18.0900,2.502688949
18.0950,2.480004109
18.1000,2.457301358
18.1050,2.434332963
18.1100,2.411018343
18.1150,2.387404109
18.1200,2.363672507
18.1250,2.33948859
18.1300,2.315080039
18.1350,2.290422926
18.1400,2.265524595
18.1450,2.240323877
18.1500,2.214979351
18.1550,2.189419112
18.1600,2.163892722
18.1650,2.138538923
18.1700,2.113024888
18.1750,2.08783732
18.1800,2.062702168
18.1850,2.03763856
18.1900,2.012845432
18.1950,1.98820972
18.2000,1.964097907
18.2050,1.940553237
18.2100,1.917566494
18.2150,1.895662893
18.2200,1.874832674
18.2250,1.85528338
18.2300,1.837358376
18.2350,1.820903932
18.2400,1.806289352
18.2450,1.79331506
18.2500,1.782222033
18.2550,1.77283686
18.2600,1.765558701
18.2650,1.760277185
18.2700,1.756895265
18.2750,1.75571585
18.2800,1.756834563
18.2850,1.760379928
18.2900,1.766447277
18.2950,1.775045027
18.3000,1.786052033
18.3050,1.799631546
18.3100,1.815616938
18.3150,1.834495055
18.3200,1.856187589
18.3250,1.880817499
18.3300,1.908675404
18.3350,1.939946475
18.3400,1.974878559
18.3450,2.013668923
18.3500,2.056154886
18.3550,2.1025508
18.3600,2.152636236
18.3650,2.206167991
18.3700,2.262852385
18.3750,2.322720741
18.3800,2.385446394
18.3850,2.450792953
18.3900,2.518220272
18.3950,2.587477438
18.4000,2.658669488
18.4050,2.731723056
18.4100,2.806532822
18.4150,2.882914896
18.4200,2.961002146
18.4250,3.040822957
18.4300,3.122256975
18.4350,3.20543105
18.4400,3.29035656
18.4450,3.377344191
18.4500,3.466405024
18.4550,3.557740265
18.4600,3.651531532
18.4650,3.748103334
18.4700,3.847936094
18.4750,3.950823472
18.4800,4.057061751
18.4850,4.167092608
18.4900,4.280897264
18.4950,4.398648986
18.5000,4.520386139
18.5050,4.646500405
18.5100,4.777012728
18.5150,4.911771853
18.5200,5.051010287
18.5250,5.194626619
18.5300,5.342581418
18.5350,5.495034256
18.5400,5.65197392
18.5450,5.813563568
18.5500,5.979838329
18.5550,6.150810122
18.5600,6.326409064
18.5650,6.506633238
18.5700,6.69145138
18.5750,6.880614081
18.5800,7.074089201
18.5850,7.271462584
18.5900,7.472548229
18.5950,7.677199998
18.6000,7.885171594
18.6050,8.096213645
18.6100,8.309945858
18.6150,8.526186605
18.6200,8.744605929
18.6250,8.964866058
18.6300,9.186453473
18.6350,9.40910887
18.6400,9.632642584
18.6450,9.856682931
18.6500,10.0811941
18.6550,10.3059409
18.6600,10.53106339
18.6650,10.75671442
18.6700,10.98269751
18.6750,11.2092529
18.6800,11.43646254
18.6850,11.66441994
18.6900,11.89355734
18.6950,12.12391187
18.7000,12.35529442
18.7050,12.58827117
18.7100,12.82281747
18.7150,13.05892479
18.7200,13.29643783
18.7250,13.53549782
18.7300,13.77616532
18.7350,14.0185045
18.7400,14.26249457
18.7450,14.50824374
18.7500,14.75571124
18.7550,15.00501134
18.7600,15.2561629
18.7650,15.50940777
18.7700,15.76464321
18.7750,16.02240365
18.7800,16.28262227
18.7850,16.54499362
18.7900,16.80946007
18.7950,17.07609639
18.8000,17.3448426
18.8050,17.61517856
18.8100,17.88704311
18.8150,18.16051776
18.8200,18.43547679
18.8250,18.71197748
18.8300,18.99004617
18.8350,19.26975031
18.8400,19.55108102
18.8450,19.83392331
18.8500,20.11828173
18.8550,20.4040392
18.8600,20.69132618
18.8650,20.97993593
18.8700,21.26976701
18.8750,21.56072969
18.8800,21.852752
18.8850,22.14609499
18.8900,22.44064837
18.8950,22.73640852
18.9000,23.03327378
18.9050,23.33105812
18.9100,23.62981271
18.9150,23.92919667
18.9200,24.22925734
18.9250,24.53006376
18.9300,24.83169967
18.9350,25.13386489
18.9400,25.43678267
18.9450,25.74067057
18.9500,26.04563395
18.9550,26.35163491
18.9600,26.65864066
18.9650,26.96672853
18.9700,27.27616405
18.9750,27.58716855
18.9800,27.89988565
18.9850,28.21440385
18.9900,28.53066653
18.9950,28.84898482
19.0000,29.16930397
19.0050,29.49118079
19.0100,29.81483409
19.0150,30.14055604
19.0200,30.46826652
19.0250,30.79792442
19.0300,31.1293828
19.0350,31.46248266
19.0400,31.79740473
19.0450,32.13388249
19.0500,32.47215581
19.0550,32.81239829
19.0600,33.15446534
19.0650,33.498238
19.0700,33.84395045
19.0750,34.19144684
19.0800,34.54093736
19.0850,34.89259145
19.0900,35.24632066
19.0950,35.60190866
19.1000,35.95952355
19.1050,36.31970009
19.1100,36.68233966
19.1150,37.04709451
19.1200,37.41370849
19.1250,37.78259286
19.1300,38.15326349
19.1350,38.52607418
19.1400,38.90087381
19.1450,39.27754242
19.1500,39.65587385
19.1550,40.03585204
19.1600,40.4174296
19.1650,40.80080317
19.1700,41.1859797
19.1750,41.57291108
19.1800,41.96129415
19.1850,42.3510879
19.1900,42.74229871
19.1950,43.13508447
19.2000,43.52938298
19.2050,43.92538148
19.2100,44.3232473
19.2150,44.72298349
19.2200,45.12450786
19.2250,45.52712751
19.2300,45.93064067
19.2350,46.33511975
19.2400,46.73981463
19.2450,47.14453265
19.2500,47.54886802
19.2550,47.95320775
19.2600,48.35793945
19.2650,48.76304799
19.2700,49.16898643
19.2750,49.5756016
19.2800,49.98281735
19.2850,50.39142006
19.2900,50.80183515
19.2950,51.21385397
19.3000,51.62795673
19.3050,52.04422156
19.3100,52.46263486
19.3150,52.88308619
19.3200,53.30554936
19.3250,53.73058004
19.3300,54.1585242
19.3350,54.58931943
19.3400,55.02299497
19.3450,55.4601694
19.3500,55.90109905
19.3550,56.34575415
19.3600,56.79453626
19.3650,57.24747363
19.3700,57.70483942
19.3750,58.16696956
19.3800,58.63374446
19.3850,59.10540491
19.3900,59.58240566
19.3950,60.06506264
19.4000,60.55317879
19.4050,61.04678581
19.4100,61.54608027
19.4150,62.05129711
19.4200,62.56214683
19.4250,63.07819037
19.4300,63.59936776
19.4350,64.12481143
19.4400,64.65415368
19.4450,65.18708767
19.4500,65.72290599
19.4550,66.26140651
19.4600,66.80235834
19.4650,67.34551329
19.4700,67.89021178
19.4750,68.43573063
19.4800,68.98203996
19.4850,69.52846176
19.4900,70.07521973
19.4950,70.62063322
19.5000,71.16493662
19.5050,71.70726502
19.5100,72.24695148
19.5150,72.7840691
19.5200,73.31824442
19.5250,73.84980839
19.5300,74.37848399
19.5350,74.90444132
19.5400,75.42802734
19.5450,75.94881318
19.5500,76.46684952
19.5550,76.98239248
19.5600,77.49539007
19.5650,78.00700476
19.5700,78.51702106
19.5750,79.02565161
19.5800,79.5322346
19.5850,80.03634683
19.5900,80.53829119
19.5950,81.03815221
19.6000,81.53693961
19.6050,82.03482412
19.6100,82.53274961
19.6150,83.0314302
19.6200,83.53127731
19.6250,84.0323524
19.6300,84.53495635
19.6350,85.04009442
19.6400,85.54792578
19.6450,86.05935625
19.6500,86.57501738
19.6550,87.09596593
19.6600,87.62270568
19.6650,88.15619325
19.6700,88.69617924
19.6750,89.24322378
19.6800,89.7981591
19.6850,90.36050232
19.6900,90.9296916
19.6950,91.50522489
19.7000,92.08600548
19.7050,92.67155326
19.7100,93.2612554
19.7150,93.85465899
19.7200,94.45097472
19.7250,95.04958321
19.7300,95.64996688
19.7350,96.25153496
19.7400,96.8534358
19.7450,97.45540252
19.7500,98.05677898
19.7550,98.65646087
19.7600,99.25313262
19.7650,99.84568894
19.7700,100.4340545
19.7750,101.0186921
19.7800,101.5984974
19.7850,102.1731967
19.7900,102.7419808
19.7950,103.3050483
19.8000,103.8624132
19.8050,104.4139702
19.8100,104.9596382
19.8150,105.4989204
19.8200,106.0323521
19.8250,106.5602873
19.8300,107.0829878
19.8350,107.6004691
19.8400,108.1120219
19.8450,108.6183251
19.8500,109.1195384
19.8550,109.6161002
19.8600,110.108044
19.8650,110.5954873
19.8700,111.0787576
19.8750,111.5583275
19.8800,112.0348772
19.8850,112.5087351
19.8900,112.9798909
19.8950,113.4486045
19.9000,113.9145186
19.9050,114.3780459
19.9100,114.8392062
19.9150,115.298112
19.9200,115.7550348
19.9250,116.2103537
19.9300,116.6638817
19.9350,117.1153437
19.9400,117.5642517
19.9450,118.0101592
19.9500,118.4534986
19.9550,118.8936901
19.9600,119.3307696
19.9650,119.7644552
19.9700,120.1952021
19.9750,120.6224473
19.9800,121.0459937
19.9850,121.4661775
19.9900,121.8823862
19.9950,122.2947844
20.0000,122.7032092
20.0050,123.1068093
20.0100,123.5059026
20.0150,123.9004887
20.0200,124.2910295
20.0250,124.6772592
20.0300,125.0592416
20.0350,125.4372091
20.0400,125.8107553
20.0450,126.179724
20.0500,126.5437848
20.0550,126.902393
20.0600,127.2556434
20.0650,127.6027962
20.0700,127.9433554
20.0750,128.2759841
20.0800,128.6013725
20.0850,128.9186158
20.0900,129.2278985
20.0950,129.5297152
20.1000,129.8233437
20.1050,130.109003
20.1100,130.3867859
20.1150,130.6568207
20.1200,130.9186857
20.1250,131.1726759
20.1300,131.4188425
20.1350,131.6571126
20.1400,131.8881487
20.1450,132.1120814
20.1500,132.3294981
20.1550,132.5408017
20.1600,132.7466105
20.1650,132.9472527
20.1700,133.142905
20.1750,133.3341373
20.1800,133.5211749
20.1850,133.7043723
20.1900,133.8830979
20.1950,134.0577672
20.2000,134.2284123
20.2050,134.3955559
20.2100,134.5589006
20.2150,134.7186397
20.2200,134.8749245
20.2250,135.027717
20.2300,135.1776629
20.2350,135.3246791
20.2400,135.4698976
20.2450,135.6135195
20.2500,135.7553021
20.2550,135.8947269
20.2600,136.0317815
20.2650,136.1657557
20.2700,136.296399
20.2750,136.4226843
20.2800,136.5442793
20.2850,136.66129
20.2900,136.7732041
20.2950,136.879526
20.3000,136.9804554
20.3050,137.0759088
20.3100,137.1651742
20.3150,137.2479093
20.3200,137.3239616
20.3250,137.3938462
20.3300,137.4570476
20.3350,137.5137439
20.3400,137.564095
20.3450,137.6083546
20.3500,137.6468818
20.3550,137.6807085
20.3600,137.7100388
20.3650,137.7357141
20.3700,137.7584197
20.3750,137.7792912
20.3800,137.7985359
20.3850,137.8169023
20.3900,137.8352013
20.3950,137.8537701
20.4000,137.8735495
20.4050,137.8946404
20.4100,137.9178072
20.4150,137.94343
20.4200,137.9718326
20.4250,138.0035447
20.4300,138.0387041
20.4350,138.0778386
20.4400,138.1210985
20.4450,138.1690327
20.4500,138.2217804
20.4550,138.27929
20.4600,138.3412444
20.4650,138.4078638
20.4700,138.4789407
20.4750,138.5542461
20.4800,138.6339513
20.4850,138.7170244
20.4900,138.8036783
20.4950,138.8929029
20.5000,138.9843988
20.5050,139.0779099
20.5100,139.173153
20.5150,139.2697627
20.5200,139.3676676
20.5250,139.4664921
20.5300,139.5661385
20.5350,139.6664249
20.5400,139.7667969
20.5450,139.8664934
20.5500,139.9654924
20.5550,140.0637001
20.5600,140.1604656
20.5650,140.2559651
20.5700,140.3496769
20.5750,140.4423857
20.5800,140.5331893
20.5850,140.6215957
20.5900,140.7078788
20.5950,140.7920109
20.6000,140.8736265
20.6050,140.9529978
20.6100,141.0300838
20.6150,141.1048015
20.6200,141.1770164
20.6250,141.24624
20.6300,141.3127701
20.6350,141.376122
20.6400,141.4368339
20.6450,141.4946524
20.6500,141.5498181
20.6550,141.6018367
20.6600,141.6511948
20.6650,141.6975789
20.6700,141.7403209
20.6750,141.779961
20.6800,141.8158399
20.6850,141.848239
20.6900,141.8768521
20.6950,141.9013367
20.7000,141.9213757
20.7050,141.9373279
20.7100,141.9488357
20.7150,141.9561337
20.7200,141.959592
20.7250,141.9589648
20.7300,141.9543665
20.7350,141.9457289
20.7400,141.9335185
20.7450,141.9176023
20.7500,141.8981055
20.7550,141.875312
20.7600,141.849337
20.7650,141.8200399
20.7700,141.787902
20.7750,141.7527758
20.7800,141.7148835
20.7850,141.6746885
20.7900,141.6319116
20.7950,141.586822
20.8000,141.5395182
20.8050,141.4899791
20.8100,141.4377249
20.8150,141.3831743
20.8200,141.3259154
20.8250,141.2659792
20.8300,141.2029613
20.8350,141.1369899
20.8400,141.0679107
20.8450,140.9962117
20.8500,140.9210642
20.8550,140.8430886
20.8600,140.7623816
20.8650,140.6787966
20.8700,140.5924139
20.8750,140.5027345
20.8800,140.4111017
20.8850,140.3170343
20.8900,140.2205467
20.8950,140.121605
20.9000,140.0199478
20.9050,139.9154656
20.9100,139.8075224
20.9150,139.696388
20.9200,139.5820968
20.9250,139.4643194
20.9300,139.3429446
20.9350,139.218003
20.9400,139.0892745
20.9450,138.9570708
20.9500,138.8213197
20.9550,138.682163
20.9600,138.5391144
20.9650,138.3920696
20.9700,138.2414625
20.9750,138.0870616
20.9800,137.9289291
20.9850,137.7670041
20.9900,137.6015582
20.9950,137.4324645
21.0000,137.25979
21.0050,137.0832795
21.0100,136.903073
21.0150,136.718919
21.0200,136.5309976
21.0250,136.3391302
21.0300,136.1438496
21.0350,135.945343
21.0400,135.7431552
21.0450,135.5375305
21.0500,135.3284546
21.0550,135.1157869
21.0600,134.9000466
21.0650,134.6815805
21.0700,134.4604784
21.0750,134.2369175
21.0800,134.0111521
21.0850,133.7830242
21.0900,133.5525431
21.0950,133.3199899
21.1000,133.084969
21.1050,132.8470183
21.1100,132.6062386
21.1150,132.3616767
21.1200,132.113642
21.1250,131.8616055
21.1300,131.6055906
21.1350,131.3457343
21.1400,131.0818764
21.1450,130.8135947
21.1500,130.5409756
21.1550,130.2638186
21.1600,129.9818734
21.1650,129.6953955
21.1700,129.4039447
21.1750,129.107992
21.1800,128.8065298
21.1850,128.4999667
21.1900,128.1878015
21.1950,127.8700192
21.2000,127.5462688
21.2050,127.2163195
21.2100,126.880524
21.2150,126.5384419
21.2200,126.1894078
21.2250,125.8335857
21.2300,125.4706237
21.2350,125.1004524
21.2400,124.7226118
21.2450,124.3370887
21.2500,123.9439112
21.2550,123.542366
21.2600,123.1324857
21.2650,122.7145176
21.2700,122.2883433
21.2750,121.8534708
21.2800,121.4107198
21.2850,120.9598258
21.2900,120.5001585
21.2950,120.0322168
21.3000,119.5558627
21.3050,119.0708778
21.3100,118.5772465
21.3150,118.0747093
21.3200,117.5630825
21.3250,117.04196
21.3300,116.5109686
21.3350,115.9701134
21.3400,115.4191992
21.3450,114.8581977
21.3500,114.2876198
21.3550,113.7076642
21.3600,113.118434
21.3650,112.5202449
21.3700,111.9131324
21.3750,111.2976227
21.3800,110.6738844
21.3850,110.042351
21.3900,109.4033818
21.3950,108.7571687
21.4000,108.1032794
21.4050,107.4414946
21.4100,106.7722404
21.4150,106.0964143
21.4200,105.413617
21.4250,104.7245182
21.4300,104.0294029
21.4350,103.327566
21.4400,102.6193394
21.4450,101.9050366
21.4500,101.1848241
21.4550,100.4584853
21.4600,99.72649545
21.4650,98.98839102
21.4700,98.24462064
21.4750,97.49430008
21.4800,96.73746989
21.4850,95.97406153
21.4900,95.20422027
21.4950,94.42821218
21.5000,93.64663247
21.5050,92.85924149
21.5100,92.0657825
21.5150,91.26659256
21.5200,90.46203853
21.5250,89.6521931
21.5300,88.83797158
21.5350,88.01916664
21.5400,87.196438
21.5450,86.3700763
21.5500,85.54020178
21.5550,84.70734351
21.5600,83.8721692
21.5650,83.03528929
21.5700,82.19743541
21.5750,81.35895893
21.5800,80.52033746
21.5850,79.68249503
21.5900,78.84612419
21.5950,78.01164211
21.6000,77.1793116
21.6050,76.34962371
21.6100,75.52230415
21.6150,74.69724133
21.6200,73.8748783
21.6250,73.05579089
21.6300,72.24004497
21.6350,71.42799569
21.6400,70.6191663
21.6450,69.81390036
21.6500,69.01145845
21.6550,68.21225531
21.6600,67.41545195
21.6650,66.62055523
21.6700,65.8278239
21.6750,65.03658747
21.6800,64.24657764
21.6850,63.45811682
21.6900,62.67086355
21.6950,61.88541197
21.7000,61.10215332
21.7050,60.32165656
21.7100,59.54486905
21.7150,58.77293199
21.7200,58.00662215
21.7250,57.24672187
21.7300,56.4932555
21.7350,55.74707246
21.7400,55.00938607
21.7450,54.28031803
21.7500,53.55998121
21.7550,52.8484886
21.7600,52.1454323
21.7650,51.45053745
21.7700,50.76386146
21.7750,50.08572581
21.7800,49.41615262
21.7850,48.7544439
21.7900,48.10055287
21.7950,47.45429025
21.8000,46.81540255
21.8050,46.18359266
21.8100,45.55890541
21.8150,44.94158227
21.8200,44.33159049
21.8250,43.7291062
21.8300,43.13363616
21.8350,42.54543652
21.8400,41.96448311
21.8450,41.39108836
21.8500,40.82553859
21.8550,40.26801833
21.8600,39.71858873
21.8650,39.1767804
21.8700,38.64212078
21.8750,38.11374593
21.8800,37.59068463
21.8850,37.07217051
21.8900,36.55835748
21.8950,36.04836464
21.9000,35.54231161
21.9050,35.04046484
21.9100,34.54293761
21.9150,34.05033131
21.9200,33.56290852
21.9250,33.08028576
21.9300,32.60324435
21.9350,32.131455
21.9400,31.66574645
21.9450,31.20612208
21.9500,30.7531314
21.9550,30.30652323
21.9600,29.86648913
21.9650,29.43281806
21.9700,29.00531503
21.9750,28.58419959
21.9800,28.16956943
21.9850,27.76142238
21.9900,27.35956661
21.9950,26.96396967
22.0000,26.57477527
22.0050,26.19202994
22.0100,25.81604385
22.0150,25.44669217
22.0200,25.08442113
22.0250,24.72917256
22.0300,24.38179917
22.0350,24.04279736
22.0400,23.71235819
22.0450,23.39096094
22.0500,23.07881065
22.0550,22.776003
22.0600,22.48256483
22.0650,22.19872968
22.0700,21.92425101
22.0750,21.65833553
22.0800,21.40028097
22.0850,21.14959942
22.0900,20.90533993
22.0950,20.66646686
22.1000,20.43202521
22.1050,20.20087326
22.1100,19.97266422
22.1150,19.74651772
22.1200,19.52192796
22.1250,19.29842266
22.1300,19.07555858
22.1350,18.8530645
22.1400,18.63096601
22.1450,18.40900945
22.1500,18.18692976
22.1550,17.96462572
22.1600,17.74239084
22.1650,17.51975707
22.1700,17.29693376
22.1750,17.07434044
22.1800,16.85224586
22.1850,16.63087224
22.1900,16.4097929
22.1950,16.18915616
22.2000,15.96901791
22.2050,15.74917365
22.2100,15.52945963
22.2150,15.30946702
22.2200,15.08903002
22.2250,14.86820835
22.2300,14.64647872
22.2350,14.42385744
22.2400,14.20048026
22.2450,13.97667821
22.2500,13.75229445
22.2550,13.52758052
22.2600,13.30266901
22.2650,13.07802527
22.2700,12.85427024
22.2750,12.63157073
22.2800,12.41020009
22.2850,12.19076967
22.2900,11.97392252
22.2950,11.75977057
22.3000,11.54863911
22.3050,11.34078776
22.3100,11.13604671
22.3150,10.9346269
22.3200,10.73633694
22.3250,10.54152104
22.3300,10.3496576
22.3350,10.16081847
22.3400,9.974849152
22.3450,9.79146912
22.3500,9.610929397
22.3550,9.433013034
22.3600,9.258095232
22.3650,9.086003539
22.3700,8.916725447
22.3750,8.750418198
22.3800,8.587038291
22.3850,8.42661186
22.3900,8.269161546
22.3950,8.1145294
22.4000,7.962884772
22.4050,7.814320887
22.4100,7.668616823
22.4150,7.525547637
22.4200,7.385009211
22.4250,7.246844611
22.4300,7.111265313
22.4350,6.978139296
22.4400,6.847301341
22.4450,6.71878137
22.4500,6.592777186
22.4550,6.469040435
22.4600,6.347275111
22.4650,6.227763192
22.4700,6.110174862
22.4750,5.99418158
22.4800,5.879824214
22.4850,5.766999176
22.4900,5.655899851
22.4950,5.546431977
22.5000,5.438506973
22.5050,5.332289984
22.5100,5.22806553
22.5150,5.125808103
22.5200,5.025614188
22.5250,4.927744398
22.5300,4.832091258
22.5350,4.738980439
22.5400,4.648115107
22.5450,4.559266757
22.5500,4.472411747
22.5550,4.387261258
22.5600,4.303532775
22.5650,4.221115817
22.5700,4.139492486
22.5750,4.058608466
22.5800,3.97848291
22.5850,3.898673616
22.5900,3.818660258
22.5950,3.738746833
22.6000,3.658949443
22.6050,3.578898657
22.6100,3.498888582
22.6150,3.418991236
22.6200,3.339287684
22.6250,3.259629049
22.6300,3.180222919
22.6350,3.101181506
22.6400,3.022555527
22.6450,2.944526703
22.6500,2.867144
22.6550,2.790530159
22.6600,2.714806725
22.6650,2.640126393
22.6700,2.566198757
22.6750,2.493135921
22.6800,2.421022337
22.6850,2.349749496
22.6900,2.279247543
22.6950,2.209555341
22.7000,2.140330664
22.7050,2.071573665
22.7100,2.003323293
22.7150,1.935426295
22.7200,1.868101601
22.7250,1.801011194
22.7300,1.734292658
22.7350,1.667802898
22.7400,1.601647999
22.7450,1.535575387
22.7500,1.469496519
22.7550,1.403709107
22.7600,1.338244159
22.7650,1.273052304
22.7700,1.208231373
22.7750,1.144144379
22.7800,1.080966409
22.7850,1.018885495
22.7900,0.9579475064
22.7950,0.8983357998
22.8000,0.8401777387
22.8050,0.783440009
22.8100,0.7283614772
22.8150,0.6752200056
22.8200,0.6241971108
22.8250,0.5753197798
22.8300,0.5288253009
22.8350,0.4846459812
22.8400,0.4430017972
22.8450,0.4037380803
22.8500,0.366743395
22.8550,0.3320765066
22.8600,0.2998939614
22.8650,0.2700069863
22.8700,0.2423595004
22.8750,0.216947483
22.8800,0.1932975999
22.8850,0.1715782681
22.8900,0.1519657122
22.8950,0.1339099424
22.9000,0.1171079054
22.9050,0.1016487287
22.9100,0.0872598991
22.9150,0.07357849947
22.9200,0.06055178184
22.9250,0.04832034671
22.9300,0.03675989104
22.9350,0.02591050374
22.9400,0.0157676486
22.9450,0.006296405347
22.9500,-0.002533732731
22.9550,-0.01069958426
22.9600,-0.01833523131
22.9650,-0.02544610545
22.9700,-0.03194733047
22.9750,-0.03807588728
22.9800,-0.04378605086
22.9850,-0.04919133806
22.9900,-0.05446189363
22.9950,-0.05962712333
23.0000,-0.06469027654
23.0050,-0.06969406456
23.0100,-0.07489952631
23.0150,-0.08026247621
23.0200,-0.08589932817
23.0250,-0.09180025893
23.0300,-0.09839954762
23.0350,-0.1053601023
23.0400,-0.1129748927
23.0450,-0.1209823821
23.0500,-0.1294121312
23.0550,-0.138391281
23.0600,-0.1480780691
23.0650,-0.1580674663
23.0700,-0.1684590751
23.0750,-0.1792058802
23.0800,-0.1903138128
23.0850,-0.201938944
23.0900,-0.2137449563
23.0950,-0.2256642096
23.1000,-0.2375545482
23.1050,-0.2493858226
23.1100,-0.2610356866
23.1150,-0.2725838696
23.1200,-0.2837137487
23.1250,-0.2945815941
23.1300,-0.3050854924
23.1350,-0.3151619166
23.1400,-0.3249064798
23.1450,-0.3342142855
23.1500,-0.3428862655
23.1550,-0.350940798
23.1600,-0.3585020626
23.1650,-0.3656257358
23.1700,-0.3723948233
23.1750,-0.3786159924
23.1800,-0.3843321638
23.1850,-0.3893832529
23.1900,-0.3938567723
23.1950,-0.3976507082
23.2000,-0.4006745798
23.2050,-0.4030065446
23.2100,-0.4044944104
23.2150,-0.4053624468
23.2200,-0.4053893523
23.2250,-0.4049018138
23.2300,-0.4037287058
23.2350,-0.4022547689
23.2400,-0.4003701937
23.2450,-0.3979928012
23.2500,-0.3952167238
23.2550,-0.3920425376
23.2600,-0.3884799318
23.2650,-0.3846415949
23.2700,-0.3803136674
23.2750,-0.3755968771
23.2800,-0.3707394511
23.2850,-0.3655277809
23.2900,-0.3601377951
23.2950,-0.3547198577
23.3000,-0.3493880066
23.3050,-0.3442674829
23.3100,-0.3392997604
23.3150,-0.3344299224
23.3200,-0.330029419
23.3250,-0.3258912918
23.3300,-0.3221329114
23.3350,-0.3187274572
23.3400,-0.3156481611
23.3450,-0.3131718183
23.3500,-0.3110712235
23.3550,-0.3094660884
23.3600,-0.3081674576
23.3650,-0.3075670663
23.3700,-0.3074984201
23.3750,-0.3077465891
23.3800,-0.308581605
23.3850,-0.309875728
23.3900,-0.3117180787
23.3950,-0.3141327694
23.4000,-0.3170210687
23.4050,-0.3202366311
23.4100,-0.324060946
23.4150,-0.328362844
23.4200,-0.3330748969
23.4250,-0.338358667
23.4300,-0.344239936
23.4350,-0.3505641331
23.4400,-0.357152611
23.4450,-0.3640727225
23.4500,-0.3713880292
23.4550,-0.3789781739
23.4600,-0.3867170553
23.4650,-0.3942604312
23.4700,-0.4014494
23.4750,-0.4083920873
23.4800,-0.4148327122
23.4850,-0.4212091914
23.4900,-0.4275015203
23.4950,-0.4338390213
23.5000,-0.4401661086
23.5050,-0.4464250516
23.5100,-0.4522624089
23.5150,-0.4572586484
23.5200,-0.4615381251
23.5250,-0.4646436272
23.5300,-0.4665680764
23.5350,-0.4669217066
23.5400,-0.4655740585
23.5450,-0.4625342671
23.5500,-0.4576521914
23.5550,-0.4507958655
23.5600,-0.4419899225
23.5650,-0.4311948307
23.5700,-0.4185995865
23.5750,-0.4040510946
23.5800,-0.3873776908
23.5850,-0.3689426799
23.5900,-0.3488439845
23.5950,-0.3267357896
23.6000,-0.3027231334
23.6050,-0.2770040393
23.6100,-0.2495846811
23.6150,-0.2206792765
23.6200,-0.1899661748
23.6250,-0.1578062808
23.6300,-0.1242687058
23.6350,-0.08938625533
23.6400,-0.05325536187
23.6450,-0.01576876108
23.6500,0.02280161369
23.6550,0.06234426163
23.6600,0.1027515074
23.6650,0.1437853938
23.6700,0.1854854832
23.6750,0.2273144406
23.6800,0.2692595841
23.6850,0.3109514079
23.6900,0.3523041965
23.6950,0.3930553595
23.7000,0.432874454
23.7050,0.4715154423
23.7100,0.5088209112
23.7150,0.5449482684
23.7200,0.5792668221
23.7250,0.6120344614
23.7300,0.6433820901
23.7350,0.6732184474
23.7400,0.7014452447
23.7450,0.7286104314
23.7500,0.7547538842
23.7550,0.7801824342
23.7600,0.8051928534
23.7650,0.8295214331
23.7700,0.853337685
23.7750,0.8768456385
23.7800,0.9002186587
23.7850,0.9236446974
23.7900,0.9471859736
23.7950,0.9712607969
23.8000,0.995938239
23.8050,1.021491758
23.8100,1.047685978
23.8150,1.074472526
23.8200,1.102027989
23.8250,1.130349772
23.8300,1.159310232
23.8350,1.189076191
23.8400,1.219502882
23.8450,1.250648887
23.8500,1.282764847
23.8550,1.315977567
23.8600,1.350392819
23.8650,1.386194853
23.8700,1.423559848
23.8750,1.46267887
23.8800,1.503319221
23.8850,1.545979701
23.8900,1.590904556
23.8950,1.637877633
23.9000,1.686909589
23.9050,1.738313939
23.9100,1.792019939
23.9150,1.848184933
23.9200,1.906668165
23.9250,1.9675141
23.9300,2.030650204
23.9350,2.0962057
23.9400,2.164052941
23.9450,2.234202174
23.9500,2.306647575
23.9550,2.381433102
23.9600,2.458585684
23.9650,2.538100586
23.9700,2.619920185
23.9750,2.704153614
23.9800,2.79071238
23.9850,2.879636344
23.9900,2.970841098
23.9950,3.064142275
24.0000,3.159671721
24.0050,3.257356044
24.0100,3.357409809
24.0150,3.459511508
24.0200,3.563601552
24.0250,3.66994333
24.0300,3.778286415
24.0350,3.888866419
24.0400,4.001708945
24.0450,4.116538705
24.0500,4.233505165
24.0550,4.352380858
24.0600,4.473057192
24.0650,4.595668442
24.0700,4.720350908
24.0750,4.846880943
24.0800,4.97529615
24.0850,5.105526251
24.0900,5.237788081
24.0950,5.371754955
24.1000,5.507477797
24.1050,5.644896456
24.1100,5.783732244
24.1150,5.924122884
24.1200,6.065686185
24.1250,6.208570049
24.1300,6.352650002
24.1350,6.497624925
24.1400,6.643671416
24.1450,6.790799304
24.1500,6.938883135
24.1550,7.087962549
24.1600,7.237973112
24.1650,7.388830167
24.1700,7.540763989
24.1750,7.693409778
24.1800,7.847085954
24.1850,8.001819721
24.1900,8.157547745
24.1950,8.314279073
24.2000,8.472314459
24.2050,8.631378498
24.2100,8.791305191
24.2150,8.952157477
24.2200,9.11395729
24.2250,9.276713307
24.2300,9.440459926
24.2350,9.60513027
24.2400,9.770904346
24.2450,9.937624166
24.2500,10.10564738
24.2550,10.27485707
24.2600,10.44519215
24.2650,10.61706621
24.2700,10.79023243
24.2750,10.96460886
24.2800,11.14040872
24.2850,11.31761469
24.2900,11.49616945
24.2950,11.67627388
24.3000,11.8576325
24.3050,12.04020348
24.3100,12.22383698
24.3150,12.40846889
24.3200,12.59434369
24.3250,12.78108169
24.3300,12.96866458
24.3350,13.15688394
24.3400,13.34568018
24.3450,13.53502403
24.3500,13.72493588
24.3550,13.91561967
24.3600,14.10682704
24.3650,14.29854166
24.3700,14.49095525
24.3750,14.68382447
24.3800,14.87711647
24.3850,15.07108673
24.3900,15.26569801
24.3950,15.46125831
24.4000,15.65781795
24.4050,15.85523452
24.4100,16.05396327
24.4150,16.25381879
24.4200,16.45520531
24.4250,16.65779496
24.4300,16.86172144
24.4350,17.067263
24.4400,17.27442468
24.4450,17.48333637
24.4500,17.69413273
24.4550,17.90691409
24.4600,18.12164797
24.4650,18.338578
24.4700,18.5573313
24.4750,18.77814251
24.4800,19.00092266
24.4850,19.22513531
24.4900,19.45068886
24.4950,19.67769153
24.5000,19.90591752
24.5050,20.13536388
24.5100,20.36616758
24.5150,20.59801606
24.5200,20.8309639
24.5250,21.06506974
24.5300,21.30038548
24.5350,21.53683672
24.5400,21.77465809
24.5450,22.01363094
24.5500,22.25376277
24.5550,22.4952706
24.5600,22.73789408
24.5650,22.98146909
24.5700,23.22610822
24.5750,23.47168616
24.5800,23.7178077
24.5850,23.96472373
24.5900,24.21222822
24.5950,24.46036208
24.6000,24.70905962
24.6050,24.95858603
24.6100,25.20892334
24.6150,25.45987819
24.6200,25.71120678
24.6250,25.96307389
24.6300,26.21549987
24.6350,26.46826093
24.6400,26.7214663
24.6450,26.97519906
24.6500,27.22950443
24.6550,27.48422288
24.6600,27.73943733
24.6650,27.9953569
24.6700,28.25164156
24.6750,28.50875724
24.6800,28.766806
24.6850,29.02576499
24.6900,29.28554626
24.6950,29.54618182
24.7000,29.80755447
24.7050,30.07020266
24.7100,30.33425569
24.7150,30.60012577
24.7200,30.86800359
24.7250,31.13846259
24.7300,31.41216265
24.7350,31.68980082
24.7400,31.97199738
24.7450,32.25954609
24.7500,32.55314038
24.7550,32.85408068
24.7600,33.16320072
24.7650,33.48182519
24.7700,33.81138669
24.7750,34.15323445
24.7800,34.5082174
24.7850,34.87844896
24.7900,35.26533514
24.7950,35.6702489
24.8000,36.09445693
24.8050,36.53910378
24.8100,37.00490259
24.8150,37.18494605
24.8200,37.38275988
24.8250,37.59768512
24.8300,37.82873444
24.8350,38.07464093
24.8400,38.33389801
24.8450,38.60479054
24.8500,38.88541834
24.8550,39.17371467
24.8600,39.46746441
24.8650,39.76432443
24.8700,40.06184506
24.8750,40.3574923
24.8800,40.64867188
24.8850,40.93275727
24.8900,41.20712344
24.8950,41.46918686
24.9000,41.71645116
24.9050,41.94655988
24.9100,42.15735691
24.9150,42.34695506
