type,name,time_units,begin_time,frequency,count,units
signal,"Noraxon MyoMotion-Segments-Forearm RT-Roll","s",0.0000,200,5108,"deg"

time,value
0.0000,-0.8375105845
0.0050,-0.8424336154
0.0100,-0.8473568005
0.0150,-0.8522801394
0.0200,-0.8561977277
0.0250,-0.8588344401
0.0300,-0.8599244718
0.0350,-0.8592204649
0.0400,-0.8565017282
0.0450,-0.8515808229
0.0500,-0.8443080443
0.0550,-0.8345747613
0.0600,-0.8223154324
0.0650,-0.8075068415
0.0700,-0.7901653992
0.0750,-0.7703446485
0.0800,-0.7481331671
0.0850,-0.7236522961
0.0900,-0.6970538352
0.0950,-0.6685181524
0.1000,-0.6382529681
0.1050,-0.606492392
0.1100,-0.5734952668
0.1150,-0.5395424078
0.1200,-0.5049337898
0.1250,-0.469986694
0.1300,-0.4350338763
0.1350,-0.4004201711
0.1400,-0.3664971788
0.1450,-0.3336169522
0.1500,-0.302125358
0.1550,-0.2634939665
0.1600,-0.2263866112
0.1650,-0.1911608401
0.1700,-0.158212015
0.1750,-0.1277119545
0.1800,-0.09999520072
0.1850,-0.07519122296
0.1900,-0.05343146367
0.1950,-0.03491277339
0.2000,-0.01966420986
0.2050,-0.007752345578
0.2100,0.0008059755725
0.2150,0.005932771841
0.2200,0.008062636078
0.2250,0.007139737581
0.2300,0.003532884553
0.2350,-0.002548216815
0.2400,-0.01076833341
0.2450,-0.02087982766
0.2500,-0.03243943279
0.2550,-0.04515601985
0.2600,-0.05867362183
0.2650,-0.07296983981
0.2700,-0.08723176399
0.2750,-0.1014296228
0.2800,-0.1152346243
0.2850,-0.1284590614
0.2900,-0.1408925105
0.2950,-0.1522773749
0.3000,-0.1624915521
0.3050,-0.1714751758
0.3100,-0.178960483
0.3150,-0.1848114002
0.3200,-0.1891511163
0.3250,-0.191876803
0.3300,-0.1928206515
0.3350,-0.1922928197
0.3400,-0.1901597927
0.3450,-0.1864729843
0.3500,-0.1812567879
0.3550,-0.174729865
0.3600,-0.1667131258
0.3650,-0.1575895895
0.3700,-0.1471466335
0.3750,-0.1358552509
0.3800,-0.1236695757
0.3850,-0.1107456707
0.3900,-0.09733582127
0.3950,-0.08358279846
0.4000,-0.06962936337
0.4050,-0.05552217636
0.4100,-0.04152367819
0.4150,-0.02794638949
0.4200,-0.0148303268
0.4250,-0.002222879961
0.4300,0.009713928185
0.4350,0.02070480169
0.4400,0.0309939763
0.4450,0.04032326257
0.4500,0.04879677671
0.4550,0.05635765464
0.4600,0.06298786468
0.4650,0.06885465744
0.4700,0.07396650634
0.4750,0.0783747343
0.4800,0.0820897823
0.4850,0.08531336488
0.4900,0.08816414859
0.4950,0.09067613481
0.5000,0.09291329887
0.5050,0.09506567025
0.5100,0.09722482957
0.5150,0.09932454883
0.5200,0.1014524924
0.5250,0.1037228805
0.5300,0.1061349629
0.5350,0.1085099635
0.5400,0.1110338366
0.5450,0.1137102748
0.5500,0.1164778391
0.5550,0.1192386805
0.5600,0.1220406339
0.5650,0.1250061348
0.5700,0.1278383404
0.5750,0.1306886026
0.5800,0.1336136294
0.5850,0.1363631452
0.5900,0.1388654757
0.5950,0.1412796517
0.6000,0.1434999822
0.6050,0.1454741162
0.6100,0.1470828796
0.6150,0.1482058633
0.6200,0.1490229986
0.6250,0.1491836927
0.6300,0.1487174605
0.6350,0.1477283945
0.6400,0.1461126848
0.6450,0.1438082064
0.6500,0.1408290721
0.6550,0.1372071725
0.6600,0.1329660209
0.6650,0.1281781454
0.6700,0.1227065237
0.6750,0.1166272176
0.6800,0.1098899248
0.6850,0.1025444933
0.6900,0.09465601868
0.6950,0.08659413015
0.7000,0.07824485344
0.7050,0.06975466938
0.7100,0.06128382877
0.7150,0.05319701203
0.7200,0.04551993854
0.7250,0.03833973932
0.7300,0.03165914864
0.7350,0.02563719543
0.7400,0.02004524061
0.7450,0.01510196735
0.7500,0.01068421803
0.7550,0.006800302618
0.7600,0.003325108573
0.7650,0.0004688130923
0.7700,-0.001983316121
0.7750,-0.003940265681
0.7800,-0.00525702184
0.7850,-0.00607683403
0.7900,-0.006411325074
0.7950,-0.006168778882
0.8000,-0.005234224309
0.8050,-0.003575724149
0.8100,-0.001221407511
0.8150,0.001951374421
0.8200,0.00591481849
0.8250,0.01060408463
0.8300,0.01599287857
0.8350,0.02206348405
0.8400,0.02867001037
0.8450,0.03587442044
0.8500,0.04342043427
0.8550,0.05135347087
0.8600,0.05951334719
0.8650,0.0679947226
0.8700,0.07668426555
0.8750,0.08553099556
0.8800,0.0945232785
0.8850,0.1039030376
0.8900,0.1137204043
0.8950,0.1239352701
0.9000,0.134844116
0.9050,0.1464766869
0.9100,0.1590357909
0.9150,0.1728243698
0.9200,0.1880512036
0.9250,0.2049363544
0.9300,0.223565823
0.9350,0.24429011
0.9400,0.2670689435
0.9450,0.2923240321
0.9500,0.3201422702
0.9550,0.3507049855
0.9600,0.3839927859
0.9650,0.4201263768
0.9700,0.4591359912
0.9750,0.5010406514
0.9800,0.5458612493
0.9850,0.5935833479
0.9900,0.644254944
0.9950,0.6975811564
1.0000,0.7537459155
1.0050,0.8125599015
1.0100,0.8739613488
1.0150,0.937831083
1.0200,1.004030311
1.0250,1.072273886
1.0300,1.142755307
1.0350,1.215157301
1.0400,1.289403315
1.0450,1.365208578
1.0500,1.442401307
1.0550,1.520757102
1.0600,1.600287003
1.0650,1.680684513
1.0700,1.761869568
1.0750,1.843608532
1.0800,1.92549421
1.0850,2.007567846
1.0900,2.089508647
1.0950,2.171260968
1.1000,2.252505496
1.1050,2.333355864
1.1100,2.413598161
1.1150,2.493291119
1.1200,2.572342334
1.1250,2.65083107
1.1300,2.728739789
1.1350,2.806319282
1.1400,2.883635949
1.1450,2.960434315
1.1500,3.037082648
1.1550,3.113578765
1.1600,3.190271436
1.1650,3.267401889
1.1700,3.345277796
1.1750,3.424030824
1.1800,3.503792377
1.1850,3.584752604
1.1900,3.666901311
1.1950,3.75067361
1.2000,3.83601064
1.2050,3.923234611
1.2100,4.01266309
1.2150,4.104474374
1.2200,4.198855418
1.2250,4.296145992
1.2300,4.396474078
1.2350,4.499968123
1.2400,4.606874376
1.2450,4.716969602
1.2500,4.830538033
1.2550,4.947507767
1.2600,5.067918152
1.2650,5.191827813
1.2700,5.319133276
1.2750,5.449967568
1.2800,5.584255782
1.2850,5.722201481
1.2900,5.863804415
1.2950,6.009126398
1.3000,6.158118994
1.3050,6.310642314
1.3100,6.466740953
1.3150,6.6260321
1.3200,6.788437127
1.3250,6.954041428
1.3300,7.122339995
1.3350,7.293418763
1.3400,7.467224624
1.3450,7.643707224
1.3500,7.822834547
1.3550,8.004419845
1.3600,8.18851333
1.3650,8.374945436
1.3700,8.563760869
1.3750,8.754913215
1.3800,8.948635612
1.3850,9.145012568
1.3900,9.344189769
1.3950,9.546279178
1.4000,9.75141746
1.4050,9.959606075
1.4100,10.17108854
1.4150,10.38576362
1.4200,10.60401374
1.4250,10.82585249
1.4300,11.05141821
1.4350,11.28078393
1.4400,11.51400549
1.4450,11.75156422
1.4500,11.99326644
1.4550,12.23936601
1.4600,12.48964728
1.4650,12.74409102
1.4700,13.00270957
1.4750,13.26554621
1.4800,13.53273147
1.4850,13.80409391
1.4900,14.08011285
1.4950,14.36033778
1.5000,14.64495009
1.5050,14.93400354
1.5100,15.22725204
1.5150,15.52455968
1.5200,15.8259174
1.5250,16.1311817
1.5300,16.44039038
1.5350,16.7534238
1.5400,17.07009803
1.5450,17.39043276
1.5500,17.71406799
1.5550,18.04107407
1.5600,18.37115856
1.5650,18.70402809
1.5700,19.03936876
1.5750,19.37703277
1.5800,19.71694626
1.5850,20.05872908
1.5900,20.40239155
1.5950,20.74783079
1.6000,21.09487185
1.6050,21.44362649
1.6100,21.79383881
1.6150,22.14549716
1.6200,22.49836604
1.6250,22.85250235
1.6300,23.20798812
1.6350,23.56482929
1.6400,23.92310691
1.6450,24.28276109
1.6500,24.64398157
1.6550,25.00694669
1.6600,25.37177055
1.6650,25.73846128
1.6700,26.10703856
1.6750,26.4775655
1.6800,26.84972936
1.6850,27.223375
1.6900,27.59856275
1.6950,27.97512978
1.7000,28.35324917
1.7050,28.73279533
1.7100,29.11380774
1.7150,29.49634075
1.7200,29.88040022
1.7250,30.26606571
1.7300,30.6533858
1.7350,31.04242696
1.7400,31.43326785
1.7450,31.82576484
1.7500,32.22020637
1.7550,32.6164177
1.7600,33.01445018
1.7650,33.41422869
1.7700,33.81593029
1.7750,34.21946286
1.7800,34.62493978
1.7850,35.03225255
1.7900,35.44112066
1.7950,35.85177814
1.8000,36.26433303
1.8050,36.67881172
1.8100,37.09538056
1.8150,37.51392597
1.8200,37.93427605
1.8250,38.35676773
1.8300,38.78099655
1.8350,39.20718763
1.8400,39.63548978
1.8450,40.06596035
1.8500,40.49888892
1.8550,40.93431363
1.8600,41.37225881
1.8650,41.81300742
1.8700,42.25677552
1.8750,42.703326
1.8800,43.15252338
1.8850,43.60434497
1.8900,44.0583183
1.8950,44.51466798
1.9000,44.97340491
1.9050,45.43463215
1.9100,45.8986055
1.9150,46.36587418
1.9200,46.83635936
1.9250,47.31026968
1.9300,47.7876147
1.9350,48.26844576
1.9400,48.75255425
1.9450,49.24044192
1.9500,49.73189219
1.9550,50.22728394
1.9600,50.72628013
1.9650,51.22922499
1.9700,51.7361813
1.9750,52.24734658
1.9800,52.76307916
1.9850,53.28339191
1.9900,53.8086347
1.9950,54.33912129
2.0000,54.87517865
2.0050,55.41709724
2.0100,55.96490246
2.0150,56.51878764
2.0200,57.07874853
2.0250,57.64491427
2.0300,58.21691355
2.0350,58.79515051
2.0400,59.379467
2.0450,59.96988471
2.0500,60.5665911
2.0550,61.16954036
2.0600,61.77881777
2.0650,62.39435707
2.0700,63.01605648
2.0750,63.64430801
2.0800,64.27889736
2.0850,64.92041555
2.0900,65.56868114
2.0950,66.22390599
2.1000,66.88595531
2.1050,67.55504729
2.1100,68.23128295
2.1150,68.91468435
2.1200,69.60523987
2.1250,70.30266523
2.1300,71.00722046
2.1350,71.71896216
2.1400,72.43744593
2.1450,73.16263136
2.1500,73.89420034
2.1550,74.63204975
2.1600,75.37631027
2.1650,76.1265768
2.1700,76.8827296
2.1750,77.64463813
2.1800,78.41193514
2.1850,79.18437405
2.1900,79.9619215
2.1950,80.74387458
2.2000,81.52987984
2.2050,82.31961409
2.2100,83.11273314
2.2150,83.90845282
2.2200,84.70678252
2.2250,85.50728147
2.2300,86.30954133
2.2350,87.11328956
2.2400,87.91806851
2.2450,88.72355204
2.2500,89.52943755
2.2550,90.33545378
2.2600,91.14129475
2.2650,91.94677061
2.2700,92.75167299
2.2750,93.55595866
2.2800,94.35948684
2.2850,95.16177344
2.2900,95.96243191
2.2950,96.76117026
2.3000,97.55759059
2.3050,98.35119725
2.3100,99.14209545
2.3150,99.92983387
2.3200,100.7138161
2.3250,101.4939238
2.3300,102.2700991
2.3350,103.0418119
2.3400,103.8090317
2.3450,104.5722163
2.3500,105.3307052
2.3550,106.0844874
2.3600,106.8332494
2.3650,107.5769994
2.3700,108.3160936
2.3750,109.0507033
2.3800,109.7808091
2.3850,110.5061379
2.3900,111.226734
2.3950,111.9422943
2.4000,112.6530514
2.4050,113.3586804
2.4100,114.0592156
2.4150,114.7544481
2.4200,115.4436828
2.4250,116.1267145
2.4300,116.8035132
2.4350,117.4735759
2.4400,118.1370711
2.4450,118.7934586
2.4500,119.4427654
2.4550,120.0846253
2.4600,120.7187791
2.4650,121.3457244
2.4700,121.9652186
2.4750,122.5771005
2.4800,123.1812492
2.4850,123.777444
2.4900,124.3655127
2.4950,124.9455922
2.5000,125.5177909
2.5050,126.0821372
2.5100,126.6388894
2.5150,127.1881669
2.5200,127.7298522
2.5250,128.2638301
2.5300,128.789992
2.5350,129.30836
2.5400,129.8191219
2.5450,130.3218064
2.5500,130.8163589
2.5550,131.30313
2.5600,131.7820259
2.5650,132.2535556
2.5700,132.7179953
2.5750,133.1755652
2.5800,133.6267425
2.5850,134.0723051
2.5900,134.5125868
2.5950,134.9477307
2.6000,135.3776742
2.6050,135.802456
2.6100,136.2215955
2.6150,136.6355788
2.6200,137.044787
2.6250,137.449022
2.6300,137.8483391
2.6350,138.242859
2.6400,138.6323451
2.6450,139.0167396
2.6500,139.396192
2.6550,139.7710799
2.6600,140.1416687
2.6650,140.5082427
2.6700,140.8709189
2.6750,141.2296935
2.6800,141.5845054
2.6850,141.9355332
2.6900,142.2832223
2.6950,142.6275012
2.7000,142.9685142
2.7050,143.3065369
2.7100,143.6418004
2.7150,143.9750012
2.7200,144.3066409
2.7250,144.6367778
2.7300,144.9655765
2.7350,145.2930792
2.7400,145.6189998
2.7450,145.9434797
2.7500,146.2664774
2.7550,146.5881276
2.7600,146.9081805
2.7650,147.2261317
2.7700,147.5419123
2.7750,147.855498
2.7800,148.1671355
2.7850,148.4770154
2.7900,148.7852115
2.7950,149.091968
2.8000,149.3975524
2.8050,149.7022885
2.8100,150.0058266
2.8150,150.308497
2.8200,150.6102133
2.8250,150.9113893
2.8300,151.2120238
2.8350,151.5123108
2.8400,151.8121437
2.8450,152.1115087
2.8500,152.4108292
2.8550,152.7098239
2.8600,153.0090038
2.8650,153.3079118
2.8700,153.6062662
2.8750,153.9038397
2.8800,154.2002061
2.8850,154.4952536
2.8900,154.7888532
2.8950,155.0809372
2.9000,155.3713819
2.9050,155.6602776
2.9100,155.9477394
2.9150,156.2336096
2.9200,156.5180273
2.9250,156.8008306
2.9300,157.0821043
2.9350,157.3618701
2.9400,157.6401112
2.9450,157.9166523
2.9500,158.1914626
2.9550,158.4639785
2.9600,158.7339978
2.9650,159.0012748
2.9700,159.2656484
2.9750,159.5270316
2.9800,159.7852574
2.9850,160.0403122
2.9900,160.2920478
2.9950,160.5402756
3.0000,160.7852053
3.0050,161.0270642
3.0100,161.2656448
3.0150,161.500636
3.0200,161.7323763
3.0250,161.9604388
3.0300,162.1848874
3.0350,162.4058429
3.0400,162.623419
3.0450,162.8377151
3.0500,163.0486177
3.0550,163.2564283
3.0600,163.4612859
3.0650,163.6631371
3.0700,163.862049
3.0750,164.0580716
3.0800,164.2510486
3.0850,164.4410642
3.0900,164.6281657
3.0950,164.8120108
3.1000,164.9925808
3.1050,165.1699564
3.1100,165.344453
3.1150,165.5162383
3.1200,165.6854574
3.1250,165.8521777
3.1300,166.0166842
3.1350,166.1791436
3.1400,166.3394506
3.1450,166.4978175
3.1500,166.6544207
3.1550,166.8092015
3.1600,166.9620715
3.1650,167.1132626
3.1700,167.2623644
3.1750,167.4093674
3.1800,167.5540197
3.1850,167.6959078
3.1900,167.8348775
3.1950,167.9706975
3.2000,168.1034919
3.2050,168.2327712
3.2100,168.3585014
3.2150,168.4805613
3.2200,168.5985175
3.2250,168.7124894
3.2300,168.8224595
3.2350,168.9283424
3.2400,169.0301633
3.2450,169.1280398
3.2500,169.2217755
3.2550,169.3118082
3.2600,169.3984724
3.2650,169.4816403
3.2700,169.5616514
3.2750,169.6385758
3.2800,169.7129199
3.2850,169.7850268
3.2900,169.8549526
3.2950,169.92299
3.3000,169.9890165
3.3050,170.053001
3.3100,170.1153029
3.3150,170.1759449
3.3200,170.2349345
3.3250,170.2930111
3.3300,170.3502219
3.3350,170.4068693
3.3400,170.4632574
3.3450,170.519461
3.3500,170.5756716
3.3550,170.6319283
3.3600,170.6884808
3.3650,170.7452787
3.3700,170.8023526
3.3750,170.8599811
3.3800,170.9181192
3.3850,170.9770124
3.3900,171.0367261
3.3950,171.0974339
3.4000,171.1590997
3.4050,171.221598
3.4100,171.2851589
3.4150,171.3495066
3.4200,171.4152101
3.4250,171.4820486
3.4300,171.5500221
3.4350,171.6192786
3.4400,171.6900066
3.4450,171.7621507
3.4500,171.8354865
3.4550,171.9103546
3.4600,171.9866263
3.4650,172.0643508
3.4700,172.1435557
3.4750,172.2237545
3.4800,172.3048315
3.4850,172.386434
3.4900,172.46836
3.4950,172.5502829
3.5000,172.6318192
3.5050,172.712797
3.5100,172.7929185
3.5150,172.8717355
3.5200,172.9489921
3.5250,173.0245611
3.5300,173.0981801
3.5350,173.1695891
3.5400,173.2387796
3.5450,173.3056673
3.5500,173.370338
3.5550,173.432726
3.5600,173.4928792
3.5650,173.5512349
3.5700,173.6075674
3.5750,173.6620354
3.5800,173.7148069
3.5850,173.7659354
3.5900,173.8155374
3.5950,173.8640434
3.6000,173.911566
3.6050,173.9582196
3.6100,174.0040862
3.6150,174.0491909
3.6200,174.0935305
3.6250,174.1368046
3.6300,174.1792833
3.6350,174.2205555
3.6400,174.2606318
3.6450,174.2997004
3.6500,174.3379339
3.6550,174.3754432
3.6600,174.412102
3.6650,174.4480695
3.6700,174.4836151
3.6750,174.5184292
3.6800,174.5527734
3.6850,174.5865701
3.6900,174.6198407
3.6950,174.6527219
3.7000,174.6853524
3.7050,174.7177882
3.7100,174.7500184
3.7150,174.7823731
3.7200,174.8143818
3.7250,174.8462146
3.7300,174.8778879
3.7350,174.9090468
3.7400,174.939878
3.7450,174.9703327
3.7500,175.0004277
3.7550,175.0298964
3.7600,175.0588382
3.7650,175.086717
3.7700,175.1140238
3.7750,175.1405516
3.7800,175.1664982
3.7850,175.1918036
3.7900,175.2163538
3.7950,175.2400529
3.8000,175.2626844
3.8050,175.2842134
3.8100,175.3046414
3.8150,175.3238286
3.8200,175.3417673
3.8250,175.3583131
3.8300,175.3732996
3.8350,175.3869047
3.8400,175.3989941
3.8450,175.4094895
3.8500,175.4182399
3.8550,175.4253539
3.8600,175.430635
3.8650,175.4338748
3.8700,175.4352256
3.8750,175.4346725
3.8800,175.4319766
3.8850,175.4272041
3.8900,175.4202397
3.8950,175.4109684
3.9000,175.3992631
3.9050,175.3852272
3.9100,175.3688501
3.9150,175.3501495
3.9200,175.329186
3.9250,175.30595
3.9300,175.2804525
3.9350,175.2528918
3.9400,175.2231126
3.9450,175.1910033
3.9500,175.1565784
3.9550,175.1198496
3.9600,175.0807421
3.9650,175.0394588
3.9700,174.9959217
3.9750,174.9503304
3.9800,174.9025531
3.9850,174.8526939
3.9900,174.8007917
3.9950,174.7468252
4.0000,174.6908458
4.0050,174.6327835
4.0100,174.5726238
4.0150,174.5102945
4.0200,174.4459526
4.0250,174.3795055
4.0300,174.3109771
4.0350,174.2405253
4.0400,174.1679579
4.0450,174.0935205
4.0500,174.0169824
4.0550,173.9385308
4.0600,173.8582629
4.0650,173.7764905
4.0700,173.6928153
4.0750,173.607697
4.0800,173.5208811
4.0850,173.4325955
4.0900,173.3427154
4.0950,173.2515164
4.1000,173.1588238
4.1050,173.0647476
4.1100,172.9690171
4.1150,172.8718391
4.1200,172.7733081
4.1250,172.6732587
4.1300,172.5717772
4.1350,172.4686334
4.1400,172.3635674
4.1450,172.2567075
4.1500,172.1482349
4.1550,172.0377525
4.1600,171.9254566
4.1650,171.8112701
4.1700,171.6952022
4.1750,171.5771682
4.1800,171.4574438
4.1850,171.3357892
4.1900,171.2123245
4.1950,171.0871085
4.2000,170.9604666
4.2050,170.8322874
4.2100,170.702726
4.2150,170.5716568
4.2200,170.4390373
4.2250,170.3048873
4.2300,170.1691977
4.2350,170.0319729
4.2400,169.8931188
4.2450,169.7526967
4.2500,169.6104635
4.2550,169.466274
4.2600,169.3203971
4.2650,169.1725895
4.2700,169.0228283
4.2750,168.8710122
4.2800,168.7172141
4.2850,168.5611566
4.2900,168.4028845
4.2950,168.2422509
4.3000,168.079192
4.3050,167.9139012
4.3100,167.7464043
4.3150,167.5767716
4.3200,167.4049194
4.3250,167.2311232
4.3300,167.0553173
4.3350,166.8776135
4.3400,166.6981547
4.3450,166.516755
4.3500,166.333518
4.3550,166.148119
4.3600,165.9601897
4.3650,165.7695406
4.3700,165.5763155
4.3750,165.3803683
4.3800,165.1817718
4.3850,164.9807218
4.3900,164.7774112
4.3950,164.5718256
4.4000,164.3641926
4.4050,164.1543274
4.4100,163.942223
4.4150,163.7276481
4.4200,163.5102964
4.4250,163.2902196
4.4300,163.0675925
4.4350,162.8422903
4.4400,162.6145639
4.4450,162.3842972
4.4500,162.1514521
4.4550,161.9164608
4.4600,161.6793062
4.4650,161.4399965
4.4700,161.1986045
4.4750,160.9552746
4.4800,160.7096722
4.4850,160.4619937
4.4900,160.2121985
4.4950,159.9601139
4.5000,159.7055985
4.5050,159.4486387
4.5100,159.1888015
4.5150,158.9262489
4.5200,158.6610338
4.5250,158.3933301
4.5300,158.1231067
4.5350,157.850328
4.5400,157.5750695
4.5450,157.2968179
4.5500,157.0157392
4.5550,156.7314714
4.5600,156.4441038
4.5650,156.1534484
4.5700,155.8594166
4.5750,155.5619089
4.5800,155.2604165
4.5850,154.9549275
4.5900,154.645648
4.5950,154.3326463
4.6000,154.0161114
4.6050,153.6959074
4.6100,153.3721392
4.6150,153.0452476
4.6200,152.7153637
4.6250,152.38262
4.6300,152.0471551
4.6350,151.7084781
4.6400,151.3665014
4.6450,151.0211981
4.6500,150.672617
4.6550,150.3208243
4.6600,149.9663196
4.6650,149.609378
4.6700,149.2503391
4.6750,148.8893156
4.6800,148.5268861
4.6850,148.1628115
4.6900,147.7973954
4.6950,147.4303836
4.7000,147.0618667
4.7050,146.6920958
4.7100,146.3213519
4.7150,145.949924
4.7200,145.5781663
4.7250,145.2059594
4.7300,144.8329757
4.7350,144.4599297
4.7400,144.0867428
4.7450,143.7135964
4.7500,143.3406831
4.7550,142.9677042
4.7600,142.5944435
4.7650,142.2208484
4.7700,141.8462958
4.7750,141.4701124
4.7800,141.0919848
4.7850,140.7115122
4.7900,140.3283522
4.7950,139.9419555
4.8000,139.5521488
4.8050,139.1588861
4.8100,138.762069
4.8150,138.3617813
4.8200,137.957845
4.8250,137.5500553
4.8300,137.1382058
4.8350,136.7222138
4.8400,136.3015496
4.8450,135.8765915
4.8500,135.4471626
4.8550,135.0136895
4.8600,134.5758001
4.8650,134.1337014
4.8700,133.6870743
4.8750,133.2360352
4.8800,132.7810693
4.8850,132.3226867
4.8900,131.8608817
4.8950,131.3955684
4.9000,130.9268874
4.9050,130.455077
4.9100,129.9799398
4.9150,129.5004597
4.9200,129.0165192
4.9250,128.5275197
4.9300,128.0335702
4.9350,127.5350728
4.9400,127.0317448
4.9450,126.5235896
4.9500,126.0108897
4.9550,125.4938304
4.9600,124.9723489
4.9650,124.4467578
4.9700,123.9168233
4.9750,123.3828223
4.9800,122.843895
4.9850,122.3002661
4.9900,121.7516465
4.9950,121.1980284
5.0000,120.6394469
5.0050,120.0760948
5.0100,119.5077435
5.0150,118.9343668
5.0200,118.3561512
5.0250,117.7732247
5.0300,117.1857584
5.0350,116.5933933
5.0400,115.9960299
5.0450,115.3934564
5.0500,114.7852399
5.0550,114.1713062
5.0600,113.5515354
5.0650,112.9263357
5.0700,112.2960434
5.0750,111.6606158
5.0800,111.019824
5.0850,110.3736983
5.0900,109.7222274
5.0950,109.0656864
5.1000,108.4043007
5.1050,107.7378353
5.1100,107.0672476
5.1150,106.3921746
5.1200,105.7132651
5.1250,105.0306791
5.1300,104.344605
5.1350,103.6552021
5.1400,102.9630633
5.1450,102.2685266
5.1500,101.5711864
5.1550,100.8712638
5.1600,100.1689795
5.1650,99.46472729
5.1700,98.75906435
5.1750,98.05214796
5.1800,97.3443536
5.1850,96.635424
5.1900,95.92533629
5.1950,95.21474703
5.2000,94.50353477
5.2050,93.79226876
5.2100,93.0811764
5.2150,92.37048391
5.2200,91.66031155
5.2250,90.95074293
5.2300,90.24116448
5.2350,89.53194458
5.2400,88.82339023
5.2450,88.1160618
5.2500,87.409857
5.2550,86.70536121
5.2600,86.0023477
5.2650,85.30161377
5.2700,84.60337816
5.2750,83.90796795
5.2800,83.2154503
5.2850,82.52607585
5.2900,81.84009973
5.2950,81.15753139
5.3000,80.47856537
5.3050,79.80312226
5.3100,79.13163337
5.3150,78.46396983
5.3200,77.80021791
5.3250,77.1405696
5.3300,76.48546669
5.3350,75.83493721
5.3400,75.18935918
5.3450,74.5481645
5.3500,73.91119727
5.3550,73.27826637
5.3600,72.64931046
5.3650,72.02383434
5.3700,71.40205142
5.3750,70.78367547
5.3800,70.1690438
5.3850,69.55794882
5.3900,68.95007906
5.3950,68.3457173
5.4000,67.74407327
5.4050,67.14568485
5.4100,66.55033204
5.4150,65.95827769
5.4200,65.36913354
5.4250,64.78327213
5.4300,64.20084886
5.4350,63.62174688
5.4400,63.04589947
5.4450,62.47288231
5.4500,61.90330433
5.4550,61.33708323
5.4600,60.77407279
5.4650,60.21461678
5.4700,59.65865701
5.4750,59.10669812
5.4800,58.55895422
5.4850,58.01551254
5.4900,57.47672766
5.4950,56.94249219
5.5000,56.41248472
5.5050,55.88654274
5.5100,55.36472112
5.5150,54.84723953
5.5200,54.3336018
5.5250,53.82404199
5.5300,53.3191268
5.5350,52.8188908
5.5400,52.32377066
5.5450,51.83358933
5.5500,51.34866012
5.5550,50.86848431
5.5600,50.39341443
5.5650,49.92314987
5.5700,49.4575679
5.5750,48.99696169
5.5800,48.54172857
5.5850,48.09162903
5.5900,47.64630546
5.5950,47.20593329
5.6000,46.7703465
5.6050,46.33933942
5.6100,45.91259541
5.6150,45.49059714
5.6200,45.0732991
5.6250,44.66057876
5.6300,44.25216013
5.6350,43.84770394
5.6400,43.44682068
5.6450,43.04957903
5.6500,42.65595791
5.6550,42.26625339
5.6600,41.87997307
5.6650,41.49722993
5.6700,41.11800691
5.6750,40.74241026
5.6800,40.37019507
5.6850,40.00140476
5.6900,39.63617632
5.6950,39.2748755
5.7000,38.91760534
5.7050,38.56422061
5.7100,38.21472228
5.7150,37.86921431
5.7200,37.52764955
5.7250,37.18996402
5.7300,36.85571323
5.7350,36.52471302
5.7400,36.19706656
5.7450,35.87261452
5.7500,35.55135616
5.7550,35.23328069
5.7600,34.91867904
5.7650,34.60742961
5.7700,34.29951389
5.7750,33.99487028
5.7800,33.69306007
5.7850,33.39421296
5.7900,33.09801465
5.7950,32.80464999
5.8000,32.51435486
5.8050,32.2267857
5.8100,31.94202922
5.8150,31.66001425
5.8200,31.38101339
5.8250,31.10493043
5.8300,30.8316663
5.8350,30.56121884
5.8400,30.29333378
5.8450,30.02786378
5.8500,29.76482014
5.8550,29.50415021
5.8600,29.24581388
5.8650,28.98967356
5.8700,28.73569853
5.8750,28.48385992
5.8800,28.23390995
5.8850,27.98594658
5.8900,27.74003097
5.8950,27.4962147
5.9000,27.25444245
5.9050,27.01494721
5.9100,26.77760444
5.9150,26.54218283
5.9200,26.30851525
5.9250,26.07656083
5.9300,25.84645749
5.9350,25.61838331
5.9400,25.39218754
5.9450,25.16778833
5.9500,24.94535196
5.9550,24.72456094
5.9600,24.50562527
5.9650,24.28845536
5.9700,24.07314919
5.9750,23.85975628
5.9800,23.64818771
5.9850,23.43830429
5.9900,23.23026164
5.9950,23.02371784
6.0000,22.81873363
6.0050,22.61529828
6.0100,22.41353249
6.0150,22.21339576
6.0200,22.01488514
6.0250,21.81801275
6.0300,21.62299659
6.0350,21.42994139
6.0400,21.23866596
6.0450,21.04951726
6.0500,20.86209004
6.0550,20.67640687
6.0600,20.49256767
6.0650,20.31089342
6.0700,20.13131377
6.0750,19.95411439
6.0800,19.77945721
6.0850,19.60737727
6.0900,19.43793541
6.0950,19.27115126
6.1000,19.1073233
6.1050,18.94637061
6.1100,18.78842965
6.1150,18.6334145
6.1200,18.48114336
6.1250,18.33152532
6.1300,18.18456197
6.1350,18.04023588
6.1400,17.89872371
6.1450,17.7598197
6.1500,17.62330121
6.1550,17.48957143
6.1600,17.35826846
6.1650,17.22948836
6.1700,17.10341014
6.1750,16.9796531
6.1800,16.85857977
6.1850,16.73972158
6.1900,16.62334274
6.1950,16.50920512
6.2000,16.39739236
6.2050,16.28774046
6.2100,16.18073455
6.2150,16.07635012
6.2200,15.97443375
6.2250,15.8751033
6.2300,15.77804801
6.2350,15.68312622
6.2400,15.59045492
6.2450,15.50011315
6.2500,15.41171042
6.2550,15.32540938
6.2600,15.24086455
6.2650,15.15795576
6.2700,15.07628698
6.2750,14.99579611
6.2800,14.91639672
6.2850,14.83807561
6.2900,14.7606254
6.2950,14.6840905
6.3000,14.6082425
6.3050,14.53316674
6.3100,14.4586495
6.3150,14.3845826
6.3200,14.31095496
6.3250,14.23760632
6.3300,14.16427261
6.3350,14.09102585
6.3400,14.01760433
6.3450,13.94365294
6.3500,13.869224
6.3550,13.79428207
6.3600,13.7186799
6.3650,13.64189333
6.3700,13.56414135
6.3750,13.48515241
6.3800,13.40476878
6.3850,13.32275748
6.3900,13.2391713
6.3950,13.15390377
6.4000,13.06687134
6.4050,12.97823209
6.4100,12.88800502
6.4150,12.7961926
6.4200,12.70287045
6.4250,12.60812371
6.4300,12.51187813
6.4350,12.41441384
6.4400,12.31557123
6.4450,12.2155433
6.4500,12.11450899
6.4550,12.01227019
6.4600,11.90923403
6.4650,11.80551125
6.4700,11.70090644
6.4750,11.59581798
6.4800,11.48998617
6.4850,11.38379411
6.4900,11.2771422
6.4950,11.17032255
6.5000,11.06316721
6.5050,10.95597828
6.5100,10.84876133
6.5150,10.74151972
6.5200,10.63467755
6.5250,10.52813422
6.5300,10.42194319
6.5350,10.3162163
6.5400,10.2111828
6.5450,10.10676671
6.5500,10.00334264
6.5550,9.900782865
6.5600,9.799443239
6.5650,9.699412215
6.5700,9.60086086
6.5750,9.50398944
6.5800,9.409023089
6.5850,9.31594134
6.5900,9.224843316
6.5950,9.135511324
6.6000,9.048002768
6.6050,8.962242406
6.6100,8.878308195
6.6150,8.796217136
6.6200,8.71605222
6.6250,8.637622777
6.6300,8.561203132
6.6350,8.486597409
6.6400,8.413883348
6.6450,8.343105094
6.6500,8.274470602
6.6550,8.207994825
6.6600,8.143632347
6.6650,8.081620266
6.6700,8.022032392
6.6750,7.9647591
6.6800,7.91002141
6.6850,7.858068472
6.6900,7.808701738
6.6950,7.762148558
6.7000,7.718301352
6.7050,7.67703771
6.7100,7.638295558
6.7150,7.601981404
6.7200,7.568117705
6.7250,7.536475421
6.7300,7.506893662
6.7350,7.478978875
6.7400,7.452491413
6.7450,7.427358167
6.7500,7.403180414
6.7550,7.379706611
6.7600,7.356427327
6.7650,7.332895212
6.7700,7.309010974
6.7750,7.284354837
6.7800,7.25857409
6.7850,7.23144995
6.7900,7.20277272
6.7950,7.172272821
6.8000,7.140031242
6.8050,7.10584733
6.8100,7.069437791
6.8150,7.030825737
6.8200,6.989795076
6.8250,6.946423984
6.8300,6.90082525
6.8350,6.852902104
6.8400,6.802708744
6.8450,6.750522906
6.8500,6.696235309
6.8550,6.640100925
6.8600,6.582325989
6.8650,6.52295525
6.8700,6.46240773
6.8750,6.400579015
6.8800,6.337599827
6.8850,6.273689712
6.8900,6.209052725
6.8950,6.144173131
6.9000,6.079242625
6.9050,6.014610614
6.9100,5.950344015
6.9150,5.886739831
6.9200,5.823962197
6.9250,5.762346838
6.9300,5.701968921
6.9350,5.642882895
6.9400,5.585480753
6.9450,5.529911231
6.9500,5.47615929
6.9550,5.424228547
6.9600,5.374381835
6.9650,5.326727444
6.9700,5.281217035
6.9750,5.238204804
6.9800,5.197686563
6.9850,5.15961279
6.9900,5.12415814
6.9950,5.09117625
7.0000,5.060725088
7.0050,5.032881196
7.0100,5.007457328
7.0150,4.984778452
7.0200,4.964512773
7.0250,4.946757069
7.0300,4.931512431
7.0350,4.918518559
7.0400,4.907803163
7.0450,4.899101659
7.0500,4.892379817
7.0550,4.887539439
7.0600,4.884521834
7.0650,4.883013338
7.0700,4.883072229
7.0750,4.884492624
7.0800,4.887249192
7.0850,4.891103201
7.0900,4.895776332
7.0950,4.900984978
7.1000,4.906566839
7.1050,4.912283398
7.1100,4.918179468
7.1150,4.924120995
7.1200,4.930023857
7.1250,4.935799818
7.1300,4.941627733
7.1350,4.947642155
7.1400,4.953650378
7.1450,4.959641503
7.1500,4.965773147
7.1550,4.972180784
7.1600,4.978953645
7.1650,4.986331738
7.1700,4.994121444
7.1750,5.00279945
7.1800,5.012378404
7.1850,5.023182102
7.1900,5.035430342
7.1950,5.049340417
7.2000,5.065123425
7.2050,5.082937459
7.2100,5.103313821
7.2150,5.126405772
7.2200,5.152667579
7.2250,5.182166243
7.2300,5.215051157
7.2350,5.251594531
7.2400,5.291883742
7.2450,5.336007601
7.2500,5.384065778
7.2550,5.436286207
7.2600,5.492590734
7.2650,5.553127441
7.2700,5.617898017
7.2750,5.687045507
7.2800,5.760410929
7.2850,5.837974149
7.2900,5.919738783
7.2950,6.005714417
7.3000,6.09579213
7.3050,6.189915267
7.3100,6.288165987
7.3150,6.390098551
7.3200,6.495912151
7.3250,6.605320716
7.3300,6.718237716
7.3350,6.834924636
7.3400,6.955237625
7.3450,7.079072246
7.3500,7.2064706
7.3550,7.337397422
7.3600,7.471819931
7.3650,7.609878248
7.3700,7.751433365
7.3750,7.896220125
7.3800,8.044237709
7.3850,8.19550853
7.3900,8.3501722
7.3950,8.508129631
7.4000,8.669459033
7.4050,8.834131655
7.4100,9.001940856
7.4150,9.173031687
7.4200,9.347524536
7.4250,9.525430026
7.4300,9.706581517
7.4350,9.890950624
7.4400,10.07865077
7.4450,10.26969795
7.4500,10.46421931
7.4550,10.66219864
7.4600,10.86386501
7.4650,11.06920416
7.4700,11.27859402
7.4750,11.49194775
7.4800,11.70940256
7.4850,11.93109053
7.4900,12.15696076
7.4950,12.38710891
7.5000,12.62144438
7.5050,12.85986998
7.5100,13.10210073
7.5150,13.34800994
7.5200,13.59726562
7.5250,13.84965724
7.5300,14.1051679
7.5350,14.36384227
7.5400,14.62543621
7.5450,14.88983846
7.5500,15.1571794
7.5550,15.42709216
7.5600,15.69957424
7.5650,15.9744251
7.5700,16.25146904
7.5750,16.53036281
7.5800,16.81129295
7.5850,17.09404283
7.5900,17.37864549
7.5950,17.66490815
7.6000,17.95270041
7.6050,18.24209481
7.6100,18.5329173
7.6150,18.82542294
7.6200,19.11933285
7.6250,19.41476188
7.6300,19.71126426
7.6350,20.00877633
7.6400,20.30697863
7.6450,20.60585121
7.6500,20.90528343
7.6550,21.20506865
7.6600,21.50503923
7.6650,21.80515431
7.6700,22.10537923
7.6750,22.40567879
7.6800,22.70626717
7.6850,23.00702335
7.6900,23.30776283
7.6950,23.60871768
7.7000,23.90970685
7.7050,24.21100293
7.7100,24.51283555
7.7150,24.81511172
7.7200,25.11785035
7.7250,25.42139396
7.7300,25.72576149
7.7350,26.03114123
7.7400,26.33780486
7.7450,26.64565818
7.7500,26.95470375
7.7550,27.26480259
7.7600,27.57560283
7.7650,27.88739713
7.7700,28.19983981
7.7750,28.51296598
7.7800,28.82678699
7.7850,29.14100889
7.7900,29.4557677
7.7950,29.77066634
7.8000,30.08600762
7.8050,30.40154602
7.8100,30.71731316
7.8150,31.03330726
7.8200,31.34956979
7.8250,31.66653369
7.8300,31.98385122
7.8350,32.30143225
7.8400,32.61934049
7.8450,32.93772763
7.8500,33.25659895
7.8550,33.57616473
7.8600,33.89612947
7.8650,34.21650463
7.8700,34.53755867
7.8750,34.85917048
7.8800,35.18143494
7.8850,35.50421385
7.8900,35.82763892
7.8950,36.15170934
7.9000,36.47644528
7.9050,36.80173221
7.9100,37.12759263
7.9150,37.45386837
7.9200,37.78074009
7.9250,38.1079698
7.9300,38.4357661
7.9350,38.76391116
7.9400,39.09269153
7.9450,39.4221702
7.9500,39.75251327
7.9550,40.08375904
7.9600,40.41586075
7.9650,40.74912919
7.9700,41.08327795
7.9750,41.41885906
7.9800,41.75554196
7.9850,42.09355387
7.9900,42.43298516
7.9950,42.7740121
8.0000,43.11680567
8.0050,43.46135152
8.0100,43.80754294
8.0150,44.1555995
8.0200,44.50562473
8.0250,44.85740749
8.0300,45.21112729
8.0350,45.56689665
8.0400,45.92470862
8.0450,46.28492035
8.0500,46.64749358
8.0550,47.01277823
8.0600,47.38096738
8.0650,47.75184437
8.0700,48.12559793
8.0750,48.50217394
8.0800,48.88160413
8.0850,49.26392172
8.0900,49.64879159
8.0950,50.03659127
8.1000,50.42704317
8.1050,50.82012219
8.1100,51.21596349
8.1150,51.61455874
8.1200,52.01544855
8.1250,52.41847941
8.1300,52.82415238
8.1350,53.2320779
8.1400,53.64252412
8.1450,54.05530664
8.1500,54.4702517
8.1550,54.88741058
8.1600,55.3071415
8.1650,55.72934625
8.1700,56.15395013
8.1750,56.58119604
8.1800,57.01070394
8.1850,57.44284364
8.1900,57.87719206
8.1950,58.31399783
8.2000,58.75336573
8.2050,59.19538535
8.2100,59.6400529
8.2150,60.08725668
8.2200,60.53691961
8.2250,60.98931988
8.2300,61.44450062
8.2350,61.90258335
8.2400,62.36372184
8.2450,62.8278325
8.2500,63.2948103
8.2550,63.76486459
8.2600,64.23813432
8.2650,64.7143824
8.2700,65.19382856
8.2750,65.67622566
8.2800,66.16208185
8.2850,66.65134032
8.2900,67.14419499
8.2950,67.6409728
8.3000,68.14151414
8.3050,68.64616952
8.3100,69.1546386
8.3150,69.66700599
8.3200,70.18329004
8.3250,70.70326433
8.3300,71.2269121
8.3350,71.75428543
8.3400,72.28480831
8.3450,72.81861638
8.3500,73.35594374
8.3550,73.89669494
8.3600,74.44083932
8.3650,74.98830104
8.3700,75.53887891
8.3750,76.09237564
8.3800,76.64886314
8.3850,77.20814062
8.3900,77.76995716
8.3950,78.33432387
8.4000,78.90107744
8.4050,79.47006877
8.4100,80.0409027
8.4150,80.61342343
8.4200,81.18786401
8.4250,81.76400734
8.4300,82.3412332
8.4350,82.92016001
8.4400,83.50068993
8.4450,84.08271535
8.4500,84.6662639
8.4550,85.25096896
8.4600,85.83666968
8.4650,86.42331861
8.4700,87.01091297
8.4750,87.59941637
8.4800,88.18880185
8.4850,88.77875852
8.4900,89.36936519
8.4950,89.9604246
8.5000,90.5520063
8.5050,91.1441121
8.5100,91.73649225
8.5150,92.32935643
8.5200,92.92232343
8.5250,93.51503881
8.5300,94.10740596
8.5350,94.69973337
8.5400,95.29155721
8.5450,95.88300805
8.5500,96.47387257
8.5550,97.06393677
8.5600,97.65327612
8.5650,98.24200474
8.5700,98.82967947
8.5750,99.41638692
8.5800,100.0020425
8.5850,100.5865406
8.5900,101.1698413
8.5950,101.7517213
8.6000,102.3320918
8.6050,102.9113387
8.6100,103.4891725
8.6150,104.0652557
8.6200,104.6397741
8.6250,105.2130558
8.6300,105.7849652
8.6350,106.355517
8.6400,106.9253237
8.6450,107.493728
8.6500,108.0612333
8.6550,108.627549
8.6600,109.1922868
8.6650,109.7556922
8.6700,110.3182908
8.6750,110.8800207
8.6800,111.4404794
8.6850,111.9999732
8.6900,112.5581836
8.6950,113.1147191
8.7000,113.6696537
8.7050,114.2229205
8.7100,114.7745283
8.7150,115.3242301
8.7200,115.8719131
8.7250,116.4170435
8.7300,116.9597571
8.7350,117.4999323
8.7400,118.0371204
8.7450,118.5711825
8.7500,119.101957
8.7550,119.6292614
8.7600,120.153246
8.7650,120.6740043
8.7700,121.1912329
8.7750,121.7053547
8.7800,122.2167919
8.7850,122.7252544
8.7900,123.2310909
8.7950,123.7337406
8.8000,124.2332416
8.8050,124.7295667
8.8100,125.2227658
8.8150,125.7124847
8.8200,126.1985964
8.8250,126.6813759
8.8300,127.1611928
8.8350,127.6379907
8.8400,128.1119009
8.8450,128.5827224
8.8500,129.0507328
8.8550,129.5163777
8.8600,129.9797259
8.8650,130.4404097
8.8700,130.8984801
8.8750,131.3540576
8.8800,131.8068603
8.8850,132.2564476
8.8900,132.7026602
8.8950,133.1455301
8.9000,133.5853411
8.9050,134.0215915
8.9100,134.4545321
8.9150,134.8840902
8.9200,135.310316
8.9250,135.7328936
8.9300,136.1516116
8.9350,136.5661619
8.9400,136.9763272
8.9450,137.3824656
8.9500,137.7842693
8.9550,138.1815929
8.9600,138.5745427
8.9650,138.9628325
8.9700,139.3462871
8.9750,139.7246736
8.9800,140.0979648
8.9850,140.4659832
8.9900,140.8299084
8.9950,141.1894208
9.0000,141.5442376
9.0050,141.8937533
9.0100,142.2380369
9.0150,142.5770283
9.0200,142.9107807
9.0250,143.2395361
9.0300,143.5637867
9.0350,143.8837262
9.0400,144.1996536
9.0450,144.5117043
9.0500,144.8199634
9.0550,145.1246067
9.0600,145.4255171
9.0650,145.7224452
9.0700,146.0154543
9.0750,146.3040894
9.0800,146.5882418
9.0850,146.8681888
9.0900,147.1441345
9.0950,147.4166648
9.1000,147.6861981
9.1050,147.9529525
9.1100,148.2171298
9.1150,148.478749
9.1200,148.7381441
9.1250,148.9951786
9.1300,149.2497438
9.1350,149.5016236
9.1400,149.7511684
9.1450,149.99881
9.1500,150.2443083
9.1550,150.4875297
9.1600,150.7283048
9.1650,150.9665673
9.1700,151.2023783
9.1750,151.4355423
9.1800,151.6657965
9.1850,151.8940217
9.1900,152.1200511
9.1950,152.3443472
9.2000,152.5663256
9.2050,152.7859405
9.2100,153.003134
9.2150,153.2181857
9.2200,153.4309365
9.2250,153.6413591
9.2300,153.8496686
9.2350,154.0556572
9.2400,154.2590978
9.2450,154.4599588
9.2500,154.6579367
9.2550,154.8528525
9.2600,155.04456
9.2650,155.2331083
9.2700,155.4185271
9.2750,155.6010627
9.2800,155.7807435
9.2850,155.9572471
9.2900,156.1302244
9.2950,156.3000497
9.3000,156.4670543
9.3050,156.631514
9.3100,156.793574
9.3150,156.9532383
9.3200,157.1107676
9.3250,157.2662141
9.3300,157.4192922
9.3350,157.5701458
9.3400,157.7191768
9.3450,157.8663079
9.3500,158.0119474
9.3550,158.1562306
9.3600,158.2990338
9.3650,158.4409987
9.3700,158.5820456
9.3750,158.7227522
9.3800,158.8629205
9.3850,159.0024432
9.3900,159.1410315
9.3950,159.2786614
9.4000,159.4151776
9.4050,159.5509383
9.4100,159.6857825
9.4150,159.8200078
9.4200,159.9539146
9.4250,160.0876731
9.4300,160.2213746
9.4350,160.355342
9.4400,160.4894088
9.4450,160.6234788
9.4500,160.757892
9.4550,160.8927399
9.4600,161.0278829
9.4650,161.1633945
9.4700,161.2991085
9.4750,161.4346375
9.4800,161.5701948
9.4850,161.7051295
9.4900,161.8397847
9.4950,161.9734292
9.5000,162.106793
9.5050,162.2398242
9.5100,162.3725578
9.5150,162.5048205
9.5200,162.6367408
9.5250,162.7684254
9.5300,162.8998558
9.5350,163.0311679
9.5400,163.1623819
9.5450,163.2932354
9.5500,163.4241135
9.5550,163.554904
9.5600,163.6858558
9.5650,163.8167852
9.5700,163.947365
9.5750,164.0775151
9.5800,164.2068512
9.5850,164.3354303
9.5900,164.4630811
9.5950,164.589672
9.6000,164.7148263
9.6050,164.8387324
9.6100,164.9611372
9.6150,165.0821417
9.6200,165.2012602
9.6250,165.3183042
9.6300,165.4334838
9.6350,165.5468696
9.6400,165.6584286
9.6450,165.7684141
9.6500,165.8770809
9.6550,165.9843493
9.6600,166.0905339
9.6650,166.195464
9.6700,166.299577
9.6750,166.4028651
9.6800,166.5056346
9.6850,166.6082093
9.6900,166.7106491
9.6950,166.8128608
9.7000,166.9147157
9.7050,167.0159729
9.7100,167.117018
9.7150,167.2177601
9.7200,167.3181698
9.7250,167.4182336
9.7300,167.5179542
9.7350,167.6174339
9.7400,167.7164097
9.7450,167.8150749
9.7500,167.9133504
9.7550,168.0111328
9.7600,168.1084656
9.7650,168.2056767
9.7700,168.3028612
9.7750,168.4002092
9.7800,168.4975949
9.7850,168.5952624
9.7900,168.6931009
9.7950,168.7917623
9.8000,168.8909279
9.8050,168.9909209
9.8100,169.0918374
9.8150,169.1940862
9.8200,169.2978477
9.8250,169.4029786
9.8300,169.5097703
9.8350,169.6180218
9.8400,169.7277372
9.8450,169.8390118
9.8500,169.9517103
9.8550,170.0662295
9.8600,170.1822435
9.8650,170.2995537
9.8700,170.4180262
9.8750,170.537392
9.8800,170.6576815
9.8850,170.7788813
9.8900,170.900779
9.8950,171.0231069
9.9000,171.1458613
9.9050,171.2687695
9.9100,171.3912353
9.9150,171.5131152
9.9200,171.6343939
9.9250,171.7549419
9.9300,171.87434
9.9350,171.992188
9.9400,172.1083871
9.9450,172.2226769
9.9500,172.3348723
9.9550,172.4448265
9.9600,172.5523212
9.9650,172.6575181
9.9700,172.7600913
9.9750,172.8598252
9.9800,172.9565568
9.9850,173.0502175
9.9900,173.1407707
9.9950,173.2279971
10.0000,173.312242
10.0050,173.3933773
10.0100,173.4713046
10.0150,173.5459695
10.0200,173.617363
10.0250,173.6853334
10.0300,173.7499023
10.0350,173.8110085
10.0400,173.8690931
10.0450,173.923862
10.0500,173.9751602
10.0550,174.0230831
10.0600,174.06759
10.0650,174.1083009
10.0700,174.145536
10.0750,174.1793109
10.0800,174.2094996
10.0850,174.2363319
10.0900,174.2596452
10.0950,174.2793659
10.1000,174.2956262
10.1050,174.3084149
10.1100,174.3177458
10.1150,174.3235304
10.1200,174.3255314
10.1250,174.3239745
10.1300,174.3187174
10.1350,174.3097979
10.1400,174.2973896
10.1450,174.2814195
10.1500,174.2619225
10.1550,174.2387203
10.1600,174.2118857
10.1650,174.181551
10.1700,174.1478122
10.1750,174.1105371
10.1800,174.0697884
10.1850,174.0253912
10.1900,173.9774239
10.1950,173.9259416
10.2000,173.870853
10.2050,173.8122105
10.2100,173.7501842
10.2150,173.6848086
10.2200,173.616229
10.2250,173.544601
10.2300,173.4702164
10.2350,173.3932248
10.2400,173.3136314
10.2450,173.2317183
10.2500,173.1474501
10.2550,173.0610644
10.2600,172.9726993
10.2650,172.8822371
10.2700,172.7899257
10.2750,172.6957771
10.2800,172.599766
10.2850,172.5021124
10.2900,172.4028394
10.2950,172.3021725
10.3000,172.199891
10.3050,172.0961629
10.3100,171.9908518
10.3150,171.8841691
10.3200,171.7757748
10.3250,171.665911
10.3300,171.554529
10.3350,171.4418313
10.3400,171.327623
10.3450,171.2121897
10.3500,171.0957181
10.3550,170.977949
10.3600,170.8591872
10.3650,170.739655
10.3700,170.6190651
10.3750,170.4976394
10.3800,170.3754746
10.3850,170.2524497
10.3900,170.1289837
10.3950,170.0046528
10.4000,169.8795479
10.4050,169.7535745
10.4100,169.6268427
10.4150,169.4992122
10.4200,169.3708196
10.4250,169.2415988
10.4300,169.1115738
10.4350,168.9810428
10.4400,168.8498796
10.4450,168.7183419
10.4500,168.5865215
10.4550,168.4543334
10.4600,168.3220067
10.4650,168.1897747
10.4700,168.0575468
10.4750,167.9255919
10.4800,167.7940662
10.4850,167.6629722
10.4900,167.5324728
10.4950,167.4027566
10.5000,167.2739602
10.5050,167.1460432
10.5100,167.0192831
10.5150,166.8937935
10.5200,166.7693442
10.5250,166.6458792
10.5300,166.523005
10.5350,166.4011138
10.5400,166.2798601
10.5450,166.1590414
10.5500,166.0385692
10.5550,165.9181584
10.5600,165.79776
10.5650,165.6771783
10.5700,165.5563805
10.5750,165.4353727
10.5800,165.314249
10.5850,165.1926661
10.5900,165.0706727
10.5950,164.9481785
10.6000,164.8254124
10.6050,164.7022192
10.6100,164.578774
10.6150,164.454708
10.6200,164.3302527
10.6250,164.2052812
10.6300,164.0799513
10.6350,163.9539438
10.6400,163.8272709
10.6450,163.6997527
10.6500,163.5713913
10.6550,163.4421417
10.6600,163.3121526
10.6650,163.1809823
10.6700,163.0488598
10.6750,162.9155639
10.6800,162.7810228
10.6850,162.6453406
10.6900,162.5080539
10.6950,162.369564
10.7000,162.2294905
10.7050,162.088007
10.7100,161.9450647
10.7150,161.8007031
10.7200,161.6547144
10.7250,161.507201
10.7300,161.3580765
10.7350,161.2069989
10.7400,161.0539426
10.7450,160.8987173
10.7500,160.741133
10.7550,160.5813909
10.7600,160.4192878
10.7650,160.2547091
10.7700,160.0878941
10.7750,159.918798
10.7800,159.7473604
10.7850,159.5736912
10.7900,159.3976559
10.7950,159.2190814
10.8000,159.0377237
10.8050,158.8535926
10.8100,158.6665686
10.8150,158.4763691
10.8200,158.2832305
10.8250,158.0870954
10.8300,157.888254
10.8350,157.6866361
10.8400,157.4823209
10.8450,157.2756623
10.8500,157.0662304
10.8550,156.8544104
10.8600,156.6400426
10.8650,156.4231011
10.8700,156.2035399
10.8750,155.9813059
10.8800,155.7563673
10.8850,155.5287308
10.8900,155.2985051
10.8950,155.0658738
10.9000,154.8307624
10.9050,154.5934627
10.9100,154.3538711
10.9150,154.1125397
10.9200,153.8697562
10.9250,153.6255868
10.9300,153.3799284
10.9350,153.1330035
10.9400,152.8846839
10.9450,152.6350367
10.9500,152.3838999
10.9550,152.1312844
10.9600,151.8767521
10.9650,151.6202397
10.9700,151.3616743
10.9750,151.1010795
10.9800,150.8384423
10.9850,150.5734408
10.9900,150.3059255
10.9950,150.0356381
11.0000,149.7626609
11.0050,149.4867995
11.0100,149.2079776
11.0150,148.9261684
11.0200,148.6413216
11.0250,148.3535647
11.0300,148.0630867
11.0350,147.7697821
11.0400,147.473882
11.0450,147.1752413
11.0500,146.8737976
11.0550,146.5696288
11.0600,146.2625469
11.0650,145.9523023
11.0700,145.63878
11.0750,145.3221699
11.0800,145.0025029
11.0850,144.6798934
11.0900,144.3540807
11.0950,144.0251148
11.1000,143.6929417
11.1050,143.3572752
11.1100,143.0184329
11.1150,142.6761692
11.1200,142.3306936
11.1250,141.9817353
11.1300,141.6290779
11.1350,141.2721683
11.1400,140.9112205
11.1450,140.5457875
11.1500,140.1765351
11.1550,139.8035948
11.1600,139.4272677
11.1650,139.0474457
11.1700,138.6641587
11.1750,138.2775041
11.1800,137.8869984
11.1850,137.4924392
11.1900,137.0937253
11.1950,136.6905452
11.2000,136.282851
11.2050,135.8705572
11.2100,135.453751
11.2150,135.0321037
11.2200,134.6054504
11.2250,134.1736984
11.2300,133.7370765
11.2350,133.2955502
11.2400,132.8492708
11.2450,132.3982609
11.2500,131.9423513
11.2550,131.4817818
11.2600,131.0166818
11.2650,130.5475311
11.2700,130.0740766
11.2750,129.5963734
11.2800,129.1146419
11.2850,128.6289325
11.2900,128.1395355
11.2950,127.646332
11.3000,127.1493767
11.3050,126.6483022
11.3100,126.1429731
11.3150,125.6332865
11.3200,125.119661
11.3250,124.6016424
11.3300,124.0792564
11.3350,123.552552
11.3400,123.021482
11.3450,122.48687
11.3500,121.9485067
11.3550,121.406733
11.3600,120.8613412
11.3650,120.3127823
11.3700,119.760898
11.3750,119.2056043
11.3800,118.646929
11.3850,118.0846977
11.3900,117.5194334
11.3950,116.9515381
11.4000,116.3808814
11.4050,115.8077862
11.4100,115.2320068
11.4150,114.6539545
11.4200,114.0733773
11.4250,113.4907161
11.4300,112.9061365
11.4350,112.3195955
11.4400,111.7311999
11.4450,111.1409293
11.4500,110.5488283
11.4550,109.9546371
11.4600,109.3584942
11.4650,108.7605856
11.4700,108.161139
11.4750,107.5599741
11.4800,106.9572199
11.4850,106.3530201
11.4900,105.7474623
11.4950,105.1405835
11.5000,104.5323437
11.5050,103.9225566
11.5100,103.3113616
11.5150,102.6987964
11.5200,102.0848203
11.5250,101.4693813
11.5300,100.8525839
11.5350,100.2342815
11.5400,99.61450166
11.5450,98.99362456
11.5500,98.37196235
11.5550,97.74916001
11.5600,97.1252353
11.5650,96.49980519
11.5700,95.8734138
11.5750,95.2462109
11.5800,94.61839984
11.5850,93.98971333
11.5900,93.36032438
11.5950,92.73066658
11.6000,92.1007667
11.6050,91.47100212
11.6100,90.84161408
11.6150,90.21271711
11.6200,89.58447872
11.6250,88.95721931
11.6300,88.33085878
11.6350,87.70586069
11.6400,87.08237065
11.6450,86.46027316
11.6500,85.83985957
11.6550,85.22103527
11.6600,84.60420386
11.6650,83.98930877
11.6700,83.37655013
11.6750,82.76601424
11.6800,82.15750865
11.6850,81.55134225
11.6900,80.94740722
11.6950,80.34567142
11.7000,79.74634228
11.7050,79.14903087
11.7100,78.5541166
11.7150,77.96126681
11.7200,77.37092987
11.7250,76.78327259
11.7300,76.19872849
11.7350,75.61692436
11.7400,75.03794038
11.7450,74.4616266
11.7500,73.88804986
11.7550,73.31735688
11.7600,72.74911979
11.7650,72.1836956
11.7700,71.62076837
11.7750,71.06018103
11.7800,70.50134442
11.7850,69.94415953
11.7900,69.38834798
11.7950,68.83395316
11.8000,68.28108629
11.8050,67.72945828
11.8100,67.17890314
11.8150,66.62982124
11.8200,66.08175812
11.8250,65.53480385
11.8300,64.98869548
11.8350,64.44284794
11.8400,63.8975224
11.8450,63.35232965
11.8500,62.80753471
11.8550,62.26358737
11.8600,61.72110245
11.8650,61.18076665
11.8700,60.64179289
11.8750,60.10503271
11.8800,59.5699773
11.8850,59.03727713
11.8900,58.50677636
11.8950,57.97852522
11.9000,57.45232541
11.9050,56.92863361
11.9100,56.4075518
11.9150,55.88961514
11.9200,55.37519403
11.9250,54.86489916
11.9300,54.35872416
11.9350,53.85733029
11.9400,53.36109214
11.9450,52.86980589
11.9500,52.38368006
11.9550,51.90268197
11.9600,51.42684956
11.9650,50.95593932
11.9700,50.49009184
11.9750,50.02941973
11.9800,49.57404946
11.9850,49.12406004
11.9900,48.67975309
11.9950,48.24113027
12.0000,47.80873502
12.0050,47.38263928
12.0100,46.96237581
12.0150,46.54809215
12.0200,46.13919691
12.0250,45.73529484
12.0300,45.33635501
12.0350,44.94219924
12.0400,44.55230602
12.0450,44.16618875
12.0500,43.78332449
12.0550,43.40371138
12.0600,43.02764093
12.0650,42.65481998
12.0700,42.28492312
12.0750,41.91815282
12.0800,41.55421279
12.0850,41.19241496
12.0900,40.83226802
12.0950,40.4733895
12.1000,40.11516908
12.1050,39.7573469
12.1100,39.39974227
12.1150,39.04161931
12.1200,38.68323203
12.1250,38.32478796
12.1300,37.96588906
12.1350,37.60654495
12.1400,37.24704084
12.1450,36.88713861
12.1500,36.52665159
12.1550,36.16525528
12.1600,35.80281564
12.1650,35.43947306
12.1700,35.07576354
12.1750,34.71146697
12.1800,34.34709788
12.1850,33.9826582
12.1900,33.61852973
12.1950,33.25523092
12.2000,32.89328918
12.2050,32.53331309
12.2100,32.17559758
12.2150,31.82047365
12.2200,31.46834661
12.2250,31.11922692
12.2300,30.77348544
12.2350,30.43108694
12.2400,30.09229196
12.2450,29.75724895
12.2500,29.42633311
12.2550,29.09965521
12.2600,28.77761749
12.2650,28.46061764
12.2700,28.14889811
12.2750,27.84236297
12.2800,27.5411559
12.2850,27.24510502
12.2900,26.95423891
12.2950,26.66881833
12.3000,26.3886369
12.3050,26.11362142
12.3100,25.84383233
12.3150,25.57914534
12.3200,25.31933581
12.3250,25.06439335
12.3300,24.81373933
12.3350,24.5671754
12.3400,24.32478691
12.3450,24.08663786
12.3500,23.85279945
12.3550,23.6229502
12.3600,23.39637395
12.3650,23.17284223
12.3700,22.95214701
12.3750,22.73398304
12.3800,22.51857549
12.3850,22.30579628
12.3900,22.09556347
12.3950,21.88769045
12.4000,21.68212579
12.4050,21.4790343
12.4100,21.27823579
12.4150,21.07989425
12.4200,20.88374753
12.4250,20.68994347
12.4300,20.49844141
12.4350,20.30936722
12.4400,20.12247329
12.4450,19.93785203
12.4500,19.7554923
12.4550,19.575608
12.4600,19.39817487
12.4650,19.22305435
12.4700,19.050173
12.4750,18.87961292
12.4800,18.71137154
12.4850,18.54552747
12.4900,18.38210199
12.4950,18.22091901
12.5000,18.06213347
12.5050,17.90536028
12.5100,17.75057318
12.5150,17.5979902
12.5200,17.44747239
12.5250,17.29927154
12.5300,17.15342099
12.5350,17.00992126
12.5400,16.86849354
12.5450,16.72915789
12.5500,16.59176498
12.5550,16.45633963
12.5600,16.3228609
12.5650,16.19126058
12.5700,16.06140723
12.5750,15.93323153
12.5800,15.80649535
12.5850,15.68109352
12.5900,15.55723107
12.5950,15.43453133
12.6000,15.31285219
12.6050,15.19219562
12.6100,15.0721313
12.6150,14.95287817
12.6200,14.83411031
12.6250,14.71590749
12.6300,14.59815317
12.6350,14.48093263
12.6400,14.36424039
12.6450,14.24804948
12.6500,14.13217437
12.6550,14.0164602
12.6600,13.90088205
12.6650,13.78539694
12.6700,13.669967
12.6750,13.55431949
12.6800,13.43834211
12.6850,13.32200353
12.6900,13.20541439
12.6950,13.08868705
12.7000,12.97197397
12.7050,12.85496278
12.7100,12.7376375
12.7150,12.62022916
12.7200,12.50272476
12.7250,12.38483895
12.7300,12.26696145
12.7350,12.14889351
12.7400,12.03075026
12.7450,11.9125632
12.7500,11.79459728
12.7550,11.67652972
12.7600,11.55841476
12.7650,11.4403809
12.7700,11.32260907
12.7750,11.20487764
12.7800,11.08761415
12.7850,10.97073017
12.7900,10.85420802
12.7950,10.73831628
12.8000,10.62293261
12.8050,10.50801929
12.8100,10.39375274
12.8150,10.27988295
12.8200,10.16648049
12.8250,10.05350072
12.8300,9.940805126
12.8350,9.828323179
12.8400,9.716202894
12.8450,9.604459526
12.8500,9.493288271
12.8550,9.38243183
12.8600,9.271910355
12.8650,9.161451467
12.8700,9.05107774
12.8750,8.940738231
12.8800,8.830556535
12.8850,8.720503317
12.8900,8.610181417
12.8950,8.499482626
12.9000,8.388474868
12.9050,8.276948295
12.9100,8.165178765
12.9150,8.052871325
12.9200,7.940184709
12.9250,7.826916882
12.9300,7.713344852
12.9350,7.599438496
12.9400,7.485382229
12.9450,7.371215871
12.9500,7.257062928
12.9550,7.14333303
12.9600,7.029987306
12.9650,6.917322607
12.9700,6.805377629
12.9750,6.694421548
12.9800,6.58455538
12.9850,6.475549529
12.9900,6.367258843
12.9950,6.260016754
13.0000,6.154189245
13.0050,6.05006094
13.0100,5.947973979
13.0150,5.848042489
13.0200,5.750479038
13.0250,5.655691857
13.0300,5.563621805
13.0350,5.474668169
13.0400,5.388897795
13.0450,5.306790611
13.0500,5.22820425
13.0550,5.15363719
13.0600,5.083228689
13.0650,5.017130145
13.0700,4.955098312
13.0750,4.897442666
13.0800,4.843790253
13.0850,4.794119645
13.0900,4.748298072
13.0950,4.705966477
13.1000,4.666956564
13.1050,4.631133291
13.1100,4.598252611
13.1150,4.567956761
13.1200,4.539936448
13.1250,4.513933648
13.1300,4.4896815
13.1350,4.467015605
13.1400,4.445496552
13.1450,4.425317826
13.1500,4.406030327
13.1550,4.387588271
13.1600,4.369744044
13.1650,4.352621523
13.1700,4.335983529
13.1750,4.31996003
13.1800,4.304321874
13.1850,4.289070591
13.1900,4.274238379
13.1950,4.259901725
13.2000,4.245988101
13.2050,4.232612767
13.2100,4.219664585
13.2150,4.207100002
13.2200,4.195055559
13.2250,4.183744223
13.2300,4.172961238
13.2350,4.162838098
13.2400,4.153386863
13.2450,4.144628124
13.2500,4.136714233
13.2550,4.129565379
13.2600,4.12331173
13.2650,4.117974581
13.2700,4.11376522
13.2750,4.110673855
13.2800,4.10885818
13.2850,4.108908351
13.2900,4.111249607
13.2950,4.115939238
13.3000,4.122782981
13.3050,4.131786436
13.3100,4.143126256
13.3150,4.156726184
13.3200,4.172783354
13.3250,4.191081024
13.3300,4.21175829
13.3350,4.234802944
13.3400,4.260291488
13.3450,4.28798088
13.3500,4.318081805
13.3550,4.350578765
13.3600,4.38538872
13.3650,4.422419223
13.3700,4.461880515
13.3750,4.503717156
13.3800,4.547799945
13.3850,4.594246614
13.3900,4.643056818
13.3950,4.694339959
13.4000,4.748063933
13.4050,4.804261136
13.4100,4.862903028
13.4150,4.924280903
13.4200,4.988420949
13.4250,5.055541452
13.4300,5.125776926
13.4350,5.199283608
13.4400,5.276456211
13.4450,5.35702841
13.4500,5.441172872
13.4550,5.529056127
13.4600,5.620666145
13.4650,5.716031117
13.4700,5.815293839
13.4750,5.918350494
13.4800,6.0250962
13.4850,6.135713728
13.4900,6.250329334
13.4950,6.368833728
13.5000,6.491241685
13.5050,6.617563374
13.5100,6.747690868
13.5150,6.88171323
13.5200,7.019411252
13.5250,7.160442829
13.5300,7.305091829
13.5350,7.45294896
13.5400,7.603906543
13.5450,7.757876279
13.5500,7.914665693
13.5550,8.074156868
13.5600,8.236373633
13.5650,8.401096855
13.5700,8.568315252
13.5750,8.738006111
13.5800,8.909974215
13.5850,9.083926992
13.5900,9.259937228
13.5950,9.437551077
13.6000,9.616771466
13.6050,9.797682424
13.6100,9.979962282
13.6150,10.16371268
13.6200,10.3488501
13.6250,10.53545038
13.6300,10.72348598
13.6350,10.91308156
13.6400,11.10405055
13.6450,11.29650244
13.6500,11.49038344
13.6550,11.68559582
13.6600,11.8823197
13.6650,12.0805182
13.6700,12.28016601
13.6750,12.48129493
13.6800,12.68393018
13.6850,12.88800889
13.6900,13.09368262
13.6950,13.30084584
13.7000,13.50940244
13.7050,13.71954244
13.7100,13.9312338
13.7150,14.14439124
13.7200,14.35911977
13.7250,14.57527744
13.7300,14.79292988
13.7350,15.0121403
13.7400,15.23289732
13.7450,15.45540618
13.7500,15.67976474
13.7550,15.90596487
13.7600,16.13405958
13.7650,16.36394442
13.7700,16.59569587
13.7750,16.82920959
13.7800,17.06477489
13.7850,17.30222095
13.7900,17.54138072
13.7950,17.78230407
13.8000,18.02472874
13.8050,18.26847841
13.8100,18.51347264
13.8150,18.75959083
13.8200,19.00675611
13.8250,19.25489681
13.8300,19.50377076
13.8350,19.7537068
13.8400,20.00432951
13.8450,20.25561753
13.8500,20.50750669
13.8550,20.75985354
13.8600,21.01270166
13.8650,21.26630836
13.8700,21.52050356
13.8750,21.77503321
13.8800,22.02993627
13.8850,22.2852945
13.8900,22.5408769
13.8950,22.79692323
13.9000,23.05334844
13.9050,23.31033205
13.9100,23.56768321
13.9150,23.82519451
13.9200,24.08301162
13.9250,24.34114015
13.9300,24.599768
13.9350,24.85871109
13.9400,25.11828419
13.9450,25.37845974
13.9500,25.63933548
13.9550,25.90095211
13.9600,26.16330522
13.9650,26.42660459
13.9700,26.69105066
13.9750,26.95669301
13.9800,27.22354347
13.9850,27.49190743
13.9900,27.76162869
13.9950,28.03282984
14.0000,28.30597862
14.0050,28.58089888
14.0100,28.85781423
14.0150,29.13698273
14.0200,29.41850963
14.0250,29.70251042
14.0300,29.98908984
14.0350,30.27839826
14.0400,30.57043082
14.0450,30.86512922
14.0500,31.1624942
14.0550,31.46270986
14.0600,31.7659254
14.0650,32.07237885
14.0700,32.38188841
14.0750,32.6947834
14.0800,33.01058378
14.0850,33.32951314
14.0900,33.65155796
14.0950,33.97659559
14.1000,34.30484772
14.1050,34.63635739
14.1100,34.97096632
14.1150,35.30839925
14.1200,35.648707
14.1250,35.99193261
14.1300,36.33781155
14.1350,36.68632174
14.1400,37.03756833
14.1450,37.39166199
14.1500,37.74835139
14.1550,38.10780678
14.1600,38.4700573
14.1650,38.83459525
14.1700,39.20131422
14.1750,39.5704995
14.1800,39.94239666
14.1850,40.3167984
14.1900,40.69372281
14.1950,41.07301787
14.2000,41.45454627
14.2050,41.83792878
14.2100,42.22374084
14.2150,42.61225645
14.2200,43.00312795
14.2250,43.39655278
14.2300,43.79220002
14.2350,44.19025385
14.2400,44.59058726
14.2450,44.99300947
14.2500,45.39768864
14.2550,45.804533
14.2600,46.21355995
14.2650,46.62488098
14.2700,47.03820249
14.2750,47.45342707
14.2800,47.87066692
14.2850,48.28977825
14.2900,48.71074169
14.2950,49.13379928
14.3000,49.55864801
14.3050,49.98567398
14.3100,50.41459035
14.3150,50.84553732
14.3200,51.278694
14.3250,51.71420416
14.3300,52.15203472
14.3350,52.59220121
14.3400,53.0347932
14.3450,53.48001187
14.3500,53.92775012
14.3550,54.37810656
14.3600,54.83108349
14.3650,55.28654726
14.3700,55.74488637
14.3750,56.2059009
14.3800,56.66986653
14.3850,57.13673547
14.3900,57.60638815
14.3950,58.07895098
14.4000,58.5546073
14.4050,59.03355437
14.4100,59.51593526
14.4150,60.0017655
14.4200,60.49089987
14.4250,60.98329483
14.4300,61.47902826
14.4350,61.97769204
14.4400,62.47941281
14.4450,62.98411837
14.4500,63.4918766
14.4550,64.00243888
14.4600,64.51583025
14.4650,65.03193162
14.4700,65.55112446
14.4750,66.07331145
14.4800,66.59806802
14.4850,67.12554194
14.4900,67.65523228
14.4950,68.1870648
14.5000,68.7210907
14.5050,69.25722369
14.5100,69.79496874
14.5150,70.33413199
14.5200,70.87507117
14.5250,71.41719823
14.5300,71.9605441
14.5350,72.50446629
14.5400,73.0487559
14.5450,73.59313325
14.5500,74.13700829
14.5550,74.6801545
14.5600,75.22217876
14.5650,75.76270711
14.5700,76.30162945
14.5750,76.83894711
14.5800,77.37418387
14.5850,77.90721902
14.5900,78.43827625
14.5950,78.96732145
14.6000,79.49445723
14.6050,80.01971836
14.6100,80.54369277
14.6150,81.0669128
14.6200,81.58944043
14.6250,82.1119089
14.6300,82.6345077
14.6350,83.15764336
14.6400,83.68173083
14.6450,84.20772484
14.6500,84.73558979
14.6550,85.26592374
14.6600,85.79885608
14.6650,86.33458888
14.6700,86.87382128
14.6750,87.41641686
14.6800,87.96284025
14.6850,88.5127174
14.6900,89.06654812
14.6950,89.62481113
14.7000,90.18738076
14.7050,90.75413812
14.7100,91.32540046
14.7150,91.90126906
14.7200,92.48199047
14.7250,93.06732139
14.7300,93.65745445
14.7350,94.25233656
14.7400,94.85193326
14.7450,95.45603784
14.7500,96.06483707
14.7550,96.67834216
14.7600,97.29653965
14.7650,97.91959159
14.7700,98.54749637
14.7750,99.18010959
14.7800,99.8170974
14.7850,100.4580987
14.7900,101.1031656
14.7950,101.7521114
14.8000,102.4047999
14.8050,103.0609936
14.8100,103.720504
14.8150,104.3830341
14.8200,105.0481034
14.8250,105.7155556
14.8300,106.3848198
14.8350,107.0559501
14.8400,107.7282445
14.8450,108.4012869
14.8500,109.0750008
14.8550,109.7488356
14.8600,110.4227604
14.8650,111.0959337
14.8700,111.7686285
14.8750,112.4399033
14.8800,113.1094895
14.8850,113.7768084
14.8900,114.4417152
14.8950,115.1032043
14.9000,115.7608434
14.9050,116.4142539
14.9100,117.0631666
14.9150,117.7075726
14.9200,118.3475127
14.9250,118.9832394
14.9300,119.6141469
14.9350,120.2401286
14.9400,120.8616329
14.9450,121.4780089
14.9500,122.0891233
14.9550,122.6945104
14.9600,123.2939616
14.9650,123.8871226
14.9700,124.4734184
14.9750,125.0525737
14.9800,125.624355
14.9850,126.1885515
14.9900,126.7447733
14.9950,127.2932271
15.0000,127.8335483
15.0050,128.3658202
15.0100,128.8897946
15.0150,129.4060161
15.0200,129.9146755
15.0250,130.415991
15.0300,130.9099628
15.0350,131.3973298
15.0400,131.878611
15.0450,132.3545954
15.0500,132.8254149
15.0550,133.2914169
15.0600,133.7533335
15.0650,134.2112789
15.0700,134.6652083
15.0750,135.1154883
15.0800,135.5623981
15.0850,136.0062484
15.0900,136.4470199
15.0950,136.8845975
15.1000,137.3190611
15.1050,137.7503643
15.1100,138.1778283
15.1150,138.6009002
15.1200,139.0196125
15.1250,139.433262
15.1300,139.8418546
15.1350,140.2453623
15.1400,140.6442175
15.1450,141.0385052
15.1500,141.4281034
15.1550,141.8135714
15.1600,142.1950125
15.1650,142.5731426
15.1700,142.9477949
15.1750,143.319829
15.1800,143.6895359
15.1850,144.0574375
15.1900,144.4234596
15.1950,144.7883658
15.2000,145.1527604
15.2050,145.5167333
15.2100,145.8802999
15.2150,146.2432171
15.2200,146.6050082
15.2250,146.9649003
15.2300,147.3233994
15.2350,147.6800135
15.2400,148.0340162
15.2450,148.3853459
15.2500,148.7345553
15.2550,149.0822668
15.2600,149.4286865
15.2650,149.7744514
15.2700,150.1196798
15.2750,150.4645555
15.2800,150.8089019
15.2850,151.1527087
15.2900,151.4958244
15.2950,151.8375408
15.3000,152.1778843
15.3050,152.5164445
15.3100,152.8530487
15.3150,153.1874532
15.3200,153.5192857
15.3250,153.8485738
15.3300,154.1756233
15.3350,154.4998387
15.3400,154.8211776
15.3450,155.1393457
15.3500,155.4545001
15.3550,155.7666304
15.3600,156.0761008
15.3650,156.3830342
15.3700,156.688037
15.3750,156.9911076
15.3800,157.2924775
15.3850,157.592503
15.3900,157.8912523
15.3950,158.1888372
15.4000,158.4851595
15.4050,158.7802955
15.4100,159.0744442
15.4150,159.3681059
15.4200,159.6605804
15.4250,159.9517757
15.4300,160.2413733
15.4350,160.5291952
15.4400,160.814525
15.4450,161.0973518
15.4500,161.3772988
15.4550,161.6538931
15.4600,161.9273961
15.4650,162.1977513
15.4700,162.4648096
15.4750,162.7287551
15.4800,162.9894092
15.4850,163.2465332
15.4900,163.4999142
15.4950,163.7492806
15.5000,163.9939198
15.5050,164.2338535
15.5100,164.4688373
15.5150,164.6989444
15.5200,164.9241207
15.5250,165.1446464
15.5300,165.360018
15.5350,165.5704614
15.5400,165.7760175
15.5450,165.976715
15.5500,166.1722202
15.5550,166.3621528
15.5600,166.5465647
15.5650,166.7253148
15.5700,166.8982036
15.5750,167.0652511
15.5800,167.2267742
15.5850,167.3829041
15.5900,167.5340525
15.5950,167.6809527
15.6000,167.8238317
15.6050,167.963174
15.6100,168.0995932
15.6150,168.2331161
15.6200,168.3641723
15.6250,168.4930808
15.6300,168.6198006
15.6350,168.7447115
15.6400,168.867839
15.6450,168.9894187
15.6500,169.1093992
15.6550,169.227819
15.6600,169.3444062
15.6650,169.4595664
15.6700,169.5734659
15.6750,169.6861718
15.6800,169.7980281
15.6850,169.9088001
15.6900,170.0185977
15.6950,170.1274234
15.7000,170.2350599
15.7050,170.3415707
15.7100,170.4470649
15.7150,170.5513033
15.7200,170.6547659
15.7250,170.7575893
15.7300,170.8597714
15.7350,170.961397
15.7400,171.0626699
15.7450,171.1634461
15.7500,171.2638731
15.7550,171.3641132
15.7600,171.4640394
15.7650,171.5633709
15.7700,171.6623146
15.7750,171.7606563
15.7800,171.8584668
15.7850,171.9554201
15.7900,172.05168
15.7950,172.1470653
15.8000,172.2417027
15.8050,172.3355163
15.8100,172.4280322
15.8150,172.519081
15.8200,172.6085703
15.8250,172.695936
15.8300,172.7815672
15.8350,172.8650814
15.8400,172.9467165
15.8450,173.026076
15.8500,173.1032349
15.8550,173.1782939
15.8600,173.251311
15.8650,173.3224004
15.8700,173.3916221
15.8750,173.4592333
15.8800,173.5253956
15.8850,173.5903857
15.8900,173.6544043
15.8950,173.717409
15.9000,173.7798601
15.9050,173.841619
15.9100,173.9027957
15.9150,173.9634403
15.9200,174.0234144
15.9250,174.0826632
15.9300,174.1412912
15.9350,174.1993948
15.9400,174.2568473
15.9450,174.3136488
15.9500,174.3697865
15.9550,174.4253104
15.9600,174.4802324
15.9650,174.5346717
15.9700,174.5886702
15.9750,174.6418877
15.9800,174.6943744
15.9850,174.746406
15.9900,174.7979999
15.9950,174.8488897
16.0000,174.8996135
16.0050,174.9500137
16.0100,175.0002585
16.0150,175.0502886
16.0200,175.1000076
16.0250,175.1493632
16.0300,175.1984359
16.0350,175.2471635
16.0400,175.295557
16.0450,175.3438915
16.0500,175.3920277
16.0550,175.4400823
16.0600,175.4878213
16.0650,175.5354099
16.0700,175.5825891
16.0750,175.6293245
16.0800,175.6752999
16.0850,175.7209683
16.0900,175.7661381
16.0950,175.8109665
16.1000,175.8554639
16.1050,175.8993969
16.1100,175.9429749
16.1150,175.986045
16.1200,176.0284615
16.1250,176.0703818
16.1300,176.1116441
16.1350,176.1523789
16.1400,176.1923227
16.1450,176.2315193
16.1500,176.2699557
16.1550,176.3075062
16.1600,176.3439453
16.1650,176.3791499
16.1700,176.4131178
16.1750,176.445485
16.1800,176.4762722
16.1850,176.5053863
16.1900,176.5325995
16.1950,176.5579344
16.2000,176.581186
16.2050,176.6023625
16.2100,176.6213531
16.2150,176.6379712
16.2200,176.6523786
16.2250,176.6643114
16.2300,176.6737936
16.2350,176.6806874
16.2400,176.6851474
16.2450,176.6869831
16.2500,176.6863197
16.2550,176.6830476
16.2600,176.6772391
16.2650,176.6686528
16.2700,176.6571403
16.2750,176.6430768
16.2800,176.6261222
16.2850,176.6064064
16.2900,176.5837775
16.2950,176.5585688
16.3000,176.5303032
16.3050,176.4993753
16.3100,176.4656116
16.3150,176.4291324
16.3200,176.3899183
16.3250,176.3481391
16.3300,176.3037375
16.3350,176.2566968
16.3400,176.2070203
16.3450,176.1544926
16.3500,176.0992828
16.3550,176.0412216
16.3600,175.980463
16.3650,175.9169702
16.3700,175.8507859
16.3750,175.7819076
16.3800,175.7104469
16.3850,175.6362822
16.3900,175.5593167
16.3950,175.4796219
16.4000,175.3971004
16.4050,175.3120612
16.4100,175.2245254
16.4150,175.1345192
16.4200,175.0423258
16.4250,174.9479689
16.4300,174.8513283
16.4350,174.7524333
16.4400,174.6513663
16.4450,174.5481874
16.4500,174.4429674
16.4550,174.3357131
16.4600,174.2264919
16.4650,174.115481
16.4700,174.0026286
16.4750,173.8882107
16.4800,173.7722375
16.4850,173.6547418
16.4900,173.5358063
16.4950,173.4156508
16.5000,173.2940829
16.5050,173.1712225
16.5100,173.0469674
16.5150,172.9214926
16.5200,172.7945803
16.5250,172.6664349
16.5300,172.537064
16.5350,172.4065401
16.5400,172.2749127
16.5450,172.1423022
16.5500,172.0087068
16.5550,171.8740281
16.5600,171.7385215
16.5650,171.6020078
16.5700,171.4645673
16.5750,171.3261701
16.5800,171.1868987
16.5850,171.0466005
16.5900,170.9053841
16.5950,170.7632186
16.6000,170.6203881
16.6050,170.476589
16.6100,170.3320916
16.6150,170.1868317
16.6200,170.041003
16.6250,169.8945859
16.6300,169.7476292
16.6350,169.6001796
16.6400,169.452132
16.6450,169.3036337
16.6500,169.1548271
16.6550,169.005606
16.6600,168.8558958
16.6650,168.705578
16.6700,168.5548671
16.6750,168.4035819
16.6800,168.2518503
16.6850,168.0996978
16.6900,167.9472753
16.6950,167.7943313
16.7000,167.6409477
16.7050,167.4869722
16.7100,167.3323001
16.7150,167.1770083
16.7200,167.0212253
16.7250,166.8646252
16.7300,166.7074869
16.7350,166.5498973
16.7400,166.3916508
16.7450,166.2327616
16.7500,166.0733147
16.7550,165.9132016
16.7600,165.7525219
16.7650,165.5911996
16.7700,165.4291878
16.7750,165.2664105
16.7800,165.102933
16.7850,164.9386567
16.7900,164.7738881
16.7950,164.6081825
16.8000,164.4416707
16.8050,164.2741152
16.8100,164.1055554
16.8150,163.9359922
16.8200,163.7655029
16.8250,163.5938842
16.8300,163.4213428
16.8350,163.2477758
16.8400,163.0732933
16.8450,162.8979105
16.8500,162.7215988
16.8550,162.5445765
16.8600,162.3666735
16.8650,162.1880536
16.8700,162.0087802
16.8750,161.8287509
16.8800,161.6481238
16.8850,161.4666236
16.8900,161.2844733
16.8950,161.1014694
16.9000,160.9178027
16.9050,160.7332269
16.9100,160.5477169
16.9150,160.3612558
16.9200,160.173716
16.9250,159.9848586
16.9300,159.7947833
16.9350,159.6034703
16.9400,159.4108026
16.9450,159.216675
16.9500,159.0208613
16.9550,158.8234054
16.9600,158.6244171
16.9650,158.423974
16.9700,158.222134
16.9750,158.0186872
16.9800,157.8137332
16.9850,157.6070378
16.9900,157.39853
16.9950,157.1882086
17.0000,156.9760044
17.0050,156.7619925
17.0100,156.5462028
17.0150,156.3284093
17.0200,156.1079873
17.0250,155.8852714
17.0300,155.6599749
17.0350,155.4321363
17.0400,155.2017315
17.0450,154.968829
17.0500,154.7332268
17.0550,154.4951326
17.0600,154.254499
17.0650,154.011443
17.0700,153.7661231
17.0750,153.518923
17.0800,153.2696152
17.0850,153.0184072
17.0900,152.7651787
17.0950,152.5100033
17.1000,152.2529718
17.1050,151.9942676
17.1100,151.7339878
17.1150,151.4720931
17.1200,151.2088874
17.1250,150.9445855
17.1300,150.6789262
17.1350,150.4121392
17.1400,150.1440772
17.1450,149.8746774
17.1500,149.603965
17.1550,149.3319436
17.1600,149.0586427
17.1650,148.7840677
17.1700,148.5079239
17.1750,148.2300856
17.1800,147.9505384
17.1850,147.6695665
17.1900,147.38705
17.1950,147.103176
17.2000,146.817501
17.2050,146.5302783
17.2100,146.2411289
17.2150,145.9502042
17.2200,145.6574259
17.2250,145.3628909
17.2300,145.0663771
17.2350,144.7676195
17.2400,144.4667379
17.2450,144.163565
17.2500,143.8576127
17.2550,143.5492153
17.2600,143.2379529
17.2650,142.9239038
17.2700,142.6069237
17.2750,142.2871805
17.2800,141.9650363
17.2850,141.6401323
17.2900,141.312645
17.2950,140.9827994
17.3000,140.6502996
17.3050,140.3149399
17.3100,139.9768397
17.3150,139.6358937
17.3200,139.2923774
17.3250,138.9461619
17.3300,138.5972455
17.3350,138.2456078
17.3400,137.891421
17.3450,137.5345447
17.3500,137.175087
17.3550,136.8127592
17.3600,136.4477136
17.3650,136.0796087
17.3700,135.7086998
17.3750,135.3344085
17.3800,134.9571964
17.3850,134.5771257
17.3900,134.1944246
17.3950,133.8091186
17.4000,133.4214245
17.4050,133.0315381
17.4100,132.6393482
17.4150,132.2447122
17.4200,131.8474508
17.4250,131.4475512
17.4300,131.0449425
17.4350,130.6392495
17.4400,130.2304982
17.4450,129.8188904
17.4500,129.404243
17.4550,128.9864721
17.4600,128.5654245
17.4650,128.1414525
17.4700,127.7145918
17.4750,127.2848306
17.4800,126.8521953
17.4850,126.4163947
17.4900,125.9773066
17.4950,125.534905
17.5000,125.0893569
17.5050,124.6404062
17.5100,124.1881518
17.5150,123.7322724
17.5200,123.2726839
17.5250,122.8094467
17.5300,122.3427039
17.5350,121.8726218
17.5400,121.3992503
17.5450,120.9225957
17.5500,120.4429997
17.5550,119.9600561
17.5600,119.4738401
17.5650,118.9841015
17.5700,118.49096
17.5750,117.9944188
17.5800,117.4942166
17.5850,116.9910614
17.5900,116.4845677
17.5950,115.9745783
17.6000,115.4613704
17.6050,114.9452562
17.6100,114.426425
17.6150,113.9051091
17.6200,113.3814852
17.6250,112.8556873
17.6300,112.3273768
17.6350,111.7967878
17.6400,111.2639977
17.6450,110.7292222
17.6500,110.1920696
17.6550,109.6528028
17.6600,109.1112803
17.6650,108.5675198
17.6700,108.021674
17.6750,107.4739463
17.6800,106.9244122
17.6850,106.372984
17.6900,105.8196049
17.6950,105.2645477
17.7000,104.7077761
17.7050,104.1491643
17.7100,103.5886675
17.7150,103.0265712
17.7200,102.463022
17.7250,101.8980655
17.7300,101.3317662
17.7350,100.7643701
17.7400,100.1955515
17.7450,99.62539478
17.7500,99.05428739
17.7550,98.48230552
17.7600,97.91016942
17.7650,97.33756815
17.7700,96.76470154
17.7750,96.19168066
17.7800,95.61846072
17.7850,95.04513129
17.7900,94.47189098
17.7950,93.89897864
17.8000,93.32605912
17.8050,92.75346307
17.8100,92.18122418
17.8150,91.60959476
17.8200,91.03875519
17.8250,90.46856544
17.8300,89.89896105
17.8350,89.32975348
17.8400,88.76119587
17.8450,88.19352247
17.8500,87.62700598
17.8550,87.06167582
17.8600,86.49752606
17.8650,85.93479138
17.8700,85.37352189
17.8750,84.8141354
17.8800,84.25652193
17.8850,83.70125025
17.8900,83.14862855
17.8950,82.59917074
17.9000,82.05298687
17.9050,81.5101893
17.9100,80.97105154
17.9150,80.43518401
17.9200,79.90269176
17.9250,79.37375656
17.9300,78.84830739
17.9350,78.3263769
17.9400,77.80773061
17.9450,77.29241522
17.9500,76.78074706
17.9550,76.27246993
17.9600,75.76758625
17.9650,75.26620628
17.9700,74.76806481
17.9750,74.27321197
17.9800,73.78177828
17.9850,73.2941612
17.9900,72.81037591
17.9950,72.33052387
18.0000,71.85436904
18.0050,71.3818166
18.0100,70.91300472
18.0150,70.44759934
18.0200,69.98542751
18.0250,69.52622401
18.0300,69.07055403
18.0350,68.61847014
18.0400,68.16983702
18.0450,67.72466231
18.0500,67.28273556
18.0550,66.84357166
18.0600,66.40661031
18.0650,65.97166013
18.0700,65.53881251
18.0750,65.10790925
18.0800,64.67910859
18.0850,64.25223981
18.0900,63.8274069
18.0950,63.40430835
18.1000,62.98289644
18.1050,62.56306881
18.1100,62.14447924
18.1150,61.72708956
18.1200,61.31080082
18.1250,60.89567837
18.1300,60.48177432
18.1350,60.06955304
18.1400,59.659163
18.1450,59.25022412
18.1500,58.84295595
18.1550,58.43762447
18.1600,58.03420944
18.1650,57.63312967
18.1700,57.23410504
18.1750,56.83711266
18.1800,56.4423978
18.1850,56.04955486
18.1900,55.65851285
18.1950,55.2692105
18.2000,54.88168143
18.2050,54.4958537
18.2100,54.11168074
18.2150,53.72976855
18.2200,53.34991767
18.2250,52.97196421
18.2300,52.596255
18.2350,52.22272605
18.2400,51.85164399
18.2450,51.48301298
18.2500,51.1170018
18.2550,50.75355284
18.2600,50.3927496
18.2650,50.0345075
18.2700,49.67872863
18.2750,49.3251925
18.2800,48.97365912
18.2850,48.62398761
18.2900,48.27626154
18.2950,47.93010442
18.3000,47.58585538
18.3050,47.24376128
18.3100,46.90398876
18.3150,46.56657552
18.3200,46.23134001
18.3250,45.89810582
18.3300,45.56680025
18.3350,45.23729015
18.3400,44.90984076
18.3450,44.58415308
18.3500,44.2599958
18.3550,43.93769485
18.3600,43.61701541
18.3650,43.29810023
18.3700,42.98053545
18.3750,42.66454721
18.3800,42.34998313
18.3850,42.03709396
18.3900,41.72553753
18.3950,41.4153375
18.4000,41.10645426
18.4050,40.7990386
18.4100,40.49325442
18.4150,40.18913244
18.4200,39.88664917
18.4250,39.58589199
18.4300,39.28651231
18.4350,38.98853304
18.4400,38.69209071
18.4450,38.39725757
18.4500,38.10416633
18.4550,37.81290461
18.4600,37.52340951
18.4650,37.23553061
18.4700,36.94986097
18.4750,36.66629078
18.4800,36.384791
18.4850,36.10543153
18.4900,35.82821872
18.4950,35.55300038
18.5000,35.27953717
18.5050,35.00781186
18.5100,34.73768917
18.5150,34.46891748
18.5200,34.20174783
18.5250,33.93584083
18.5300,33.67072079
18.5350,33.40641662
18.5400,33.1425139
18.5450,32.87901033
18.5500,32.61562369
18.5550,32.35254327
18.5600,32.08963319
18.5650,31.82688283
18.5700,31.56456165
18.5750,31.30296728
18.5800,31.04235429
18.5850,30.78264504
18.5900,30.52386141
18.5950,30.26659665
18.6000,30.0105805
18.6050,29.75600975
18.6100,29.50280506
18.6150,29.25126456
18.6200,29.00151465
18.6250,28.75387359
18.6300,28.50850741
18.6350,28.26550812
18.6400,28.02503922
18.6450,27.78716984
18.6500,27.55223763
18.6550,27.32046047
18.6600,27.09237565
18.6650,26.86793075
18.6700,26.64768506
18.6750,26.43176464
18.6800,26.22011805
18.6850,26.01294147
18.6900,25.8102268
18.6950,25.61194177
18.7000,25.41850226
18.7050,25.2296996
18.7100,25.0454249
18.7150,24.86572089
18.7200,24.69034251
18.7250,24.51930339
18.7300,24.3525802
18.7350,24.18966992
18.7400,24.03022291
18.7450,23.87411326
18.7500,23.72105106
18.7550,23.57068786
18.7600,23.42268334
18.7650,23.27675644
18.7700,23.13240738
18.7750,22.98964484
18.7800,22.84823543
18.7850,22.70808559
18.7900,22.56885857
18.7950,22.43056855
18.8000,22.29316754
18.8050,22.15642714
18.8100,22.02029775
18.8150,21.88392695
18.8200,21.74738585
18.8250,21.61119063
18.8300,21.47549139
18.8350,21.33994416
18.8400,21.20491424
18.8450,21.07021008
18.8500,20.93566726
18.8550,20.80121755
18.8600,20.66680798
18.8650,20.53244504
18.8700,20.39786015
18.8750,20.26311241
18.8800,20.12793659
18.8850,19.99249368
18.8900,19.85665394
18.8950,19.72032067
18.9000,19.58358563
18.9050,19.44666582
18.9100,19.30952783
18.9150,19.17211737
18.9200,19.03463068
18.9250,18.89702893
18.9300,18.7595779
18.9350,18.62214022
18.9400,18.48490654
18.9450,18.34802817
18.9500,18.21152211
18.9550,18.07516747
18.9600,17.93896748
18.9650,17.80310595
18.9700,17.66736272
18.9750,17.53165511
18.9800,17.39600568
18.9850,17.25999122
18.9900,17.12380168
18.9950,16.98752833
19.0000,16.85106854
19.0050,16.71440108
19.0100,16.57761275
19.0150,16.44055592
19.0200,16.3032999
19.0250,16.16581603
19.0300,16.02803383
19.0350,15.89003678
19.0400,15.75182498
19.0450,15.61343639
19.0500,15.47483209
19.0550,15.33604842
19.0600,15.19738554
19.0650,15.05892142
19.0700,14.9207445
19.0750,14.78295713
19.0800,14.64548651
19.0850,14.50852432
19.0900,14.37207052
19.0950,14.23616497
19.1000,14.10074799
19.1050,13.96591145
19.1100,13.83137384
19.1150,13.69760811
19.1200,13.56454275
19.1250,13.43187485
19.1300,13.29951071
19.1350,13.16744608
19.1400,13.03535622
19.1450,12.90335584
19.1500,12.77152088
19.1550,12.63975204
19.1600,12.50816918
19.1650,12.37680682
19.1700,12.24562993
19.1750,12.11454601
19.1800,11.98351311
19.1850,11.85263842
19.1900,11.72185205
19.1950,11.59130896
19.2000,11.46123177
19.2050,11.33150777
19.2100,11.20225641
19.2150,11.07366232
19.2200,10.94585045
19.2250,10.81900455
19.2300,10.6929983
19.2350,10.56810527
19.2400,10.4444768
19.2450,10.32230754
19.2500,10.20186048
19.2550,10.08328985
19.2600,9.966547204
19.2650,9.851815051
19.2700,9.739176402
19.2750,9.628877259
19.2800,9.5208049
19.2850,9.415478956
19.2900,9.31276693
19.2950,9.212833251
19.3000,9.115638677
19.3050,9.021330453
19.3100,8.929793996
19.3150,8.841097928
19.3200,8.755446127
19.3250,8.67275034
19.3300,8.593213147
19.3350,8.516858587
19.3400,8.443912056
19.3450,8.374290214
19.3500,8.308317716
19.3550,8.246243635
19.3600,8.188202219
19.3650,8.134242615
19.3700,8.084577485
19.3750,8.038949823
19.3800,7.99775436
19.3850,7.960813192
19.3900,7.928239873
19.3950,7.89991083
19.4000,7.875872703
19.4050,7.855887973
19.4100,7.84007761
19.4150,7.828548337
19.4200,7.821146592
19.4250,7.817811835
19.4300,7.818626625
19.4350,7.823552478
19.4400,7.832885332
19.4450,7.84646118
19.4500,7.864372824
19.4550,7.886684529
19.4600,7.913595348
19.4650,7.944943296
19.4700,7.980918132
19.4750,8.021621837
19.4800,8.067362457
19.4850,8.11802012
19.4900,8.174089177
19.4950,8.235461964
19.5000,8.302492706
19.5050,8.375274035
19.5100,8.453860162
19.5150,8.538477542
19.5200,8.629180552
19.5250,8.726060429
19.5300,8.829306309
19.5350,8.93896614
19.5400,9.054955256
19.5450,9.177267157
19.5500,9.305748997
19.5550,9.44055935
19.5600,9.581599589
19.5650,9.728897688
19.5700,9.882384424
19.5750,10.04194918
19.5800,10.20771591
19.5850,10.3792026
19.5900,10.55654083
19.5950,10.73945086
19.6000,10.9278836
19.6050,11.12172867
19.6100,11.32083574
19.6150,11.52517155
19.6200,11.73453992
19.6250,11.94890841
19.6300,12.16812619
19.6350,12.39214815
19.6400,12.62077863
19.6450,12.85426848
19.6500,13.09224716
19.6550,13.33468327
19.6600,13.58146527
19.6650,13.83243944
19.6700,14.08767206
19.6750,14.34701902
19.6800,14.61037466
19.6850,14.87755434
19.6900,15.14856295
19.6950,15.4231796
19.7000,15.70112762
19.7050,15.9824939
19.7100,16.26682115
19.7150,16.55408769
19.7200,16.84410437
19.7250,17.13660749
19.7300,17.43159315
19.7350,17.72905046
19.7400,18.02865397
19.7450,18.33038321
19.7500,18.63407369
19.7550,18.93956035
19.7600,19.2465349
19.7650,19.55510923
19.7700,19.86482751
19.7750,20.17572201
19.7800,20.48760862
19.7850,20.8004697
19.7900,21.11404887
19.7950,21.42833702
19.8000,21.74317128
19.8050,22.05848812
19.8100,22.37449868
19.8150,22.69097675
19.8200,23.00793517
19.8250,23.3253935
19.8300,23.64286643
19.8350,23.96047792
19.8400,24.27800609
19.8450,24.59557813
19.8500,24.91315245
19.8550,25.23080153
19.8600,25.54848354
19.8650,25.86624654
19.8700,26.18397659
19.8750,26.50156009
19.8800,26.8192486
19.8850,27.1371971
19.8900,27.45556387
19.8950,27.77453899
19.9000,28.09417446
19.9050,28.41462541
19.9100,28.73604733
19.9150,29.05861678
19.9200,29.3825993
19.9250,29.70791717
19.9300,30.0347137
19.9350,30.36315672
19.9400,30.69341338
19.9450,31.02554397
19.9500,31.3597847
19.9550,31.69604868
19.9600,32.03447868
19.9650,32.37501901
19.9700,32.71768701
19.9750,33.06267625
19.9800,33.40982374
19.9850,33.75936252
19.9900,34.11107209
19.9950,34.46529416
20.0000,34.82216656
20.0050,35.18141288
20.0100,35.54347015
20.0150,35.9080652
20.0200,36.27543783
20.0250,36.64592057
20.0300,37.01944623
20.0350,37.39584158
20.0400,37.77521182
20.0450,38.15759096
20.0500,38.54297781
20.0550,38.93149749
20.0600,39.32307879
20.0650,39.71756947
20.0700,40.11561419
20.0750,40.51714736
20.0800,40.92225796
20.0850,41.33105077
20.0900,41.74364758
20.0950,42.16010156
20.1000,42.58052042
20.1050,43.00476831
20.1100,43.43264281
20.1150,43.8641045
20.1200,44.29899043
20.1250,44.73737466
20.1300,45.17932329
20.1350,45.62475845
20.1400,46.07379811
20.1450,46.52603674
20.1500,46.98178313
20.1550,47.44107609
20.1600,47.90388991
20.1650,48.37006914
20.1700,48.83944199
20.1750,49.31192931
20.1800,49.78776537
20.1850,50.26672856
20.1900,50.74895373
20.1950,51.23421171
20.2000,51.72230487
20.2050,52.21321394
20.2100,52.70692674
20.2150,53.20363542
20.2200,53.70327639
20.2250,54.20610983
20.2300,54.71224673
20.2350,55.221693
20.2400,55.73461345
20.2450,56.25100403
20.2500,56.77077601
20.2550,57.29414683
20.2600,57.82123839
20.2650,58.35231494
20.2700,58.88719381
20.2750,59.42596398
20.2800,59.96858088
20.2850,60.51535415
20.2900,61.06660746
20.2950,61.62181541
20.3000,62.18098754
20.3050,62.74431533
20.3100,63.31178157
20.3150,63.88340978
20.3200,64.45911563
20.3250,65.03863416
20.3300,65.62205227
20.3350,66.20986765
20.3400,66.80200063
20.3450,67.39832348
20.3500,67.99902478
20.3550,68.60423747
20.3600,69.21390407
20.3650,69.82784716
20.3700,70.44577688
20.3750,71.06804499
20.3800,71.69459661
20.3850,72.32547785
20.3900,72.96055106
20.3950,73.59934797
20.4000,74.24158754
20.4050,74.88744934
20.4100,75.5369151
20.4150,76.19022736
20.4200,76.84731283
20.4250,77.50816078
20.4300,78.17315148
20.4350,78.8419763
20.4400,79.51433676
20.4450,80.19027563
20.4500,80.86954895
20.4550,81.55186254
20.4600,82.2370586
20.4650,82.9253487
20.4700,83.61702867
20.4750,84.31208993
20.4800,85.01038031
20.4850,85.712
20.4900,86.41668249
20.4950,87.12455047
20.5000,87.83581262
20.5050,88.54978948
20.5100,89.2670941
20.5150,89.98721855
20.5200,90.71047396
20.5250,91.43689183
20.5300,92.16607583
20.5350,92.89840031
20.5400,93.63343771
20.5450,94.37098735
20.5500,95.11123748
20.5550,95.85399458
20.5600,96.59899358
20.5650,97.34592619
20.5700,98.09466179
20.5750,98.84471501
20.5800,99.59626545
20.5850,100.3488944
20.5900,101.1019386
20.5950,101.8558118
20.6000,102.609648
20.6050,103.3637985
20.6100,104.1178025
20.6150,104.8714032
20.6200,105.6240335
20.6250,106.3757573
20.6300,107.1268345
20.6350,107.8767676
20.6400,108.6249774
20.6450,109.3720093
20.6500,110.1173725
20.6550,110.8605515
20.6600,111.601496
20.6650,112.3395477
20.6700,113.0747971
20.6750,113.8063277
20.6800,114.5341345
20.6850,115.2575141
20.6900,115.9753907
20.6950,116.6876471
20.7000,117.3935568
20.7050,118.0929792
20.7100,118.785156
20.7150,119.4700884
20.7200,120.1478816
20.7250,120.8189177
20.7300,121.483745
20.7350,122.1427641
20.7400,122.7962623
20.7450,123.4443361
20.7500,124.0869357
20.7550,124.7236791
20.7600,125.3550983
20.7650,125.9805864
20.7700,126.6002357
20.7750,127.2147228
20.7800,127.8245131
20.7850,128.4299056
20.7900,129.0306439
20.7950,129.6266173
20.8000,130.217892
20.8050,130.8044501
20.8100,131.3854732
20.8150,131.9607846
20.8200,132.5301926
20.8250,133.0936069
20.8300,133.6511037
20.8350,134.2020171
20.8400,134.7468551
20.8450,135.2856771
20.8500,135.8186174
20.8550,136.3460225
20.8600,136.867534
20.8650,137.38238
20.8700,137.8904674
20.8750,138.3913453
20.8800,138.8844824
20.8850,139.3689719
20.8900,139.8451421
20.8950,140.3128789
20.9000,140.7728229
20.9050,141.2243149
20.9100,141.668193
20.9150,142.1043396
20.9200,142.5336025
20.9250,142.9558795
20.9300,143.3711248
20.9350,143.7791793
20.9400,144.1804745
20.9450,144.5748194
20.9500,144.9626866
20.9550,145.3441991
20.9600,145.7194234
20.9650,146.0892047
20.9700,146.4533922
20.9750,146.8131846
20.9800,147.1685448
20.9850,147.5190882
20.9900,147.8658058
20.9950,148.2091632
21.0000,148.5498994
21.0050,148.8883134
21.0100,149.2246847
21.0150,149.5584582
21.0200,149.8896266
21.0250,150.2174286
21.0300,150.5411284
21.0350,150.8602341
21.0400,151.174353
21.0450,151.483644
21.0500,151.7883031
21.0550,152.0892894
21.0600,152.3868883
21.0650,152.6820562
21.0700,152.9753731
21.0750,153.2673301
21.0800,153.5582607
21.0850,153.8486198
21.0900,154.1387142
21.0950,154.4283258
21.1000,154.716986
21.1050,155.0047376
21.1100,155.2912723
21.1150,155.5763703
21.1200,155.8597357
21.1250,156.1415586
21.1300,156.4224104
21.1350,156.7026683
21.1400,156.9824222
21.1450,157.2615691
21.1500,157.5396923
21.1550,157.81669
21.1600,158.0928248
21.1650,158.3687905
21.1700,158.6446439
21.1750,158.9213061
21.1800,159.1992097
21.1850,159.4789877
21.1900,159.7603898
21.1950,160.0433039
21.2000,160.327413
21.2050,160.6129773
21.2100,160.8997083
21.2150,161.1879517
21.2200,161.4774758
21.2250,161.7683392
21.2300,162.0596111
21.2350,162.3507714
21.2400,162.6412021
21.2450,162.930197
21.2500,163.2168871
21.2550,163.5010105
21.2600,163.7822516
21.2650,164.0603576
21.2700,164.3350832
21.2750,164.6060127
21.2800,164.8726903
21.2850,165.1353691
21.2900,165.3934916
21.2950,165.6467009
21.3000,165.8947868
21.3050,166.1378226
21.3100,166.3756641
21.3150,166.6085083
21.3200,166.8363684
21.3250,167.0594109
21.3300,167.2780481
21.3350,167.4920901
21.3400,167.7019753
21.3450,167.9081702
21.3500,168.1109363
21.3550,168.3102071
21.3600,168.5062613
21.3650,168.6993003
21.3700,168.889053
21.3750,169.0753484
21.3800,169.2578421
21.3850,169.4362145
21.3900,169.6103017
21.3950,169.780141
21.4000,169.9461336
21.4050,170.1082125
21.4100,170.2669578
21.4150,170.4225271
21.4200,170.5751416
21.4250,170.7251136
21.4300,170.8724267
21.4350,171.0172778
21.4400,171.1593
21.4450,171.2984183
21.4500,171.4351396
21.4550,171.5691387
21.4600,171.7006827
21.4650,171.8297921
21.4700,171.9562927
21.4750,172.0801123
21.4800,172.2014684
21.4850,172.3203685
21.4900,172.4371214
21.4950,172.5518269
21.5000,172.6651575
21.5050,172.7769611
21.5100,172.8874381
21.5150,172.9970004
21.5200,173.1052417
21.5250,173.2120433
21.5300,173.3174442
21.5350,173.4218269
21.5400,173.5250873
21.5450,173.6275511
21.5500,173.7291607
21.5550,173.8299224
21.5600,173.9295802
21.5650,174.0279393
21.5700,174.1249925
21.5750,174.2206506
21.5800,174.3148695
21.5850,174.4075639
21.5900,174.4987728
21.5950,174.5885076
21.6000,174.6766117
21.6050,174.762874
21.6100,174.8475059
21.6150,174.9303899
21.6200,175.0115039
21.6250,175.0908797
21.6300,175.1684036
21.6350,175.244388
21.6400,175.3187094
21.6450,175.3911718
21.6500,175.461879
21.6550,175.5310209
21.6600,175.598618
21.6650,175.6646285
21.6700,175.7291336
21.6750,175.7920765
21.6800,175.8532917
21.6850,175.9128184
21.6900,175.9706908
21.6950,176.0270798
21.7000,176.0817884
21.7050,176.1350605
21.7100,176.1866849
21.7150,176.2367515
21.7200,176.2853681
21.7250,176.3321639
21.7300,176.3770337
21.7350,176.4198904
21.7400,176.4609408
21.7450,176.5004731
21.7500,176.5382145
21.7550,176.5745331
21.7600,176.6090631
21.7650,176.6418752
21.7700,176.6732398
21.7750,176.7029954
21.7800,176.7311217
21.7850,176.7578024
21.7900,176.7829322
21.7950,176.8067204
21.8000,176.8288717
21.8050,176.8496298
21.8100,176.8688733
21.8150,176.8863103
21.8200,176.902396
21.8250,176.9169642
21.8300,176.9303565
21.8350,176.9425648
21.8400,176.9536666
21.8450,176.9633019
21.8500,176.9718669
21.8550,176.9791366
21.8600,176.9852508
21.8650,176.9902606
21.8700,176.9942375
21.8750,176.9970601
21.8800,176.9988206
21.8850,176.9995071
21.8900,176.9989213
21.8950,176.9971438
21.9000,176.9939299
21.9050,176.9894609
21.9100,176.9835569
21.9150,176.9761634
21.9200,176.9670382
21.9250,176.9561497
21.9300,176.9434879
21.9350,176.9286752
21.9400,176.9117787
21.9450,176.8927099
21.9500,176.8710907
21.9550,176.846688
21.9600,176.8194232
21.9650,176.7890981
21.9700,176.7556882
21.9750,176.7191231
21.9800,176.6795588
21.9850,176.6369624
21.9900,176.5913001
21.9950,176.5425335
22.0000,176.4906728
22.0050,176.4357188
22.0100,176.3776771
22.0150,176.3166534
22.0200,176.252393
22.0250,176.1851177
22.0300,176.1147908
22.0350,176.0415394
22.0400,175.9654253
22.0450,175.8863115
22.0500,175.8043225
22.0550,175.7193949
22.0600,175.6317294
22.0650,175.5410714
22.0700,175.4473739
22.0750,175.3507773
22.0800,175.2510106
22.0850,175.1479718
22.0900,175.0415789
22.0950,174.9318727
22.1000,174.8186442
22.1050,174.7018521
22.1100,174.5815696
22.1150,174.4576916
22.1200,174.3301983
22.1250,174.199052
22.1300,174.0641765
22.1350,173.925342
22.1400,173.7826203
22.1450,173.6360351
22.1500,173.4853195
22.1550,173.3305546
22.1600,173.1716618
22.1650,173.008761
22.1700,172.8416538
22.1750,172.6705748
22.1800,172.4954912
22.1850,172.31657
22.1900,172.1341153
22.1950,171.9478682
22.2000,171.758402
22.2050,171.5656309
22.2100,171.3696119
22.2150,171.1704809
22.2200,170.9687087
22.2250,170.7644206
22.2300,170.5574861
22.2350,170.3484955
22.2400,170.1375808
22.2450,169.9247893
22.2500,169.710575
22.2550,169.4950261
22.2600,169.2784188
22.2650,169.0606529
22.2700,168.8421121
22.2750,168.6226024
22.2800,168.4023019
22.2850,168.1811693
22.2900,167.9593241
22.2950,167.736596
22.3000,167.5132658
22.3050,167.2892047
22.3100,167.0647301
22.3150,166.8398872
22.3200,166.6148038
22.3250,166.3893458
22.3300,166.1637568
22.3350,165.9377814
22.3400,165.7113358
22.3450,165.4844301
22.3500,165.2571754
22.3550,165.0293807
22.3600,164.800813
22.3650,164.5714421
22.3700,164.341134
22.3750,164.1097862
22.3800,163.8774346
22.3850,163.6439278
22.3900,163.4091085
22.3950,163.1727294
22.4000,162.9348218
22.4050,162.6952363
22.4100,162.4536333
22.4150,162.2099126
22.4200,161.9640612
22.4250,161.7161238
22.4300,161.4659959
22.4350,161.2135517
22.4400,160.9586586
22.4450,160.7011545
22.4500,160.4409693
22.4550,160.1780144
22.4600,159.9125385
22.4650,159.6445589
22.4700,159.3742698
22.4750,159.101315
22.4800,158.8259484
22.4850,158.548006
22.4900,158.2674527
22.4950,157.9843193
22.5000,157.6981427
22.5050,157.4088947
22.5100,157.1165686
22.5150,156.821094
22.5200,156.5223087
22.5250,156.2202232
22.5300,155.9151218
22.5350,155.6068642
22.5400,155.2951658
22.5450,154.9805342
22.5500,154.6625786
22.5550,154.341302
22.5600,154.0167258
22.5650,153.6890563
22.5700,153.3578574
22.5750,153.0235588
22.5800,152.6858638
22.5850,152.3450905
22.5900,152.0012178
22.5950,151.6545841
22.6000,151.3051331
22.6050,150.9534961
22.6100,150.5995939
22.6150,150.2433549
22.6200,149.8852944
22.6250,149.5255805
22.6300,149.1644498
22.6350,148.80213
22.6400,148.4388355
22.6450,148.0743374
22.6500,147.7085844
22.6550,147.3414288
22.6600,146.9730498
22.6650,146.6034377
22.6700,146.2327448
22.6750,145.8605349
22.6800,145.4870091
22.6850,145.1122687
22.6900,144.7363424
22.6950,144.3589022
22.7000,143.9799995
22.7050,143.5991786
22.7100,143.2163312
22.7150,142.8312547
22.7200,142.4436234
22.7250,142.0533844
22.7300,141.6607139
22.7350,141.2657852
22.7400,140.8684853
22.7450,140.4690046
22.7500,140.0673311
22.7550,139.6634608
22.7600,139.2571955
22.7650,138.8485291
22.7700,138.4374229
22.7750,138.0236408
22.7800,137.6070712
22.7850,137.1872716
22.7900,136.7638918
22.7950,136.3370727
22.8000,135.9069065
22.8050,135.4731301
22.8100,135.035658
22.8150,134.5942486
22.8200,134.1488893
22.8250,133.6991855
22.8300,133.2451699
22.8350,132.7865333
22.8400,132.3232406
22.8450,131.8546266
22.8500,131.3806015
22.8550,130.9007376
22.8600,130.4143788
22.8650,129.9213889
22.8700,129.4215811
22.8750,128.9146059
22.8800,128.4001271
22.8850,127.8779827
22.8900,127.348106
22.8950,126.8103121
22.9000,126.2641837
22.9050,125.7095554
22.9100,125.1464828
22.9150,124.5749679
22.9200,123.9947323
22.9250,123.4055967
22.9300,122.8075819
22.9350,122.2007125
22.9400,121.5849747
22.9450,120.9606284
22.9500,120.327626
22.9550,119.6863134
22.9600,119.0368543
22.9650,118.3793793
22.9700,117.7136417
22.9750,117.0402453
22.9800,116.3592524
22.9850,115.6705097
22.9900,114.9741472
22.9950,114.2703171
23.0000,113.5591628
23.0050,112.8409856
23.0100,112.1160138
23.0150,111.3845364
23.0200,110.6467762
23.0250,109.9031829
23.0300,109.1532721
23.0350,108.3974589
23.0400,107.6362442
23.0450,106.869529
23.0500,106.0972185
23.0550,105.3199834
23.0600,104.5375945
23.0650,103.7502138
23.0700,102.9583661
23.0750,102.162358
23.0800,101.3626894
23.0850,100.5598694
23.0900,99.75423516
23.0950,98.94546586
23.1000,98.13390916
23.1050,97.32011205
23.1100,96.50404508
23.1150,95.68638192
23.1200,94.86737316
23.1250,94.04748941
23.1300,93.22718864
23.1350,92.4070087
23.1400,91.58713683
23.1450,90.76825354
23.1500,89.95061218
23.1550,89.1353205
23.1600,88.32228761
23.1650,87.51175202
23.1700,86.70366542
23.1750,85.8984882
23.1800,85.09651742
23.1850,84.29784279
23.1900,83.50245136
23.1950,82.71063875
23.2000,81.92271538
23.2050,81.1385587
23.2100,80.35799795
23.2150,79.58137055
23.2200,78.80868334
23.2250,78.04015259
23.2300,77.27554236
23.2350,76.51486088
23.2400,75.75815497
23.2450,75.00577604
23.2500,74.2574861
23.2550,73.51359011
23.2600,72.77412159
23.2650,72.03910614
23.2700,71.30876727
23.2750,70.5831845
23.2800,69.86234113
23.2850,69.14624736
23.2900,68.43521554
23.2950,67.7290375
23.3000,67.02809386
23.3050,66.33285441
23.3100,65.64401584
23.3150,64.96167992
23.3200,64.28597057
23.3250,63.61691819
23.3300,62.95504161
23.3350,62.29997491
23.3400,61.65153047
23.3450,61.00994917
23.3500,60.37511593
23.3550,59.74681416
23.3600,59.12548993
23.3650,58.51151289
23.3700,57.90443528
23.3750,57.3042104
23.3800,56.71106723
23.3850,56.1249394
23.3900,55.54600892
23.3950,54.9745397
23.4000,54.41015295
23.4050,53.8523521
23.4100,53.30094715
23.4150,52.75533904
23.4200,52.21556076
23.4250,51.68161657
23.4300,51.15390516
23.4350,50.63224603
23.4400,50.11650106
23.4450,49.60648871
23.4500,49.10193935
23.4550,48.60259356
23.4600,48.10865023
23.4650,47.61965249
23.4700,47.1350201
23.4750,46.65439879
23.4800,46.17762413
23.4850,45.70445428
23.4900,45.2349778
23.4950,44.76862803
23.5000,44.30516895
23.5050,43.84463711
23.5100,43.38729293
23.5150,42.933118
23.5200,42.4821007
23.5250,42.03410074
23.5300,41.58913341
23.5350,41.14735445
23.5400,40.70865003
23.5450,40.27281179
23.5500,39.83981629
23.5550,39.4097702
23.5600,38.98269078
23.5650,38.55877551
23.5700,38.13794714
23.5750,37.72011638
23.5800,37.30568998
23.5850,36.89475985
23.5900,36.48750832
23.5950,36.08428711
23.6000,35.68511748
23.6050,35.28989239
23.6100,34.89849529
23.6150,34.51097343
23.6200,34.12732683
23.6250,33.74762576
23.6300,33.37184667
23.6350,33.00035757
23.6400,32.6333278
23.6450,32.27079642
23.6500,31.91286803
23.6550,31.55987906
23.6600,31.21174027
23.6650,30.86878418
23.6700,30.53152413
23.6750,30.19995895
23.6800,29.8739426
23.6850,29.55389884
23.6900,29.23931495
23.6950,28.93005651
23.7000,28.62590848
23.7050,28.3267557
23.7100,28.03226303
23.7150,27.7426925
23.7200,27.45748542
23.7250,27.17646963
23.7300,26.89910007
23.7350,26.62538354
23.7400,26.35537425
23.7450,26.08905173
23.7500,25.82620495
23.7550,25.56648575
23.7600,25.30979398
23.7650,25.05583666
23.7700,24.8045419
23.7750,24.55565471
23.7800,24.30891478
23.7850,24.06418205
23.7900,23.82129931
23.7950,23.58043572
23.8000,23.34161747
23.8050,23.10478397
23.8100,22.86957361
23.8150,22.63621323
23.8200,22.40467159
23.8250,22.17471073
23.8300,21.94678809
23.8350,21.72071026
23.8400,21.4968715
23.8450,21.27501607
23.8500,21.05533973
23.8550,20.8375989
23.8600,20.62183514
23.8650,20.40768794
23.8700,20.1952731
23.8750,19.9845148
23.8800,19.77567982
23.8850,19.568664
23.8900,19.36346824
23.8950,19.1600542
23.9000,18.95837568
23.9050,18.75861489
23.9100,18.56080284
23.9150,18.36479113
23.9200,18.17072805
23.9250,17.97845679
23.9300,17.78798188
23.9350,17.59901302
23.9400,17.4116297
23.9450,17.22589393
23.9500,17.04198157
23.9550,16.85999965
23.9600,16.68014574
23.9650,16.5023555
23.9700,16.3265908
23.9750,16.15308219
23.9800,15.98183967
23.9850,15.81256613
23.9900,15.64535339
23.9950,15.48004533
24.0000,15.31674815
24.0050,15.1550881
24.0100,14.9951294
24.0150,14.8365163
24.0200,14.67928538
24.0250,14.52340438
24.0300,14.36890681
24.0350,14.21548645
24.0400,14.06312174
24.0450,13.91158562
24.0500,13.76094663
24.0550,13.61086318
24.0600,13.46130848
24.0650,13.31240502
24.0700,13.16394377
24.0750,13.01597903
24.0800,12.86824547
24.0850,12.7206991
24.0900,12.57349257
24.0950,12.42653769
24.1000,12.27970492
24.1050,12.13290245
24.1100,11.98626824
24.1150,11.83951418
24.1200,11.69259366
24.1250,11.54555456
24.1300,11.39800682
24.1350,11.25008886
24.1400,11.10136342
24.1450,10.95219111
24.1500,10.802492
24.1550,10.65229273
24.1600,10.50170455
24.1650,10.3509004
24.1700,10.19989245
24.1750,10.04903321
24.1800,9.898154079
24.1850,9.747824068
24.1900,9.598137166
24.1950,9.449156091
24.2000,9.301060586
24.2050,9.153794871
24.2100,9.007582033
24.2150,8.862484335
24.2200,8.718658849
24.2250,8.576259659
24.2300,8.435248925
24.2350,8.295703884
24.2400,8.157618713
24.2450,8.020860234
24.2500,7.885389823
24.2550,7.75106728
24.2600,7.617749871
24.2650,7.485570348
24.2700,7.35432185
24.2750,7.223983062
24.2800,7.094501987
24.2850,6.965930275
24.2900,6.838441052
24.2950,6.711893936
24.3000,6.586273788
24.3050,6.461862587
24.3100,6.338568294
24.3150,6.216354396
24.3200,6.095489193
24.3250,5.976054227
24.3300,5.858206832
24.3350,5.742226936
24.3400,5.628152058
24.3450,5.516094113
24.3500,5.406229318
24.3550,5.298845677
24.3600,5.193767377
24.3650,5.091031482
24.3700,4.990791543
24.3750,4.893193636
24.3800,4.798348627
24.3850,4.706280481
24.3900,4.617009358
24.3950,4.53050867
24.4000,4.447105745
24.4050,4.366842732
24.4100,4.289712661
24.4150,4.215694625
24.4200,4.144785045
24.4250,4.076928321
24.4300,4.012167852
24.4350,3.950454292
24.4400,3.891982288
24.4450,3.836514113
24.4500,3.784097318
24.4550,3.734734948
24.4600,3.688217248
24.4650,3.644551543
24.4700,3.603819527
24.4750,3.565681598
24.4800,3.530109964
24.4850,3.496856981
24.4900,3.465735216
24.4950,3.436572728
24.5000,3.40921457
24.5050,3.383555359
24.5100,3.359321017
24.5150,3.336501293
24.5200,3.314943606
24.5250,3.294430673
24.5300,3.274865556
24.5350,3.256151603
24.5400,3.238315628
24.5450,3.221176924
24.5500,3.204838554
24.5550,3.189042741
24.5600,3.173701768
24.5650,3.158572235
24.5700,3.143731963
24.5750,3.128910376
24.5800,3.114105165
24.5850,3.099217558
24.5900,3.083977455
24.5950,3.068589087
24.6000,3.052758584
24.6050,3.036229534
24.6100,3.018923274
24.6150,3.001007707
24.6200,2.98211611
24.6250,2.962409989
24.6300,2.941887963
24.6350,2.920644422
24.6400,2.898947023
24.6450,2.876922804
24.6500,2.854676928
24.6550,2.832322407
24.6600,2.81018943
24.6650,2.788201279
24.6700,2.766513843
24.6750,2.745332334
24.6800,2.724824235
24.6850,2.705229936
24.6900,2.686564776
24.6950,2.669026261
24.7000,2.652582949
24.7050,2.637500756
24.7100,2.624005845
24.7150,2.612148232
24.7200,2.602058455
24.7250,2.594005398
24.7300,2.5880711
24.7350,2.58445145
24.7400,2.58314764
24.7450,2.584211056
24.7500,2.587686838
24.7550,2.593741362
24.7600,2.60255563
24.7650,2.614376482
24.7700,2.629245215
24.7750,2.64741064
24.7800,2.669010197
24.7850,2.693918297
24.7900,2.722308439
24.7950,2.754309546
24.8000,2.789725659
24.8050,2.828647811
24.8100,2.871181855
24.8150,2.917368848
24.8200,2.967340458
24.8250,3.021249035
24.8300,3.079401903
24.8350,3.142147584
24.8400,3.209264595
24.8450,3.281008519
24.8500,3.357349897
24.8550,3.438476683
24.8600,3.524785826
24.8650,3.616386957
24.8700,3.713400994
24.8750,3.81622731
24.8800,3.924998407
24.8850,4.039992472
24.8900,4.161315144
24.8950,4.288819287
24.9000,4.422876133
24.9050,4.563831915
24.9100,4.71164689
24.9150,4.866424695
24.9200,5.028313871
24.9250,5.197120339
24.9300,5.372999885
24.9350,5.556091699
24.9400,5.746482429
24.9450,5.94415401
24.9500,6.149253176
24.9550,6.361891739
24.9600,6.582192638
24.9650,6.81066864
24.9700,7.04714526
24.9750,7.291701775
24.9800,7.544428371
24.9850,7.805125754
24.9900,8.073936916
24.9950,8.350876873
25.0000,8.635887949
25.0050,8.928664123
25.0100,9.22893463
25.0150,9.536339671
25.0200,9.850307562
25.0250,10.17048632
25.0300,10.49645925
25.0350,10.82751363
25.0400,11.16324458
25.0450,11.5033
25.0500,11.84699431
25.0550,12.19397704
25.0600,12.54374772
25.0650,12.89568947
25.0700,13.24939057
25.0750,13.60437556
25.0800,13.96007219
25.0850,14.31630739
25.0900,14.67257083
25.0950,15.02850376
25.1000,15.38391128
25.1050,15.73893342
25.1100,16.09308323
25.1150,16.44634699
25.1200,16.79844091
25.1250,17.14919245
25.1300,17.49812944
25.1350,17.84525041
25.1400,18.19067298
25.1450,18.53429558
25.1500,18.87621311
25.1550,19.21646884
25.1600,19.55500082
25.1650,19.89185882
25.1700,20.22722255
25.1750,20.56117507
25.1800,20.89354941
25.1850,21.22417855
25.1900,21.55319359
25.1950,21.88059459
25.2000,22.20616136
25.2050,22.52980417
25.2100,22.8518773
25.2150,23.17227431
25.2200,23.49123337
25.2250,23.80881722
25.2300,24.12467323
25.2350,24.43873058
25.2400,24.75092068
25.2450,25.06128372
25.2500,25.36966718
25.2550,25.67641815
25.2600,25.98150605
25.2650,26.28494087
25.2700,26.58698985
25.2750,26.88762865
25.2800,27.18724792
25.2850,27.48613681
25.2900,27.78458006
25.2950,28.08288345
25.3000,28.38128504
25.3050,28.68023536
25.3100,28.98020858
25.3150,29.28193195
25.3200,29.58647885
25.3250,29.89436486
25.3300,30.20661861
25.3350,30.5242175
25.3400,30.84787351
25.3450,31.17861764
25.3500,31.51797186
25.3550,31.86690883
25.3600,32.22683009
25.3650,32.59922786
25.3700,32.98557581
25.3750,33.38769058
25.3800,33.80751625
25.3850,34.24663313
25.3900,34.70688724
25.3950,35.19035726
25.4000,35.69881018
25.4050,36.23335705
25.4100,36.79528993
25.4150,37.01381192
25.4200,37.25466524
25.4250,37.51709007
25.4300,37.79993946
25.4350,38.10173964
25.4400,38.42073926
25.4450,38.75494863
25.4500,39.10216951
25.4550,39.46001636
25.4600,39.82593067
25.4650,40.19719061
25.4700,40.57091896
25.4750,40.94409293
25.4800,41.31355921
25.4850,41.6760571
25.4900,42.02824993
25.4950,42.36676575
25.5000,42.68825013
25.5050,42.98943403
25.5100,43.26721746
25.5150,43.51877001
25.5200,43.74164892
25.5250,43.93393576
25.5300,44.09439177
25.5350,44.22263048
