type,name,time_units,begin_time,frequency,count,units
signal,"Noraxon Ultium-RT BICEPS BR.","s",0.00000,2000,51080,"uV"

time,value
0.00000,3.414181318
0.00050,2.498598094
0.00100,1.888209279
0.00150,1.277820464
0.00200,0.6674316482
0.00250,0.3622372405
0.00300,1.277820464
0.00350,1.277820464
0.00400,0.05704283282
0.00450,-1.163734798
0.00500,-0.5533459826
0.00550,1.583014871
0.00600,2.803792502
0.00650,2.193403687
0.00700,0.05704283282
0.00750,-1.163734798
0.00800,-1.468929206
0.00850,-0.2481515749
0.00900,0.9726260559
0.00950,2.498598094
0.01000,2.498598094
0.01050,1.888209279
0.01100,1.888209279
0.01150,2.498598094
0.01200,2.193403687
0.01250,1.277820464
0.01300,0.3622372405
0.01350,0.05704283282
0.01400,0.3622372405
0.01450,0.9726260559
0.01500,1.583014871
0.01550,1.277820464
0.01600,0.6674316482
0.01650,0.05704283282
0.01700,0.05704283282
0.01750,0.05704283282
0.01800,1.277820464
0.01850,2.803792502
0.01900,3.719375725
0.01950,4.329764541
0.02000,3.719375725
0.02050,3.10898691
0.02100,2.498598094
0.02150,1.888209279
0.02200,1.583014871
0.02250,1.583014871
0.02300,2.193403687
0.02350,2.193403687
0.02400,1.583014871
0.02450,0.3622372405
0.02500,-0.2481515749
0.02550,-0.5533459826
0.02600,0.05704283282
0.02650,1.583014871
0.02700,2.193403687
0.02750,0.9726260559
0.02800,0.05704283282
0.02850,0.3622372405
0.02900,1.888209279
0.02950,1.888209279
0.03000,0.3622372405
0.03050,0.05704283282
0.03100,0.6674316482
0.03150,1.583014871
0.03200,0.9726260559
0.03250,0.3622372405
0.03300,1.277820464
0.03350,2.193403687
0.03400,1.583014871
0.03450,0.6674316482
0.03500,1.888209279
0.03550,4.329764541
0.03600,4.940153356
0.03650,3.414181318
0.03700,0.9726260559
0.03750,-0.2481515749
0.03800,-0.2481515749
0.03850,0.05704283282
0.03900,0.9726260559
0.03950,1.277820464
0.04000,0.9726260559
0.04050,0.3622372405
0.04100,0.3622372405
0.04150,0.9726260559
0.04200,1.277820464
0.04250,1.277820464
0.04300,0.6674316482
0.04350,0.05704283282
0.04400,-0.5533459826
0.04450,-0.2481515749
0.04500,0.9726260559
0.04550,1.888209279
0.04600,0.9726260559
0.04650,-0.2481515749
0.04700,-0.2481515749
0.04750,0.3622372405
0.04800,0.05704283282
0.04850,-0.8585403903
0.04900,-1.774123613
0.04950,-1.774123613
0.05000,-2.384512429
0.05050,-2.689706836
0.05100,-2.079318021
0.05150,-1.163734798
0.05200,0.05704283282
0.05250,1.277820464
0.05300,3.10898691
0.05350,4.024570133
0.05400,3.10898691
0.05450,1.583014871
0.05500,1.583014871
0.05550,3.10898691
0.05600,4.329764541
0.05650,4.024570133
0.05700,4.024570133
0.05750,4.024570133
0.05800,3.719375725
0.05850,3.10898691
0.05900,3.414181318
0.05950,3.414181318
0.06000,2.193403687
0.06050,0.3622372405
0.06100,0.05704283282
0.06150,1.583014871
0.06200,2.193403687
0.06250,1.277820464
0.06300,0.6674316482
0.06350,1.277820464
0.06400,1.888209279
0.06450,0.6674316482
0.06500,-1.163734798
0.06550,-1.468929206
0.06600,-0.5533459826
0.06650,-0.2481515749
0.06700,-0.5533459826
0.06750,-1.163734798
0.06800,-1.163734798
0.06850,-1.774123613
0.06900,-2.689706836
0.06950,-2.994901244
0.07000,-2.994901244
0.07050,-2.994901244
0.07100,-3.60529006
0.07150,-3.300095652
0.07200,-1.774123613
0.07250,-0.5533459826
0.07300,0.05704283282
0.07350,0.3622372405
0.07400,0.9726260559
0.07450,1.277820464
0.07500,0.9726260559
0.07550,0.6674316482
0.07600,0.05704283282
0.07650,0.05704283282
0.07700,-0.5533459826
0.07750,-0.8585403903
0.07800,-0.5533459826
0.07850,-0.5533459826
0.07900,-0.8585403903
0.07950,-1.163734798
0.08000,-1.163734798
0.08050,-0.8585403903
0.08100,-0.2481515749
0.08150,0.3622372405
0.08200,1.277820464
0.08250,0.9726260559
0.08300,-0.2481515749
0.08350,-1.468929206
0.08400,-2.079318021
0.08450,-2.689706836
0.08500,-2.689706836
0.08550,-1.774123613
0.08600,-0.5533459826
0.08650,-0.2481515749
0.08700,-1.468929206
0.08750,-1.774123613
0.08800,-0.5533459826
0.08850,0.3622372405
0.08900,0.05704283282
0.08950,-1.163734798
0.09000,-2.079318021
0.09050,-1.774123613
0.09100,-1.468929206
0.09150,-1.774123613
0.09200,-2.079318021
0.09250,-1.468929206
0.09300,-0.5533459826
0.09350,-0.2481515749
0.09400,-0.8585403903
0.09450,-0.5533459826
0.09500,0.05704283282
0.09550,0.6674316482
0.09600,0.3622372405
0.09650,-0.2481515749
0.09700,-0.5533459826
0.09750,-0.2481515749
0.09800,-0.2481515749
0.09850,-0.5533459826
0.09900,-0.5533459826
0.09950,0.05704283282
0.10000,0.05704283282
0.10050,-0.8585403903
0.10100,-2.384512429
0.10150,-2.384512429
0.10200,-1.468929206
0.10250,0.05704283282
0.10300,0.6674316482
0.10350,1.277820464
0.10400,0.9726260559
0.10450,0.05704283282
0.10500,0.05704283282
0.10550,0.3622372405
0.10600,0.3622372405
0.10650,0.05704283282
0.10700,0.05704283282
0.10750,0.6674316482
0.10800,1.277820464
0.10850,0.3622372405
0.10900,-0.5533459826
0.10950,-0.8585403903
0.11000,-0.5533459826
0.11050,-1.163734798
0.11100,-2.384512429
0.11150,-2.689706836
0.11200,-2.384512429
0.11250,-2.079318021
0.11300,-2.079318021
0.11350,-1.774123613
0.11400,-0.8585403903
0.11450,0.05704283282
0.11500,0.6674316482
0.11550,1.888209279
0.11600,2.193403687
0.11650,1.583014871
0.11700,0.9726260559
0.11750,1.583014871
0.11800,1.888209279
0.11850,1.277820464
0.11900,0.3622372405
0.11950,0.3622372405
0.12000,0.9726260559
0.12050,0.3622372405
0.12100,-0.5533459826
0.12150,-0.5533459826
0.12200,0.05704283282
0.12250,0.3622372405
0.12300,-0.8585403903
0.12350,-1.774123613
0.12400,-1.468929206
0.12450,-0.5533459826
0.12500,-1.163734798
0.12550,-2.689706836
0.12600,-2.994901244
0.12650,-1.468929206
0.12700,0.05704283282
0.12750,0.05704283282
0.12800,-0.2481515749
0.12850,-0.8585403903
0.12900,-0.8585403903
0.12950,-1.468929206
0.13000,-1.774123613
0.13050,-1.774123613
0.13100,-1.163734798
0.13150,-1.163734798
0.13200,-2.384512429
0.13250,-3.60529006
0.13300,-3.910484467
0.13350,-3.60529006
0.13400,-4.520873283
0.13450,-5.741650914
0.13500,-6.352039729
0.13550,-5.131262098
0.13600,-3.60529006
0.13650,-3.300095652
0.13700,-3.60529006
0.13750,-3.60529006
0.13800,-2.994901244
0.13850,-3.300095652
0.13900,-4.215678875
0.13950,-4.520873283
0.14000,-3.60529006
0.14050,-2.689706836
0.14100,-3.300095652
0.14150,-4.520873283
0.14200,-5.131262098
0.14250,-5.436456506
0.14300,-4.82606769
0.14350,-3.300095652
0.14400,-1.163734798
0.14450,0.3622372405
0.14500,0.6674316482
0.14550,0.05704283282
0.14600,0.6674316482
0.14650,1.583014871
0.14700,1.277820464
0.14750,0.05704283282
0.14800,-0.8585403903
0.14850,-0.2481515749
0.14900,0.3622372405
0.14950,0.05704283282
0.15000,-1.163734798
0.15050,-2.079318021
0.15100,-2.079318021
0.15150,-2.384512429
0.15200,-2.994901244
0.15250,-2.994901244
0.15300,-2.689706836
0.15350,-1.774123613
0.15400,-0.8585403903
0.15450,0.05704283282
0.15500,0.6674316482
0.15550,0.9726260559
0.15600,0.6674316482
0.15650,0.3622372405
0.15700,0.05704283282
0.15750,-0.5533459826
0.15800,-0.2481515749
0.15850,0.05704283282
0.15900,0.05704283282
0.15950,-1.468929206
0.16000,-2.994901244
0.16050,-3.300095652
0.16100,-3.300095652
0.16150,-3.60529006
0.16200,-3.910484467
0.16250,-3.60529006
0.16300,-2.079318021
0.16350,-1.468929206
0.16400,-1.468929206
0.16450,-2.079318021
0.16500,-2.079318021
0.16550,-1.468929206
0.16600,-1.774123613
0.16650,-2.079318021
0.16700,-2.384512429
0.16750,-1.163734798
0.16800,0.6674316482
0.16850,1.583014871
0.16900,0.9726260559
0.16950,0.3622372405
0.17000,0.9726260559
0.17050,2.498598094
0.17100,3.414181318
0.17150,3.10898691
0.17200,2.193403687
0.17250,1.277820464
0.17300,1.277820464
0.17350,1.583014871
0.17400,2.803792502
0.17450,4.634958948
0.17500,4.940153356
0.17550,4.024570133
0.17600,2.193403687
0.17650,0.6674316482
0.17700,0.3622372405
0.17750,0.05704283282
0.17800,-1.163734798
0.17850,-3.300095652
0.17900,-5.131262098
0.17950,-4.520873283
0.18000,-2.384512429
0.18050,-0.5533459826
0.18100,-0.5533459826
0.18150,-1.163734798
0.18200,-2.079318021
0.18250,-2.384512429
0.18300,-1.774123613
0.18350,-0.5533459826
0.18400,1.277820464
0.18450,2.498598094
0.18500,1.888209279
0.18550,1.277820464
0.18600,1.277820464
0.18650,1.583014871
0.18700,1.277820464
0.18750,0.05704283282
0.18800,-0.2481515749
0.18850,0.05704283282
0.18900,0.05704283282
0.18950,0.05704283282
0.19000,0.3622372405
0.19050,0.9726260559
0.19100,1.583014871
0.19150,0.9726260559
0.19200,0.05704283282
0.19250,-0.5533459826
0.19300,-0.5533459826
0.19350,-0.2481515749
0.19400,-0.2481515749
0.19450,-0.5533459826
0.19500,-0.2481515749
0.19550,0.3622372405
0.19600,1.888209279
0.19650,2.803792502
0.19700,2.498598094
0.19750,2.193403687
0.19800,2.193403687
0.19850,2.193403687
0.19900,1.583014871
0.19950,0.6674316482
0.20000,0.05704283282
0.20050,0.05704283282
0.20100,0.05704283282
0.20150,0.05704283282
0.20200,0.05704283282
0.20250,-0.2481515749
0.20300,-1.163734798
0.20350,-1.774123613
0.20400,-2.079318021
0.20450,-2.079318021
0.20500,-2.384512429
0.20550,-2.689706836
0.20600,-2.079318021
0.20650,-1.468929206
0.20700,-1.774123613
0.20750,-2.079318021
0.20800,-1.163734798
0.20850,0.05704283282
0.20900,0.05704283282
0.20950,0.05704283282
0.21000,2.498598094
0.21050,5.550542171
0.21100,5.855736579
0.21150,3.719375725
0.21200,1.583014871
0.21250,1.583014871
0.21300,2.193403687
0.21350,1.277820464
0.21400,-0.2481515749
0.21450,-0.8585403903
0.21500,0.05704283282
0.21550,0.3622372405
0.21600,0.6674316482
0.21650,0.05704283282
0.21700,-0.2481515749
0.21750,-0.2481515749
0.21800,0.6674316482
0.21850,1.583014871
0.21900,1.888209279
0.21950,1.277820464
0.22000,0.9726260559
0.22050,0.9726260559
0.22100,0.3622372405
0.22150,-0.2481515749
0.22200,-1.468929206
0.22250,-1.774123613
0.22300,-1.468929206
0.22350,-0.8585403903
0.22400,-0.5533459826
0.22450,-0.5533459826
0.22500,-1.163734798
0.22550,-2.079318021
0.22600,-2.689706836
0.22650,-2.994901244
0.22700,-2.689706836
0.22750,-2.994901244
0.22800,-2.689706836
0.22850,-2.079318021
0.22900,-1.468929206
0.22950,-1.468929206
0.23000,-1.774123613
0.23050,-2.079318021
0.23100,-2.384512429
0.23150,-1.774123613
0.23200,-0.8585403903
0.23250,0.05704283282
0.23300,0.3622372405
0.23350,-0.2481515749
0.23400,-0.8585403903
0.23450,-0.8585403903
0.23500,-0.8585403903
0.23550,-1.774123613
0.23600,-3.300095652
0.23650,-3.300095652
0.23700,-2.689706836
0.23750,-2.994901244
0.23800,-4.215678875
0.23850,-5.131262098
0.23900,-5.436456506
0.23950,-5.131262098
0.24000,-5.436456506
0.24050,-5.436456506
0.24100,-4.520873283
0.24150,-3.300095652
0.24200,-1.774123613
0.24250,0.05704283282
0.24300,1.277820464
0.24350,0.6674316482
0.24400,-0.8585403903
0.24450,-1.774123613
0.24500,-1.774123613
0.24550,-1.468929206
0.24600,-2.384512429
0.24650,-2.994901244
0.24700,-2.689706836
0.24750,-2.689706836
0.24800,-2.994901244
0.24850,-3.300095652
0.24900,-1.774123613
0.24950,0.3622372405
0.25000,2.498598094
0.25050,3.719375725
0.25100,4.634958948
0.25150,4.940153356
0.25200,4.940153356
0.25250,4.634958948
0.25300,4.634958948
0.25350,4.634958948
0.25400,4.634958948
0.25450,4.024570133
0.25500,2.803792502
0.25550,1.888209279
0.25600,2.193403687
0.25650,4.024570133
0.25700,4.940153356
0.25750,3.414181318
0.25800,2.193403687
0.25850,3.10898691
0.25900,5.245347764
0.25950,5.245347764
0.26000,3.10898691
0.26050,1.888209279
0.26100,2.193403687
0.26150,1.888209279
0.26200,0.6674316482
0.26250,0.05704283282
0.26300,1.277820464
0.26350,2.498598094
0.26400,1.888209279
0.26450,1.277820464
0.26500,1.583014871
0.26550,2.498598094
0.26600,2.193403687
0.26650,0.9726260559
0.26700,0.3622372405
0.26750,0.05704283282
0.26800,0.3622372405
0.26850,1.277820464
0.26900,1.888209279
0.26950,1.277820464
0.27000,0.3622372405
0.27050,0.3622372405
0.27100,1.277820464
0.27150,1.888209279
0.27200,1.277820464
0.27250,0.6674316482
0.27300,0.9726260559
0.27350,1.583014871
0.27400,1.583014871
0.27450,1.277820464
0.27500,0.9726260559
0.27550,0.6674316482
0.27600,0.3622372405
0.27650,0.3622372405
0.27700,0.6674316482
0.27750,0.9726260559
0.27800,0.05704283282
0.27850,-0.5533459826
0.27900,-0.5533459826
0.27950,-0.2481515749
0.28000,0.05704283282
0.28050,0.6674316482
0.28100,1.277820464
0.28150,1.583014871
0.28200,1.277820464
0.28250,0.6674316482
0.28300,0.05704283282
0.28350,0.05704283282
0.28400,0.05704283282
0.28450,0.05704283282
0.28500,-0.2481515749
0.28550,-0.5533459826
0.28600,0.05704283282
0.28650,0.6674316482
0.28700,1.583014871
0.28750,2.803792502
0.28800,3.10898691
0.28850,2.498598094
0.28900,1.583014871
0.28950,0.9726260559
0.29000,2.193403687
0.29050,3.719375725
0.29100,3.719375725
0.29150,2.803792502
0.29200,2.498598094
0.29250,3.10898691
0.29300,3.414181318
0.29350,2.498598094
0.29400,2.193403687
0.29450,2.498598094
0.29500,2.803792502
0.29550,2.498598094
0.29600,2.803792502
0.29650,3.719375725
0.29700,3.719375725
0.29750,2.498598094
0.29800,1.277820464
0.29850,1.583014871
0.29900,1.583014871
0.29950,0.9726260559
0.30000,0.6674316482
0.30050,1.583014871
0.30100,1.888209279
0.30150,0.3622372405
0.30200,-0.5533459826
0.30250,0.3622372405
0.30300,2.498598094
0.30350,2.498598094
0.30400,0.6674316482
0.30450,0.6674316482
0.30500,2.193403687
0.30550,2.803792502
0.30600,2.193403687
0.30650,2.193403687
0.30700,2.498598094
0.30750,2.193403687
0.30800,0.9726260559
0.30850,0.9726260559
0.30900,2.193403687
0.30950,2.193403687
0.31000,-0.2481515749
0.31050,-2.384512429
0.31100,-1.163734798
0.31150,0.9726260559
0.31200,1.277820464
0.31250,0.3622372405
0.31300,1.277820464
0.31350,4.024570133
0.31400,5.550542171
0.31450,4.329764541
0.31500,2.193403687
0.31550,1.888209279
0.31600,2.803792502
0.31650,4.024570133
0.31700,4.940153356
0.31750,5.855736579
0.31800,5.550542171
0.31850,4.024570133
0.31900,2.498598094
0.31950,2.803792502
0.32000,3.719375725
0.32050,2.803792502
0.32100,0.9726260559
0.32150,0.05704283282
0.32200,0.3622372405
0.32250,0.6674316482
0.32300,0.3622372405
0.32350,0.05704283282
0.32400,0.05704283282
0.32450,0.05704283282
0.32500,0.05704283282
0.32550,-0.2481515749
0.32600,-0.2481515749
0.32650,-0.5533459826
0.32700,-1.163734798
0.32750,-2.384512429
0.32800,-2.384512429
0.32850,-1.468929206
0.32900,-0.2481515749
0.32950,0.6674316482
0.33000,2.193403687
0.33050,3.719375725
0.33100,4.329764541
0.33150,3.414181318
0.33200,1.888209279
0.33250,0.3622372405
0.33300,0.05704283282
0.33350,-0.2481515749
0.33400,-0.5533459826
0.33450,-0.8585403903
0.33500,-1.163734798
0.33550,-0.2481515749
0.33600,0.9726260559
0.33650,2.498598094
0.33700,3.10898691
0.33750,2.498598094
0.33800,0.9726260559
0.33850,0.05704283282
0.33900,0.05704283282
0.33950,-0.5533459826
0.34000,-1.468929206
0.34050,-2.079318021
0.34100,-1.468929206
0.34150,-0.5533459826
0.34200,-0.2481515749
0.34250,-1.163734798
0.34300,-1.774123613
0.34350,-1.774123613
0.34400,-0.8585403903
0.34450,-0.2481515749
0.34500,0.05704283282
0.34550,0.05704283282
0.34600,-0.2481515749
0.34650,-0.8585403903
0.34700,-1.163734798
0.34750,-0.8585403903
0.34800,-0.2481515749
0.34850,-0.2481515749
0.34900,-0.8585403903
0.34950,-1.774123613
0.35000,-2.079318021
0.35050,-1.468929206
0.35100,-0.8585403903
0.35150,-2.079318021
0.35200,-3.300095652
0.35250,-2.994901244
0.35300,-1.774123613
0.35350,-0.8585403903
0.35400,-0.8585403903
0.35450,-0.2481515749
0.35500,0.9726260559
0.35550,1.277820464
0.35600,-0.2481515749
0.35650,-2.079318021
0.35700,-1.774123613
0.35750,-0.2481515749
0.35800,0.05704283282
0.35850,-0.2481515749
0.35900,-0.2481515749
0.35950,0.05704283282
0.36000,0.05704283282
0.36050,-1.468929206
0.36100,-2.384512429
0.36150,-1.774123613
0.36200,-0.8585403903
0.36250,-0.8585403903
0.36300,-1.774123613
0.36350,-2.079318021
0.36400,-2.689706836
0.36450,-3.60529006
0.36500,-4.215678875
0.36550,-3.910484467
0.36600,-2.689706836
0.36650,-2.079318021
0.36700,-2.689706836
0.36750,-3.300095652
0.36800,-2.384512429
0.36850,-1.163734798
0.36900,-1.163734798
0.36950,-2.079318021
0.37000,-2.384512429
0.37050,-1.774123613
0.37100,-0.2481515749
0.37150,0.05704283282
0.37200,-1.163734798
0.37250,-2.384512429
0.37300,-3.60529006
0.37350,-3.60529006
0.37400,-2.384512429
0.37450,-0.5533459826
0.37500,0.3622372405
0.37550,0.05704283282
0.37600,-1.163734798
0.37650,-2.079318021
0.37700,-2.079318021
0.37750,-2.079318021
0.37800,-1.774123613
0.37850,0.05704283282
0.37900,1.888209279
0.37950,2.498598094
0.38000,1.277820464
0.38050,0.3622372405
0.38100,0.6674316482
0.38150,0.6674316482
0.38200,-0.8585403903
0.38250,-2.079318021
0.38300,-1.468929206
0.38350,0.05704283282
0.38400,0.05704283282
0.38450,-0.5533459826
0.38500,-1.163734798
0.38550,-1.468929206
0.38600,-1.468929206
0.38650,-1.163734798
0.38700,-0.5533459826
0.38750,0.05704283282
0.38800,-0.2481515749
0.38850,-0.8585403903
0.38900,-1.163734798
0.38950,-0.8585403903
0.39000,-0.8585403903
0.39050,-0.2481515749
0.39100,0.3622372405
0.39150,0.05704283282
0.39200,-0.5533459826
0.39250,-0.5533459826
0.39300,0.3622372405
0.39350,0.9726260559
0.39400,0.3622372405
0.39450,0.3622372405
0.39500,1.888209279
0.39550,3.10898691
0.39600,2.498598094
0.39650,0.9726260559
0.39700,0.6674316482
0.39750,1.277820464
0.39800,1.583014871
0.39850,1.277820464
0.39900,1.277820464
0.39950,0.9726260559
0.40000,-0.5533459826
0.40050,-2.689706836
0.40100,-2.689706836
0.40150,-0.8585403903
0.40200,0.3622372405
0.40250,-0.2481515749
0.40300,-1.774123613
0.40350,-2.689706836
0.40400,-2.384512429
0.40450,-1.468929206
0.40500,-0.8585403903
0.40550,-0.5533459826
0.40600,0.05704283282
0.40650,0.9726260559
0.40700,2.498598094
0.40750,2.803792502
0.40800,2.193403687
0.40850,2.193403687
0.40900,3.10898691
0.40950,2.803792502
0.41000,0.05704283282
0.41050,-1.774123613
0.41100,-1.163734798
0.41150,0.05704283282
0.41200,-0.8585403903
0.41250,-2.994901244
0.41300,-3.60529006
0.41350,-2.689706836
0.41400,-2.079318021
0.41450,-2.079318021
0.41500,-1.468929206
0.41550,0.05704283282
0.41600,0.6674316482
0.41650,0.05704283282
0.41700,-0.5533459826
0.41750,-0.5533459826
0.41800,-0.2481515749
0.41850,0.05704283282
0.41900,0.3622372405
0.41950,1.888209279
0.42000,3.414181318
0.42050,3.719375725
0.42100,2.803792502
0.42150,2.193403687
0.42200,2.803792502
0.42250,2.498598094
0.42300,1.583014871
0.42350,0.3622372405
0.42400,0.05704283282
0.42450,0.3622372405
0.42500,0.6674316482
0.42550,1.277820464
0.42600,0.9726260559
0.42650,0.05704283282
0.42700,-1.163734798
0.42750,-1.774123613
0.42800,-1.163734798
0.42850,-0.2481515749
0.42900,0.05704283282
0.42950,0.05704283282
0.43000,0.3622372405
0.43050,0.05704283282
0.43100,-0.5533459826
0.43150,-1.163734798
0.43200,-0.5533459826
0.43250,0.05704283282
0.43300,0.05704283282
0.43350,0.05704283282
0.43400,0.6674316482
0.43450,1.277820464
0.43500,0.9726260559
0.43550,0.6674316482
0.43600,0.3622372405
0.43650,0.3622372405
0.43700,0.6674316482
0.43750,0.9726260559
0.43800,1.277820464
0.43850,0.9726260559
0.43900,0.05704283282
0.43950,-0.8585403903
0.44000,-0.5533459826
0.44050,0.05704283282
0.44100,0.05704283282
0.44150,-0.2481515749
0.44200,-0.2481515749
0.44250,-0.2481515749
0.44300,-0.5533459826
0.44350,-1.163734798
0.44400,-0.2481515749
0.44450,0.6674316482
0.44500,1.277820464
0.44550,0.3622372405
0.44600,-0.5533459826
0.44650,-0.5533459826
0.44700,0.3622372405
0.44750,0.9726260559
0.44800,0.05704283282
0.44850,-1.468929206
0.44900,-2.384512429
0.44950,-1.468929206
0.45000,0.05704283282
0.45050,0.3622372405
0.45100,0.3622372405
0.45150,0.05704283282
0.45200,0.05704283282
0.45250,-0.2481515749
0.45300,-0.2481515749
0.45350,-0.2481515749
0.45400,0.05704283282
0.45450,0.05704283282
0.45500,0.05704283282
0.45550,0.05704283282
0.45600,-0.2481515749
0.45650,-1.468929206
0.45700,-1.468929206
0.45750,0.05704283282
0.45800,0.9726260559
0.45850,0.05704283282
0.45900,-1.468929206
0.45950,-0.8585403903
0.46000,0.05704283282
0.46050,0.3622372405
0.46100,0.05704283282
0.46150,0.9726260559
0.46200,2.193403687
0.46250,1.583014871
0.46300,-0.2481515749
0.46350,-1.468929206
0.46400,-1.163734798
0.46450,-0.8585403903
0.46500,-2.079318021
0.46550,-3.300095652
0.46600,-2.994901244
0.46650,-2.079318021
0.46700,-2.079318021
0.46750,-2.079318021
0.46800,-0.5533459826
0.46850,1.888209279
0.46900,4.024570133
0.46950,4.634958948
0.47000,4.634958948
0.47050,4.329764541
0.47100,4.024570133
0.47150,3.10898691
0.47200,1.583014871
0.47250,0.6674316482
0.47300,0.9726260559
0.47350,1.888209279
0.47400,1.888209279
0.47450,1.277820464
0.47500,0.9726260559
0.47550,1.888209279
0.47600,2.803792502
0.47650,1.888209279
0.47700,0.05704283282
0.47750,-1.163734798
0.47800,-2.384512429
0.47850,-2.384512429
0.47900,-1.774123613
0.47950,-0.8585403903
0.48000,-1.468929206
0.48050,-3.910484467
0.48100,-6.046845321
0.48150,-6.352039729
0.48200,-5.131262098
0.48250,-5.131262098
0.48300,-5.436456506
0.48350,-4.215678875
0.48400,-1.163734798
0.48450,0.3622372405
0.48500,0.05704283282
0.48550,-0.2481515749
0.48600,0.9726260559
0.48650,3.414181318
0.48700,3.414181318
0.48750,1.888209279
0.48800,0.9726260559
0.48850,1.888209279
0.48900,3.10898691
0.48950,3.10898691
0.49000,2.193403687
0.49050,2.193403687
0.49100,2.498598094
0.49150,1.888209279
0.49200,0.05704283282
0.49250,-1.468929206
0.49300,-1.468929206
0.49350,-0.2481515749
0.49400,0.3622372405
0.49450,0.9726260559
0.49500,1.277820464
0.49550,1.277820464
0.49600,0.3622372405
0.49650,0.05704283282
0.49700,0.6674316482
0.49750,1.888209279
0.49800,1.888209279
0.49850,0.3622372405
0.49900,-0.5533459826
0.49950,-0.8585403903
0.50000,-0.8585403903
0.50050,-1.468929206
0.50100,-1.468929206
0.50150,-1.163734798
0.50200,-0.5533459826
0.50250,-0.5533459826
0.50300,-0.5533459826
0.50350,-0.8585403903
0.50400,-1.774123613
0.50450,-2.689706836
0.50500,-2.689706836
0.50550,-1.774123613
0.50600,-1.163734798
0.50650,-1.163734798
0.50700,-1.468929206
0.50750,-1.468929206
0.50800,-2.079318021
0.50850,-2.689706836
0.50900,-2.689706836
0.50950,-1.774123613
0.51000,-0.8585403903
0.51050,-0.2481515749
0.51100,-0.2481515749
0.51150,0.05704283282
0.51200,0.05704283282
0.51250,0.05704283282
0.51300,-0.5533459826
0.51350,-0.5533459826
0.51400,-0.2481515749
0.51450,-0.2481515749
0.51500,-0.8585403903
0.51550,-2.384512429
0.51600,-3.910484467
0.51650,-3.910484467
0.51700,-2.994901244
0.51750,-2.079318021
0.51800,-1.163734798
0.51850,0.05704283282
0.51900,0.9726260559
0.51950,0.3622372405
0.52000,-1.163734798
0.52050,-2.079318021
0.52100,-1.163734798
0.52150,0.05704283282
0.52200,0.05704283282
0.52250,-1.468929206
0.52300,-2.079318021
0.52350,-1.163734798
0.52400,-0.5533459826
0.52450,-0.8585403903
0.52500,-1.468929206
0.52550,-1.163734798
0.52600,-1.163734798
0.52650,-1.163734798
0.52700,-1.468929206
0.52750,-0.8585403903
0.52800,-0.5533459826
0.52850,-0.8585403903
0.52900,-1.163734798
0.52950,-0.8585403903
0.53000,-0.5533459826
0.53050,-0.2481515749
0.53100,0.3622372405
0.53150,1.277820464
0.53200,1.583014871
0.53250,0.3622372405
0.53300,-1.468929206
0.53350,-2.079318021
0.53400,-1.468929206
0.53450,-1.468929206
0.53500,-2.689706836
0.53550,-4.215678875
0.53600,-4.520873283
0.53650,-3.910484467
0.53700,-2.994901244
0.53750,-2.384512429
0.53800,-2.079318021
0.53850,-2.384512429
0.53900,-3.300095652
0.53950,-3.300095652
0.54000,-2.384512429
0.54050,-0.2481515749
0.54100,0.9726260559
0.54150,2.498598094
0.54200,3.414181318
0.54250,3.10898691
0.54300,1.888209279
0.54350,0.9726260559
0.54400,0.6674316482
0.54450,0.3622372405
0.54500,0.05704283282
0.54550,0.05704283282
0.54600,1.583014871
0.54650,2.803792502
0.54700,1.888209279
0.54750,1.277820464
0.54800,3.10898691
0.54850,6.466125395
0.54900,8.297291841
0.54950,6.466125395
0.55000,4.024570133
0.55050,3.414181318
0.55100,3.414181318
0.55150,2.193403687
0.55200,0.9726260559
0.55250,0.6674316482
0.55300,0.05704283282
0.55350,-1.468929206
0.55400,-2.994901244
0.55450,-2.079318021
0.55500,0.9726260559
0.55550,3.10898691
0.55600,2.803792502
0.55650,1.888209279
0.55700,1.888209279
0.55750,1.583014871
0.55800,0.3622372405
0.55850,-0.5533459826
0.55900,-0.5533459826
0.55950,-0.5533459826
0.56000,-1.163734798
0.56050,-1.774123613
0.56100,-1.163734798
0.56150,0.05704283282
0.56200,0.6674316482
0.56250,1.277820464
0.56300,1.888209279
0.56350,2.193403687
0.56400,1.277820464
0.56450,-0.2481515749
0.56500,-1.163734798
0.56550,-0.5533459826
0.56600,0.05704283282
0.56650,0.05704283282
0.56700,0.05704283282
0.56750,0.05704283282
0.56800,0.05704283282
0.56850,-0.2481515749
0.56900,-0.2481515749
0.56950,0.05704283282
0.57000,0.3622372405
0.57050,0.9726260559
0.57100,1.277820464
0.57150,0.6674316482
0.57200,0.05704283282
0.57250,-0.5533459826
0.57300,-0.5533459826
0.57350,0.05704283282
0.57400,0.3622372405
0.57450,0.6674316482
0.57500,0.05704283282
0.57550,-0.8585403903
0.57600,-1.163734798
0.57650,-0.5533459826
0.57700,0.6674316482
0.57750,1.888209279
0.57800,1.583014871
0.57850,0.3622372405
0.57900,0.05704283282
0.57950,0.05704283282
0.58000,0.9726260559
0.58050,1.888209279
0.58100,2.193403687
0.58150,2.193403687
0.58200,1.888209279
0.58250,1.277820464
0.58300,0.05704283282
0.58350,-0.5533459826
0.58400,-0.8585403903
0.58450,-0.5533459826
0.58500,-0.2481515749
0.58550,-0.2481515749
0.58600,-0.2481515749
0.58650,-0.2481515749
0.58700,-0.5533459826
0.58750,-0.5533459826
0.58800,-0.5533459826
0.58850,-0.2481515749
0.58900,0.05704283282
0.58950,0.05704283282
0.59000,0.3622372405
0.59050,0.6674316482
0.59100,0.05704283282
0.59150,-2.079318021
0.59200,-4.215678875
0.59250,-4.520873283
0.59300,-3.910484467
0.59350,-3.300095652
0.59400,-2.384512429
0.59450,-0.8585403903
0.59500,0.6674316482
0.59550,1.583014871
0.59600,1.888209279
0.59650,2.803792502
0.59700,3.414181318
0.59750,2.803792502
0.59800,1.888209279
0.59850,2.193403687
0.59900,3.414181318
0.59950,3.10898691
0.60000,0.9726260559
0.60050,-0.5533459826
0.60100,-0.2481515749
0.60150,0.3622372405
0.60200,0.6674316482
0.60250,0.9726260559
0.60300,1.277820464
0.60350,0.6674316482
0.60400,-0.5533459826
0.60450,-0.8585403903
0.60500,0.05704283282
0.60550,0.9726260559
0.60600,2.193403687
0.60650,4.024570133
0.60700,6.466125395
0.60750,6.771319802
0.60800,4.329764541
0.60850,2.193403687
0.60900,2.498598094
0.60950,3.10898691
0.61000,2.498598094
0.61050,1.583014871
0.61100,1.888209279
0.61150,2.498598094
0.61200,1.888209279
0.61250,0.6674316482
0.61300,1.277820464
0.61350,2.193403687
0.61400,1.888209279
0.61450,0.9726260559
0.61500,0.9726260559
0.61550,1.888209279
0.61600,1.888209279
0.61650,0.6674316482
0.61700,0.3622372405
0.61750,0.6674316482
0.61800,0.6674316482
0.61850,0.05704283282
0.61900,-1.468929206
0.61950,-2.384512429
0.62000,-2.384512429
0.62050,-2.079318021
0.62100,-1.163734798
0.62150,-1.774123613
0.62200,-3.910484467
0.62250,-5.131262098
0.62300,-4.520873283
0.62350,-2.994901244
0.62400,-2.689706836
0.62450,-3.60529006
0.62500,-4.82606769
0.62550,-5.741650914
0.62600,-6.352039729
0.62650,-5.741650914
0.62700,-2.994901244
0.62750,0.6674316482
0.62800,2.803792502
0.62850,2.803792502
0.62900,1.888209279
0.62950,1.277820464
0.63000,0.05704283282
0.63050,-0.5533459826
0.63100,-0.8585403903
0.63150,-0.2481515749
0.63200,0.6674316482
0.63250,1.888209279
0.63300,2.803792502
0.63350,3.10898691
0.63400,1.888209279
0.63450,0.3622372405
0.63500,-0.2481515749
0.63550,-0.8585403903
0.63600,-1.468929206
0.63650,-1.468929206
0.63700,-0.5533459826
0.63750,0.05704283282
0.63800,-0.2481515749
0.63850,-0.8585403903
0.63900,-0.2481515749
0.63950,0.9726260559
0.64000,1.277820464
0.64050,1.277820464
0.64100,1.583014871
0.64150,2.803792502
0.64200,3.10898691
0.64250,2.193403687
0.64300,1.583014871
0.64350,2.193403687
0.64400,2.498598094
0.64450,1.583014871
0.64500,0.05704283282
0.64550,0.05704283282
0.64600,0.3622372405
0.64650,0.05704283282
0.64700,-0.5533459826
0.64750,-1.163734798
0.64800,-0.5533459826
0.64850,0.05704283282
0.64900,-0.2481515749
0.64950,-0.8585403903
0.65000,-1.163734798
0.65050,-1.163734798
0.65100,-1.774123613
0.65150,-2.384512429
0.65200,-1.163734798
0.65250,0.9726260559
0.65300,2.803792502
0.65350,2.498598094
0.65400,1.888209279
0.65450,1.583014871
0.65500,1.277820464
0.65550,0.05704283282
0.65600,-0.2481515749
0.65650,0.05704283282
0.65700,0.9726260559
0.65750,0.6674316482
0.65800,-0.2481515749
0.65850,-1.468929206
0.65900,-1.163734798
0.65950,-0.5533459826
0.66000,-0.2481515749
0.66050,-0.5533459826
0.66100,-0.8585403903
0.66150,-1.468929206
0.66200,-1.774123613
0.66250,-2.079318021
0.66300,-2.079318021
0.66350,-1.774123613
0.66400,-1.774123613
0.66450,-1.468929206
0.66500,-0.2481515749
0.66550,0.9726260559
0.66600,1.583014871
0.66650,1.583014871
0.66700,1.277820464
0.66750,1.583014871
0.66800,2.193403687
0.66850,2.193403687
0.66900,1.277820464
0.66950,0.6674316482
0.67000,0.05704283282
0.67050,0.05704283282
0.67100,0.05704283282
0.67150,1.277820464
0.67200,1.583014871
0.67250,0.3622372405
0.67300,-0.5533459826
0.67350,0.05704283282
0.67400,1.888209279
0.67450,2.498598094
0.67500,0.9726260559
0.67550,0.05704283282
0.67600,0.05704283282
0.67650,0.6674316482
0.67700,0.9726260559
0.67750,0.9726260559
0.67800,1.277820464
0.67850,1.277820464
0.67900,0.9726260559
0.67950,1.277820464
0.68000,1.888209279
0.68050,1.277820464
0.68100,-0.2481515749
0.68150,-0.5533459826
0.68200,0.6674316482
0.68250,2.193403687
0.68300,1.888209279
0.68350,0.3622372405
0.68400,-0.5533459826
0.68450,0.05704283282
0.68500,0.6674316482
0.68550,0.6674316482
0.68600,0.05704283282
0.68650,-0.2481515749
0.68700,-0.8585403903
0.68750,-1.163734798
0.68800,-0.8585403903
0.68850,-0.8585403903
0.68900,-1.163734798
0.68950,-1.468929206
0.69000,-1.163734798
0.69050,-0.8585403903
0.69100,-1.468929206
0.69150,-1.774123613
0.69200,-0.5533459826
0.69250,0.3622372405
0.69300,0.05704283282
0.69350,-0.8585403903
0.69400,-1.163734798
0.69450,-0.2481515749
0.69500,0.3622372405
0.69550,0.05704283282
0.69600,-0.2481515749
0.69650,0.05704283282
0.69700,0.05704283282
0.69750,-0.2481515749
0.69800,-0.8585403903
0.69850,0.05704283282
0.69900,0.9726260559
0.69950,0.9726260559
0.70000,-0.2481515749
0.70050,-2.079318021
0.70100,-2.689706836
0.70150,-1.774123613
0.70200,0.05704283282
0.70250,2.803792502
0.70300,4.329764541
0.70350,3.414181318
0.70400,1.888209279
0.70450,1.277820464
0.70500,1.277820464
0.70550,0.6674316482
0.70600,0.05704283282
0.70650,0.6674316482
0.70700,2.193403687
0.70750,2.498598094
0.70800,0.6674316482
0.70850,-0.2481515749
0.70900,0.05704283282
0.70950,0.6674316482
0.71000,0.3622372405
0.71050,0.05704283282
0.71100,0.3622372405
0.71150,1.583014871
0.71200,0.9726260559
0.71250,-0.5533459826
0.71300,-1.468929206
0.71350,-0.2481515749
0.71400,1.277820464
0.71450,2.193403687
0.71500,2.803792502
0.71550,3.10898691
0.71600,2.803792502
0.71650,1.583014871
0.71700,0.3622372405
0.71750,0.3622372405
0.71800,0.6674316482
0.71850,0.9726260559
0.71900,0.9726260559
0.71950,1.277820464
0.72000,1.888209279
0.72050,1.583014871
0.72100,0.6674316482
0.72150,0.05704283282
0.72200,-0.2481515749
0.72250,0.05704283282
0.72300,1.277820464
0.72350,2.803792502
0.72400,4.329764541
0.72450,4.634958948
0.72500,4.024570133
0.72550,3.414181318
0.72600,3.414181318
0.72650,3.414181318
0.72700,2.498598094
0.72750,1.277820464
0.72800,1.277820464
0.72850,1.583014871
0.72900,1.888209279
0.72950,1.583014871
0.73000,0.6674316482
0.73050,0.05704283282
0.73100,-0.8585403903
0.73150,-1.163734798
0.73200,-0.5533459826
0.73250,-0.2481515749
0.73300,-0.5533459826
0.73350,-1.468929206
0.73400,-2.079318021
0.73450,-2.994901244
0.73500,-3.60529006
0.73550,-3.60529006
0.73600,-1.774123613
0.73650,0.9726260559
0.73700,2.498598094
0.73750,1.888209279
0.73800,0.6674316482
0.73850,0.05704283282
0.73900,-1.163734798
0.73950,-1.774123613
0.74000,-0.8585403903
0.74050,1.583014871
0.74100,3.10898691
0.74150,2.803792502
0.74200,1.583014871
0.74250,0.6674316482
0.74300,0.3622372405
0.74350,0.05704283282
0.74400,0.05704283282
0.74450,0.3622372405
0.74500,1.277820464
0.74550,0.9726260559
0.74600,0.05704283282
0.74650,0.05704283282
0.74700,0.05704283282
0.74750,0.05704283282
0.74800,-0.5533459826
0.74850,-1.163734798
0.74900,-1.468929206
0.74950,-1.774123613
0.75000,-2.079318021
0.75050,-2.384512429
0.75100,-2.079318021
0.75150,-2.384512429
0.75200,-2.994901244
0.75250,-3.60529006
0.75300,-4.215678875
0.75350,-4.215678875
0.75400,-3.910484467
0.75450,-4.215678875
0.75500,-4.520873283
0.75550,-4.82606769
0.75600,-4.520873283
0.75650,-2.689706836
0.75700,-1.163734798
0.75750,0.05704283282
0.75800,1.277820464
0.75850,4.634958948
0.75900,10.7388471
0.75950,18.06351289
0.76000,24.16740104
0.76050,26.6089563
0.76100,25.08298426
0.76150,20.50506815
0.76200,16.84273526
0.76250,15.01156881
0.76300,13.18040236
0.76350,7.992097433
0.76400,0.05704283282
0.76450,-6.046845321
0.76500,-8.183206175
0.76550,-9.403983806
0.76600,-12.15073348
0.76650,-16.11826078
0.76700,-19.47539926
0.76750,-20.39098248
0.76800,-20.08578808
0.76850,-19.47539926
0.76900,-18.25462163
0.76950,-16.42345518
0.77000,-14.28709433
0.77050,-11.54034466
0.77100,-7.878011767
0.77150,-5.741650914
0.77200,-4.82606769
0.77250,-3.60529006
0.77300,-0.5533459826
0.77350,2.193403687
0.77400,3.10898691
0.77450,1.583014871
0.77500,0.3622372405
0.77550,0.05704283282
0.77600,-0.2481515749
0.77650,-1.468929206
0.77700,-1.774123613
0.77750,0.3622372405
0.77800,2.498598094
0.77850,2.193403687
0.77900,0.6674316482
0.77950,0.3622372405
0.78000,1.583014871
0.78050,2.498598094
0.78100,1.888209279
0.78150,0.3622372405
0.78200,0.3622372405
0.78250,1.583014871
0.78300,3.10898691
0.78350,3.10898691
0.78400,1.888209279
0.78450,0.9726260559
0.78500,1.583014871
0.78550,2.803792502
0.78600,3.10898691
0.78650,2.803792502
0.78700,3.719375725
0.78750,5.245347764
0.78800,5.855736579
0.78850,5.550542171
0.78900,5.550542171
0.78950,5.855736579
0.79000,6.160930987
0.79050,5.550542171
0.79100,4.634958948
0.79150,4.634958948
0.79200,5.245347764
0.79250,4.329764541
0.79300,3.10898691
0.79350,2.193403687
0.79400,2.193403687
0.79450,0.9726260559
0.79500,-1.163734798
0.79550,-2.384512429
0.79600,-2.384512429
0.79650,-2.079318021
0.79700,-2.689706836
0.79750,-3.60529006
0.79800,-3.910484467
0.79850,-4.215678875
0.79900,-5.741650914
0.79950,-7.267622952
0.80000,-6.962428544
0.80050,-6.046845321
0.80100,-5.741650914
0.80150,-6.352039729
0.80200,-5.436456506
0.80250,-2.689706836
0.80300,-0.2481515749
0.80350,0.05704283282
0.80400,-0.8585403903
0.80450,-1.163734798
0.80500,-0.8585403903
0.80550,-0.5533459826
0.80600,-1.163734798
0.80650,-2.079318021
0.80700,-2.994901244
0.80750,-3.300095652
0.80800,-1.774123613
0.80850,0.6674316482
0.80900,1.583014871
0.80950,0.05704283282
0.81000,-2.689706836
0.81050,-2.689706836
0.81100,-0.5533459826
0.81150,-0.2481515749
0.81200,-1.774123613
0.81250,-2.689706836
0.81300,-0.2481515749
0.81350,3.719375725
0.81400,5.855736579
0.81450,5.550542171
0.81500,3.719375725
0.81550,2.803792502
0.81600,2.803792502
0.81650,1.583014871
0.81700,-0.8585403903
0.81750,-1.774123613
0.81800,3.10898691
0.81850,14.7063744
0.81900,26.6089563
0.81950,33.32323327
0.82000,35.15439972
0.82050,35.76478853
0.82100,34.5440109
0.82150,29.66090038
0.82200,23.25181782
0.82250,18.6739017
0.82300,15.62195763
0.82350,10.12845829
0.82400,3.10898691
0.82450,-1.163734798
0.82500,-2.384512429
0.82550,-4.82606769
0.82600,-9.403983806
0.82650,-11.23515025
0.82700,-8.793594991
0.82750,-7.878011767
0.82800,-7.267622952
0.82850,6.160930987
0.82900,43.08945432
0.82950,90.0893931
0.83000,123.3555835
0.83050,132.8166102
0.83100,128.2386941
0.83150,119.3880562
0.83200,105.0439191
0.83250,83.06992173
0.83300,57.73878589
0.83350,35.15439972
0.83400,14.40117999
0.83450,-6.962428544
0.83500,-26.49487064
0.83550,-39.31303576
0.83600,-47.24809036
0.83650,-53.96236733
0.83700,-60.06625548
0.83750,-61.89742193
0.83800,-60.06625548
0.83850,-58.23508904
0.83900,-57.01431141
0.83950,-54.26756174
0.84000,-49.38445121
0.84050,-44.8065351
0.84100,-42.97536865
0.84150,-43.58575747
0.84200,-46.63770155
0.84250,-52.13120088
0.84300,-60.06625548
0.84350,-69.22208772
0.84400,-78.68311435
0.84450,-86.92336336
0.84500,-93.02725152
0.84550,-95.46880678
0.84600,-95.77400119
0.84650,-93.63764033
0.84700,-87.83894659
0.84750,-78.07272554
0.84800,-68.6116989
0.84850,-62.81300515
0.84900,-59.15067226
0.84950,-53.65717292
0.85000,-46.63770155
0.85050,-40.53381339
0.85100,-36.56628609
0.85150,-32.59875879
0.85200,-28.32603708
0.85250,-24.66370419
0.85300,-21.30656571
0.85350,-15.81306637
0.85400,-9.403983806
0.85450,-3.910484467
0.85500,-1.163734798
0.85550,0.6674316482
0.85600,3.10898691
0.85650,4.940153356
0.85700,5.550542171
0.85750,6.160930987
0.85800,7.686903025
0.85850,9.518069472
0.85900,11.04404151
0.85950,13.48559677
0.86000,16.53754085
0.86050,18.6739017
0.86100,18.36870729
0.86150,16.84273526
0.86200,15.62195763
0.86250,14.40117999
0.86300,12.26481914
0.86350,10.43365269
0.86400,10.12845829
0.86450,10.12845829
0.86500,9.823263879
0.86550,9.212875064
0.86600,8.907680656
0.86650,8.907680656
0.86700,8.297291841
0.86750,7.381708618
0.86800,7.381708618
0.86850,9.518069472
0.86900,11.65443033
0.86950,12.87520796
0.87000,13.18040236
0.87050,13.48559677
0.87100,14.7063744
0.87150,17.45312407
0.87200,21.11545696
0.87250,23.55701223
0.87300,23.86220663
0.87350,22.641429
0.87400,21.42065137
0.87450,19.28429052
0.87500,15.31676322
0.87550,10.43365269
0.87600,7.686903025
0.87650,7.992097433
0.87700,8.907680656
0.87750,8.297291841
0.87800,5.550542171
0.87850,3.414181318
0.87900,3.414181318
0.87950,4.634958948
0.88000,5.855736579
0.88050,6.466125395
0.88100,6.160930987
0.88150,6.160930987
0.88200,6.771319802
0.88250,7.381708618
0.88300,7.381708618
0.88350,5.855736579
0.88400,3.719375725
0.88450,2.498598094
0.88500,2.498598094
0.88550,2.193403687
0.88600,0.9726260559
0.88650,0.3622372405
0.88700,1.888209279
0.88750,4.024570133
0.88800,5.855736579
0.88850,5.855736579
0.88900,5.855736579
0.88950,6.160930987
0.89000,6.466125395
0.89050,7.07651421
0.89100,7.381708618
0.89150,7.686903025
0.89200,8.297291841
0.89250,8.602486248
0.89300,9.212875064
0.89350,9.212875064
0.89400,8.297291841
0.89450,7.686903025
0.89500,8.297291841
0.89550,9.518069472
0.89600,9.823263879
0.89650,9.212875064
0.89700,8.907680656
0.89750,10.12845829
0.89800,11.65443033
0.89850,11.95962473
0.89900,11.04404151
0.89950,10.43365269
0.90000,10.43365269
0.90050,10.7388471
0.90100,11.04404151
0.90150,11.65443033
0.90200,12.26481914
0.90250,11.34923592
0.90300,9.518069472
0.90350,8.297291841
0.90400,7.992097433
0.90450,8.602486248
0.90500,9.212875064
0.90550,8.602486248
0.90600,7.992097433
0.90650,7.381708618
0.90700,7.381708618
0.90750,6.771319802
0.90800,6.160930987
0.90850,6.160930987
0.90900,6.771319802
0.90950,7.07651421
0.91000,6.771319802
0.91050,6.466125395
0.91100,7.992097433
0.91150,10.12845829
0.91200,10.7388471
0.91250,10.43365269
0.91300,11.34923592
0.91350,13.79079118
0.91400,15.62195763
0.91450,16.23234644
0.91500,17.14792966
0.91550,18.36870729
0.91600,17.45312407
0.91650,13.79079118
0.91700,11.04404151
0.91750,13.18040236
0.91800,20.81026256
0.91850,33.62842768
0.91900,54.076453
0.91950,81.54394969
0.92000,106.5698911
0.92050,119.0828618
0.92100,116.6413066
0.92150,104.7387247
0.92200,88.56342107
0.92250,69.33617338
0.92300,47.36217603
0.92350,25.99856749
0.92400,6.771319802
0.92450,-10.92995584
0.92500,-27.71564827
0.92550,-42.67017425
0.92600,-54.87795055
0.92650,-64.6441716
0.92700,-70.74805975
0.92750,-71.96883738
0.92800,-70.13767094
0.92850,-68.91689331
0.92900,-68.30650449
0.92950,-64.94936601
0.93000,-58.54028345
0.93050,-53.35197851
0.93100,-50.60522885
0.93150,-48.16367358
0.93200,-43.58575747
0.93250,-38.39745254
0.93300,-32.59875879
0.93350,-24.66370419
0.93400,-11.84553907
0.93450,1.888209279
0.93500,13.79079118
0.93550,22.03104019
0.93600,26.91415071
0.93650,29.05051156
0.93700,29.05051156
0.93750,29.35570597
0.93800,29.96609479
0.93850,29.05051156
0.93900,24.77778986
0.93950,19.28429052
0.94000,13.79079118
0.94050,7.381708618
0.94100,0.05704283282
0.94150,-6.657234137
0.94200,-11.23515025
0.94250,-15.50787196
0.94300,-19.17020485
0.94350,-17.64423281
0.94400,-9.403983806
0.94450,0.9726260559
0.94500,7.381708618
0.94550,9.212875064
0.94600,8.602486248
0.94650,5.550542171
0.94700,-1.163734798
0.94750,-10.01437262
0.94800,-16.72864959
0.94850,-21.0013713
0.94900,-26.49487064
0.94950,-32.29356438
0.95000,-33.20914761
0.95050,-27.10525945
0.95100,-18.55981604
0.95150,-11.54034466
0.95200,-4.82606769
0.95250,3.10898691
0.95300,11.04404151
0.95350,14.7063744
0.95400,14.7063744
0.95450,13.18040236
0.95500,11.34923592
0.95550,6.771319802
0.95600,-0.5533459826
0.95650,-8.183206175
0.95700,-12.45592788
0.95750,-12.45592788
0.95800,-10.62476144
0.95850,-8.183206175
0.95900,-4.215678875
0.95950,0.3622372405
0.96000,5.245347764
0.96050,9.212875064
0.96100,12.26481914
0.96150,12.57001355
0.96200,8.297291841
0.96250,0.05704283282
0.96300,-9.403983806
0.96350,-19.47539926
0.96400,-31.07278675
0.96450,-44.8065351
0.96500,-59.45586667
0.96550,-71.66364298
0.96600,-80.20908639
0.96650,-87.22855777
0.96700,-93.02725152
0.96750,-95.46880678
0.96800,-93.02725152
0.96850,-86.61816895
0.96900,-78.98830876
0.96950,-71.05325416
0.97000,-61.89742193
0.97050,-51.52081207
0.97100,-41.44939661
0.97150,-33.51434201
0.97200,-27.10525945
0.97250,-19.78059367
0.97300,-10.01437262
0.97350,0.6674316482
0.97400,10.43365269
0.97450,17.45312407
0.97500,22.94662341
0.97550,26.91415071
0.97600,29.35570597
0.97650,29.96609479
0.97700,29.96609479
0.97750,30.2712892
0.97800,30.88167801
0.97850,30.2712892
0.97900,27.52453953
0.97950,22.641429
0.98000,18.06351289
0.98050,14.7063744
0.98100,12.57001355
0.98150,10.12845829
0.98200,7.992097433
0.98250,6.160930987
0.98300,4.940153356
0.98350,3.10898691
0.98400,0.6674316482
0.98450,-1.774123613
0.98500,-3.910484467
0.98550,-6.352039729
0.98600,-7.878011767
0.98650,-7.878011767
0.98700,-7.57281736
0.98750,-8.793594991
0.98800,-11.84553907
0.98850,-14.28709433
0.98900,-13.98189992
0.98950,-10.31956703
0.99000,-4.215678875
0.99050,2.193403687
0.99100,6.771319802
0.99150,7.381708618
0.99200,5.245347764
0.99250,4.329764541
0.99300,7.992097433
0.99350,15.01156881
0.99400,22.94662341
0.99450,30.5764836
0.99500,37.29076057
0.99550,42.78425991
0.99600,48.88814807
0.99650,57.73878589
0.99700,67.81020134
0.99750,74.2192839
0.99800,75.44006154
0.99850,75.74525594
0.99900,76.96603357
0.99950,75.74525594
1.00000,68.72578457
1.00050,58.65436911
1.00100,50.1089257
1.00150,40.34270465
1.00200,25.69337308
1.00250,7.992097433
1.00300,-4.215678875
1.00350,-9.098789398
1.00400,-13.0663167
1.00450,-20.08578808
1.00500,-24.66370419
1.00550,-17.033844
1.00600,4.329764541
1.00650,31.18687242
1.00700,51.02450892
1.00750,57.73878589
1.00800,57.43359148
1.00850,61.40111878
1.00900,79.40758884
1.00950,107.1802799
1.01000,129.7646661
1.01050,135.8685543
1.01100,129.1542773
1.01150,122.7451947
1.01200,123.9659724
1.01250,128.5438885
1.01300,127.3231108
1.01350,114.8101401
1.01400,90.39458751
1.01450,57.12839707
1.01500,22.3362346
1.01550,-3.910484467
1.01600,-19.47539926
1.01650,-31.68317557
1.01700,-47.85847918
1.01750,-64.94936601
1.01800,-76.5467535
1.01850,-84.17661369
1.01900,-95.16361237
1.01950,-108.2869719
1.02000,-114.0856656
1.02050,-108.5921663
1.02100,-97.60516763
1.02150,-86.61816895
1.02200,-75.93636468
1.02250,-66.47533805
1.02300,-62.20261634
1.02350,-61.59222752
1.02400,-53.04678411
1.02450,-30.76759235
1.02500,-2.994901244
1.02550,18.06351289
1.02600,30.88167801
1.02650,38.5115382
1.02700,39.12192702
1.02750,29.35570597
1.02800,11.95962473
1.02850,-5.741650914
1.02900,-20.69617689
1.02950,-35.65070287
1.03000,-52.43639529
1.03050,-68.30650449
1.03100,-80.20908639
1.03150,-86.61816895
1.03200,-87.83894659
1.03250,-87.22855777
1.03300,-89.36491862
1.03350,-92.4168627
1.03400,-86.00778014
1.03450,-65.86494923
1.03500,-41.44939661
1.03550,-26.80006504
1.03600,-24.05331538
1.03650,-22.22214893
1.03700,-13.67670551
1.03750,-3.300095652
1.03800,0.05704283282
1.03850,-5.436456506
1.03900,-17.94942722
1.03950,-35.04031405
1.04000,-57.01431141
1.04050,-83.56622488
1.04100,-109.8129439
1.04150,-130.2609693
1.04200,-141.5531623
1.04250,-143.9947176
1.04300,-140.3323847
1.04350,-132.3973301
1.04400,-122.0207202
1.04450,-111.9493048
1.04500,-102.7934726
1.04550,-94.24802915
1.04600,-85.70258573
1.04650,-77.46233672
1.04700,-70.13767094
1.04750,-61.89742193
1.04800,-50.91042325
1.04850,-40.22861898
1.04900,-32.9039532
1.04950,-28.32603708
1.05000,-21.91695452
1.05050,-13.0663167
1.05100,-5.131262098
1.05150,-0.2481515749
1.05200,4.024570133
1.05250,13.79079118
1.05300,27.82973393
1.05350,41.56348228
1.05400,50.4141201
1.05450,55.60242503
1.05500,58.95956352
1.05550,60.18034115
1.05600,57.73878589
1.05650,52.24528655
1.05700,45.53100958
1.05750,39.73231583
1.05800,32.71284446
1.05850,21.72584578
1.05900,10.12845829
1.05950,6.160930987
1.06000,14.40117999
1.06050,28.74531716
1.06100,39.73231583
1.06150,44.00503754
1.06200,45.53100958
1.06250,46.1413984
1.06300,44.00503754
1.06350,39.42712143
1.06400,35.76478853
1.06450,33.32323327
1.06500,29.96609479
1.06550,24.16740104
1.06600,21.42065137
1.06650,27.82973393
1.06700,41.25828787
1.06750,54.076453
1.06800,62.62189641
1.06850,67.81020134
1.06900,72.38811746
1.06950,75.74525594
1.07000,76.05045035
1.07050,73.9140895
1.07100,72.38811746
1.07150,74.52447831
1.07200,78.79720002
1.07250,83.68031054
1.07300,88.86861547
1.07350,97.41405889
1.07400,108.0958632
1.07450,118.7776674
1.07500,127.6283053
1.07550,135.8685543
1.07600,142.2776368
1.07650,140.7516648
1.07700,125.18675
1.07750,97.7192533
1.07800,63.53747963
1.07850,23.25181782
1.07900,-21.61176011
1.07950,-66.78053245
1.08000,-102.7934726
1.08050,-129.0401916
1.08100,-151.3193834
1.08150,-170.8518255
1.08200,-180.6180465
1.08250,-176.6505192
1.08300,-163.5271597
1.08350,-147.0466617
1.08400,-126.293442
1.08450,-99.13113967
1.08500,-70.44286535
1.08550,-48.16367358
1.08600,-30.76759235
1.08650,-12.45592788
1.08700,6.160930987
1.08750,20.19987374
1.08800,28.13492834
1.08850,34.84920531
1.08900,43.08945432
1.08950,49.49853688
1.09000,50.1089257
1.09050,44.61542636
1.09100,35.45959413
1.09150,24.77778986
1.09200,12.87520796
1.09250,0.05704283282
1.09300,-13.37151111
1.09350,-25.27409301
1.09400,-32.29356438
1.09450,-34.73511965
1.09500,-33.81953642
1.09550,-31.37798116
1.09600,-27.10525945
1.09650,-22.52734334
1.09700,-20.08578808
1.09750,-17.94942722
1.09800,-13.0663167
1.09850,-5.131262098
1.09900,3.414181318
1.09950,16.53754085
1.10000,38.81673261
1.10050,65.67384049
1.10100,86.1218658
1.10150,94.66730922
1.10200,95.58289244
1.10250,91.92055955
1.10300,81.54394969
1.10350,67.19981253
1.10400,55.60242503
1.10450,47.05698162
1.10500,36.06998294
1.10550,25.69337308
1.10600,28.13492834
1.10650,43.39464873
1.10700,55.90761944
1.10750,59.87514674
1.10800,72.38811746
1.10850,107.7906688
1.10900,151.7386635
1.10950,181.0373266
1.11000,191.1087421
1.11050,193.8554917
1.11100,190.8035476
1.11150,171.8814944
1.11200,133.1218046
1.11250,84.29069936
1.11300,34.84920531
1.11350,-11.54034466
1.11400,-53.65717292
1.11450,-88.4493354
1.11500,-115.9168321
1.11550,-136.6700518
1.11600,-145.5206896
1.11650,-135.7544686
1.11700,-111.9493048
1.11750,-86.92336336
1.11800,-65.86494923
1.11850,-45.41692391
1.11900,-23.44292656
1.11950,-5.436456506
1.12000,4.329764541
1.12050,9.823263879
1.12100,17.14792966
1.12150,25.08298426
1.12200,29.35570597
1.12250,27.82973393
1.12300,24.16740104
1.12350,20.81026256
1.12400,18.6739017
1.12450,15.92715203
1.12500,13.79079118
1.12550,13.79079118
1.12600,15.31676322
1.12650,14.40117999
1.12700,11.04404151
1.12750,9.518069472
1.12800,16.23234644
1.12850,30.88167801
1.12900,47.05698162
1.12950,59.26475793
1.13000,65.36864608
1.13050,68.42059016
1.13100,71.16733983
1.13150,72.99850627
1.13200,70.86214542
1.13250,62.0115076
1.13300,51.02450892
1.13350,45.83620399
1.13400,48.58295366
1.13450,54.68684181
1.13500,56.51800826
1.13550,50.71931451
1.13600,38.5115382
1.13650,22.03104019
1.13700,4.329764541
1.13750,-11.84553907
1.13800,-25.27409301
1.13850,-34.42992524
1.13900,-42.67017425
1.13950,-54.87795055
1.14000,-75.02078146
1.14050,-101.8778893
1.14100,-129.345386
1.14150,-155.8972995
1.14200,-185.501157
1.14250,-213.5790426
1.14300,-227.0075965
1.14350,-217.8517643
1.14400,-197.0985445
1.14450,-183.6699906
1.14500,-181.8388242
1.14550,-177.8712969
1.14600,-157.4232715
1.14650,-118.3583874
1.14700,-70.13767094
1.14750,-28.32603708
1.14800,-4.520873283
1.14850,2.803792502
1.14900,13.48559677
1.14950,40.34270465
1.15000,70.86214542
1.15050,82.1543385
1.15100,70.55695101
1.15150,52.85567537
1.15200,38.2063438
1.15250,20.19987374
1.15300,-2.384512429
1.15350,-14.59228874
1.15400,-5.131262098
1.15450,13.18040236
1.15500,21.42065137
1.15550,17.75831848
1.15600,14.40117999
1.15650,17.14792966
1.15700,20.19987374
1.15750,16.53754085
1.15800,6.160930987
1.15850,-8.793594991
1.15900,-25.88448182
1.15950,-41.14420221
1.16000,-53.65717292
1.16050,-66.78053245
1.16100,-85.09219692
1.16150,-107.0661943
1.16200,-126.9038308
1.16250,-140.9427735
1.16300,-147.6570505
1.16350,-144.299912
1.16400,-129.0401916
1.16450,-106.150611
1.16500,-83.26103047
1.16550,-64.03378278
1.16600,-48.46886799
1.16650,-35.65070287
1.16700,-24.66370419
1.16750,-12.15073348
1.16800,3.10898691
1.16850,18.36870729
1.16900,29.05051156
1.16950,36.06998294
1.17000,43.39464873
1.17050,50.1089257
1.17100,51.63489773
1.17150,47.36217603
1.17200,42.78425991
1.17250,39.73231583
1.17300,33.62842768
1.17350,21.11545696
1.17400,8.602486248
1.17450,4.940153356
1.17500,9.518069472
1.17550,15.01156881
1.17600,17.75831848
1.17650,19.28429052
1.17700,22.3362346
1.17750,28.13492834
1.17800,37.29076057
1.17850,49.19334247
1.17900,63.23228523
1.17950,83.06992173
1.18000,113.2841681
1.18050,152.0438579
1.18100,185.6152427
1.18150,202.7061295
1.18200,204.2321016
1.18250,196.297047
1.18300,179.816549
1.18350,154.7906075
1.18400,130.0698605
1.18450,116.0309178
1.18500,111.7581961
1.18550,106.2646967
1.18600,94.97250363
1.18650,82.45953291
1.18700,70.86214542
1.18750,55.60242503
1.18800,39.73231583
1.18850,37.29076057
1.18900,57.43359148
1.18950,86.1218658
1.19000,99.85561415
1.19050,88.86861547
1.19100,61.70631319
1.19150,29.05051156
1.19200,-7.57281736
1.19250,-50.30003444
1.19300,-92.11166829
1.19350,-123.8518867
1.19400,-144.9103008
1.19450,-159.254438
1.19500,-166.2739094
1.19550,-162.3063821
1.19600,-152.540161
1.19650,-147.3518561
1.19700,-147.9622449
1.19750,-141.5531623
1.19800,-122.0207202
1.19850,-99.74152849
1.19900,-86.31297455
1.19950,-78.37791995
1.20000,-66.17014364
1.20050,-52.13120088
1.20100,-47.24809036
1.20150,-54.57275615
1.20200,-64.6441716
1.20250,-69.83247653
1.20300,-69.22208772
1.20350,-64.33897719
1.20400,-53.96236733
1.20450,-39.00784135
1.20500,-24.66370419
1.20550,-16.11826078
1.20600,-13.98189992
1.20650,-16.42345518
1.20700,-23.44292656
1.20750,-36.8714805
1.20800,-56.09872818
1.20850,-75.02078146
1.20900,-84.4818081
1.20950,-77.46233672
1.21000,-58.54028345
1.21050,-40.22861898
1.21100,-30.76759235
1.21150,-28.02084268
1.21200,-24.66370419
1.21250,-19.47539926
1.21300,-17.33903841
1.21350,-20.39098248
1.21400,-25.88448182
1.21450,-29.85200912
1.21500,-29.24162031
1.21550,-23.74812097
1.21600,-16.42345518
1.21650,-9.403983806
1.21700,-2.079318021
1.21750,10.43365269
1.21800,34.84920531
1.21850,69.33617338
1.21900,106.2646967
1.21950,136.4789431
1.22000,156.0113852
1.22050,165.1672174
1.22100,167.3035783
1.22150,166.0828006
1.22200,168.2191615
1.22250,176.7646049
1.22300,183.4788819
1.22350,176.7646049
1.22400,157.5373572
1.22450,141.0568592
1.22500,135.8685543
1.22550,135.2581654
1.22600,138.6153039
1.22650,169.1347447
1.22700,245.738541
1.22750,347.3682788
1.22800,423.6668807
1.22850,442.588934
1.22900,410.8487156
1.22950,349.8098341
1.23000,272.9008433
1.23050,193.2451029
1.23100,128.2386941
1.23150,81.54394969
1.23200,44.92062076
1.23250,19.89467933
1.23300,27.21934512
1.23350,73.60889509
1.23400,128.8490829
1.23450,154.1802187
1.23500,140.7516648
1.23550,105.0439191
1.23600,54.68684181
1.23650,-17.94942722
1.23700,-113.4752768
1.23750,-214.1894314
1.23800,-303.9165872
1.23850,-381.1307724
1.23900,-448.5787365
1.23950,-501.9877578
1.24000,-533.1175874
1.24050,-537.3903091
1.24100,-517.2474782
1.24150,-477.5722052
1.24200,-425.6891559
1.24250,-373.5009122
1.24300,-328.9425287
1.24350,-289.8776445
1.24400,-245.0140666
1.24450,-187.0271291
1.24500,-123.5466923
1.24550,-69.22208772
1.24600,-33.51434201
1.24650,-14.89748314
1.24700,-7.57281736
1.24750,-8.488400583
1.24800,-15.50787196
1.24850,-22.22214893
1.24900,-28.02084268
1.24950,-37.78706372
1.25000,-54.26756174
1.25050,-64.03378278
1.25100,-50.91042325
1.25150,-14.89748314
1.25200,25.69337308
1.25250,58.65436911
1.25300,87.03744903
1.25350,116.946501
1.25400,139.2256927
1.25450,140.7516648
1.25500,118.1672786
1.25550,78.49200561
1.25600,26.91415071
1.25650,-35.34550846
1.25700,-102.1830837
1.25750,-161.3907988
1.25800,-207.7803488
1.25850,-244.7088721
1.25900,-273.3971465
1.25950,-289.8776445
1.26000,-292.0140053
1.26050,-282.2477843
1.26100,-263.9361198
1.26150,-237.9945952
1.26200,-208.0855432
1.26250,-179.3972689
1.26300,-151.3193834
1.26350,-119.2739706
1.26400,-86.61816895
1.26450,-63.42339397
1.26500,-50.30003444
1.26550,-36.26109168
1.26600,-14.89748314
1.26650,4.940153356
1.26700,14.7063744
1.26750,18.36870729
1.26800,23.86220663
1.26850,27.52453953
1.26900,24.77778986
1.26950,27.52453953
1.27000,54.3816474
1.27050,108.4010576
1.27100,170.6607167
1.27150,221.017794
1.27200,250.926846
1.27250,260.693067
1.27300,252.7580124
1.27350,234.1411535
1.27400,212.1671562
1.27450,188.9723812
1.27500,165.4724118
1.27550,142.5828312
1.27600,120.3036395
1.27650,94.97250363
1.27700,70.86214542
1.27750,60.48553556
1.27800,72.08292305
1.27850,97.10886448
1.27900,121.8296115
1.27950,139.2256927
1.28000,145.9399697
1.28050,136.1737487
1.28100,111.4530016
1.28150,80.93356087
1.28200,47.97256484
1.28250,5.855736579
1.28300,-36.8714805
1.28350,-48.46886799
1.28400,-11.54034466
1.28450,44.31023195
1.28500,73.60889509
1.28550,65.67384049
1.28600,43.39464873
1.28650,21.11545696
1.28700,-6.962428544
1.28750,-39.00784135
1.28800,-57.01431141
1.28850,-57.31950582
1.28900,-59.45586667
1.28950,-75.02078146
1.29000,-90.58569625
1.29050,-92.11166829
1.29100,-86.31297455
1.29150,-84.17661369
1.29200,-76.85194791
1.29250,-49.99484003
1.29300,-8.488400583
1.29350,26.6089563
1.29400,47.97256484
1.29450,65.67384049
1.29500,88.56342107
1.29550,110.5374184
1.29600,122.1348059
1.29650,126.4075276
1.29700,131.901027
1.29750,139.8360816
1.29800,141.667248
1.29850,134.6477766
1.29900,127.9334997
1.29950,129.1542773
1.30000,130.0698605
1.30050,118.1672786
1.30100,92.53094837
1.30150,64.75825727
1.30200,41.56348228
1.30250,19.58948493
1.30300,-2.994901244
1.30350,-21.30656571
1.30400,-31.98836998
1.30450,-41.75459102
1.30500,-54.57275615
1.30550,-67.69611568
1.30600,-79.59869758
1.30650,-94.24802915
1.30700,-107.9817775
1.30750,-106.150611
1.30800,-84.17661369
1.30850,-59.76106108
1.30900,-52.13120088
1.30950,-53.65717292
1.31000,-46.33250714
1.31050,-29.24162031
1.31100,-13.37151111
1.31150,8.602486248
1.31200,60.48553556
1.31250,138.9204983
1.31300,202.0957407
1.31350,219.1866276
1.31400,210.0307953
1.31450,215.5242947
1.31500,241.1606249
1.31550,254.5891789
1.31600,230.7840151
1.31650,178.9009657
1.31700,118.1672786
1.31750,55.60242503
1.31800,-6.962428544
1.31850,-60.06625548
1.31900,-91.19608507
1.31950,-96.99477882
1.32000,-81.42986402
1.32050,-46.63770155
1.32100,0.05704283282
1.32150,45.83620399
1.32200,78.1868112
1.32250,94.0569204
1.32300,94.0569204
1.32350,78.49200561
1.32400,50.1089257
1.32450,13.18040236
1.32500,-31.07278675
1.32550,-80.20908639
1.32600,-120.1895538
1.32650,-136.3648574
1.32700,-136.6700518
1.32750,-143.9947176
1.32800,-162.6115765
1.32850,-171.7674087
1.32900,-167.494687
1.32950,-174.208964
1.33000,-194.0466005
1.33050,-183.3647962
1.33100,-111.6441104
1.33150,-19.78059367
1.33200,26.6089563
1.33250,29.66090038
1.33300,49.19334247
1.33350,110.232224
1.33400,168.8295503
1.33450,183.4788819
1.33500,165.7776062
1.33550,141.667248
1.33600,106.2646967
1.33650,47.36217603
1.33700,-15.81306637
1.33750,-53.35197851
1.33800,-66.78053245
1.33850,-80.20908639
1.33900,-101.5726949
1.33950,-119.2739706
1.34000,-129.9557748
1.34050,-144.299912
1.34100,-166.8842982
1.34150,-187.9427123
1.34200,-200.1504886
1.34250,-206.5595712
1.34300,-209.3063209
1.34350,-201.6764607
1.34400,-179.0920745
1.34450,-149.1830225
1.34500,-123.5466923
1.34550,-104.3194446
1.34600,-86.92336336
1.34650,-71.35844857
1.34700,-62.20261634
1.34750,-56.09872818
1.34800,-40.8390078
1.34850,-18.25462163
1.34900,-9.098789398
1.34950,-19.47539926
1.35000,-16.72864959
1.35050,31.18687242
1.35100,107.7906688
1.35150,162.7256621
1.35200,175.8490217
1.35250,175.2386329
1.35300,182.5632986
1.35350,180.1217434
1.35400,146.8555529
1.35450,96.49847567
1.35500,58.3491747
1.35550,35.76478853
1.35600,10.43365269
1.35650,-23.44292656
1.35700,-55.48833937
1.35750,-75.93636468
1.35800,-83.56622488
1.35850,-75.93636468
1.35900,-51.21561766
1.35950,-19.47539926
1.36000,7.07651421
1.36050,28.13492834
1.36100,52.55048096
1.36150,82.45953291
1.36200,108.706252
1.36250,119.9984451
1.36300,109.3166408
1.36350,76.96603357
1.36400,29.96609479
1.36450,-21.0013713
1.36500,-71.35844857
1.36550,-122.9363035
1.36600,-174.208964
1.36650,-212.0530705
1.36700,-225.1764301
1.36750,-212.6634593
1.36800,-181.8388242
1.36850,-140.0271903
1.36900,-94.85841796
1.36950,-55.79353378
1.37000,-27.10525945
1.37050,-4.215678875
1.37100,14.40117999
1.37150,23.86220663
1.37200,19.28429052
1.37250,8.907680656
1.37300,6.466125395
1.37350,13.79079118
1.37400,22.3362346
1.37450,29.05051156
1.37500,39.12192702
1.37550,54.3816474
1.37600,68.42059016
1.37650,79.40758884
1.37700,94.0569204
1.37750,116.0309178
1.37800,137.3945263
1.37850,146.8555529
1.37900,145.9399697
1.37950,143.19322
1.38000,140.7516648
1.38050,130.0698605
1.38100,107.1802799
1.38150,80.01797765
1.38200,57.43359148
1.38250,33.62842768
1.38300,-3.910484467
1.38350,-54.87795055
1.38400,-98.82594526
1.38450,-116.5272209
1.38500,-112.864888
1.38550,-107.6765831
1.38600,-108.8973607
1.38650,-106.150611
1.38700,-88.14414099
1.38750,-57.62470022
1.38800,-23.74812097
1.38850,13.79079118
1.38900,60.18034115
1.38950,109.0114464
1.39000,144.1088033
1.39050,154.7906075
1.39100,144.7191921
1.39150,126.4075276
1.39200,107.7906688
1.39250,85.51147699
1.39300,55.29723063
1.39350,19.58948493
1.39400,-13.67670551
1.39450,-39.92342458
1.39500,-59.45586667
1.39550,-73.18961502
1.39600,-79.29350317
1.39650,-80.5142808
1.39700,-82.65064165
1.39750,-86.92336336
1.39800,-85.70258573
1.39850,-74.71558705
1.39900,-62.50781075
1.39950,-59.15067226
1.40000,-62.20261634
1.40050,-60.98183871
1.40100,-49.99484003
1.40150,-32.29356438
1.40200,-11.54034466
1.40250,10.7388471
1.40300,35.15439972
1.40350,62.0115076
1.40400,94.66730922
1.40450,135.5633599
1.40500,182.5632986
1.40550,228.0372654
1.40600,257.9463173
1.40650,254.2839844
1.40700,217.9658499
1.40750,185.3100483
1.40800,203.3165184
1.40850,272.9008433
1.40900,336.9916689
1.40950,343.7059459
1.41000,301.5891176
1.41050,253.3684012
1.41100,213.0827394
1.41150,160.5893013
1.41200,89.17380988
1.41250,24.47259545
1.41300,-12.76112229
1.41350,-29.85200912
1.41400,-38.70264695
1.41450,-37.78706372
1.41500,-23.74812097
1.41550,-6.046845321
1.41600,6.771319802
1.41650,20.19987374
1.41700,39.42712143
1.41750,53.77125859
1.41800,49.49853688
1.41850,27.52453953
1.41900,-6.962428544
1.41950,-56.709117
1.42000,-122.3259147
1.42050,-186.4167403
1.42100,-224.5660412
1.42150,-229.4491518
1.42200,-215.1050146
1.42250,-196.1829613
1.42300,-180.6180465
1.42350,-179.0920745
1.42400,-199.5400998
1.42450,-228.5335685
1.42500,-237.079012
1.42550,-213.5790426
1.42600,-178.4816857
1.42650,-158.6440492
1.42700,-152.540161
1.42750,-140.0271903
1.42800,-115.3064433
1.42850,-93.94283474
1.42900,-89.36491862
1.42950,-92.4168627
1.43000,-85.39739132
1.43050,-65.25456042
1.43100,-43.28056306
1.43150,-26.49487064
1.43200,-13.98189992
1.43250,-6.657234137
1.43300,-10.62476144
1.43350,-24.66370419
1.43400,-34.73511965
1.43450,-31.07278675
1.43500,-21.30656571
1.43550,-21.0013713
1.43600,-30.15720353
1.43650,-35.65070287
1.43700,-34.42992524
1.43750,-37.17667491
1.43800,-50.30003444
1.43850,-68.00131008
1.43900,-86.00778014
1.43950,-109.8129439
1.44000,-139.1116071
1.44050,-159.254438
1.44100,-157.1180771
1.44150,-133.3129133
1.44200,-89.36491862
1.44250,-23.74812097
1.44300,53.77125859
1.44350,115.1153345
1.44400,139.8360816
1.44450,141.0568592
1.44500,144.7191921
1.44550,149.2971082
1.44600,134.0373878
1.44650,99.55041974
1.44700,82.45953291
1.44750,115.1153345
1.44800,186.2256315
1.44850,248.4852907
1.44900,263.7450111
1.44950,229.5632374
1.45000,170.6607167
1.45050,109.6218352
1.45100,52.55048096
1.45150,-3.60529006
1.45200,-56.09872818
1.45250,-95.77400119
1.45300,-118.3583874
1.45350,-127.819414
1.45400,-126.9038308
1.45450,-114.0856656
1.45500,-87.22855777
1.45550,-47.55328477
1.45600,-0.2481515749
1.45650,42.78425991
1.45700,66.89461812
1.45750,67.19981253
1.45800,56.82320267
1.45850,48.58295366
1.45900,34.2388165
1.45950,-0.5533459826
1.46000,-48.46886799
1.46050,-86.92336336
1.46100,-110.4233328
1.46150,-126.9038308
1.46200,-127.819414
1.46250,-85.09219692
1.46300,2.803792502
1.46350,94.36211481
1.46400,145.6347753
1.46450,152.3490523
1.46500,135.2581654
1.46550,102.6023638
1.46600,53.16086977
1.46650,-3.60529006
1.46700,-49.68964562
1.46750,-77.76753113
1.46800,-90.89089066
1.46850,-90.28050185
1.46900,-76.5467535
1.46950,-57.31950582
1.47000,-41.14420221
1.47050,-27.71564827
1.47100,-13.37151111
1.47150,-3.60529006
1.47200,-7.57281736
1.47250,-28.9364259
1.47300,-64.33897719
1.47350,-107.3713887
1.47400,-151.9297722
1.47450,-191.9102396
1.47500,-222.4296804
1.47550,-237.9945952
1.47600,-231.2803182
1.47650,-202.5920439
1.47700,-166.5791038
1.47750,-133.0077189
1.47800,-89.67011303
1.47850,-21.30656571
1.47900,53.77125859
1.47950,95.27769804
1.48000,89.47900429
1.48050,64.75825727
1.48100,48.58295366
1.48150,33.62842768
1.48200,7.381708618
1.48250,-12.15073348
1.48300,4.024570133
1.48350,55.90761944
1.48400,105.9595023
1.48450,121.8296115
1.48500,104.4335303
1.48550,77.8816168
1.48600,60.48553556
1.48650,51.63489773
1.48700,44.92062076
1.48750,42.4790655
1.48800,55.29723063
1.48850,86.73225462
1.48900,126.712722
1.48950,162.4204677
1.49000,189.8879644
1.49050,208.8100177
1.49100,215.5242947
1.49150,208.8100177
1.49200,195.6866582
1.49250,181.342521
1.49300,158.147746
1.49350,118.7776674
1.49400,71.47253423
1.49450,29.66090038
1.49500,-5.741650914
1.49550,-39.92342458
1.49600,-67.69611568
1.49650,-82.65064165
1.49700,-91.19608507
1.49750,-97.91036204
1.49800,-84.17661369
1.49850,-27.10525945
1.49900,61.40111878
1.49950,135.2581654
1.50000,157.8425516
1.50050,132.2062214
1.50100,80.01797765
1.50150,15.01156881
1.50200,-50.60522885
1.50250,-102.4882782
1.50300,-130.8713581
1.50350,-140.6375791
1.50400,-137.2804406
1.50450,-118.6635818
1.50500,-86.31297455
1.50550,-52.13120088
1.50600,-22.83253774
1.50650,6.160930987
1.50700,36.68037176
1.50750,54.076453
1.50800,45.83620399
1.50850,25.69337308
1.50900,18.36870729
1.50950,24.16740104
1.51000,16.84273526
1.51050,-19.78059367
1.51100,-69.52728212
1.51150,-104.3194446
1.51200,-112.864888
1.51250,-101.8778893
1.51300,-77.46233672
1.51350,-40.8390078
1.51400,0.05704283282
1.51450,33.32323327
1.51500,56.51800826
1.51550,75.74525594
1.51600,89.47900429
1.51650,86.73225462
1.51700,62.316702
1.51750,27.52453953
1.51800,-4.520873283
1.51850,-31.68317557
1.51900,-52.7415897
1.51950,-60.98183871
1.52000,-56.09872818
1.52050,-53.96236733
1.52100,-68.6116989
1.52150,-89.97530744
1.52200,-97.60516763
1.52250,-93.63764033
1.52300,-100.9623061
1.52350,-130.5661637
1.52400,-165.968715
1.52450,-185.8063515
1.52500,-190.689462
1.52550,-192.5206284
1.52600,-193.1310172
1.52650,-182.7544074
1.52700,-154.3713275
1.52750,-110.7285272
1.52800,-58.84547785
1.52850,-4.82606769
1.52900,45.53100958
1.52950,85.51147699
1.53000,110.232224
1.53050,122.7451947
1.53100,130.6802493
1.53150,141.667248
1.53200,152.9594411
1.53250,153.5698299
1.53300,137.0893319
1.53350,112.6737793
1.53400,93.14133718
1.53450,82.45953291
1.53500,77.27122798
1.53550,79.10239443
1.53600,91.00497633
1.53650,111.7581961
1.53700,140.141276
1.53750,181.6477154
1.53800,236.2775144
1.53850,281.1410923
1.53900,288.7709525
1.53950,261.3034558
1.54000,224.6801269
1.54050,187.4464092
1.54100,131.901027
1.54150,55.29723063
1.54200,-8.793594991
1.54250,-28.63123149
1.54300,-16.11826078
1.54350,-10.01437262
1.54400,-27.71564827
1.54450,-52.7415897
1.54500,-66.78053245
1.54550,-70.13767094
1.54600,-75.32597587
1.54650,-88.4493354
1.54700,-107.6765831
1.54750,-127.2090252
1.54800,-145.5206896
1.54850,-167.1894926
1.54900,-196.1829613
1.54950,-227.0075965
1.55000,-250.5075659
1.55050,-264.5465086
1.55100,-273.7023409
1.55150,-276.4490905
1.55200,-267.9036471
1.55250,-253.8647044
1.55300,-242.8777057
1.55350,-225.4816245
1.55400,-176.3453248
1.55450,-90.89089066
1.55500,0.05704283282
1.55550,62.92709082
1.55600,94.0569204
1.55650,108.0958632
1.55700,109.9270296
1.55750,94.36211481
1.55800,65.9790349
1.55850,40.95309346
1.55900,28.44012275
1.55950,21.42065137
1.56000,9.212875064
1.56050,-9.709178214
1.56100,-28.9364259
1.56150,-39.61823017
1.56200,-42.36497984
1.56250,-43.89095188
1.56300,-43.89095188
1.56350,-32.29356438
1.56400,-2.994901244
1.56450,29.96609479
1.56500,48.27775925
1.56550,48.88814807
1.56600,44.00503754
1.56650,42.1738711
1.56700,41.56348228
1.56750,45.53100958
1.56800,60.48553556
1.56850,79.40758884
1.56900,85.51147699
1.56950,73.60889509
1.57000,56.51800826
1.57050,42.4790655
1.57100,25.08298426
1.57150,3.414181318
1.57200,-8.793594991
1.57250,-2.689706836
1.57300,12.87520796
1.57350,26.3037619
1.57400,40.34270465
1.57450,61.40111878
1.57500,83.06992173
1.57550,93.751726
1.57600,91.61536514
1.57650,82.45953291
1.57700,68.42059016
1.57750,51.63489773
1.57800,37.59595498
1.57850,27.21934512
1.57900,18.36870729
1.57950,17.75831848
1.58000,41.25828787
1.58050,86.73225462
1.58100,126.712722
1.58150,141.0568592
1.58200,143.8036089
1.58250,159.9789125
1.58300,186.2256315
1.58350,197.823019
1.58400,185.3100483
1.58450,163.336051
1.58500,142.8880256
1.58550,119.9984451
1.58600,90.69978192
1.58650,65.06345167
1.58700,51.94009214
1.58750,44.61542636
1.58800,29.35570597
1.58850,7.07651421
1.58900,-6.046845321
1.58950,1.583014871
1.59000,17.45312407
1.59050,11.34923592
1.59100,-28.63123149
1.59150,-71.05325416
1.59200,-69.83247653
1.59250,-21.0013713
1.59300,29.35570597
1.59350,41.25828787
1.59400,19.28429052
1.59450,-6.962428544
1.59500,-27.41045386
1.59550,-47.55328477
1.59600,-65.25456042
1.59650,-68.6116989
1.59700,-53.96236733
1.59750,-28.02084268
1.59800,1.277820464
1.59850,24.16740104
1.59900,18.6739017
1.59950,-27.71564827
1.60000,-102.4882782
1.60050,-176.6505192
1.60100,-236.7738175
1.60150,-283.4685619
1.60200,-313.3776139
1.60250,-318.2607244
1.60300,-304.2217816
1.60350,-287.4360892
1.60400,-271.2607856
1.60450,-242.8777057
1.60500,-200.455683
1.60550,-160.4752156
1.60600,-132.3973301
1.60650,-104.9298334
1.60700,-64.03378278
1.60750,-13.67670551
1.60800,30.2712892
1.60850,62.0115076
1.60900,81.23875528
1.60950,89.17380988
1.61000,90.39458751
1.61050,96.49847567
1.61100,115.1153345
1.61150,139.5308872
1.61200,160.2841069
1.61250,180.4269378
1.61300,207.8944345
1.61350,235.3619312
1.61400,244.5177634
1.61450,228.0372654
1.61500,196.6022414
1.61550,162.4204677
1.61600,122.7451947
1.61650,71.47253423
1.61700,12.87520796
1.61750,-35.95589728
1.61800,-63.72858838
1.61850,-74.41039265
1.61900,-84.4818081
1.61950,-104.9298334
1.62000,-131.1765525
1.62050,-153.4557442
1.62100,-169.9362423
1.62150,-178.7868801
1.62200,-170.2414367
1.62250,-140.6375791
1.62300,-104.3194446
1.62350,-75.63117028
1.62400,-42.36497984
1.62450,19.89467933
1.62500,104.1283359
1.62550,166.387995
1.62600,179.816549
1.62650,161.8100789
1.62700,141.667248
1.62750,123.660778
1.62800,98.02444771
1.62850,70.86214542
1.62900,50.4141201
1.62950,29.66090038
1.63000,0.05704283282
1.63050,-27.10525945
1.63100,-32.59875879
1.63150,-19.47539926
1.63200,-7.267622952
1.63250,-6.657234137
1.63300,-15.20267755
1.63350,-27.71564827
1.63400,-36.26109168
1.63450,-27.41045386
1.63500,1.888209279
1.63550,36.98556616
1.63600,64.75825727
1.63650,83.06992173
1.63700,86.1218658
1.63750,59.56995233
1.63800,12.87520796
1.63850,-12.45592788
1.63900,4.940153356
1.63950,30.2712892
1.64000,14.7063744
1.64050,-38.39745254
1.64100,-85.09219692
1.64150,-100.6571117
1.64200,-100.3519173
1.64250,-101.2675005
1.64300,-100.3519173
1.64350,-89.97530744
1.64400,-65.25456042
1.64450,-20.69617689
1.64500,40.95309346
1.64550,96.80367007
1.64600,119.3880562
1.64650,112.0633905
1.64700,100.1608086
1.64750,95.58289244
1.64800,88.86861547
1.64850,76.66083917
1.64900,65.67384049
1.64950,54.3816474
1.65000,32.10245564
1.65050,0.6674316482
1.65100,-27.10525945
1.65150,-51.21561766
1.65200,-84.78700251
1.65250,-129.9557748
1.65300,-174.5141584
1.65350,-212.6634593
1.65400,-251.1179547
1.65450,-288.046478
1.65500,-306.6633369
1.65550,-298.7282823
1.65600,-275.2283129
1.65650,-246.2348442
1.65700,-209.0011264
1.65750,-163.2219653
1.65800,-122.0207202
1.65850,-94.24802915
1.65900,-72.88442061
1.65950,-47.85847918
1.66000,-23.74812097
1.66050,-10.31956703
1.66100,-8.183206175
1.66150,-7.878011767
1.66200,-0.2481515749
1.66250,18.06351289
1.66300,44.61542636
1.66350,66.58942371
1.66400,73.30370068
1.66450,73.30370068
1.66500,85.8166714
1.66550,113.2841681
1.66600,136.4789431
1.66650,144.1088033
1.66700,154.7906075
1.66750,189.58277
1.66800,237.8034864
1.66850,268.0177328
1.66900,268.933316
1.66950,257.6411229
1.67000,250.3164571
1.67050,244.212569
1.67100,231.3944039
1.67150,210.9463786
1.67200,182.868493
1.67250,142.8880256
1.67300,91.31017074
1.67350,36.68037176
1.67400,-16.11826078
1.67450,-70.44286535
1.67500,-124.1570811
1.67550,-166.2739094
1.67600,-191.9102396
1.67650,-207.16996
1.67700,-211.4426817
1.67750,-189.4686843
1.67800,-133.3129133
1.67850,-64.33897719
1.67900,-8.793594991
1.67950,34.5440109
1.68000,85.8166714
1.68050,139.2256927
1.68100,159.0633292
1.68150,127.6283053
1.68200,71.77772864
1.68250,29.96609479
1.68300,6.160930987
1.68350,-18.86501044
1.68400,-46.63770155
1.68450,-56.709117
1.68500,-43.89095188
1.68550,-28.32603708
1.68600,-23.44292656
1.68650,-17.64423281
1.68700,4.329764541
1.68750,38.5115382
1.68800,67.81020134
1.68850,87.95303225
1.68900,103.8231415
1.68950,115.1153345
1.69000,113.8945569
1.69050,93.751726
1.69100,54.99203622
1.69150,6.466125395
1.69200,-29.54681471
1.69250,-32.9039532
1.69300,-12.45592788
1.69350,-3.910484467
1.69400,-31.68317557
1.69450,-80.5142808
1.69500,-120.7999426
1.69550,-149.1830225
1.69600,-176.3453248
1.69650,-193.4362116
1.69700,-176.9557136
1.69750,-123.5466923
1.69800,-60.6766443
1.69850,-13.67670551
1.69900,13.79079118
1.69950,32.10245564
1.70000,47.66737043
1.70050,64.75825727
1.70100,82.1543385
1.70150,87.95303225
1.70200,65.67384049
1.70250,18.6739017
1.70300,-26.80006504
1.70350,-46.94289595
1.70400,-39.31303576
1.70450,-19.17020485
1.70500,-3.60529006
1.70550,-2.079318021
1.70600,-12.76112229
1.70650,-24.35850978
1.70700,-25.57928741
1.70750,-18.25462163
1.70800,-14.89748314
1.70850,-20.39098248
1.70900,-26.49487064
1.70950,-25.57928741
1.71000,-14.59228874
1.71050,7.07651421
1.71100,42.1738711
1.71150,83.06992173
1.71200,115.1153345
1.71250,133.7321934
1.71300,154.1802187
1.71350,192.6347141
1.71400,241.7710137
1.71450,273.8164265
1.71500,267.7125384
1.71550,224.6801269
1.71600,163.0308565
1.71650,97.41405889
1.71700,30.88167801
1.71750,-34.73511965
1.71800,-91.80647389
1.71850,-126.9038308
1.71900,-134.8388854
1.71950,-120.1895538
1.72000,-91.50127948
1.72050,-58.84547785
1.72100,-38.70264695
1.72150,-50.60522885
1.72200,-92.4168627
1.72250,-130.2609693
1.72300,-128.1246084
1.72350,-88.14414099
1.72400,-49.68964562
1.72450,-45.11172951
1.72500,-63.72858838
1.72550,-71.05325416
1.72600,-53.04678411
1.72650,-30.15720353
1.72700,-29.24162031
1.72750,-49.07925681
1.72800,-62.50781075
1.72850,-47.85847918
1.72900,-16.42345518
1.72950,-2.079318021
1.73000,-26.80006504
1.73050,-80.20908639
1.73100,-129.9557748
1.73150,-156.2024939
1.73200,-164.7479373
1.73250,-170.5466311
1.73300,-178.1764913
1.73350,-182.7544074
1.73400,-181.2284353
1.73450,-177.260908
1.73500,-171.4622143
1.73550,-161.0856044
1.73600,-142.77394
1.73650,-116.5272209
1.73700,-82.34544725
1.73750,-47.24809036
1.73800,-24.66370419
1.73850,-24.66370419
1.73900,-35.95589728
1.73950,-31.37798116
1.74000,6.771319802
1.74050,73.30370068
1.74100,148.9919138
1.74150,216.1346835
1.74200,263.4398167
1.74250,283.2774532
1.74300,277.173565
1.74350,259.167095
1.74400,243.9073746
1.74450,233.2255703
1.74500,216.7450723
1.74550,181.9529098
1.74600,126.712722
1.74650,62.62189641
1.74700,11.04404151
1.74750,-15.20267755
1.74800,-27.41045386
1.74850,-49.38445121
1.74900,-90.28050185
1.74950,-136.3648574
1.75000,-171.1570199
1.75050,-190.9946564
1.75100,-200.7608774
1.75150,-203.8128215
1.75200,-201.3712663
1.75250,-192.215434
1.75300,-172.0726031
1.75350,-139.4168015
1.75400,-103.4038614
1.75450,-73.80000383
1.75500,-47.55328477
1.75550,-15.50787196
1.75600,18.36870729
1.75650,40.64789906
1.75700,53.16086977
1.75750,75.44006154
1.75800,112.0633905
1.75850,143.4984145
1.75900,152.6542467
1.75950,145.3295809
1.76000,132.2062214
1.76050,112.0633905
1.76100,81.23875528
1.76150,48.27775925
1.76200,24.16740104
1.76250,11.95962473
1.76300,12.26481914
1.76350,25.38817867
1.76400,43.69984313
1.76450,57.43359148
1.76500,72.08292305
1.76550,100.7711974
1.76600,135.5633599
1.76650,151.1282746
1.76700,142.5828312
1.76750,131.2906381
1.76800,126.712722
1.76850,108.706252
1.76900,66.89461812
1.76950,24.16740104
1.77000,1.888209279
1.77050,-12.45592788
1.77100,-38.39745254
1.77150,-63.42339397
1.77200,-62.50781075
1.77250,-39.31303576
1.77300,-17.94942722
1.77350,-8.488400583
1.77400,-6.657234137
1.77450,-12.15073348
1.77500,-25.57928741
1.77550,-35.65070287
1.77600,-33.20914761
1.77650,-29.54681471
1.77700,-39.61823017
1.77750,-58.54028345
1.77800,-71.05325416
1.77850,-75.32597587
1.77900,-76.85194791
1.77950,-67.08572686
1.78000,-35.04031405
1.78050,7.07651421
1.78100,31.18687242
1.78150,23.55701223
1.78200,-2.689706836
1.78250,-30.76759235
1.78300,-46.63770155
1.78350,-38.09225813
1.78400,-0.5533459826
1.78450,55.90761944
1.78500,110.232224
1.78550,145.3295809
1.78600,156.9269684
1.78650,152.0438579
1.78700,146.2451641
1.78750,152.3490523
1.78800,162.4204677
1.78850,153.8750243
1.78900,119.6932507
1.78950,79.71278324
1.79000,52.24528655
1.79050,26.3037619
1.79100,-17.33903841
1.79150,-74.71558705
1.79200,-122.9363035
1.79250,-153.4557442
1.79300,-175.734936
1.79350,-188.2479067
1.79400,-170.5466311
1.79450,-112.864888
1.79500,-34.73511965
1.79550,31.79726123
1.79600,75.13486713
1.79650,105.0439191
1.79700,127.9334997
1.79750,138.6153039
1.79800,131.2906381
1.79850,115.7257234
1.79900,104.1283359
1.79950,94.0569204
1.80000,69.9465622
1.80050,29.05051156
1.80100,-12.15073348
1.80150,-39.61823017
1.80200,-56.40392259
1.80250,-74.41039265
1.80300,-94.24802915
1.80350,-110.4233328
1.80400,-122.9363035
1.80450,-137.585635
1.80500,-154.9817163
1.80550,-170.2414367
1.80600,-180.0076577
1.80650,-183.3647962
1.80700,-178.1764913
1.80750,-167.1894926
1.80800,-160.4752156
1.80850,-159.8648268
1.80900,-152.540161
1.80950,-126.9038308
1.81000,-89.05972422
1.81050,-53.65717292
1.81100,-22.83253774
1.81150,10.7388471
1.81200,49.19334247
1.81250,85.8166714
1.81300,116.946501
1.81350,143.19322
1.81400,164.862023
1.81450,183.1736875
1.81500,202.7061295
1.81550,218.5762387
1.81600,212.1671562
1.81650,168.2191615
1.81700,93.14133718
1.81750,6.771319802
1.81800,-75.93636468
1.81850,-149.7934113
1.81900,-207.16996
1.81950,-243.1829001
1.82000,-263.325731
1.82050,-274.6179241
1.82100,-271.56598
1.82150,-244.4036777
1.82200,-198.6245166
1.82250,-154.0661331
1.82300,-122.3259147
1.82350,-99.13113967
1.82400,-75.02078146
1.82450,-47.55328477
1.82500,-17.64423281
1.82550,13.48559677
1.82600,45.22581517
1.82650,75.13486713
1.82700,97.7192533
1.82750,103.2127526
1.82800,88.25822666
1.82850,64.75825727
1.82900,49.19334247
1.82950,43.39464873
1.83000,32.10245564
1.83050,13.48559677
1.83100,11.04404151
1.83150,42.1738711
1.83200,89.7841987
1.83250,119.3880562
1.83300,118.1672786
1.83350,100.1608086
1.83400,80.01797765
1.83450,60.18034115
1.83500,44.31023195
1.83550,40.64789906
1.83600,48.27775925
1.83650,54.99203622
1.83700,58.0439803
1.83750,67.50500693
1.83800,87.64783784
1.83850,107.1802799
1.83900,117.8620842
1.83950,129.1542773
1.84000,151.4334691
1.84050,175.8490217
1.84100,184.0892707
1.84150,170.3555223
1.84200,145.6347753
1.84250,118.1672786
1.84300,90.69978192
1.84350,70.86214542
1.84400,70.2517566
1.84450,92.83614277
1.84500,128.5438885
1.84550,163.6412454
1.84600,188.056798
1.84650,197.2126302
1.84700,188.3619924
1.84750,159.6737181
1.84800,106.5698911
1.84850,22.641429
1.84900,-85.39739132
1.84950,-195.8777669
1.85000,-286.2153116
1.85050,-351.8321092
1.85100,-393.0333543
1.85150,-398.5268536
1.85200,-356.4100254
1.85250,-277.0594794
1.85300,-188.8582955
1.85350,-107.9817775
1.85400,-35.34550846
1.85450,20.81026256
1.85500,48.88814807
1.85550,55.90761944
1.85600,66.58942371
1.85650,87.03744903
1.85700,98.02444771
1.85750,91.00497633
1.85800,83.37511614
1.85850,84.90108817
1.85900,77.57642239
1.85950,49.49853688
1.86000,20.19987374
1.86050,9.212875064
1.86100,3.10898691
1.86150,-19.78059367
1.86200,-51.82600648
1.86250,-72.88442061
1.86300,-91.19608507
1.86350,-127.2090252
1.86400,-169.020659
1.86450,-185.8063515
1.86500,-173.2933807
1.86550,-154.3713275
1.86600,-136.9752462
1.86650,-112.2544992
1.86700,-91.80647389
1.86750,-97.91036204
1.86800,-117.4428041
1.86850,-102.1830837
1.86900,-35.34550846
1.86950,43.69984313
1.87000,95.27769804
1.87050,119.3880562
1.87100,130.0698605
1.87150,121.5244171
1.87200,87.95303225
1.87250,45.22581517
1.87300,9.212875064
1.87350,-29.85200912
1.87400,-80.20908639
1.87450,-121.105137
1.87500,-128.4298028
1.87550,-106.7609999
1.87600,-77.76753113
1.87650,-46.63770155
1.87700,-7.57281736
1.87750,30.5764836
1.87800,52.85567537
1.87850,59.87514674
1.87900,63.23228523
1.87950,69.03097897
1.88000,77.57642239
1.88050,91.31017074
1.88100,109.0114464
1.88150,122.4400003
1.88200,130.9854437
1.88250,148.6867194
1.88300,178.2905769
1.88350,199.6541855
1.88400,197.823019
1.88450,189.2775756
1.88500,192.6347141
1.88550,197.2126302
1.88600,178.9009657
1.88650,142.8880256
1.88700,116.6413066
1.88750,110.232224
1.88800,107.1802799
1.88850,95.58289244
1.88900,82.45953291
1.88950,77.8816168
1.89000,79.71278324
1.89050,83.68031054
1.89100,88.25822666
1.89150,93.44653159
1.89200,100.1608086
1.89250,111.4530016
1.89300,119.6932507
1.89350,105.3491135
1.89400,57.43359148
1.89450,-10.31956703
1.89500,-79.59869758
1.89550,-148.2674393
1.89600,-221.8192916
1.89650,-290.7932277
1.89700,-339.0139441
1.89750,-366.4814408
1.89800,-380.5203836
1.89850,-376.8580507
1.89900,-346.3386099
1.89950,-299.9490599
1.90000,-260.8841758
1.90050,-235.2478455
1.90100,-212.3582649
1.90150,-192.5206284
1.90200,-182.1440186
1.90250,-173.9037696
1.90300,-152.2349666
1.90350,-121.4103314
1.90400,-101.2675005
1.90450,-92.11166829
1.90500,-73.80000383
1.90550,-39.92342458
1.90600,-7.57281736
1.90650,13.48559677
1.90700,29.35570597
1.90750,41.25828787
1.90800,42.1738711
1.90850,38.2063438
1.90900,44.31023195
1.90950,54.076453
1.91000,45.22581517
1.91050,24.77778986
1.91100,31.18687242
1.91150,78.49200561
1.91200,127.0179164
1.91250,132.5114158
1.91300,100.1608086
1.91350,63.23228523
1.91400,34.84920531
1.91450,4.024570133
1.91500,-29.54681471
1.91550,-54.87795055
1.91600,-69.83247653
1.91650,-81.73505843
1.91700,-88.75452981
1.91750,-80.5142808
1.91800,-56.40392259
1.91850,-28.02084268
1.91900,0.3622372405
1.91950,36.98556616
1.92000,84.59589377
1.92050,132.8166102
1.92100,167.3035783
1.92150,184.6996595
1.92200,189.8879644
1.92250,187.7516036
1.92300,176.7646049
1.92350,153.2646355
1.92400,117.5568898
1.92450,79.71278324
1.92500,50.4141201
1.92550,31.49206683
1.92600,15.92715203
1.92650,0.9726260559
1.92700,-8.793594991
1.92750,-11.23515025
1.92800,-10.31956703
1.92850,-11.54034466
1.92900,-14.28709433
1.92950,-12.76112229
1.93000,-7.57281736
1.93050,-4.520873283
1.93100,-5.436456506
1.93150,-6.657234137
1.93200,-6.657234137
1.93250,-9.709178214
1.93300,-17.94942722
1.93350,-23.44292656
1.93400,-15.81306637
1.93450,4.329764541
1.93500,25.38817867
1.93550,40.03751024
1.93600,51.32970333
1.93650,63.84267404
1.93700,72.69331187
1.93750,71.16733983
1.93800,66.2842293
1.93850,71.16733983
1.93900,86.1218658
1.93950,94.36211481
1.94000,82.76472732
1.94050,57.73878589
1.94100,36.37517735
1.94150,24.77778986
1.94200,12.26481914
1.94250,-12.45592788
1.94300,-47.24809036
1.94350,-71.96883738
1.94400,-68.6116989
1.94450,-39.31303576
1.94500,-6.962428544
1.94550,4.024570133
1.94600,-10.01437262
1.94650,-35.04031405
1.94700,-52.13120088
1.94750,-53.96236733
1.94800,-45.11172951
1.94850,-29.54681471
1.94900,-5.131262098
1.94950,30.2712892
1.95000,68.11539575
1.95050,89.17380988
1.95100,83.68031054
1.95150,58.65436911
1.95200,28.74531716
1.95250,-0.8585403903
1.95300,-34.42992524
1.95350,-69.52728212
1.95400,-92.72205711
1.95450,-95.16361237
1.95500,-87.83894659
1.95550,-89.97530744
1.95600,-105.5402222
1.95650,-119.8843594
1.95700,-119.579165
1.95750,-108.5921663
1.95800,-99.43633408
1.95850,-92.4168627
1.95900,-76.24155909
1.95950,-46.94289595
1.96000,-13.98189992
1.96050,13.18040236
1.96100,32.10245564
1.96150,35.45959413
1.96200,13.48559677
1.96250,-25.27409301
1.96300,-50.91042325
1.96350,-43.58575747
1.96400,-20.39098248
1.96450,-9.403983806
1.96500,-7.267622952
1.96550,11.04404151
1.96600,51.02450892
1.96650,86.1218658
1.96700,92.83614277
1.96750,73.60889509
1.96800,39.73231583
1.96850,-2.384512429
1.96900,-45.72211832
1.96950,-75.02078146
1.97000,-81.12466962
1.97050,-68.00131008
1.97100,-41.44939661
1.97150,-3.910484467
1.97200,39.42712143
1.97250,78.1868112
1.97300,106.8750855
1.97350,126.4075276
1.97400,133.426999
1.97450,118.7776674
1.97500,83.06992173
1.97550,40.03751024
1.97600,4.940153356
1.97650,-14.89748314
1.97700,-15.50787196
1.97750,-0.8585403903
1.97800,7.686903025
1.97850,-13.0663167
1.97900,-61.59222752
1.97950,-106.150611
1.98000,-123.5466923
1.98050,-123.2414979
1.98100,-126.293442
1.98150,-134.2284966
1.98200,-133.0077189
1.98250,-118.6635818
1.98300,-101.8778893
1.98350,-87.22855777
1.98400,-64.03378278
1.98450,-24.05331538
1.98500,24.16740104
1.98550,65.36864608
1.98600,90.39458751
1.98650,95.88808685
1.98700,81.8491441
1.98750,52.85567537
1.98800,22.94662341
1.98850,4.329764541
1.98900,-4.520873283
1.98950,-13.37151111
1.99000,-22.83253774
1.99050,-23.13773215
1.99100,-11.54034466
1.99150,1.583014871
1.99200,9.212875064
1.99250,16.23234644
1.99300,32.40765005
1.99350,58.3491747
1.99400,89.7841987
1.99450,124.2711668
1.99500,159.9789125
1.99550,189.2775756
1.99600,202.7061295
1.99650,196.297047
1.99700,174.628244
1.99750,146.8555529
1.99800,121.8296115
1.99850,101.3815862
1.99900,82.1543385
1.99950,63.23228523
2.00000,47.36217603
2.00050,31.18687242
2.00100,3.10898691
2.00150,-41.75459102
2.00200,-90.89089066
2.00250,-124.4622755
2.00300,-140.3323847
2.00350,-151.9297722
2.00400,-163.5271597
2.00450,-166.2739094
2.00500,-156.5076883
2.00550,-150.4038002
2.00600,-161.0856044
2.00650,-175.734936
2.00700,-166.2739094
2.00750,-122.3259147
2.00800,-63.42339397
2.00850,-15.50787196
2.00900,16.84273526
2.00950,49.80373129
2.01000,91.61536514
2.01050,127.0179164
2.01100,134.952971
2.01150,116.3361122
2.01200,94.97250363
2.01250,88.56342107
2.01300,87.34264344
2.01350,72.69331187
2.01400,37.59595498
2.01450,-9.098789398
2.01500,-59.76106108
2.01550,-109.2025551
2.01600,-147.6570505
2.01650,-162.6115765
2.01700,-153.7609386
2.01750,-137.2804406
2.01800,-129.0401916
2.01850,-129.0401916
2.01900,-122.9363035
2.01950,-100.0467229
2.02000,-64.6441716
2.02050,-33.20914761
2.02100,-16.42345518
2.02150,-6.962428544
2.02200,11.34923592
2.02250,42.4790655
2.02300,72.38811746
2.02350,89.17380988
2.02400,96.49847567
2.02450,102.9075582
2.02500,105.3491135
2.02550,96.80367007
2.02600,79.71278324
2.02650,66.2842293
2.02700,59.26475793
2.02750,52.55048096
2.02800,41.86867669
2.02850,28.13492834
2.02900,11.65443033
2.02950,-6.352039729
2.03000,-18.86501044
2.03050,-17.033844
2.03100,-6.962428544
2.03150,-5.741650914
2.03200,-15.81306637
2.03250,-20.08578808
2.03300,-6.962428544
2.03350,12.57001355
2.03400,25.08298426
2.03450,34.84920531
2.03500,50.4141201
2.03550,63.53747963
2.03600,57.73878589
2.03650,40.03751024
2.03700,37.59595498
2.03750,61.09592437
2.03800,88.25822666
2.03850,92.22575396
2.03900,71.77772864
2.03950,45.53100958
2.04000,22.3362346
2.04050,0.6674316482
2.04100,-18.86501044
2.04150,-33.20914761
2.04200,-46.94289595
2.04250,-71.66364298
2.04300,-104.624639
2.04350,-127.2090252
2.04400,-127.819414
2.04450,-113.4752768
2.04500,-94.85841796
2.04550,-68.91689331
2.04600,-28.9364259
2.04650,18.06351289
2.04700,55.29723063
2.04750,73.9140895
2.04800,77.57642239
2.04850,72.99850627
2.04900,62.92709082
2.04950,48.58295366
2.05000,27.52453953
2.05050,-1.163734798
2.05100,-29.85200912
2.05150,-37.78706372
2.05200,-13.98189992
2.05250,26.3037619
2.05300,53.46606418
2.05350,52.85567537
2.05400,33.32323327
2.05450,10.7388471
2.05500,-2.994901244
2.05550,-2.689706836
2.05600,8.602486248
2.05650,15.01156881
2.05700,2.803792502
2.05750,-24.66370419
2.05800,-53.65717292
2.05850,-77.15714232
2.05900,-97.60516763
2.05950,-112.2544992
2.06000,-114.3908601
2.06050,-105.5402222
2.06100,-94.24802915
2.06150,-79.29350317
2.06200,-50.60522885
2.06250,-2.079318021
2.06300,63.23228523
2.06350,141.0568592
2.06400,224.3749325
2.06450,295.7904239
2.06500,337.9072522
2.06550,348.283862
2.06600,338.517641
2.06650,317.4592268
2.06700,291.2125078
2.06750,271.3748713
2.06800,261.9138446
2.06850,241.1606249
2.06900,181.9529098
2.06950,87.64783784
2.07000,-8.183206175
2.07050,-90.28050185
2.07100,-171.4622143
2.07150,-252.9491212
2.07200,-301.7802264
2.07250,-295.0659494
2.07300,-260.8841758
2.07350,-242.5725113
2.07400,-239.8257616
2.07450,-219.0725419
2.07500,-172.6829919
2.07550,-130.5661637
2.07600,-111.6441104
2.07650,-98.82594526
2.07700,-73.18961502
2.07750,-46.33250714
2.07800,-39.92342458
2.07850,-53.35197851
2.07900,-73.80000383
2.07950,-96.99477882
2.08000,-119.579165
2.08050,-124.4622755
2.08100,-98.52075085
2.08150,-56.09872818
2.08200,-26.18967623
2.08250,-17.64423281
2.08300,-15.20267755
2.08350,-8.183206175
2.08400,-3.60529006
2.08450,-6.352039729
2.08500,-6.352039729
2.08550,4.940153356
2.08600,21.11545696
2.08650,28.13492834
2.08700,20.50506815
2.08750,2.193403687
2.08800,-17.94942722
2.08850,-28.02084268
2.08900,-17.33903841
2.08950,13.79079118
2.09000,54.99203622
2.09050,93.751726
2.09100,126.1023332
2.09150,150.8230802
2.09200,165.7776062
2.09250,170.9659111
2.09300,168.5243559
2.09350,159.3685237
2.09400,142.8880256
2.09450,119.9984451
2.09500,94.97250363
2.09550,66.89461812
2.09600,28.74531716
2.09650,-22.22214893
2.09700,-81.12466962
2.09750,-140.3323847
2.09800,-194.9621837
2.09850,-237.3842064
2.09900,-255.085482
2.09950,-243.4880945
2.10000,-212.9686537
2.10050,-174.208964
2.10100,-123.8518867
2.10150,-58.23508904
2.10200,8.297291841
2.10250,52.85567537
2.10300,71.16733983
2.10350,83.98550495
2.10400,107.7906688
2.10450,134.952971
2.10500,147.7711362
2.10550,137.6997207
2.10600,109.3166408
2.10650,68.11539575
2.10700,21.11545696
2.10750,-23.44292656
2.10800,-59.15067226
2.10850,-85.09219692
2.10900,-103.7090558
2.10950,-114.3908601
2.11000,-111.9493048
2.11050,-94.85841796
2.11100,-65.86494923
2.11150,-33.20914761
2.11200,-9.403983806
2.11250,-6.657234137
2.11300,-24.05331538
2.11350,-44.50134069
2.11400,-51.82600648
2.11450,-43.28056306
2.11500,-26.49487064
2.11550,-4.215678875
2.11600,23.86220663
2.11650,54.076453
2.11700,81.54394969
2.11750,109.0114464
2.11800,141.3620536
2.11850,170.9659111
2.11900,181.0373266
2.11950,165.4724118
2.12000,138.9204983
2.12050,117.5568898
2.12100,101.0763918
2.12150,80.93356087
2.12200,61.40111878
2.12250,54.076453
2.12300,61.70631319
2.12350,76.35564476
2.12400,93.14133718
2.12450,119.0828618
2.12500,161.1996901
2.12550,216.4398779
2.12600,268.933316
2.12650,294.2644519
2.12700,273.2060377
2.12750,213.0827394
2.12800,147.1607473
2.12850,104.1283359
2.12900,78.49200561
2.12950,46.75178721
2.13000,3.414181318
2.13050,-36.56628609
2.13100,-70.74805975
2.13150,-110.4233328
2.13200,-153.1505498
2.13250,-181.5336297
2.13300,-196.7933501
2.13350,-225.7868189
2.13400,-281.9425899
2.13450,-342.9814714
2.13500,-382.6567444
2.13550,-404.3255474
2.13600,-418.0592957
2.13650,-412.260602
2.13700,-371.3645513
2.13750,-305.4425593
2.13800,-237.6894008
2.13850,-176.0401304
2.13900,-115.9168321
2.13950,-59.45586667
2.14000,-10.62476144
2.14050,36.37517735
2.14100,86.42706021
2.14150,127.3231108
2.14200,149.907497
2.14250,164.862023
2.14300,183.4788819
2.14350,192.6347141
2.14400,172.4918832
2.14450,127.3231108
2.14500,79.71278324
2.14550,43.69984313
2.14600,24.77778986
2.14650,30.88167801
2.14700,57.73878589
2.14750,82.1543385
2.14800,87.03744903
2.14850,85.51147699
2.14900,95.58289244
2.14950,105.6543079
2.15000,94.66730922
2.15050,68.42059016
2.15100,49.19334247
2.15150,37.59595498
2.15200,12.57001355
2.15250,-33.20914761
2.15300,-86.31297455
2.15350,-132.0921357
2.15400,-167.1894926
2.15450,-193.1310172
2.15500,-212.9686537
2.15550,-228.8387629
2.15600,-230.9751238
2.15650,-199.8452942
2.15700,-136.059663
2.15750,-73.18961502
2.15800,-39.61823017
2.15850,-23.74812097
2.15900,-1.163734798
2.15950,27.21934512
2.16000,45.22581517
2.16050,56.51800826
2.16100,75.13486713
2.16150,93.44653159
2.16200,88.25822666
2.16250,60.18034115
2.16300,38.5115382
2.16350,37.59595498
2.16400,42.1738711
2.16450,34.84920531
2.16500,20.81026256
2.16550,15.92715203
2.16600,23.25181782
2.16650,32.71284446
2.16700,34.84920531
2.16750,28.44012275
2.16800,20.50506815
2.16850,15.31676322
2.16900,11.04404151
2.16950,3.10898691
2.17000,-3.60529006
2.17050,-3.910484467
2.17100,-0.8585403903
2.17150,-2.384512429
2.17200,1.888209279
2.17250,31.49206683
2.17300,83.37511614
2.17350,127.0179164
2.17400,140.141276
2.17450,133.7321934
2.17500,126.712722
2.17550,118.1672786
2.17600,97.10886448
2.17650,67.81020134
2.17700,44.00503754
2.17750,30.5764836
2.17800,21.42065137
2.17850,8.602486248
2.17900,-13.67670551
2.17950,-45.72211832
2.18000,-71.66364298
2.18050,-70.13767094
2.18100,-40.53381339
2.18150,-8.183206175
2.18200,7.07651421
2.18250,11.04404151
2.18300,14.7063744
2.18350,15.62195763
2.18400,8.907680656
2.18450,4.634958948
2.18500,16.23234644
2.18550,40.34270465
2.18600,61.70631319
2.18650,70.86214542
2.18700,66.89461812
2.18750,53.16086977
2.18800,43.69984313
2.18850,58.95956352
2.18900,105.9595023
2.18950,164.2516342
2.19000,204.2321016
2.19050,213.3879338
2.19100,193.8554917
2.19150,152.3490523
2.19200,97.41405889
2.19250,47.66737043
2.19300,19.28429052
2.19350,5.855736579
2.19400,-14.28709433
2.19450,-53.65717292
2.19500,-97.29997322
2.19550,-120.1895538
2.19600,-115.0012489
2.19650,-95.77400119
2.19700,-82.65064165
2.19750,-80.20908639
2.19800,-82.65064165
2.19850,-89.67011303
2.19900,-108.2869719
2.19950,-137.2804406
2.20000,-161.6959932
2.20050,-169.9362423
2.20100,-172.3777975
2.20150,-184.2803794
2.20200,-201.9816551
2.20250,-210.5270985
2.20300,-205.9491824
2.20350,-198.0141278
2.20400,-189.4686843
2.20450,-171.7674087
2.20500,-143.6895232
2.20550,-114.3908601
2.20600,-85.70258573
2.20650,-46.63770155
2.20700,0.05704283282
2.20750,29.35570597
2.20800,24.16740104
2.20850,1.583014871
2.20900,-6.046845321
2.20950,8.297291841
2.21000,25.99856749
2.21050,32.10245564
2.21100,34.5440109
2.21150,45.22581517
2.21200,61.70631319
2.21250,75.13486713
2.21300,84.29069936
2.21350,93.44653159
2.21400,103.8231415
2.21450,112.6737793
2.21500,117.8620842
2.21550,119.9984451
2.21600,119.9984451
2.21650,120.6088339
2.21700,121.8296115
2.21750,115.7257234
2.21800,88.86861547
2.21850,40.64789906
2.21900,-11.54034466
2.21950,-49.07925681
2.22000,-67.39092127
2.22050,-74.10519824
2.22100,-79.90389198
2.22150,-90.89089066
2.22200,-104.624639
2.22250,-106.150611
2.22300,-81.42986402
2.22350,-34.73511965
2.22400,7.992097433
2.22450,26.91415071
2.22500,25.38817867
2.22550,19.58948493
2.22600,18.06351289
2.22650,17.14792966
2.22700,9.823263879
2.22750,-10.01437262
2.22800,-36.26109168
2.22850,-40.8390078
2.22900,9.518069472
2.22950,112.3685849
2.23000,216.4398779
2.23050,273.8164265
2.23100,285.413814
2.23150,284.4982308
2.23200,284.4982308
2.23250,267.1021496
2.23300,215.2191003
2.23350,135.2581654
2.23400,45.22581517
2.23450,-40.8390078
2.23500,-118.6635818
2.23550,-191.2998508
2.23600,-260.8841758
2.23650,-309.1048922
2.23700,-301.1698376
2.23750,-224.5660412
2.23800,-117.1376097
2.23850,-36.56628609
2.23900,-0.5533459826
2.23950,16.53754085
2.24000,36.06998294
2.24050,51.94009214
2.24100,57.12839707
2.24150,59.26475793
2.24200,57.12839707
2.24250,31.49206683
2.24300,-20.39098248
2.24350,-69.22208772
2.24400,-93.02725152
2.24450,-109.5077495
2.24500,-142.1635512
2.24550,-170.5466311
2.24600,-148.5726337
2.24650,-72.27403179
2.24700,11.95962473
2.24750,70.2517566
2.24800,115.7257234
2.24850,168.5243559
2.24900,214.9139059
2.24950,226.5112933
2.25000,204.537296
2.25050,173.7126608
2.25100,142.5828312
2.25150,100.466003
2.25200,47.66737043
2.25250,-0.8585403903
2.25300,-41.14420221
2.25350,-85.39739132
2.25400,-133.0077189
2.25450,-166.2739094
2.25500,-176.0401304
2.25550,-175.734936
2.25600,-174.5141584
2.25650,-162.6115765
2.25700,-135.4492742
2.25750,-112.2544992
2.25800,-110.4233328
2.25850,-115.6116377
2.25900,-103.098667
2.25950,-72.27403179
2.26000,-40.53381339
2.26050,-11.54034466
2.26100,20.81026256
2.26150,48.27775925
2.26200,50.71931451
2.26250,29.66090038
2.26300,12.87520796
2.26350,17.45312407
2.26400,30.88167801
2.26450,33.32323327
2.26500,25.08298426
2.26550,18.36870729
2.26600,13.48559677
2.26650,3.414181318
2.26700,-12.76112229
2.26750,-30.76759235
2.26800,-48.16367358
2.26850,-63.11819956
2.26900,-66.47533805
2.26950,-49.38445121
2.27000,-18.86501044
2.27050,3.719375725
2.27100,6.771319802
2.27150,-3.60529006
2.27200,-16.11826078
2.27250,-23.44292656
2.27300,-24.66370419
2.27350,-16.72864959
2.27400,-1.774123613
2.27450,11.65443033
2.27500,18.6739017
2.27550,23.55701223
2.27600,28.13492834
2.27650,23.86220663
2.27700,7.07651421
2.27750,-3.60529006
2.27800,10.7388471
2.27850,41.86867669
2.27900,64.45306286
2.27950,78.49200561
2.28000,106.5698911
2.28050,151.7386635
2.28100,181.342521
2.28150,173.7126608
2.28200,146.2451641
2.28250,126.4075276
2.28300,110.5374184
2.28350,81.54394969
2.28400,42.78425991
2.28450,9.518069472
2.28500,-19.78059367
2.28550,-60.06625548
2.28600,-109.5077495
2.28650,-152.2349666
2.28700,-184.8907682
2.28750,-213.2738482
2.28800,-229.1439574
2.28850,-210.5270985
2.28900,-156.5076883
2.28950,-94.55322355
2.29000,-45.41692391
2.29050,2.193403687
2.29100,68.11539575
2.29150,141.3620536
2.29200,193.5502973
2.29250,216.4398779
2.29300,228.3424598
2.29350,238.1086808
2.29400,230.1736262
2.29450,189.58277
2.29500,129.7646661
2.29550,75.13486713
2.29600,29.35570597
2.29650,-19.47539926
2.29700,-69.22208772
2.29750,-102.4882782
2.29800,-113.7804712
2.29850,-110.4233328
2.29900,-88.4493354
2.29950,-38.09225813
2.30000,25.08298426
2.30050,62.92709082
2.30100,62.316702
2.30150,52.85567537
2.30200,61.09592437
2.30250,72.08292305
2.30300,60.79072997
2.30350,33.93362209
2.30400,11.95962473
2.30450,-8.793594991
2.30500,-39.31303576
2.30550,-61.89742193
2.30600,-49.07925681
2.30650,-8.183206175
2.30700,26.3037619
2.30750,45.83620399
2.30800,68.72578457
2.30850,98.63483652
2.30900,110.232224
2.30950,87.34264344
2.31000,46.4465928
2.31050,8.602486248
2.31100,-25.88448182
2.31150,-67.39092127
2.31200,-116.5272209
2.31250,-167.1894926
2.31300,-210.5270985
2.31350,-231.890707
2.31400,-220.9037083
2.31450,-190.0790732
2.31500,-164.4427429
2.31550,-148.8778281
2.31600,-122.9363035
2.31650,-79.59869758
2.31700,-43.89095188
2.31750,-36.8714805
2.31800,-45.11172951
2.31850,-42.36497984
2.31900,-23.13773215
2.31950,2.803792502
2.32000,38.2063438
2.32050,89.7841987
2.32100,145.6347753
2.32150,185.9204371
2.32200,208.1996289
2.32250,221.6281828
2.32300,215.2191003
2.32350,166.387995
2.32400,79.40758884
2.32450,-13.0663167
2.32500,-91.80647389
2.32550,-162.6115765
2.32600,-225.7868189
2.32650,-263.6309254
2.32700,-272.4815632
2.32750,-274.0075353
2.32800,-277.3646738
2.32850,-254.1698988
2.32900,-183.0596018
2.32950,-93.94283474
2.33000,-32.9039532
2.33050,0.6674316482
2.33100,45.53100958
2.33150,109.9270296
2.33200,159.6737181
2.33250,175.2386329
2.33300,184.0892707
2.33350,215.2191003
2.33400,256.1151509
2.33450,276.8683706
2.33500,273.2060377
2.33550,259.167095
2.33600,230.7840151
2.33650,174.9334384
2.33700,105.0439191
2.33750,59.26475793
2.33800,53.46606418
2.33850,62.62189641
2.33900,54.68684181
2.33950,29.66090038
2.34000,7.686903025
2.34050,-3.910484467
2.34100,-15.20267755
2.34150,-30.46239794
2.34200,-45.72211832
2.34250,-62.20261634
2.34300,-90.58569625
2.34350,-129.345386
2.34400,-157.7284659
2.34450,-155.5921051
2.34500,-126.293442
2.34550,-93.63764033
2.34600,-75.32597587
2.34650,-69.83247653
2.34700,-64.33897719
2.34750,-52.7415897
2.34800,-39.92342458
2.34850,-33.20914761
2.34900,-30.15720353
2.34950,-21.61176011
2.35000,-4.520873283
2.35050,18.06351289
2.35100,44.92062076
2.35150,80.62836647
2.35200,124.2711668
2.35250,164.2516342
2.35300,189.8879644
2.35350,204.2321016
2.35400,212.4723506
2.35450,209.4204065
2.35500,184.6996595
2.35550,136.4789431
2.35600,72.69331187
2.35650,0.05704283282
2.35700,-73.80000383
2.35750,-139.7219959
2.35800,-185.8063515
2.35850,-205.3387936
2.35900,-198.0141278
2.35950,-171.7674087
2.36000,-144.6051064
2.36050,-132.3973301
2.36100,-129.0401916
2.36150,-111.9493048
2.36200,-74.41039265
2.36250,-35.65070287
2.36300,-15.20267755
2.36350,-6.657234137
2.36400,5.550542171
2.36450,24.16740104
2.36500,39.42712143
2.36550,46.4465928
2.36600,45.53100958
2.36650,37.90114939
2.36700,31.18687242
2.36750,40.34270465
2.36800,68.11539575
2.36850,96.19328126
2.36900,105.9595023
2.36950,100.7711974
2.37000,93.14133718
2.37050,87.03744903
2.37100,78.49200561
2.37150,68.42059016
2.37200,56.82320267
2.37250,36.98556616
2.37300,2.498598094
2.37350,-39.92342458
2.37400,-80.81947521
2.37450,-115.0012489
2.37500,-140.3323847
2.37550,-153.1505498
2.37600,-153.7609386
2.37650,-144.9103008
2.37700,-121.105137
2.37750,-75.93636468
2.37800,-22.52734334
2.37850,7.381708618
2.37900,4.634958948
2.37950,-3.910484467
2.38000,10.43365269
2.38050,39.12192702
2.38100,52.24528655
2.38150,44.92062076
2.38200,40.64789906
2.38250,54.076453
2.38300,66.2842293
2.38350,45.22581517
2.38400,-14.59228874
2.38450,-85.09219692
2.38500,-125.9882475
2.38550,-116.5272209
2.38600,-67.69611568
2.38650,-6.352039729
2.38700,51.02450892
2.38750,102.2971694
2.38800,141.0568592
2.38850,155.4009964
2.38900,142.8880256
2.38950,118.1672786
2.39000,93.14133718
2.39050,63.23228523
2.39100,25.08298426
2.39150,-5.436456506
2.39200,-7.267622952
2.39250,14.09598559
2.39300,29.66090038
2.39350,20.81026256
2.39400,-0.2481515749
2.39450,-15.20267755
2.39500,-22.22214893
2.39550,-30.46239794
2.39600,-41.14420221
2.39650,-46.94289595
2.39700,-49.99484003
2.39750,-60.06625548
2.39800,-77.76753113
2.39850,-87.53375218
2.39900,-76.24155909
2.39950,-52.7415897
2.40000,-39.61823017
2.40050,-45.72211832
2.40100,-53.04678411
2.40150,-38.70264695
2.40200,-4.520873283
2.40250,27.21934512
2.40300,44.00503754
2.40350,55.29723063
2.40400,77.27122798
2.40450,110.8426128
2.40500,145.3295809
2.40550,174.9334384
2.40600,202.4009351
2.40650,228.0372654
2.40700,242.686597
2.40750,231.3944039
2.40800,184.6996595
2.40850,105.9595023
2.40900,12.87520796
2.40950,-73.80000383
2.41000,-144.9103008
2.41050,-198.6245166
2.41100,-234.6374567
2.41150,-255.3906764
2.41200,-269.4296192
2.41250,-278.5854514
2.41300,-265.7672863
2.41350,-213.2738482
2.41400,-137.585635
2.41450,-80.20908639
2.41500,-59.45586667
2.41550,-54.26756174
2.41600,-43.58575747
2.41650,-38.09225813
2.41700,-57.01431141
2.41750,-92.4168627
2.41800,-116.8324153
2.41850,-117.7479985
2.41900,-102.4882782
2.41950,-81.73505843
2.42000,-62.81300515
2.42050,-48.7740624
2.42100,-33.81953642
2.42150,-13.98189992
2.42200,-4.82606769
2.42250,-30.46239794
2.42300,-84.78700251
2.42350,-126.9038308
2.42400,-130.5661637
2.42450,-108.2869719
2.42500,-76.85194791
2.42550,-29.24162031
2.42600,35.45959413
2.42650,87.03744903
2.42700,101.6867806
2.42750,100.7711974
2.42800,116.6413066
2.42850,141.667248
2.42900,146.5503585
2.42950,138.6153039
2.43000,155.7061908
2.43050,209.7256009
2.43100,271.0696769
2.43150,307.3878114
2.43200,307.3878114
2.43250,271.9852601
2.43300,213.0827394
2.43350,160.2841069
2.43400,132.8166102
2.43450,114.1997513
2.43500,75.13486713
2.43550,22.3362346
2.43600,-6.352039729
2.43650,-0.2481515749
2.43700,12.87520796
2.43750,11.65443033
2.43800,5.245347764
2.43850,6.466125395
2.43900,5.550542171
2.43950,-7.878011767
2.44000,-23.74812097
2.44050,-29.85200912
2.44100,-32.9039532
2.44150,-42.05978543
2.44200,-51.82600648
2.44250,-57.01431141
2.44300,-71.66364298
2.44350,-108.8973607
2.44400,-155.2869107
2.44450,-184.2803794
2.44500,-183.975185
2.44550,-162.6115765
2.44600,-127.5142196
2.44650,-80.81947521
2.44700,-32.29356438
2.44750,4.634958948
2.44800,33.01803886
2.44850,66.2842293
2.44900,107.7906688
2.44950,144.4139977
2.45000,162.7256621
2.45050,159.0633292
2.45100,137.3945263
2.45150,104.7387247
2.45200,71.47253423
2.45250,41.25828787
2.45300,4.940153356
2.45350,-44.19614628
2.45400,-91.80647389
2.45450,-117.4428041
2.45500,-123.5466923
2.45550,-126.5986364
2.45600,-122.0207202
2.45650,-89.05972422
2.45700,-30.15720353
2.45750,18.6739017
2.45800,32.10245564
2.45850,24.47259545
2.45900,20.50506815
2.45950,22.94662341
2.46000,19.89467933
2.46050,11.65443033
2.46100,3.414181318
2.46150,-10.31956703
2.46200,-38.70264695
2.46250,-72.27403179
2.46300,-92.72205711
2.46350,-94.24802915
2.46400,-89.36491862
2.46450,-94.24802915
2.46500,-119.2739706
2.46550,-162.6115765
2.46600,-206.2543768
2.46650,-220.2933195
2.46700,-183.0596018
2.46750,-99.13113967
2.46800,0.9726260559
2.46850,84.90108817
2.46900,137.6997207
2.46950,166.0828006
2.47000,178.2905769
2.47050,171.8814944
2.47100,139.5308872
2.47150,88.25822666
2.47200,36.37517735
2.47250,-8.183206175
2.47300,-56.09872818
2.47350,-117.1376097
2.47400,-189.7738788
2.47450,-267.2932583
2.47500,-334.436028
2.47550,-356.4100254
2.47600,-300.8646432
2.47650,-186.1115459
2.47700,-78.07272554
2.47750,-20.08578808
2.47800,5.245347764
2.47850,31.79726123
2.47900,60.18034115
2.47950,78.79720002
2.48000,103.517947
2.48050,153.5698299
2.48100,209.7256009
2.48150,235.3619312
2.48200,227.1216822
2.48250,208.8100177
2.48300,183.1736875
2.48350,134.6477766
2.48400,72.99850627
2.48450,36.68037176
2.48500,40.34270465
2.48550,54.3816474
2.48600,43.69984313
2.48650,7.992097433
2.48700,-27.71564827
2.48750,-47.85847918
2.48800,-50.91042325
2.48850,-38.39745254
2.48900,-10.01437262
2.48950,27.21934512
2.49000,54.3816474
2.49050,54.076453
2.49100,30.5764836
2.49150,5.245347764
2.49200,-9.098789398
2.49250,-24.9688986
2.49300,-53.96236733
2.49350,-76.24155909
2.49400,-55.18314496
2.49450,15.01156881
2.49500,95.27769804
2.49550,139.5308872
2.49600,138.9204983
2.49650,117.8620842
2.49700,104.1283359
2.49750,102.2971694
2.49800,91.00497633
2.49850,50.71931451
2.49900,-8.183206175
2.49950,-44.8065351
2.50000,-32.9039532
2.50050,4.940153356
2.50100,28.74531716
2.50150,27.82973393
2.50200,20.81026256
2.50250,14.09598559
2.50300,-6.962428544
2.50350,-42.97536865
2.50400,-69.83247653
2.50450,-74.10519824
2.50500,-67.39092127
2.50550,-61.59222752
2.50600,-47.85847918
2.50650,-18.86501044
2.50700,9.212875064
2.50750,15.92715203
2.50800,0.6674316482
2.50850,-20.39098248
2.50900,-37.48186931
2.50950,-50.30003444
2.51000,-60.37144989
2.51050,-66.78053245
2.51100,-68.6116989
2.51150,-67.69611568
2.51200,-65.55975482
2.51250,-59.15067226
2.51300,-43.58575747
2.51350,-17.64423281
2.51400,8.602486248
2.51450,23.86220663
2.51500,29.66090038
2.51550,41.56348228
2.51600,65.06345167
2.51650,90.39458751
2.51700,109.9270296
2.51750,127.3231108
2.51800,137.0893319
2.51850,115.4205289
2.51900,49.19334247
2.51950,-36.56628609
2.52000,-106.7609999
2.52050,-150.4038002
2.52100,-171.4622143
2.52150,-162.9167709
2.52200,-115.6116377
2.52250,-50.91042325
2.52300,-9.709178214
2.52350,-2.689706836
2.52400,-2.079318021
2.52450,11.95962473
2.52500,26.3037619
2.52550,19.89467933
2.52600,-2.384512429
2.52650,-19.17020485
2.52700,-15.81306637
2.52750,6.466125395
2.52800,39.12192702
2.52850,68.11539575
2.52900,78.79720002
2.52950,66.89461812
2.53000,44.31023195
2.53050,25.99856749
2.53100,18.36870729
2.53150,19.58948493
2.53200,24.16740104
2.53250,23.86220663
2.53300,16.23234644
2.53350,13.79079118
2.53400,33.01803886
2.53450,65.06345167
2.53500,75.13486713
2.53550,43.39464873
2.53600,-5.131262098
2.53650,-29.24162031
2.53700,-21.30656571
2.53750,-8.793594991
2.53800,-5.436456506
2.53850,3.414181318
2.53900,29.35570597
2.53950,52.85567537
2.54000,51.02450892
2.54050,31.18687242
2.54100,15.92715203
2.54150,9.823263879
2.54200,4.329764541
2.54250,3.414181318
2.54300,22.3362346
2.54350,57.12839707
2.54400,82.45953291
2.54450,78.79720002
2.54500,49.19334247
2.54550,8.297291841
2.54600,-32.29356438
2.54650,-63.42339397
2.54700,-73.80000383
2.54750,-60.6766443
2.54800,-35.04031405
2.54850,-14.59228874
2.54900,-9.709178214
2.54950,-18.55981604
2.55000,-30.15720353
2.55050,-34.42992524
2.55100,-34.42992524
2.55150,-42.97536865
2.55200,-64.33897719
2.55250,-85.39739132
2.55300,-89.97530744
2.55350,-78.37791995
2.55400,-62.20261634
2.55450,-42.67017425
2.55500,-11.54034466
2.55550,29.35570597
2.55600,65.36864608
2.55650,84.90108817
2.55700,92.22575396
2.55750,93.751726
2.55800,84.90108817
2.55850,58.65436911
2.55900,13.48559677
2.55950,-54.57275615
2.56000,-152.8453554
2.56050,-267.9036471
2.56100,-346.0334155
2.56150,-328.6373343
2.56200,-207.16996
2.56250,-37.48186931
2.56300,107.7906688
2.56350,185.9204371
2.56400,190.4983532
2.56450,142.2776368
2.56500,79.40758884
2.56550,30.88167801
2.56600,-7.57281736
2.56650,-60.98183871
2.56700,-124.1570811
2.56750,-148.5726337
2.56800,-104.624639
2.56850,-27.41045386
2.56900,18.97909611
2.56950,19.58948493
2.57000,10.43365269
2.57050,15.31676322
2.57100,18.97909611
2.57150,4.634958948
2.57200,-10.31956703
2.57250,1.888209279
2.57300,42.4790655
2.57350,87.64783784
2.57400,119.6932507
2.57450,138.0049151
2.57500,141.0568592
2.57550,121.2192227
2.57600,82.45953291
2.57650,49.19334247
2.57700,42.78425991
2.57750,55.29723063
2.57800,52.55048096
2.57850,19.58948493
2.57900,-17.33903841
2.57950,-19.78059367
2.58000,16.23234644
2.58050,59.26475793
2.58100,81.8491441
2.58150,89.17380988
2.58200,96.80367007
2.58250,104.4335303
2.58300,101.0763918
2.58350,84.90108817
2.58400,63.23228523
2.58450,33.62842768
2.58500,-12.45592788
2.58550,-69.83247653
2.58600,-109.8129439
2.58650,-105.5402222
2.58700,-62.50781075
2.58750,-17.033844
2.58800,1.583014871
2.58850,-2.079318021
2.58900,-7.267622952
2.58950,-4.215678875
2.59000,-1.163734798
2.59050,-2.079318021
2.59100,2.498598094
2.59150,18.6739017
2.59200,37.90114939
2.59250,52.85567537
2.59300,65.06345167
2.59350,68.72578457
2.59400,41.25828787
2.59450,-23.44292656
2.59500,-86.31297455
2.59550,-89.05972422
2.59600,-21.61176011
2.59650,56.82320267
2.59700,80.93356087
2.59750,50.1089257
2.59800,15.92715203
2.59850,5.245347764
2.59900,-14.89748314
2.59950,-80.81947521
2.60000,-162.9167709
2.60050,-198.3193222
2.60100,-177.5661024
2.60150,-158.0336604
2.60200,-174.208964
2.60250,-182.449213
2.60300,-126.293442
2.60350,-26.18967623
2.60400,43.39464873
2.60450,45.22581517
2.60500,8.297291841
2.60550,-24.66370419
2.60600,-40.22861898
2.60650,-37.78706372
2.60700,-17.64423281
2.60750,11.34923592
2.60800,31.18687242
2.60850,36.06998294
2.60900,38.5115382
2.60950,50.1089257
2.61000,69.64136779
2.61050,87.95303225
2.61100,90.69978192
2.61150,67.50500693
2.61200,34.5440109
2.61250,29.35570597
2.61300,63.23228523
2.61350,96.80367007
2.61400,91.61536514
2.61450,65.36864608
2.61500,60.18034115
2.61550,69.9465622
2.61600,48.88814807
2.61650,-12.76112229
2.61700,-71.05325416
2.61750,-93.94283474
2.61800,-97.60516763
2.61850,-105.5402222
2.61900,-108.8973607
2.61950,-95.16361237
2.62000,-76.85194791
2.62050,-68.30650449
2.62100,-57.31950582
2.62150,-25.88448182
2.62200,15.31676322
2.62250,35.15439972
2.62300,21.72584578
2.62350,-2.079318021
2.62400,-2.994901244
2.62450,30.5764836
2.62500,78.79720002
2.62550,107.4854743
2.62600,104.1283359
2.62650,87.64783784
2.62700,81.8491441
2.62750,83.37511614
2.62800,73.30370068
2.62850,47.05698162
2.62900,18.6739017
2.62950,-4.215678875
2.63000,-28.9364259
2.63050,-57.01431141
2.63100,-77.46233672
2.63150,-86.00778014
2.63200,-94.85841796
2.63250,-111.6441104
2.63300,-126.5986364
2.63350,-126.293442
2.63400,-110.4233328
2.63450,-82.65064165
2.63500,-37.17667491
2.63550,26.6089563
2.63600,87.64783784
2.63650,113.5893625
2.63700,103.2127526
2.63750,91.00497633
2.63800,102.6023638
2.63850,118.7776674
2.63900,104.7387247
2.63950,61.09592437
2.64000,23.86220663
2.64050,15.01156881
2.64100,17.75831848
2.64150,8.297291841
2.64200,-13.37151111
2.64250,-36.56628609
2.64300,-60.06625548
2.64350,-85.09219692
2.64400,-100.3519173
2.64450,-96.38439
2.64500,-78.68311435
2.64550,-56.709117
2.64600,-29.54681471
2.64650,-0.5533459826
2.64700,15.92715203
2.64750,13.79079118
2.64800,9.212875064
2.64850,18.36870729
2.64900,33.32323327
2.64950,44.00503754
2.65000,61.70631319
2.65050,101.0763918
2.65100,147.7711362
2.65150,171.2711056
2.65200,161.8100789
2.65250,133.7321934
2.65300,100.1608086
2.65350,62.62189641
2.65400,21.72584578
2.65450,-17.033844
2.65500,-45.11172951
2.65550,-46.33250714
2.65600,-9.098789398
2.65650,52.24528655
2.65700,100.7711974
2.65750,115.4205289
2.65800,112.6737793
2.65850,113.5893625
2.65900,109.3166408
2.65950,73.30370068
2.66000,2.803792502
2.66050,-75.32597587
2.66100,-127.819414
2.66150,-136.059663
2.66200,-107.9817775
2.66250,-78.37791995
2.66300,-83.26103047
2.66350,-119.2739706
2.66400,-149.7934113
2.66450,-156.8128827
2.66500,-165.6635205
2.66550,-194.0466005
2.66600,-210.5270985
2.66650,-176.3453248
2.66700,-109.5077495
2.66750,-63.72858838
2.66800,-57.31950582
2.66850,-53.04678411
2.66900,-19.78059367
2.66950,29.05051156
2.67000,63.23228523
2.67050,70.55695101
2.67100,54.68684181
2.67150,22.03104019
2.67200,-15.81306637
2.67250,-41.44939661
2.67300,-48.7740624
2.67350,-50.91042325
2.67400,-61.59222752
2.67450,-82.34544725
2.67500,-111.6441104
2.67550,-149.4882169
2.67600,-183.975185
2.67650,-190.3842676
2.67700,-152.2349666
2.67750,-79.90389198
2.67800,-2.689706836
2.67850,48.27775925
2.67900,57.43359148
2.67950,37.90114939
2.68000,26.6089563
2.68050,41.86867669
2.68100,59.87514674
2.68150,50.4141201
2.68200,33.01803886
2.68250,53.77125859
2.68300,112.9789737
2.68350,155.0958019
2.68400,141.3620536
2.68450,88.56342107
2.68500,33.01803886
2.68550,-7.267622952
2.68600,-13.67670551
2.68650,40.34270465
2.68700,141.9724424
2.68750,226.8164878
2.68800,246.6541243
2.68850,227.1216822
2.68900,217.6606555
2.68950,221.3229884
2.69000,210.6411841
2.69050,184.6996595
2.69100,167.3035783
2.69150,156.621774
2.69200,126.1023332
2.69250,73.30370068
2.69300,29.66090038
2.69350,19.28429052
2.69400,28.74531716
2.69450,27.82973393
2.69500,-0.2481515749
2.69550,-49.68964562
2.69600,-97.60516763
2.69650,-119.2739706
2.69700,-114.0856656
2.69750,-109.8129439
2.69800,-125.9882475
2.69850,-145.5206896
2.69900,-135.4492742
2.69950,-91.50127948
2.70000,-36.8714805
2.70050,13.18040236
2.70100,54.68684181
2.70150,72.38811746
2.70200,46.4465928
2.70250,-12.15073348
2.70300,-63.11819956
2.70350,-74.41039265
2.70400,-52.43639529
2.70450,-20.69617689
2.70500,3.719375725
2.70550,12.57001355
2.70600,3.414181318
2.70650,-13.67670551
2.70700,-30.15720353
2.70750,-53.96236733
2.70800,-96.68958441
2.70850,-138.5012183
2.70900,-140.3323847
2.70950,-92.72205711
2.71000,-29.85200912
2.71050,15.92715203
2.71100,44.00503754
2.71150,58.0439803
2.71200,49.49853688
2.71250,18.36870729
2.71300,-11.84553907
2.71350,-24.35850978
2.71400,-25.88448182
2.71450,-26.49487064
2.71500,-21.30656571
2.71550,-11.54034466
2.71600,-13.0663167
2.71650,-25.57928741
2.71700,-27.71564827
2.71750,-13.37151111
2.71800,-4.82606769
2.71850,-4.82606769
2.71900,18.97909611
2.71950,72.69331187
2.72000,102.9075582
2.72050,69.03097897
2.72100,5.855736579
2.72150,-22.22214893
2.72200,-8.488400583
2.72250,9.212875064
2.72300,14.7063744
2.72350,20.81026256
2.72400,29.05051156
2.72450,27.21934512
2.72500,16.53754085
2.72550,3.719375725
2.72600,-19.47539926
2.72650,-59.76106108
2.72700,-90.28050185
2.72750,-86.92336336
2.72800,-73.49480942
2.72850,-92.11166829
2.72900,-136.6700518
2.72950,-157.1180771
2.73000,-131.1765525
2.73050,-89.36491862
2.73100,-68.91689331
2.73150,-71.35844857
2.73200,-75.32597587
2.73250,-61.59222752
2.73300,-29.85200912
2.73350,-1.163734798
2.73400,-5.436456506
2.73450,-38.70264695
2.73500,-54.87795055
2.73550,-20.39098248
2.73600,36.68037176
2.73650,67.81020134
2.73700,70.2517566
2.73750,79.10239443
2.73800,96.80367007
2.73850,93.14133718
2.73900,67.81020134
2.73950,63.84267404
2.74000,103.2127526
2.74050,152.6542467
2.74100,178.5957713
2.74150,185.9204371
2.74200,184.3944651
2.74250,150.8230802
2.74300,69.33617338
2.74350,-24.66370419
2.74400,-78.37791995
2.74450,-89.97530744
2.74500,-103.7090558
2.74550,-149.7934113
2.74600,-213.2738482
2.74650,-264.8517031
2.74700,-287.1308948
2.74750,-276.754285
2.74800,-240.7413448
2.74850,-193.4362116
2.74900,-139.4168015
2.74950,-67.08572686
2.75000,23.55701223
2.75050,95.58289244
2.75100,105.3491135
2.75150,58.95956352
2.75200,10.7388471
2.75250,5.550542171
2.75300,39.73231583
2.75350,83.06992173
2.75400,113.5893625
2.75450,129.7646661
2.75500,138.3101095
2.75550,139.8360816
2.75600,124.5763612
2.75650,85.20628258
2.75700,41.25828787
2.75750,25.99856749
2.75800,43.69984313
2.75850,56.51800826
2.75900,37.59595498
2.75950,11.95962473
2.76000,20.19987374
2.76050,58.0439803
2.76100,87.03744903
2.76150,96.80367007
2.76200,112.9789737
2.76250,144.4139977
2.76300,161.8100789
2.76350,140.7516648
2.76400,98.63483652
2.76450,66.89461812
2.76500,51.32970333
2.76550,33.62842768
2.76600,4.634958948
2.76650,-19.17020485
2.76700,-19.47539926
2.76750,1.888209279
2.76800,23.25181782
2.76850,27.52453953
2.76900,19.89467933
2.76950,18.6739017
2.77000,27.82973393
2.77050,37.29076057
2.77100,38.81673261
2.77150,37.90114939
2.77200,40.95309346
2.77250,46.1413984
2.77300,46.1413984
2.77350,30.5764836
2.77400,-12.76112229
2.77450,-83.26103047
2.77500,-152.540161
2.77550,-183.6699906
2.77600,-165.3583261
2.77650,-121.4103314
2.77700,-78.37791995
2.77750,-46.02731273
2.77800,-25.27409301
2.77850,-20.69617689
2.77900,-33.20914761
2.77950,-51.52081207
2.78000,-63.42339397
2.78050,-68.00131008
2.78100,-66.78053245
2.78150,-55.18314496
2.78200,-28.32603708
2.78250,4.634958948
2.78300,20.50506815
2.78350,4.329764541
2.78400,-25.57928741
2.78450,-30.76759235
2.78500,8.602486248
2.78550,72.38811746
2.78600,124.8815556
2.78650,151.1282746
2.78700,154.1802187
2.78750,134.952971
2.78800,103.2127526
2.78850,87.03744903
2.78900,101.6867806
2.78950,115.4205289
2.79000,87.64783784
2.79050,31.49206683
2.79100,0.9726260559
2.79150,8.602486248
2.79200,10.12845829
2.79250,-25.88448182
2.79300,-74.10519824
2.79350,-104.3194446
2.79400,-126.9038308
2.79450,-161.3907988
2.79500,-188.8582955
2.79550,-180.9232409
2.79600,-146.4362729
2.79650,-118.6635818
2.79700,-108.2869719
2.79750,-100.0467229
2.79800,-83.56622488
2.79850,-61.89742193
2.79900,-39.61823017
2.79950,-17.33903841
2.80000,0.6674316482
2.80050,15.62195763
2.80100,39.12192702
2.80150,79.10239443
2.80200,122.1348059
2.80250,138.9204983
2.80300,112.0633905
2.80350,48.58295366
2.80400,-26.18967623
2.80450,-87.83894659
2.80500,-125.9882475
2.80550,-149.7934113
2.80600,-174.5141584
2.80650,-201.0660718
2.80700,-216.6309866
2.80750,-209.9167097
2.80800,-183.975185
2.80850,-149.7934113
2.80900,-112.864888
2.80950,-73.80000383
2.81000,-32.59875879
2.81050,9.518069472
2.81100,56.21281385
2.81150,111.7581961
2.81200,168.5243559
2.81250,199.6541855
2.81300,186.2256315
2.81350,143.19322
2.81400,107.4854743
2.81450,92.22575396
2.81500,73.30370068
2.81550,32.10245564
2.81600,-9.709178214
2.81650,-23.13773215
2.81700,-16.11826078
2.81750,-19.78059367
2.81800,-39.92342458
2.81850,-50.30003444
2.81900,-38.09225813
2.81950,-16.72864959
2.82000,4.024570133
2.82050,36.37517735
2.82100,85.51147699
2.82150,129.1542773
2.82200,134.952971
2.82250,95.27769804
2.82300,33.62842768
2.82350,-17.33903841
2.82400,-39.92342458
2.82450,-38.70264695
2.82500,-28.02084268
2.82550,-15.20267755
2.82600,-0.5533459826
2.82650,7.992097433
2.82700,0.05704283282
2.82750,-15.50787196
2.82800,-7.57281736
2.82850,34.5440109
2.82900,77.8816168
2.82950,77.8816168
2.83000,33.32323327
2.83050,-21.30656571
2.83100,-64.94936601
2.83150,-101.5726949
2.83200,-128.4298028
2.83250,-127.819414
2.83300,-102.1830837
2.83350,-84.17661369
2.83400,-92.72205711
2.83450,-98.52075085
2.83500,-60.37144989
2.83550,17.14792966
2.83600,87.64783784
2.83650,115.7257234
2.83700,108.0958632
2.83750,85.20628258
2.83800,48.27775925
2.83850,-12.76112229
2.83900,-90.89089066
2.83950,-155.2869107
2.84000,-176.9557136
2.84050,-153.7609386
2.84100,-109.5077495
2.84150,-76.85194791
2.84200,-71.05325416
2.84250,-80.20908639
2.84300,-76.24155909
2.84350,-43.28056306
2.84400,7.07651421
2.84450,51.94009214
2.84500,82.1543385
2.84550,109.6218352
2.84600,145.0243865
2.84650,177.0697993
2.84700,179.816549
2.84750,146.8555529
2.84800,104.7387247
2.84850,86.1218658
2.84900,91.92055955
2.84950,96.49847567
2.85000,87.95303225
2.85050,83.06992173
2.85100,96.19328126
2.85150,109.6218352
2.85200,96.49847567
2.85250,60.48553556
2.85300,33.01803886
2.85350,31.79726123
2.85400,40.95309346
2.85450,39.73231583
2.85500,28.74531716
2.85550,20.50506815
2.85600,13.79079118
2.85650,0.3622372405
2.85700,-16.42345518
2.85750,-22.22214893
2.85800,-9.098789398
2.85850,12.57001355
2.85900,28.13492834
2.85950,31.49206683
2.86000,25.08298426
2.86050,10.43365269
2.86100,-10.31956703
2.86150,-31.98836998
2.86200,-42.97536865
2.86250,-36.26109168
2.86300,-15.50787196
2.86350,6.160930987
2.86400,16.84273526
2.86450,14.7063744
2.86500,8.907680656
2.86550,7.381708618
2.86600,8.602486248
2.86650,4.329764541
2.86700,-7.57281736
2.86750,-22.83253774
2.86800,-37.78706372
2.86850,-53.96236733
2.86900,-65.25456042
2.86950,-58.84547785
2.87000,-32.59875879
2.87050,-4.82606769
2.87100,4.634958948
2.87150,-3.60529006
2.87200,-15.50787196
2.87250,-21.91695452
2.87300,-23.74812097
2.87350,-21.0013713
2.87400,-10.01437262
2.87450,8.602486248
2.87500,30.2712892
2.87550,47.05698162
2.87600,48.88814807
2.87650,29.35570597
2.87700,-1.163734798
2.87750,-18.86501044
2.87800,-20.39098248
2.87850,-32.9039532
2.87900,-75.02078146
2.87950,-120.7999426
2.88000,-133.6181077
2.88050,-119.8843594
2.88100,-117.7479985
2.88150,-140.0271903
2.88200,-164.4427429
2.88250,-178.1764913
2.88300,-192.215434
2.88350,-205.643988
2.88400,-193.7414061
2.88450,-151.014189
2.88500,-111.9493048
2.88550,-102.4882782
2.88600,-103.098667
2.88650,-81.12466962
2.88700,-36.56628609
2.88750,7.381708618
2.88800,48.58295366
2.88850,97.7192533
2.88900,145.9399697
2.88950,162.4204677
2.89000,130.0698605
2.89050,67.81020134
2.89100,8.907680656
2.89150,-28.32603708
2.89200,-45.11172951
2.89250,-47.24809036
2.89300,-31.98836998
2.89350,6.160930987
2.89400,61.09592437
2.89450,108.4010576
2.89500,124.5763612
2.89550,107.4854743
2.89600,72.99850627
2.89650,40.64789906
2.89700,27.82973393
2.89750,47.05698162
2.89800,92.22575396
2.89850,133.426999
2.89900,142.8880256
2.89950,122.4400003
2.90000,96.49847567
2.90050,84.29069936
2.90100,84.90108817
2.90150,78.49200561
2.90200,41.86867669
2.90250,-27.71564827
2.90300,-95.46880678
2.90350,-116.2220265
2.90400,-85.09219692
2.90450,-40.8390078
2.90500,-7.878011767
2.90550,24.47259545
2.90600,55.60242503
2.90650,53.77125859
2.90700,13.79079118
2.90750,-13.98189992
2.90800,5.855736579
2.90850,41.56348228
2.90900,52.55048096
2.90950,62.316702
2.91000,105.3491135
2.91050,142.8880256
2.91100,107.4854743
2.91150,15.92715203
2.91200,-44.50134069
2.91250,-35.95589728
2.91300,-1.774123613
2.91350,23.25181782
2.91400,54.68684181
2.91450,99.55041974
2.91500,128.5438885
2.91550,132.5114158
2.91600,141.3620536
2.91650,166.0828006
2.91700,171.5763
2.91750,135.8685543
2.91800,80.93356087
2.91850,23.25181782
