type,name,time_units,begin_time,frequency,count,units
signal_4d,"Noraxon MyoMotion-Segments-Upper arm RT-Orientation","s",0.0000,200,5108,""

time,x,y,z,w
0.0000,-0.02046680541,-0.6459685287,-0.7566175244,0.09917505501
0.0050,-0.02052753042,-0.6459338258,-0.7566433725,0.09919133053
0.0100,-0.02058825527,-0.645899119,-0.7566692163,0.09920760548
0.0150,-0.02064897997,-0.6458644085,-0.7566950556,0.09922387985
0.0200,-0.02072139121,-0.6458295159,-0.7567206881,0.0992404174
0.0250,-0.02080636811,-0.645795116,-0.7567455282,0.09925708396
0.0300,-0.02090469589,-0.6457618973,-0.7567689726,0.09927380223
0.0350,-0.02101706652,-0.645730528,-0.7567904313,0.09929053914
0.0400,-0.02114408442,-0.6457016261,-0.756809355,0.09930729057
0.0450,-0.02128626852,-0.6456757398,-0.7568252526,0.09932406966
0.0500,-0.02144405478,-0.6456533337,-0.756837705,0.0993408954
0.0550,-0.0216177981,-0.6456347799,-0.7568463745,0.09935777357
0.0600,-0.02180776434,-0.645620356,-0.7568510103,0.09937467265
0.0650,-0.02201411016,-0.6456102457,-0.756851451,0.09939150242
0.0700,-0.02223685777,-0.6456045378,-0.7568476287,0.09940809755
0.0750,-0.02247587019,-0.6456032288,-0.7568395696,0.09942420232
0.0800,-0.02273082656,-0.64560623,-0.7568273916,0.09943945176
0.0850,-0.02300120055,-0.6456133783,-0.756811298,0.0994533548
0.0900,-0.02328624591,-0.6456244488,-0.7567915686,0.09946528805
0.0950,-0.02358498455,-0.6456391721,-0.7567685454,0.09947450271
0.1000,-0.02389619278,-0.6456572514,-0.7567426158,0.09948014435
0.1050,-0.02421838622,-0.6456783787,-0.7567141968,0.09948128125
0.1100,-0.02454980652,-0.6457022438,-0.7566837248,0.09947693213
0.1150,-0.02488841627,-0.6457285389,-0.7566516489,0.09946609006
0.1200,-0.02523190365,-0.6457569605,-0.7566184272,0.09944774825
0.1250,-0.02557769334,-0.6457872098,-0.7565845222,0.09942093354
0.1300,-0.02592296993,-0.6458189939,-0.7565503937,0.09938475027
0.1350,-0.02626472221,-0.6458520259,-0.7565164905,0.09933843487
0.1400,-0.02659980534,-0.6458860265,-0.7564832396,0.09928141486
0.1450,-0.02692501125,-0.6459207295,-0.7564510317,0.09921336415
0.1500,-0.027237143,-0.6459558842,-0.7564202099,0.09913425066
0.1550,-0.02769143078,-0.6460030803,-0.7563742034,0.09905185168
0.1600,-0.02812804463,-0.6460513724,-0.7563290273,0.09895877793
0.1650,-0.02854323362,-0.646102132,-0.7562835233,0.09885621527
0.1700,-0.02893294905,-0.6461533592,-0.7562392152,0.09874700082
0.1750,-0.0292958986,-0.6462057489,-0.7561952308,0.09863393619
0.1800,-0.02962856645,-0.6462590562,-0.7561518619,0.0985177249
0.1850,-0.02992977907,-0.6463132704,-0.7561086896,0.09840230899
0.1900,-0.03019962397,-0.6463669868,-0.7560667094,0.09828953172
0.1950,-0.03043525057,-0.6464209052,-0.7560253383,0.09818042946
0.2000,-0.03063773849,-0.6464733204,-0.7559854775,0.0980792167
0.2050,-0.0308062232,-0.6465242552,-0.7559467923,0.09798883194
0.2100,-0.03094286758,-0.6465728248,-0.7559098346,0.09791038291
0.2150,-0.03104890219,-0.6466190395,-0.7558741105,0.0978473938
0.2200,-0.03112591941,-0.6466628273,-0.7558396452,0.09779977392
0.2250,-0.0311751692,-0.6467037902,-0.7558063724,0.0977703639
0.2300,-0.03120071252,-0.6467412835,-0.7557744894,0.0977606717
0.2350,-0.03120349249,-0.6467755079,-0.7557439521,0.09776943943
0.2400,-0.03118581204,-0.6468049322,-0.7557159479,0.09779688577
0.2450,-0.03115258268,-0.6468309685,-0.7556891742,0.0978421523
0.2500,-0.0311058592,-0.6468539171,-0.7556633098,0.09790504397
0.2550,-0.03105064892,-0.6468744951,-0.7556380307,0.09798168944
0.2600,-0.03098791993,-0.6468925225,-0.7556133319,0.09807296142
0.2650,-0.030922094,-0.6469091271,-0.75558831,0.09817693825
0.2700,-0.03085427837,-0.6469246242,-0.7555630823,0.09829024765
0.2750,-0.03078950192,-0.646940157,-0.7555366492,0.09841144009
0.2800,-0.03072738113,-0.6469549579,-0.7555100426,0.09853773915
0.2850,-0.03067030158,-0.6469719908,-0.7554809676,0.09866652538
0.2900,-0.03061992749,-0.646989879,-0.7554509598,0.09879455387
0.2950,-0.03057853965,-0.6470102731,-0.7554185318,0.09892169274
0.3000,-0.03054768407,-0.6470344794,-0.7553829438,0.09904458419
0.3050,-0.03052754741,-0.6470624918,-0.755344238,0.09916290996
0.3100,-0.0305191214,-0.6470942343,-0.7553025661,0.09927572141
0.3150,-0.03052299291,-0.6471310919,-0.7552573531,0.0993782035
0.3200,-0.03053961654,-0.6471737311,-0.7552077982,0.09947198161
0.3250,-0.030568556,-0.6472225883,-0.7551537833,0.0995552523
0.3300,-0.03060926379,-0.6472770459,-0.7550956382,0.0996296938
0.3350,-0.03066218329,-0.6473369731,-0.7550338498,0.09969232384
0.3400,-0.03072735072,-0.6474015118,-0.7549689724,0.09974448981
0.3450,-0.03080322029,-0.6474705275,-0.7549010302,0.09978733519
0.3500,-0.03088876176,-0.6475437006,-0.7548303004,0.09982112883
0.3550,-0.03098513403,-0.6476208361,-0.7547570645,0.09984461792
0.3600,-0.03109192067,-0.647701799,-0.7546810908,0.09986051835
0.3650,-0.03120794486,-0.6477851537,-0.7546037608,0.09986802759
0.3700,-0.03133099389,-0.6478705027,-0.7545256849,0.09986576708
0.3750,-0.03146126324,-0.6479576759,-0.7544467111,0.09985589219
0.3800,-0.03159951886,-0.6480449969,-0.7543682633,0.09983824742
0.3850,-0.03174284907,-0.648133087,-0.7542898698,0.0998132524
0.3900,-0.03189314954,-0.648221864,-0.7542114923,0.09978109535
0.3950,-0.03204716966,-0.6483109065,-0.7541336181,0.09974183483
0.4000,-0.0322043015,-0.6484002009,-0.7540560761,0.09969702379
0.4050,-0.03236363074,-0.6484882094,-0.7539802162,0.09964673219
0.4100,-0.03252382166,-0.648575531,-0.7539053771,0.09959248959
0.4150,-0.03268263062,-0.6486612525,-0.7538322762,0.09953554371
0.4200,-0.03283956857,-0.6487461868,-0.7537602664,0.09947566821
0.4250,-0.03299423147,-0.6488289327,-0.7536903977,0.09941419
0.4300,-0.03314388558,-0.648910361,-0.7536219316,0.09935195252
0.4350,-0.03328855533,-0.6489901864,-0.7535549699,0.09929006663
0.4400,-0.03342534346,-0.6490677131,-0.7534901323,0.09922938461
0.4450,-0.03355502939,-0.6491421484,-0.7534278066,0.09917192891
0.4500,-0.03367552289,-0.6492136485,-0.7533682247,0.09911566853
0.4550,-0.03378750941,-0.6492819305,-0.7533112943,0.09906297353
0.4600,-0.03389075793,-0.649347528,-0.7532565454,0.09901404547
0.4650,-0.03398570713,-0.6494094135,-0.7532049143,0.09896839105
0.4700,-0.03407237683,-0.6494677529,-0.7531564057,0.09892491969
0.4750,-0.03415208334,-0.6495231439,-0.7531105701,0.09888270741
0.4800,-0.03422503387,-0.6495757061,-0.7530672126,0.09884241191
0.4850,-0.0342917275,-0.6496245321,-0.7530272456,0.09880289507
0.4900,-0.03435226475,-0.6496709315,-0.7529897306,0.09876268682
0.4950,-0.03440812981,-0.6497139607,-0.7529552174,0.09872330261
0.5000,-0.03445853132,-0.6497544518,-0.7529232125,0.09868332207
0.5050,-0.03450604388,-0.6497917234,-0.752894362,0.09864141494
0.5100,-0.0345496939,-0.6498270834,-0.7528673869,0.09859907743
0.5150,-0.0345893363,-0.6498600381,-0.7528429444,0.09855460309
0.5200,-0.03462641633,-0.6498913308,-0.7528201591,0.09850927612
0.5250,-0.03466103778,-0.6499214848,-0.7527986827,0.098462274
0.5300,-0.03469324336,-0.6499513448,-0.7527777065,0.09841419026
0.5350,-0.03472220436,-0.6499808145,-0.7527573541,0.09836501023
0.5400,-0.03475039466,-0.6500112747,-0.7527362309,0.09831540772
0.5450,-0.03477609983,-0.6500418684,-0.7527150356,0.09826630863
0.5500,-0.03479935207,-0.6500723214,-0.75269401,0.09821766299
0.5550,-0.03482000172,-0.6501032028,-0.7526723965,0.09817156789
0.5600,-0.03483824475,-0.6501346907,-0.7526500858,0.09812761637
0.5650,-0.03485271132,-0.6501657624,-0.7526280061,0.09808595357
0.5700,-0.03486435244,-0.6501975419,-0.7526050846,0.09804703033
0.5750,-0.03487075139,-0.6502294292,-0.7525819337,0.09801098447
0.5800,-0.03487237351,-0.6502620746,-0.7525581387,0.09797652666
0.5850,-0.03486998365,-0.6502946914,-0.752534237,0.09794447769
0.5900,-0.03486173859,-0.6503271846,-0.7525102731,0.09791578565
0.5950,-0.03484711336,-0.6503595593,-0.7524865165,0.09788853301
0.6000,-0.03482611043,-0.6503917123,-0.752463022,0.09786298085
0.6050,-0.03479937379,-0.650423037,-0.7524403304,0.09783877392
0.6100,-0.03476672951,-0.650455116,-0.7524172288,0.0978147758
0.6150,-0.03472761183,-0.6504870922,-0.7523941994,0.09779317252
0.6200,-0.03468204591,-0.6505190232,-0.7523714923,0.097771641
0.6250,-0.03463127354,-0.650549982,-0.7523496244,0.09775192284
0.6300,-0.03457445642,-0.6505810415,-0.7523278831,0.09773265411
0.6350,-0.0345126265,-0.6506122909,-0.752305959,0.09771524768
0.6400,-0.0344467642,-0.6506430333,-0.75228453,0.09769876953
0.6450,-0.03437667041,-0.6506729862,-0.7522639872,0.09768215387
0.6500,-0.03430368303,-0.650702883,-0.7522436006,0.09766565789
0.6550,-0.03422782882,-0.6507322858,-0.7522236419,0.09765009234
0.6600,-0.03415032547,-0.6507603148,-0.7522049689,0.09763428038
0.6650,-0.03407185607,-0.6507882205,-0.7521864399,0.09761844284
0.6700,-0.03399486063,-0.6508149816,-0.7521688544,0.09760237532
0.6750,-0.03391868687,-0.6508406908,-0.752152064,0.09758683557
0.6800,-0.03384327575,-0.6508659714,-0.7521354772,0.09757224936
0.6850,-0.03377256983,-0.6508894613,-0.7521203238,0.09755686148
0.6900,-0.03370463784,-0.650911424,-0.7521062479,0.09754233614
0.6950,-0.03364068361,-0.6509311313,-0.7520939552,0.09752768503
0.7000,-0.03358144602,-0.6509486125,-0.7520834258,0.09751261958
0.7050,-0.0335260124,-0.6509638781,-0.7520746249,0.0974976639
0.7100,-0.03347559322,-0.6509767853,-0.7520679006,0.09748067805
0.7150,-0.03343072953,-0.6509879657,-0.7520624556,0.09746341678
0.7200,-0.03339189874,-0.650997393,-0.7520583057,0.09744578047
0.7250,-0.0333564293,-0.6510056976,-0.7520552275,0.09742620329
0.7300,-0.03332633102,-0.6510133316,-0.7520525735,0.09740597721
0.7350,-0.03329875462,-0.6510204715,-0.7520503314,0.09738499726
0.7400,-0.03327414307,-0.6510288786,-0.7520468978,0.09736372101
0.7450,-0.03324862341,-0.651038913,-0.7520422118,0.09734153541
0.7500,-0.0332233378,-0.6510514473,-0.7520348804,0.09732297476
0.7550,-0.03319410071,-0.6510668647,-0.752024838,0.09730741164
0.7600,-0.03315984075,-0.6510857356,-0.7520114374,0.09729639141
0.7650,-0.03311835171,-0.6511087652,-0.7519941189,0.09729026544
0.7700,-0.03306948707,-0.6511365693,-0.7519723227,0.09728927478
0.7750,-0.03301004589,-0.6511686397,-0.7519464954,0.09729443728
0.7800,-0.03294118271,-0.6512054279,-0.7519162943,0.09730496184
0.7850,-0.03286006409,-0.651247424,-0.7518815351,0.09731991646
0.7900,-0.03276815204,-0.651294784,-0.7518418911,0.09734024474
0.7950,-0.03266411107,-0.6513467804,-0.7517983214,0.0973638099
0.8000,-0.0325493912,-0.651404518,-0.7517497577,0.09739092772
0.8050,-0.03242378506,-0.6514685196,-0.7516958316,0.09742095721
0.8100,-0.03228854019,-0.6515381069,-0.7516372736,0.09745231845
0.8150,-0.032144651,-0.6516133605,-0.751573732,0.09748679524
0.8200,-0.03199197315,-0.6516934593,-0.7515061316,0.09752273063
0.8250,-0.03183232352,-0.6517770987,-0.7514352642,0.09756208496
0.8300,-0.03166666192,-0.6518639049,-0.7513616867,0.09760270362
0.8350,-0.03149540788,-0.6519545864,-0.7512844588,0.09764690715
0.8400,-0.03131927528,-0.6520467253,-0.7512056058,0.09769497884
0.8450,-0.03113905875,-0.6521407714,-0.7511247846,0.09774625961
0.8500,-0.03095693712,-0.6522363094,-0.751042042,0.09780243278
0.8550,-0.03077464479,-0.6523325926,-0.7509579336,0.09786363898
0.8600,-0.0305946915,-0.6524287146,-0.7508730156,0.0979308511
0.8650,-0.03041745132,-0.6525239611,-0.7507877922,0.09800484662
0.8700,-0.0302470427,-0.6526175347,-0.750702732,0.09808607423
0.8750,-0.03008550419,-0.6527087904,-0.7506182793,0.09817482444
0.8800,-0.02993601073,-0.6527971378,-0.7505349183,0.09827038501
0.8850,-0.0298006648,-0.6528820573,-0.7504530271,0.09837272903
0.8900,-0.02968264511,-0.6529625285,-0.750373407,0.09848160736
0.8950,-0.02958504506,-0.6530393921,-0.7502954137,0.09859548529
0.9000,-0.0295089854,-0.6531112165,-0.750220226,0.09871459424
0.9050,-0.02945587827,-0.6531801128,-0.7501461517,0.0988374552
0.9100,-0.02942697051,-0.6532438424,-0.7500750878,0.09896412704
0.9150,-0.02942419088,-0.6533047067,-0.7500050777,0.09909369608
0.9200,-0.02944856546,-0.6533609204,-0.749937879,0.09922432809
0.9250,-0.02949969463,-0.6534145769,-0.7498718922,0.09935443598
0.9300,-0.02957776087,-0.6534651208,-0.7498078125,0.09948234128
0.9350,-0.02968391234,-0.6535119604,-0.7497461337,0.09960782124
0.9400,-0.02981615304,-0.6535578975,-0.7496845514,0.09973036153
0.9450,-0.02997355349,-0.6536025157,-0.749623596,0.09984889571
0.9500,-0.03015574447,-0.6536460726,-0.7495634337,0.09996050023
0.9550,-0.03036139967,-0.6536885167,-0.7495040731,0.1000657433
0.9600,-0.03058767007,-0.6537316888,-0.7494442174,0.1001630598
0.9650,-0.0308323294,-0.6537749258,-0.7493846157,0.100251741
0.9700,-0.03109272838,-0.6538186387,-0.7493248918,0.1003326285
0.9750,-0.03136736781,-0.6538622333,-0.7492658861,0.100403685
0.9800,-0.03165359028,-0.653907293,-0.7492064883,0.1004636265
0.9850,-0.03194700851,-0.6539533807,-0.74914701,0.1005142867
0.9900,-0.03224691729,-0.6539997535,-0.7490883679,0.1005538459
0.9950,-0.03255217525,-0.6540481735,-0.7490289736,0.1005829971
1.0000,-0.03285875908,-0.6540991217,-0.7489690117,0.1005985111
1.0050,-0.03316588697,-0.6541520702,-0.7489088535,0.1006013026
1.0100,-0.03347223722,-0.6542072222,-0.748848448,0.1005908631
1.0150,-0.03377506598,-0.6542638143,-0.7487888131,0.1005654987
1.0200,-0.03407118335,-0.6543230394,-0.7487290067,0.1005255643
1.0250,-0.03435995528,-0.6543842636,-0.7486693296,0.1004732002
1.0300,-0.03463748411,-0.65444835,-0.748609299,0.1004077652
1.0350,-0.03490161497,-0.6545153601,-0.7485488987,0.100329791
1.0400,-0.03515017176,-0.6545842815,-0.7484890292,0.1002399969
1.0450,-0.03538174719,-0.65465602,-0.7484287234,0.1001402692
1.0500,-0.03559548982,-0.6547305527,-0.7483680039,0.1000309714
1.0550,-0.03578988349,-0.6548076211,-0.7483069483,0.09991383668
1.0600,-0.03596406688,-0.6548871202,-0.7482456851,0.09978897925
1.0650,-0.03611655143,-0.6549690254,-0.748183742,0.09966071785
1.0700,-0.03624678462,-0.6550534513,-0.7481209184,0.09953008616
1.0750,-0.03635546302,-0.6551393532,-0.748057867,0.09939887257
1.0800,-0.03644001436,-0.6552271913,-0.7479938718,0.0992704426
1.0850,-0.03650161802,-0.6553163534,-0.7479290808,0.09914735971
1.0900,-0.03653907315,-0.655405259,-0.7478647011,0.09903146702
1.0950,-0.03655462417,-0.6554952238,-0.7477990465,0.09892601882
1.1000,-0.03654732277,-0.655584704,-0.7477333218,0.09883252777
1.1050,-0.03651692814,-0.6556731161,-0.7476677798,0.09875307483
1.1100,-0.03646413177,-0.6557594738,-0.7476030474,0.09868922445
1.1150,-0.03638974676,-0.655844613,-0.7475385405,0.09863954762
1.1200,-0.03629406408,-0.655928099,-0.7474744038,0.09860570754
1.1250,-0.03617780285,-0.6560097218,-0.7474108159,0.09858744262
1.1300,-0.03604021442,-0.6560897023,-0.7473474628,0.09858587768
1.1350,-0.03588344271,-0.6561673752,-0.7472848753,0.09860055519
1.1400,-0.03570809916,-0.6562437619,-0.7472222456,0.09863048356
1.1450,-0.03551572109,-0.6563171048,-0.7471609581,0.0986762087
1.1500,-0.03530662572,-0.65638883,-0.7471002071,0.09873412029
1.1550,-0.03508173278,-0.65645779,-0.7470408272,0.09880508321
1.1600,-0.03484266981,-0.6565254736,-0.7469817498,0.0988865832
1.1650,-0.03459109273,-0.6565923137,-0.7469228358,0.09897609478
1.1700,-0.03432666558,-0.6566580044,-0.7468642907,0.09907409592
1.1750,-0.03404991722,-0.6567237072,-0.7468054168,0.09917784529
1.1800,-0.0337605414,-0.6567896459,-0.7467458216,0.09928879474
1.1850,-0.03345961597,-0.6568563902,-0.7466851166,0.09940560058
1.1900,-0.03314725292,-0.6569256632,-0.7466220454,0.09952614743
1.1950,-0.03282451232,-0.6569957717,-0.7465579539,0.09965103495
1.2000,-0.03249237081,-0.6570679667,-0.7464919691,0.09977811908
1.2050,-0.03214977886,-0.657142214,-0.7464241366,0.09990750984
1.2100,-0.03179839781,-0.6572208144,-0.7463524796,0.1000381889
1.2150,-0.03143836133,-0.6573016395,-0.7462788913,0.1001698588
1.2200,-0.03106959328,-0.6573868366,-0.7462014551,0.1003026214
1.2250,-0.0306912167,-0.6574760522,-0.7461207006,0.1004350051
1.2300,-0.03030429807,-0.657569682,-0.7460360946,0.1005679287
1.2350,-0.02990705229,-0.6576688382,-0.7459467732,0.1007009387
1.2400,-0.02949917562,-0.6577723327,-0.7458538621,0.1008333947
1.2450,-0.02907958771,-0.6578809956,-0.7457565209,0.1009662555
1.2500,-0.02864709288,-0.6579944784,-0.745654927,0.1011006443
1.2550,-0.02820051505,-0.6581134994,-0.7455485282,0.101236085
1.2600,-0.02774026385,-0.6582380374,-0.7454372772,0.1013727264
1.2650,-0.02726720068,-0.6583669154,-0.7453220798,0.1015110918
1.2700,-0.02678096147,-0.658500539,-0.7452027613,0.1016497164
1.2750,-0.0262827799,-0.6586396058,-0.7450785221,0.1017893953
1.2800,-0.02577275232,-0.6587821345,-0.7449512821,0.1019286603
1.2850,-0.02525310122,-0.6589281214,-0.7448208989,0.1020678221
1.2900,-0.0247232654,-0.6590775499,-0.7446874446,0.1022064248
1.2950,-0.02418288081,-0.6592296878,-0.7445514658,0.102345111
1.3000,-0.02363216887,-0.6593826662,-0.7444144393,0.1024849383
1.3050,-0.02307227428,-0.6595367002,-0.7442758274,0.1026279878
1.3100,-0.02250144429,-0.6596908971,-0.7441362471,0.1027757317
1.3150,-0.02191926965,-0.6598449086,-0.7439957248,0.1029300911
1.3200,-0.02132578784,-0.6599972949,-0.7438551821,0.1030934023
1.3250,-0.02072042115,-0.6601489801,-0.7437137737,0.1032657297
1.3300,-0.02010373951,-0.6602962732,-0.7435743125,0.1034500508
1.3350,-0.01947707095,-0.6604400311,-0.7434357187,0.1036481605
1.3400,-0.01883887219,-0.6605790078,-0.7432989744,0.1038609933
1.3450,-0.01819161729,-0.6607125541,-0.7431643507,0.1040900272
1.3500,-0.01753436767,-0.6608404119,-0.7430323674,0.1043331059
1.3550,-0.01686839672,-0.6609620817,-0.742903216,0.1045915643
1.3600,-0.01619329121,-0.6610763822,-0.7427775809,0.1048678194
1.3650,-0.01551179433,-0.6611838923,-0.742655322,0.105158535
1.3700,-0.01482484287,-0.6612838762,-0.7425370012,0.1054640272
1.3750,-0.0141326387,-0.6613772311,-0.7424217406,0.1057846201
1.3800,-0.01343749855,-0.6614631533,-0.7423105388,0.1061178328
1.3850,-0.01274087906,-0.6615433589,-0.7422018645,0.1064633579
1.3900,-0.01204384744,-0.6616175602,-0.742096087,0.106820164
1.3950,-0.01134714876,-0.6616859728,-0.7419935113,0.107184629
1.4000,-0.0106521738,-0.6617484351,-0.7418943389,0.1075561696
1.4050,-0.009960384683,-0.661805762,-0.7417983039,0.1079314617
1.4100,-0.009274001787,-0.6618585173,-0.74170491,0.1083103065
1.4150,-0.008592898754,-0.661906753,-0.74161423,0.1086919791
1.4200,-0.007917951449,-0.6619511308,-0.7415257195,0.1090761833
1.4250,-0.007248247754,-0.6619922747,-0.7414390022,0.109461852
1.4300,-0.006585503818,-0.662029737,-0.7413545087,0.1098487634
1.4350,-0.005929114864,-0.662064279,-0.7412718617,0.1102350358
1.4400,-0.005278860669,-0.6620967322,-0.7411900311,0.1106227314
1.4450,-0.004633452356,-0.66212775,-0.7411087445,0.1110099218
1.4500,-0.003993687103,-0.6621564797,-0.741028457,0.1113987108
1.4550,-0.003357338989,-0.6621840406,-0.7409484687,0.1117872592
1.4600,-0.002723514635,-0.6622100809,-0.7408689214,0.1121767911
1.4650,-0.002091514107,-0.6622352768,-0.7407890298,0.1125685439
1.4700,-0.001460862267,-0.6622594644,-0.7407091098,0.1129614197
1.4750,-0.0008323923762,-0.6622831662,-0.7406283802,0.1133574758
1.4800,-0.0002065525242,-0.6623074316,-0.7405463303,0.1137539273
1.4850,0.0004183961274,-0.6623306889,-0.7404642374,0.1141516387
1.4900,0.00104159389,-0.662353073,-0.7403819407,0.1145508778
1.4950,0.001663031074,-0.6623757846,-0.7402984381,0.1149511935
1.5000,0.002283657179,-0.6623988077,-0.7402136463,0.1153532065
1.5050,0.002901395456,-0.6624216698,-0.7401279353,0.1157573008
1.5100,0.003516110688,-0.6624432499,-0.7400423208,0.1161634243
1.5150,0.004126837136,-0.6624648004,-0.7399559081,0.1165702001
1.5200,0.004732052867,-0.6624856388,-0.7398692429,0.116978158
1.5250,0.005330827968,-0.6625061592,-0.7397819736,0.1173874044
1.5300,0.005922260286,-0.6625256243,-0.7396947604,0.1177980703
1.5350,0.00650601361,-0.6625437145,-0.7396077878,0.1182109061
1.5400,0.007081358583,-0.6625613318,-0.739520383,0.1186252043
1.5450,0.007644994573,-0.6625777867,-0.7394333928,0.1190398597
1.5500,0.008198287117,-0.6625937273,-0.7393460191,0.1194562877
1.5550,0.008739647976,-0.6626094907,-0.7392580835,0.1198739645
1.5600,0.009269478078,-0.662623449,-0.7391706645,0.1202953465
1.5650,0.009788804388,-0.6626357963,-0.7390834647,0.1207212199
1.5700,0.01029821514,-0.6626462715,-0.7389966967,0.1211517553
1.5750,0.01079980837,-0.6626546851,-0.7389107049,0.1215857835
1.5800,0.01129319033,-0.6626599204,-0.738825882,0.1220270866
1.5850,0.01178107736,-0.6626623223,-0.7387420235,0.1224747953
1.5900,0.01226473893,-0.6626609489,-0.7386595906,0.1229310873
1.5950,0.01274306268,-0.6626552833,-0.7385792767,0.123394659
1.6000,0.01321700223,-0.662644386,-0.7385014606,0.1238681607
1.6050,0.01368822959,-0.6626284696,-0.7384263859,0.1243487689
1.6100,0.01415697025,-0.6626073884,-0.7383540433,0.1248372372
1.6150,0.01462355763,-0.6625804738,-0.7382847777,0.1253349686
1.6200,0.01508788348,-0.6625469118,-0.7382197808,0.1258391859
1.6250,0.01555089403,-0.662506074,-0.7381594273,0.126350827
1.6300,0.01601354935,-0.6624599264,-0.7381024423,0.1268668467
1.6350,0.01647557463,-0.6624066859,-0.7380501041,0.1273890957
1.6400,0.01693615176,-0.6623471658,-0.7380019936,0.1279158168
1.6450,0.0173952463,-0.6622820992,-0.7379576135,0.1284460479
1.6500,0.01785409732,-0.6622109246,-0.7379172266,0.1289809646
1.6550,0.01831168377,-0.6621339303,-0.7378809005,0.1295187913
1.6600,0.01876743939,-0.6620522514,-0.737848292,0.1300557485
1.6650,0.01922199201,-0.6619642953,-0.7378206989,0.130592508
1.6700,0.01967544125,-0.6618708032,-0.7377976168,0.1311281573
1.6750,0.02012687377,-0.6617726954,-0.7377786345,0.1316605295
1.6800,0.02057628924,-0.6616695349,-0.7377643097,0.1321887519
1.6850,0.02102433489,-0.6615605076,-0.7377558124,0.1327103365
1.6900,0.02146971086,-0.6614466655,-0.7377523053,0.1332249837
1.6950,0.02191275244,-0.6613271656,-0.7377543167,0.133733988
1.7000,0.02235357437,-0.6612031721,-0.7377613356,0.1342344761
1.7050,0.02279338613,-0.6610741,-0.7377734515,0.1347287279
1.7100,0.02323253789,-0.66093966,-0.7377910179,0.1352162303
1.7150,0.02367051421,-0.6608000056,-0.7378139425,0.1356968886
1.7200,0.02410681403,-0.6606534387,-0.7378441825,0.1361684908
1.7250,0.02454100009,-0.6605003539,-0.7378817524,0.1366292106
1.7300,0.0249745176,-0.6603408237,-0.7379264619,0.1370795639
1.7350,0.02540663633,-0.6601743924,-0.737978484,0.1375210221
1.7400,0.02583807688,-0.6599999941,-0.7380391403,0.1379515458
1.7450,0.02626677185,-0.659818535,-0.7381075877,0.1383717691
1.7500,0.02669405715,-0.6596296364,-0.7381844836,0.1387798193
1.7550,0.02711848894,-0.6594332233,-0.7382696592,0.1391773035
1.7600,0.02754100037,-0.6592289281,-0.7383634052,0.1395643063
1.7650,0.02795984765,-0.659016911,-0.7384653538,0.1399424137
1.7700,0.02837471183,-0.658797636,-0.7385751203,0.1403115895
1.7750,0.02878676085,-0.6585697363,-0.7386935729,0.1406734878
1.7800,0.0291956381,-0.6583334892,-0.7388200591,0.1410303229
1.7850,0.02960059587,-0.6580901209,-0.7389536009,0.1413816582
1.7900,0.03000096368,-0.6578394741,-0.7390940327,0.1417292466
1.7950,0.03039724581,-0.6575821586,-0.7392408452,0.1420728155
1.8000,0.03078649654,-0.6573183346,-0.7393940245,0.142412342
1.8050,0.03116692077,-0.6570493833,-0.7395529101,0.1427453121
1.8100,0.03153678667,-0.6567770106,-0.7397160815,0.143071689
1.8150,0.03189533735,-0.6565008383,-0.73988348,0.1433937684
1.8200,0.03224193824,-0.6562220275,-0.7400544928,0.1437096231
1.8250,0.03257583118,-0.6559395186,-0.7402295952,0.1440219064
1.8300,0.03289780468,-0.6556539477,-0.74040815,0.144330893
1.8350,0.0332055759,-0.65536616,-0.7405897628,0.1446353666
1.8400,0.03349882654,-0.6550758179,-0.7407744072,0.1449371552
1.8450,0.0337797838,-0.6547833139,-0.7409617129,0.1452359395
1.8500,0.03404711256,-0.6544868447,-0.7411535181,0.1455308446
1.8550,0.03430056056,-0.654185398,-0.7413507331,0.1458219017
1.8600,0.03453997669,-0.6538797532,-0.7415529515,0.1461077631
1.8650,0.03476686209,-0.6535699134,-0.7417603963,0.1463869804
1.8700,0.03498177811,-0.6532548469,-0.7419734754,0.1466619991
1.8750,0.03518494091,-0.6529334189,-0.7421932583,0.1469324261
1.8800,0.03537771753,-0.6526053544,-0.7424200217,0.1471977578
1.8850,0.03556057063,-0.6522700516,-0.7426544462,0.1474571094
1.8900,0.03573201796,-0.6519268054,-0.7428972659,0.1477102419
1.8950,0.03589471134,-0.6515742639,-0.7431493934,0.1479578571
1.9000,0.03604680791,-0.6512132188,-0.743410514,0.1481984447
1.9050,0.03618951777,-0.6508437513,-0.743680679,0.1484310544
1.9100,0.03632138101,-0.6504642866,-0.7439609075,0.1486577857
1.9150,0.03644246018,-0.6500760475,-0.7442506771,0.1488758178
1.9200,0.03655307399,-0.6496780459,-0.7445501456,0.1490885312
1.9250,0.03665344053,-0.6492720069,-0.7448578281,0.1492956873
1.9300,0.03674247162,-0.6488567247,-0.745174122,0.1495007343
1.9350,0.03682103671,-0.6484332227,-0.7454983267,0.1497024112
1.9400,0.03688879997,-0.6480012948,-0.745830324,0.1499021885
1.9450,0.03694640748,-0.6475615195,-0.74616962,0.1500997657
1.9500,0.03699144661,-0.6471144927,-0.746515648,0.1502958864
1.9550,0.03702512559,-0.6466610219,-0.7468671481,0.1504929433
1.9600,0.03704623596,-0.6462014627,-0.7472234677,0.150692851
1.9650,0.03705524191,-0.6457367286,-0.7475834826,0.1508970608
1.9700,0.03705426115,-0.6452659513,-0.7479475964,0.1511066735
1.9750,0.03704349626,-0.6447888597,-0.7483156696,0.1513233773
1.9800,0.03702584121,-0.6443056548,-0.7486872809,0.1515475691
1.9850,0.03700121311,-0.643815924,-0.7490623848,0.1517811247
1.9900,0.03697119874,-0.6433209663,-0.7494398374,0.1520236656
1.9950,0.03693441889,-0.6428217831,-0.7498193176,0.1522727647
2.0000,0.03688946548,-0.6423184212,-0.7502007751,0.152528719
2.0050,0.03683392926,-0.6418122626,-0.7505833388,0.1527904863
2.0100,0.03676735664,-0.6413043566,-0.7509662647,0.1530573518
2.0150,0.03669014123,-0.6407931923,-0.7513511349,0.1533277218
2.0200,0.0366024669,-0.6402786208,-0.7517374385,0.1536045921
2.0250,0.03650738149,-0.6397595863,-0.7521256233,0.1538893418
2.0300,0.03640476209,-0.6392350425,-0.7525171036,0.1541793196
2.0350,0.03629583236,-0.6387046328,-0.7529121095,0.154474464
2.0400,0.03618120696,-0.6381687066,-0.7533104469,0.1547740057
2.0450,0.03606044007,-0.6376277054,-0.7537120525,0.1550764196
2.0500,0.03593350774,-0.6370805874,-0.754117406,0.1553835454
2.0550,0.03580089689,-0.6365260761,-0.7545268036,0.155698917
2.0600,0.03566274636,-0.6359652633,-0.7549394861,0.1560215521
2.0650,0.03551927348,-0.6353987763,-0.7553552539,0.1563496616
2.0700,0.03537125156,-0.6348268402,-0.7557734764,0.1566850659
2.0750,0.03521554056,-0.6342514922,-0.7561930338,0.1570254949
2.0800,0.03505107302,-0.633672371,-0.7566143388,0.1573705525
2.0850,0.03487634814,-0.6330900398,-0.7570368501,0.1577207957
2.0900,0.03468997201,-0.6325065459,-0.7574592166,0.158074699
2.0950,0.03449155517,-0.6319215441,-0.7578814977,0.1584333618
2.1000,0.0342802375,-0.6313353649,-0.7583036156,0.1587959346
2.1050,0.03405709014,-0.6307475458,-0.7587255234,0.1591641553
2.1100,0.03382314182,-0.6301575012,-0.7591478962,0.1595367997
2.1150,0.03357928806,-0.6295663931,-0.7595701405,0.1599118186
2.1200,0.03332563134,-0.6289723708,-0.7599935721,0.1602901413
2.1250,0.03306170029,-0.6283784419,-0.7604161761,0.160669527
2.1300,0.03278678935,-0.627784503,-0.7608379684,0.1610503962
2.1350,0.03250165398,-0.6271895844,-0.7612596167,0.1614331559
2.1400,0.03220716668,-0.6265929431,-0.7616817318,0.1618175561
2.1450,0.03190343418,-0.6259956725,-0.7621034547,0.1622033083
2.1500,0.03158987558,-0.6253999262,-0.762522941,0.1625908258
2.1550,0.03126671484,-0.6248044644,-0.7629412423,0.1629798595
2.1600,0.03093503288,-0.6242095511,-0.763358315,0.1633693452
2.1650,0.03059449198,-0.6236143902,-0.76377413,0.1637624732
2.1700,0.03024390117,-0.6230185142,-0.7641897145,0.1641563817
2.1750,0.02988449859,-0.622421314,-0.7646050932,0.1645529583
2.1800,0.02951685657,-0.6218220678,-0.7650209803,0.1649514196
2.1850,0.02914086304,-0.6212211448,-0.7654370858,0.1653516464
2.1900,0.02875666799,-0.6206193847,-0.7658526081,0.165754083
2.1950,0.02836267577,-0.6200160233,-0.7662680455,0.1661594774
2.2000,0.02795962555,-0.6194112366,-0.7666830706,0.1665684501
2.2050,0.02754654235,-0.6188044213,-0.7670979615,0.166982016
2.2100,0.02712281147,-0.6181959327,-0.7675125679,0.1673995222
2.2150,0.02668568155,-0.617585051,-0.7679274016,0.1678215871
2.2200,0.02623600342,-0.6169737553,-0.7683407507,0.1682484718
2.2250,0.02577053399,-0.6163605491,-0.7687538381,0.1686804362
2.2300,0.02529185098,-0.6157446782,-0.7691676114,0.1691153426
2.2350,0.0248001256,-0.615124158,-0.7695836324,0.1695531088
2.2400,0.02429668046,-0.6144976269,-0.7700025479,0.1699953354
2.2450,0.02378461753,-0.6138641241,-0.7704250031,0.1704419071
2.2500,0.02326771224,-0.6132233254,-0.7708513432,0.1708917005
2.2550,0.02274428339,-0.6125757544,-0.7712813247,0.1713439839
2.2600,0.02221724244,-0.6119229595,-0.77171376,0.1717980164
2.2650,0.02168598969,-0.6112666457,-0.7721471409,0.1722544584
2.2700,0.02114725006,-0.6106069989,-0.7725813441,0.1727135011
2.2750,0.02060017733,-0.6099449761,-0.7730151224,0.1731773061
2.2800,0.02004078285,-0.6092809995,-0.7734480957,0.1736464048
2.2850,0.01946847105,-0.6086163138,-0.7738789343,0.174122245
2.2900,0.01888196771,-0.6079508053,-0.7743079836,0.1746036546
2.2950,0.01828395309,-0.6072838919,-0.7747350415,0.1750930814
2.3000,0.01767802593,-0.6066131317,-0.7751613491,0.1755929346
2.3050,0.01706638667,-0.6059377457,-0.7755878668,0.1761012425
2.3100,0.01645020654,-0.6052561033,-0.7760158578,0.176617747
2.3150,0.0158302881,-0.604569168,-0.7764442278,0.1771436824
2.3200,0.01520756919,-0.603877755,-0.7768727355,0.1776770655
2.3250,0.01457949815,-0.6031819259,-0.7773016724,0.1782164771
2.3300,0.01394672016,-0.6024825408,-0.7777300293,0.1787631915
2.3350,0.01330897839,-0.6017792874,-0.7781579271,0.1793175977
2.3400,0.01266525444,-0.6010726717,-0.7785849731,0.1798796104
2.3450,0.01201565693,-0.6003623235,-0.7790113567,0.1804494685
2.3500,0.01136106475,-0.5996491782,-0.7794363964,0.1810267749
2.3550,0.01070054993,-0.5989336531,-0.7798607965,0.1816070358
2.3600,0.01003590816,-0.5982158368,-0.7802847361,0.1821889782
2.3650,0.009368946954,-0.5974939238,-0.7807096293,0.1827722858
2.3700,0.008701540969,-0.5967674812,-0.7811362474,0.1833549007
2.3750,0.008037572423,-0.5960367641,-0.7815642905,0.1839370358
2.3800,0.007378136824,-0.5953034106,-0.7819930972,0.1845161466
2.3850,0.006723991052,-0.5945665998,-0.7824230685,0.1850931881
2.3900,0.006077173621,-0.5938283496,-0.7828528325,0.1856674496
2.3950,0.005436216446,-0.593089281,-0.7832821729,0.1862379928
2.4000,0.004802385269,-0.5923515415,-0.7837092559,0.186805756
2.4050,0.004175296317,-0.5916159148,-0.7841337317,0.1873698669
2.4100,0.003554352736,-0.5908837369,-0.7845546651,0.1879301825
2.4150,0.002936950516,-0.5901545975,-0.7849723369,0.1884870174
2.4200,0.002324104395,-0.5894294495,-0.785385996,0.18904063
2.4250,0.001715462512,-0.5887070429,-0.7857967629,0.1895904063
2.4300,0.001110821256,-0.5879874128,-0.7862052524,0.1901338201
2.4350,0.0005120385768,-0.5872698167,-0.7866124519,0.1906692179
2.4400,-8.354016825e-5,-0.586554588,-0.787018406,0.1911955466
2.4450,-0.0006766415832,-0.5858413864,-0.7874234241,0.1917127105
2.4500,-0.00126916669,-0.585128,-0.7878291094,0.1922209853
2.4550,-0.001859449824,-0.5844161591,-0.788234479,0.1927192295
2.4600,-0.00244804853,-0.5837043301,-0.788640236,0.1932093172
2.4650,-0.00303503701,-0.5829934928,-0.7890464569,0.1936880602
2.4700,-0.003619515089,-0.5822830775,-0.7894532308,0.1941569293
2.4750,-0.004201263068,-0.5815747897,-0.789859558,0.1946149841
2.4800,-0.004782496968,-0.5808699123,-0.7902641108,0.1950638558
2.4850,-0.005363549869,-0.5801676169,-0.7906671871,0.195504905
2.4900,-0.005944167594,-0.579466571,-0.791069385,0.1959397561
2.4950,-0.006524374532,-0.5787688622,-0.7914694066,0.1963675509
2.5000,-0.007103246208,-0.5780738665,-0.791867648,0.1967886604
2.5050,-0.007681341163,-0.5773810684,-0.7922637289,0.1972061934
2.5100,-0.008258591755,-0.576691357,-0.7926572012,0.1976194214
2.5150,-0.008833429125,-0.5760058364,-0.7930470345,0.1980294122
2.5200,-0.009406372023,-0.5753234018,-0.7934342553,0.1984353444
2.5250,-0.009975739833,-0.5746435476,-0.7938189181,0.1988386357
2.5300,-0.01054234173,-0.5739679409,-0.7941997292,0.199239685
2.5350,-0.0111083697,-0.573299334,-0.7945747043,0.1996384658
2.5400,-0.0116773519,-0.5726399523,-0.7949422203,0.2000349742
2.5450,-0.0122505726,-0.5719894707,-0.7953021094,0.2004308452
2.5500,-0.0128308406,-0.5713469576,-0.7956541506,0.2008295204
2.5550,-0.01341563983,-0.5707104707,-0.795999971,0.2012302797
2.5600,-0.0140058444,-0.5700770701,-0.7963416382,0.2016332455
2.5650,-0.01459876799,-0.5694464701,-0.7966792884,0.2020388704
2.5700,-0.01519065851,-0.5688176864,-0.7970139124,0.2024463065
2.5750,-0.0157796141,-0.568191807,-0.7973456335,0.2028522001
2.5800,-0.01636456064,-0.5675689702,-0.7976743662,0.2032566621
2.5850,-0.01694332542,-0.5669503698,-0.7979993974,0.2036594304
2.5900,-0.01751321263,-0.566334296,-0.798321606,0.2040621621
2.5950,-0.0180741461,-0.5657219259,-0.7986402042,0.2044647943
2.6000,-0.01862744563,-0.5651171675,-0.798952656,0.2048664413
2.6050,-0.01917501371,-0.5645200508,-0.7992585925,0.2052684426
2.6100,-0.01971477415,-0.563932847,-0.7995560932,0.2056723746
2.6150,-0.02024827228,-0.5633563199,-0.7998446729,0.2060780522
2.6200,-0.02077623875,-0.5627904474,-0.8001243989,0.2064853665
2.6250,-0.02129892483,-0.5622378179,-0.8003937259,0.2068933914
2.6300,-0.02181736147,-0.5616979548,-0.8006525846,0.2073037605
2.6350,-0.02233263858,-0.5611721995,-0.8009007028,0.2077139379
2.6400,-0.02284305454,-0.5606583155,-0.8011398456,0.2081235113
2.6450,-0.02334649563,-0.5601546297,-0.8013713343,0.2085322911
2.6500,-0.02384447454,-0.5596610259,-0.801595169,0.208940571
2.6550,-0.02433350231,-0.5591773857,-0.8018117182,0.209347798
2.6600,-0.02481459037,-0.5587035496,-0.8020211992,0.2097536072
2.6650,-0.02528843107,-0.55824001,-0.8022233417,0.2101577896
2.6700,-0.02575442892,-0.5577871654,-0.8024181839,0.2105593636
2.6750,-0.02621616789,-0.5573442779,-0.8026065101,0.2109570061
2.6800,-0.02667198572,-0.5569096437,-0.8027890009,0.2113529607
2.6850,-0.02712100826,-0.5564844957,-0.8029654989,0.2117448099
2.6900,-0.02756235307,-0.5560646268,-0.8031390428,0.2121323297
2.6950,-0.02799428642,-0.5556505196,-0.8033098893,0.2125136274
2.7000,-0.02841282342,-0.555240368,-0.8034795562,0.2128883463
2.7050,-0.02881813402,-0.5548337427,-0.8036484875,0.2132560473
2.7100,-0.02921132139,-0.5544292127,-0.8038175926,0.2136170044
2.7150,-0.02959131517,-0.5540295043,-0.8039854641,0.213969708
2.7200,-0.02996016798,-0.5536344149,-0.8041525992,0.2143126692
2.7250,-0.03031803863,-0.5532436493,-0.8043186678,0.2146479947
2.7300,-0.03066447367,-0.5528580494,-0.8044830006,0.2149762058
2.7350,-0.03100146592,-0.5524779813,-0.8046448657,0.2152989303
2.7400,-0.03132958868,-0.5521043828,-0.8048036412,0.2156161092
2.7450,-0.03165020153,-0.5517357444,-0.8049605404,0.2159269821
2.7500,-0.0319615059,-0.5513731146,-0.8051144955,0.216233207
2.7550,-0.03226399395,-0.5510173949,-0.8052651343,0.2165338973
2.7600,-0.03255949014,-0.5506680492,-0.805412626,0.2168296129
2.7650,-0.03284798641,-0.5503240699,-0.8055572334,0.2171220201
2.7700,-0.03312988721,-0.549985589,-0.8056986817,0.2174118139
2.7750,-0.03340596242,-0.5496510889,-0.8058375397,0.2177006702
2.7800,-0.03367239085,-0.5493195288,-0.8059748487,0.217988001
2.7850,-0.03392799983,-0.5489900465,-0.8061113584,0.2182734467
2.7900,-0.03416874596,-0.5486627257,-0.8062473276,0.2185565305
2.7950,-0.03439353327,-0.5483382665,-0.806382555,0.2188364809
2.8000,-0.03460073736,-0.5480170685,-0.8065162918,0.2191153866
2.8050,-0.03479258689,-0.5477007033,-0.8066481951,0.2193903027
2.8100,-0.03496652524,-0.5473903668,-0.8067772612,0.219662421
2.8150,-0.03512595841,-0.5470865216,-0.8069030811,0.2199316319
2.8200,-0.03527294455,-0.5467904381,-0.8070246419,0.2201982368
2.8250,-0.0354104733,-0.5465047924,-0.8071403834,0.2204609075
2.8300,-0.03554256349,-0.5462301006,-0.8072498287,0.2207195446
2.8350,-0.03567072325,-0.5459656777,-0.8073528544,0.2209761225
2.8400,-0.03579519683,-0.5457103456,-0.8074507919,0.2212287081
2.8450,-0.03591936716,-0.5454653908,-0.8075427447,0.2214769109
2.8500,-0.03604707967,-0.5452320035,-0.8076282392,0.2217189612
2.8550,-0.03618292269,-0.5450105469,-0.8077070359,0.2219541484
2.8600,-0.03633049805,-0.5448014514,-0.8077779334,0.2221852464
2.8650,-0.03649605808,-0.5446028176,-0.8078424143,0.2224105269
2.8700,-0.03668600067,-0.544415596,-0.8078992828,0.2226309617
2.8750,-0.03690261444,-0.5442353325,-0.8079506358,0.2228494335
2.8800,-0.0371488145,-0.5440617241,-0.8079969242,0.2230645116
2.8850,-0.03742752057,-0.5438911732,-0.8080409171,0.2232743798
2.8900,-0.03774166276,-0.543722616,-0.8080827732,0.2234804587
2.8950,-0.03809273856,-0.5435535822,-0.8081237233,0.2236839164
2.9000,-0.03847965429,-0.5433795949,-0.8081666211,0.2238853379
2.9050,-0.03889811158,-0.5431970609,-0.8082133885,0.2240870558
2.9100,-0.03934800795,-0.5430034768,-0.8082660349,0.2242877066
2.9150,-0.03982433683,-0.5427954587,-0.8083270923,0.2244870243
2.9200,-0.04032594507,-0.542572846,-0.8083968289,0.2246844276
2.9250,-0.04084918267,-0.5423327056,-0.8084769412,0.2248813382
2.9300,-0.04139173478,-0.5420751013,-0.8085680636,0.2250755327
2.9350,-0.04194985414,-0.5417983177,-0.8086712098,0.2252679895
2.9400,-0.04252245888,-0.5415034576,-0.8087852497,0.2254601201
2.9450,-0.04310736234,-0.5411924038,-0.8089086111,0.2256532657
2.9500,-0.0437035654,-0.5408660939,-0.8090409363,0.2258464749
2.9550,-0.04431122853,-0.5405281653,-0.8091797769,0.2260396118
2.9600,-0.04492996412,-0.5401789334,-0.8093247952,0.2262330525
2.9650,-0.04555726443,-0.5398196472,-0.809475409,0.2264262494
2.9700,-0.04619502494,-0.5394522626,-0.8096301717,0.2266191987
2.9750,-0.0468387645,-0.5390758488,-0.8097898351,0.2268122185
2.9800,-0.04748870641,-0.5386932715,-0.8099527836,0.2270041196
2.9850,-0.04814368607,-0.538305128,-0.8101189849,0.2271937609
2.9900,-0.04880488832,-0.5379148134,-0.8102866005,0.2273793338
2.9950,-0.04947205465,-0.5375219178,-0.8104558767,0.2275609272
3.0000,-0.05014833901,-0.5371266085,-0.8106265619,0.2277382877
3.0050,-0.0508326455,-0.5367303402,-0.8107982589,0.2279095598
3.0100,-0.05152202817,-0.5363338237,-0.810970536,0.2280752069
3.0150,-0.05221662016,-0.5359339504,-0.8111455859,0.2282346686
3.0200,-0.05291437324,-0.5355309233,-0.8113229773,0.2283894169
3.0250,-0.05361567666,-0.5351265673,-0.8115020165,0.2285375098
3.0300,-0.05432138395,-0.534718868,-0.8116844025,0.2286773932
3.0350,-0.05503091246,-0.5343081336,-0.8118697926,0.2288096522
3.0400,-0.05574291303,-0.5338944916,-0.8120580613,0.2289347168
3.0450,-0.05645518643,-0.53347823,-0.8122488793,0.2290535925
3.0500,-0.05716703077,-0.5330589391,-0.8124430376,0.2291645886
3.0550,-0.05787671272,-0.5326357978,-0.8126408443,0.2292689495
3.0600,-0.05858243048,-0.5322100291,-0.8128415347,0.2293670058
3.0650,-0.05928138143,-0.5317824458,-0.8130451791,0.2294573703
3.0700,-0.05997420193,-0.53135399,-0.8132508445,0.229541056
3.0750,-0.06065737913,-0.5309253225,-0.8134583759,0.2296180631
3.0800,-0.06133290144,-0.5304981051,-0.8136666817,0.2296879769
3.0850,-0.06200082475,-0.530074256,-0.8138743135,0.2297515673
3.0900,-0.06266292406,-0.52965535,-0.8140798458,0.2298098622
3.0950,-0.06331872616,-0.529239376,-0.8142841191,0.2298647326
3.1000,-0.06396861791,-0.5288287194,-0.8144859805,0.2299147428
3.1050,-0.06461028274,-0.5284218705,-0.8146863155,0.2299609652
3.1100,-0.06524625656,-0.5280192996,-0.8148848992,0.230002492
3.1150,-0.0658745108,-0.5276214635,-0.8150815825,0.2300394617
3.1200,-0.06649503598,-0.5272281476,-0.8152767058,0.2300712575
3.1250,-0.06710931845,-0.526838437,-0.8154704728,0.2300989107
3.1300,-0.06771788804,-0.5264516152,-0.8156636818,0.230121148
3.1350,-0.06832054463,-0.5260671742,-0.8158572685,0.2301359355
3.1400,-0.0689199585,-0.525685584,-0.8160501811,0.230145189
3.1450,-0.06951538083,-0.5253052011,-0.8162437616,0.230148168
3.1500,-0.07010595186,-0.5249250352,-0.8164383017,0.2301463936
3.1550,-0.07069370313,-0.5245457579,-0.8166326275,0.2301419127
3.1600,-0.0712804175,-0.5241686878,-0.8168262757,0.2301328401
3.1650,-0.07186807517,-0.5237935305,-0.8170182761,0.2301226926
3.1700,-0.07245697491,-0.523420227,-0.8172083767,0.2301124113
3.1750,-0.07304868653,-0.5230516122,-0.8173945503,0.2301022589
3.1800,-0.07364403698,-0.5226869561,-0.8175760661,0.230096236
3.1850,-0.0742444252,-0.5223277629,-0.8177508073,0.2300980022
3.1900,-0.07485100706,-0.5219743562,-0.8179183397,0.2301079915
3.1950,-0.0754638252,-0.5216257536,-0.8180793801,0.2301258615
3.2000,-0.07608495223,-0.5212853146,-0.8182314086,0.2301522601
3.2050,-0.07671707437,-0.5209551978,-0.818372622,0.2301878013
3.2100,-0.07736002317,-0.5206342618,-0.8185030115,0.2302351239
3.2150,-0.07801575124,-0.5203242076,-0.8186211208,0.230294859
3.2200,-0.07867966353,-0.5200232432,-0.8187281,0.2303684775
3.2250,-0.07935289391,-0.5197316588,-0.8188228584,0.2304587767
3.2300,-0.08003223778,-0.5194486174,-0.8189063788,0.2305652133
3.2350,-0.08071703056,-0.5191758568,-0.818977841,0.2306869883
3.2400,-0.08140628792,-0.5189133268,-0.8190375005,0.2308236302
3.2450,-0.08209881938,-0.518661507,-0.8190860036,0.2309721711
3.2500,-0.08279128471,-0.518419752,-0.8191241335,0.2311324681
3.2550,-0.08348360957,-0.5181868523,-0.8191528761,0.23130378
3.2600,-0.08417523474,-0.5179621882,-0.8191731185,0.231484564
3.2650,-0.08486610556,-0.5177460611,-0.819184936,0.2316739107
3.2700,-0.08555162437,-0.5175376761,-0.8191896622,0.2318705906
3.2750,-0.08623151379,-0.5173391686,-0.819186881,0.2320714646
3.2800,-0.08690466987,-0.5171488064,-0.8191784292,0.2322743886
3.2850,-0.08757073948,-0.5169670619,-0.8191644262,0.2324780963
3.2900,-0.08822904478,-0.5167932454,-0.8191454097,0.2326825624
3.2950,-0.08887966841,-0.5166285723,-0.8191207132,0.2328874836
3.3000,-0.08952154559,-0.5164740993,-0.8190905494,0.2330902607
3.3050,-0.09015595479,-0.5163287383,-0.8190550729,0.2332923603
3.3100,-0.09078368388,-0.5161933508,-0.8190140054,0.2334926258
3.3150,-0.09140371544,-0.5160690884,-0.8189666911,0.2336912829
3.3200,-0.09201509951,-0.5159546766,-0.8189140257,0.2338884598
3.3250,-0.09261551444,-0.515848589,-0.8188578639,0.2340820335
3.3300,-0.09320461205,-0.5157529918,-0.8187966207,0.2342730155
3.3350,-0.09378269128,-0.5156668213,-0.8187316456,0.2344590131
3.3400,-0.09435002058,-0.5155898729,-0.8186631309,0.2346397977
3.3450,-0.09490698281,-0.5155213265,-0.8185918377,0.2348144583
3.3500,-0.0954548452,-0.5154607545,-0.8185176261,0.234983997
3.3550,-0.09599371757,-0.5154073397,-0.8184407524,0.2351493465
3.3600,-0.09652242743,-0.5153598233,-0.8183624639,0.2353094796
3.3650,-0.09704337332,-0.5153182528,-0.8182820504,0.235465853
3.3700,-0.09755280821,-0.515282381,-0.8182003094,0.2356178498
3.3750,-0.09805214112,-0.5152516583,-0.818117397,0.2357656273
3.3800,-0.09854118329,-0.5152258978,-0.8180335189,0.2359090319
3.3850,-0.09901936774,-0.5152034529,-0.8179492974,0.2360498122
3.3900,-0.09948780759,-0.5151844903,-0.8178644966,0.2361880234
3.3950,-0.09994786974,-0.5151703847,-0.817778395,0.2363226495
3.4000,-0.1004019722,-0.5151590375,-0.8176918137,0.2364544519
3.4050,-0.100848337,-0.5151511177,-0.8176043163,0.2365842784
3.4100,-0.1012870321,-0.5151462148,-0.8175161665,0.2367121288
3.4150,-0.1017187762,-0.5151425334,-0.8174286079,0.236837353
3.4200,-0.1021433149,-0.5151395704,-0.8173415067,0.2369616585
3.4250,-0.1025601567,-0.5151365007,-0.8172561784,0.2370825567
3.4300,-0.1029701348,-0.5151339743,-0.8171714076,0.2372025093
3.4350,-0.1033749963,-0.5151313251,-0.8170868058,0.237323576
3.4400,-0.1037743541,-0.5151285342,-0.8170029328,0.2374440662
3.4450,-0.1041692961,-0.515125106,-0.8169191282,0.2375668767
3.4500,-0.1045585789,-0.5151200607,-0.8168360136,0.2376925608
3.4550,-0.1049419932,-0.51511107,-0.8167551892,0.2378207826
3.4600,-0.1053208011,-0.515097163,-0.816676507,0.2379536183
3.4650,-0.1056924882,-0.5150785676,-0.8166006537,0.2380893521
3.4700,-0.1060578382,-0.5150564627,-0.8165265976,0.238228652
3.4750,-0.1064164696,-0.5150281936,-0.8164560395,0.2383716223
3.4800,-0.1067673357,-0.5149943555,-0.8163885909,0.238518801
3.4850,-0.1071101608,-0.5149535769,-0.8163255729,0.238668779
3.4900,-0.1074432046,-0.51490621,-0.8162663937,0.2388236319
3.4950,-0.1077657991,-0.514853632,-0.8162098551,0.2389848166
3.5000,-0.1080775905,-0.5147947063,-0.8161571239,0.2391509855
3.5050,-0.1083766795,-0.5147285692,-0.8161087787,0.239322913
3.5100,-0.1086630498,-0.5146571881,-0.8160641271,0.23949877
3.5150,-0.1089351356,-0.5145806438,-0.8160226232,0.2396809871
3.5200,-0.1091945546,-0.5145006614,-0.8159835159,0.2398677145
3.5250,-0.109441717,-0.5144173662,-0.8159469968,0.2400578729
3.5300,-0.1096775803,-0.5143324543,-0.8159117806,0.240251787
3.5350,-0.1099024014,-0.5142438244,-0.8158791832,0.2404493912
3.5400,-0.110113688,-0.5141538008,-0.8158485014,0.2406492627
3.5450,-0.1103116796,-0.5140611656,-0.8158205136,0.240851284
3.5500,-0.1104935543,-0.5139665104,-0.815795592,0.2410542524
3.5550,-0.1106563763,-0.5138705005,-0.8157745159,0.241255496
3.5600,-0.1108012598,-0.5137747571,-0.8157565514,0.2414535746
3.5650,-0.110927855,-0.5136799202,-0.8157416645,0.2416474446
3.5700,-0.1110385623,-0.5135863366,-0.8157294261,0.2418367548
3.5750,-0.111135322,-0.5134934824,-0.8157201863,0.2420205806
3.5800,-0.1112169339,-0.5134010816,-0.8157139243,0.2422001583
3.5850,-0.1112831631,-0.5133102289,-0.8157102896,0.2423744829
3.5900,-0.1113335937,-0.5132205445,-0.8157093873,0.2425442208
3.5950,-0.1113697638,-0.5131330441,-0.8157107792,0.2427080126
3.6000,-0.1113922006,-0.5130495857,-0.815713138,0.2428661706
3.6050,-0.1114013799,-0.5129713956,-0.815715823,0.2430180568
3.6100,-0.1113988551,-0.5128991944,-0.8157183872,0.243162958
3.6150,-0.1113870042,-0.5128336504,-0.8157197072,0.243302161
3.6200,-0.1113698985,-0.5127784315,-0.8157168495,0.2434359206
3.6250,-0.1113517967,-0.512733646,-0.8157085978,0.2435661493
3.6300,-0.111335051,-0.5126990093,-0.8156946313,0.2436934565
3.6350,-0.1113210397,-0.5126758675,-0.8156734963,0.2438192538
3.6400,-0.1113098415,-0.5126626069,-0.8156455166,0.2439458177
3.6450,-0.1113032925,-0.5126591671,-0.815610449,0.2440732492
3.6500,-0.1113000668,-0.512666779,-0.8155678746,0.2442009639
3.6550,-0.1113027739,-0.5126836282,-0.8155178644,0.2443313379
3.6600,-0.1113133838,-0.5127109954,-0.8154593533,0.2444643307
3.6650,-0.1113321157,-0.5127465661,-0.8153933496,0.2446013172
3.6700,-0.111361089,-0.5127901118,-0.8153197701,0.2447420717
3.6750,-0.1114012414,-0.5128415132,-0.8152384037,0.2448870981
3.6800,-0.1114526151,-0.5128996104,-0.8151501047,0.2450359382
3.6850,-0.1115159927,-0.5129643364,-0.8150549042,0.2451882464
3.6900,-0.1115897426,-0.5130345092,-0.814954392,0.2453419261
3.6950,-0.1116737336,-0.5131081361,-0.8148494903,0.2454981184
3.7000,-0.111766852,-0.5131833968,-0.8147414645,0.2456569113
3.7050,-0.1118696397,-0.5132598001,-0.8146312013,0.2458161249
3.7100,-0.1119817914,-0.513335921,-0.8145191358,0.2459774135
3.7150,-0.1121005715,-0.5134098707,-0.8144075963,0.2461382409
3.7200,-0.1122276598,-0.5134811803,-0.8142970095,0.246297402
3.7250,-0.1123617318,-0.5135497551,-0.8141873136,0.2464558962
3.7300,-0.112500177,-0.5136126376,-0.8140809322,0.2466130665
3.7350,-0.112643588,-0.5136711188,-0.8139776336,0.2467667233
3.7400,-0.1127906519,-0.5137233934,-0.8138782045,0.2469186347
3.7450,-0.1129408104,-0.5137702514,-0.8137833269,0.2470651717
3.7500,-0.1130967009,-0.5138115926,-0.8136928817,0.24720574
3.7550,-0.113255612,-0.5138473371,-0.8136072125,0.247340624
3.7600,-0.1134153082,-0.5138766055,-0.813527634,0.2474683634
3.7650,-0.1135760802,-0.5138987655,-0.813454542,0.2475888547
3.7700,-0.1137351614,-0.513912913,-0.8133889559,0.2477019123
3.7750,-0.1138936867,-0.5139188044,-0.813330926,0.2478073758
3.7800,-0.1140522052,-0.5139162594,-0.8132810728,0.2479033471
3.7850,-0.114210651,-0.5139057407,-0.8132390241,0.2479901339
3.7900,-0.1143700409,-0.5138869804,-0.8132052257,0.2480663743
3.7950,-0.1145303128,-0.5138600434,-0.8131798229,0.2481314952
3.8000,-0.1146914598,-0.5138248033,-0.8131624525,0.2481869588
3.8050,-0.1148540634,-0.5137810195,-0.8131534487,0.2482319018
3.8100,-0.115016294,-0.5137282611,-0.8131530416,0.2482673092
3.8150,-0.1151770764,-0.5136677998,-0.8131615527,0.2482899952
3.8200,-0.115334952,-0.5135996414,-0.8131783584,0.2483026675
3.8250,-0.115488185,-0.5135244733,-0.8132040287,0.2483028438
3.8300,-0.1156357125,-0.513442098,-0.8132386862,0.2482910254
3.8350,-0.1157772433,-0.5133539179,-0.8132816769,0.2482665884
3.8400,-0.1159126254,-0.5132598544,-0.8133331687,0.2482292122
3.8450,-0.1160419305,-0.5131601833,-0.8133921301,0.2481816659
3.8500,-0.1161679403,-0.5130557858,-0.8134583203,0.2481216062
3.8550,-0.1162900769,-0.5129471438,-0.8135304384,0.2480525581
3.8600,-0.1164050287,-0.5128345685,-0.8136085347,0.2479752549
3.8650,-0.1165137294,-0.5127178808,-0.8136922842,0.2478906858
3.8700,-0.1166147859,-0.51259998,-0.8137798381,0.2477995707
3.8750,-0.1167072808,-0.5124810632,-0.8138704711,0.2477043133
3.8800,-0.1167905179,-0.512364079,-0.8139625743,0.2476044287
3.8850,-0.1168655731,-0.5122488515,-0.8140557576,0.2475010614
3.8900,-0.1169318339,-0.5121380051,-0.8141480399,0.2473955922
3.8950,-0.1169890819,-0.5120320712,-0.8142389047,0.2472887357
3.9000,-0.1170391063,-0.5119320588,-0.8143270428,0.2471818808
3.9050,-0.1170837893,-0.5118377745,-0.8144119484,0.2470762173
3.9100,-0.1171238266,-0.5117493942,-0.8144930842,0.2469728377
3.9150,-0.1171585779,-0.5116678578,-0.8145701362,0.2468711488
3.9200,-0.1171890676,-0.5115918046,-0.814643858,0.2467710123
3.9250,-0.1172134087,-0.5115215393,-0.8147142615,0.2466726653
3.9300,-0.1172328259,-0.5114585447,-0.8147799483,0.2465770821
3.9350,-0.117246824,-0.5114025291,-0.8148407191,0.2464857766
3.9400,-0.1172570853,-0.5113552173,-0.8148959945,0.2463962984
3.9450,-0.1172646954,-0.5113173049,-0.8149443166,0.2463115217
3.9500,-0.1172696637,-0.5112876208,-0.8149864969,0.2462312018
3.9550,-0.1172704111,-0.511267776,-0.8150222352,0.2461537489
3.9600,-0.1172660499,-0.5112561267,-0.8150523894,0.2460801679
3.9650,-0.1172573968,-0.5112553647,-0.8150755602,0.2460091182
3.9700,-0.1172438827,-0.5112635718,-0.8150930091,0.2459406812
3.9750,-0.1172260223,-0.5112812686,-0.8151045427,0.245874172
3.9800,-0.1172028917,-0.5113073247,-0.8151104586,0.2458113955
3.9850,-0.1171746775,-0.5113422117,-0.8151107402,0.2457513351
3.9900,-0.1171427546,-0.5113854078,-0.8151056144,0.2456936651
3.9950,-0.1171068087,-0.5114376697,-0.8150951728,0.2456366518
4.0000,-0.1170670706,-0.5115000897,-0.8150787943,0.2455799633
4.0050,-0.1170237423,-0.5115734745,-0.8150564132,0.2455220299
4.0100,-0.1169767398,-0.5116564749,-0.8150291718,0.2454618973
4.0150,-0.1169274826,-0.5117498661,-0.814995321,0.2454030665
4.0200,-0.1168758423,-0.5118530965,-0.8149558537,0.245343436
4.0250,-0.1168209418,-0.5119660863,-0.8149109407,0.2452830053
4.0300,-0.1167638352,-0.512090003,-0.8148598963,0.245221094
4.0350,-0.1167026289,-0.5122227736,-0.8148042813,0.2451577243
4.0400,-0.1166369047,-0.5123641948,-0.8147446721,0.2450915822
4.0450,-0.1165688205,-0.5125139421,-0.8146808375,0.2450230649
4.0500,-0.1164974382,-0.5126711036,-0.8146142049,0.2449497574
4.0550,-0.1164249965,-0.5128362963,-0.8145441581,0.2448713291
4.0600,-0.1163507115,-0.513008417,-0.8144715438,0.244787623
4.0650,-0.1162747152,-0.5131874165,-0.8143970117,0.2446964928
4.0700,-0.11619797,-0.5133706971,-0.8143221111,0.2445977484
4.0750,-0.1161200242,-0.5135594898,-0.814246314,0.2444907575
4.0800,-0.1160391108,-0.513752865,-0.8141701264,0.2443766024
4.0850,-0.1159556864,-0.5139507561,-0.8140939944,0.2442536948
4.0900,-0.1158670187,-0.514152294,-0.8140191139,0.2441211478
4.0950,-0.1157750491,-0.5143574118,-0.8139453238,0.243978689
4.1000,-0.1156778602,-0.5145653941,-0.8138730182,0.2438273942
4.1050,-0.1155750428,-0.5147780881,-0.8138008703,0.2436679564
4.1100,-0.1154670395,-0.514993727,-0.8137304454,0.2434986368
4.1150,-0.1153544431,-0.5152119901,-0.8136610288,0.2433221894
4.1200,-0.1152382887,-0.5154335504,-0.8135928069,0.2431360454
4.1250,-0.1151179525,-0.5156580416,-0.8135258303,0.2429410724
4.1300,-0.1149931701,-0.5158866264,-0.813459557,0.2427367065
4.1350,-0.1148637744,-0.516119794,-0.8133931583,0.2425247237
4.1400,-0.1147283005,-0.5163561439,-0.8133276026,0.2423055106
4.1450,-0.1145844346,-0.5165973254,-0.8132624407,0.242078114
4.1500,-0.1144317846,-0.5168430045,-0.813197113,0.2418452622
4.1550,-0.1142710358,-0.5170931947,-0.8131315513,0.2416067852
4.1600,-0.1141029196,-0.5173475115,-0.813065366,0.2413644274
4.1650,-0.1139262495,-0.5176067878,-0.8129976205,0.2411200778
4.1700,-0.1137410358,-0.5178701332,-0.812928904,0.2408736161
4.1750,-0.1135471762,-0.5181369203,-0.8128597799,0.2406244973
4.1800,-0.1133467567,-0.518406677,-0.8127901161,0.2403731623
4.1850,-0.1131405384,-0.5186787546,-0.8127198984,0.2401206673
4.1900,-0.1129287907,-0.5189530507,-0.8126496059,0.2398654568
4.1950,-0.1127110436,-0.5192288361,-0.8125796478,0.2396079139
4.2000,-0.1124872151,-0.5195039176,-0.8125117345,0.239347002
4.2050,-0.1122564094,-0.5197786996,-0.8124456943,0.2390828219
4.2100,-0.112016699,-0.5200517808,-0.8123826605,0.2388154464
4.2150,-0.1117686936,-0.5203226172,-0.8123226903,0.2385455513
4.2200,-0.1115101381,-0.5205925375,-0.8122652786,0.2382729865
4.2250,-0.1112419456,-0.5208614582,-0.8122097622,0.2379997334
4.2300,-0.1109633972,-0.5211289596,-0.8121569889,0.2377241202
4.2350,-0.1106741092,-0.5213956377,-0.8121064589,0.2374466888
4.2400,-0.1103738511,-0.5216607196,-0.8120584911,0.2371681128
4.2450,-0.1100624189,-0.5219250215,-0.8120129359,0.2368871628
4.2500,-0.1097398957,-0.522190099,-0.8119688171,0.2366036684
4.2550,-0.1094085229,-0.5224548813,-0.8119265626,0.2363174329
4.2600,-0.109068479,-0.522721729,-0.8118849048,0.2360274609
4.2650,-0.1087178902,-0.5229893214,-0.8118447135,0.235734493
4.2700,-0.108355952,-0.5232591495,-0.8118056773,0.2354365998
4.2750,-0.1079823178,-0.5235315602,-0.8117680724,0.2351321356
4.2800,-0.1075978808,-0.5238075846,-0.8117311681,0.2348208277
4.2850,-0.1072018106,-0.524087505,-0.8116949573,0.2345023564
4.2900,-0.1067928325,-0.5243723186,-0.8116590664,0.2341762635
4.2950,-0.1063725552,-0.5246626819,-0.8116222703,0.2338444783
4.3000,-0.1059401884,-0.5249592329,-0.8115846373,0.2335055817
4.3050,-0.1054980035,-0.5252598717,-0.8115465475,0.2331618314
4.3100,-0.1050467504,-0.5255666462,-0.8115068122,0.232812316
4.3150,-0.1045876072,-0.5258786075,-0.8114663382,0.2324553821
4.3200,-0.1041191291,-0.5261950169,-0.8114254845,0.2320919952
4.3250,-0.103641994,-0.5265149589,-0.8113848967,0.2317215669
4.3300,-0.103157253,-0.52683758,-0.8113453599,0.2313427167
4.3350,-0.1026628965,-0.5271627545,-0.811307626,0.2309538827
4.3400,-0.1021601698,-0.5274906745,-0.8112712107,0.2305556563
4.3450,-0.1016468008,-0.5278211681,-0.8112363753,0.2301483992
4.3500,-0.1011239286,-0.5281547244,-0.811202459,0.2297326897
4.3550,-0.100591112,-0.5284910685,-0.8111695921,0.2293087689
4.3600,-0.1000499095,-0.5288313448,-0.8111368081,0.2288766108
4.3650,-0.09949933863,-0.5291743228,-0.8111043261,0.228438591
4.3700,-0.0989429461,-0.5295207173,-0.8110708,0.2279961857
4.3750,-0.09837990232,-0.5298703972,-0.8110361412,0.2275502904
4.3800,-0.09781024161,-0.5302218239,-0.8110014173,0.2271005841
4.3850,-0.09723433286,-0.5305745859,-0.8109663762,0.226648693
4.3900,-0.09665411799,-0.5309292691,-0.810930895,0.2261927855
4.3950,-0.09606849992,-0.5312840488,-0.8108957046,0.2257349308
4.4000,-0.09547889712,-0.531639381,-0.810860942,0.2252729044
4.4050,-0.09488561163,-0.5319952752,-0.8108263481,0.2248074312
4.4100,-0.09429030695,-0.5323533841,-0.8107902701,0.2243398103
4.4150,-0.09369353435,-0.5327135173,-0.8107532264,0.2238683452
4.4200,-0.09309562583,-0.5330754633,-0.8107144462,0.2233961538
4.4250,-0.09249751856,-0.5334391564,-0.8106737986,0.222923457
4.4300,-0.09190118693,-0.5338043867,-0.8106311901,0.2224502689
4.4350,-0.09130519885,-0.5341706161,-0.8105868417,0.2219776694
4.4400,-0.09071311442,-0.5345376075,-0.8105402276,0.2215066965
4.4450,-0.09012500026,-0.5349048259,-0.8104918774,0.2210367125
4.4500,-0.08954123915,-0.5352715662,-0.8104419389,0.2205687661
4.4550,-0.08896212506,-0.535637532,-0.8103907384,0.2201023074
4.4600,-0.08838579795,-0.5360020515,-0.8103390095,0.219637067
4.4650,-0.08781161983,-0.5363650568,-0.8102872457,0.2191716788
4.4700,-0.08723905874,-0.5367257676,-0.810236115,0.2187058184
4.4750,-0.0866672009,-0.5370855617,-0.8101844067,0.2182409742
4.4800,-0.08609353155,-0.5374445804,-0.8101321254,0.217777791
4.4850,-0.08551677429,-0.5378040844,-0.8100785463,0.2173163521
4.4900,-0.08493566397,-0.5381635854,-0.810023899,0.216857491
4.4950,-0.08435152441,-0.5385243217,-0.8099670902,0.2164016824
4.5000,-0.08376260591,-0.5388874801,-0.8099070905,0.2159504906
4.5050,-0.08316929226,-0.5392549899,-0.8098428729,0.2155027747
4.5100,-0.08257322873,-0.5396280164,-0.8097732549,0.2150593905
4.5150,-0.08197453615,-0.5400060388,-0.8096984908,0.2146206128
4.5200,-0.08137305854,-0.5403905508,-0.809617485,0.2141868484
4.5250,-0.08076960858,-0.5407802162,-0.8095310575,0.2137580291
4.5300,-0.08016446738,-0.5411756341,-0.8094387028,0.2133344266
4.5350,-0.07955770138,-0.5415776561,-0.8093395398,0.2129171761
4.5400,-0.07894844452,-0.5419866642,-0.8092331249,0.2125072906
4.5450,-0.07833738627,-0.5424031269,-0.8091189726,0.2121051392
4.5500,-0.07772547101,-0.5428259496,-0.8089975503,0.2117113679
4.5550,-0.07711159462,-0.5432574019,-0.8088679662,0.2113239471
4.5600,-0.0764959314,-0.5436968069,-0.8087311902,0.2109407895
4.5650,-0.07588186253,-0.5441445378,-0.8085870238,0.2105604186
4.5700,-0.07526780109,-0.5446019909,-0.8084342014,0.2101846131
4.5750,-0.07465534022,-0.5450676071,-0.8082732951,0.2098145952
4.5800,-0.07404208845,-0.5455416115,-0.8081044748,0.2094499391
4.5850,-0.0734290844,-0.5460225637,-0.8079283447,0.2090916529
4.5900,-0.07281624206,-0.5465095317,-0.8077452146,0.2087409757
4.5950,-0.07220180081,-0.5470008164,-0.8075564884,0.2083975166
4.6000,-0.07158540222,-0.5474938231,-0.8073634598,0.2080631817
4.6050,-0.0709651842,-0.54798846,-0.8071669427,0.2077356903
4.6100,-0.0703392057,-0.5484838644,-0.8069675886,0.2074154228
4.6150,-0.06970564256,-0.548980407,-0.8067651798,0.2071028267
4.6200,-0.06906346086,-0.5494772552,-0.8065605557,0.2067971337
4.6250,-0.06841304929,-0.5499746003,-0.8063537808,0.2064973944
4.6300,-0.06775357024,-0.5504728938,-0.8061444054,0.2062043755
4.6350,-0.06708749733,-0.5509733939,-0.8059308664,0.2059199493
4.6400,-0.06641424064,-0.5514772084,-0.8057128828,0.2056423782
4.6450,-0.06573750259,-0.5519837424,-0.8054905132,0.2053717652
4.6500,-0.06505463873,-0.5524925417,-0.8052643214,0.205107918
4.6550,-0.06436866293,-0.5530035853,-0.8050340729,0.2048508025
4.6600,-0.06367851859,-0.5535160709,-0.8048005246,0.2045999049
4.6650,-0.06298696695,-0.5540288805,-0.8045644563,0.2043542936
4.6700,-0.0622914667,-0.5545436615,-0.8043258373,0.2041103819
4.6750,-0.0615945001,-0.5550592847,-0.804085702,0.2038663579
4.6800,-0.06089810995,-0.5555770475,-0.8038434986,0.2036202206
4.6850,-0.06020228295,-0.5560975004,-0.8035992586,0.2033703193
4.6900,-0.05950985076,-0.5566193703,-0.8033537749,0.2031161408
4.6950,-0.05882099288,-0.557145582,-0.8031062032,0.2028529458
4.7000,-0.05813646714,-0.5576744813,-0.802857662,0.202580598
4.7050,-0.05745731878,-0.5582047597,-0.8026094239,0.2022973442
4.7100,-0.05678142211,-0.5587358142,-0.8023628511,0.2020000379
4.7150,-0.05611155109,-0.559266875,-0.8021180562,0.2016895642
4.7200,-0.05544865824,-0.5597963434,-0.8018763347,0.2013649526
4.7250,-0.05479160492,-0.5603244807,-0.8016378552,0.2010251364
4.7300,-0.05413901763,-0.5608492482,-0.801403322,0.200673374
4.7350,-0.05349285199,-0.5613701716,-0.8011735041,0.2003074175
4.7400,-0.05285089083,-0.5618868455,-0.8009489104,0.1999269842
4.7450,-0.05221365273,-0.562397354,-0.8007306959,0.1995327122
4.7500,-0.05157947211,-0.5629024844,-0.8005190121,0.1991222295
4.7550,-0.05094812765,-0.5634014048,-0.8003138683,0.1986979055
4.7600,-0.05032126104,-0.5638941416,-0.800115149,0.198259719
4.7650,-0.04969709847,-0.5643812377,-0.799922142,0.1978094629
4.7700,-0.04907865967,-0.5648619711,-0.7997349906,0.1973478744
4.7750,-0.04846626765,-0.5653372634,-0.7995529916,0.1968751207
4.7800,-0.04785980553,-0.5658065284,-0.7993761133,0.1963930777
4.7850,-0.04726042839,-0.5662713096,-0.7992031259,0.1959020657
4.7900,-0.04667096671,-0.5667305257,-0.7990338433,0.1954053463
4.7950,-0.0460909649,-0.5671848879,-0.7988677411,0.1949032022
4.8000,-0.04552282463,-0.5676335091,-0.7987045929,0.1943986756
4.8050,-0.04496530087,-0.5680756777,-0.7985445732,0.1938935551
4.8100,-0.04441840722,-0.56851221,-0.7983869091,0.193388768
4.8150,-0.04388327567,-0.5689434008,-0.7982307905,0.1928866765
4.8200,-0.04335818504,-0.5693685869,-0.7980767838,0.1923874401
4.8250,-0.04284312885,-0.5697883723,-0.7979242135,0.1918922263
4.8300,-0.04233499257,-0.570204024,-0.7977717249,0.1914037472
4.8350,-0.04183370076,-0.5706146314,-0.7976204421,0.1909201778
4.8400,-0.04133948681,-0.5710209194,-0.7974697085,0.1904421709
4.8450,-0.04084954042,-0.5714233828,-0.7973193234,0.1899698114
4.8500,-0.04036427373,-0.5718238192,-0.7971675202,0.1895051183
4.8550,-0.03988424841,-0.5722209276,-0.7970145936,0.189050772
4.8600,-0.03940855087,-0.5726145501,-0.7968600296,0.1886097461
4.8650,-0.03893526238,-0.5730057852,-0.7967027147,0.1881839523
4.8700,-0.038467669,-0.5733938971,-0.7965430664,0.1877733223
4.8750,-0.03800326146,-0.5737797244,-0.7963806746,0.1873776964
4.8800,-0.03754368192,-0.5741627168,-0.796215933,0.186996884
4.8850,-0.03708710384,-0.5745424634,-0.7960496034,0.1866294012
4.8900,-0.03663408709,-0.5749196111,-0.7958818115,0.1862727209
4.8950,-0.03618403529,-0.5752934948,-0.7957131357,0.185926642
4.9000,-0.03573818786,-0.5756666099,-0.7955423768,0.1855884234
4.9050,-0.03529650078,-0.5760400978,-0.7953684269,0.1852593538
4.9100,-0.03485949277,-0.5764134895,-0.7951914396,0.1849402045
4.9150,-0.03442867155,-0.576788138,-0.7950101801,0.1846318608
4.9200,-0.03400432999,-0.5771669523,-0.7948225757,0.1843341745
4.9250,-0.03358642569,-0.5775494964,-0.7946287591,0.1840480004
4.9300,-0.03317568596,-0.5779356882,-0.7944288429,0.1837730334
4.9350,-0.03277154351,-0.5783243947,-0.7942235872,0.183509711
4.9400,-0.03237448836,-0.5787145255,-0.7940134926,0.1832592811
4.9450,-0.03198051511,-0.5791065503,-0.7937981741,0.1830227005
4.9500,-0.03159155378,-0.5794995807,-0.7935779731,0.182801013
4.9550,-0.03120309517,-0.579894019,-0.7933532674,0.182592132
4.9600,-0.0308127175,-0.5802893181,-0.7931240218,0.1823983821
4.9650,-0.03041759709,-0.5806894586,-0.7928879371,0.1822175668
4.9700,-0.03001723222,-0.581092983,-0.7926460655,0.1820497891
4.9750,-0.02961098902,-0.5815021986,-0.7923967999,0.1818947327
4.9800,-0.02919959737,-0.5819182873,-0.7921392003,0.181752518
4.9850,-0.02878469925,-0.582341148,-0.7918734712,0.1816222288
4.9900,-0.02836363943,-0.5827720109,-0.7915988159,0.181503724
4.9950,-0.0279364399,-0.5832095753,-0.7913161675,0.1813969949
5.0000,-0.02750309194,-0.5836542685,-0.7910250841,0.181302485
5.0050,-0.02706231236,-0.584104882,-0.7907273338,0.1812164496
5.0100,-0.02661576215,-0.5845612948,-0.79042256,0.1811404717
5.0150,-0.02616061976,-0.5850221018,-0.7901127199,0.1810708486
5.0200,-0.02569545353,-0.5854867572,-0.7897984008,0.1810068699
5.0250,-0.02522051258,-0.5859538914,-0.7894809821,0.1809467926
5.0300,-0.02473547224,-0.5864230408,-0.7891615699,0.1808872307
5.0350,-0.02424046253,-0.5868925298,-0.7888416883,0.1808268485
5.0400,-0.02373685926,-0.5873636909,-0.7885205622,0.1807644299
5.0450,-0.02322598054,-0.5878359393,-0.7881989776,0.1806981845
5.0500,-0.02270927802,-0.5883082777,-0.7878775036,0.1806286202
5.0550,-0.0221871605,-0.588779944,-0.7875575502,0.1805519665
5.0600,-0.02165769186,-0.5892502474,-0.7872398933,0.1804672842
5.0650,-0.02112211063,-0.5897174927,-0.7869262228,0.1803725454
5.0700,-0.02057767094,-0.5901815619,-0.7866168515,0.1802670583
5.0750,-0.02002423486,-0.5906417948,-0.7863121497,0.180151335
5.0800,-0.01946333282,-0.5910982413,-0.7860121706,0.1800247635
5.0850,-0.0188960306,-0.5915498893,-0.7857174726,0.179888081
5.0900,-0.01832191104,-0.5919964553,-0.785428893,0.1797385838
5.0950,-0.01774079912,-0.592438591,-0.785145289,0.1795791052
5.1000,-0.01715300724,-0.5928763384,-0.7848670836,0.1794075881
5.1050,-0.01655906695,-0.5933095131,-0.784593601,0.1792275095
5.1100,-0.01596169561,-0.5937388157,-0.7843240375,0.1790397921
5.1150,-0.01535943148,-0.5941659215,-0.7840571688,0.1788443501
5.1200,-0.01475388814,-0.5945903917,-0.7837928118,0.1786432676
5.1250,-0.01414637962,-0.5950141064,-0.7835297264,0.1784355935
5.1300,-0.01353935208,-0.5954359313,-0.7832685473,0.1782221097
5.1350,-0.01293453449,-0.5958564771,-0.7830085065,0.1780040318
5.1400,-0.01233239489,-0.5962745639,-0.782750592,0.1777809528
5.1450,-0.01173503537,-0.5966906305,-0.7824940342,0.1775546871
5.1500,-0.01114241799,-0.5971033082,-0.7822400231,0.1773246517
5.1550,-0.01055337004,-0.5975124183,-0.7819886879,0.177091017
5.1600,-0.009970804891,-0.5979188866,-0.7817395986,0.1768524473
5.1650,-0.009394462719,-0.5983203019,-0.7814948081,0.1766081123
5.1700,-0.008824305568,-0.5987183459,-0.7812529652,0.1763583801
5.1750,-0.008260367124,-0.5991114138,-0.7810152914,0.1761033636
5.1800,-0.007703884656,-0.599500205,-0.7807809471,0.1758444395
5.1850,-0.007153803869,-0.5998854022,-0.7805491034,0.1755830985
5.1900,-0.006609981764,-0.6002670792,-0.780318643,0.1753241489
5.1950,-0.006070334127,-0.6006462008,-0.7800886647,0.1750684659
5.2000,-0.005533920513,-0.6010224515,-0.7798586287,0.1748196434
5.2050,-0.005000177056,-0.6013958764,-0.7796280525,0.1745797751
5.2100,-0.004469059736,-0.6017680852,-0.7793956194,0.174349269
5.2150,-0.003940770272,-0.6021382813,-0.7791618346,0.1741286767
5.2200,-0.00341570278,-0.6025052832,-0.7789270201,0.1739207117
5.2250,-0.002893300836,-0.6028705477,-0.7786897897,0.1737266327
5.2300,-0.002373222988,-0.603234089,-0.7784498227,0.1735479044
5.2350,-0.001856171271,-0.603596318,-0.7782068866,0.1733842007
5.2400,-0.001341402481,-0.6039580918,-0.7779605215,0.1732346701
5.2450,-0.0008313222672,-0.6043203609,-0.7777104999,0.17309705
5.2500,-0.0003263642181,-0.6046831428,-0.7774567888,0.1729714769
5.2550,0.0001728658277,-0.6050463306,-0.7771987933,0.1728610531
5.2600,0.0006638206566,-0.6054108918,-0.7769365987,0.1727620703
5.2650,0.001148235642,-0.6057754457,-0.7766708357,0.1726765879
5.2700,0.001626363581,-0.6061396684,-0.7764017946,0.1726044922
5.2750,0.002100329297,-0.6065019056,-0.7761307758,0.1725457794
5.2800,0.002570248905,-0.606860973,-0.7758592268,0.1724981552
5.2850,0.003037177639,-0.6072166792,-0.7755875666,0.172460449
5.2900,0.003498495273,-0.607568287,-0.7753168703,0.17243053
5.2950,0.003952677641,-0.6079160573,-0.775047528,0.1724058379
5.3000,0.004398638826,-0.6082602986,-0.7747799255,0.1723836656
5.3050,0.004833704342,-0.6086010237,-0.7745142302,0.172363385
5.3100,0.005258323738,-0.6089375675,-0.7742514022,0.172343132
5.3150,0.005671395906,-0.609270414,-0.7739907723,0.172324352
5.3200,0.006072460267,-0.6096002542,-0.773732341,0.1723047293
5.3250,0.006460042911,-0.6099272973,-0.7734757576,0.1722852642
5.3300,0.006833179968,-0.6102517253,-0.7732207592,0.1722666449
5.3350,0.007195017558,-0.6105746361,-0.7729669956,0.172246536
5.3400,0.007545173067,-0.6108956635,-0.7727146168,0.1722256648
5.3450,0.007884749024,-0.6112158985,-0.7724626594,0.1722045179
5.3500,0.008215454651,-0.6115343941,-0.7722120194,0.1721824275
5.3550,0.008536479249,-0.6118520584,-0.7719619543,0.1721596013
5.3600,0.008846083051,-0.6121673447,-0.7717135092,0.1721370054
5.3650,0.009142187634,-0.6124805964,-0.7714667654,0.1721132459
5.3700,0.009425466043,-0.6127914329,-0.7712218991,0.1720889387
5.3750,0.009693610003,-0.6130979283,-0.7709811001,0.172061348
5.3800,0.009945023493,-0.6134003189,-0.7707445207,0.1720291516
5.3850,0.0101817677,-0.6136970024,-0.7705137584,0.1719908979
5.3900,0.01040551059,-0.6139882987,-0.7702882912,0.1719477911
5.3950,0.01061601775,-0.6142738464,-0.7700686519,0.1718988459
5.4000,0.01081603057,-0.6145528146,-0.7698553531,0.1718446594
5.4050,0.01100534091,-0.6148252778,-0.7696490614,0.1717820789
5.4100,0.01118653492,-0.6150904759,-0.7694502491,0.1717116249
5.4150,0.01135952315,-0.6153473851,-0.7692598391,0.1716329129
5.4200,0.01152454147,-0.6155955211,-0.7690782256,0.171545977
5.4250,0.0116842022,-0.6158341915,-0.768905597,0.1714523575
5.4300,0.01183704332,-0.6160640291,-0.7687419068,0.1713501598
5.4350,0.01198248622,-0.6162836148,-0.7685882512,0.1712396749
5.4400,0.01212049186,-0.616494592,-0.7684435553,0.1711198818
5.4450,0.01225055562,-0.6166955406,-0.7683092277,0.1709896624
5.4500,0.01237017452,-0.6168869016,-0.7681853855,0.1708471335
5.4550,0.01247886145,-0.617070513,-0.7680706568,0.170691904
5.4600,0.01257716817,-0.6172454675,-0.7679655364,0.1705250204
5.4650,0.01266513878,-0.6174147274,-0.7678674148,0.1703475329
5.4700,0.01274276516,-0.617576842,-0.7677772851,0.1701602382
5.4750,0.0128111282,-0.6177344436,-0.7676928575,0.1699638453
5.4800,0.01287220897,-0.6178871599,-0.7676141869,0.1697593117
5.4850,0.01292595928,-0.6180361417,-0.7675406035,0.1695454781
5.4900,0.012972254,-0.6181820253,-0.7674720358,0.1693203427
5.4950,0.01301242846,-0.6183257772,-0.7674077714,0.1690834775
5.5000,0.01304523705,-0.6184668312,-0.7673485042,0.1688338638
5.5050,0.01307143904,-0.6186047584,-0.767294093,0.1685736199
5.5100,0.0130918784,-0.6187384594,-0.7672454244,0.1683026452
5.5150,0.01310744218,-0.6188682358,-0.76720193,0.1680223206
5.5200,0.01311872082,-0.6189944999,-0.7671636045,0.1677310711
5.5250,0.01312685355,-0.6191169941,-0.7671301177,0.1674312269
5.5300,0.01313317434,-0.6192358713,-0.7671012893,0.1671229108
5.5350,0.01313905354,-0.6193520653,-0.76707618,0.1668068301
5.5400,0.0131449727,-0.6194667239,-0.7670536435,0.16648392
5.5450,0.01315185832,-0.6195800051,-0.767033129,0.1661560258
5.5500,0.01315966089,-0.6196945832,-0.7670126963,0.1658221054
5.5550,0.0131672702,-0.6198108271,-0.7669921625,0.1654816734
5.5600,0.01317601285,-0.619929533,-0.7669701679,0.1651379069
5.5650,0.01318516504,-0.6200497523,-0.7669476942,0.1647898369
5.5700,0.01319445576,-0.6201717703,-0.7669241558,0.16443911
5.5750,0.01320162978,-0.6202967168,-0.7668989152,0.1640845941
5.5800,0.01320704893,-0.6204248725,-0.7668714682,0.1637275255
5.5850,0.0132106839,-0.6205558731,-0.7668418661,0.1633690259
5.5900,0.01321224751,-0.6206897361,-0.7668102086,0.1630085641
5.5950,0.01321163483,-0.6208274198,-0.7667757119,0.1626461658
5.6000,0.01320888289,-0.6209675127,-0.7667394406,0.1622821734
5.6050,0.01320425911,-0.6211110368,-0.7667005251,0.1619167451
5.6100,0.01319857463,-0.6212581845,-0.7666585774,0.1615508943
5.6150,0.01319164053,-0.6214077901,-0.766614798,0.1611834066
5.6200,0.01318512413,-0.6215596628,-0.7665688406,0.1608165124
5.6250,0.01318155059,-0.6217117318,-0.7665222288,0.1604507463
5.6300,0.01318363721,-0.6218639906,-0.7664748436,0.1600864863
5.6350,0.01318961083,-0.6220148867,-0.7664271272,0.1597278109
5.6400,0.01320145529,-0.6221639727,-0.7663792857,0.1593753531
5.6450,0.01321913092,-0.6223100653,-0.7663320205,0.1590304109
5.6500,0.01324273815,-0.6224538361,-0.7662845011,0.1586944081
5.6550,0.01327198545,-0.6225946923,-0.7662372446,0.1583672583
5.6600,0.01330618925,-0.622734353,-0.7661888826,0.1580489391
5.6650,0.01334432071,-0.6228735124,-0.7661385851,0.1577408795
5.6700,0.01338249375,-0.6230116358,-0.7660871046,0.1574419216
5.6750,0.01342116839,-0.6231503524,-0.7660330762,0.1571522721
5.6800,0.01345658926,-0.623290596,-0.7659762281,0.1568699179
5.6850,0.01348591697,-0.6234331928,-0.7659161818,0.1565936992
5.6900,0.01350483554,-0.6235790577,-0.7658526572,0.1563217377
5.6950,0.01351010569,-0.6237256671,-0.7657883737,0.1560510683
5.7000,0.01349720879,-0.6238762583,-0.7657208842,0.1557811519
5.7050,0.01346485489,-0.624030046,-0.7656513665,0.1555094347
5.7100,0.01341157319,-0.6241878178,-0.7655795352,0.1552342524
5.7150,0.01333617661,-0.6243489742,-0.7655062266,0.1549539348
5.7200,0.01323582034,-0.6245137854,-0.7654315628,0.1546669567
5.7250,0.01310874627,-0.6246827395,-0.7653556805,0.1543707166
5.7300,0.01295667382,-0.6248545648,-0.7652797404,0.1540643258
5.7350,0.01278155612,-0.625030596,-0.7652031083,0.1537452081
5.7400,0.01258434598,-0.6252093036,-0.765126698,0.1534147875
5.7450,0.01236716591,-0.6253893517,-0.7650516241,0.1530726115
5.7500,0.01213331694,-0.6255707243,-0.7649779465,0.1527180173
5.7550,0.01188454928,-0.6257523731,-0.7649065118,0.1523507571
5.7600,0.01162399418,-0.6259343886,-0.764837248,0.1519704181
5.7650,0.01135452789,-0.6261148544,-0.7647716342,0.1515770803
5.7700,0.01107955601,-0.6262929156,-0.7647102206,0.1511711144
5.7750,0.01080084557,-0.6264683245,-0.7646529378,0.1507536561
5.7800,0.01052046541,-0.6266406651,-0.7646001697,0.1503242399
5.7850,0.01023902908,-0.6268091245,-0.7645520166,0.1498856151
5.7900,0.009960808894,-0.6269736161,-0.7645081509,0.149439467
5.7950,0.009685020878,-0.6271341633,-0.7644681873,0.1489876915
5.8000,0.009413891913,-0.6272901679,-0.7644322997,0.1485317578
5.8050,0.009148728666,-0.6274436516,-0.7643989015,0.1480712133
5.8100,0.008888830963,-0.6275952186,-0.7643672837,0.1476072012
5.8150,0.008635209262,-0.6277456193,-0.7643366738,0.1471404761
5.8200,0.008385511829,-0.6278954617,-0.7643062564,0.1466728294
5.8250,0.008139277197,-0.6280444936,-0.7642762994,0.1462039822
5.8300,0.007893468853,-0.6281948489,-0.7642450935,0.1457338739
5.8350,0.007647448836,-0.6283465901,-0.7642121081,0.1452650443
5.8400,0.007400583224,-0.6284995257,-0.7641775769,0.1447971289
5.8450,0.007152636647,-0.6286521258,-0.764142559,0.1443311955
5.8500,0.006904955715,-0.6288052206,-0.7641061546,0.1438683447
5.8550,0.006657179614,-0.6289581232,-0.7640693577,0.1434063387
5.8600,0.006408289417,-0.6291098206,-0.7640330185,0.1429451434
5.8650,0.006155048334,-0.6292614476,-0.763996269,0.1424845497
5.8700,0.005896107161,-0.629413141,-0.7639594603,0.1420221002
5.8750,0.005630925527,-0.6295628809,-0.7639240494,0.1415588866
5.8800,0.005357851162,-0.6297110214,-0.7638900719,0.1410931644
5.8850,0.005076700499,-0.6298578629,-0.7638575413,0.1406234559
5.8900,0.004786765672,-0.630002991,-0.7638268068,0.140149661
5.8950,0.004488925162,-0.6301447854,-0.7637990953,0.1396722631
5.9000,0.004182266627,-0.6302851013,-0.7637727659,0.1391918168
5.9050,0.003866574209,-0.6304225305,-0.7637489329,0.1387085081
5.9100,0.003542413739,-0.6305585089,-0.763726512,0.1382216806
5.9150,0.003210632145,-0.6306920999,-0.7637057085,0.1377343739
5.9200,0.002872265209,-0.630822662,-0.7636870903,0.1372463017
5.9250,0.002527653514,-0.6309511854,-0.763669512,0.1367592378
5.9300,0.002174671057,-0.6310775362,-0.7636526554,0.1362755883
5.9350,0.001815961898,-0.6312024888,-0.7636360073,0.1357945828
5.9400,0.001449578906,-0.6313245726,-0.7636208354,0.1353159356
5.9450,0.001075674525,-0.6314451109,-0.7636059326,0.1348402558
5.9500,0.0006922559763,-0.6315632524,-0.7635921992,0.1343664106
5.9550,0.0002983987271,-0.6316797129,-0.7635789212,0.1338950424
5.9600,-0.0001068666104,-0.6317954415,-0.7635655619,0.1334246653
5.9650,-0.0005235030846,-0.6319094345,-0.7635528502,0.1329557725
5.9700,-0.0009514407642,-0.6320235043,-0.7635393331,0.1324880052
5.9750,-0.001391514726,-0.6321383745,-0.7635243428,0.132021654
5.9800,-0.001842452364,-0.632252931,-0.7635085623,0.1315580172
5.9850,-0.0023044057,-0.6323678998,-0.7634914126,0.1310968796
5.9900,-0.002775371058,-0.6324828825,-0.7634732573,0.1306379963
5.9950,-0.003253313013,-0.6325998539,-0.7634519563,0.1301842973
6.0000,-0.003737040591,-0.6327170488,-0.7634294089,0.1297332199
6.0050,-0.004225361443,-0.6328343517,-0.7634054321,0.1292864104
6.0100,-0.004717909525,-0.6329518523,-0.7633798931,0.128844219
6.0150,-0.005215230859,-0.6330703407,-0.7633524153,0.1284049657
6.0200,-0.005714246823,-0.6331887558,-0.7633239609,0.1279682677
6.0250,-0.006214329135,-0.633307607,-0.7632942384,0.1275333786
6.0300,-0.006714684066,-0.6334258823,-0.7632641728,0.1270998313
6.0350,-0.007212059344,-0.6335434018,-0.7632340259,0.1266671459
6.0400,-0.007707143969,-0.6336601744,-0.7632039539,0.126234338
6.0450,-0.008196646859,-0.6337782537,-0.7631724046,0.1258007193
6.0500,-0.008679953943,-0.633895565,-0.7631409954,0.1253670301
6.0550,-0.009153443156,-0.6340135311,-0.7631086481,0.1249329743
6.0600,-0.009615709549,-0.6341308078,-0.7630764556,0.1244989139
6.0650,-0.01006452788,-0.6342478902,-0.763044297,0.1240633701
6.0700,-0.01049953109,-0.6343660236,-0.7630108327,0.1236283834
6.0750,-0.01091954133,-0.6344842306,-0.7629772795,0.1231917035
6.0800,-0.01132564751,-0.6346035677,-0.7629427952,0.1227531381
6.0850,-0.01171758058,-0.6347242362,-0.762907523,0.1223108893
6.0900,-0.0120977828,-0.6348463588,-0.7628715201,0.12186381
6.0950,-0.01246675206,-0.6349695592,-0.7628353995,0.121410017
6.1000,-0.01282544167,-0.6350961377,-0.7627972692,0.1209492866
6.1050,-0.01317636774,-0.635223984,-0.7627589503,0.1204809414
6.1100,-0.0135174179,-0.6353535325,-0.7627200343,0.1200054891
6.1150,-0.01385082779,-0.6354843864,-0.7626809858,0.1195218102
6.1200,-0.01417311752,-0.6356176168,-0.7626408426,0.1190307234
6.1250,-0.01448576073,-0.6357525751,-0.7625999553,0.118533262
6.1300,-0.01478609562,-0.635889413,-0.7625576892,0.1180330314
6.1350,-0.01507372966,-0.6360273083,-0.7625149227,0.1175288835
6.1400,-0.01534832063,-0.6361666611,-0.7624709656,0.1170232238
6.1450,-0.01560994282,-0.6363091113,-0.7624240292,0.1165188582
6.1500,-0.01585888008,-0.6364523408,-0.7623757279,0.1160179443
6.1550,-0.01609485738,-0.6365980563,-0.762324278,0.1155230085
6.1600,-0.01631827276,-0.6367464791,-0.7622694916,0.1150341578
6.1650,-0.01652963786,-0.6368960533,-0.7622122739,0.1145540832
6.1700,-0.01672869945,-0.6370480335,-0.7621514564,0.11408379
6.1750,-0.01691586137,-0.6372038761,-0.7620859441,0.1136225672
6.1800,-0.017091798,-0.6373624669,-0.7620162249,0.1131734471
6.1850,-0.01725734814,-0.6375239987,-0.7619420082,0.1127373548
6.1900,-0.01741248636,-0.637688773,-0.7618631005,0.1123140698
6.1950,-0.01755886388,-0.637856304,-0.7617795882,0.111905678
6.2000,-0.0176956397,-0.6380270007,-0.761691388,0.1115107178
6.2050,-0.01782459592,-0.6382014695,-0.7615976866,0.1111311473
6.2100,-0.01794851912,-0.6383778058,-0.7615000884,0.1107666155
6.2150,-0.0180681926,-0.6385578695,-0.7613971659,0.1104162284
6.2200,-0.01818472665,-0.6387418959,-0.7612886945,0.1100801063
6.2250,-0.01830019526,-0.6389304598,-0.7611740959,0.1097586724
6.2300,-0.01841696267,-0.639122805,-0.7610543023,0.1094495525
6.2350,-0.01853527364,-0.6393187307,-0.7609292063,0.1091546937
6.2400,-0.01865563173,-0.6395186738,-0.7607982517,0.1088754034
6.2450,-0.01877949585,-0.6397219431,-0.7606619398,0.1086120589
6.2500,-0.01890610337,-0.6399290115,-0.7605198659,0.1083649071
6.2550,-0.01903526858,-0.6401388507,-0.7603724993,0.1081368241
6.2600,-0.01916718972,-0.6403496299,-0.7602212582,0.1079287216
6.2650,-0.01930207543,-0.6405628809,-0.7600649813,0.1077397313
6.2700,-0.01943961124,-0.6407772631,-0.7599046496,0.1075710189
6.2750,-0.01957997909,-0.6409926193,-0.7597404511,0.1074222202
6.2800,-0.01972232685,-0.641209288,-0.7595721843,0.1072929427
6.2850,-0.01986619428,-0.6414259219,-0.7594009082,0.1071838688
6.2900,-0.0200115296,-0.6416440292,-0.7592255884,0.1070933443
6.2950,-0.02015961372,-0.6418624175,-0.7590474324,0.107019729
6.3000,-0.02031059646,-0.6420818716,-0.7588658365,0.106962573
6.3050,-0.02046382726,-0.6423022578,-0.7586811206,0.1069205247
6.3100,-0.02062014137,-0.6425217438,-0.7584951919,0.1068908898
6.3150,-0.02077706477,-0.6427406673,-0.7583080749,0.1068719409
6.3200,-0.02093550713,-0.6429592247,-0.7581196292,0.106863313
6.3250,-0.02109377086,-0.6431756018,-0.7579318389,0.1068621806
6.3300,-0.02125164818,-0.643391032,-0.7577438077,0.1068675314
6.3350,-0.02140838679,-0.6436040705,-0.7575568837,0.1068786669
6.3400,-0.02156231671,-0.6438154515,-0.7573706665,0.1068943611
6.3450,-0.02171333681,-0.6440232398,-0.7571869293,0.1069137584
6.3500,-0.02185789149,-0.6442288918,-0.757004798,0.1069350429
6.3550,-0.02199666707,-0.6444302259,-0.7568258063,0.1069604109
6.3600,-0.02212943224,-0.6446275637,-0.7566497595,0.1069894093
6.3650,-0.02225616988,-0.6448216714,-0.7564758905,0.1070229045
6.3700,-0.02237646013,-0.6450110684,-0.756305875,0.1070581109
6.3750,-0.02249117801,-0.6451959333,-0.7561391737,0.1070976401
6.3800,-0.02259817957,-0.6453753865,-0.7559768384,0.1071398738
6.3850,-0.02269712391,-0.6455505093,-0.7558179304,0.1071850578
6.3900,-0.02278935808,-0.6457207506,-0.7556627995,0.1072338139
6.3950,-0.02287416159,-0.6458857826,-0.7555117154,0.1072864226
6.4000,-0.02295221961,-0.6460444852,-0.7553655164,0.1073436322
6.4050,-0.02302247058,-0.6461983994,-0.7552231057,0.1074041667
6.4100,-0.02308708068,-0.6463484131,-0.7550838315,0.1074668459
6.4150,-0.02314678283,-0.6464940565,-0.7549478901,0.1075329934
6.4200,-0.02320374329,-0.6466356261,-0.7548150184,0.1076022364
6.4250,-0.02325763005,-0.6467740342,-0.7546846838,0.1076729278
6.4300,-0.02330898431,-0.6469095732,-0.7545566093,0.1077451564
6.4350,-0.0233579257,-0.6470419625,-0.7544311881,0.1078178484
6.4400,-0.02340438423,-0.6471723773,-0.7543071578,0.1078928196
6.4450,-0.02344822282,-0.6472995146,-0.754185817,0.1079688504
6.4500,-0.02348968549,-0.647424832,-0.7540661344,0.1080443727
6.4550,-0.02352836223,-0.6475479982,-0.7539483091,0.1081200877
6.4600,-0.02356386178,-0.6476702921,-0.7538312568,0.1081959958
6.4650,-0.02359420066,-0.6477925016,-0.7537144454,0.1082715257
6.4700,-0.02362190035,-0.6479132193,-0.7535990714,0.1083462307
6.4750,-0.02364479079,-0.64803272,-0.7534849823,0.1084200129
6.4800,-0.02366282153,-0.6481517844,-0.753371661,0.1084918231
6.4850,-0.0236753893,-0.6482702064,-0.7532595784,0.1085597669
6.4900,-0.02368394132,-0.6483884721,-0.7531479963,0.1086257609
6.4950,-0.02368734807,-0.6485068973,-0.7530369385,0.1086880077
6.5000,-0.02368803352,-0.6486250091,-0.7529266751,0.1087469384
6.5050,-0.02368530821,-0.6487435572,-0.7528166729,0.1088019312
6.5100,-0.02367797435,-0.6488637268,-0.7527059523,0.1088529605
6.5150,-0.02366711844,-0.6489852798,-0.7525948314,0.1088990073
6.5200,-0.02365426789,-0.6491078935,-0.7524836019,0.1089396489
6.5250,-0.02363894797,-0.6492323953,-0.7523718452,0.1089729485
6.5300,-0.0236199346,-0.649359194,-0.7522594856,0.1089972577
6.5350,-0.02359795425,-0.6494897555,-0.7521454469,0.1090111039
6.5400,-0.02357429799,-0.6496226046,-0.752030931,0.1090146913
6.5450,-0.02354609423,-0.6497593471,-0.7519150056,0.1090054888
6.5500,-0.02351359698,-0.6498988939,-0.751798243,0.1089859636
6.5550,-0.02347650732,-0.6500418788,-0.7516806724,0.1089521734
6.5600,-0.02343518553,-0.6501905797,-0.7515601803,0.1089049934
6.5650,-0.02338964958,-0.6503429156,-0.7514385094,0.1088447656
6.5700,-0.02334048603,-0.6505001729,-0.7513146639,0.1087705039
6.5750,-0.02328644151,-0.6506612396,-0.751189486,0.1086832509
6.5800,-0.02322689321,-0.6508262048,-0.7510629665,0.108582609
6.5850,-0.02316305233,-0.6509969978,-0.7509331641,0.1084701104
6.5900,-0.02309572044,-0.6511711317,-0.750801811,0.1083484451
6.5950,-0.02302483639,-0.651349119,-0.7506685965,0.1082166358
6.6000,-0.02295000309,-0.6515306285,-0.7505335752,0.108076316
6.6050,-0.02287098187,-0.651715856,-0.7503964505,0.1079283479
6.6100,-0.02278808009,-0.6519054107,-0.7502563379,0.107775073
6.6150,-0.0227037983,-0.6520978069,-0.7501143783,0.1076169472
6.6200,-0.02261805849,-0.6522933827,-0.7499704138,0.1074529883
6.6250,-0.02253290432,-0.6524920568,-0.749824006,0.1072862713
6.6300,-0.02244897492,-0.6526923044,-0.7496763565,0.1071175047
6.6350,-0.02237048398,-0.6528941513,-0.7495271371,0.1069479287
6.6400,-0.02229853883,-0.6530954732,-0.7493778814,0.1067795344
6.6450,-0.02223476141,-0.6532970364,-0.7492279182,0.1066120268
6.6500,-0.02218216418,-0.6534989083,-0.7490768308,0.1064473104
6.6550,-0.02214218769,-0.653701023,-0.7489250023,0.106282816
6.6600,-0.02211610768,-0.6539030336,-0.7487725327,0.1061197187
6.6650,-0.02210511119,-0.6541041696,-0.7486200448,0.1059581425
6.6700,-0.0221082767,-0.6543039419,-0.7484675429,0.1058012901
6.6750,-0.022123409,-0.6545022839,-0.7483151548,0.105649156
6.6800,-0.02215284088,-0.6546981906,-0.7481631954,0.1055052792
6.6850,-0.02219520983,-0.6548913511,-0.7480115472,0.1053727483
6.6900,-0.02224990353,-0.6550801919,-0.7478615142,0.1052522664
6.6950,-0.02231688552,-0.6552653079,-0.7477126283,0.1051435131
6.7000,-0.02239731168,-0.6554469893,-0.7475646624,0.1050460857
6.7050,-0.02249092626,-0.6556264056,-0.7474165231,0.1049605422
6.7100,-0.02259933542,-0.6558020712,-0.7472693127,0.1048879768
6.7150,-0.0227205367,-0.6559749858,-0.7471225249,0.1048261798
6.7200,-0.02285462001,-0.6561452795,-0.746975933,0.104775923
6.7250,-0.02300111766,-0.6563136462,-0.746828786,0.1047382968
6.7300,-0.02315914159,-0.6564798808,-0.7466814913,0.1047118465
6.7350,-0.02333044922,-0.65664502,-0.7465327936,0.1046985957
6.7400,-0.02351388284,-0.6568077336,-0.7463841826,0.1046964677
6.7450,-0.02370987049,-0.6569697461,-0.746234198,0.1047049016
6.7500,-0.02391790328,-0.6571305497,-0.7460832727,0.1047240406
6.7550,-0.02413832761,-0.6572893292,-0.7459319591,0.1047549103
6.7600,-0.02436933232,-0.6574449518,-0.7457813574,0.1047971279
6.7650,-0.02461326996,-0.6575982614,-0.7456306577,0.1048505406
6.7700,-0.02486686988,-0.6577490043,-0.7454801338,0.1049154719
6.7750,-0.02513248681,-0.6578967813,-0.7453300509,0.1049918969
6.7800,-0.02540867084,-0.6580412672,-0.7451806924,0.1050800921
6.7850,-0.02569698439,-0.6581814757,-0.7450328029,0.1051804766
6.7900,-0.02599653854,-0.6583178301,-0.7448862844,0.1052912057
6.7950,-0.02630889769,-0.6584499903,-0.7447414015,0.1054120349
6.8000,-0.02663289543,-0.6585772544,-0.7445990432,0.1055412419
6.8050,-0.02696670036,-0.658699443,-0.7444595867,0.1056776453
6.8100,-0.02731037876,-0.658815821,-0.7443237179,0.105820887
6.8150,-0.02766249546,-0.6589273367,-0.744190736,0.1059702772
6.8200,-0.02802219463,-0.659034093,-0.7440609033,0.1061234799
6.8250,-0.02838798024,-0.6591361746,-0.7439341074,0.1062810886
6.8300,-0.02875748154,-0.6592338547,-0.7438102499,0.1064426802
6.8350,-0.02913213792,-0.6593268029,-0.7436895394,0.1066084167
6.8400,-0.0295085884,-0.6594163438,-0.7435713157,0.1067755926
6.8450,-0.02988622763,-0.6595024763,-0.7434556104,0.1069441563
6.8500,-0.0302658135,-0.6595872318,-0.7433411112,0.1071104875
6.8550,-0.03064468899,-0.6596706932,-0.7432278352,0.1072747154
6.8600,-0.03102218616,-0.6597526956,-0.7431163803,0.1074339328
6.8650,-0.03139708026,-0.6598346646,-0.7430058791,0.1075857913
6.8700,-0.03176895375,-0.6599171463,-0.7428959362,0.1077298544
6.8750,-0.03213729159,-0.6600007301,-0.7427861547,0.1078654678
6.8800,-0.03250186752,-0.6600853926,-0.7426767715,0.107991278
6.8850,-0.03286102162,-0.6601717161,-0.7425676265,0.1081054054
6.8900,-0.03321429988,-0.6602606856,-0.7424581282,0.1082061234
6.8950,-0.03356098047,-0.6603524538,-0.7423480689,0.1082942383
6.9000,-0.03390314585,-0.6604461206,-0.7422382713,0.1083690322
6.9050,-0.03424192675,-0.6605424485,-0.7421281445,0.1084296149
6.9100,-0.0345773704,-0.6606405002,-0.7420187012,0.1084747995
6.9150,-0.03490901252,-0.6607407897,-0.7419093615,0.1085056172
6.9200,-0.03524021344,-0.6608426075,-0.7418005189,0.1085226502
6.9250,-0.03557040506,-0.6609458758,-0.7416923168,0.1085255858
6.9300,-0.03589985462,-0.6610496268,-0.7415858637,0.1085126631
6.9350,-0.03623034794,-0.6611547978,-0.7414802571,0.1084837478
6.9400,-0.03656108477,-0.6612618887,-0.7413753026,0.108437366
6.9450,-0.03689310931,-0.6613696766,-0.7412721318,0.108372856
6.9500,-0.03722577336,-0.6614777249,-0.7411708647,0.1082922461
6.9550,-0.03755857555,-0.6615847334,-0.7410726479,0.1081957693
6.9600,-0.03789148464,-0.6616908782,-0.7409773036,0.1080835447
6.9650,-0.03822365942,-0.661795792,-0.7408851325,0.107956019
6.9700,-0.03855754488,-0.6618992842,-0.7407964946,0.1078109778
6.9750,-0.03889438809,-0.6620010635,-0.7407117494,0.1076472146
6.9800,-0.03923191522,-0.6621024261,-0.7406300289,0.1074634564
6.9850,-0.03956989795,-0.6622016019,-0.740553132,0.1072581947
6.9900,-0.03990730544,-0.6622993048,-0.7404805698,0.1070306664
6.9950,-0.04024128613,-0.6623955543,-0.7404120929,0.1067834313
7.0000,-0.04056937675,-0.6624900835,-0.740348034,0.1065166816
7.0050,-0.0408902246,-0.6625807347,-0.7402900198,0.1062329805
7.0100,-0.04120017086,-0.6626673804,-0.7402384012,0.1059320459
7.0150,-0.04149859611,-0.6627512062,-0.7401918434,0.1056160035
7.0200,-0.04178385356,-0.6628292351,-0.7401529257,0.1052860926
7.0250,-0.04205682394,-0.6629021954,-0.7401207784,0.1049434909
7.0300,-0.04231704733,-0.6629690082,-0.7400959568,0.104591283
7.0350,-0.04256393607,-0.6630299381,-0.7400781076,0.1042305487
7.0400,-0.04279820186,-0.6630843725,-0.740067249,0.1038647957
7.0450,-0.04301961317,-0.6631311885,-0.7400639018,0.1034976375
7.0500,-0.04322811413,-0.6631698317,-0.740068178,0.1031319364
7.0550,-0.04342470187,-0.6632000478,-0.7400802933,0.1027674624
7.0600,-0.04361217074,-0.6632215877,-0.7400996942,0.1024087242
7.0650,-0.04378783335,-0.6632336048,-0.740127181,0.1020566853
7.0700,-0.04395375752,-0.6632370337,-0.7401613251,0.1017148819
7.0750,-0.04411002304,-0.6632299191,-0.7402037318,0.1013844947
7.0800,-0.0442573709,-0.6632123752,-0.7402540352,0.1010672744
7.0850,-0.04439394971,-0.663185623,-0.7403108669,0.1007661993
7.0900,-0.04451985045,-0.6631479832,-0.7403752538,0.1004849182
7.0950,-0.04463303709,-0.6631007151,-0.7404458933,0.1002258092
7.1000,-0.04473303123,-0.6630430433,-0.7405233361,0.09999033686
7.1050,-0.04481845278,-0.6629747712,-0.7406076796,0.09977987758
7.1100,-0.04488998507,-0.6628967868,-0.7406979502,0.09959561208
7.1150,-0.04494741305,-0.6628084245,-0.7407946421,0.09943852725
7.1200,-0.04499085129,-0.6627108497,-0.7408967184,0.0993086387
7.1250,-0.04502078114,-0.6626036312,-0.7410046661,0.09920505026
7.1300,-0.04503878257,-0.6624867915,-0.7411182697,0.09912855017
7.1350,-0.04504434187,-0.662361872,-0.7412364172,0.09907740245
7.1400,-0.0450379608,-0.6622296585,-0.7413583858,0.09905152798
7.1450,-0.04502204856,-0.6620899523,-0.7414840639,0.09905197207
7.1500,-0.04499679338,-0.6619434515,-0.7416131284,0.09907635154
7.1550,-0.0449639289,-0.6617917251,-0.7417439591,0.09912546007
7.1600,-0.04492370852,-0.66163445,-0.7418769465,0.0991983425
7.1650,-0.04487769346,-0.6614744751,-0.7420093906,0.09929539563
7.1700,-0.04482559248,-0.661311128,-0.7421419759,0.09941602425
7.1750,-0.04476848781,-0.6611459839,-0.7422735911,0.09955745289
7.1800,-0.04470833109,-0.6609810742,-0.7424023907,0.09971898047
7.1850,-0.04464606789,-0.6608159442,-0.7425290338,0.09989820026
7.1900,-0.04458381445,-0.660652645,-0.7426517618,0.1000935905
7.1950,-0.04452037638,-0.6604924381,-0.7427698417,0.1003027294
7.2000,-0.0444531342,-0.6603366368,-0.7428826872,0.1005224248
7.2050,-0.04438265486,-0.6601862996,-0.7429895342,0.1007510882
7.2100,-0.044308449,-0.6600438379,-0.7430888316,0.1009845616
7.2150,-0.04422799619,-0.6599091867,-0.7431810291,0.101221083
7.2200,-0.04413846102,-0.6597839809,-0.7432652253,0.1014578714
7.2250,-0.04403956128,-0.6596685402,-0.7433414512,0.1016927777
7.2300,-0.04392806548,-0.6595651737,-0.7434079705,0.1019249536
7.2350,-0.04379841874,-0.6594733736,-0.7434656057,0.1021541047
7.2400,-0.04364942597,-0.6593940578,-0.7435137628,0.1023791418
7.2450,-0.04347756155,-0.6593279938,-0.7435519101,0.1026004636
7.2500,-0.04328137904,-0.6592743437,-0.7435812421,0.1028153606
7.2550,-0.04305918637,-0.6592342114,-0.7436010219,0.1030227221
7.2600,-0.0428102488,-0.6592071777,-0.7436114171,0.1032242212
7.2650,-0.04253367963,-0.6591924526,-0.7436133815,0.1034182546
7.2700,-0.04222794508,-0.6591900891,-0.743606969,0.1036045499
7.2750,-0.04189492552,-0.6591987736,-0.7435930904,0.1037839484
7.2800,-0.04153624568,-0.6592171624,-0.7435727485,0.1039569181
7.2850,-0.04115502309,-0.6592455059,-0.7435456739,0.1041223213
7.2900,-0.04075095599,-0.6592822568,-0.7435129229,0.1042823035
7.2950,-0.04033025136,-0.6593275125,-0.7434741294,0.1044362051
7.3000,-0.03989285636,-0.6593791787,-0.7434309933,0.1045849746
7.3050,-0.03944322371,-0.6594375221,-0.7433831514,0.1047276319
7.3100,-0.03898569708,-0.6595019509,-0.7433306324,0.1048659295
7.3150,-0.03852317819,-0.6595703801,-0.7432749618,0.105000998
7.3200,-0.03805597471,-0.659643039,-0.7432158217,0.1051334694
7.3250,-0.03758577781,-0.6597191877,-0.7431537834,0.1052632744
7.3300,-0.03711614608,-0.6597974406,-0.7430897564,0.1053913803
7.3350,-0.03664729319,-0.6598778714,-0.743023936,0.1055158819
7.3400,-0.03618061304,-0.6599587321,-0.7429577256,0.1056373659
7.3450,-0.03571609596,-0.6600405746,-0.7428906679,0.1057556427
7.3500,-0.03525233732,-0.6601228444,-0.7428231954,0.1058716358
7.3550,-0.03478754807,-0.6602059072,-0.7427546212,0.1059884866
7.3600,-0.03432155632,-0.6602888597,-0.7426857431,0.1061062654
7.3650,-0.03385396852,-0.6603706058,-0.7426172126,0.1062273381
7.3700,-0.03338351898,-0.6604502685,-0.7425496229,0.1063533778
7.3750,-0.03290949842,-0.660528367,-0.7424820256,0.1064879477
7.3800,-0.03243157954,-0.6606041888,-0.7424149555,0.1066317598
7.3850,-0.03194854739,-0.6606765468,-0.7423494181,0.1067854497
7.3900,-0.03146123873,-0.6607454447,-0.7422853145,0.106949332
7.3950,-0.03097123236,-0.6608098193,-0.7422234178,0.1071240569
7.4000,-0.0304793157,-0.6608702835,-0.7421630435,0.1073102816
7.4050,-0.02998893698,-0.6609264277,-0.7421042866,0.1075088307
7.4100,-0.02949807701,-0.6609785768,-0.7420468861,0.1077200229
7.4150,-0.02900831664,-0.6610259137,-0.741991276,0.1079453812
7.4200,-0.02852090159,-0.6610676546,-0.7419379224,0.108186106
7.4250,-0.02803639142,-0.6611047138,-0.7418857471,0.1084437939
7.4300,-0.02755325484,-0.6611380823,-0.7418336813,0.1087200236
7.4350,-0.02707294661,-0.6611656571,-0.7417834845,0.1090150978
7.4400,-0.02659574179,-0.661190155,-0.7417326145,0.109329658
7.4450,-0.02612180986,-0.6612119595,-0.7416811006,0.1096610263
7.4500,-0.02565017513,-0.6612314386,-0.7416281496,0.1100124576
7.4550,-0.02518329184,-0.6612484588,-0.7415742694,0.1103806166
7.4600,-0.02471994123,-0.6612652124,-0.7415174771,0.1107658547
7.4650,-0.0242609519,-0.6612803573,-0.7414593486,0.111165326
7.4700,-0.02380599068,-0.6612956677,-0.7413985728,0.1115771969
7.4750,-0.02335676639,-0.6613110923,-0.7413352489,0.1120006669
7.4800,-0.022912015,-0.661325941,-0.741270119,0.1124350927
7.4850,-0.02247040291,-0.6613416221,-0.7412020487,0.1128798603
7.4900,-0.02202862004,-0.6613577739,-0.7411313898,0.1133353335
7.4950,-0.02158776731,-0.6613737587,-0.741058554,0.1138021932
7.5000,-0.02114592383,-0.6613905313,-0.740982628,0.114281057
7.5050,-0.02070204318,-0.6614066446,-0.7409047121,0.1147731831
7.5100,-0.02025315883,-0.6614206268,-0.7408259994,0.1152796713
7.5150,-0.01979993849,-0.6614335882,-0.740745215,0.1158019749
7.5200,-0.01934237682,-0.6614439532,-0.7406637654,0.1163398296
7.5250,-0.01887985551,-0.6614518449,-0.74058156,0.1168929468
7.5300,-0.01841455366,-0.6614556691,-0.7405000207,0.1174607226
7.5350,-0.01794968338,-0.6614560596,-0.7404187103,0.1180416174
7.5400,-0.0174863421,-0.6614522716,-0.7403387053,0.1186327179
7.5450,-0.01702675632,-0.661443805,-0.7402604902,0.1192333385
7.5500,-0.01657299304,-0.6614313157,-0.7401835519,0.1198426472
7.5550,-0.01612776883,-0.6614132085,-0.7401092968,0.1204603312
7.5600,-0.01569003137,-0.6613899348,-0.7400378539,0.1210832434
7.5650,-0.01526136378,-0.6613610168,-0.7399695642,0.1217117094
7.5700,-0.01484182172,-0.6613266155,-0.7399043335,0.1223454343
7.5750,-0.01442948447,-0.6612864797,-0.7398426559,0.1229830325
7.5800,-0.01402439568,-0.6612404567,-0.7397849608,0.123622759
7.5850,-0.01362515982,-0.6611887328,-0.7397311338,0.1242644931
7.5900,-0.01323385774,-0.6611322802,-0.7396805968,0.1249063162
7.5950,-0.01284900041,-0.6610701009,-0.7396348485,0.1255448753
7.6000,-0.01247203778,-0.6610026396,-0.7395937118,0.126178842
7.6050,-0.01210335375,-0.6609298151,-0.7395574709,0.12680708
7.6100,-0.0117411641,-0.660851127,-0.7395269396,0.1274277779
7.6150,-0.01138598024,-0.6607667734,-0.7395023547,0.1280386584
7.6200,-0.01103967379,-0.6606774866,-0.7394833379,0.1286381643
7.6250,-0.01070151534,-0.6605827218,-0.7394703491,0.129226731
7.6300,-0.0103705017,-0.6604829593,-0.7394634721,0.1298017202
7.6350,-0.01004566484,-0.6603779919,-0.7394623014,0.1303667794
7.6400,-0.009724820523,-0.6602689739,-0.7394663123,0.1309193759
7.6450,-0.009408973401,-0.6601549659,-0.7394760742,0.1314611266
7.6500,-0.00909858195,-0.6600369302,-0.7394907564,0.131991999
7.6550,-0.008794737132,-0.6599132135,-0.7395119436,0.1325114653
7.6600,-0.008496037823,-0.6597859001,-0.7395377975,0.1330196585
7.6650,-0.008203073804,-0.6596550558,-0.7395683204,0.1335163527
7.6700,-0.00791445094,-0.6595217824,-0.7396025687,0.1340015687
7.6750,-0.007629637388,-0.6593857031,-0.7396409712,0.1344749674
7.6800,-0.007347561983,-0.6592474577,-0.7396830685,0.1349361371
7.6850,-0.007069587367,-0.6591080277,-0.7397277852,0.1353862347
7.6900,-0.006793858233,-0.6589685398,-0.7397741417,0.1358253521
7.6950,-0.006519961809,-0.6588300977,-0.73982122,0.1362532752
7.7000,-0.006246456372,-0.6586929511,-0.739868467,0.1366719777
7.7050,-0.005970796151,-0.6585581718,-0.7399150068,0.1370812409
7.7100,-0.005693629085,-0.6584250675,-0.739961457,0.1374811088
7.7150,-0.005413666018,-0.6582957008,-0.7400061654,0.1378707279
7.7200,-0.005130384085,-0.6581696035,-0.740049259,0.13825175
7.7250,-0.004843883318,-0.6580467584,-0.7400911641,0.1386220378
7.7300,-0.004555586514,-0.657926897,-0.7401323031,0.1389806419
7.7350,-0.004264072743,-0.6578119244,-0.7401713433,0.1393257777
7.7400,-0.003968611659,-0.6577002035,-0.7402096677,0.1396579404
7.7450,-0.003670716372,-0.6575915096,-0.7402471714,0.1399787756
7.7500,-0.003370492324,-0.6574863265,-0.7402835353,0.1402877668
7.7550,-0.003068602334,-0.6573836194,-0.7403189959,0.1405885661
7.7600,-0.002766212472,-0.657283322,-0.7403537101,0.1408806826
7.7650,-0.002461435767,-0.6571844458,-0.7403879532,0.1411673629
7.7700,-0.002155964513,-0.6570876409,-0.7404207102,0.1414508959
7.7750,-0.001847274258,-0.6569932142,-0.7404515099,0.1417323727
7.7800,-0.001534364973,-0.6569002009,-0.740480706,0.1420144216
7.7850,-0.001217695258,-0.6568083724,-0.7405082775,0.1422981734
7.7900,-0.0008987154848,-0.6567158838,-0.7405356405,0.1425847304
7.7950,-0.000577209861,-0.6566239578,-0.7405620023,0.1428725504
7.8000,-0.0002550248171,-0.6565314097,-0.7405883371,0.143161999
7.8050,6.611298672e-5,-0.6564389271,-0.7406142418,0.1434519974
7.8100,0.0003833865881,-0.6563463436,-0.7406396833,0.1437434861
7.8150,0.0006965581057,-0.6562538381,-0.7406648782,0.1440345548
7.8200,0.001004918939,-0.6561617815,-0.7406892889,0.1443263108
7.8250,0.001308170834,-0.6560689816,-0.7407140471,0.1446183961
7.8300,0.001607138142,-0.6559769228,-0.7407379529,0.1449102445
7.8350,0.001902206582,-0.6558842769,-0.7407621273,0.1452021612
7.8400,0.002194369604,-0.6557909965,-0.7407870524,0.1454919123
7.8450,0.002483714532,-0.6556968553,-0.7408132111,0.1457780895
7.8500,0.002772991122,-0.6556003229,-0.7408419821,0.1460605514
7.8550,0.003063536526,-0.6555026018,-0.7408725629,0.1463379624
7.8600,0.003354729007,-0.6554021161,-0.7409064753,0.146609709
7.8650,0.00364913017,-0.6552984107,-0.7409443938,0.1468743752
7.8700,0.003945790518,-0.6551908187,-0.7409868627,0.1471322234
7.8750,0.004245894563,-0.6550785108,-0.7410351382,0.1473805994
7.8800,0.004549091587,-0.6549624199,-0.7410882017,0.1476204983
7.8850,0.004854470994,-0.6548404087,-0.741148023,0.1478515513
7.8900,0.005162063852,-0.6547121667,-0.7412152791,0.148071746
7.8950,0.00547128964,-0.6545769028,-0.7412901845,0.1482835313
7.9000,0.005781531494,-0.6544354375,-0.7413723009,0.1484854991
7.9050,0.006092545987,-0.6542865298,-0.7414631011,0.14867578
7.9100,0.006402986189,-0.6541308613,-0.7415617887,0.1488554053
7.9150,0.006713378976,-0.6539676365,-0.7416690374,0.1490244941
7.9200,0.007020541636,-0.6537972654,-0.7417845579,0.1491828318
7.9250,0.007326293415,-0.6536182314,-0.7419099499,0.1493290301
7.9300,0.007630308045,-0.6534310339,-0.7420446156,0.1494638777
7.9350,0.007932719057,-0.6532358222,-0.7421884891,0.1495870288
7.9400,0.0082321048,-0.6530323825,-0.7423410824,0.1497018942
7.9450,0.008528316064,-0.6528220555,-0.7425017838,0.1498056497
7.9500,0.008820679445,-0.6526033382,-0.7426714532,0.1499006041
7.9550,0.009110850762,-0.6523789888,-0.7428477518,0.149986216
7.9600,0.009397007582,-0.6521473323,-0.7430319761,0.1500634391
7.9650,0.009679511938,-0.6519099042,-0.743222508,0.1501335655
7.9700,0.00995877516,-0.6516661082,-0.7434196058,0.150197856
7.9750,0.0102352115,-0.6514170508,-0.7436221853,0.15025682
7.9800,0.010508161,-0.6511641662,-0.7438285046,0.1503128836
7.9850,0.01077685081,-0.6509070786,-0.7440388842,0.1503661309
7.9900,0.01104126391,-0.6506458002,-0.7442532268,0.1504169791
7.9950,0.01130266396,-0.6503802791,-0.7444714054,0.150466172
8.0000,0.0115605013,-0.6501113995,-0.7446922432,0.1505157332
8.0050,0.01181434962,-0.6498384265,-0.7449162425,0.1505663718
8.0100,0.01206205377,-0.6495627922,-0.7451418767,0.1506196181
8.0150,0.01230417067,-0.6492834803,-0.7453695333,0.1506778964
8.0200,0.01253909017,-0.649002093,-0.745598184,0.150739519
8.0250,0.01276547731,-0.6487183692,-0.7458273557,0.1508080748
8.0300,0.01298105146,-0.648432699,-0.7460571201,0.1508817444
8.0350,0.01318352268,-0.6481447986,-0.7462873249,0.1509627221
8.0400,0.01337083172,-0.6478552396,-0.7465177166,0.1510500191
8.0450,0.01354164132,-0.647563916,-0.7467485404,0.1511430317
8.0500,0.0136944085,-0.64727014,-0.7469806607,0.1512406084
8.0550,0.01382997006,-0.6469744685,-0.7472142008,0.1513397077
8.0600,0.01394745562,-0.6466769928,-0.7474489558,0.1514410577
8.0650,0.01404574745,-0.6463773971,-0.7476854842,0.151543374
8.0700,0.01412504292,-0.6460741829,-0.7479251751,0.1516461863
8.0750,0.01418476914,-0.6457675433,-0.7481679562,0.1517490747
8.0800,0.01422247789,-0.6454583345,-0.7484133808,0.1518508185
8.0850,0.01423982341,-0.6451448475,-0.74866269,0.1519523932
8.0900,0.01423817979,-0.6448290795,-0.7489143025,0.152052951
8.0950,0.01421781402,-0.6445091688,-0.7491692704,0.1521551491
8.1000,0.01418270583,-0.6441851076,-0.749427129,0.1522608827
8.1050,0.01413535052,-0.6438570057,-0.7496874155,0.1523716743
8.1100,0.01407781043,-0.6435247805,-0.7499503463,0.1524865575
8.1150,0.01401062021,-0.6431882118,-0.750215964,0.1526061407
8.1200,0.01393589833,-0.6428467243,-0.7504847372,0.1527302817
8.1250,0.01385480646,-0.6425027,-0.7507549753,0.1528570965
8.1300,0.01376896719,-0.6421538226,-0.7510283741,0.1529877935
8.1350,0.01367802573,-0.6418015058,-0.7513042054,0.1531199846
8.1400,0.01358356949,-0.6414449786,-0.7515826074,0.1532560285
8.1450,0.01348462108,-0.6410854796,-0.7518625497,0.1533958252
8.1500,0.01337958021,-0.640723338,-0.7521440997,0.1535377617
8.1550,0.01326877741,-0.6403583529,-0.7524276293,0.1536807795
8.1600,0.0131538933,-0.6399908448,-0.7527131102,0.1538234943
8.1650,0.01303284635,-0.639621555,-0.7530000971,0.1539651421
8.1700,0.01290857655,-0.6392500428,-0.7532896074,0.1541022996
8.1750,0.01277767788,-0.6388774183,-0.7535805475,0.154235968
8.1800,0.01264217793,-0.6385015744,-0.7538747645,0.1543656515
8.1850,0.01250204215,-0.6381238799,-0.7541712478,0.1544905881
8.1900,0.01235855605,-0.6377440955,-0.7544697491,0.1546128472
8.1950,0.0122130045,-0.6373625835,-0.7547703554,0.1547303795
8.2000,0.0120655027,-0.6369787315,-0.7550735092,0.1548435177
8.2050,0.01191819247,-0.6365933156,-0.755377864,0.1549554445
8.2100,0.01177273046,-0.6362049485,-0.755684836,0.1550648089
8.2150,0.01162921943,-0.6358151507,-0.7559929902,0.1551723374
8.2200,0.01148886159,-0.6354239603,-0.7563022023,0.1552783809
8.2250,0.01134832051,-0.635032444,-0.7566114215,0.155383936
8.2300,0.01120738539,-0.6346409092,-0.7569208021,0.1554870101
8.2350,0.01106428014,-0.6342494021,-0.7572304196,0.1555871755
8.2400,0.01091981507,-0.6338575764,-0.7575406457,0.1556839765
8.2450,0.01077412335,-0.6334651199,-0.757851394,0.1557790893
8.2500,0.01062737208,-0.63307327,-0.7581617831,0.1558717563
8.2550,0.01047805737,-0.63268011,-0.7584730743,0.1559637273
8.2600,0.01032730866,-0.6322858655,-0.7587854271,0.1560532174
8.2650,0.01017522732,-0.6318915857,-0.7590980499,0.1561398072
8.2700,0.01002100223,-0.631496367,-0.7594120458,0.1562218378
8.2750,0.009864925094,-0.6311016744,-0.75972603,0.1563000935
8.2800,0.009705939348,-0.6307065301,-0.7600410182,0.1563736495
8.2850,0.009546130205,-0.6303109886,-0.7603565283,0.1564444918
8.2900,0.009385880982,-0.629916091,-0.7606715626,0.1565132497
8.2950,0.009222108769,-0.629520703,-0.7609863481,0.1565835729
8.3000,0.009055620103,-0.6291245184,-0.7613015116,0.156653581
8.3050,0.008886266532,-0.6287291796,-0.7616147626,0.1567278097
8.3100,0.00871446845,-0.62833334,-0.7619267657,0.1568084039
8.3150,0.008541236963,-0.6279376436,-0.7622368457,0.1568959975
8.3200,0.008369980372,-0.6275406357,-0.7625454783,0.156993909
8.3250,0.00820160243,-0.6271422338,-0.7628530207,0.1571006719
8.3300,0.008038304221,-0.6267421346,-0.7631588522,0.1572203824
8.3350,0.007879637267,-0.6263406135,-0.7634626993,0.1573532778
8.3400,0.007724956073,-0.6259384557,-0.7637637422,0.157500225
8.3450,0.007573919052,-0.6255367371,-0.764061468,0.1576594413
8.3500,0.007424904539,-0.6251357915,-0.7643556705,0.1578306752
8.3550,0.007275011193,-0.6247368364,-0.7646452282,0.1580146655
8.3600,0.007123187361,-0.6243376102,-0.764932573,0.1582086204
8.3650,0.006966281354,-0.6239407481,-0.7652159596,0.1584106972
8.3700,0.006803069429,-0.6235454885,-0.7654964614,0.1586187554
8.3750,0.006632213542,-0.6231510179,-0.7657745142,0.1588339259
8.3800,0.006453481905,-0.6227568751,-0.7660505655,0.1590558335
8.3850,0.006264961851,-0.6223639062,-0.7663238013,0.1592851219
8.3900,0.006065763283,-0.6219710697,-0.7665952291,0.1595210008
8.3950,0.005856390279,-0.621577885,-0.7668654872,0.1597621989
8.4000,0.005635735666,-0.6211844556,-0.7671346629,0.1600078734
8.4050,0.005404138843,-0.6207906822,-0.7674035258,0.1602546498
8.4100,0.005159768941,-0.6203967223,-0.7676720608,0.1605019961
8.4150,0.004902192562,-0.6200014777,-0.7679411403,0.1607499338
8.4200,0.004632413488,-0.6196053887,-0.7682104135,0.160998334
8.4250,0.004350896772,-0.6192068594,-0.7684805322,0.1612501367
8.4300,0.004057185969,-0.6188068431,-0.7687507072,0.161505357
8.4350,0.003752929196,-0.6184055694,-0.7690205643,0.1617647644
8.4400,0.003435320831,-0.6180040211,-0.7692896568,0.1620267031
8.4450,0.003103226076,-0.6176019938,-0.7695584497,0.1622896786
8.4500,0.0027556761,-0.6171999784,-0.7698271126,0.1625509445
8.4550,0.002391732343,-0.6167980512,-0.7700957196,0.1628097853
8.4600,0.00200951629,-0.6163969207,-0.7703638911,0.1630652425
8.4650,0.001608648799,-0.6159963865,-0.770632326,0.163314672
8.4700,0.001186142909,-0.6155949598,-0.7709025941,0.1635561954
8.4750,0.0007416246207,-0.6151922243,-0.7711750975,0.1637893345
8.4800,0.0002738696325,-0.6147883944,-0.7714507315,0.1640089146
8.4850,-0.0002171332825,-0.6143827567,-0.771730612,0.1642121909
8.4900,-0.0007330683553,-0.6139752624,-0.7720154551,0.1643957931
8.4950,-0.0012732368,-0.6135657217,-0.7723052488,0.1645602831
8.5000,-0.00183779571,-0.6131531935,-0.7726006997,0.1647056241
8.5050,-0.002425863106,-0.612736326,-0.7729033534,0.1648293551
8.5100,-0.003036513311,-0.6123155923,-0.7732126039,0.1649323021
8.5150,-0.003665666453,-0.6118886475,-0.7735295909,0.1650176291
8.5200,-0.004308267487,-0.6114536088,-0.7738548576,0.1650896193
8.5250,-0.004954864313,-0.6110103759,-0.7741876753,0.1651520916
8.5300,-0.005601879562,-0.6105587966,-0.774526927,0.1652108174
8.5350,-0.006243613673,-0.6100981218,-0.7748724772,0.165269305
8.5400,-0.006879022089,-0.6096297224,-0.7752229936,0.1653287358
8.5450,-0.007504320132,-0.6091537521,-0.7755775909,0.1653928414
8.5500,-0.008117668051,-0.6086719223,-0.7759346909,0.1654628356
8.5550,-0.008717212852,-0.6081862314,-0.7762926863,0.1655390688
8.5600,-0.009302230767,-0.6076981801,-0.7766504922,0.1656212649
8.5650,-0.009872607686,-0.6072078818,-0.7770074182,0.1657123771
8.5700,-0.0104283034,-0.6067180071,-0.7773613495,0.1658126735
8.5750,-0.0109684675,-0.6062269214,-0.7777133317,0.1659234347
8.5800,-0.01149161175,-0.6057340947,-0.7780634805,0.1660462881
8.5850,-0.01200005672,-0.6052411042,-0.7784110734,0.1661788351
8.5900,-0.0124958722,-0.6047481959,-0.7787558616,0.1663213179
8.5950,-0.0129769219,-0.6042573018,-0.7790973011,0.1664695413
8.6000,-0.01344513059,-0.6037690279,-0.7794351467,0.166622452
8.6050,-0.01390164067,-0.6032832454,-0.7797703513,0.1667761057
8.6100,-0.01434647212,-0.6027991756,-0.7801036845,0.1669298476
8.6150,-0.01478101667,-0.6023165696,-0.7804357127,0.1670819254
8.6200,-0.01520687078,-0.6018358492,-0.7807662221,0.1672317797
8.6250,-0.01562300351,-0.6013559471,-0.7810957601,0.1673808839
8.6300,-0.01602829936,-0.6008753108,-0.7814253832,0.1675300719
8.6350,-0.01642240716,-0.6003940445,-0.7817551088,0.1676789964
8.6400,-0.0168035984,-0.5999114544,-0.7820855432,0.1678275576
8.6450,-0.01717006733,-0.5994285166,-0.7824153992,0.1679785261
8.6500,-0.01752226005,-0.5989449869,-0.7827442162,0.1681349607
8.6550,-0.01785919281,-0.5984617811,-0.78307123,0.1682973395
8.6600,-0.0181802753,-0.5979803671,-0.783394336,0.1684703903
8.6650,-0.01848575821,-0.5974998273,-0.7837138309,0.1686560535
8.6700,-0.01877621671,-0.5970223336,-0.7840278854,0.1688551502
8.6750,-0.01905407082,-0.5965482267,-0.7843366675,0.1690655127
8.6800,-0.01931955772,-0.5960785531,-0.7846394815,0.1692867308
8.6850,-0.0195744638,-0.5956136044,-0.7849364623,0.169517034
8.6900,-0.01982075765,-0.5951525204,-0.7852282974,0.1697561076
8.6950,-0.0200602723,-0.5946960754,-0.7855142769,0.1700043649
8.7000,-0.02029776732,-0.5942431421,-0.7857950536,0.1702622167
8.7050,-0.02053433322,-0.5937928796,-0.7860711449,0.1705300925
8.7100,-0.0207707564,-0.5933444818,-0.7863430632,0.1708083389
8.7150,-0.02100697202,-0.5928993544,-0.7866104141,0.1710938896
8.7200,-0.02124537286,-0.5924578596,-0.7868731401,0.1713854722
8.7250,-0.02148804418,-0.5920207814,-0.7871313407,0.1716796752
8.7300,-0.02173749209,-0.5915890472,-0.7873845931,0.1719749494
8.7350,-0.02199664797,-0.5911614394,-0.7876336988,0.1722714618
8.7400,-0.02226602974,-0.5907379291,-0.787878261,0.1725710544
8.7450,-0.02254616115,-0.5903157585,-0.7881198157,0.17287606
8.7500,-0.02283628332,-0.5898946929,-0.7883582482,0.1731878399
8.7550,-0.02313702303,-0.589472128,-0.7885949144,0.1735089317
8.7600,-0.02344906905,-0.5890486878,-0.7888297046,0.1738375153
8.7650,-0.02377353681,-0.5886235441,-0.7890634198,0.1741725059
8.7700,-0.02411027737,-0.5881976679,-0.7892949184,0.1745157004
8.7750,-0.02445667643,-0.587768856,-0.7895264125,0.1748647672
8.7800,-0.02481284508,-0.5873373731,-0.7897574394,0.1752207743
8.7850,-0.02517820784,-0.5869018896,-0.7899884601,0.1755860549
8.7900,-0.02555155628,-0.586462206,-0.7902195805,0.1759608293
8.7950,-0.02593320348,-0.5860165407,-0.7904524275,0.1763435363
8.8000,-0.02632399084,-0.5855647219,-0.7906867838,0.1767354349
8.8050,-0.02672452393,-0.5851066887,-0.7909224422,0.1771373846
8.8100,-0.02713360146,-0.5846422969,-0.7911599527,0.1775474063
8.8150,-0.02755244296,-0.5841729891,-0.7913986692,0.1779632775
8.8200,-0.02798118282,-0.5836988135,-0.7916387596,0.1783839199
8.8250,-0.02842272465,-0.5832190102,-0.7918808181,0.1788085702
8.8300,-0.02887545454,-0.5827349791,-0.7921246779,0.1792334983
8.8350,-0.02933937707,-0.5822460218,-0.7923707088,0.1796592076
8.8400,-0.02981409086,-0.5817525032,-0.7926188525,0.1800847013
8.8450,-0.03029738297,-0.5812541774,-0.7928700371,0.1805069365
8.8500,-0.03078832767,-0.5807508865,-0.7931248705,0.1809238142
8.8550,-0.03128679563,-0.5802441471,-0.7933823377,0.1813348624
8.8600,-0.03179193965,-0.5797340139,-0.7936418416,0.1817426008
8.8650,-0.0323041255,-0.5792214357,-0.7939036272,0.1821428084
8.8700,-0.0328253851,-0.5787072062,-0.7941669435,0.1825358304
8.8750,-0.03335667476,-0.5781922347,-0.7944312458,0.1829209328
8.8800,-0.0338989801,-0.5776770852,-0.7946965576,0.1832960058
8.8850,-0.03445292934,-0.577163141,-0.7949619055,0.1836607552
8.8900,-0.03501817183,-0.5766494825,-0.7952282172,0.184014088
8.8950,-0.03559553618,-0.5761364012,-0.7954952859,0.1843557841
8.9000,-0.03618371254,-0.5756221161,-0.7957637794,0.1846887268
8.9050,-0.03677959608,-0.5751054868,-0.7960348301,0.1850121336
8.9100,-0.03738190719,-0.5745869027,-0.7963083808,0.1853252463
8.9150,-0.03798823787,-0.5740643927,-0.796585546,0.1856298325
8.9200,-0.03859634029,-0.573538326,-0.7968663024,0.1859252734
8.9250,-0.03920339126,-0.5730108417,-0.797149196,0.1862117846
8.9300,-0.03980822198,-0.5724829813,-0.7974335636,0.1864892845
8.9350,-0.04040826237,-0.5719544339,-0.7977191831,0.1867602819
8.9400,-0.04100309559,-0.5714239978,-0.7980064373,0.1870269684
8.9450,-0.04159107641,-0.5708916752,-0.7982951357,0.1872905601
8.9500,-0.04216853085,-0.5703582407,-0.7985852269,0.1875498005
8.9550,-0.04273419406,-0.5698234369,-0.7988769933,0.1878046567
8.9600,-0.04328594172,-0.5692873217,-0.7991708488,0.1880537874
8.9650,-0.04382342265,-0.5687512748,-0.7994656132,0.188298243
8.9700,-0.04434566759,-0.5682141982,-0.7997621413,0.1885380706
8.9750,-0.04485191694,-0.5676777491,-0.8000591088,0.1887742069
8.9800,-0.04534158852,-0.5671408842,-0.8003574485,0.1890061177
8.9850,-0.0458164871,-0.5666042564,-0.8006562167,0.1892355378
8.9900,-0.04627602063,-0.5660689693,-0.8009548885,0.1894616545
8.9950,-0.04672113014,-0.5655353401,-0.801253643,0.1896826685
9.0000,-0.04715321842,-0.5650061124,-0.8015509171,0.1898967992
9.0050,-0.04757661906,-0.5644805931,-0.8018468882,0.1901044272
9.0100,-0.04799128907,-0.5639596284,-0.8021406316,0.1903070697
9.0150,-0.04839840662,-0.5634406068,-0.8024330435,0.1905084973
9.0200,-0.04879944612,-0.5629223015,-0.8027246914,0.1907096389
9.0250,-0.04919448916,-0.5624031963,-0.8030161828,0.1909124331
9.0300,-0.04958600153,-0.5618829064,-0.8033078164,0.1911161428
9.0350,-0.04997272301,-0.5613617304,-0.8035993146,0.191321395
9.0400,-0.05035493708,-0.5608411695,-0.8038899481,0.1915267978
9.0450,-0.05073218426,-0.5603217288,-0.8041795142,0.191731882
9.0500,-0.05110652294,-0.5598037605,-0.8044676606,0.1919365937
9.0550,-0.05147713787,-0.5592891345,-0.8047530575,0.1921413146
9.0600,-0.05184558523,-0.5587771,-0.8050359534,0.1923468261
9.0650,-0.05221332829,-0.5582685109,-0.8053149861,0.1925559952
9.0700,-0.05258007214,-0.5577636105,-0.8055902002,0.1927680475
9.0750,-0.0529486039,-0.5572634273,-0.805860396,0.1929843003
9.0800,-0.0533191191,-0.5567683013,-0.8061253024,0.1932048834
9.0850,-0.05369288841,-0.5562771429,-0.8063861548,0.1934274626
9.0900,-0.05406822396,-0.5557893512,-0.806644022,0.1936498026
9.0950,-0.0544465626,-0.555306663,-0.8068976349,0.1938718356
9.1000,-0.05482645739,-0.5548288365,-0.8071482765,0.1940893649
9.1050,-0.05520764179,-0.554356908,-0.8073953815,0.1943019115
9.1100,-0.05559471998,-0.5538904299,-0.8076388683,0.1945098381
9.1150,-0.05598835629,-0.5534294828,-0.8078789539,0.1947118574
9.1200,-0.05638974064,-0.5529750194,-0.808115419,0.1949058609
9.1250,-0.0568002579,-0.5525280204,-0.8083479038,0.195090194
9.1300,-0.05722164173,-0.5520862887,-0.8085778718,0.1952645353
9.1350,-0.05765592435,-0.5516502638,-0.8088052822,0.1954272149
9.1400,-0.05809958508,-0.5512194984,-0.8090306282,0.1955784891
9.1450,-0.05855402196,-0.5507941741,-0.8092536637,0.1957184509
9.1500,-0.05901955824,-0.5503744153,-0.8094739989,0.195848257
9.1550,-0.05949654441,-0.5499587073,-0.8096925809,0.1959681248
9.1600,-0.05998622383,-0.5495494988,-0.8099078321,0.1960772929
9.1650,-0.06048789373,-0.5491447866,-0.8101206579,0.1961778216
9.1700,-0.0609999164,-0.5487445585,-0.8103310649,0.1962701838
9.1750,-0.061522123,-0.5483483918,-0.8105395823,0.1963533935
9.1800,-0.06205200338,-0.5479580796,-0.8107456767,0.1964254047
9.1850,-0.06258792524,-0.5475708633,-0.8109506249,0.196489148
9.1900,-0.06312846962,-0.5471885062,-0.811153586,0.1965436211
9.1950,-0.06367295427,-0.5468101451,-0.811354468,0.1965918293
9.2000,-0.06421967282,-0.5464355982,-0.8115538701,0.1966323641
9.2050,-0.06476696519,-0.5460649001,-0.8117514538,0.1966670849
9.2100,-0.06531107289,-0.5456979266,-0.8119474696,0.1966965766
9.2150,-0.0658493258,-0.5453355606,-0.8121414153,0.1967214125
9.2200,-0.0663812319,-0.5449779776,-0.8123332498,0.1967415242
9.2250,-0.06690694015,-0.5446238865,-0.8125240149,0.1967562167
9.2300,-0.06742615171,-0.5442744508,-0.8127131153,0.1967649067
9.2350,-0.06793521687,-0.5439295597,-0.8129009422,0.1967676259
9.2400,-0.06843137747,-0.5435902146,-0.8130872437,0.1967637143
9.2450,-0.06891452204,-0.5432558382,-0.8132720968,0.1967546174
9.2500,-0.06938546932,-0.5429277403,-0.8134543219,0.1967414337
9.2550,-0.0698436887,-0.5426055648,-0.8136337062,0.1967263388
9.2600,-0.0702914748,-0.5422900368,-0.813809398,0.1967101632
9.2650,-0.07072632813,-0.5419805757,-0.8139819948,0.1966930457
9.2700,-0.07114804631,-0.5416781471,-0.8141501833,0.1966779588
9.2750,-0.07155615221,-0.5413823257,-0.8143141309,0.1966656828
9.2800,-0.07195366463,-0.5410941445,-0.8144726289,0.1966574016
9.2850,-0.07233933613,-0.5408133892,-0.814626042,0.1966527654
9.2900,-0.07271561103,-0.5405399258,-0.8147742172,0.1966519856
9.2950,-0.07308213688,-0.5402738481,-0.814916995,0.196655693
9.3000,-0.07343822223,-0.5400127988,-0.8150558971,0.1966644079
9.3050,-0.07378290397,-0.5397576396,-0.8151903124,0.1966787436
9.3100,-0.07411830978,-0.5395081411,-0.8153203876,0.1966980107
9.3150,-0.07444686966,-0.5392653087,-0.8154456955,0.1967203808
9.3200,-0.07476794879,-0.5390292846,-0.8155666487,0.1967440615
9.3250,-0.07508396455,-0.5388003498,-0.8156831644,0.1967677735
9.3300,-0.07539515959,-0.5385788858,-0.8157946212,0.1967930122
9.3350,-0.07570282277,-0.538363909,-0.8159017673,0.1968189272
9.3400,-0.07600837154,-0.5381535411,-0.816005689,0.1968456481
9.3450,-0.07631107518,-0.5379499257,-0.8161054891,0.1968713486
9.3500,-0.07661135674,-0.5377512327,-0.8162018278,0.1968981666
9.3550,-0.07690982588,-0.5375583875,-0.8162947054,0.1969233676
9.3600,-0.07720468545,-0.5373702491,-0.8163847944,0.1969480121
9.3650,-0.07749585185,-0.5371857083,-0.8164734112,0.1969697349
9.3700,-0.07778446874,-0.5370043665,-0.8165605977,0.1969890278
9.3750,-0.07807169834,-0.5368268447,-0.8166466838,0.1970023924
9.3800,-0.0783616946,-0.5366518139,-0.81673223,0.1970094917
9.3850,-0.07865454971,-0.5364815384,-0.8168156804,0.1970105708
9.3900,-0.07895435024,-0.5363152675,-0.8168973317,0.1970048069
9.3950,-0.07926340134,-0.5361518084,-0.8169776192,0.1969926935
9.4000,-0.07958210285,-0.5359915735,-0.8170561581,0.1969745071
9.4050,-0.07991254143,-0.5358314543,-0.8171343653,0.196951942
9.4100,-0.08025005643,-0.5356714181,-0.8172127954,0.1969246233
9.4150,-0.08059510665,-0.5355091799,-0.8172929408,0.196892346
9.4200,-0.08094774547,-0.5353441805,-0.8173753005,0.1968544867
9.4250,-0.08130565462,-0.5351747836,-0.8174610472,0.1968115288
9.4300,-0.08166713797,-0.535001244,-0.817549654,0.1967656238
9.4350,-0.08203148717,-0.5348236346,-0.8176415389,0.1967150957
9.4400,-0.08239992004,-0.5346417459,-0.8177366535,0.1966601692
9.4450,-0.08277161657,-0.5344566664,-0.8178342604,0.1966012556
9.4500,-0.08314565718,-0.5342680782,-0.8179348511,0.1965375274
9.4550,-0.08352225578,-0.5340770454,-0.8180373629,0.196470393
9.4600,-0.08389970733,-0.5338818395,-0.8181429857,0.1964002941
9.4650,-0.08427677418,-0.5336851989,-0.8182500359,0.1963273099
9.4700,-0.08465397368,-0.5334865626,-0.8183586748,0.1962520616
9.4750,-0.08503221306,-0.5332882939,-0.8184675095,0.1961735311
9.4800,-0.08541326436,-0.5330896546,-0.8185756944,0.1960964737
9.4850,-0.08579826274,-0.532891392,-0.8186835645,0.1960169476
9.4900,-0.0861845795,-0.532692346,-0.8187913454,0.1959382951
9.4950,-0.08657082785,-0.5324916236,-0.8188999527,0.1958597201
9.5000,-0.08695367584,-0.5322886369,-0.8190100376,0.1957815713
9.5050,-0.08733311964,-0.5320827735,-0.8191218536,0.1957044642
9.5100,-0.08770840217,-0.5318750612,-0.8192348766,0.1956281484
9.5150,-0.08808232007,-0.5316640106,-0.8193500089,0.1955516495
9.5200,-0.0884520088,-0.5314493573,-0.819467353,0.1954765464
9.5250,-0.08881716829,-0.5312309175,-0.8195870253,0.1954029962
9.5300,-0.08917560211,-0.5310081789,-0.8197090162,0.1953334449
9.5350,-0.08952909668,-0.5307817663,-0.819832903,0.1952671722
9.5400,-0.08987916503,-0.5305519279,-0.8199579527,0.1952058996
9.5450,-0.09022559781,-0.5303193901,-0.8200841656,0.1951477578
9.5500,-0.09056775381,-0.5300853357,-0.8202107118,0.1950933291
9.5550,-0.09090459061,-0.5298507483,-0.8203373073,0.1950416419
9.5600,-0.09123426427,-0.5296157753,-0.8204638196,0.1949937444
9.5650,-0.09155831625,-0.5293821748,-0.8205889316,0.1949497192
9.5700,-0.09187863846,-0.5291522969,-0.8207114979,0.1949071566
9.5750,-0.09219602554,-0.5289251769,-0.820831799,0.1948671542
9.5800,-0.09250829405,-0.5287026372,-0.8209492827,0.1948281606
9.5850,-0.09281619204,-0.5284849991,-0.8210638584,0.1947893752
