type,name,time_units,begin_time,frequency,count,units
signal,"Noraxon MyoMotion-Segments-Forearm RT-Pitch","s",0.0000,200,5108,"deg"

time,value
0.0000,11.12664093
0.0050,11.12733013
0.0100,11.12801838
0.0150,11.12870568
0.0200,11.12996522
0.0250,11.13188064
0.0300,11.13452624
0.0350,11.13796341
0.0400,11.14223801
0.0450,11.14737927
0.0500,11.15340024
0.0550,11.16029967
0.0600,11.16806471
0.0650,11.17667367
0.0700,11.18609849
0.0750,11.19630607
0.0800,11.20725885
0.0850,11.21891552
0.0900,11.23123242
0.0950,11.24416476
0.1000,11.25766725
0.1050,11.27169358
0.1100,11.28619495
0.1150,11.30111843
0.1200,11.31640532
0.1250,11.33198901
0.1300,11.34779297
0.1350,11.36372889
0.1400,11.37969491
0.1450,11.395574
0.1500,11.4112339
0.1550,11.4294585
0.1600,11.44705751
0.1650,11.46397172
0.1700,11.47987978
0.1750,11.4947033
0.1800,11.50812679
0.1850,11.52014279
0.1900,11.5305389
0.1950,11.5390588
0.2000,11.54568741
0.2050,11.55029115
0.2100,11.55276577
0.2150,11.55314045
0.2200,11.55148294
0.2250,11.54782588
0.2300,11.54238495
0.2350,11.53506364
0.2400,11.5261392
0.2450,11.51571781
0.2500,11.50404552
0.2550,11.49140535
0.2600,11.47790461
0.2650,11.46370589
0.2700,11.44912142
0.2750,11.43413256
0.2800,11.41899916
0.2850,11.40382838
0.2900,11.38886891
0.2950,11.37410187
0.3000,11.35965583
0.3050,11.34564563
0.3100,11.33196832
0.3150,11.31885881
0.3200,11.30620662
0.3250,11.29410454
0.3300,11.28253978
0.3350,11.27143849
0.3400,11.26098887
0.3450,11.25105173
0.3500,11.24163048
0.3550,11.23283628
0.3600,11.22453419
0.3650,11.2165783
0.3700,11.20915789
0.3750,11.20213469
0.3800,11.195531
0.3850,11.18952163
0.3900,11.18400347
0.3950,11.17886581
0.4000,11.17385078
0.4050,11.16926733
0.4100,11.16463469
0.4150,11.16017145
0.4200,11.15581832
0.4250,11.15150848
0.4300,11.14724974
0.4350,11.1428084
0.4400,11.13829803
0.4450,11.13377275
0.4500,11.12915144
0.4550,11.124467
0.4600,11.11976854
0.4650,11.11508366
0.4700,11.11036732
0.4750,11.10549291
0.4800,11.10069874
0.4850,11.09584389
0.4900,11.09097584
0.4950,11.08631641
0.5000,11.08158706
0.5050,11.07714715
0.5100,11.07288313
0.5150,11.06883725
0.5200,11.06492659
0.5250,11.06134871
0.5300,11.05784648
0.5350,11.05461888
0.5400,11.05147182
0.5450,11.04845048
0.5500,11.04554636
0.5550,11.04266369
0.5600,11.03977274
0.5650,11.03682314
0.5700,11.03382224
0.5750,11.03087888
0.5800,11.02788038
0.5850,11.02483856
0.5900,11.02182767
0.5950,11.01869873
0.6000,11.01553594
0.6050,11.01241259
0.6100,11.00923895
0.6150,11.00585169
0.6200,11.00238416
0.6250,10.99887891
0.6300,10.99533121
0.6350,10.99179679
0.6400,10.98803192
0.6450,10.98422434
0.6500,10.98034813
0.6550,10.97647921
0.6600,10.97245268
0.6650,10.96849551
0.6700,10.96430757
0.6750,10.96012253
0.6800,10.95570429
0.6850,10.95113164
0.6900,10.94622404
0.6950,10.94104286
0.7000,10.9358541
0.7050,10.93041282
0.7100,10.92494959
0.7150,10.91935069
0.7200,10.91369686
0.7250,10.90791177
0.7300,10.90209117
0.7350,10.8963046
0.7400,10.89042549
0.7450,10.88442453
0.7500,10.878324
0.7550,10.87203401
0.7600,10.86566341
0.7650,10.85891549
0.7700,10.85200623
0.7750,10.84499679
0.7800,10.83784062
0.7850,10.83049448
0.7900,10.82300828
0.7950,10.8153667
0.8000,10.8077769
0.8050,10.80004913
0.8100,10.79240591
0.8150,10.78489139
0.8200,10.77743039
0.8250,10.7702235
0.8300,10.76319261
0.8350,10.75629116
0.8400,10.74959076
0.8450,10.7430577
0.8500,10.73659697
0.8550,10.73023086
0.8600,10.72393673
0.8650,10.71781158
0.8700,10.71165652
0.8750,10.70561656
0.8800,10.69973609
0.8850,10.69395342
0.8900,10.68852163
0.8950,10.68339127
0.9000,10.67865378
0.9050,10.67436015
0.9100,10.6707538
0.9150,10.66789401
0.9200,10.66587966
0.9250,10.6646492
0.9300,10.66450165
0.9350,10.66560388
0.9400,10.6680923
0.9450,10.67186269
0.9500,10.6772569
0.9550,10.68416158
0.9600,10.69281489
0.9650,10.70307864
0.9700,10.71515678
0.9750,10.72898399
0.9800,10.74466883
0.9850,10.76206469
0.9900,10.78143055
0.9950,10.8028136
1.0000,10.82595719
1.0050,10.85105606
1.0100,10.87804422
1.0150,10.90692797
1.0200,10.93756082
1.0250,10.97010729
1.0300,11.00449211
1.0350,11.04093386
1.0400,11.07917977
1.0450,11.11924302
1.0500,11.1611217
1.0550,11.20477973
1.0600,11.25006324
1.0650,11.29702323
1.0700,11.34561402
1.0750,11.39572003
1.0800,11.44709655
1.0850,11.50000394
1.0900,11.55413531
1.0950,11.60944711
1.1000,11.66589072
1.1050,11.7235269
1.1100,11.78214233
1.1150,11.84183702
1.1200,11.90265163
1.1250,11.96447545
1.1300,12.02738281
1.1350,12.09142622
1.1400,12.15678324
1.1450,12.22330585
1.1500,12.29107714
1.1550,12.36019624
1.1600,12.43077187
1.1650,12.50279071
1.1700,12.57659774
1.1750,12.65213983
1.1800,12.72961926
1.1850,12.80910887
1.1900,12.8904985
1.1950,12.97413809
1.2000,13.06006264
1.2050,13.14846048
1.2100,13.23947479
1.2150,13.33330416
1.2200,13.43025304
1.2250,13.53048564
1.2300,13.63395117
1.2350,13.74073787
1.2400,13.85098609
1.2450,13.96479157
1.2500,14.08200131
1.2550,14.20262051
1.2600,14.3266975
1.2650,14.45424218
1.2700,14.58506474
1.2750,14.71908713
1.2800,14.85629911
1.2850,14.99678784
1.2900,15.14037826
1.2950,15.28693839
1.3000,15.43668568
1.3050,15.58944321
1.3100,15.74505478
1.3150,15.90354625
1.3200,16.06502245
1.3250,16.22927249
1.3300,16.39622898
1.3350,16.56573151
1.3400,16.73795091
1.3450,16.91284837
1.3500,17.09035145
1.3550,17.27036678
1.3600,17.45280639
1.3650,17.63784282
1.3700,17.82513804
1.3750,18.01477764
1.3800,18.20685206
1.3850,18.40114985
1.3900,18.59786056
1.3950,18.79683071
1.4000,18.9980408
1.4050,19.20137154
1.4100,19.40700314
1.4150,19.61479028
1.4200,19.82478223
1.4250,20.03693986
1.4300,20.25153758
1.4350,20.46834213
1.4400,20.68740156
1.4450,20.90871877
1.4500,21.13259002
1.4550,21.35882613
1.4600,21.58774387
1.4650,21.81912261
1.4700,22.05293744
1.4750,22.28927373
1.4800,22.52789881
1.4850,22.76892064
1.4900,23.01233899
1.4950,23.25807601
1.5000,23.50600908
1.5050,23.75609958
1.5100,24.0082718
1.5150,24.26231726
1.5200,24.5181927
1.5250,24.77568389
1.5300,25.03477168
1.5350,25.29530302
1.5400,25.55725577
1.5450,25.82053572
1.5500,26.08508421
1.5550,26.35086145
1.5600,26.61789181
1.5650,26.88606657
1.5700,27.15547181
1.5750,27.42592813
1.5800,27.69733658
1.5850,27.96959011
1.5900,28.24254621
1.5950,28.51616575
1.6000,28.79023509
1.6050,29.0646665
1.6100,29.33955854
1.6150,29.614797
1.6200,29.89042122
1.6250,30.16640401
1.6300,30.44271355
1.6350,30.719206
1.6400,30.9958955
1.6450,31.27278086
1.6500,31.54975529
1.6550,31.82685989
1.6600,32.10408541
1.6650,32.38130469
1.6700,32.65874199
1.6750,32.93626279
1.6800,33.21397327
1.6850,33.49186174
1.6900,33.76989721
1.6950,34.04812855
1.7000,34.32645197
1.7050,34.60477986
1.7100,34.88305188
1.7150,35.16125296
1.7200,35.43934902
1.7250,35.7173369
1.7300,35.99492471
1.7350,36.27211437
1.7400,36.54886464
1.7450,36.82528916
1.7500,37.1011175
1.7550,37.37653228
1.7600,37.65129294
1.7650,37.92571682
1.7700,38.19962399
1.7750,38.47289587
1.7800,38.74572846
1.7850,39.01808927
1.7900,39.28987007
1.7950,39.56099091
1.8000,39.83156487
1.8050,40.10131747
1.8100,40.37021989
1.8150,40.63841595
1.8200,40.90586648
1.8250,41.17269014
1.8300,41.43870104
1.8350,41.70393586
1.8400,41.96829738
1.8450,42.23171598
1.8500,42.4939809
1.8550,42.75510799
1.8600,43.01483031
1.8650,43.27336831
1.8700,43.53053315
1.8750,43.78653701
1.8800,44.04154593
1.8850,44.29561852
1.8900,44.54893126
1.8950,44.80173342
1.9000,45.05402913
1.9050,45.30588068
1.9100,45.55717976
1.9150,45.80785229
1.9200,46.05780813
1.9250,46.30700256
1.9300,46.5554428
1.9350,46.8032578
1.9400,47.05028407
1.9450,47.29643651
1.9500,47.54183005
1.9550,47.78615584
1.9600,48.0295863
1.9650,48.27189598
1.9700,48.51323231
1.9750,48.75350513
1.9800,48.99243068
1.9850,49.22991675
1.9900,49.46576104
1.9950,49.69989367
2.0000,49.93216689
2.0050,50.16253497
2.0100,50.39072561
2.0150,50.61681238
2.0200,50.84087588
2.0250,51.06292335
2.0300,51.28310804
2.0350,51.50164249
2.0400,51.71853749
2.0450,51.93354586
2.0500,52.14681991
2.0550,52.35827927
2.0600,52.56798264
2.0650,52.77583038
2.0700,52.98158025
2.0750,53.18501023
2.0800,53.38579954
2.0850,53.58387969
2.0900,53.77934187
2.0950,53.97210911
2.1000,54.16191158
2.1050,54.34859807
2.1100,54.5319394
2.1150,54.7119682
2.1200,54.88838181
2.1250,55.0612424
2.1300,55.23035519
2.1350,55.39563348
2.1400,55.55721792
2.1450,55.71506651
2.1500,55.86922867
2.1550,56.01944014
2.1600,56.16561681
2.1650,56.3075327
2.1700,56.4452902
2.1750,56.57887227
2.1800,56.70820954
2.1850,56.83324485
2.1900,56.95405823
2.1950,57.07045483
2.2000,57.18240566
2.2050,57.28968837
2.2100,57.39216489
2.2150,57.48978719
2.2200,57.58245629
2.2250,57.6703294
2.2300,57.7535746
2.2350,57.8321794
2.2400,57.90651265
2.2450,57.97698922
2.2500,58.04359967
2.2550,58.10658641
2.2600,58.16570035
2.2650,58.22070593
2.2700,58.27125188
2.2750,58.31728267
2.2800,58.35868399
2.2850,58.39521977
2.2900,58.42663775
2.2950,58.45293538
2.3000,58.47439998
2.3050,58.49150469
2.3100,58.50467726
2.3150,58.51378691
2.3200,58.5188124
2.3250,58.51988424
2.3300,58.5167072
2.3350,58.50935266
2.3400,58.497737
2.3450,58.48191906
2.3500,58.4621152
2.3550,58.43814117
2.3600,58.40972983
2.3650,58.37704167
2.3700,58.34029391
2.3750,58.30000737
2.3800,58.2566363
2.3850,58.2100354
2.3900,58.16000025
2.3950,58.1070182
2.4000,58.0510843
2.4050,57.99228829
2.4100,57.93075113
2.4150,57.86598453
2.4200,57.79810101
2.4250,57.72698383
2.4300,57.65267069
2.4350,57.57513501
2.4400,57.49423592
2.4450,57.41002334
2.4500,57.32246354
2.4550,57.23164961
2.4600,57.13790568
2.4650,57.04156817
2.4700,56.94279115
2.4750,56.84178383
2.4800,56.73848401
2.4850,56.63305284
2.4900,56.52523675
2.4950,56.41528451
2.5000,56.30325275
2.5050,56.18950755
2.5100,56.07446984
2.5150,55.95827604
2.5200,55.84103315
2.5250,55.72279471
2.5300,55.6034906
2.5350,55.48321824
2.5400,55.36159398
2.5450,55.23850811
2.5500,55.11386984
2.5550,54.98776007
2.5600,54.86027665
2.5650,54.73167187
2.5700,54.60223221
2.5750,54.47232256
2.5800,54.3420454
2.5850,54.21158165
2.5900,54.08113762
2.5950,53.95071595
2.6000,53.82038272
2.6050,53.689675
2.6100,53.5582838
2.6150,53.42629945
2.6200,53.29371706
2.6250,53.16044158
2.6300,53.02634074
2.6350,52.8913169
2.6400,52.75556236
2.6450,52.61915141
2.6500,52.48190976
2.6550,52.34385299
2.6600,52.20522295
2.6650,52.06603856
2.6700,51.92641621
2.6750,51.78621825
2.6800,51.64492591
2.6850,51.5028574
2.6900,51.35986811
2.6950,51.21563001
2.7000,51.07017358
2.7050,50.92364152
2.7100,50.7760933
2.7150,50.62812325
2.7200,50.47945479
2.7250,50.33021549
2.7300,50.18034738
2.7350,50.02989096
2.7400,49.87881802
2.7450,49.72713209
2.7500,49.57488407
2.7550,49.42222613
2.7600,49.26893571
2.7650,49.11496002
2.7700,48.96010979
2.7750,48.80405757
2.7800,48.6469079
2.7850,48.48855088
2.7900,48.3290266
2.7950,48.16845356
2.8000,48.00678858
2.8050,47.8439994
2.8100,47.67957387
2.8150,47.51353029
2.8200,47.34580047
2.8250,47.17626277
2.8300,47.00480486
2.8350,46.83136087
2.8400,46.65607324
2.8450,46.47893972
2.8500,46.30000508
2.8550,46.11933969
2.8600,45.93694171
2.8650,45.75304837
2.8700,45.56757073
2.8750,45.3805725
2.8800,45.19221579
2.8850,45.00265512
2.8900,44.81237901
2.8950,44.62164732
2.9000,44.430753
2.9050,44.24000354
2.9100,44.04984567
2.9150,43.86058673
2.9200,43.67264209
2.9250,43.48613399
2.9300,43.30150122
2.9350,43.11879136
2.9400,42.93800177
2.9450,42.75913068
2.9500,42.58215445
2.9550,42.40712487
2.9600,42.23384061
2.9650,42.06218971
2.9700,41.89213822
2.9750,41.72377089
2.9800,41.55713576
2.9850,41.39193219
2.9900,41.22837312
2.9950,41.06641104
3.0000,40.90631617
3.0050,40.74791815
3.0100,40.59126291
3.0150,40.4362519
3.0200,40.28314785
3.0250,40.13185577
3.0300,39.98249834
3.0350,39.8352188
3.0400,39.69013081
3.0450,39.54732985
3.0500,39.40687276
3.0550,39.26870738
3.0600,39.13285373
3.0650,38.99933763
3.0700,38.8682805
3.0750,38.73968186
3.0800,38.61347625
3.0850,38.48966711
3.0900,38.36818597
3.0950,38.24868942
3.1000,38.13124928
3.1050,38.01556133
3.1100,37.90199211
3.1150,37.79032864
3.1200,37.68043973
3.1250,37.57238978
3.1300,37.46621552
3.1350,37.36194903
3.1400,37.25940418
3.1450,37.15870233
3.1500,37.0596915
3.1550,36.9623799
3.1600,36.86646789
3.1650,36.77200543
3.1700,36.67890097
3.1750,36.58679819
3.1800,36.49564213
3.1850,36.40515866
3.1900,36.31505049
3.1950,36.22519014
3.2000,36.13527684
3.2050,36.04529093
3.2100,35.95509308
3.2150,35.86454541
3.2200,35.77334712
3.2250,35.68160755
3.2300,35.58886429
3.2350,35.49540929
3.2400,35.40117162
3.2450,35.30604112
3.2500,35.21020293
3.2550,35.1135442
3.2600,35.01617358
3.2650,34.91832072
3.2700,34.81986052
3.2750,34.72085469
3.2800,34.62141785
3.2850,34.52181517
3.2900,34.42200399
3.2950,34.32200919
3.3000,34.22174463
3.3050,34.12130813
3.3100,34.02074849
3.3150,33.91997264
3.3200,33.81898191
3.3250,33.71805831
3.3300,33.61710322
3.3350,33.51634581
3.3400,33.41586067
3.3450,33.3155151
3.3500,33.21549008
3.3550,33.11580112
3.3600,33.01656055
3.3650,32.91782735
3.3700,32.81955846
3.3750,32.72184551
3.3800,32.62468926
3.3850,32.52822322
3.3900,32.43252875
3.3950,32.33774733
3.4000,32.24382061
3.4050,32.15096358
3.4100,32.05896248
3.4150,31.96789716
3.4200,31.87784501
3.4250,31.78892201
3.4300,31.70106577
3.4350,31.61403511
3.4400,31.52800104
3.4450,31.44276069
3.4500,31.35839512
3.4550,31.27499073
3.4600,31.19275116
3.4650,31.11148847
3.4700,31.03140154
3.4750,30.95255516
3.4800,30.87491623
3.4850,30.79856701
3.4900,30.72363787
3.4950,30.6500445
3.5000,30.57783403
3.5050,30.50722167
3.5100,30.43829589
3.5150,30.37095775
3.5200,30.30532329
3.5250,30.24138436
3.5300,30.17939303
3.5350,30.11912718
3.5400,30.06047302
3.5450,30.00363531
3.5500,29.94840488
3.5550,29.89494042
3.5600,29.84311161
3.5650,29.79290663
3.5700,29.7442669
3.5750,29.69711092
3.5800,29.65127569
3.5850,29.60658451
3.5900,29.56296437
3.5950,29.52037128
3.6000,29.47862425
3.6050,29.4376837
3.6100,29.39724209
3.6150,29.35728221
3.6200,29.31749656
3.6250,29.27773669
3.6300,29.23800508
3.6350,29.19794983
3.6400,29.15744308
3.6450,29.11655145
3.6500,29.07517525
3.6550,29.03326607
3.6600,28.99085554
3.6650,28.94797077
3.6700,28.90464606
3.6750,28.86087311
3.6800,28.81665949
3.6850,28.77213481
3.6900,28.72737679
3.6950,28.6823672
3.7000,28.63721003
3.7050,28.59211979
3.7100,28.54718946
3.7150,28.50262174
3.7200,28.45859547
3.7250,28.41521987
3.7300,28.37256025
3.7350,28.33104891
3.7400,28.29062812
3.7450,28.25167298
3.7500,28.2141243
3.7550,28.17813414
3.7600,28.14380674
3.7650,28.11131688
3.7700,28.08061655
3.7750,28.05187817
3.7800,28.02537048
3.7850,28.001204
3.7900,27.97928924
3.7950,27.95992649
3.8000,27.94331187
3.8050,27.92930295
3.8100,27.9179486
3.8150,27.90950048
3.8200,27.90398196
3.8250,27.90156696
3.8300,27.90203301
3.8350,27.90553285
3.8400,27.9123018
3.8450,27.92215566
3.8500,27.93515136
3.8550,27.95109731
3.8600,27.9699904
3.8650,27.99159153
3.8700,28.01601139
3.8750,28.04291716
3.8800,28.07230508
3.8850,28.10398294
3.8900,28.13772201
3.8950,28.17338352
3.9000,28.21094227
3.9050,28.25012519
3.9100,28.29106328
3.9150,28.33334157
3.9200,28.37696961
3.9250,28.42165983
3.9300,28.46741133
3.9350,28.51411551
3.9400,28.56163347
3.9450,28.61007106
3.9500,28.65916202
3.9550,28.70896426
3.9600,28.75946193
3.9650,28.81054559
3.9700,28.86205651
3.9750,28.91404639
3.9800,28.96659083
3.9850,29.01940827
3.9900,29.07265628
3.9950,29.12627604
4.0000,29.18028443
4.0050,29.23448852
4.0100,29.28902245
4.0150,29.34395963
4.0200,29.3992067
4.0250,29.45469214
4.0300,29.51045936
4.0350,29.56654869
4.0400,29.62299527
4.0450,29.6797748
4.0500,29.7372289
4.0550,29.79514243
4.0600,29.85375905
4.0650,29.91317326
4.0700,29.97355038
4.0750,30.03492237
4.0800,30.09720191
4.0850,30.16055539
4.0900,30.22493473
4.0950,30.29048354
4.1000,30.35697384
4.1050,30.42486369
4.1100,30.49383544
4.1150,30.56395567
4.1200,30.6353066
4.1250,30.70786591
4.1300,30.78174376
4.1350,30.85688746
4.1400,30.93311378
4.1450,31.01045481
4.1500,31.08893693
4.1550,31.16855156
4.1600,31.24935344
4.1650,31.33129957
4.1700,31.41429271
4.1750,31.4986208
4.1800,31.58422371
4.1850,31.67121125
4.1900,31.75981104
4.1950,31.85009301
4.2000,31.94189229
4.2050,32.0354322
4.2100,32.13078456
4.2150,32.22813722
4.2200,32.32755191
4.2250,32.42913414
4.2300,32.53286261
4.2350,32.63888519
4.2400,32.74727736
4.2450,32.85785226
4.2500,32.97089971
4.2550,33.08650899
4.2600,33.20445495
4.2650,33.32484578
4.2700,33.4476958
4.2750,33.57312595
4.2800,33.70102068
4.2850,33.83145104
4.2900,33.96427197
4.2950,34.09962742
4.3000,34.23746562
4.3050,34.37787351
4.3100,34.52082485
4.3150,34.66638385
4.3200,34.81459178
4.3250,34.96549319
4.3300,35.11928962
4.3350,35.27601482
4.3400,35.43567459
4.3450,35.59829566
4.3500,35.7636556
4.3550,35.93174298
4.3600,36.10248512
4.3650,36.2755124
4.3700,36.45068315
4.3750,36.62803091
4.3800,36.80756
4.3850,36.98913535
4.3900,37.17299357
4.3950,37.35897138
4.4000,37.5471853
4.4050,37.73722017
4.4100,37.92912498
4.4150,38.12278477
4.4200,38.31786307
4.4250,38.51396458
4.4300,38.71107269
4.4350,38.90910317
4.4400,39.10800666
4.4450,39.30773304
4.4500,39.50821863
4.4550,39.70958182
4.4600,39.91172608
4.4650,40.11464347
4.4700,40.3184089
4.4750,40.52293472
4.4800,40.72824879
4.4850,40.9342132
4.4900,41.1405782
4.4950,41.34715348
4.5000,41.55407063
4.5050,41.76111458
4.5100,41.96803349
4.5150,42.17479889
4.5200,42.38142433
4.5250,42.58794912
4.5300,42.79445013
4.5350,43.00092591
4.5400,43.20735794
4.5450,43.41371311
4.5500,43.61988232
4.5550,43.82571933
4.5600,44.0312843
4.5650,44.23637528
4.5700,44.44107031
4.5750,44.6450822
4.5800,44.84829841
4.5850,45.05049855
4.5900,45.25177591
4.5950,45.45196117
4.6000,45.6510733
4.6050,45.84908559
4.6100,46.04633118
4.6150,46.24248562
4.6200,46.43772112
4.6250,46.63211595
4.6300,46.82547356
4.6350,47.01758045
4.6400,47.20817858
4.6450,47.39702128
4.6500,47.58417202
4.6550,47.76965464
4.6600,47.95330457
4.6650,48.13543885
4.6700,48.31630698
4.6750,48.49614047
4.6800,48.67490353
4.6850,48.85266055
4.6900,49.02944241
4.6950,49.20514516
4.7000,49.37965048
4.7050,49.55300953
4.7100,49.72528497
4.7150,49.8964749
4.7200,50.0668662
4.7250,50.23655671
4.7300,50.40559765
4.7350,50.57425467
4.7400,50.74285744
4.7450,50.91156318
4.7500,51.08056703
4.7550,51.24990213
4.7600,51.41966373
4.7650,51.58992103
4.7700,51.76056492
4.7750,51.93104306
4.7800,52.10117706
4.7850,52.27089202
4.7900,52.4401784
4.7950,52.60910721
4.8000,52.77741955
4.8050,52.94512331
4.8100,53.11249513
4.8150,53.27942021
4.8200,53.44596015
4.8250,53.61184138
4.8300,53.77686255
4.8350,53.94086585
4.8400,54.10342602
4.8450,54.26444876
4.8500,54.42359753
4.8550,54.58111278
4.8600,54.73690246
4.8650,54.89095163
4.8700,55.04326281
4.8750,55.19400265
4.8800,55.34313326
4.8850,55.49101362
4.8900,55.63748877
4.8950,55.7827652
4.9000,55.92712613
4.9050,56.07065797
4.9100,56.21305651
4.9150,56.35417581
4.9200,56.49345136
4.9250,56.6302175
4.9300,56.76426233
4.9350,56.89575962
4.9400,57.02496644
4.9450,57.15188082
4.9500,57.27664388
4.9550,57.39929384
4.9600,57.52005024
4.9650,57.6391553
4.9700,57.75628299
4.9750,57.87117188
4.9800,57.98367696
4.9850,58.09360956
4.9900,58.20063746
4.9950,58.30477514
5.0000,58.40628465
5.0050,58.50527008
5.0100,58.60205879
5.0150,58.6968439
5.0200,58.78983635
5.0250,58.88146518
5.0300,58.9719446
5.0350,59.06122817
5.0400,59.14899953
5.0450,59.23493126
5.0500,59.3188378
5.0550,59.40048478
5.0600,59.47979536
5.0650,59.55674632
5.0700,59.63146196
5.0750,59.70423971
5.0800,59.77519662
5.0850,59.84408257
5.0900,59.91082074
5.0950,59.9752432
5.1000,60.0369634
5.1050,60.09594129
5.1100,60.15197819
5.1150,60.20514509
5.1200,60.25516019
5.1250,60.30216623
5.1300,60.345839
5.1350,60.38607913
5.1400,60.42299745
5.1450,60.45640599
5.1500,60.48645925
5.1550,60.51275202
5.1600,60.53518112
5.1650,60.55400943
5.1700,60.56925871
5.1750,60.58117245
5.1800,60.59005366
5.1850,60.59552031
5.1900,60.59763655
5.1950,60.59637343
5.2000,60.59127495
5.2050,60.58195949
5.2100,60.56829292
5.2150,60.55047818
5.2200,60.52849183
5.2250,60.50292152
5.2300,60.47398903
5.2350,60.44188993
5.2400,60.40679266
5.2450,60.36867869
5.2500,60.32748383
5.2550,60.28313075
5.2600,60.23513887
5.2650,60.18306582
5.2700,60.12691189
5.2750,60.06692398
5.2800,60.00326168
5.2850,59.93601844
5.2900,59.86527357
5.2950,59.79130694
5.3000,59.71401221
5.3050,59.63347006
5.3100,59.54963752
5.3150,59.46279044
5.3200,59.37266901
5.3250,59.27921124
5.3300,59.1825031
5.3350,59.08245897
5.3400,58.97946754
5.3450,58.87388573
5.3500,58.76577056
5.3550,58.65536634
5.3600,58.54245942
5.3650,58.42689571
5.3700,58.30851239
5.3750,58.18741558
5.3800,58.06342885
5.3850,57.93658823
5.3900,57.80704497
5.3950,57.67526532
5.4000,57.54133519
5.4050,57.40539431
5.4100,57.26737746
5.4150,57.12726247
5.4200,56.98508565
5.4250,56.84058456
5.4300,56.69384759
5.4350,56.54482954
5.4400,56.39367176
5.4450,56.24061074
5.4500,56.08585803
5.4550,55.92930743
5.4600,55.77122583
5.4650,55.61129272
5.4700,55.4493852
5.4750,55.28558684
5.4800,55.11954689
5.4850,54.95128894
5.4900,54.78082313
5.4950,54.60824009
5.5000,54.43382677
5.5050,54.25752534
5.5100,54.07959224
5.5150,53.89992151
5.5200,53.71867281
5.5250,53.53559815
5.5300,53.35065495
5.5350,53.1636727
5.5400,52.97463429
5.5450,52.78375823
5.5500,52.59113558
5.5550,52.39689985
5.5600,52.20138136
5.5650,52.00461939
5.5700,51.80672562
5.5750,51.6072519
5.5800,51.40637892
5.5850,51.20384369
5.5900,50.99973221
5.5950,50.79417432
5.6000,50.58715914
5.6050,50.37877072
5.6100,50.1691477
5.6150,49.95808493
5.6200,49.74591116
5.6250,49.53260647
5.6300,49.3180443
5.6350,49.10269483
5.6400,48.88636259
5.6450,48.66903448
5.6500,48.45091398
5.6550,48.23196619
5.6600,48.01251389
5.6650,47.79255643
5.6700,47.57213167
5.6750,47.35137267
5.6800,47.13042426
5.6850,46.9095329
5.6900,46.68858543
5.6950,46.46715834
5.7000,46.2453504
5.7050,46.02315224
5.7100,45.8004658
5.7150,45.57733169
5.7200,45.35382721
5.7250,45.13004031
5.7300,44.90620235
5.7350,44.68248842
5.7400,44.45889515
5.7450,44.2353946
5.7500,44.01219628
5.7550,43.78966392
5.7600,43.56755018
5.7650,43.34617181
5.7700,43.12560919
5.7750,42.90577704
5.7800,42.68691203
5.7850,42.46918825
5.7900,42.25246131
5.7950,42.03653623
5.8000,41.82133768
5.8050,41.60691938
5.8100,41.39341476
5.8150,41.18080304
5.8200,40.96917544
5.8250,40.75852073
5.8300,40.54899913
5.8350,40.34064438
5.8400,40.1334097
5.8450,39.92711046
5.8500,39.72176833
5.8550,39.51737925
5.8600,39.31388078
5.8650,39.11130295
5.8700,38.90963727
5.8750,38.70898101
5.8800,38.50924989
5.8850,38.31074111
5.8900,38.11349461
5.8950,37.91736626
5.9000,37.72243542
5.9050,37.52874835
5.9100,37.33630077
5.9150,37.14519616
5.9200,36.95519422
5.9250,36.76622918
5.9300,36.57824909
5.9350,36.39094119
5.9400,36.20424274
5.9450,36.01821248
5.9500,35.83258241
5.9550,35.64731307
5.9600,35.46226272
5.9650,35.27744626
5.9700,35.09292179
5.9750,34.90873462
5.9800,34.72478379
5.9850,34.54095005
5.9900,34.357503
5.9950,34.17445821
6.0000,33.9918848
6.0050,33.80975824
6.0100,33.62826612
6.0150,33.44735283
6.0200,33.26712389
6.0250,33.08761563
6.0300,32.90878531
6.0350,32.73089642
6.0400,32.55380043
6.0450,32.37786833
6.0500,32.20301552
6.0550,32.02929149
6.0600,31.85683067
6.0650,31.68541983
6.0700,31.51533407
6.0750,31.34642261
6.0800,31.17871261
6.0850,31.01213919
6.0900,30.84698186
6.0950,30.68317544
6.1000,30.52072228
6.1050,30.35966408
6.1100,30.19988548
6.1150,30.04128567
6.1200,29.88388318
6.1250,29.72771327
6.1300,29.57275133
6.1350,29.41887315
6.1400,29.2659993
6.1450,29.11430842
6.1500,28.96378034
6.1550,28.81430258
6.1600,28.66612331
6.1650,28.51914545
6.1700,28.37324507
6.1750,28.22843217
6.1800,28.08473383
6.1850,27.94210113
6.1900,27.8004077
6.1950,27.65983445
6.2000,27.52052212
6.2050,27.38225216
6.2100,27.24484272
6.2150,27.10836594
6.2200,26.97280405
6.2250,26.83822743
6.2300,26.70464491
6.2350,26.57200582
6.2400,26.44040698
6.2450,26.30967267
6.2500,26.17997202
6.2550,26.05098814
6.2600,25.92291771
6.2650,25.79562067
6.2700,25.6689282
6.2750,25.54265801
6.2800,25.41693697
6.2850,25.29173444
6.2900,25.16703119
6.2950,25.04264625
6.3000,24.91871106
6.3050,24.79532785
6.3100,24.67221287
6.3150,24.54966258
6.3200,24.42733225
6.3250,24.30545171
6.3300,24.18398188
6.3350,24.06282661
6.3400,23.94225034
6.3450,23.82219574
6.3500,23.70236007
6.3550,23.58281627
6.3600,23.46351277
6.3650,23.34439306
6.3700,23.2253856
6.3750,23.10660345
6.3800,22.98797572
6.3850,22.86950344
6.3900,22.75093211
6.3950,22.63239282
6.4000,22.51402123
6.4050,22.39569914
6.4100,22.27722381
6.4150,22.15874292
6.4200,22.04026288
6.4250,21.9217857
6.4300,21.80333877
6.4350,21.68495586
6.4400,21.56688558
6.4450,21.44883434
6.4500,21.33104064
6.4550,21.21345149
6.4600,21.09605206
6.4650,20.97893297
6.4700,20.86227058
6.4750,20.74607085
6.4800,20.63027442
6.4850,20.51499883
6.4900,20.40029054
6.4950,20.28599128
6.5000,20.17203146
6.5050,20.05862389
6.5100,19.9457728
6.5150,19.83344486
6.5200,19.72165213
6.5250,19.61056181
6.5300,19.50015987
6.5350,19.39055895
6.5400,19.28183909
6.5450,19.17408274
6.5500,19.06727901
6.5550,18.96174586
6.5600,18.85733699
6.5650,18.75430987
6.5700,18.65257296
6.5750,18.55236872
6.5800,18.45367254
6.5850,18.35645074
6.5900,18.26067293
6.5950,18.16661943
6.6000,18.07396372
6.6050,17.98277889
6.6100,17.89299966
6.6150,17.80442007
6.6200,17.71728484
6.6250,17.63144273
6.6300,17.54680433
6.6350,17.46318743
6.6400,17.38057464
6.6450,17.29876154
6.6500,17.21799668
6.6550,17.13820877
6.6600,17.05925863
6.6650,16.98124219
6.6700,16.90406833
6.6750,16.82788073
6.6800,16.75247523
6.6850,16.67807533
6.6900,16.60478488
6.6950,16.532383
6.7000,16.46085399
6.7050,16.39024564
6.7100,16.32058669
6.7150,16.25182688
6.7200,16.18383122
6.7250,16.11665692
6.7300,16.05002788
6.7350,15.98390579
6.7400,15.91810849
6.7450,15.85264924
6.7500,15.78711096
6.7550,15.72164042
6.7600,15.65589822
6.7650,15.58959829
6.7700,15.52252708
6.7750,15.45460602
6.7800,15.38577833
6.7850,15.31569794
6.7900,15.24438875
6.7950,15.17171282
6.8000,15.09761903
6.8050,15.02195686
6.8100,14.94497501
6.8150,14.86651617
6.8200,14.78674287
6.8250,14.70545831
6.8300,14.62276606
6.8350,14.53881071
6.8400,14.45364486
6.8450,14.36731731
6.8500,14.28004952
6.8550,14.19176997
6.8600,14.10286003
6.8650,14.01320023
6.8700,13.92327514
6.8750,13.83300252
6.8800,13.74265265
6.8850,13.65254946
6.8900,13.56272915
6.8950,13.47341189
6.9000,13.38473184
6.9050,13.29678964
6.9100,13.2098299
6.9150,13.12416524
6.9200,13.0399948
6.9250,12.95733047
6.9300,12.87638922
6.9350,12.79737783
6.9400,12.72042409
6.9450,12.64579018
6.9500,12.5734983
6.9550,12.50344765
6.9600,12.43606762
6.9650,12.37142697
6.9700,12.30964794
6.9750,12.25063728
6.9800,12.19477811
6.9850,12.1419328
6.9900,12.09215056
6.9950,12.04571685
7.0000,12.00249363
7.0050,11.96265007
7.0100,11.92614469
7.0150,11.89305737
7.0200,11.86334078
7.0250,11.83694043
7.0300,11.81389067
7.0350,11.79406
7.0400,11.77726452
7.0450,11.7635277
7.0500,11.75282872
7.0550,11.74476432
7.0600,11.73936162
7.0650,11.73656445
7.0700,11.73626276
7.0750,11.73823562
7.0800,11.74241723
7.0850,11.74859526
7.0900,11.75667652
7.0950,11.7665141
7.1000,11.77784836
7.1050,11.79070462
7.1100,11.80471302
7.1150,11.81991073
7.1200,11.83615238
7.1250,11.85337304
7.1300,11.87151009
7.1350,11.89059701
7.1400,11.91050447
7.1450,11.93116537
7.1500,11.95269576
7.1550,11.974991
7.1600,11.99805227
7.1650,12.02191325
7.1700,12.04650758
7.1750,12.07205244
7.1800,12.09858145
7.1850,12.1261076
7.1900,12.15483299
7.1950,12.18472748
7.2000,12.21625044
7.2050,12.24953131
7.2100,12.28483877
7.2150,12.32226298
7.2200,12.36190071
7.2250,12.40422108
7.2300,12.44935381
7.2350,12.49745637
7.2400,12.54862516
7.2450,12.60309158
7.2500,12.66113476
7.2550,12.72274803
7.2600,12.78794648
7.2650,12.8570013
7.2700,12.92976162
7.2750,13.00636305
7.2800,13.0867077
7.2850,13.17081733
7.2900,13.25858845
7.2950,13.35008249
7.3000,13.44521867
7.3050,13.54379963
7.3100,13.64584149
7.3150,13.75123827
7.3200,13.85995019
7.3250,13.97188534
7.3300,14.08707211
7.3350,14.20554548
7.3400,14.32731795
7.3450,14.45227898
7.3500,14.58042845
7.3550,14.71179892
7.3600,14.84639355
7.3650,14.98414982
7.3700,15.12500644
7.3750,15.26887879
7.3800,15.41556478
7.3850,15.56529082
7.3900,15.71779053
7.3950,15.87296717
7.4000,16.03093112
7.4050,16.19156673
7.4100,16.35488452
7.4150,16.52066187
7.4200,16.68882139
7.4250,16.85943072
7.4300,17.03233253
7.4350,17.20733178
7.4400,17.38455889
7.4450,17.56418647
7.4500,17.74584592
7.4550,17.92982547
7.4600,18.11589398
7.4650,18.30434513
7.4700,18.49510717
7.4750,18.68814779
7.4800,18.88348379
7.4850,19.08103918
7.4900,19.28088928
7.4950,19.48293608
7.5000,19.68722586
7.5050,19.89356864
7.5100,20.10191762
7.5150,20.31225808
7.5200,20.52457503
7.5250,20.73870707
7.5300,20.95446049
7.5350,21.17188501
7.5400,21.39093372
7.5450,21.61146104
7.5500,21.83316252
7.5550,22.05620262
7.5600,22.28050991
7.5650,22.5058051
7.5700,22.73234076
7.5750,22.96010671
7.5800,23.18893389
7.5850,23.41892857
7.5900,23.65003403
7.5950,23.88227965
7.6000,24.11563952
7.6050,24.34999898
7.6100,24.58538765
7.6150,24.8216565
7.6200,25.05890675
7.6250,25.29706613
7.6300,25.53607438
7.6350,25.77584074
7.6400,26.01630971
7.6450,26.25744476
7.6500,26.49921379
7.6550,26.74158099
7.6600,26.98449116
7.6650,27.22772136
7.6700,27.47133573
7.6750,27.71518689
7.6800,27.95926492
7.6850,28.20348045
7.6900,28.44805134
7.6950,28.69293836
7.7000,28.93806782
7.7050,29.18320887
7.7100,29.42856657
7.7150,29.67409384
7.7200,29.91969441
7.7250,30.165334
7.7300,30.41103242
7.7350,30.65671277
7.7400,30.90216225
7.7450,31.14743143
7.7500,31.39248639
7.7550,31.63737455
7.7600,31.88189494
7.7650,32.12584178
7.7700,32.36929287
7.7750,32.6121696
7.7800,32.85461511
7.7850,33.09663932
7.7900,33.33806846
7.7950,33.57905237
7.8000,33.81937677
7.8050,34.05917211
7.8100,34.29839735
7.8150,34.53694798
7.8200,34.77487454
7.8250,35.01198656
7.8300,35.24856878
7.8350,35.48462501
7.8400,35.72015042
7.8450,35.9550528
7.8500,36.18946195
7.8550,36.4233713
7.8600,36.65689728
7.8650,36.89020808
7.8700,37.12313019
7.8750,37.3556
7.8800,37.58785263
7.8850,37.81977726
7.8900,38.05131489
7.8950,38.28240387
7.9000,38.51292331
7.9050,38.743088
7.9100,38.97282545
7.9150,39.20228007
7.9200,39.43137308
7.9250,39.66009643
7.9300,39.88847623
7.9350,40.11660647
7.9400,40.34444003
7.9450,40.57194982
7.9500,40.79906858
7.9550,41.02575938
7.9600,41.25210162
7.9650,41.47818163
7.9700,41.70387701
7.9750,41.92931923
7.9800,42.15456756
7.9850,42.37945149
7.9900,42.6037715
7.9950,42.82753285
8.0000,43.05081619
8.0050,43.2735552
8.0100,43.4956858
8.0150,43.71726594
8.0200,43.9383039
8.0250,44.15881878
8.0300,44.37885073
8.0350,44.59828389
8.0400,44.81698894
8.0450,45.03473103
8.0500,45.2515076
8.0550,45.46732938
8.0600,45.68246344
8.0650,45.89675504
8.0700,46.11004055
8.0750,46.32236822
8.0800,46.5335999
8.0850,46.74362673
8.0900,46.95263593
8.0950,47.16045741
8.1000,47.36700397
8.1050,47.57238797
8.1100,47.77670438
8.1150,47.97990873
8.1200,48.18190935
8.1250,48.38269611
8.1300,48.5821842
8.1350,48.78044659
8.1400,48.97744264
8.1450,49.17332619
8.1500,49.36800716
8.1550,49.56168036
8.1600,49.75419212
8.1650,49.94532698
8.1700,50.1353251
8.1750,50.32394457
8.1800,50.51124224
8.1850,50.69713889
8.1900,50.88191973
8.1950,51.06538966
8.2000,51.24766744
8.2050,51.42859685
8.2100,51.60817045
8.2150,51.78640499
8.2200,51.96340395
8.2250,52.13906084
8.2300,52.31308485
8.2350,52.4852219
8.2400,52.65552456
8.2450,52.8238727
8.2500,52.99046205
8.2550,53.15533782
8.2600,53.31836759
8.2650,53.47974402
8.2700,53.63949694
8.2750,53.79767341
8.2800,53.95420687
8.2850,54.10896317
8.2900,54.26190583
8.2950,54.41279672
8.3000,54.56142419
8.3050,54.70750558
8.3100,54.85098299
8.3150,54.99206085
8.3200,55.130594
8.3250,55.26651673
8.3300,55.39975698
8.3350,55.53044269
8.3400,55.65876946
8.3450,55.7845574
8.3500,55.90767686
8.3550,56.02799501
8.3600,56.14548971
8.3650,56.26017752
8.3700,56.37172128
8.3750,56.48008605
8.3800,56.58519628
8.3850,56.6871604
8.3900,56.78570539
8.3950,56.88108346
8.4000,56.97347325
8.4050,57.06275862
8.4100,57.14906912
8.4150,57.23253588
8.4200,57.31341028
8.4250,57.39215593
8.4300,57.46850622
8.4350,57.54186054
8.4400,57.61193673
8.4450,57.67883015
8.4500,57.74255755
8.4550,57.80312513
8.4600,57.86074725
8.4650,57.91525463
8.4700,57.96677808
8.4750,58.01527283
8.4800,58.06070539
8.4850,58.10344871
8.4900,58.14335293
8.4950,58.18078578
8.5000,58.2156765
8.5050,58.24798911
8.5100,58.27779821
8.5150,58.3053943
8.5200,58.33091568
8.5250,58.35484632
8.5300,58.37729717
8.5350,58.39856636
8.5400,58.41864722
8.5450,58.43779815
8.5500,58.45574701
8.5550,58.47220217
8.5600,58.48714434
8.5650,58.50047059
8.5700,58.51194763
8.5750,58.52126866
8.5800,58.52848508
8.5850,58.53361978
8.5900,58.53674557
8.5950,58.53796351
8.6000,58.53721678
8.6050,58.53501465
8.6100,58.5312243
8.6150,58.5255628
8.6200,58.51816009
8.6250,58.50886115
8.6300,58.49796692
8.6350,58.48585664
8.6400,58.47237897
8.6450,58.45773655
8.6500,58.44166458
8.6550,58.42386436
8.6600,58.40394661
8.6650,58.38191731
8.6700,58.35788339
8.6750,58.33178842
8.6800,58.30373076
8.6850,58.27370266
8.6900,58.24110304
8.6950,58.20572432
8.7000,58.1675152
8.7050,58.12678253
8.7100,58.08346946
8.7150,58.0376089
8.7200,57.98891456
8.7250,57.93709971
8.7300,57.88234001
8.7350,57.82477561
8.7400,57.76476357
8.7450,57.70200599
8.7500,57.63647278
8.7550,57.56825906
8.7600,57.4972895
8.7650,57.42428885
8.7700,57.34913102
8.7750,57.27256659
8.7800,57.19488742
8.7850,57.11615867
8.7900,57.03645571
8.7950,56.955476
8.8000,56.87307075
8.8050,56.78937029
8.8100,56.70438852
8.8150,56.61792458
8.8200,56.52983649
8.8250,56.43995132
8.8300,56.34864629
8.8350,56.25596746
8.8400,56.16199864
8.8450,56.06644737
8.8500,55.96964158
8.8550,55.87213233
8.8600,55.77405271
8.8650,55.67558507
8.8700,55.57649742
8.8750,55.47699962
8.8800,55.37725639
8.8850,55.27703279
8.8900,55.17613445
8.8950,55.07482807
8.9000,54.97322707
8.9050,54.87134767
8.9100,54.76917706
8.9150,54.66693206
8.9200,54.56469934
8.9250,54.4627975
8.9300,54.36067951
8.9350,54.25795916
8.9400,54.15469083
8.9450,54.0506528
8.9500,53.94615518
8.9550,53.84118738
8.9600,53.73548241
8.9650,53.62890792
8.9700,53.52160904
8.9750,53.41329212
8.9800,53.30397433
8.9850,53.19350512
8.9900,53.082471
8.9950,52.97086233
9.0000,52.85876426
9.0050,52.74557514
9.0100,52.63140314
9.0150,52.51603464
9.0200,52.39957357
9.0250,52.28209217
9.0300,52.16374575
9.0350,52.04491844
9.0400,51.92555333
9.0450,51.80570291
9.0500,51.68564264
9.0550,51.56526756
9.0600,51.44473617
9.0650,51.32353223
9.0700,51.20174954
9.0750,51.07905104
9.0800,50.95523278
9.0850,50.83008531
9.0900,50.70398068
9.0950,50.57728143
9.1000,50.45023983
9.1050,50.32313898
9.1100,50.19601434
9.1150,50.06901122
9.1200,49.94222646
9.1250,49.8155844
9.1300,49.68880456
9.1350,49.56215516
9.1400,49.43575788
9.1450,49.30984448
9.1500,49.18453124
9.1550,49.05973577
9.1600,48.93537336
9.1650,48.8113835
9.1700,48.68795304
9.1750,48.5650865
9.1800,48.44256544
9.1850,48.32070599
9.1900,48.19977061
9.1950,48.079756
9.2000,47.96091175
9.2050,47.84326083
9.2100,47.72662459
9.2150,47.61094524
9.2200,47.49615582
9.2250,47.3820731
9.2300,47.2689965
9.2350,47.15680903
9.2400,47.04527779
9.2450,46.93443781
9.2500,46.82400031
9.2550,46.71384023
9.2600,46.604048
9.2650,46.49451197
9.2700,46.38507935
9.2750,46.27586263
9.2800,46.1667882
9.2850,46.0577236
9.2900,45.9487301
9.2950,45.83963213
9.3000,45.7304324
9.3050,45.62131135
9.3100,45.51211862
9.3150,45.40290145
9.3200,45.29390978
9.3250,45.1848443
9.3300,45.07551753
9.3350,44.9657937
9.3400,44.85572403
9.3450,44.74546373
9.3500,44.63467267
9.3550,44.5233702
9.3600,44.41152614
9.3650,44.29929676
9.3700,44.18659676
9.3750,44.07339844
9.3800,43.95991957
9.3850,43.84611764
9.3900,43.73172574
9.3950,43.61684065
9.4000,43.50153538
9.4050,43.38574325
9.4100,43.2695555
9.4150,43.15324597
9.4200,43.03685112
9.4250,42.92067767
9.4300,42.80478051
9.4350,42.68910512
9.4400,42.57381066
9.4450,42.45884856
9.4500,42.34422007
9.4550,42.23000768
9.4600,42.11638956
9.4650,42.0032831
9.4700,41.89069173
9.4750,41.77872648
9.4800,41.66722027
9.4850,41.55632183
9.4900,41.44571655
9.4950,41.33567468
9.5000,41.22595987
9.5050,41.11675631
9.5100,41.00806096
9.5150,40.89989215
9.5200,40.79245027
9.5250,40.68552303
9.5300,40.57904031
9.5350,40.47305137
9.5400,40.36748924
9.5450,40.26208143
9.5500,40.156989
9.5550,40.05213138
9.5600,39.94729546
9.5650,39.84264413
9.5700,39.73794786
9.5750,39.63318152
9.5800,39.52798155
9.5850,39.42267098
9.5900,39.31684875
9.5950,39.21083066
9.6000,39.10434435
9.6050,38.99738766
9.6100,38.89028717
9.6150,38.78279142
9.6200,38.67476267
9.6250,38.5663628
9.6300,38.45750762
9.6350,38.34814717
9.6400,38.23830834
9.6450,38.12815293
9.6500,38.0178002
9.6550,37.90743583
9.6600,37.79698558
9.6650,37.68641424
9.6700,37.57588861
9.6750,37.46554376
9.6800,37.35523969
9.6850,37.24505878
9.6900,37.13520916
9.6950,37.02532199
9.7000,36.9154681
9.7050,36.8054884
9.7100,36.69549959
9.7150,36.58532708
9.7200,36.47510482
9.7250,36.36492067
9.7300,36.25481263
9.7350,36.14483633
9.7400,36.03475341
9.7450,35.92480447
9.7500,35.81485799
9.7550,35.70497934
9.7600,35.59477584
9.7650,35.4844354
9.7700,35.3739733
9.7750,35.26300951
9.7800,35.15181317
9.7850,35.04025648
9.7900,34.92850697
9.7950,34.81632174
9.8000,34.70376126
9.8050,34.59062443
9.8100,34.4770415
9.8150,34.36307709
9.8200,34.2486194
9.8250,34.13386349
9.8300,34.01891664
9.8350,33.90373209
9.8400,33.78828986
9.8450,33.67267748
9.8500,33.55664275
9.8550,33.440303
9.8600,33.32384862
9.8650,33.20710714
9.8700,33.09019085
9.8750,32.97305844
9.8800,32.85601867
9.8850,32.73892185
9.8900,32.6221813
9.8950,32.50576323
9.9000,32.38981354
9.9050,32.27452923
9.9100,32.15970292
9.9150,32.04576599
9.9200,31.93266378
9.9250,31.82049487
9.9300,31.70951131
9.9350,31.59984241
9.9400,31.49159683
9.9450,31.38478859
9.9500,31.27968054
9.9550,31.1761016
9.9600,31.07421289
9.9650,30.97433666
9.9700,30.8766423
9.9750,30.78108078
9.9800,30.68781488
9.9850,30.5969383
9.9900,30.50826236
9.9950,30.42209323
10.0000,30.33846001
10.0050,30.25766807
10.0100,30.17954974
10.0150,30.10419655
10.0200,30.03169194
10.0250,29.96192236
10.0300,29.89496441
10.0350,29.83106812
10.0400,29.77000689
10.0450,29.71191047
10.0500,29.65675019
10.0550,29.60426906
10.0600,29.55492174
10.0650,29.50828146
10.0700,29.46436115
10.0750,29.42326016
10.0800,29.3849764
10.0850,29.34948569
10.0900,29.31682516
10.0950,29.28686762
10.1000,29.25951679
10.1050,29.23476408
10.1100,29.21260585
10.1150,29.19291694
10.1200,29.17568639
10.1250,29.16088172
10.1300,29.14825144
10.1350,29.13776448
10.1400,29.12940173
10.1450,29.12308725
10.1500,29.11880618
10.1550,29.1166833
10.1600,29.11660729
10.1650,29.11851711
10.1700,29.12261993
10.1750,29.12888104
10.1800,29.13716536
10.1850,29.14759282
10.1900,29.15994285
10.1950,29.1743202
10.2000,29.19078189
10.2050,29.20938465
10.2100,29.2301897
10.2150,29.25304951
10.2200,29.27821628
10.2250,29.30582095
10.2300,29.33592434
10.2350,29.36855685
10.2400,29.4038
10.2450,29.44164717
10.2500,29.4820917
10.2550,29.52527364
10.2600,29.57124544
10.2650,29.61992802
10.2700,29.67130231
10.2750,29.72536755
10.2800,29.7822188
10.2850,29.84194847
10.2900,29.90458555
10.2950,29.97006023
10.3000,30.03830287
10.3050,30.10914342
10.3100,30.18281174
10.3150,30.25921952
10.3200,30.33839909
10.3250,30.42034825
10.3300,30.5050029
10.3350,30.592234
10.3400,30.68231888
10.3450,30.77503678
10.3500,30.87047392
10.3550,30.96852833
10.3600,31.06909292
10.3650,31.17230821
10.3700,31.27790107
10.3750,31.38586769
10.3800,31.49607985
10.3850,31.60833343
10.3900,31.72267491
10.3950,31.83904391
10.4000,31.95731603
10.4050,32.07743153
10.4100,32.19910261
10.4150,32.32235265
10.4200,32.44693019
10.4250,32.57282895
10.4300,32.69991913
10.4350,32.828145
10.4400,32.9574491
10.4450,33.08784769
10.4500,33.21936638
10.4550,33.35171957
10.4600,33.48487914
10.4650,33.61885251
10.4700,33.75323956
10.4750,33.88805109
10.4800,34.02333073
10.4850,34.15884348
10.4900,34.29476381
10.4950,34.4309468
10.5000,34.56738639
10.5050,34.70397548
10.5100,34.84078502
10.5150,34.97772725
10.5200,35.11493418
10.5250,35.25217062
10.5300,35.38959055
10.5350,35.52707251
10.5400,35.66459321
10.5450,35.80219946
10.5500,35.93988226
10.5550,36.07759583
10.5600,36.21539558
10.5650,36.35322951
10.5700,36.49109948
10.5750,36.62910314
10.5800,36.76719719
10.5850,36.9053058
10.5900,37.04343465
10.5950,37.18166395
10.6000,37.32005542
10.6050,37.45872994
10.6100,37.59754696
10.6150,37.73662702
10.6200,37.87578266
10.6250,38.01501197
10.6300,38.15453307
10.6350,38.29411304
10.6400,38.43390293
10.6450,38.57384532
10.6500,38.71397487
10.6550,38.85439635
10.6600,38.99506578
10.6650,39.13601044
10.6700,39.27753006
10.6750,39.41975843
10.6800,39.56256643
10.6850,39.70608219
10.6900,39.84995215
10.6950,39.99443527
10.7000,40.13961458
10.7050,40.28546802
10.7100,40.43207794
10.7150,40.57924624
10.7200,40.72712113
10.7250,40.87554905
10.7300,41.02444597
10.7350,41.17377624
10.7400,41.32340131
10.7450,41.47324773
10.7500,41.62323183
10.7550,41.77338695
10.7600,41.9235263
10.7650,42.07368033
10.7700,42.22419213
10.7750,42.37483025
10.7800,42.52571488
10.7850,42.67691451
10.7900,42.82807706
10.7950,42.97943554
10.8000,43.13087852
10.8050,43.282339
10.8100,43.43373468
10.8150,43.58514345
10.8200,43.73647742
10.8250,43.88784364
10.8300,44.038951
10.8350,44.19013878
10.8400,44.34151288
10.8450,44.49298342
10.8500,44.64456163
10.8550,44.79630828
10.8600,44.94813197
10.8650,45.09982102
10.8700,45.25150174
10.8750,45.40300289
10.8800,45.55415797
10.8850,45.70494735
10.8900,45.85546946
10.8950,46.00563161
10.9000,46.15543051
10.9050,46.30478204
10.9100,46.45365318
10.9150,46.60219963
10.9200,46.75050436
10.9250,46.89855507
10.9300,47.04616423
10.9350,47.19339929
10.9400,47.34007291
10.9450,47.48624382
10.9500,47.63198371
10.9550,47.77715244
10.9600,47.92147563
10.9650,48.06507343
10.9700,48.20775396
10.9750,48.34945198
10.9800,48.49031065
10.9850,48.63018338
10.9900,48.76936384
10.9950,48.90756926
11.0000,49.04478132
11.0050,49.18108648
11.0100,49.31642982
11.0150,49.45106446
11.0200,49.58491027
11.0250,49.71803881
11.0300,49.85075679
11.0350,49.98298101
11.0400,50.11504804
11.0450,50.24690548
11.0500,50.37846425
11.0550,50.50988395
11.0600,50.64121841
11.0650,50.77238425
11.0700,50.90331597
11.0750,51.03444137
11.0800,51.1657844
11.0850,51.29772228
11.0900,51.43037219
11.0950,51.56368585
11.1000,51.69754796
11.1050,51.83217884
11.1100,51.96760123
11.1150,52.10408444
11.1200,52.24163825
11.1250,52.38033204
11.1300,52.52016525
11.1350,52.66070789
11.1400,52.8020761
11.1450,52.94412405
11.1500,53.08710189
11.1550,53.23129257
11.1600,53.3768514
11.1650,53.52410413
11.1700,53.67264405
11.1750,53.82259205
11.1800,53.9736688
11.1850,54.12560176
11.1900,54.27799352
11.1950,54.43066151
11.2000,54.58333341
11.2050,54.73589814
11.2100,54.88823818
11.2150,55.04005566
11.2200,55.19109405
11.2250,55.34119623
11.2300,55.49045568
11.2350,55.63868764
11.2400,55.78597048
11.2450,55.93215235
11.2500,56.07684464
11.2550,56.21983048
11.2600,56.36136196
11.2650,56.50110086
11.2700,56.63915936
11.2750,56.77556044
11.2800,56.91018581
11.2850,57.04313435
11.2900,57.17428328
11.2950,57.3036066
11.3000,57.4310579
11.3050,57.55621601
11.3100,57.67886414
11.3150,57.79869872
11.3200,57.91572515
11.3250,58.02981762
11.3300,58.14060658
11.3350,58.24829553
11.3400,58.35271181
11.3450,58.45413899
11.3500,58.55292055
11.3550,58.64898831
11.3600,58.74250328
11.3650,58.83352636
11.3700,58.92214352
11.3750,59.00800221
11.3800,59.09089844
11.3850,59.17035695
11.3900,59.24687499
11.3950,59.32051526
11.4000,59.39192527
11.4050,59.46097847
11.4100,59.52766121
11.4150,59.59193638
11.4200,59.6536196
11.4250,59.71287604
11.4300,59.77010656
11.4350,59.82548529
11.4400,59.87886219
11.4450,59.93027091
11.4500,59.97946599
11.4550,60.02624468
11.4600,60.07034068
11.4650,60.11179305
11.4700,60.15062445
11.4750,60.18671772
11.4800,60.22016589
11.4850,60.25079861
11.4900,60.27889316
11.4950,60.30453789
11.5000,60.32785082
11.5050,60.34871875
11.5100,60.36732565
11.5150,60.38365868
11.5200,60.3980238
11.5250,60.41040952
11.5300,60.42050286
11.5350,60.42787735
11.5400,60.43265567
11.5450,60.43461163
11.5500,60.43419065
11.5550,60.43160391
11.5600,60.42708348
11.5650,60.42112787
11.5700,60.41343715
11.5750,60.40409497
11.5800,60.3931948
11.5850,60.38058277
11.5900,60.36598241
11.5950,60.34956108
11.6000,60.33090538
11.6050,60.31033158
11.6100,60.28794853
11.6150,60.26392945
11.6200,60.23824065
11.6250,60.21104201
11.6300,60.1823161
11.6350,60.15202103
11.6400,60.12007435
11.6450,60.08603453
11.6500,60.04984101
11.6550,60.01112908
11.6600,59.97019872
11.6650,59.92678528
11.6700,59.88085989
11.6750,59.83231977
11.6800,59.78108941
11.6850,59.72751195
11.6900,59.67119715
11.6950,59.61232037
11.7000,59.55075512
11.7050,59.4866162
11.7100,59.41987924
11.7150,59.35063205
11.7200,59.27869204
11.7250,59.20397761
11.7300,59.12642399
11.7350,59.04614678
11.7400,58.96326113
11.7450,58.87773923
11.7500,58.78967349
11.7550,58.69887786
11.7600,58.60527185
11.7650,58.50873763
11.7700,58.40920616
11.7750,58.30698718
11.7800,58.20223673
11.7850,58.09522036
11.7900,57.98582626
11.7950,57.87387104
11.8000,57.75914043
11.8050,57.64169837
11.8100,57.52120567
11.8150,57.39781621
11.8200,57.2713092
11.8250,57.14216901
11.8300,57.0104978
11.8350,56.87686408
11.8400,56.74119911
11.8450,56.6036955
11.8500,56.46410732
11.8550,56.32247144
11.8600,56.17849785
11.8650,56.03213514
11.8700,55.88369326
11.8750,55.73323162
11.8800,55.58062471
11.8850,55.42617803
11.8900,55.27023602
11.8950,55.11269848
11.9000,54.95389109
11.9050,54.79348045
11.9100,54.63118991
11.9150,54.46696634
11.9200,54.30037202
11.9250,54.13123984
11.9300,53.95937634
11.9350,53.78460484
11.9400,53.60707075
11.9450,53.42692797
11.9500,53.24435335
11.9550,53.0596355
11.9600,52.87287707
11.9650,52.68447121
11.9700,52.49456957
11.9750,52.30334603
11.9800,52.11070071
11.9850,51.9164556
11.9900,51.72084063
11.9950,51.52357321
12.0000,51.3247757
12.0050,51.12471164
12.0100,50.92335027
12.0150,50.72084877
12.0200,50.51744568
12.0250,50.31317734
12.0300,50.10805161
12.0350,49.90231544
12.0400,49.69601518
12.0450,49.48924301
12.0500,49.28187875
12.0550,49.073916
12.0600,48.86548004
12.0650,48.65674762
12.0700,48.44773528
12.0750,48.23821264
12.0800,48.02828999
12.0850,47.81803774
12.0900,47.60766353
12.0950,47.39733791
12.1000,47.18720479
12.1050,46.97734579
12.1100,46.76778216
12.1150,46.55831936
12.1200,46.34909712
12.1250,46.13955549
12.1300,45.92980985
12.1350,45.71962716
12.1400,45.50908291
12.1450,45.29807597
12.1500,45.0867443
12.1550,44.87518417
12.1600,44.66332039
12.1650,44.45092685
12.1700,44.23794636
12.1750,44.02401324
12.1800,43.80928059
12.1850,43.59359317
12.1900,43.37692289
12.1950,43.15905922
12.2000,42.93999372
12.2050,42.71959965
12.2100,42.49816459
12.2150,42.27568872
12.2200,42.0523253
12.2250,41.82829275
12.2300,41.60361333
12.2350,41.37862402
12.2400,41.15320899
12.2450,40.92744286
12.2500,40.70136494
12.2550,40.47498536
12.2600,40.24829463
12.2650,40.02137081
12.2700,39.79425813
12.2750,39.5668348
12.2800,39.33968636
12.2850,39.11299071
12.2900,38.88673979
12.2950,38.66092695
12.3000,38.43546059
12.3050,38.21022905
12.3100,37.9853116
12.3150,37.76066293
12.3200,37.536224
12.3250,37.31213033
12.3300,37.08821995
12.3350,36.86459753
12.3400,36.64129822
12.3450,36.41822612
12.3500,36.19536877
12.3550,35.97294883
12.3600,35.75105224
12.3650,35.52957026
12.3700,35.30845922
12.3750,35.08787194
12.3800,34.86789163
12.3850,34.64842828
12.3900,34.42939036
12.3950,34.2108528
12.4000,33.9930161
12.4050,33.77575105
12.4100,33.55929407
12.4150,33.34373033
12.4200,33.12898143
12.4250,32.91538782
12.4300,32.70296402
12.4350,32.49181683
12.4400,32.28182444
12.4450,32.07305645
12.4500,31.86531581
12.4550,31.65853981
12.4600,31.4525727
12.4650,31.24762118
12.4700,31.0435072
12.4750,30.8404189
12.4800,30.63824074
12.4850,30.43687086
12.4900,30.23639605
12.4950,30.03673822
12.5000,29.83791797
12.5050,29.64027608
12.5100,29.44347073
12.5150,29.24760464
12.5200,29.05267034
12.5250,28.85858478
12.5300,28.66571844
12.5350,28.47387397
12.5400,28.283192
12.5450,28.09381626
12.5500,27.90579026
12.5550,27.71936405
12.5600,27.53459302
12.5650,27.35127268
12.5700,27.16972782
12.5750,26.9900838
12.5800,26.81205275
12.5850,26.63557156
12.5900,26.46063842
12.5950,26.28730815
12.6000,26.1155608
12.6050,25.94553983
12.6100,25.777057
12.6150,25.61010402
12.6200,25.4446454
12.6250,25.28058703
12.6300,25.1179562
12.6350,24.95657309
12.6400,24.79642832
12.6450,24.63762828
12.6500,24.4803663
12.6550,24.32450159
12.6600,24.1698567
12.6650,24.01652157
12.6700,23.86453418
12.6750,23.71380181
12.6800,23.5643013
12.6850,23.41598843
12.6900,23.26893957
12.6950,23.12305687
12.7000,22.97811374
12.7050,22.83426621
12.7100,22.69139982
12.7150,22.54945656
12.7200,22.40841001
12.7250,22.26810875
12.7300,22.12849398
12.7350,21.98955615
12.7400,21.85127741
12.7450,21.713515
12.7500,21.57651086
12.7550,21.44011724
12.7600,21.30452718
12.7650,21.16963611
12.7700,21.03559668
12.7750,20.90232921
12.7800,20.76984419
12.7850,20.63831726
12.7900,20.50745349
12.7950,20.37760242
12.8000,20.24864581
12.8050,20.1204953
12.8100,19.99339145
12.8150,19.86729299
12.8200,19.7420586
12.8250,19.6178492
12.8300,19.49442168
12.8350,19.37182123
12.8400,19.24980978
12.8450,19.12848058
12.8500,19.00750556
12.8550,18.88693809
12.8600,18.76677047
12.8650,18.64697038
12.8700,18.52735788
12.8750,18.40794654
12.8800,18.28878019
12.8850,18.169741
12.8900,18.0507115
12.8950,17.93158982
12.9000,17.81224385
12.9050,17.69251343
12.9100,17.57231407
12.9150,17.45165512
12.9200,17.330556
12.9250,17.20893175
12.9300,17.08681981
12.9350,16.96419984
12.9400,16.84104708
12.9450,16.71738351
12.9500,16.59305992
12.9550,16.46816799
12.9600,16.34277113
12.9650,16.21669012
12.9700,16.09020039
12.9750,15.96341553
12.9800,15.83625891
12.9850,15.70912577
12.9900,15.58179251
12.9950,15.45422197
13.0000,15.32661726
13.0050,15.1991627
13.0100,15.07192146
13.0150,14.94522307
13.0200,14.81922427
13.0250,14.6940667
13.0300,14.56985646
13.0350,14.44687715
13.0400,14.32542296
13.0450,14.20557318
13.0500,14.08751902
13.0550,13.97136571
13.0600,13.85737494
13.0650,13.74557792
13.0700,13.63607655
13.0750,13.5290484
13.0800,13.42445693
13.0850,13.32235788
13.0900,13.22286539
13.0950,13.1257152
13.1000,13.03109935
13.1050,12.93880539
13.1100,12.84878021
13.1150,12.76088413
13.1200,12.67505093
13.1250,12.59102159
13.1300,12.50875683
13.1350,12.42824125
13.1400,12.34956243
13.1450,12.27254455
13.1500,12.19749501
13.1550,12.12406822
13.1600,12.05222482
13.1650,11.98221867
13.1700,11.91410828
13.1750,11.84774974
13.1800,11.78305591
13.1850,11.72009925
13.1900,11.65875722
13.1950,11.59924268
13.2000,11.54156742
13.2050,11.48569409
13.2100,11.43171983
13.2150,11.37958374
13.2200,11.32944906
13.2250,11.2812261
13.2300,11.23481531
13.2350,11.1903379
13.2400,11.14786287
13.2450,11.10737209
13.2500,11.06903742
13.2550,11.03277651
13.2600,10.99867141
13.2650,10.96707839
13.2700,10.93788195
13.2750,10.91101043
13.2800,10.88668831
13.2850,10.86477899
13.2900,10.8455976
13.2950,10.82935189
13.3000,10.81612497
13.3050,10.80605071
13.3100,10.79908753
13.3150,10.79527021
13.3200,10.79471109
13.3250,10.79743863
13.3300,10.80353157
13.3350,10.81293999
13.3400,10.82556167
13.3450,10.84176523
13.3500,10.8612596
13.3550,10.88437254
13.3600,10.91085649
13.3650,10.94088625
13.3700,10.97448617
13.3750,11.01165604
13.3800,11.05265074
13.3850,11.09728564
13.3900,11.14554576
13.3950,11.19764905
13.4000,11.25349359
13.4050,11.31317742
13.4100,11.37663287
13.4150,11.44387436
13.4200,11.51512863
13.4250,11.59034338
13.4300,11.6696486
13.4350,11.75285071
13.4400,11.84002308
13.4450,11.93123704
13.4500,12.02635544
13.4550,12.12561329
13.4600,12.22899116
13.4650,12.33635373
13.4700,12.44751839
13.4750,12.56261155
13.4800,12.6817007
13.4850,12.80475141
13.4900,12.93172021
13.4950,13.06252599
13.5000,13.19721273
13.5050,13.33563639
13.5100,13.47781192
13.5150,13.62347163
13.5200,13.77225971
13.5250,13.92416302
13.5300,14.07916874
13.5350,14.23711124
13.5400,14.39772893
13.5450,14.56090959
13.5500,14.72644099
13.5550,14.89413887
13.5600,15.0639533
13.5650,15.23571769
13.5700,15.40911925
13.5750,15.58419254
13.5800,15.76078412
13.5850,15.93879068
13.5900,16.11820805
13.5950,16.29892334
13.6000,16.4808434
13.6050,16.66371982
13.6100,16.84787975
13.6150,17.0330637
13.6200,17.21932656
13.6250,17.40665174
13.6300,17.59508054
13.6350,17.78448212
13.6400,17.97492731
13.6450,18.1663297
13.6500,18.35879873
13.6550,18.55216737
13.6600,18.7466676
13.6650,18.94213692
13.6700,19.13864208
13.6750,19.33606544
13.6800,19.53420276
13.6850,19.73324652
13.6900,19.93319572
13.6950,20.13392725
13.7000,20.33549239
13.7050,20.53795339
13.7100,20.74143444
13.7150,20.94572971
13.7200,21.15094738
13.7250,21.35723459
13.7300,21.56457962
13.7350,21.77320421
13.7400,21.98304602
13.7450,22.19405021
13.7500,22.40640634
13.7550,22.61994494
13.7600,22.83477865
13.7650,23.05100708
13.7700,23.26874263
13.7750,23.48777165
13.7800,23.70801311
13.7850,23.92943248
13.7900,24.15202615
13.7950,24.37558761
13.8000,24.59995283
13.8050,24.82507393
13.8100,25.05083725
13.8150,25.27730288
13.8200,25.50443513
13.8250,25.73211568
13.8300,25.96023412
13.8350,26.18857909
13.8400,26.4172173
13.8450,26.64617456
13.8500,26.87549629
13.8550,27.10521559
13.8600,27.33506033
13.8650,27.56502307
13.8700,27.79520176
13.8750,28.02566065
13.8800,28.25656513
13.8850,28.48782254
13.8900,28.71926917
13.8950,28.951114
13.9000,29.18325899
13.9050,29.41579632
13.9100,29.64865124
13.9150,29.88202651
13.9200,30.115701
13.9250,30.34979793
13.9300,30.58431898
13.9350,30.81932269
13.9400,31.05481377
13.9450,31.29075898
13.9500,31.52703389
13.9550,31.76387847
13.9600,32.00128575
13.9650,32.23914394
13.9700,32.47740039
13.9750,32.71611379
13.9800,32.95547856
13.9850,33.19536572
13.9900,33.43587377
13.9950,33.67705431
14.0000,33.91886981
14.0050,34.16135947
14.0100,34.40439282
14.0150,34.64814106
14.0200,34.89247792
14.0250,35.13742372
14.0300,35.38283092
14.0350,35.62872949
14.0400,35.875324
14.0450,36.12254282
14.0500,36.37044119
14.0550,36.61903816
14.0600,36.86834048
14.0650,37.11820625
14.0700,37.36854067
14.0750,37.61942956
14.0800,37.87081921
14.0850,38.12273436
14.0900,38.3751726
14.0950,38.62797497
14.1000,38.88121692
14.1050,39.13482478
14.1100,39.38880009
14.1150,39.64314684
14.1200,39.89776894
14.1250,40.15257271
14.1300,40.40746778
14.1350,40.66262563
14.1400,40.91766239
14.1450,41.1725829
14.1500,41.42726948
14.1550,41.68162578
14.1600,41.93589272
14.1650,42.18997472
14.1700,42.44402933
14.1750,42.69777032
14.1800,42.95102317
14.1850,43.20379078
14.1900,43.45610424
14.1950,43.70789229
14.2000,43.95919165
14.2050,44.2098174
14.2100,44.45962041
14.2150,44.7084679
14.2200,44.95630956
14.2250,45.20297457
14.2300,45.4484296
14.2350,45.69271369
14.2400,45.9360093
14.2450,46.1781191
14.2500,46.41909049
14.2550,46.65875709
14.2600,46.89690702
14.2650,47.13389051
14.2700,47.36969367
14.2750,47.60410194
14.2800,47.83688057
14.2850,48.06826207
14.2900,48.29817873
14.2950,48.52658527
14.3000,48.75340938
14.3050,48.97856089
14.3100,49.20210999
14.3150,49.42386393
14.3200,49.64386207
14.3250,49.86196374
14.3300,50.07832798
14.3350,50.29291506
14.3400,50.50542804
14.3450,50.71593988
14.3500,50.924545
14.3550,51.1313209
14.3600,51.33620496
14.3650,51.53926326
14.3700,51.74033801
14.3750,51.93953814
14.3800,52.13686926
14.3850,52.33246698
14.3900,52.52613863
14.3950,52.71800858
14.4000,52.90780203
14.4050,53.09546114
14.4100,53.28072647
14.4150,53.46370839
14.4200,53.64426195
14.4250,53.82248014
14.4300,53.99843666
14.4350,54.17213387
14.4400,54.34377628
14.4450,54.51315942
14.4500,54.68014208
14.4550,54.84490925
14.4600,55.00711759
14.4650,55.16666903
14.4700,55.32308359
14.4750,55.4766689
14.4800,55.62751565
14.4850,55.77563567
14.4900,55.92099728
14.4950,56.06349451
14.5000,56.20289546
14.5050,56.3391289
14.5100,56.47200862
14.5150,56.60147482
14.5200,56.72735928
14.5250,56.8495897
14.5300,56.9680743
14.5350,57.08272594
14.5400,57.19364913
14.5450,57.30126854
14.5500,57.40595406
14.5550,57.5078182
14.5600,57.60716948
14.5650,57.70407443
14.5700,57.79882615
14.5750,57.89190407
14.5800,57.98395664
14.5850,58.07506852
14.5900,58.16548001
14.5950,58.25556048
14.6000,58.34572346
14.6050,58.43614437
14.6100,58.52696915
14.6150,58.61815384
14.6200,58.70948627
14.6250,58.80081863
14.6300,58.89204954
14.6350,58.9829978
14.6400,59.07363337
14.6450,59.16385708
14.6500,59.25316518
14.6550,59.34135762
14.6600,59.42824839
14.6650,59.51372225
14.6700,59.59803598
14.6750,59.68118525
14.6800,59.76319563
14.6850,59.84394399
14.6900,59.92333913
14.6950,60.00093991
14.7000,60.07675808
14.7050,60.15066159
14.7100,60.22253531
14.7150,60.29187948
14.7200,60.35857752
14.7250,60.42258257
14.7300,60.48340115
14.7350,60.540659
14.7400,60.59431992
14.7450,60.64431292
14.7500,60.69096134
14.7550,60.73421321
14.7600,60.77399789
14.7650,60.81013197
14.7700,60.84260714
14.7750,60.8710422
14.7800,60.89511303
14.7850,60.91453123
14.7900,60.9291454
14.7950,60.93902766
14.8000,60.94431166
14.8050,60.94509281
14.8100,60.94150803
14.8150,60.93362174
14.8200,60.92178791
14.8250,60.90645044
14.8300,60.88785937
14.8350,60.86612249
14.8400,60.84118587
14.8450,60.81288799
14.8500,60.78143296
14.8550,60.74721082
14.8600,60.71026189
14.8650,60.67081068
14.8700,60.62886024
14.8750,60.58445883
14.8800,60.53738306
14.8850,60.48769084
14.8900,60.43530952
14.8950,60.37991405
14.9000,60.32112372
14.9050,60.25865667
14.9100,60.19242623
14.9150,60.12264792
14.9200,60.04989486
14.9250,59.97461236
14.9300,59.89685763
14.9350,59.81681788
14.9400,59.73462338
14.9450,59.6506244
14.9500,59.56457994
14.9550,59.47655364
14.9600,59.38622997
14.9650,59.29342513
14.9700,59.19824893
14.9750,59.10065293
14.9800,59.00062159
14.9850,58.89823986
14.9900,58.79365004
14.9950,58.68712417
15.0000,58.57876111
15.0050,58.46861382
15.0100,58.35682964
15.0150,58.24340711
15.0200,58.12888946
15.0250,58.01310184
15.0300,57.89618711
15.0350,57.77849654
15.0400,57.6599965
15.0450,57.54101571
15.0500,57.42166002
15.0550,57.30211345
15.0600,57.18257868
15.0650,57.06304673
15.0700,56.94366506
15.0750,56.82482361
15.0800,56.70663574
15.0850,56.58915408
15.0900,56.47234116
15.0950,56.35615146
15.1000,56.24059712
15.1050,56.12539299
15.1100,56.01032828
15.1150,55.89502521
15.1200,55.77909134
15.1250,55.66194148
15.1300,55.54348479
15.1350,55.42344763
15.1400,55.30179178
15.1450,55.17846064
15.1500,55.05316622
15.1550,54.92556795
15.1600,54.79587277
15.1650,54.6638954
15.1700,54.52970384
15.1750,54.39309809
15.1800,54.2538623
15.1850,54.11189928
15.1900,53.96723981
15.1950,53.81988375
15.2000,53.66980209
15.2050,53.51717262
15.2100,53.36190587
15.2150,53.20415905
15.2200,53.04324253
15.2250,52.87910135
15.2300,52.71152783
15.2350,52.54050237
15.2400,52.36603462
15.2450,52.18816613
15.2500,52.00713685
15.2550,51.823403
15.2600,51.63768391
15.2650,51.45020183
15.2700,51.26139678
15.2750,51.07145377
15.2800,50.88055818
15.2850,50.68860286
15.2900,50.49577912
15.2950,50.30197426
15.3000,50.10719856
15.3050,49.91164645
15.3100,49.71529563
15.3150,49.51864889
15.3200,49.32142371
15.3250,49.1239157
15.3300,48.92640782
15.3350,48.72904107
15.3400,48.53186966
15.3450,48.33512164
15.3500,48.13881704
15.3550,47.94299045
15.3600,47.74794227
15.3650,47.55401447
15.3700,47.36139993
15.3750,47.17030327
15.3800,46.98079676
15.3850,46.79306534
15.3900,46.60724461
15.3950,46.42334908
15.4000,46.24136488
15.4050,46.06130958
15.4100,45.8832437
15.4150,45.7072742
15.4200,45.53348276
15.4250,45.36183489
15.4300,45.19206709
15.4350,45.0240904
15.4400,44.8579257
15.4450,44.69347379
15.4500,44.53074503
15.4550,44.36966774
15.4600,44.21024009
15.4650,44.05259866
15.4700,43.8969163
15.4750,43.74311684
15.4800,43.59133523
15.4850,43.44162353
15.4900,43.29368213
15.4950,43.14753035
15.5000,43.00302831
15.5050,42.85988831
15.5100,42.71798683
15.5150,42.57701628
15.5200,42.43713724
15.5250,42.29805273
15.5300,42.15958887
15.5350,42.02176964
15.5400,41.88429808
15.5450,41.74677713
15.5500,41.60909916
15.5550,41.47083889
15.5600,41.33161927
15.5650,41.19130936
15.5700,41.04965892
15.5750,40.90627995
15.5800,40.76122475
15.5850,40.61441262
15.5900,40.46555205
15.5950,40.31503622
15.6000,40.16274584
15.6050,40.00864772
15.6100,39.852906
15.6150,39.69534103
15.6200,39.53610437
15.6250,39.37517949
15.6300,39.2127962
15.6350,39.04869175
15.6400,38.88324627
15.6450,38.71639532
15.6500,38.54825308
15.6550,38.37889601
15.6600,38.20865703
15.6650,38.03751813
15.6700,37.86588194
15.6750,37.69362232
15.6800,37.5209328
15.6850,37.34818998
15.6900,37.17553885
15.6950,37.00292912
15.7000,36.83062159
15.7050,36.6587046
15.7100,36.48717061
15.7150,36.31622618
15.7200,36.14597675
15.7250,35.97640828
15.7300,35.80776475
15.7350,35.64025142
15.7400,35.47374413
15.7450,35.30840647
15.7500,35.14430752
15.7550,34.98164301
15.7600,34.82050636
15.7650,34.66103658
15.7700,34.50309844
15.7750,34.34700748
15.7800,34.19264221
15.7850,34.03999109
15.7900,33.88928708
15.7950,33.74035153
15.8000,33.59314394
15.8050,33.44790722
15.8100,33.30446176
15.8150,33.16271369
15.8200,33.02260928
15.8250,32.88416205
15.8300,32.74733372
15.8350,32.61191314
15.8400,32.47798179
15.8450,32.34563012
15.8500,32.2145402
15.8550,32.08489867
15.8600,31.95655029
15.8650,31.82947687
15.8700,31.70351164
15.8750,31.57877724
15.8800,31.45527745
15.8850,31.33297964
15.8900,31.2119674
15.8950,31.09191874
15.9000,30.97295019
15.9050,30.8551361
15.9100,30.73835658
15.9150,30.62279532
15.9200,30.50831447
15.9250,30.39501011
15.9300,30.28267988
15.9350,30.17151226
15.9400,30.06132246
15.9450,29.95207559
15.9500,29.84391373
15.9550,29.73697471
15.9600,29.63114749
15.9650,29.52650802
15.9700,29.42311853
15.9750,29.32107494
15.9800,29.22047745
15.9850,29.12109947
15.9900,29.02287525
15.9950,28.92598608
16.0000,28.83032245
16.0050,28.73602676
16.0100,28.64308954
16.0150,28.55147262
16.0200,28.46111968
16.0250,28.37207678
16.0300,28.28416573
16.0350,28.19735383
16.0400,28.11168508
16.0450,28.02705182
16.0500,27.94346768
16.0550,27.86098876
16.0600,27.77933523
16.0650,27.69862024
16.0700,27.61894655
16.0750,27.54011797
16.0800,27.4623736
16.0850,27.38556239
16.0900,27.30973271
16.0950,27.23519377
16.1000,27.16185482
16.1050,27.08982228
16.1100,27.01923491
16.1150,26.95024369
16.1200,26.88274524
16.1250,26.81685503
16.1300,26.752491
16.1350,26.68982344
16.1400,26.62879764
16.1450,26.56957694
16.1500,26.5121421
16.1550,26.45651543
16.1600,26.40277065
16.1650,26.35102193
16.1700,26.30113184
16.1750,26.25327003
16.1800,26.20732874
16.1850,26.16341294
16.1900,26.12157212
16.1950,26.08204827
16.2000,26.04486631
16.2050,26.01014056
16.2100,25.977873
16.2150,25.94804956
16.2200,25.92088863
16.2250,25.89646924
16.2300,25.87470139
16.2350,25.85569054
16.2400,25.83955819
16.2450,25.82647871
16.2500,25.81623045
16.2550,25.80891428
16.2600,25.80450369
16.2650,25.8030023
16.2700,25.80427203
16.2750,25.80841453
16.2800,25.81551282
16.2850,25.82546044
16.2900,25.8383132
16.2950,25.8541321
16.3000,25.87270195
16.3050,25.89400104
16.3100,25.91794268
16.3150,25.94458341
16.3200,25.97377436
16.3250,26.00533472
16.3300,26.03929576
16.3350,26.07564983
16.3400,26.1142626
16.3450,26.15500937
16.3500,26.1979027
16.3550,26.24288531
16.3600,26.28995749
16.3650,26.33882095
16.3700,26.3894708
16.3750,26.44189693
16.3800,26.49583957
16.3850,26.55141831
16.3900,26.60850111
16.3950,26.6667945
16.4000,26.72648687
16.4050,26.78742086
16.4100,26.84951509
16.4150,26.91264622
16.4200,26.97693918
16.4250,27.04209957
16.4300,27.10832166
16.4350,27.17535279
16.4400,27.24319627
16.4450,27.31171857
16.4500,27.38102671
16.4550,27.45099112
16.4600,27.52152006
16.4650,27.59256027
16.4700,27.66424855
16.4750,27.73664527
16.4800,27.8098082
16.4850,27.88366346
16.4900,27.95840749
16.4950,28.03404355
16.5000,28.11063267
16.5050,28.18811728
16.5100,28.2666523
16.5150,28.34636008
16.5200,28.42716416
16.5250,28.50890062
16.5300,28.59189239
16.5350,28.67612029
16.5400,28.76155544
16.5450,28.84823095
16.5500,28.93629671
16.5550,29.02570367
16.5600,29.11662491
16.5650,29.20896142
16.5700,29.30272444
16.5750,29.39793283
16.5800,29.49451557
16.5850,29.5925582
16.5900,29.69201891
16.5950,29.79270966
16.6000,29.89497719
16.6050,29.99865857
16.6100,30.10378816
16.6150,30.21052146
16.6200,30.31897641
16.6250,30.42913962
16.6300,30.54122921
16.6350,30.65500315
16.6400,30.7706322
16.6450,30.88803608
16.6500,31.00716333
16.6550,31.12791028
16.6600,31.25029528
16.6650,31.37424176
16.6700,31.49973733
16.6750,31.62650616
16.6800,31.75456725
16.6850,31.88383672
16.6900,32.01421236
16.6950,32.14581341
16.7000,32.27843943
16.7050,32.41194383
16.7100,32.54633667
16.7150,32.68158573
16.7200,32.81759632
16.7250,32.95449861
16.7300,33.09216872
16.7350,33.2306966
16.7400,33.3701059
16.7450,33.51030527
16.7500,33.65124467
16.7550,33.79292806
16.7600,33.93554477
16.7650,34.07890684
16.7700,34.22313953
16.7750,34.36795944
16.7800,34.51331216
16.7850,34.65940366
16.7900,34.80602923
16.7950,34.95313729
16.8000,35.10076566
16.8050,35.24878495
16.8100,35.39712381
16.8150,35.54568998
16.8200,35.69456124
16.8250,35.84378866
16.8300,35.99324823
16.8350,36.14308385
16.8400,36.29336965
16.8450,36.44407023
16.8500,36.59532926
16.8550,36.74690716
16.8600,36.89886081
16.8650,37.0513866
16.8700,37.20454866
16.8750,37.35824324
16.8800,37.51264977
16.8850,37.66752581
16.8900,37.8229077
16.8950,37.97875313
16.9000,38.13489012
16.9050,38.29127846
16.9100,38.44797357
16.9150,38.60472366
16.9200,38.76148143
16.9250,38.91822743
16.9300,39.07459811
16.9350,39.23085192
16.9400,39.38702299
16.9450,39.54300654
16.9500,39.69866991
16.9550,39.85398709
16.9600,40.00898161
16.9650,40.16364599
16.9700,40.31780587
16.9750,40.4715852
16.9800,40.62486859
16.9850,40.7776049
16.9900,40.92974586
16.9950,41.08117453
17.0000,41.23195794
17.0050,41.38201477
17.0100,41.53142067
17.0150,41.67991528
17.0200,41.82739537
17.0250,41.9737557
17.0300,42.11893369
17.0350,42.26274762
17.0400,42.40530682
17.0450,42.54662805
17.0500,42.68687783
17.0550,42.82608097
17.0600,42.96416441
17.0650,43.10132195
17.0700,43.23774679
17.0750,43.37351012
17.0800,43.50885232
17.0850,43.64368688
17.0900,43.77807932
17.0950,43.91208527
17.1000,44.04575631
17.1050,44.17933215
17.1100,44.31292849
17.1150,44.44663153
17.1200,44.58076954
17.1250,44.71538506
17.1300,44.85076523
17.1350,44.98670474
17.1400,45.12333661
17.1450,45.2608307
17.1500,45.39914907
17.1550,45.53853801
17.1600,45.67878221
17.1650,45.81995482
17.1700,45.96200057
17.1750,46.10492675
17.1800,46.2485582
17.1850,46.3930694
17.1900,46.53844239
17.1950,46.6848401
17.2000,46.83209221
17.2050,46.98013614
17.2100,47.12894834
17.2150,47.27848826
17.2200,47.42854261
17.2250,47.57920397
17.2300,47.73036475
17.2350,47.88172525
17.2400,48.03317431
17.2450,48.18450484
17.2500,48.335666
17.2550,48.48648895
17.2600,48.63681226
17.2650,48.78670115
17.2700,48.93608192
17.2750,49.0850219
17.2800,49.2335261
17.2850,49.38173231
17.2900,49.52956451
17.2950,49.67700911
17.3000,49.82379388
17.3050,49.96990157
17.3100,50.11513567
17.3150,50.25956439
17.3200,50.40318155
17.3250,50.54603386
17.3300,50.68788146
17.3350,50.82903025
17.3400,50.96939266
17.3450,51.10894055
17.3500,51.24750041
17.3550,51.38507473
17.3600,51.5216513
17.3650,51.65715368
17.3700,51.79147173
17.3750,51.92457867
17.3800,52.05646797
17.3850,52.18735481
17.3900,52.31752141
17.3950,52.44706712
17.4000,52.57620853
17.4050,52.70479369
17.4100,52.83295302
17.4150,52.96054526
17.4200,53.08742403
17.4250,53.21363376
17.4300,53.33904103
17.4350,53.46364565
17.4400,53.58742288
17.4450,53.71039381
17.4500,53.83259475
17.4550,53.95409221
17.4600,54.07517223
17.4650,54.19568376
17.4700,54.31555593
17.4750,54.4347664
17.4800,54.55317471
17.4850,54.67074214
17.4900,54.78719222
17.4950,54.90233942
17.5000,55.01629626
17.5050,55.1290673
17.5100,55.24057175
17.5150,55.35048265
17.5200,55.45889477
17.5250,55.56579852
17.5300,55.67119213
17.5350,55.77489072
17.5400,55.87695364
17.5450,55.97758032
17.5500,56.07679601
17.5550,56.17459265
17.5600,56.27071837
17.5650,56.36485976
17.5700,56.45689704
17.5750,56.54677453
17.5800,56.63460154
17.5850,56.72046528
17.5900,56.80430278
17.5950,56.88607856
17.6000,56.96602985
17.6050,57.0440847
17.6100,57.12023976
17.6150,57.19468432
17.6200,57.26746875
17.6250,57.33853361
17.6300,57.40806159
17.6350,57.47565652
17.6400,57.54123489
17.6450,57.60488566
17.6500,57.66668387
17.6550,57.72656901
17.6600,57.78439626
17.6650,57.84000406
17.6700,57.89333961
17.6750,57.94438038
17.6800,57.9932011
17.6850,58.0397424
17.6900,58.08389663
17.6950,58.12564398
17.7000,58.1647657
17.7050,58.201513
17.7100,58.23562201
17.7150,58.26725463
17.7200,58.29624487
17.7250,58.32265759
17.7300,58.3466681
17.7350,58.36832508
17.7400,58.38751931
17.7450,58.40390161
17.7500,58.41716129
17.7550,58.42697227
17.7600,58.43321232
17.7650,58.43597977
17.7700,58.435489
17.7750,58.43214406
17.7800,58.42602893
17.7850,58.41728417
17.7900,58.40601326
17.7950,58.39241846
17.8000,58.37628295
17.8050,58.35768178
17.8100,58.33632423
17.8150,58.31250495
17.8200,58.2862082
17.8250,58.2572879
17.8300,58.22562043
17.8350,58.19153081
17.8400,58.15499333
17.8450,58.11580963
17.8500,58.07401679
17.8550,58.02972221
17.8600,57.98303076
17.8650,57.93429552
17.8700,57.88353482
17.8750,57.83080774
17.8800,57.77591893
17.8850,57.71868026
17.8900,57.65901274
17.8950,57.59703699
17.9000,57.53271363
17.9050,57.46609226
17.9100,57.39720936
17.9150,57.32592047
17.9200,57.25246107
17.9250,57.17674867
17.9300,57.09872657
17.9350,57.01845943
17.9400,56.93601693
17.9450,56.85122452
17.9500,56.76403182
17.9550,56.67445072
17.9600,56.58267832
17.9650,56.4890237
17.9700,56.39343056
17.9750,56.29604868
17.9800,56.19661859
17.9850,56.09505786
17.9900,55.99130799
17.9950,55.88573996
18.0000,55.77844181
18.0050,55.66972058
18.0100,55.55980644
18.0150,55.44895437
18.0200,55.33710395
18.0250,55.22403327
18.0300,55.10972758
18.0350,54.99422485
18.0400,54.87755697
18.0450,54.7598541
18.0500,54.64131286
18.0550,54.52225854
18.0600,54.40257635
18.0650,54.28216275
18.0700,54.16083504
18.0750,54.03820838
18.0800,53.91393165
18.0850,53.78793342
18.0900,53.66025689
18.0950,53.53080705
18.1000,53.40007698
18.1050,53.26826056
18.1100,53.13552375
18.1150,53.00207422
18.1200,52.86785761
18.1250,52.73302853
18.1300,52.59751691
18.1350,52.46128347
18.1400,52.32393166
18.1450,52.18550456
18.1500,52.04593689
18.1550,51.9053421
18.1600,51.76376365
18.1650,51.62095093
18.1700,51.47711699
18.1750,51.33204597
18.1800,51.1859436
18.1850,51.03887084
18.1900,50.89110016
18.1950,50.74251346
18.2000,50.5930763
18.2050,50.44259148
18.2100,50.2909698
18.2150,50.13835147
18.2200,49.9843433
18.2250,49.82904887
18.2300,49.67252594
18.2350,49.51471794
18.2400,49.35555798
18.2450,49.19508181
18.2500,49.03318001
18.2550,48.87001699
18.2600,48.70573237
18.2650,48.54019318
18.2700,48.37355706
18.2750,48.2059452
18.2800,48.03757068
18.2850,47.86834198
18.2900,47.69839728
18.2950,47.52756297
18.3000,47.35571413
18.3050,47.18265795
18.3100,47.00843525
18.3150,46.83323245
18.3200,46.65724009
18.3250,46.48082639
18.3300,46.30381917
18.3350,46.12623839
18.3400,45.94825981
18.3450,45.76985755
18.3500,45.5910201
18.3550,45.41177716
18.3600,45.23207048
18.3650,45.0520956
18.3700,44.87183009
18.3750,44.69154356
18.3800,44.51135395
18.3850,44.33134049
18.3900,44.15155059
18.3950,43.97209638
18.4000,43.79277311
18.4050,43.61342698
18.4100,43.43428216
18.4150,43.25513638
18.4200,43.07616713
18.4250,42.89752565
18.4300,42.71935914
18.4350,42.54149238
18.4400,42.3639973
18.4450,42.18686634
18.4500,42.01013758
18.4550,41.83336201
18.4600,41.65652168
18.4650,41.4793172
18.4700,41.30142918
18.4750,41.12301827
18.4800,40.94388045
18.4850,40.76411345
18.4900,40.58341245
18.4950,40.40186831
18.5000,40.21946492
18.5050,40.03616632
18.5100,39.85177679
18.5150,39.66619538
18.5200,39.47970593
18.5250,39.29222135
18.5300,39.10386516
18.5350,38.91447137
18.5400,38.72436012
18.5450,38.53351813
18.5500,38.3420547
18.5550,38.14996301
18.5600,37.95719043
18.5650,37.76400148
18.5700,37.57016616
18.5750,37.3759875
18.5800,37.18116223
18.5850,36.98611971
18.5900,36.79082214
18.5950,36.59542816
18.6000,36.40013013
18.6050,36.20514548
18.6100,36.01048134
18.6150,35.8160913
18.6200,35.62216261
18.6250,35.42867292
18.6300,35.23574256
18.6350,35.04359382
18.6400,34.85229521
18.6450,34.66204363
18.6500,34.4729109
18.6550,34.28493244
18.6600,34.09819054
18.6650,33.91261629
18.6700,33.72841975
18.6750,33.54566763
18.6800,33.36446936
18.6850,33.18466981
18.6900,33.00635839
18.6950,32.82939877
18.7000,32.65393024
18.7050,32.47972995
18.7100,32.30679963
18.7150,32.13509195
18.7200,31.96451737
18.7250,31.79476675
18.7300,31.62588392
18.7350,31.45768185
18.7400,31.29028537
18.7450,31.1235476
18.7500,30.95733787
18.7550,30.79180691
18.7600,30.62701941
18.7650,30.46310124
18.7700,30.30016414
18.7750,30.13808892
18.7800,29.97673734
18.7850,29.81593703
18.7900,29.65578707
18.7950,29.49603874
18.8000,29.33670746
18.8050,29.17780401
18.8100,29.01963169
18.8150,28.86221623
18.8200,28.70517178
18.8250,28.54840716
18.8300,28.39203205
18.8350,28.2360367
18.8400,28.08032015
18.8450,27.92486019
18.8500,27.76957145
18.8550,27.61468353
18.8600,27.46001876
18.8650,27.3055672
18.8700,27.15156083
18.8750,26.99786374
18.8800,26.84471846
18.8850,26.69192572
18.8900,26.53975248
18.8950,26.38803177
18.9000,26.23704826
18.9050,26.08667854
18.9100,25.93708148
18.9150,25.78822003
18.9200,25.64010816
18.9250,25.49277388
18.9300,25.34618414
18.9350,25.20026176
18.9400,25.05491222
18.9450,24.90995139
18.9500,24.76554287
18.9550,24.62140076
18.9600,24.47763712
18.9650,24.33404153
18.9700,24.19065153
18.9750,24.04720342
18.9800,23.90365401
18.9850,23.76008904
18.9900,23.61637341
18.9950,23.47252945
19.0000,23.32837664
19.0050,23.18415321
19.0100,23.03987115
19.0150,22.89550882
19.0200,22.75113902
19.0250,22.60680269
19.0300,22.4626713
19.0350,22.31873992
19.0400,22.17515894
19.0450,22.03197396
19.0500,21.88905665
19.0550,21.74652165
19.0600,21.60425729
19.0650,21.46245096
19.0700,21.32091786
19.0750,21.17970955
19.0800,21.03889623
19.0850,20.89842209
19.0900,20.75849548
19.0950,20.61911606
19.1000,20.48030583
19.1050,20.34191525
19.1100,20.20385157
19.1150,20.06609638
19.1200,19.92874838
19.1250,19.79203121
19.1300,19.65566957
19.1350,19.51970008
19.1400,19.38401695
19.1450,19.24858376
19.1500,19.11328483
19.1550,18.97799041
19.1600,18.84277962
19.1650,18.7075088
19.1700,18.57221694
19.1750,18.43695595
19.1800,18.30178246
19.1850,18.16669489
19.1900,18.03166054
19.1950,17.89683186
19.2000,17.76218878
19.2050,17.62765831
19.2100,17.49344525
19.2150,17.35966076
19.2200,17.22621582
19.2250,17.09335575
19.2300,16.96115169
19.2350,16.82967259
19.2400,16.69933017
19.2450,16.57018215
19.2500,16.4422146
19.2550,16.31579025
19.2600,16.19077327
19.2650,16.06750854
19.2700,15.94604651
19.2750,15.82656322
19.2800,15.70911053
19.2850,15.59398602
19.2900,15.48104011
19.2950,15.37029633
19.3000,15.26189386
19.3050,15.15588768
19.3100,15.05235949
19.3150,14.9513169
19.3200,14.85290267
19.3250,14.75724369
19.3300,14.66436492
19.3350,14.57449791
19.3400,14.48770061
19.3450,14.40404426
19.3500,14.32383516
19.3550,14.24702846
19.3600,14.17388544
19.3650,14.10450102
19.3700,14.03912082
19.3750,13.97774566
19.3800,13.92058425
19.3850,13.86768456
19.3900,13.81922216
19.3950,13.77505843
19.4000,13.73538612
19.4050,13.70038136
19.4100,13.66988417
19.4150,13.64421055
19.4200,13.62337931
19.4250,13.60716538
19.4300,13.59585909
19.4350,13.58959486
19.4400,13.58825138
19.4450,13.59215921
19.4500,13.60134144
19.4550,13.61588976
19.4600,13.63588672
19.4650,13.66139588
19.4700,13.69260961
19.4750,13.72945065
19.4800,13.77205062
19.4850,13.82045843
19.4900,13.87467873
19.4950,13.93482362
19.5000,14.00070334
19.5050,14.07262403
19.5100,14.15022785
19.5150,14.23355613
19.5200,14.32263822
19.5250,14.41741315
19.5300,14.51790142
19.5350,14.62387932
19.5400,14.73522155
19.5450,14.85197481
19.5500,14.97402359
19.5550,15.1012304
19.5600,15.23348371
19.5650,15.37077232
19.5700,15.51291004
19.5750,15.65978579
19.5800,15.81131027
19.5850,15.96722113
19.5900,16.12754491
19.5950,16.29231856
19.6000,16.46143672
19.6050,16.63476543
19.6100,16.81216594
19.6150,16.99351335
19.6200,17.17877192
19.6250,17.36778662
19.6300,17.560373
19.6350,17.75635902
19.6400,17.95564954
19.6450,18.15824682
19.6500,18.36401146
19.6550,18.57287292
19.6600,18.78467014
19.6650,18.99932525
19.6700,19.2166587
19.6750,19.43656604
19.6800,19.6589873
19.6850,19.88388187
19.6900,20.11092204
19.6950,20.34038138
19.7000,20.5721153
19.7050,20.80588226
19.7100,21.04179394
19.7150,21.27960686
19.7200,21.51931619
19.7250,21.76089598
19.7300,22.0041784
19.7350,22.249097
19.7400,22.49564126
19.7450,22.74353958
19.7500,22.99302003
19.7550,23.24387158
19.7600,23.49623878
19.7650,23.75008702
19.7700,24.00527521
19.7750,24.26177603
19.7800,24.51945783
19.7850,24.77853167
19.7900,25.03885111
19.7950,25.30028169
19.8000,25.56289513
19.8050,25.82661292
19.8100,26.0913454
19.8150,26.35700487
19.8200,26.62381777
19.8250,26.89159976
19.8300,27.16042698
19.8350,27.43021836
19.8400,27.70087726
19.8450,27.9723863
19.8500,28.2446296
19.8550,28.51768911
19.8600,28.79151722
19.8650,29.06612077
19.8700,29.34144978
19.8750,29.61750878
19.8800,29.89440778
19.8850,30.17201714
19.8900,30.45051453
19.8950,30.72970066
19.9000,31.00952144
19.9050,31.29012136
19.9100,31.5713481
19.9150,31.85326484
19.9200,32.13560988
19.9250,32.41839719
19.9300,32.70164262
19.9350,32.98528415
19.9400,33.26912944
19.9450,33.55294363
19.9500,33.8367566
19.9550,34.1204657
19.9600,34.4040733
19.9650,34.6875505
19.9700,34.97080611
19.9750,35.25387378
19.9800,35.53669635
19.9850,35.81913283
19.9900,36.10131681
19.9950,36.3830164
20.0000,36.66426903
20.0050,36.94538043
20.0100,37.22626803
20.0150,37.50665694
20.0200,37.78648041
20.0250,38.06582228
20.0300,38.34470325
20.0350,38.62314563
20.0400,38.90117055
20.0450,39.17878121
20.0500,39.45592378
20.0550,39.73269695
20.0600,40.00908399
20.0650,40.28515342
20.0700,40.56085238
20.0750,40.83596118
20.0800,41.1106029
20.0850,41.3843849
20.0900,41.6574328
20.0950,41.92978501
20.1000,42.20136387
20.1050,42.47211992
20.1100,42.74218882
20.1150,43.01139133
20.1200,43.27966519
20.1250,43.54690571
20.1300,43.81288806
20.1350,44.07788851
20.1400,44.34178308
20.1450,44.60448444
20.1500,44.86583112
20.1550,45.12568939
20.1600,45.38444533
20.1650,45.64197891
20.1700,45.89830926
20.1750,46.15355636
20.1800,46.40749249
20.1850,46.6602381
20.1900,46.91162495
20.1950,47.16182171
20.2000,47.41116323
20.2050,47.65950022
20.2100,47.9068937
20.2150,48.15336361
20.2200,48.39904466
20.2250,48.64371975
20.2300,48.88732054
20.2350,49.12993531
20.2400,49.37159028
20.2450,49.61251546
20.2500,49.85243645
20.2550,50.09123286
20.2600,50.32873224
20.2650,50.56501227
20.2700,50.80013012
20.2750,51.03399312
20.2800,51.26640197
20.2850,51.49745204
20.2900,51.7268729
20.2950,51.95474651
20.3000,52.1811465
20.3050,52.40574308
20.3100,52.62817311
20.3150,52.84891868
20.3200,53.0679569
20.3250,53.2853038
20.3300,53.50076987
20.3350,53.71418506
20.3400,53.9258539
20.3450,54.13542318
20.3500,54.34277454
20.3550,54.54785332
20.3600,54.75043679
20.3650,54.95046368
20.3700,55.14782917
20.3750,55.34235974
20.3800,55.53383351
20.3850,55.72258529
20.3900,55.90888903
20.3950,56.09276546
20.4000,56.27410825
20.4050,56.45252382
20.4100,56.62833168
20.4150,56.801654
20.4200,56.97216358
20.4250,57.1398219
20.4300,57.30415954
20.4350,57.46543126
20.4400,57.62383962
20.4450,57.77960279
20.4500,57.93321963
20.4550,58.08479871
20.4600,58.23402753
20.4650,58.38088792
20.4700,58.52531726
20.4750,58.66688839
20.4800,58.8056075
20.4850,58.94124142
20.4900,59.07395325
20.4950,59.2035734
20.5000,59.32939246
20.5050,59.45133911
20.5100,59.56941223
20.5150,59.68355788
20.5200,59.79337821
20.5250,59.89867592
20.5300,59.99895795
20.5350,60.09385289
20.5400,60.18282635
20.5450,60.26569903
20.5500,60.34237417
20.5550,60.41314824
20.5600,60.47845587
20.5650,60.5383938
20.5700,60.59324758
20.5750,60.6431909
20.5800,60.68831175
20.5850,60.72887131
20.5900,60.76492082
20.5950,60.79622318
20.6000,60.82242573
20.6050,60.84367908
20.6100,60.86025023
20.6150,60.87153123
20.6200,60.87735457
20.6250,60.87751914
20.6300,60.87252742
20.6350,60.8628227
20.6400,60.84830716
20.6450,60.82955139
20.6500,60.80700439
20.6550,60.78068456
20.6600,60.75041154
20.6650,60.71549563
20.6700,60.67573727
20.6750,60.63113449
20.6800,60.581769
20.6850,60.52760437
20.6900,60.46807915
20.6950,60.40327592
20.7000,60.33360858
20.7050,60.25914454
20.7100,60.17976096
20.7150,60.09567371
20.7200,60.00740907
20.7250,59.91576048
20.7300,59.82205917
20.7350,59.72650827
20.7400,59.62933729
20.7450,59.53053326
20.7500,59.42992463
20.7550,59.32732504
20.7600,59.22260364
20.7650,59.11561462
20.7700,59.00624097
20.7750,58.89475866
20.7800,58.78185024
20.7850,58.66765658
20.7900,58.55229416
20.7950,58.4356428
20.8000,58.31810693
20.8050,58.19930075
20.8100,58.07879377
20.8150,57.95652086
20.8200,57.83253388
20.8250,57.70703733
20.8300,57.57998498
20.8350,57.45146632
20.8400,57.32159889
20.8450,57.19070526
20.8500,57.05908615
20.8550,56.92669177
20.8600,56.7934795
20.8650,56.65919361
20.8700,56.52345652
20.8750,56.38585366
20.8800,56.24584122
20.8850,56.10325277
20.8900,55.95801681
20.8950,55.81044648
20.9000,55.66077027
20.9050,55.50897968
20.9100,55.35520434
20.9150,55.19983663
20.9200,55.04321807
20.9250,54.88557323
20.9300,54.72716855
20.9350,54.56788848
20.9400,54.40785206
20.9450,54.24709333
20.9500,54.08554515
20.9550,53.92324778
20.9600,53.76015307
20.9650,53.59648625
20.9700,53.43261488
20.9750,53.26876368
20.9800,53.10503094
20.9850,52.94135109
20.9900,52.77794055
20.9950,52.61497077
21.0000,52.45219535
21.0050,52.289967
21.0100,52.12811048
21.0150,51.96667766
21.0200,51.80527801
21.0250,51.64377207
21.0300,51.48128654
21.0350,51.31757315
21.0400,51.15251281
21.0450,50.98595623
21.0500,50.81810912
21.0550,50.64900291
21.0600,50.47883682
21.0650,50.30796949
21.0700,50.13669191
21.0750,49.96504715
21.0800,49.79302814
21.0850,49.6207607
21.0900,49.44820382
21.0950,49.27506151
21.1000,49.10100083
21.1050,48.92586877
21.1100,48.74977033
21.1150,48.57244859
21.1200,48.39394781
21.1250,48.21417587
21.1300,48.03337691
21.1350,47.85163087
21.1400,47.66926026
21.1450,47.48593924
21.1500,47.30151275
21.1550,47.11622777
21.1600,46.92978818
21.1650,46.74241593
21.1700,46.5543318
21.1750,46.3657331
21.1800,46.17685718
21.1850,45.98763582
21.1900,45.79813671
21.1950,45.60798958
21.2000,45.41698946
21.2050,45.22528111
21.2100,45.03297095
21.2150,44.8399702
21.2200,44.64629251
21.2250,44.45211567
21.2300,44.25726996
21.2350,44.06163417
21.2400,43.86492422
21.2450,43.66702391
21.2500,43.46791122
21.2550,43.26771449
21.2600,43.06645876
21.2650,42.86426375
21.2700,42.66110688
21.2750,42.45718249
21.2800,42.25244357
21.2850,42.04694865
21.2900,41.8406562
21.2950,41.6335587
21.3000,41.42573773
21.3050,41.21719647
21.3100,41.00819627
21.3150,40.79859525
21.3200,40.58857586
21.3250,40.37796979
21.3300,40.16700457
21.3350,39.95586399
21.3400,39.74456474
21.3450,39.53352123
21.3500,39.32280014
21.3550,39.11282743
21.3600,38.90365675
21.3650,38.69555797
21.3700,38.48845007
21.3750,38.28254161
21.3800,38.07792035
21.3850,37.87464438
21.3900,37.67267782
21.3950,37.47238878
21.4000,37.2737554
21.4050,37.07719721
21.4100,36.8826586
21.4150,36.69035334
21.4200,36.50027002
21.4250,36.31266702
21.4300,36.1275371
21.4350,35.94491703
21.4400,35.76470135
21.4450,35.58689388
21.4500,35.41153431
21.4550,35.23841283
21.4600,35.06776057
21.4650,34.89939415
21.4700,34.73313092
21.4750,34.56910917
21.4800,34.40746673
21.4850,34.24807042
21.4900,34.09097834
21.4950,33.93642114
21.5000,33.78453478
21.5050,33.6351571
21.5100,33.48847503
21.5150,33.34444146
21.5200,33.20316209
21.5250,33.06449228
21.5300,32.92830859
21.5350,32.79469074
21.5400,32.66375534
21.5450,32.53545603
21.5500,32.4096618
21.5550,32.28606893
21.5600,32.16477817
21.5650,32.04553606
21.5700,31.9283087
21.5750,31.8128504
21.5800,31.69904157
21.5850,31.58682733
21.5900,31.47612333
21.5950,31.36663808
21.6000,31.25831597
21.6050,31.15093927
21.6100,31.04432884
21.6150,30.93860786
21.6200,30.83372144
21.6250,30.72957374
21.6300,30.62630853
21.6350,30.52376878
21.6400,30.42204113
21.6450,30.32115956
21.6500,30.22109439
21.6550,30.12179314
21.6600,30.02352634
21.6650,29.92622308
21.6700,29.82999344
21.6750,29.73493616
21.6800,29.64099871
21.6850,29.54801732
21.6900,29.45617456
21.6950,29.36532811
21.7000,29.27557595
21.7050,29.18681616
21.7100,29.09916362
21.7150,29.01268411
21.7200,28.92743023
21.7250,28.84315218
21.7300,28.75991107
21.7350,28.6778125
21.7400,28.59671984
21.7450,28.51684758
21.7500,28.43802181
21.7550,28.36022099
21.7600,28.28346956
21.7650,28.2077746
21.7700,28.13323926
21.7750,28.05986377
21.7800,27.98761701
21.7850,27.9168175
21.7900,27.84749142
21.7950,27.77960039
21.8000,27.71312501
21.8050,27.64822269
21.8100,27.58485194
21.8150,27.5231417
21.8200,27.46307262
21.8250,27.40484249
21.8300,27.34828644
21.8350,27.29351528
21.8400,27.24070962
21.8450,27.18982202
21.8500,27.14083209
21.8550,27.09378893
21.8600,27.04882027
21.8650,27.00608173
21.8700,26.96554972
21.8750,26.9273679
21.8800,26.89175335
21.8850,26.85853392
21.8900,26.82793748
21.8950,26.8000101
21.9000,26.77496659
21.9050,26.75292326
21.9100,26.73404723
21.9150,26.71842451
21.9200,26.70616831
21.9250,26.69750053
21.9300,26.69236876
21.9350,26.69101745
21.9400,26.69359233
21.9450,26.69994147
21.9500,26.71018587
21.9550,26.72421849
21.9600,26.74210593
21.9650,26.76384725
21.9700,26.78943363
21.9750,26.81886966
21.9800,26.85209613
21.9850,26.88922027
21.9900,26.93031286
21.9950,26.97517542
22.0000,27.02406986
22.0050,27.07679628
22.0100,27.13336488
22.0150,27.19360177
22.0200,27.25768054
22.0250,27.32545589
22.0300,27.39684261
22.0350,27.47173945
22.0400,27.55018266
22.0450,27.63200756
22.0500,27.71725567
22.0550,27.80597475
22.0600,27.89803735
22.0650,27.99347786
22.0700,28.09219794
22.0750,28.19396025
22.0800,28.2986686
22.0850,28.40621315
22.0900,28.51626227
22.0950,28.62878937
22.1000,28.74389835
22.1050,28.86157152
22.1100,28.98135598
22.1150,29.10350882
22.1200,29.22783734
22.1250,29.35412179
22.1300,29.48267533
22.1350,29.61327886
22.1400,29.74569848
22.1450,29.88015268
22.1500,30.01648256
22.1550,30.15482983
22.1600,30.29503853
22.1650,30.43702777
22.1700,30.5808537
22.1750,30.72641084
22.1800,30.87375425
22.1850,31.02287838
22.1900,31.17393812
22.1950,31.32700346
22.2000,31.48192014
22.2050,31.63893684
22.2100,31.79808032
22.2150,31.95926858
22.2200,32.12280099
22.2250,32.28863234
22.2300,32.456986
22.2350,32.62781581
22.2400,32.80110184
22.2450,32.97725898
22.2500,33.15626537
22.2550,33.33828921
22.2600,33.52322796
22.2650,33.71109743
22.2700,33.90190674
22.2750,34.09533593
22.2800,34.2915275
22.2850,34.49037323
22.2900,34.69140292
22.2950,34.89474363
22.3000,35.09992148
22.3050,35.30697341
22.3100,35.51581933
22.3150,35.72643397
22.3200,35.93851486
22.3250,36.15206593
22.3300,36.36703639
22.3350,36.58322603
22.3400,36.80045386
22.3450,37.01867845
22.3500,37.23788298
22.3550,37.45787985
22.3600,37.67855529
22.3650,37.89991597
22.3700,38.12181727
22.3750,38.34423512
22.3800,38.56736354
22.3850,38.79082437
22.3900,39.01475037
22.3950,39.23888512
22.4000,39.46316022
22.4050,39.68727565
22.4100,39.91144764
22.4150,40.13544084
22.4200,40.35920547
22.4250,40.5828366
22.4300,40.80605102
22.4350,41.0288256
22.4400,41.25115544
22.4450,41.47271358
22.4500,41.6933936
22.4550,41.91307331
22.4600,42.13166969
22.4650,42.34926339
22.4700,42.56569518
22.4750,42.78086601
22.4800,42.99476486
22.4850,43.20741383
22.4900,43.41859724
22.4950,43.6283062
22.5000,43.83633931
22.5050,44.04238274
22.5100,44.24626993
22.5150,44.44802594
22.5200,44.647336
22.5250,44.84437467
22.5300,45.03883987
22.5350,45.23085148
22.5400,45.42038555
22.5450,45.60727655
22.5500,45.79149689
22.5550,45.97295638
22.5600,46.15171979
22.5650,46.3279507
22.5700,46.50151816
22.5750,46.67268465
22.5800,46.84131644
22.5850,47.00745659
22.5900,47.17145134
22.5950,47.3333283
22.6000,47.49334346
22.6050,47.65161132
22.6100,47.80818112
22.6150,47.96316116
22.6200,48.11667548
22.6250,48.26887666
22.6300,48.41986926
22.6350,48.56989459
22.6400,48.71902646
22.6450,48.86723981
22.6500,49.01459227
22.6550,49.16102312
22.6600,49.30682371
22.6650,49.4520419
22.6700,49.59683185
22.6750,49.74134196
22.6800,49.88554643
22.6850,50.02981907
22.6900,50.17424413
22.6950,50.31896502
22.7000,50.46396128
22.7050,50.60934653
22.7100,50.75500669
22.7150,50.90087539
22.7200,51.04696599
22.7250,51.19315144
22.7300,51.33957573
22.7350,51.48647407
22.7400,51.63398004
22.7450,51.78219917
22.7500,51.93118611
22.7550,52.08112674
22.7600,52.23191782
22.7650,52.38347267
22.7700,52.5359047
22.7750,52.68906473
22.7800,52.84286988
22.7850,52.99719682
22.7900,53.15171207
22.7950,53.30632928
22.8000,53.46103812
22.8050,53.61565347
22.8100,53.76995546
22.8150,53.92374924
22.8200,54.07691678
22.8250,54.22916021
22.8300,54.38078846
22.8350,54.53149033
22.8400,54.68113745
22.8450,54.82959077
22.8500,54.97675184
22.8550,55.12266897
22.8600,55.26691622
22.8650,55.40918288
22.8700,55.54926989
22.8750,55.68706034
22.8800,55.82240314
22.8850,55.95530432
22.8900,56.0859642
22.8950,56.21469403
22.9000,56.3415446
22.9050,56.46667794
22.9100,56.59030029
22.9150,56.71253353
22.9200,56.83342294
22.9250,56.95288699
22.9300,57.07086748
22.9350,57.18724606
22.9400,57.30218507
22.9450,57.41582217
22.9500,57.52812545
22.9550,57.63940346
22.9600,57.74958449
22.9650,57.8585761
22.9700,57.96649776
22.9750,58.07342351
22.9800,58.17931057
22.9850,58.28397939
22.9900,58.38746491
22.9950,58.48958483
23.0000,58.5901441
23.0050,58.6891906
23.0100,58.78674893
23.0150,58.88256706
23.0200,58.97654815
23.0250,59.068771
23.0300,59.15908965
23.0350,59.24722009
23.0400,59.33277986
23.0450,59.41563222
23.0500,59.49570441
23.0550,59.5728383
23.0600,59.64698789
23.0650,59.71807896
23.0700,59.78573222
23.0750,59.84971018
23.0800,59.90972124
23.0850,59.96555521
23.0900,60.01706562
23.0950,60.06369957
23.1000,60.10486426
23.1050,60.14014397
23.1100,60.16920614
23.1150,60.1918015
23.1200,60.20766108
23.1250,60.21684629
23.1300,60.21925536
23.1350,60.21497836
23.1400,60.20384885
23.1450,60.18585771
23.1500,60.16087329
23.1550,60.12883854
23.1600,60.09001413
23.1650,60.04428546
23.1700,59.99168368
23.1750,59.93240845
23.1800,59.86674225
23.1850,59.79483351
23.1900,59.71696662
23.1950,59.6332112
23.2000,59.54412067
23.2050,59.44962269
23.2100,59.3501558
23.2150,59.24585016
23.2200,59.13684773
23.2250,59.02329028
23.2300,58.90559406
23.2350,58.78394761
23.2400,58.65839842
23.2450,58.52909873
23.2500,58.39632311
23.2550,58.26023562
23.2600,58.12088028
23.2650,57.9785824
23.2700,57.83344922
23.2750,57.68547116
23.2800,57.53503488
23.2850,57.38223687
23.2900,57.22705346
23.2950,57.06952151
23.3000,56.90933835
23.3050,56.74632181
23.3100,56.58026667
23.3150,56.41121688
23.3200,56.23922527
23.3250,56.06385862
23.3300,55.88518998
23.3350,55.70349856
23.3400,55.51894131
23.3450,55.33155413
23.3500,55.14137781
23.3550,54.94825946
23.3600,54.75219895
23.3650,54.55288369
23.3700,54.35040093
23.3750,54.14468235
23.3800,53.93534807
23.3850,53.72218854
23.3900,53.50507951
23.3950,53.28425273
23.4000,53.06007339
23.4050,52.8328709
23.4100,52.60298628
23.4150,52.37071856
23.4200,52.13602611
23.4250,51.89894274
23.4300,51.65921828
23.4350,51.41673126
23.4400,51.17180536
23.4450,50.92436336
23.4500,50.67484418
23.4550,50.42300454
23.4600,50.16919759
23.4650,49.91372228
23.4700,49.65675733
23.4750,49.39834075
23.4800,49.1387197
23.4850,48.87789
23.4900,48.61599475
23.4950,48.353258
23.5000,48.08950826
23.5050,47.82481081
23.5100,47.55890976
23.5150,47.29176673
23.5200,47.02330666
23.5250,46.75371934
23.5300,46.4831113
23.5350,46.21170661
23.5400,45.93968282
23.5450,45.66715642
23.5500,45.39408536
23.5550,45.12042772
23.5600,44.84617503
23.5650,44.57116615
23.5700,44.29565817
23.5750,44.01962327
23.5800,43.7428203
23.5850,43.46513121
23.5900,43.18649396
23.5950,42.9070281
23.6000,42.62660848
23.6050,42.34537858
23.6100,42.06337607
23.6150,41.78063349
23.6200,41.49713436
23.6250,41.21320548
23.6300,40.9290284
23.6350,40.64450783
23.6400,40.35979826
23.6450,40.07515675
23.6500,39.79078641
23.6550,39.50681717
23.6600,39.22337604
23.6650,38.94045865
23.6700,38.65815799
23.6750,38.37664565
23.6800,38.09613248
23.6850,37.81674079
23.6900,37.53880082
23.6950,37.26241257
23.7000,36.98764514
23.7050,36.71457854
23.7100,36.44304654
23.7150,36.17318248
23.7200,35.90519951
23.7250,35.63911302
23.7300,35.3749682
23.7350,35.11291555
23.7400,34.8527793
23.7450,34.59455571
23.7500,34.33814146
23.7550,34.0837169
23.7600,33.83102128
23.7650,33.58019088
23.7700,33.33120571
23.7750,33.08408793
23.7800,32.83868217
23.7850,32.59477851
23.7900,32.35228555
23.7950,32.11101232
23.8000,31.87092856
23.8050,31.63203717
23.8100,31.39435969
23.8150,31.15779672
23.8200,30.92243162
23.8250,30.6880036
23.8300,30.45432589
23.8350,30.22134637
23.8400,29.98894711
23.8450,29.75715206
23.8500,29.52610198
23.8550,29.29571542
23.8600,29.06612606
23.8650,28.83756785
23.8700,28.60986415
23.8750,28.38318286
23.8800,28.15759232
23.8850,27.93309662
23.8900,27.70988489
23.8950,27.48800711
23.9000,27.26739803
23.9050,27.04805251
23.9100,26.82985349
23.9150,26.61298004
23.9200,26.39745305
23.9250,26.18335324
23.9300,25.97067345
23.9350,25.75949045
23.9400,25.54992867
23.9450,25.34180995
23.9500,25.13518975
23.9550,24.93008414
23.9600,24.72665989
23.9650,24.5249892
23.9700,24.32502179
23.9750,24.12661066
23.9800,23.92981525
23.9850,23.73475077
23.9900,23.5411267
23.9950,23.34905402
24.0000,23.15836078
24.0050,22.96894424
24.0100,22.78093108
24.0150,22.59418611
24.0200,22.40851544
24.0250,22.22400811
24.0300,22.04074562
24.0350,21.85842402
24.0400,21.67710044
24.0450,21.49699889
24.0500,21.31800295
24.0550,21.14011167
24.0600,20.96336928
24.0650,20.7877283
24.0700,20.61344841
24.0750,20.44026366
24.0800,20.26825666
24.0850,20.09743985
24.0900,19.92782106
24.0950,19.75934201
24.1000,19.59203069
24.1050,19.42569552
24.1100,19.26044348
24.1150,19.09608642
24.1200,18.9325765
24.1250,18.76991067
24.1300,18.60815481
24.1350,18.44722678
24.1400,18.28689666
24.1450,18.12724297
24.1500,17.96836079
24.1550,17.8101381
24.1600,17.65282888
24.1650,17.49639405
24.1700,17.34087488
24.1750,17.18652068
24.1800,17.03321578
24.1850,16.88128325
24.1900,16.73081106
24.1950,16.58195691
24.2000,16.43507175
24.2050,16.29025546
24.2100,16.14764746
24.2150,16.00721311
24.2200,15.86892663
24.2250,15.73285831
24.2300,15.5989374
24.2350,15.4672074
24.2400,15.33746007
24.2450,15.20985535
24.2500,15.08435616
24.2550,14.9609449
24.2600,14.83931411
24.2650,14.71958465
24.2700,14.60171649
24.2750,14.48576787
24.2800,14.37180162
24.2850,14.25974999
24.2900,14.14965044
24.2950,14.04145038
24.3000,13.93515748
24.3050,13.83075079
24.3100,13.72822784
24.3150,13.62764894
24.3200,13.52911824
24.3250,13.43259095
24.3300,13.33809252
24.3350,13.24572156
24.3400,13.15543974
24.3450,13.06716639
24.3500,12.98104612
24.3550,12.89704037
24.3600,12.81491835
24.3650,12.73469652
24.3700,12.65603515
24.3750,12.57913621
24.3800,12.50374952
24.3850,12.42981768
24.3900,12.35706775
24.3950,12.28532642
24.4000,12.21444182
24.4050,12.14432711
24.4100,12.0746994
24.4150,12.00559833
24.4200,11.93686766
24.4250,11.86846188
24.4300,11.80004247
24.4350,11.73148081
24.4400,11.66301426
24.4450,11.59424158
24.4500,11.52519452
24.4550,11.45588939
24.4600,11.3863062
24.4650,11.31630688
24.4700,11.24603154
24.4750,11.17543779
24.4800,11.10448742
24.4850,11.03333161
24.4900,10.9618754
24.4950,10.89009044
24.5000,10.81808383
24.5050,10.74591636
24.5100,10.67362911
24.5150,10.60137011
24.5200,10.52934797
24.5250,10.45750861
24.5300,10.38606532
24.5350,10.3151328
24.5400,10.24481374
24.5450,10.17525102
24.5500,10.10654133
24.5550,10.03890507
24.5600,9.972703213
24.5650,9.907808168
24.5700,9.844359088
24.5750,9.782465887
24.5800,9.722032883
24.5850,9.663220109
24.5900,9.6060487
24.5950,9.550482128
24.6000,9.496544753
24.6050,9.444430125
24.6100,9.394267901
24.6150,9.345968814
24.6200,9.299572569
24.6250,9.255154025
24.6300,9.212590015
24.6350,9.172064557
24.6400,9.13366871
24.6450,9.097438587
24.6500,9.063325824
24.6550,9.031319155
24.6600,9.001616695
24.6650,8.974063322
24.6700,8.948908991
24.6750,8.926106043
24.6800,8.905559398
24.6850,8.887403922
24.6900,8.871641268
24.6950,8.858397101
24.7000,8.847768174
24.7050,8.839521374
24.7100,8.8338347
24.7150,8.830683341
24.7200,8.829949275
24.7250,8.83146544
24.7300,8.835566345
24.7350,8.842211556
24.7400,8.851339154
24.7450,8.863212507
24.7500,8.878042623
24.7550,8.895827269
24.7600,8.916492863
24.7650,8.940285992
24.7700,8.967320337
24.7750,8.997564614
24.7800,9.031184201
24.7850,9.068094729
24.7900,9.108432082
24.7950,9.152214257
24.8000,9.199267013
24.8050,9.249776826
24.8100,9.303685139
24.8150,9.360937466
24.8200,9.421550919
24.8250,9.485922225
24.8300,9.553872634
24.8350,9.625590194
24.8400,9.701086667
24.8450,9.780417105
24.8500,9.863566903
24.8550,9.950666663
24.8600,10.04181877
24.8650,10.13720998
24.8700,10.23698
24.8750,10.34126735
24.8800,10.45034173
24.8850,10.56419758
24.8900,10.6830178
24.8950,10.80694583
24.9000,10.93605588
24.9050,11.07045821
24.9100,11.21013519
24.9150,11.35507668
24.9200,11.50533776
24.9250,11.66100347
24.9300,11.82203237
24.9350,11.98842833
24.9400,12.16005881
24.9450,12.33696288
24.9500,12.51906757
24.9550,12.7064789
24.9600,12.89917163
24.9650,13.09700872
24.9700,13.30015756
24.9750,13.50833608
24.9800,13.72158256
24.9850,13.93981823
24.9900,14.16283465
24.9950,14.39029332
25.0000,14.62197256
25.0050,14.85794297
25.0100,15.09776855
25.0150,15.34102
25.0200,15.58730963
25.0250,15.8365505
25.0300,16.08791857
25.0350,16.34110483
25.0400,16.59554959
25.0450,16.8509689
25.0500,17.10661499
25.0550,17.36230808
25.0600,17.61762023
25.0650,17.87230271
25.0700,18.12590575
25.0750,18.37833717
25.0800,18.62945128
25.0850,18.87917478
25.0900,19.12727543
25.0950,19.37398202
25.1000,19.61921049
25.1050,19.86289791
25.1100,20.10510607
25.1150,20.34572566
25.1200,20.58491906
25.1250,20.82274906
25.1300,21.05948567
25.1350,21.29512573
25.1400,21.53000708
25.1450,21.76443638
25.1500,21.9985675
25.1550,22.23245302
25.1600,22.46616996
25.1650,22.69996263
25.1700,22.93368444
25.1750,23.16759941
25.1800,23.40176144
25.1850,23.63645246
25.1900,23.87186361
25.1950,24.10807343
25.2000,24.34516352
25.2050,24.58290009
25.2100,24.82123165
25.2150,25.06036361
25.2200,25.30010387
25.2250,25.54036622
25.2300,25.78136445
25.2350,26.02298636
25.2400,26.26537495
25.2450,26.5082946
25.2500,26.75183308
25.2550,26.99589462
25.2600,27.24036176
25.2650,27.48554709
25.2700,27.73126964
25.2750,27.97761463
25.2800,28.22459815
25.2850,28.47225935
25.2900,28.72084537
25.2950,28.97062647
25.3000,29.2217099
25.3050,29.4743831
25.3100,29.7290772
25.3150,29.98585528
25.3200,30.2452471
25.3250,30.50774734
25.3300,30.77393059
25.3350,31.0442895
25.3400,31.31968549
25.3450,31.60069456
25.3500,31.88826303
25.3550,32.18329937
25.3600,32.48681188
25.3650,32.7998855
25.3700,33.12375718
25.3750,33.45942451
25.3800,33.80799418
25.3850,34.17054503
25.3900,34.5481791
25.3950,34.94152556
25.4000,35.35162028
25.4050,35.77894583
25.4100,36.22384743
25.4150,36.39632199
25.4200,36.58559662
25.4250,36.79089904
25.4300,37.01112999
25.4350,37.24491814
25.4400,37.49066676
25.4450,37.74659382
25.4500,38.01076635
25.4550,38.2811308
25.4600,38.55554138
25.4650,38.8317859
25.4700,39.10760746
25.4750,39.38072409
25.4800,39.64884833
25.4850,39.90970705
25.4900,40.16106172
25.4950,40.400731
25.5000,40.6266174
25.5050,40.83673986
25.5100,41.02927422
25.5150,41.20260344
25.5200,41.35537947
25.5250,41.48659812
25.5300,41.59568767
25.5350,41.68261219
