type,name,time_units,begin_time,frequency,count,units
signal_3d,"Noraxon MyoMotion-Segments-Upper arm RT-Sensor Acceleration","s",0.0000,200,5108,"mG"

time,x,y,z
0.0000,913.5742188,-128.90625,-152.34375
0.0050,924.3164063,-126.4648438,-147.4609375
0.0100,937.0117188,-117.6757813,-138.1835938
0.0150,935.0585938,-125,-138.1835938
0.0200,940.9179688,-114.2578125,-133.7890625
0.0250,940.9179688,-121.09375,-134.765625
0.0300,950.6835938,-115.234375,-134.2773438
0.0350,950.6835938,-116.2109375,-122.0703125
0.0400,958.984375,-109.375,-132.8125
0.0450,955.078125,-116.2109375,-140.1367188
0.0500,960.4492188,-105.46875,-138.1835938
0.0550,970.2148438,-101.5625,-152.8320313
0.0600,961.4257813,-107.9101563,-157.2265625
0.0650,966.3085938,-108.8867188,-157.2265625
0.0700,961.9140625,-104.9804688,-177.734375
0.0750,972.65625,-102.5390625,-184.5703125
0.0800,976.0742188,-88.8671875,-193.8476563
0.0850,961.4257813,-103.0273438,-208.4960938
0.0900,968.2617188,-98.6328125,-209.9609375
0.0950,971.1914063,-106.4453125,-201.171875
0.1000,972.65625,-100.5859375,-210.4492188
0.1050,977.0507813,-102.5390625,-208.0078125
0.1100,976.0742188,-105.46875,-207.03125
0.1150,970.2148438,-115.234375,-211.4257813
0.1200,979.0039063,-99.609375,-210.4492188
0.1250,974.1210938,-103.0273438,-207.03125
0.1300,970.2148438,-109.375,-215.8203125
0.1350,986.328125,-95.703125,-216.3085938
0.1400,990.7226563,-88.37890625,-226.0742188
0.1450,991.6992188,-93.75,-229.0039063
0.1500,988.28125,-88.8671875,-221.6796875
0.1550,990.234375,-90.33203125,-245.6054688
0.1600,985.3515625,-92.7734375,-246.09375
0.1650,992.6757813,-106.9335938,-257.8125
0.1700,988.28125,-127.4414063,-259.765625
0.1750,987.7929688,-145.5078125,-260.7421875
0.1800,987.3046875,-165.5273438,-266.6015625
0.1850,972.65625,-195.3125,-272.9492188
0.1900,975.5859375,-208.4960938,-286.6210938
0.1950,968.2617188,-226.5625,-282.2265625
0.2000,962.890625,-241.2109375,-288.0859375
0.2050,961.4257813,-249.0234375,-286.6210938
0.2100,958.4960938,-252.9296875,-296.3867188
0.2150,954.5898438,-253.90625,-294.921875
0.2200,954.1015625,-246.09375,-295.4101563
0.2250,953.125,-231.9335938,-297.3632813
0.2300,948.2421875,-225.5859375,-289.0625
0.2350,944.3359375,-215.3320313,-281.25
0.2400,940.9179688,-202.6367188,-273.9257813
0.2450,936.0351563,-191.8945313,-266.6015625
0.2500,942.3828125,-170.8984375,-261.71875
0.2550,941.8945313,-166.9921875,-251.4648438
0.2600,939.453125,-152.8320313,-228.515625
0.2650,938.9648438,-147.9492188,-247.0703125
0.2700,947.265625,-132.3242188,-216.3085938
0.2750,948.7304688,-129.3945313,-222.1679688
0.2800,961.9140625,-115.7226563,-204.5898438
0.2850,956.5429688,-117.1875,-203.6132813
0.2900,958.984375,-109.8632813,-212.890625
0.2950,963.3789063,-108.8867188,-188.4765625
0.3000,959.4726563,-103.515625,-202.6367188
0.3050,955.078125,-104.4921875,-189.9414063
0.3100,958.984375,-90.8203125,-189.9414063
0.3150,951.6601563,-96.6796875,-194.3359375
0.3200,951.6601563,-93.26171875,-184.0820313
0.3250,956.0546875,-89.84375,-181.1523438
0.3300,954.5898438,-87.40234375,-174.8046875
0.3350,956.5429688,-92.28515625,-186.0351563
0.3400,955.078125,-84.47265625,-185.0585938
0.3450,958.4960938,-86.42578125,-188.4765625
0.3500,954.5898438,-95.21484375,-190.9179688
0.3550,955.078125,-98.14453125,-192.8710938
0.3600,961.9140625,-97.65625,-199.21875
0.3650,963.3789063,-107.9101563,-206.5429688
0.3700,970.703125,-108.8867188,-219.2382813
0.3750,979.0039063,-120.6054688,-214.84375
0.3800,975.5859375,-130.859375,-231.4453125
0.3850,976.0742188,-140.1367188,-227.5390625
0.3900,973.6328125,-138.1835938,-236.8164063
0.3950,968.75,-155.7617188,-237.3046875
0.4000,968.2617188,-150.8789063,-240.7226563
0.4050,967.2851563,-153.8085938,-250
0.4100,957.03125,-154.296875,-247.5585938
0.4150,960.4492188,-150.8789063,-268.5546875
0.4200,960.9375,-145.0195313,-252.4414063
0.4250,959.9609375,-141.6015625,-264.1601563
0.4300,952.6367188,-143.5546875,-267.0898438
0.4350,957.03125,-142.0898438,-253.4179688
0.4400,955.5664063,-142.0898438,-265.1367188
0.4450,958.984375,-141.1132813,-255.859375
0.4500,956.0546875,-145.0195313,-256.8359375
0.4550,958.984375,-142.0898438,-263.1835938
0.4600,959.4726563,-138.671875,-252.9296875
0.4650,958.4960938,-141.6015625,-245.1171875
0.4700,962.4023438,-130.3710938,-254.8828125
0.4750,963.8671875,-136.2304688,-247.5585938
0.4800,962.4023438,-139.1601563,-239.7460938
0.4850,969.2382813,-131.8359375,-237.7929688
0.4900,968.2617188,-134.765625,-225.5859375
0.4950,976.0742188,-135.7421875,-241.2109375
0.5000,981.9335938,-134.2773438,-215.8203125
0.5050,979.9804688,-133.3007813,-229.4921875
0.5100,982.421875,-123.5351563,-226.0742188
0.5150,988.7695313,-117.1875,-229.4921875
0.5200,985.3515625,-106.4453125,-224.1210938
0.5250,984.375,-106.4453125,-217.2851563
0.5300,981.9335938,-94.23828125,-229.9804688
0.5350,980.9570313,-94.23828125,-227.0507813
0.5400,969.7265625,-91.30859375,-224.609375
0.5450,971.6796875,-92.28515625,-238.7695313
0.5500,972.65625,-91.796875,-234.8632813
0.5550,961.9140625,-99.609375,-226.0742188
0.5600,961.4257813,-101.5625,-243.6523438
0.5650,963.3789063,-114.2578125,-222.65625
0.5700,967.7734375,-116.2109375,-242.1875
0.5750,971.6796875,-129.8828125,-238.7695313
0.5800,980.9570313,-129.8828125,-234.8632813
0.5850,986.8164063,-131.3476563,-236.328125
0.5900,985.3515625,-133.7890625,-241.2109375
0.5950,991.2109375,-129.8828125,-242.6757813
0.6000,989.7460938,-123.5351563,-231.9335938
0.6050,995.6054688,-123.5351563,-250.9765625
0.6100,987.3046875,-125,-245.6054688
0.6150,987.3046875,-116.6992188,-239.7460938
0.6200,983.8867188,-118.1640625,-239.7460938
0.6250,976.5625,-117.6757813,-245.1171875
0.6300,971.6796875,-116.6992188,-233.3984375
0.6350,965.8203125,-115.7226563,-238.28125
0.6400,957.03125,-117.6757813,-244.140625
0.6450,947.265625,-126.4648438,-250
0.6500,951.171875,-121.09375,-242.6757813
0.6550,955.5664063,-128.90625,-261.71875
0.6600,952.1484375,-117.1875,-244.140625
0.6650,952.1484375,-122.0703125,-254.8828125
0.6700,945.3125,-125.9765625,-252.9296875
0.6750,951.171875,-125,-249.5117188
0.6800,940.4296875,-133.3007813,-251.4648438
0.6850,948.2421875,-129.3945313,-242.6757813
0.6900,946.2890625,-130.859375,-251.4648438
0.6950,953.125,-126.953125,-250
0.7000,956.0546875,-122.5585938,-248.5351563
0.7050,962.4023438,-127.4414063,-238.7695313
0.7100,959.4726563,-126.4648438,-237.7929688
0.7150,969.2382813,-121.5820313,-231.4453125
0.7200,951.171875,-135.7421875,-229.4921875
0.7250,965.3320313,-129.3945313,-228.0273438
0.7300,964.84375,-129.3945313,-225.5859375
0.7350,970.703125,-130.3710938,-215.3320313
0.7400,968.75,-125.9765625,-220.2148438
0.7450,962.4023438,-129.8828125,-227.5390625
0.7500,964.3554688,-125.4882813,-201.171875
0.7550,962.4023438,-128.4179688,-207.5195313
0.7600,967.7734375,-119.6289063,-216.3085938
0.7650,968.75,-123.046875,-221.1914063
0.7700,966.3085938,-122.0703125,-207.5195313
0.7750,974.1210938,-120.1171875,-206.5429688
0.7800,974.609375,-121.5820313,-202.6367188
0.7850,979.9804688,-128.4179688,-210.4492188
0.7900,982.9101563,-131.3476563,-218.75
0.7950,978.0273438,-142.0898438,-218.2617188
0.8000,979.0039063,-145.0195313,-227.5390625
0.8050,987.7929688,-143.0664063,-216.3085938
0.8100,973.1445313,-153.8085938,-218.75
0.8150,969.7265625,-154.7851563,-238.28125
0.8200,975.5859375,-146.9726563,-225.5859375
0.8250,969.2382813,-152.34375,-244.140625
0.8300,965.3320313,-145.0195313,-243.1640625
0.8350,969.2382813,-138.671875,-236.8164063
0.8400,959.9609375,-141.1132813,-250
0.8450,964.84375,-126.953125,-244.6289063
0.8500,948.7304688,-127.9296875,-248.046875
0.8550,955.5664063,-118.6523438,-244.140625
0.8600,952.6367188,-122.0703125,-242.1875
0.8650,952.6367188,-126.4648438,-249.5117188
0.8700,951.171875,-137.6953125,-258.3007813
0.8750,947.265625,-142.578125,-258.3007813
0.8800,937.5,-148.4375,-263.1835938
0.8850,940.9179688,-139.6484375,-267.578125
0.8900,941.40625,-134.765625,-269.0429688
0.8950,935.0585938,-144.53125,-272.4609375
0.9000,938.9648438,-130.859375,-262.6953125
0.9050,941.40625,-126.953125,-253.4179688
0.9100,955.078125,-113.28125,-250.4882813
0.9150,951.6601563,-111.8164063,-239.7460938
0.9200,956.0546875,-94.7265625,-240.234375
0.9250,958.984375,-88.37890625,-233.8867188
0.9300,957.5195313,-78.61328125,-229.9804688
0.9350,964.3554688,-76.66015625,-211.9140625
0.9400,964.84375,-65.4296875,-212.890625
0.9450,962.890625,-67.3828125,-199.21875
0.9500,968.2617188,-63.96484375,-196.7773438
0.9550,965.8203125,-69.82421875,-189.9414063
0.9600,962.890625,-84.47265625,-185.0585938
0.9650,974.609375,-88.37890625,-197.265625
0.9700,978.0273438,-87.890625,-183.59375
0.9750,979.4921875,-91.796875,-198.2421875
0.9800,975.5859375,-110.3515625,-188.4765625
0.9850,980.46875,-105.9570313,-206.5429688
0.9900,986.8164063,-98.6328125,-189.453125
0.9950,984.8632813,-99.609375,-209.4726563
1.0000,989.7460938,-88.8671875,-193.8476563
1.0050,993.6523438,-79.1015625,-198.7304688
1.0100,994.140625,-70.80078125,-190.4296875
1.0150,993.6523438,-79.58984375,-202.1484375
1.0200,992.6757813,-78.125,-172.8515625
1.0250,1000.976563,-86.42578125,-176.2695313
1.0300,998.046875,-92.28515625,-196.7773438
1.0350,998.046875,-100.5859375,-177.2460938
1.0400,994.6289063,-105.46875,-178.7109375
1.0450,994.140625,-113.7695313,-190.4296875
1.0500,999.5117188,-112.7929688,-193.8476563
1.0550,1002.441406,-122.0703125,-197.7539063
1.0600,1009.765625,-116.6992188,-208.0078125
1.0650,1013.671875,-113.28125,-202.1484375
1.0700,1007.324219,-115.234375,-213.3789063
1.0750,999.0234375,-116.2109375,-219.2382813
1.0800,989.2578125,-120.1171875,-223.1445313
1.0850,983.3984375,-122.0703125,-225.0976563
1.0900,989.2578125,-121.5820313,-230.46875
1.0950,984.375,-131.8359375,-233.3984375
1.1000,989.2578125,-116.6992188,-242.1875
1.1050,974.1210938,-125.4882813,-252.4414063
1.1100,964.3554688,-125.4882813,-256.8359375
1.1150,967.7734375,-116.6992188,-261.71875
1.1200,951.171875,-123.046875,-261.2304688
1.1250,956.5429688,-115.7226563,-264.1601563
1.1300,958.984375,-115.7226563,-251.953125
1.1350,963.3789063,-110.8398438,-259.2773438
1.1400,964.84375,-109.375,-254.3945313
1.1450,956.5429688,-121.5820313,-244.6289063
1.1500,967.7734375,-116.6992188,-235.8398438
1.1550,975.0976563,-119.140625,-237.3046875
1.1600,980.9570313,-119.6289063,-218.2617188
1.1650,979.4921875,-123.5351563,-224.609375
1.1700,991.6992188,-114.2578125,-222.65625
1.1750,987.3046875,-119.140625,-219.2382813
1.1800,984.375,-121.09375,-215.8203125
1.1850,979.9804688,-121.5820313,-216.796875
1.1900,968.75,-118.6523438,-216.3085938
1.1950,962.4023438,-114.7460938,-198.7304688
1.2000,965.8203125,-100.5859375,-212.4023438
1.2050,973.1445313,-93.26171875,-216.796875
1.2100,971.1914063,-89.84375,-210.9375
1.2150,974.1210938,-80.078125,-213.3789063
1.2200,968.75,-83.984375,-212.4023438
1.2250,969.2382813,-84.47265625,-206.0546875
1.2300,970.703125,-82.51953125,-209.9609375
1.2350,978.0273438,-84.9609375,-202.6367188
1.2400,975.0976563,-85.9375,-194.8242188
1.2450,980.46875,-82.51953125,-198.2421875
1.2500,976.5625,-85.44921875,-178.2226563
1.2550,978.515625,-82.03125,-180.6640625
1.2600,981.4453125,-86.9140625,-183.59375
1.2650,984.8632813,-92.7734375,-200.1953125
1.2700,981.4453125,-107.9101563,-208.984375
1.2750,1000.488281,-97.65625,-201.6601563
1.2800,991.2109375,-116.2109375,-212.4023438
1.2850,990.234375,-113.28125,-211.9140625
1.2900,991.6992188,-103.0273438,-204.5898438
1.2950,1001.953125,-93.75,-210.4492188
1.3000,995.1171875,-101.5625,-207.03125
1.3050,990.7226563,-104.0039063,-215.8203125
1.3100,989.7460938,-93.26171875,-216.796875
1.3150,978.515625,-96.19140625,-216.796875
1.3200,973.1445313,-91.796875,-219.2382813
1.3250,965.8203125,-98.6328125,-226.0742188
1.3300,964.3554688,-99.12109375,-224.1210938
1.3350,954.1015625,-113.28125,-224.609375
1.3400,947.265625,-109.375,-226.5625
1.3450,959.4726563,-106.9335938,-236.328125
1.3500,966.796875,-108.3984375,-224.609375
1.3550,978.515625,-110.3515625,-217.2851563
1.3600,978.515625,-121.5820313,-223.1445313
1.3650,980.46875,-130.859375,-230.46875
1.3700,968.2617188,-142.578125,-221.6796875
1.3750,978.0273438,-139.1601563,-229.9804688
1.3800,972.65625,-134.765625,-232.421875
1.3850,971.1914063,-123.5351563,-231.4453125
1.3900,969.2382813,-106.4453125,-230.46875
1.3950,979.4921875,-91.30859375,-236.8164063
1.4000,978.0273438,-86.42578125,-235.3515625
1.4050,976.5625,-74.70703125,-229.9804688
1.4100,974.609375,-73.73046875,-210.4492188
1.4150,965.8203125,-77.63671875,-217.2851563
1.4200,972.65625,-73.73046875,-202.1484375
1.4250,973.6328125,-80.56640625,-208.4960938
1.4300,966.796875,-87.890625,-201.171875
1.4350,970.703125,-91.796875,-207.03125
1.4400,964.84375,-105.46875,-200.6835938
1.4450,960.9375,-103.0273438,-199.21875
1.4500,960.9375,-107.421875,-206.0546875
1.4550,966.796875,-102.5390625,-218.75
1.4600,968.2617188,-102.5390625,-219.2382813
1.4650,962.890625,-109.8632813,-218.75
1.4700,971.1914063,-108.8867188,-224.609375
1.4750,964.3554688,-114.2578125,-208.4960938
1.4800,974.609375,-107.9101563,-212.4023438
1.4850,981.9335938,-94.7265625,-202.1484375
1.4900,975.0976563,-101.5625,-199.21875
1.4950,981.4453125,-93.75,-214.84375
1.5000,977.0507813,-92.7734375,-205.5664063
1.5050,972.65625,-78.61328125,-201.171875
1.5100,970.703125,-95.703125,-206.5429688
1.5150,962.4023438,-79.1015625,-199.21875
1.5200,958.4960938,-80.56640625,-195.3125
1.5250,960.4492188,-88.8671875,-189.453125
1.5300,955.078125,-91.30859375,-200.1953125
1.5350,962.4023438,-88.8671875,-195.3125
1.5400,970.2148438,-72.265625,-190.9179688
1.5450,988.28125,-65.4296875,-203.125
1.5500,974.1210938,-90.33203125,-206.0546875
1.5550,979.4921875,-107.9101563,-199.21875
1.5600,974.609375,-116.2109375,-198.7304688
1.5650,970.2148438,-121.09375,-205.078125
1.5700,972.1679688,-114.2578125,-225.5859375
1.5750,965.8203125,-126.4648438,-215.8203125
1.5800,973.6328125,-114.7460938,-230.9570313
1.5850,973.1445313,-104.4921875,-225.0976563
1.5900,970.2148438,-104.0039063,-206.5429688
1.5950,964.3554688,-97.65625,-211.4257813
1.6000,966.796875,-91.796875,-211.9140625
1.6050,959.4726563,-91.30859375,-213.3789063
1.6100,971.1914063,-83.984375,-208.0078125
1.6150,965.8203125,-103.515625,-198.2421875
1.6200,964.3554688,-101.5625,-207.5195313
1.6250,969.7265625,-95.703125,-218.75
1.6300,960.4492188,-119.140625,-222.65625
1.6350,971.1914063,-110.3515625,-227.0507813
1.6400,965.3320313,-117.1875,-226.5625
1.6450,950.1953125,-128.90625,-242.6757813
1.6500,957.5195313,-122.5585938,-230.9570313
1.6550,972.65625,-124.5117188,-221.6796875
1.6600,965.8203125,-123.046875,-211.4257813
1.6650,973.6328125,-119.140625,-209.9609375
1.6700,978.0273438,-111.8164063,-204.5898438
1.6750,981.9335938,-102.5390625,-212.890625
1.6800,972.65625,-100.5859375,-203.125
1.6850,968.2617188,-85.44921875,-198.7304688
1.6900,965.3320313,-78.61328125,-183.1054688
1.6950,960.9375,-67.3828125,-188.9648438
1.7000,958.4960938,-73.73046875,-188.9648438
1.7050,962.890625,-79.1015625,-198.7304688
1.7100,968.2617188,-82.51953125,-179.6875
1.7150,976.0742188,-91.796875,-187.5
1.7200,978.0273438,-116.2109375,-190.4296875
1.7250,978.515625,-122.5585938,-186.0351563
1.7300,984.8632813,-104.9804688,-196.2890625
1.7350,986.328125,-121.09375,-202.1484375
1.7400,992.1875,-126.4648438,-210.9375
1.7450,990.7226563,-145.9960938,-195.8007813
1.7500,997.0703125,-126.953125,-203.6132813
1.7550,991.6992188,-119.6289063,-191.40625
1.7600,987.3046875,-109.8632813,-206.0546875
1.7650,984.8632813,-100.5859375,-197.265625
1.7700,970.2148438,-103.515625,-208.984375
1.7750,977.5390625,-90.33203125,-205.078125
1.7800,968.2617188,-82.51953125,-198.2421875
1.7850,958.984375,-96.6796875,-185.546875
1.7900,960.4492188,-92.28515625,-176.2695313
1.7950,958.4960938,-98.14453125,-187.9882813
1.8000,956.5429688,-95.703125,-195.3125
1.8050,962.4023438,-92.28515625,-201.6601563
1.8100,962.890625,-104.9804688,-206.0546875
1.8150,960.9375,-120.1171875,-201.6601563
1.8200,962.890625,-131.3476563,-197.265625
1.8250,973.1445313,-135.2539063,-197.7539063
1.8300,969.7265625,-135.7421875,-201.171875
1.8350,973.6328125,-142.0898438,-201.6601563
1.8400,977.0507813,-139.1601563,-186.5234375
1.8450,971.1914063,-133.7890625,-193.8476563
1.8500,968.75,-115.234375,-196.7773438
1.8550,963.8671875,-104.9804688,-207.03125
1.8600,966.796875,-100.0976563,-206.0546875
1.8650,972.65625,-98.14453125,-204.5898438
1.8700,970.2148438,-104.0039063,-211.9140625
1.8750,961.4257813,-104.4921875,-217.7734375
1.8800,962.4023438,-106.9335938,-212.4023438
1.8850,952.6367188,-124.5117188,-187.5
1.8900,959.9609375,-136.2304688,-194.3359375
1.8950,973.1445313,-140.1367188,-195.8007813
1.9000,963.8671875,-162.5976563,-180.6640625
1.9050,960.9375,-170.8984375,-189.453125
1.9100,962.4023438,-175.2929688,-183.1054688
1.9150,970.2148438,-177.2460938,-195.3125
1.9200,970.703125,-180.1757813,-193.8476563
1.9250,979.0039063,-167.4804688,-211.9140625
1.9300,984.8632813,-149.4140625,-222.65625
1.9350,981.4453125,-144.0429688,-223.1445313
1.9400,980.46875,-125,-211.4257813
1.9450,976.0742188,-115.7226563,-205.078125
1.9500,953.6132813,-115.234375,-203.125
1.9550,945.8007813,-125.9765625,-203.6132813
1.9600,952.1484375,-132.8125,-199.21875
1.9650,951.6601563,-150.8789063,-214.84375
1.9700,957.03125,-164.0625,-202.1484375
1.9750,967.7734375,-170.8984375,-209.4726563
1.9800,968.2617188,-173.3398438,-212.890625
1.9850,966.796875,-170.8984375,-196.7773438
1.9900,967.7734375,-163.0859375,-217.2851563
1.9950,979.0039063,-156.7382813,-217.2851563
2.0000,980.46875,-152.34375,-223.6328125
2.0050,968.75,-159.6679688,-215.8203125
2.0100,963.8671875,-164.0625,-214.84375
2.0150,959.9609375,-171.875,-220.2148438
2.0200,949.7070313,-184.5703125,-207.03125
2.0250,947.7539063,-179.1992188,-203.125
2.0300,950.6835938,-186.5234375,-195.8007813
2.0350,958.4960938,-183.1054688,-184.5703125
2.0400,952.1484375,-181.1523438,-199.21875
2.0450,949.7070313,-165.0390625,-202.6367188
2.0500,945.8007813,-169.4335938,-191.40625
2.0550,943.359375,-168.9453125,-201.171875
2.0600,952.6367188,-164.5507813,-206.5429688
2.0650,967.7734375,-167.4804688,-199.7070313
2.0700,972.1679688,-174.8046875,-220.703125
2.0750,974.1210938,-178.2226563,-215.8203125
2.0800,973.6328125,-163.5742188,-227.5390625
2.0850,954.5898438,-162.5976563,-214.3554688
2.0900,967.7734375,-156.25,-212.4023438
2.0950,962.4023438,-168.4570313,-208.984375
2.1000,960.4492188,-185.546875,-211.4257813
2.1050,970.703125,-182.6171875,-208.984375
2.1100,963.3789063,-190.9179688,-223.1445313
2.1150,955.078125,-210.9375,-235.8398438
2.1200,961.4257813,-215.8203125,-213.8671875
2.1250,957.5195313,-220.703125,-229.0039063
2.1300,949.7070313,-205.078125,-219.7265625
2.1350,947.265625,-179.1992188,-211.4257813
2.1400,930.6640625,-163.5742188,-189.453125
2.1450,940.4296875,-156.25,-192.8710938
2.1500,952.6367188,-150.8789063,-187.0117188
2.1550,959.9609375,-171.3867188,-197.265625
2.1600,967.2851563,-182.1289063,-217.7734375
2.1650,964.84375,-213.3789063,-221.6796875
2.1700,979.0039063,-205.5664063,-261.71875
2.1750,981.4453125,-207.03125,-264.6484375
2.1800,970.2148438,-207.5195313,-260.7421875
2.1850,954.1015625,-212.890625,-233.8867188
2.1900,939.9414063,-219.2382813,-208.0078125
2.1950,945.3125,-218.2617188,-220.2148438
2.2000,944.8242188,-226.5625,-229.9804688
2.2050,949.21875,-231.9335938,-240.234375
2.2100,945.8007813,-231.4453125,-217.2851563
2.2150,964.3554688,-217.7734375,-221.1914063
2.2200,960.4492188,-220.703125,-219.2382813
2.2250,965.3320313,-220.2148438,-227.5390625
2.2300,969.7265625,-223.1445313,-229.4921875
2.2350,963.8671875,-231.4453125,-230.46875
2.2400,966.3085938,-217.2851563,-221.1914063
2.2450,975.0976563,-207.03125,-236.8164063
2.2500,966.3085938,-224.609375,-255.3710938
2.2550,958.4960938,-235.3515625,-247.5585938
2.2600,940.4296875,-251.4648438,-250.4882813
2.2650,944.3359375,-256.3476563,-241.6992188
2.2700,945.8007813,-254.8828125,-226.0742188
2.2750,950.6835938,-259.2773438,-255.859375
2.2800,940.9179688,-263.1835938,-256.8359375
2.2850,948.7304688,-262.6953125,-260.2539063
2.2900,955.078125,-245.1171875,-239.2578125
2.2950,948.2421875,-251.4648438,-235.8398438
2.3000,946.7773438,-244.6289063,-245.1171875
2.3050,940.4296875,-238.28125,-253.90625
2.3100,943.8476563,-234.375,-247.5585938
2.3150,954.1015625,-229.0039063,-263.671875
2.3200,960.9375,-238.28125,-261.71875
2.3250,963.3789063,-256.3476563,-272.4609375
2.3300,945.8007813,-259.765625,-265.625
2.3350,945.3125,-243.6523438,-270.5078125
2.3400,926.7578125,-237.3046875,-282.7148438
2.3450,926.7578125,-234.375,-259.2773438
2.3500,921.875,-240.7226563,-257.8125
2.3550,916.9921875,-247.5585938,-252.4414063
2.3600,918.4570313,-259.2773438,-247.0703125
2.3650,931.640625,-267.578125,-257.3242188
2.3700,935.546875,-272.9492188,-271.484375
2.3750,942.8710938,-270.9960938,-286.1328125
2.3800,952.1484375,-259.2773438,-298.3398438
2.3850,953.125,-272.4609375,-325.1953125
2.3900,939.453125,-291.9921875,-325.1953125
2.3950,931.1523438,-291.9921875,-298.828125
2.4000,916.9921875,-275.8789063,-273.9257813
2.4050,896.9726563,-266.6015625,-265.1367188
2.4100,892.0898438,-253.90625,-228.515625
2.4150,903.3203125,-236.328125,-223.6328125
2.4200,902.8320313,-231.9335938,-235.3515625
2.4250,922.8515625,-246.5820313,-249.0234375
2.4300,927.2460938,-280.7617188,-238.7695313
2.4350,945.3125,-294.4335938,-286.1328125
2.4400,956.0546875,-275.390625,-301.2695313
2.4450,958.4960938,-272.9492188,-309.0820313
2.4500,941.8945313,-281.25,-296.875
2.4550,939.453125,-290.0390625,-285.15625
2.4600,931.1523438,-296.3867188,-293.4570313
2.4650,933.1054688,-293.9453125,-287.5976563
2.4700,933.59375,-290.5273438,-294.921875
2.4750,934.5703125,-296.875,-293.4570313
2.4800,919.921875,-307.6171875,-293.9453125
2.4850,901.8554688,-307.1289063,-270.0195313
2.4900,888.671875,-282.2265625,-272.9492188
2.4950,882.8125,-274.4140625,-285.15625
2.5000,895.9960938,-271.484375,-298.3398438
2.5050,910.6445313,-304.1992188,-298.3398438
2.5100,913.5742188,-309.5703125,-311.0351563
2.5150,904.296875,-311.5234375,-305.1757813
2.5200,900.390625,-312.0117188,-290.5273438
2.5250,910.15625,-319.8242188,-280.2734375
2.5300,919.921875,-304.1992188,-280.7617188
2.5350,922.3632813,-307.6171875,-282.2265625
2.5400,919.921875,-315.4296875,-276.3671875
2.5450,916.015625,-303.2226563,-303.7109375
2.5500,918.4570313,-291.5039063,-309.0820313
2.5550,910.15625,-287.5976563,-333.984375
2.5600,909.1796875,-288.5742188,-318.8476563
2.5650,911.6210938,-309.0820313,-330.078125
2.5700,902.34375,-315.9179688,-343.2617188
2.5750,888.1835938,-318.8476563,-338.3789063
2.5800,868.6523438,-312.0117188,-324.21875
2.5850,856.4453125,-305.6640625,-294.921875
2.5900,856.4453125,-309.0820313,-277.8320313
2.5950,862.3046875,-324.7070313,-298.3398438
2.6000,877.9296875,-339.84375,-317.3828125
2.6050,890.625,-342.7734375,-309.0820313
2.6100,895.5078125,-347.65625,-321.7773438
2.6150,894.53125,-344.2382813,-327.6367188
2.6200,881.8359375,-348.1445313,-309.0820313
2.6250,888.1835938,-335.4492188,-304.6875
2.6300,898.4375,-319.8242188,-302.734375
2.6350,890.625,-333.4960938,-325.1953125
2.6400,887.6953125,-331.5429688,-335.4492188
2.6450,893.0664063,-321.2890625,-336.9140625
2.6500,909.6679688,-306.640625,-334.4726563
2.6550,922.3632813,-322.265625,-338.3789063
2.6600,909.6679688,-330.5664063,-350.5859375
2.6650,897.4609375,-329.5898438,-339.3554688
2.6700,891.6015625,-312.5,-341.3085938
2.6750,866.2109375,-319.3359375,-310.546875
2.6800,849.609375,-323.7304688,-296.875
2.6850,830.078125,-345.703125,-286.1328125
2.6900,847.65625,-343.2617188,-294.921875
2.6950,867.6757813,-345.2148438,-322.265625
2.7000,875.9765625,-345.703125,-345.703125
2.7050,887.2070313,-342.7734375,-338.3789063
2.7100,895.0195313,-342.7734375,-342.2851563
2.7150,894.53125,-352.0507813,-354.4921875
2.7200,881.8359375,-351.5625,-332.5195313
2.7250,865.7226563,-367.1875,-328.125
2.7300,872.5585938,-361.328125,-335.4492188
2.7350,882.3242188,-356.4453125,-343.75
2.7400,870.1171875,-354.9804688,-319.8242188
2.7450,849.1210938,-349.609375,-314.9414063
2.7500,844.2382813,-327.6367188,-302.2460938
2.7550,846.1914063,-321.7773438,-324.7070313
2.7600,840.3320313,-334.4726563,-324.21875
2.7650,840.8203125,-349.609375,-326.171875
2.7700,858.3984375,-355.46875,-339.3554688
2.7750,875,-355.46875,-352.0507813
2.7800,875.9765625,-370.1171875,-356.9335938
2.7850,890.625,-373.046875,-360.3515625
2.7900,879.3945313,-383.7890625,-352.5390625
2.7950,878.4179688,-383.3007813,-366.6992188
2.8000,875,-375,-367.1875
2.8050,866.6992188,-376.4648438,-392.578125
2.8100,853.515625,-373.5351563,-385.2539063
2.8150,837.4023438,-372.0703125,-378.4179688
2.8200,837.890625,-346.1914063,-344.7265625
2.8250,847.65625,-337.4023438,-354.9804688
2.8300,851.5625,-337.890625,-366.6992188
2.8350,856.4453125,-353.0273438,-363.7695313
2.8400,850.5859375,-359.8632813,-376.953125
2.8450,857.9101563,-340.3320313,-387.2070313
2.8500,866.6992188,-330.078125,-361.8164063
2.8550,875.4882813,-328.125,-357.421875
2.8600,857.421875,-338.3789063,-350.0976563
2.8650,854.4921875,-341.3085938,-325.6835938
2.8700,847.65625,-351.0742188,-326.171875
2.8750,834.9609375,-371.09375,-325.1953125
2.8800,833.0078125,-363.28125,-319.8242188
2.8850,846.1914063,-371.5820313,-320.8007813
2.8900,840.3320313,-372.5585938,-330.078125
2.8950,835.9375,-374.5117188,-328.125
2.9000,825.6835938,-380.859375,-317.8710938
2.9050,810.546875,-377.9296875,-319.8242188
2.9100,795.8984375,-387.6953125,-305.6640625
2.9150,810.546875,-382.3242188,-329.1015625
2.9200,851.5625,-389.6484375,-371.09375
2.9250,878.90625,-407.7148438,-398.4375
2.9300,881.3476563,-421.3867188,-397.4609375
2.9350,900.390625,-416.9921875,-410.6445313
2.9400,891.6015625,-418.9453125,-390.625
2.9450,867.1875,-412.5976563,-371.5820313
2.9500,858.3984375,-389.1601563,-347.65625
2.9550,852.0507813,-396.484375,-375.9765625
2.9600,859.375,-390.625,-356.4453125
2.9650,858.8867188,-373.046875,-376.4648438
2.9700,845.2148438,-361.8164063,-363.7695313
2.9750,854.0039063,-364.2578125,-385.7421875
2.9800,854.4921875,-372.0703125,-391.6015625
2.9850,872.0703125,-361.8164063,-400.390625
2.9900,852.5390625,-361.328125,-392.0898438
2.9950,854.9804688,-350.5859375,-384.765625
3.0000,847.1679688,-354.9804688,-379.3945313
3.0050,847.1679688,-353.515625,-384.2773438
3.0100,847.65625,-359.8632813,-381.8359375
3.0150,854.9804688,-365.7226563,-370.6054688
3.0200,847.65625,-375,-358.8867188
3.0250,834.9609375,-392.578125,-370.1171875
3.0300,840.8203125,-393.5546875,-369.6289063
3.0350,849.1210938,-408.203125,-372.0703125
3.0400,845.2148438,-415.0390625,-369.140625
3.0450,845.703125,-406.25,-360.3515625
3.0500,850.0976563,-394.53125,-365.234375
3.0550,840.3320313,-397.9492188,-386.2304688
3.0600,845.703125,-393.0664063,-371.5820313
3.0650,847.65625,-399.4140625,-383.7890625
3.0700,845.703125,-398.9257813,-375.4882813
3.0750,838.3789063,-392.578125,-370.1171875
3.0800,833.984375,-395.9960938,-391.1132813
3.0850,833.984375,-371.5820313,-387.6953125
3.0900,820.8007813,-366.2109375,-392.578125
3.0950,820.8007813,-362.7929688,-379.8828125
3.1000,849.609375,-355.9570313,-444.3359375
3.1050,849.1210938,-375.9765625,-419.921875
3.1100,837.4023438,-378.4179688,-413.5742188
3.1150,832.03125,-380.3710938,-425.78125
3.1200,828.125,-388.1835938,-413.5742188
3.1250,833.984375,-395.5078125,-413.0859375
3.1300,828.6132813,-409.1796875,-392.0898438
3.1350,827.1484375,-412.5976563,-390.1367188
3.1400,833.0078125,-411.6210938,-385.7421875
3.1450,819.3359375,-432.6171875,-400.8789063
3.1500,806.640625,-443.8476563,-381.3476563
3.1550,806.1523438,-443.359375,-394.53125
3.1600,796.875,-437.9882813,-381.3476563
3.1650,791.9921875,-425.2929688,-385.2539063
3.1700,801.2695313,-414.5507813,-392.0898438
3.1750,809.5703125,-402.8320313,-387.6953125
3.1800,798.3398438,-404.7851563,-412.5976563
3.1850,798.3398438,-397.9492188,-415.5273438
3.1900,806.1523438,-397.9492188,-418.9453125
3.1950,808.1054688,-382.8125,-429.1992188
3.2000,815.4296875,-376.4648438,-441.8945313
3.2050,800.78125,-374.5117188,-454.5898438
3.2100,798.828125,-364.7460938,-426.7578125
3.2150,798.3398438,-365.234375,-436.5234375
3.2200,789.5507813,-365.7226563,-452.1484375
3.2250,788.5742188,-367.1875,-464.3554688
3.2300,780.7617188,-380.3710938,-448.2421875
3.2350,788.5742188,-391.6015625,-449.21875
3.2400,792.4804688,-389.6484375,-451.171875
3.2450,790.0390625,-396.484375,-474.1210938
3.2500,777.8320313,-405.2734375,-459.9609375
3.2550,777.8320313,-401.3671875,-440.4296875
3.2600,778.8085938,-396.9726563,-438.4765625
3.2650,780.7617188,-395.0195313,-434.0820313
3.2700,778.8085938,-397.4609375,-432.6171875
3.2750,777.8320313,-421.875,-447.7539063
3.2800,800.2929688,-430.1757813,-449.7070313
3.2850,805.6640625,-460.4492188,-447.265625
3.2900,827.6367188,-451.6601563,-451.171875
3.2950,811.0351563,-450.6835938,-454.5898438
3.3000,783.203125,-435.0585938,-424.3164063
3.3050,782.2265625,-425.78125,-412.109375
3.3100,782.2265625,-422.3632813,-429.1992188
3.3150,778.8085938,-424.8046875,-429.1992188
3.3200,789.0625,-409.6679688,-443.8476563
3.3250,789.0625,-405.2734375,-442.8710938
3.3300,790.5273438,-408.203125,-436.0351563
3.3350,805.1757813,-404.7851563,-450.6835938
3.3400,795.4101563,-399.4140625,-452.6367188
3.3450,778.8085938,-399.4140625,-427.2460938
3.3500,770.9960938,-407.7148438,-437.9882813
3.3550,778.8085938,-419.4335938,-428.7109375
3.3600,773.9257813,-423.3398438,-421.3867188
3.3650,783.6914063,-426.7578125,-434.0820313
3.3700,791.5039063,-436.0351563,-434.0820313
3.3750,795.4101563,-454.1015625,-447.7539063
3.3800,798.828125,-445.8007813,-441.8945313
3.3850,783.6914063,-437.5,-429.1992188
3.3900,777.8320313,-421.3867188,-440.4296875
3.3950,782.7148438,-420.4101563,-436.5234375
3.4000,789.0625,-403.3203125,-439.453125
3.4050,782.7148438,-404.7851563,-452.6367188
3.4100,792.4804688,-407.7148438,-454.5898438
3.4150,807.6171875,-412.109375,-457.03125
3.4200,793.9453125,-412.5976563,-465.3320313
3.4250,786.1328125,-400.8789063,-436.5234375
3.4300,787.5976563,-409.6679688,-435.0585938
3.4350,779.7851563,-422.3632813,-465.8203125
3.4400,763.671875,-421.3867188,-432.1289063
3.4450,765.1367188,-421.3867188,-443.359375
3.4500,770.9960938,-415.5273438,-446.2890625
3.4550,767.578125,-421.875,-453.6132813
3.4600,780.2734375,-433.1054688,-459.9609375
3.4650,801.7578125,-430.1757813,-490.234375
3.4700,790.0390625,-433.1054688,-475.0976563
3.4750,770.5078125,-427.734375,-467.2851563
3.4800,770.5078125,-407.2265625,-454.1015625
3.4850,764.1601563,-403.3203125,-457.5195313
3.4900,756.3476563,-414.0625,-445.3125
3.4950,760.2539063,-423.828125,-456.0546875
3.5000,783.6914063,-417.4804688,-455.5664063
3.5050,786.1328125,-420.8984375,-472.65625
3.5100,784.1796875,-415.0390625,-479.9804688
3.5150,786.6210938,-415.0390625,-476.5625
3.5200,796.875,-419.4335938,-484.8632813
3.5250,800.78125,-417.4804688,-479.4921875
3.5300,800.78125,-410.6445313,-476.5625
3.5350,813.9648438,-396.484375,-478.0273438
3.5400,805.1757813,-394.53125,-479.0039063
3.5450,814.453125,-395.5078125,-479.4921875
3.5500,828.6132813,-397.4609375,-513.1835938
3.5550,812.9882813,-419.921875,-490.234375
3.5600,806.1523438,-422.3632813,-485.3515625
3.5650,799.8046875,-434.0820313,-485.3515625
3.5700,777.8320313,-433.59375,-476.0742188
3.5750,765.625,-434.0820313,-468.2617188
3.5800,761.2304688,-432.6171875,-453.6132813
3.5850,771.9726563,-440.4296875,-467.2851563
3.5900,785.15625,-445.3125,-491.2109375
3.5950,784.1796875,-456.0546875,-493.6523438
3.6000,769.0429688,-448.2421875,-500.9765625
3.6050,771.9726563,-422.8515625,-469.2382813
3.6100,762.6953125,-417.96875,-477.0507813
3.6150,765.625,-423.828125,-496.5820313
3.6200,758.7890625,-417.96875,-477.0507813
3.6250,768.0664063,-408.203125,-502.9296875
3.6300,753.90625,-415.5273438,-494.6289063
3.6350,757.3242188,-410.15625,-494.140625
3.6400,753.4179688,-411.6210938,-498.046875
3.6450,752.9296875,-403.8085938,-490.7226563
3.6500,751.4648438,-397.4609375,-481.9335938
3.6550,739.2578125,-405.2734375,-512.2070313
3.6600,734.375,-405.7617188,-488.28125
3.6650,735.3515625,-398.9257813,-485.3515625
3.6700,737.3046875,-393.5546875,-484.8632813
3.6750,744.6289063,-391.6015625,-511.2304688
3.6800,751.4648438,-420.8984375,-501.953125
3.6850,761.2304688,-416.9921875,-533.6914063
3.6900,770.0195313,-417.96875,-526.8554688
3.6950,786.6210938,-413.5742188,-525.390625
3.7000,773.4375,-416.015625,-518.5546875
3.7050,755.859375,-414.0625,-499.0234375
3.7100,752.9296875,-410.6445313,-476.0742188
3.7150,754.3945313,-424.8046875,-486.8164063
3.7200,753.90625,-442.8710938,-487.7929688
3.7250,754.8828125,-458.984375,-468.75
3.7300,759.765625,-458.984375,-484.8632813
3.7350,764.6484375,-451.171875,-490.234375
3.7400,767.578125,-430.6640625,-495.6054688
3.7450,783.6914063,-417.4804688,-502.9296875
3.7500,782.2265625,-418.4570313,-512.2070313
3.7550,776.3671875,-415.5273438,-504.3945313
3.7600,782.2265625,-412.109375,-489.2578125
3.7650,785.6445313,-410.15625,-512.2070313
3.7700,784.6679688,-403.8085938,-491.2109375
3.7750,787.5976563,-408.203125,-499.5117188
3.7800,803.2226563,-422.3632813,-508.7890625
3.7850,810.0585938,-436.0351563,-505.3710938
3.7900,787.109375,-452.1484375,-485.8398438
3.7950,776.3671875,-449.7070313,-466.3085938
3.8000,770.9960938,-453.6132813,-466.3085938
3.8050,776.8554688,-456.0546875,-475.5859375
3.8100,776.3671875,-459.4726563,-453.6132813
3.8150,786.1328125,-437.5,-471.6796875
3.8200,789.0625,-424.8046875,-487.7929688
3.8250,798.828125,-413.0859375,-470.703125
3.8300,795.4101563,-412.109375,-505.859375
3.8350,806.640625,-394.0429688,-492.6757813
3.8400,803.2226563,-400.390625,-496.5820313
3.8450,802.734375,-405.7617188,-490.7226563
3.8500,810.546875,-413.0859375,-517.0898438
3.8550,801.7578125,-426.2695313,-503.90625
3.8600,795.8984375,-420.4101563,-492.6757813
3.8650,782.7148438,-433.59375,-469.2382813
3.8700,773.4375,-438.9648438,-481.9335938
3.8750,773.4375,-441.40625,-475.5859375
3.8800,768.0664063,-447.7539063,-470.703125
3.8850,776.3671875,-434.5703125,-487.3046875
3.8900,776.8554688,-423.828125,-487.3046875
3.8950,780.2734375,-432.1289063,-510.2539063
3.9000,765.1367188,-427.734375,-520.9960938
3.9050,761.71875,-404.7851563,-504.8828125
3.9100,758.3007813,-394.0429688,-496.09375
3.9150,752.4414063,-396.484375,-511.71875
3.9200,745.1171875,-390.625,-505.859375
3.9250,740.7226563,-395.5078125,-519.53125
3.9300,738.7695313,-391.6015625,-509.765625
3.9350,742.1875,-397.9492188,-515.625
3.9400,744.6289063,-403.3203125,-497.0703125
3.9450,748.5351563,-406.7382813,-508.7890625
3.9500,758.7890625,-410.6445313,-506.8359375
3.9550,763.1835938,-417.4804688,-509.765625
3.9600,763.671875,-415.0390625,-495.6054688
3.9650,745.1171875,-434.5703125,-502.4414063
3.9700,754.8828125,-429.1992188,-500
3.9750,761.71875,-425.2929688,-492.6757813
3.9800,759.2773438,-411.6210938,-488.28125
3.9850,751.953125,-415.5273438,-498.046875
3.9900,744.140625,-414.0625,-503.4179688
3.9950,749.0234375,-402.8320313,-495.1171875
4.0000,758.3007813,-401.8554688,-506.3476563
4.0050,764.1601563,-398.4375,-517.0898438
4.0100,751.4648438,-394.0429688,-516.1132813
4.0150,750,-386.71875,-500.4882813
4.0200,754.3945313,-378.4179688,-487.7929688
4.0250,753.90625,-389.1601563,-513.671875
4.0300,755.3710938,-402.34375,-510.2539063
4.0350,755.859375,-414.0625,-499.0234375
4.0400,766.6015625,-405.7617188,-495.6054688
4.0450,765.625,-399.9023438,-501.4648438
4.0500,755.859375,-415.0390625,-483.8867188
4.0550,760.2539063,-419.921875,-499.5117188
4.0600,763.1835938,-416.5039063,-487.3046875
4.0650,767.578125,-417.96875,-495.1171875
4.0700,770.0195313,-423.3398438,-485.8398438
4.0750,772.4609375,-436.0351563,-489.2578125
4.0800,782.7148438,-418.9453125,-484.8632813
4.0850,768.5546875,-432.6171875,-500.9765625
4.0900,773.9257813,-424.3164063,-489.2578125
4.0950,778.3203125,-426.2695313,-490.7226563
4.1000,773.9257813,-423.3398438,-498.5351563
4.1050,776.8554688,-412.109375,-488.7695313
4.1100,763.671875,-411.1328125,-481.9335938
4.1150,767.578125,-409.6679688,-476.0742188
4.1200,767.578125,-416.9921875,-474.609375
4.1250,763.1835938,-419.921875,-476.5625
4.1300,777.34375,-414.0625,-464.84375
4.1350,780.7617188,-412.5976563,-466.796875
4.1400,786.1328125,-410.15625,-484.8632813
4.1450,789.0625,-402.34375,-495.1171875
4.1500,779.296875,-415.0390625,-490.7226563
4.1550,786.6210938,-412.5976563,-489.2578125
4.1600,788.0859375,-399.9023438,-486.8164063
4.1650,791.015625,-390.625,-487.3046875
4.1700,784.1796875,-394.53125,-488.28125
4.1750,789.0625,-396.9726563,-492.1875
4.1800,788.5742188,-407.2265625,-496.5820313
4.1850,793.9453125,-401.8554688,-496.09375
4.1900,791.5039063,-389.6484375,-489.2578125
4.1950,782.2265625,-400.8789063,-471.6796875
4.2000,786.6210938,-390.1367188,-475.0976563
4.2050,776.8554688,-402.8320313,-476.0742188
4.2100,771.9726563,-412.5976563,-474.609375
4.2150,770.0195313,-413.0859375,-462.890625
4.2200,772.9492188,-407.2265625,-473.6328125
4.2250,777.34375,-398.9257813,-463.8671875
4.2300,775.390625,-409.6679688,-475.5859375
4.2350,787.109375,-405.2734375,-488.28125
4.2400,784.1796875,-411.6210938,-472.65625
4.2450,783.6914063,-402.8320313,-475.0976563
4.2500,794.921875,-395.9960938,-464.84375
4.2550,808.59375,-397.4609375,-458.984375
4.2600,807.1289063,-395.0195313,-455.078125
4.2650,799.3164063,-403.8085938,-470.2148438
4.2700,805.6640625,-393.5546875,-460.9375
4.2750,800.78125,-400.390625,-465.8203125
4.2800,811.0351563,-399.4140625,-470.703125
4.2850,814.9414063,-402.34375,-464.84375
4.2900,809.5703125,-405.7617188,-478.515625
4.2950,807.1289063,-397.4609375,-459.4726563
4.3000,802.734375,-380.3710938,-451.171875
4.3050,792.4804688,-372.0703125,-453.6132813
4.3100,792.4804688,-356.4453125,-456.0546875
4.3150,788.5742188,-365.234375,-444.8242188
4.3200,794.4335938,-371.5820313,-448.7304688
4.3250,800.2929688,-377.4414063,-438.9648438
4.3300,807.1289063,-374.5117188,-435.0585938
4.3350,810.0585938,-399.9023438,-435.546875
4.3400,802.2460938,-408.6914063,-429.1992188
4.3450,822.7539063,-411.1328125,-440.9179688
4.3500,828.6132813,-411.6210938,-442.8710938
4.3550,830.078125,-410.6445313,-445.8007813
4.3600,824.7070313,-409.1796875,-451.171875
4.3650,814.9414063,-402.34375,-456.5429688
4.3700,817.8710938,-395.5078125,-439.453125
4.3750,806.1523438,-388.1835938,-442.3828125
4.3800,798.828125,-375.9765625,-437.0117188
4.3850,807.6171875,-355.9570313,-432.6171875
4.3900,800.2929688,-358.8867188,-434.5703125
4.3950,811.5234375,-351.5625,-441.8945313
4.4000,809.5703125,-361.328125,-443.359375
4.4050,817.8710938,-368.1640625,-456.0546875
4.4100,814.453125,-385.7421875,-456.0546875
4.4150,809.5703125,-386.71875,-458.984375
4.4200,812.0117188,-377.4414063,-450.1953125
4.4250,805.6640625,-384.765625,-456.0546875
4.4300,808.59375,-381.3476563,-429.6875
4.4350,801.2695313,-385.2539063,-445.8007813
4.4400,801.2695313,-376.953125,-438.4765625
4.4450,796.875,-372.5585938,-446.2890625
4.4500,794.921875,-375.4882813,-437.9882813
4.4550,798.3398438,-377.4414063,-451.171875
4.4600,802.2460938,-379.3945313,-440.4296875
4.4650,804.6875,-380.3710938,-450.1953125
4.4700,802.734375,-385.7421875,-447.265625
4.4750,815.4296875,-391.1132813,-435.546875
4.4800,816.8945313,-394.53125,-454.1015625
4.4850,815.9179688,-396.484375,-446.7773438
4.4900,805.6640625,-395.0195313,-429.6875
4.4950,804.6875,-385.2539063,-418.4570313
4.5000,804.6875,-367.1875,-415.5273438
4.5050,799.8046875,-375,-398.9257813
4.5100,811.5234375,-364.2578125,-411.6210938
4.5150,813.9648438,-369.6289063,-416.5039063
4.5200,815.9179688,-369.140625,-433.1054688
4.5250,829.5898438,-368.1640625,-447.265625
4.5300,827.1484375,-375.9765625,-447.265625
4.5350,833.0078125,-367.6757813,-444.8242188
4.5400,831.0546875,-354.9804688,-434.5703125
4.5450,820.3125,-367.6757813,-426.2695313
4.5500,817.3828125,-377.4414063,-425.2929688
4.5550,830.078125,-365.7226563,-406.7382813
4.5600,818.359375,-350.0976563,-414.0625
4.5650,827.1484375,-333.0078125,-404.296875
4.5700,817.8710938,-340.8203125,-406.7382813
4.5750,809.5703125,-348.1445313,-403.3203125
4.5800,807.6171875,-349.609375,-398.9257813
4.5850,807.1289063,-355.9570313,-409.1796875
4.5900,812.0117188,-360.8398438,-395.5078125
4.5950,816.8945313,-371.09375,-395.5078125
4.6000,820.8007813,-373.046875,-411.6210938
4.6050,830.078125,-382.8125,-396.9726563
4.6100,842.7734375,-379.8828125,-405.7617188
4.6150,850.0976563,-377.9296875,-411.6210938
4.6200,863.28125,-365.7226563,-411.6210938
4.6250,853.515625,-364.7460938,-407.2265625
4.6300,846.6796875,-355.46875,-406.25
4.6350,843.75,-338.8671875,-402.34375
4.6400,827.6367188,-336.4257813,-406.7382813
4.6450,823.2421875,-332.5195313,-405.2734375
4.6500,823.2421875,-324.7070313,-391.6015625
4.6550,828.125,-333.4960938,-392.578125
4.6600,848.1445313,-330.078125,-381.8359375
4.6650,869.6289063,-329.5898438,-378.4179688
4.6700,866.2109375,-333.984375,-367.6757813
4.6750,866.6992188,-331.5429688,-379.8828125
4.6800,865.7226563,-322.265625,-375
4.6850,875,-316.40625,-380.859375
4.6900,884.2773438,-324.21875,-380.3710938
4.6950,903.8085938,-340.8203125,-376.4648438
4.7000,924.3164063,-329.5898438,-367.1875
4.7050,908.203125,-347.1679688,-364.7460938
4.7100,889.1601563,-344.2382813,-346.6796875
4.7150,870.1171875,-345.703125,-339.3554688
4.7200,851.0742188,-358.3984375,-340.8203125
4.7250,847.65625,-358.3984375,-326.6601563
4.7300,835.9375,-362.7929688,-334.9609375
4.7350,846.1914063,-364.2578125,-347.1679688
4.7400,866.6992188,-353.515625,-354.4921875
4.7450,870.6054688,-354.4921875,-346.6796875
4.7500,864.7460938,-370.1171875,-370.6054688
4.7550,892.0898438,-361.328125,-365.234375
4.7600,897.4609375,-362.3046875,-374.0234375
4.7650,900.390625,-349.1210938,-383.7890625
4.7700,892.578125,-343.2617188,-377.4414063
4.7750,885.2539063,-340.8203125,-354.0039063
4.7800,884.765625,-330.078125,-354.9804688
4.7850,890.1367188,-317.3828125,-361.328125
4.7900,880.859375,-323.2421875,-358.8867188
4.7950,881.8359375,-313.4765625,-351.5625
4.8000,872.5585938,-310.546875,-365.234375
4.8050,875.4882813,-313.4765625,-348.1445313
4.8100,867.1875,-325.6835938,-357.9101563
4.8150,873.5351563,-334.4726563,-346.1914063
4.8200,873.5351563,-341.796875,-351.0742188
4.8250,874.0234375,-340.8203125,-352.0507813
4.8300,872.5585938,-350.5859375,-365.234375
4.8350,880.3710938,-353.515625,-368.1640625
4.8400,877.9296875,-345.703125,-357.421875
4.8450,875,-335.4492188,-366.2109375
4.8500,874.0234375,-323.2421875,-357.421875
4.8550,876.4648438,-312.5,-351.0742188
4.8600,866.6992188,-311.5234375,-353.0273438
4.8650,865.7226563,-303.7109375,-343.2617188
4.8700,872.0703125,-299.8046875,-339.3554688
4.8750,885.2539063,-303.2226563,-337.890625
4.8800,895.9960938,-301.7578125,-347.1679688
4.8850,902.8320313,-311.0351563,-356.9335938
4.8900,910.15625,-307.6171875,-361.328125
4.8950,912.5976563,-311.0351563,-354.0039063
4.9000,907.2265625,-311.0351563,-348.1445313
4.9050,908.6914063,-311.0351563,-366.6992188
4.9100,895.5078125,-316.8945313,-336.9140625
4.9150,894.53125,-322.7539063,-324.21875
4.9200,893.0664063,-310.0585938,-308.59375
4.9250,896.9726563,-301.7578125,-327.1484375
4.9300,881.8359375,-305.6640625,-315.4296875
4.9350,900.8789063,-303.2226563,-305.1757813
4.9400,906.7382813,-303.2226563,-298.3398438
4.9450,909.1796875,-300.78125,-315.9179688
4.9500,915.5273438,-303.2226563,-309.5703125
4.9550,921.3867188,-303.7109375,-319.3359375
4.9600,908.6914063,-311.0351563,-306.1523438
4.9650,912.109375,-291.5039063,-318.359375
4.9700,910.6445313,-271.484375,-343.2617188
4.9750,905.2734375,-270.9960938,-331.5429688
4.9800,903.3203125,-268.0664063,-347.1679688
4.9850,896.484375,-266.6015625,-342.2851563
4.9900,893.0664063,-259.2773438,-340.3320313
4.9950,891.1132813,-257.3242188,-330.078125
5.0000,893.0664063,-250,-312.0117188
5.0050,896.484375,-260.2539063,-324.21875
5.0100,901.3671875,-265.1367188,-301.7578125
5.0150,908.203125,-274.4140625,-296.3867188
5.0200,911.1328125,-270.0195313,-281.25
5.0250,911.6210938,-262.6953125,-287.109375
5.0300,915.0390625,-259.2773438,-282.7148438
5.0350,918.4570313,-278.3203125,-302.2460938
5.0400,922.8515625,-299.3164063,-289.5507813
5.0450,924.3164063,-311.5234375,-299.3164063
5.0500,925.78125,-321.2890625,-300.78125
5.0550,926.2695313,-330.5664063,-298.3398438
5.0600,932.1289063,-323.2421875,-285.6445313
5.0650,927.734375,-313.9648438,-283.203125
5.0700,932.1289063,-297.8515625,-274.9023438
5.0750,926.7578125,-289.5507813,-288.0859375
5.0800,925.78125,-270.9960938,-291.015625
5.0850,926.7578125,-275.390625,-318.8476563
5.0900,935.546875,-269.53125,-299.3164063
5.0950,938.4765625,-270.0195313,-314.9414063
5.1000,925.2929688,-282.2265625,-296.875
5.1050,913.0859375,-290.5273438,-308.1054688
5.1100,905.2734375,-263.671875,-285.6445313
5.1150,895.9960938,-260.2539063,-277.8320313
5.1200,892.578125,-259.2773438,-270.0195313
5.1250,890.1367188,-266.6015625,-270.5078125
5.1300,911.6210938,-270.9960938,-285.6445313
5.1350,924.3164063,-263.671875,-291.9921875
5.1400,928.7109375,-265.625,-290.5273438
5.1450,937.5,-259.765625,-306.1523438
5.1500,931.1523438,-254.8828125,-301.7578125
5.1550,930.1757813,-251.4648438,-299.8046875
5.1600,923.3398438,-253.4179688,-289.5507813
5.1650,929.1992188,-249.0234375,-284.1796875
5.1700,916.5039063,-251.953125,-286.1328125
5.1750,903.3203125,-244.6289063,-280.2734375
5.1800,898.9257813,-241.6992188,-258.3007813
5.1850,896.9726563,-250,-266.6015625
5.1900,907.7148438,-245.6054688,-255.3710938
5.1950,910.15625,-262.2070313,-256.3476563
5.2000,916.015625,-262.2070313,-275.390625
5.2050,925.2929688,-256.3476563,-300.2929688
5.2100,915.0390625,-268.5546875,-286.1328125
5.2150,923.828125,-270.0195313,-267.578125
5.2200,919.4335938,-271.484375,-275.390625
5.2250,938.9648438,-262.6953125,-269.53125
5.2300,939.9414063,-269.53125,-279.7851563
5.2350,943.8476563,-260.2539063,-282.7148438
5.2400,960.9375,-235.8398438,-274.4140625
5.2450,961.4257813,-227.5390625,-291.015625
5.2500,943.8476563,-237.3046875,-277.34375
5.2550,933.1054688,-243.1640625,-291.5039063
5.2600,918.9453125,-237.7929688,-284.1796875
5.2650,911.1328125,-237.3046875,-287.109375
5.2700,908.203125,-240.234375,-275.8789063
5.2750,898.9257813,-248.5351563,-268.0664063
5.2800,908.203125,-244.140625,-257.8125
5.2850,928.2226563,-231.4453125,-270.5078125
5.2900,923.828125,-247.5585938,-274.4140625
5.2950,936.5234375,-246.09375,-254.8828125
5.3000,949.21875,-229.9804688,-266.6015625
5.3050,944.3359375,-224.609375,-273.4375
5.3100,943.359375,-218.75,-276.8554688
5.3150,930.6640625,-227.5390625,-268.0664063
5.3200,909.1796875,-237.7929688,-275.390625
5.3250,907.7148438,-219.7265625,-262.6953125
5.3300,907.7148438,-205.078125,-263.671875
5.3350,905.2734375,-214.84375,-268.0664063
5.3400,907.2265625,-214.3554688,-264.6484375
5.3450,918.4570313,-213.8671875,-251.953125
5.3500,916.9921875,-219.2382813,-242.6757813
5.3550,937.5,-208.984375,-247.5585938
5.3600,948.2421875,-207.03125,-253.4179688
5.3650,963.8671875,-219.7265625,-259.765625
5.3700,976.0742188,-230.9570313,-268.5546875
5.3750,985.3515625,-235.8398438,-266.1132813
5.3800,970.703125,-234.375,-267.578125
5.3850,963.8671875,-226.0742188,-273.9257813
5.3900,949.21875,-232.421875,-276.8554688
5.3950,947.265625,-242.1875,-267.578125
5.4000,947.265625,-242.6757813,-292.4804688
5.4050,942.8710938,-248.046875,-267.0898438
5.4100,935.546875,-244.140625,-263.671875
5.4150,928.2226563,-247.0703125,-260.7421875
5.4200,927.2460938,-233.8867188,-242.1875
5.4250,932.1289063,-227.5390625,-226.5625
5.4300,938.9648438,-219.2382813,-227.5390625
5.4350,934.5703125,-223.1445313,-244.140625
5.4400,939.453125,-219.2382813,-234.375
5.4450,954.1015625,-210.4492188,-241.2109375
5.4500,952.6367188,-220.2148438,-245.6054688
5.4550,966.796875,-214.84375,-258.3007813
5.4600,956.5429688,-218.2617188,-276.3671875
5.4650,958.984375,-219.7265625,-274.4140625
5.4700,943.8476563,-236.8164063,-265.625
5.4750,948.7304688,-224.609375,-254.3945313
5.4800,935.0585938,-209.9609375,-245.6054688
5.4850,917.96875,-203.125,-243.6523438
5.4900,909.1796875,-202.6367188,-234.375
5.4950,915.5273438,-208.0078125,-225.0976563
5.5000,931.640625,-210.9375,-210.9375
5.5050,945.3125,-221.1914063,-215.3320313
5.5100,956.5429688,-217.2851563,-218.2617188
5.5150,972.65625,-206.5429688,-224.1210938
5.5200,975.5859375,-202.6367188,-237.3046875
5.5250,985.3515625,-203.125,-244.6289063
5.5300,981.9335938,-209.4726563,-257.3242188
5.5350,978.0273438,-209.9609375,-285.6445313
5.5400,960.9375,-217.7734375,-280.2734375
5.5450,949.7070313,-215.3320313,-269.53125
5.5500,942.3828125,-208.0078125,-250
5.5550,937.9882813,-204.5898438,-241.2109375
5.5600,920.8984375,-204.1015625,-230.9570313
5.5650,918.4570313,-200.6835938,-233.8867188
5.5700,907.2265625,-208.0078125,-217.7734375
5.5750,918.4570313,-194.8242188,-192.8710938
5.5800,935.546875,-175.2929688,-199.21875
5.5850,951.171875,-175.2929688,-187.9882813
5.5900,961.9140625,-170.8984375,-209.4726563
5.5950,975.0976563,-173.3398438,-230.9570313
5.6000,973.6328125,-181.640625,-222.65625
5.6050,963.8671875,-201.6601563,-248.046875
5.6100,974.609375,-202.6367188,-257.8125
5.6150,969.2382813,-215.8203125,-259.2773438
5.6200,967.2851563,-210.9375,-258.3007813
5.6250,960.4492188,-210.9375,-230.46875
5.6300,937.5,-229.9804688,-240.234375
5.6350,937.5,-224.609375,-210.9375
5.6400,939.453125,-220.703125,-194.3359375
5.6450,951.6601563,-224.1210938,-210.4492188
5.6500,959.9609375,-233.3984375,-210.9375
5.6550,972.1679688,-234.375,-200.6835938
5.6600,974.1210938,-227.5390625,-224.1210938
5.6650,965.8203125,-217.2851563,-229.0039063
5.6700,967.7734375,-211.4257813,-252.4414063
5.6750,968.2617188,-206.5429688,-264.1601563
5.6800,964.3554688,-195.8007813,-252.9296875
5.6850,941.8945313,-187.5,-249.0234375
5.6900,925.78125,-159.1796875,-244.140625
5.6950,916.5039063,-145.0195313,-248.5351563
5.7000,918.9453125,-147.9492188,-263.1835938
5.7050,921.875,-154.296875,-252.4414063
5.7100,918.9453125,-164.5507813,-242.1875
5.7150,917.96875,-159.1796875,-252.4414063
5.7200,926.7578125,-145.5078125,-214.3554688
5.7250,928.2226563,-149.9023438,-231.9335938
5.7300,942.8710938,-154.296875,-215.3320313
5.7350,959.4726563,-156.7382813,-209.9609375
5.7400,956.0546875,-169.4335938,-206.0546875
5.7450,961.9140625,-176.7578125,-189.453125
5.7500,973.1445313,-179.1992188,-193.8476563
5.7550,964.84375,-205.5664063,-204.1015625
5.7600,974.609375,-208.984375,-210.9375
5.7650,975.5859375,-216.3085938,-213.8671875
5.7700,974.1210938,-223.1445313,-220.2148438
5.7750,965.8203125,-229.4921875,-215.3320313
5.7800,962.890625,-229.4921875,-221.6796875
5.7850,962.890625,-224.609375,-226.0742188
5.7900,956.5429688,-210.9375,-225.5859375
5.7950,943.8476563,-202.6367188,-222.65625
5.8000,936.5234375,-186.0351563,-203.6132813
5.8050,938.4765625,-173.828125,-201.6601563
5.8100,948.2421875,-161.6210938,-207.5195313
5.8150,956.5429688,-158.203125,-198.7304688
5.8200,963.3789063,-141.6015625,-189.9414063
5.8250,970.703125,-146.9726563,-206.5429688
5.8300,976.0742188,-156.7382813,-209.9609375
5.8350,990.234375,-172.8515625,-221.6796875
5.8400,986.8164063,-193.8476563,-222.1679688
5.8450,992.1875,-194.8242188,-262.6953125
5.8500,974.609375,-217.2851563,-263.671875
5.8550,969.7265625,-215.3320313,-271.484375
5.8600,962.890625,-212.890625,-238.28125
5.8650,958.0078125,-208.0078125,-251.4648438
5.8700,949.7070313,-199.21875,-235.8398438
5.8750,940.4296875,-187.9882813,-220.703125
5.8800,945.3125,-165.5273438,-218.2617188
5.8850,945.3125,-153.8085938,-201.6601563
5.8900,949.21875,-152.34375,-201.171875
5.8950,953.6132813,-147.9492188,-194.8242188
5.9000,952.1484375,-149.9023438,-184.0820313
5.9050,961.4257813,-149.9023438,-208.4960938
5.9100,960.9375,-165.5273438,-208.984375
5.9150,971.6796875,-181.1523438,-234.375
5.9200,972.1679688,-193.359375,-240.7226563
5.9250,969.7265625,-200.1953125,-245.1171875
5.9300,959.9609375,-200.1953125,-251.953125
5.9350,961.9140625,-205.5664063,-248.5351563
5.9400,956.0546875,-198.2421875,-247.0703125
5.9450,954.1015625,-205.078125,-238.7695313
5.9500,963.3789063,-183.59375,-233.8867188
5.9550,950.6835938,-180.1757813,-229.4921875
5.9600,944.3359375,-177.734375,-230.46875
5.9650,959.4726563,-154.7851563,-220.703125
5.9700,952.6367188,-155.7617188,-226.5625
5.9750,953.125,-158.6914063,-222.65625
5.9800,955.5664063,-167.96875,-238.28125
5.9850,957.5195313,-173.828125,-249.5117188
5.9900,963.3789063,-176.7578125,-248.5351563
5.9950,959.9609375,-171.875,-252.9296875
6.0000,953.6132813,-164.5507813,-256.3476563
6.0050,951.6601563,-165.0390625,-245.6054688
6.0100,946.2890625,-169.4335938,-236.328125
6.0150,950.6835938,-181.1523438,-254.8828125
6.0200,954.5898438,-172.8515625,-229.0039063
6.0250,953.125,-175.78125,-239.7460938
6.0300,952.1484375,-174.8046875,-223.1445313
6.0350,955.5664063,-172.8515625,-213.8671875
6.0400,944.3359375,-174.8046875,-210.9375
6.0450,958.4960938,-170.4101563,-196.2890625
6.0500,956.5429688,-177.734375,-193.8476563
6.0550,955.078125,-180.6640625,-214.3554688
6.0600,949.21875,-185.0585938,-209.9609375
6.0650,958.984375,-181.1523438,-219.7265625
6.0700,963.3789063,-183.1054688,-215.3320313
6.0750,965.3320313,-192.3828125,-216.796875
6.0800,973.6328125,-186.5234375,-215.8203125
6.0850,979.9804688,-188.4765625,-210.4492188
6.0900,983.3984375,-182.1289063,-224.609375
6.0950,991.2109375,-163.0859375,-222.65625
6.1000,979.9804688,-165.5273438,-208.4960938
6.1050,979.9804688,-152.8320313,-208.984375
6.1100,966.3085938,-151.8554688,-207.03125
6.1150,963.3789063,-144.0429688,-202.1484375
6.1200,957.03125,-144.53125,-182.6171875
6.1250,969.2382813,-139.1601563,-187.0117188
6.1300,982.9101563,-148.9257813,-196.7773438
6.1350,985.3515625,-160.15625,-211.4257813
6.1400,986.8164063,-159.6679688,-217.2851563
6.1450,973.6328125,-175.2929688,-218.75
6.1500,981.4453125,-175.78125,-229.0039063
6.1550,979.0039063,-182.1289063,-226.5625
6.1600,976.5625,-184.5703125,-228.515625
6.1650,967.7734375,-193.8476563,-237.3046875
6.1700,963.8671875,-181.640625,-227.5390625
6.1750,967.2851563,-175.78125,-245.6054688
6.1800,963.3789063,-167.96875,-223.6328125
6.1850,953.6132813,-170.8984375,-231.9335938
6.1900,961.9140625,-160.15625,-229.9804688
6.1950,959.9609375,-154.7851563,-218.75
6.2000,958.4960938,-141.6015625,-229.9804688
6.2050,959.4726563,-140.1367188,-218.2617188
6.2100,952.1484375,-138.1835938,-217.7734375
6.2150,961.9140625,-122.0703125,-209.4726563
6.2200,949.7070313,-125.4882813,-208.4960938
6.2250,954.5898438,-129.3945313,-212.890625
6.2300,958.984375,-126.953125,-203.6132813
6.2350,960.4492188,-136.71875,-207.5195313
6.2400,956.0546875,-147.4609375,-214.3554688
6.2450,954.5898438,-158.203125,-207.03125
6.2500,952.1484375,-165.0390625,-216.3085938
6.2550,959.4726563,-163.0859375,-229.0039063
6.2600,949.7070313,-173.3398438,-221.1914063
6.2650,958.0078125,-166.9921875,-235.3515625
6.2700,961.9140625,-163.5742188,-244.6289063
6.2750,960.9375,-158.203125,-233.3984375
6.2800,963.3789063,-148.4375,-249.5117188
6.2850,964.84375,-145.9960938,-241.2109375
6.2900,956.0546875,-142.578125,-242.6757813
6.2950,959.9609375,-135.2539063,-251.4648438
6.3000,960.4492188,-133.7890625,-254.8828125
6.3050,955.078125,-141.1132813,-251.4648438
6.3100,958.0078125,-136.71875,-248.046875
6.3150,955.078125,-145.5078125,-248.046875
6.3200,953.6132813,-152.8320313,-238.7695313
6.3250,962.890625,-157.2265625,-242.1875
6.3300,964.84375,-150.390625,-229.9804688
6.3350,970.703125,-156.25,-228.0273438
6.3400,963.3789063,-160.6445313,-210.4492188
6.3450,972.1679688,-153.8085938,-214.3554688
6.3500,965.8203125,-162.5976563,-205.5664063
6.3550,975.0976563,-160.15625,-205.5664063
6.3600,967.2851563,-173.828125,-218.2617188
6.3650,965.3320313,-167.4804688,-218.2617188
6.3700,963.8671875,-169.4335938,-226.0742188
6.3750,968.75,-172.3632813,-238.7695313
6.3800,968.75,-156.7382813,-238.28125
6.3850,960.9375,-163.5742188,-248.046875
6.3900,958.4960938,-160.15625,-251.4648438
6.3950,959.4726563,-154.7851563,-258.3007813
6.4000,958.0078125,-147.4609375,-267.0898438
6.4050,946.7773438,-146.9726563,-263.1835938
6.4100,955.5664063,-141.1132813,-262.2070313
6.4150,957.03125,-132.8125,-260.7421875
6.4200,961.9140625,-128.4179688,-252.9296875
6.4250,962.4023438,-136.2304688,-243.1640625
6.4300,967.7734375,-129.3945313,-230.46875
6.4350,964.84375,-142.0898438,-229.4921875
6.4400,973.6328125,-132.8125,-226.5625
6.4450,972.1679688,-141.6015625,-204.1015625
6.4500,975.0976563,-147.9492188,-215.3320313
6.4550,977.0507813,-147.9492188,-209.9609375
6.4600,971.1914063,-149.4140625,-222.65625
6.4650,979.4921875,-144.53125,-220.703125
6.4700,965.8203125,-153.8085938,-220.703125
6.4750,969.7265625,-145.9960938,-237.3046875
6.4800,967.2851563,-141.6015625,-234.8632813
6.4850,964.3554688,-135.7421875,-229.0039063
6.4900,959.9609375,-133.3007813,-236.328125
6.4950,963.8671875,-125,-250.4882813
6.5000,956.0546875,-121.09375,-229.4921875
6.5050,958.0078125,-113.28125,-231.4453125
6.5100,960.9375,-113.28125,-216.796875
6.5150,967.2851563,-114.2578125,-217.7734375
6.5200,968.75,-120.1171875,-204.1015625
6.5250,975.5859375,-114.7460938,-196.7773438
6.5300,975.0976563,-123.5351563,-207.5195313
6.5350,977.5390625,-125,-194.3359375
6.5400,976.5625,-120.6054688,-185.0585938
6.5450,976.5625,-128.4179688,-200.1953125
6.5500,970.703125,-129.3945313,-197.265625
6.5550,975.0976563,-126.4648438,-196.2890625
6.5600,973.1445313,-118.6523438,-189.9414063
6.5650,966.796875,-116.6992188,-198.7304688
6.5700,979.0039063,-103.0273438,-190.9179688
6.5750,970.2148438,-110.8398438,-206.0546875
6.5800,977.0507813,-102.0507813,-193.8476563
6.5850,972.65625,-104.9804688,-193.8476563
6.5900,983.8867188,-104.9804688,-185.546875
6.5950,975.5859375,-106.9335938,-196.7773438
6.6000,979.0039063,-97.16796875,-182.1289063
6.6050,979.0039063,-102.0507813,-185.546875
6.6100,975.0976563,-108.3984375,-179.6875
6.6150,980.46875,-109.8632813,-192.8710938
6.6200,983.8867188,-105.9570313,-195.8007813
6.6250,982.421875,-108.8867188,-200.6835938
6.6300,969.7265625,-105.46875,-216.3085938
6.6350,967.2851563,-110.3515625,-218.75
6.6400,964.84375,-104.4921875,-218.2617188
6.6450,958.984375,-101.5625,-230.46875
6.6500,954.1015625,-106.4453125,-226.0742188
6.6550,957.5195313,-99.12109375,-238.7695313
6.6600,949.21875,-105.9570313,-244.6289063
6.6650,950.1953125,-103.0273438,-233.3984375
6.6700,954.1015625,-104.9804688,-238.28125
6.6750,957.03125,-106.4453125,-240.7226563
6.6800,957.03125,-112.3046875,-228.0273438
6.6850,965.8203125,-106.4453125,-217.7734375
6.6900,968.2617188,-109.8632813,-228.515625
6.6950,971.1914063,-116.2109375,-230.46875
6.7000,962.4023438,-116.6992188,-226.5625
6.7050,967.2851563,-112.7929688,-206.0546875
6.7100,961.4257813,-110.3515625,-219.2382813
6.7150,951.6601563,-115.7226563,-222.65625
6.7200,940.9179688,-113.28125,-248.046875
6.7250,944.3359375,-109.375,-247.5585938
6.7300,948.7304688,-104.4921875,-242.6757813
6.7350,947.265625,-102.5390625,-252.9296875
6.7400,952.6367188,-98.14453125,-261.2304688
6.7450,962.4023438,-100.5859375,-264.1601563
6.7500,956.5429688,-100.0976563,-265.625
6.7550,962.890625,-98.14453125,-258.3007813
6.7600,964.3554688,-98.14453125,-249.5117188
6.7650,954.5898438,-108.8867188,-238.28125
6.7700,956.0546875,-127.9296875,-240.7226563
6.7750,956.5429688,-136.2304688,-228.0273438
6.7800,947.265625,-159.1796875,-238.7695313
6.7850,969.2382813,-168.9453125,-249.0234375
6.7900,991.2109375,-165.0390625,-248.046875
6.7950,989.2578125,-155.2734375,-258.7890625
6.8000,977.5390625,-149.4140625,-258.3007813
6.8050,980.9570313,-144.53125,-263.1835938
6.8100,979.9804688,-135.2539063,-247.0703125
6.8150,962.4023438,-125.4882813,-254.3945313
6.8200,945.3125,-121.5820313,-260.2539063
6.8250,949.7070313,-105.9570313,-254.8828125
6.8300,942.8710938,-97.65625,-241.2109375
6.8350,956.5429688,-92.28515625,-245.1171875
6.8400,958.0078125,-87.890625,-234.8632813
6.8450,963.3789063,-89.84375,-227.5390625
6.8500,966.796875,-94.23828125,-242.6757813
6.8550,971.6796875,-100.0976563,-240.234375
6.8600,974.609375,-103.515625,-242.6757813
6.8650,965.3320313,-113.7695313,-236.8164063
6.8700,962.890625,-114.7460938,-232.421875
6.8750,967.2851563,-111.328125,-227.0507813
6.8800,965.8203125,-112.7929688,-231.9335938
6.8850,962.890625,-119.140625,-234.375
6.8900,961.4257813,-119.140625,-224.609375
6.8950,963.3789063,-125,-250.4882813
6.9000,956.5429688,-123.5351563,-250.9765625
6.9050,953.125,-119.6289063,-251.4648438
6.9100,960.4492188,-108.8867188,-270.5078125
6.9150,950.6835938,-112.3046875,-257.3242188
6.9200,950.1953125,-108.3984375,-277.34375
6.9250,959.4726563,-107.421875,-272.9492188
6.9300,955.5664063,-109.8632813,-259.765625
6.9350,965.8203125,-91.30859375,-257.8125
6.9400,960.9375,-89.84375,-255.859375
6.9450,967.7734375,-76.171875,-263.671875
6.9500,967.7734375,-83.49609375,-250
6.9550,972.65625,-78.61328125,-257.3242188
6.9600,962.890625,-84.9609375,-256.8359375
6.9650,953.6132813,-93.75,-250.4882813
6.9700,962.890625,-88.8671875,-263.1835938
6.9750,969.7265625,-87.40234375,-247.5585938
6.9800,961.9140625,-90.33203125,-248.046875
6.9850,968.2617188,-94.23828125,-239.7460938
6.9900,986.8164063,-76.66015625,-238.7695313
6.9950,987.3046875,-85.44921875,-227.0507813
7.0000,996.09375,-81.54296875,-217.2851563
7.0050,1001.464844,-84.47265625,-206.5429688
7.0100,1007.8125,-84.9609375,-209.9609375
7.0150,1013.671875,-80.078125,-197.265625
7.0200,1010.253906,-83.49609375,-203.125
7.0250,1008.789063,-82.51953125,-197.7539063
7.0300,1003.90625,-95.21484375,-199.7070313
7.0350,1000.976563,-94.7265625,-212.890625
7.0400,1001.464844,-92.7734375,-204.1015625
7.0450,994.140625,-91.796875,-219.7265625
7.0500,987.7929688,-97.65625,-215.8203125
7.0550,980.9570313,-98.6328125,-229.9804688
7.0600,978.515625,-87.890625,-232.9101563
7.0650,963.8671875,-93.26171875,-241.2109375
7.0700,963.3789063,-89.84375,-231.4453125
7.0750,954.5898438,-91.796875,-250.4882813
7.0800,958.984375,-83.0078125,-257.8125
7.0850,954.1015625,-88.8671875,-255.859375
7.0900,951.6601563,-92.7734375,-266.6015625
7.0950,964.3554688,-88.37890625,-266.1132813
7.1000,956.5429688,-95.21484375,-254.8828125
7.1050,959.9609375,-90.8203125,-244.140625
7.1100,958.4960938,-92.7734375,-255.859375
7.1150,961.9140625,-95.21484375,-238.7695313
7.1200,962.4023438,-114.7460938,-243.1640625
7.1250,970.703125,-122.5585938,-255.3710938
7.1300,964.3554688,-136.2304688,-250.4882813
7.1350,964.3554688,-143.5546875,-254.8828125
7.1400,970.2148438,-138.671875,-260.2539063
7.1450,974.609375,-134.2773438,-252.4414063
7.1500,967.2851563,-134.2773438,-261.2304688
7.1550,968.2617188,-123.046875,-247.5585938
7.1600,969.2382813,-100.5859375,-266.6015625
7.1650,961.4257813,-80.078125,-275.390625
7.1700,952.6367188,-71.2890625,-274.4140625
7.1750,952.1484375,-69.3359375,-281.7382813
7.1800,952.6367188,-68.84765625,-282.2265625
7.1850,958.4960938,-76.171875,-278.8085938
7.1900,968.75,-72.75390625,-268.5546875
7.1950,970.2148438,-97.16796875,-282.2265625
7.2000,974.609375,-98.6328125,-244.140625
7.2050,981.9335938,-105.46875,-247.0703125
7.2100,983.8867188,-104.9804688,-219.2382813
7.2150,990.7226563,-114.7460938,-212.890625
7.2200,991.6992188,-107.421875,-194.8242188
7.2250,987.7929688,-111.8164063,-213.8671875
7.2300,988.28125,-117.6757813,-188.9648438
7.2350,1002.441406,-109.8632813,-209.4726563
7.2400,995.6054688,-108.3984375,-200.6835938
7.2450,997.0703125,-105.46875,-185.0585938
7.2500,999.0234375,-101.0742188,-191.8945313
7.2550,1004.394531,-88.37890625,-183.1054688
7.2600,994.6289063,-82.51953125,-190.9179688
7.2650,988.7695313,-75.1953125,-179.1992188
7.2700,989.2578125,-82.03125,-187.5
7.2750,980.9570313,-91.796875,-195.3125
7.2800,985.3515625,-92.28515625,-198.2421875
7.2850,977.0507813,-107.421875,-198.2421875
7.2900,974.1210938,-115.234375,-206.0546875
7.2950,973.6328125,-120.1171875,-229.0039063
7.3000,972.65625,-119.6289063,-225.0976563
7.3050,971.6796875,-112.7929688,-233.8867188
7.3100,965.8203125,-111.8164063,-253.90625
7.3150,971.6796875,-101.0742188,-256.3476563
7.3200,959.4726563,-98.14453125,-259.2773438
7.3250,956.0546875,-92.28515625,-253.4179688
7.3300,961.9140625,-81.54296875,-270.5078125
7.3350,967.2851563,-80.56640625,-268.5546875
7.3400,962.4023438,-75.1953125,-259.2773438
7.3450,963.8671875,-67.87109375,-239.2578125
7.3500,969.7265625,-66.40625,-238.28125
7.3550,958.4960938,-75.68359375,-230.9570313
7.3600,965.8203125,-71.2890625,-234.8632813
7.3650,958.0078125,-88.8671875,-220.2148438
7.3700,952.1484375,-99.609375,-245.6054688
7.3750,964.3554688,-109.375,-236.8164063
7.3800,972.65625,-114.2578125,-231.4453125
7.3850,976.0742188,-120.6054688,-243.1640625
7.3900,979.9804688,-125.4882813,-224.609375
7.3950,985.8398438,-127.4414063,-240.7226563
7.4000,978.515625,-120.6054688,-241.6992188
7.4050,965.8203125,-125.9765625,-224.1210938
7.4100,966.796875,-112.7929688,-237.7929688
7.4150,959.4726563,-112.7929688,-241.2109375
7.4200,961.4257813,-100.0976563,-246.5820313
7.4250,957.5195313,-100.5859375,-250
7.4300,955.078125,-85.44921875,-252.9296875
7.4350,939.9414063,-95.21484375,-260.7421875
7.4400,945.8007813,-80.56640625,-277.8320313
7.4450,935.0585938,-86.42578125,-261.71875
7.4500,940.4296875,-85.44921875,-268.0664063
7.4550,939.453125,-93.75,-260.7421875
7.4600,941.40625,-92.28515625,-255.859375
7.4650,947.7539063,-91.30859375,-246.09375
7.4700,960.4492188,-89.35546875,-234.375
7.4750,960.4492188,-98.14453125,-229.4921875
7.4800,971.1914063,-92.7734375,-221.6796875
7.4850,973.1445313,-100.5859375,-212.4023438
7.4900,969.2382813,-108.3984375,-224.609375
7.4950,971.6796875,-108.3984375,-231.9335938
7.5000,968.2617188,-111.328125,-222.65625
7.5050,957.5195313,-114.7460938,-219.7265625
7.5100,952.6367188,-108.3984375,-221.6796875
7.5150,956.5429688,-103.0273438,-229.4921875
7.5200,953.6132813,-92.28515625,-232.421875
7.5250,953.125,-95.21484375,-250
7.5300,958.0078125,-94.7265625,-258.3007813
7.5350,968.75,-88.37890625,-266.6015625
7.5400,957.5195313,-94.7265625,-248.046875
7.5450,958.0078125,-94.7265625,-244.140625
7.5500,970.2148438,-106.4453125,-217.7734375
7.5550,956.0546875,-127.4414063,-264.6484375
7.5600,965.3320313,-119.6289063,-254.3945313
7.5650,959.4726563,-123.046875,-250.9765625
7.5700,954.1015625,-128.4179688,-259.765625
7.5750,952.1484375,-128.90625,-273.9257813
7.5800,964.84375,-116.6992188,-261.2304688
7.5850,959.4726563,-112.7929688,-240.234375
7.5900,963.3789063,-105.46875,-250
7.5950,964.84375,-94.23828125,-239.7460938
7.6000,958.0078125,-89.35546875,-240.7226563
7.6050,971.6796875,-80.078125,-239.7460938
7.6100,960.4492188,-89.84375,-224.609375
7.6150,969.7265625,-85.44921875,-246.5820313
7.6200,966.796875,-102.5390625,-235.3515625
7.6250,970.2148438,-109.8632813,-239.2578125
7.6300,963.3789063,-120.1171875,-244.140625
7.6350,963.3789063,-130.859375,-248.5351563
7.6400,973.6328125,-124.5117188,-264.1601563
7.6450,963.8671875,-145.5078125,-272.4609375
7.6500,969.7265625,-130.859375,-259.2773438
7.6550,966.3085938,-130.3710938,-256.8359375
7.6600,965.3320313,-117.1875,-262.2070313
7.6650,967.7734375,-108.8867188,-252.4414063
7.6700,968.2617188,-95.21484375,-248.046875
7.6750,968.75,-97.16796875,-238.7695313
7.6800,964.3554688,-94.7265625,-253.4179688
7.6850,968.75,-86.42578125,-244.6289063
7.6900,955.5664063,-95.21484375,-247.5585938
7.6950,963.3789063,-103.0273438,-245.6054688
7.7000,965.3320313,-114.2578125,-235.8398438
7.7050,962.4023438,-123.5351563,-253.4179688
7.7100,967.2851563,-116.6992188,-248.5351563
7.7150,962.890625,-118.1640625,-250.4882813
7.7200,950.1953125,-118.1640625,-237.7929688
7.7250,954.5898438,-116.6992188,-237.3046875
7.7300,953.6132813,-113.7695313,-236.8164063
7.7350,959.9609375,-112.3046875,-236.8164063
7.7400,966.796875,-109.375,-221.6796875
7.7450,951.171875,-116.6992188,-216.796875
7.7500,953.125,-107.421875,-223.6328125
7.7550,956.5429688,-110.3515625,-214.84375
7.7600,960.4492188,-104.0039063,-233.3984375
7.7650,959.4726563,-104.9804688,-228.0273438
7.7700,960.9375,-114.2578125,-233.8867188
7.7750,968.2617188,-114.7460938,-245.1171875
7.7800,956.5429688,-125.4882813,-236.328125
7.7850,960.4492188,-114.7460938,-257.8125
7.7900,955.078125,-113.7695313,-250.4882813
7.7950,960.4492188,-121.5820313,-265.625
7.8000,969.7265625,-120.1171875,-249.0234375
7.8050,961.9140625,-126.4648438,-264.1601563
7.8100,959.4726563,-131.8359375,-270.5078125
7.8150,960.4492188,-131.3476563,-267.0898438
7.8200,966.3085938,-116.6992188,-259.2773438
7.8250,966.3085938,-109.8632813,-264.1601563
7.8300,955.5664063,-105.46875,-256.3476563
7.8350,961.4257813,-97.16796875,-263.1835938
7.8400,957.03125,-102.5390625,-248.5351563
7.8450,954.5898438,-102.5390625,-243.6523438
7.8500,952.1484375,-107.9101563,-246.5820313
7.8550,954.1015625,-108.3984375,-246.5820313
7.8600,956.5429688,-109.375,-248.046875
7.8650,958.984375,-114.2578125,-238.7695313
7.8700,971.1914063,-109.8632813,-244.140625
7.8750,973.6328125,-119.6289063,-234.8632813
7.8800,974.1210938,-127.4414063,-245.1171875
7.8850,970.703125,-135.7421875,-236.328125
7.8900,974.609375,-135.7421875,-235.3515625
7.8950,973.6328125,-143.5546875,-230.9570313
7.9000,979.4921875,-141.1132813,-224.609375
7.9050,975.5859375,-145.0195313,-222.65625
7.9100,963.8671875,-142.578125,-228.0273438
7.9150,966.796875,-138.671875,-229.4921875
7.9200,973.1445313,-114.7460938,-244.140625
7.9250,968.2617188,-124.0234375,-256.3476563
7.9300,970.703125,-113.7695313,-245.6054688
7.9350,966.796875,-124.0234375,-232.421875
7.9400,967.2851563,-118.1640625,-239.7460938
7.9450,966.3085938,-114.2578125,-244.6289063
7.9500,972.65625,-101.0742188,-219.7265625
7.9550,969.7265625,-116.2109375,-227.0507813
7.9600,978.0273438,-125.4882813,-225.0976563
7.9650,980.46875,-137.2070313,-243.1640625
7.9700,972.65625,-137.6953125,-244.140625
7.9750,980.9570313,-145.9960938,-231.9335938
7.9800,984.8632813,-152.8320313,-219.7265625
7.9850,974.609375,-164.5507813,-238.7695313
7.9900,980.9570313,-160.6445313,-229.9804688
7.9950,975.5859375,-156.25,-240.7226563
8.0000,967.7734375,-155.7617188,-248.5351563
8.0050,965.8203125,-154.296875,-236.8164063
8.0100,958.0078125,-140.625,-239.2578125
8.0150,945.8007813,-133.3007813,-239.7460938
8.0200,943.359375,-119.6289063,-252.9296875
8.0250,943.8476563,-117.1875,-250.4882813
8.0300,947.7539063,-115.7226563,-232.421875
8.0350,948.2421875,-123.5351563,-233.3984375
8.0400,958.0078125,-111.328125,-243.6523438
8.0450,958.0078125,-109.375,-231.9335938
8.0500,960.4492188,-100.0976563,-248.046875
8.0550,954.5898438,-111.8164063,-241.2109375
8.0600,966.3085938,-112.7929688,-245.6054688
8.0650,960.9375,-130.3710938,-235.8398438
8.0700,957.03125,-138.671875,-251.4648438
8.0750,959.9609375,-144.53125,-250.9765625
8.0800,953.125,-155.2734375,-238.7695313
8.0850,951.171875,-148.9257813,-227.0507813
8.0900,944.8242188,-155.7617188,-222.1679688
8.0950,946.7773438,-151.8554688,-223.6328125
8.1000,959.9609375,-156.7382813,-229.0039063
8.1050,961.4257813,-169.921875,-238.28125
8.1100,967.7734375,-165.5273438,-227.0507813
8.1150,957.5195313,-161.1328125,-238.7695313
8.1200,957.03125,-154.7851563,-244.140625
8.1250,973.1445313,-150.8789063,-245.6054688
8.1300,989.7460938,-157.7148438,-235.3515625
8.1350,991.2109375,-170.4101563,-256.3476563
8.1400,981.4453125,-169.921875,-255.3710938
8.1450,967.7734375,-170.4101563,-253.4179688
8.1500,959.4726563,-166.015625,-243.1640625
8.1550,960.9375,-166.9921875,-234.375
8.1600,950.1953125,-170.4101563,-238.7695313
8.1650,955.078125,-169.921875,-228.515625
8.1700,952.6367188,-162.5976563,-239.2578125
8.1750,961.4257813,-149.4140625,-239.2578125
8.1800,956.5429688,-161.1328125,-241.2109375
8.1850,959.9609375,-164.5507813,-229.9804688
8.1900,964.3554688,-168.4570313,-247.0703125
8.1950,957.03125,-183.1054688,-236.8164063
8.2000,951.6601563,-179.1992188,-239.2578125
8.2050,956.0546875,-173.828125,-238.7695313
8.2100,964.84375,-167.4804688,-236.328125
8.2150,969.2382813,-174.8046875,-233.3984375
8.2200,970.703125,-178.7109375,-231.9335938
8.2250,963.8671875,-192.8710938,-228.515625
8.2300,958.4960938,-193.359375,-231.4453125
8.2350,967.7734375,-195.3125,-242.6757813
8.2400,970.703125,-191.40625,-236.8164063
8.2450,971.1914063,-182.1289063,-231.4453125
8.2500,947.265625,-186.5234375,-240.234375
8.2550,951.171875,-168.9453125,-251.953125
8.2600,941.40625,-177.2460938,-242.6757813
8.2650,958.0078125,-172.8515625,-250.9765625
8.2700,961.9140625,-181.640625,-225.5859375
8.2750,970.703125,-171.875,-245.1171875
8.2800,963.3789063,-165.0390625,-238.7695313
8.2850,954.1015625,-172.3632813,-230.9570313
8.2900,964.3554688,-172.8515625,-227.5390625
8.2950,963.3789063,-177.734375,-235.3515625
8.3000,966.3085938,-178.7109375,-241.6992188
8.3050,961.4257813,-180.1757813,-255.3710938
8.3100,950.6835938,-186.0351563,-250
8.3150,938.9648438,-202.1484375,-227.5390625
8.3200,948.7304688,-197.7539063,-229.9804688
8.3250,945.8007813,-221.1914063,-231.4453125
8.3300,951.171875,-218.2617188,-246.5820313
8.3350,954.1015625,-222.1679688,-257.3242188
8.3400,949.21875,-226.0742188,-254.8828125
8.3450,959.4726563,-215.8203125,-251.953125
8.3500,960.4492188,-206.5429688,-256.8359375
8.3550,949.7070313,-186.0351563,-270.0195313
8.3600,935.0585938,-164.5507813,-264.1601563
8.3650,924.3164063,-162.5976563,-253.4179688
8.3700,928.7109375,-161.1328125,-245.1171875
8.3750,934.5703125,-175.2929688,-252.9296875
8.3800,936.5234375,-195.8007813,-255.859375
8.3850,934.0820313,-208.0078125,-253.90625
8.3900,931.1523438,-214.84375,-228.515625
8.3950,942.8710938,-220.703125,-232.9101563
8.4000,948.7304688,-214.84375,-250.4882813
8.4050,956.0546875,-210.9375,-252.4414063
8.4100,943.359375,-214.3554688,-269.53125
8.4150,939.9414063,-217.2851563,-264.6484375
8.4200,941.40625,-217.7734375,-244.140625
8.4250,945.8007813,-195.8007813,-240.7226563
8.4300,933.59375,-185.0585938,-276.3671875
8.4350,929.1992188,-177.2460938,-259.765625
8.4400,935.0585938,-188.9648438,-244.140625
8.4450,947.7539063,-192.8710938,-234.8632813
8.4500,947.265625,-216.3085938,-255.859375
8.4550,954.5898438,-233.3984375,-288.0859375
8.4600,952.6367188,-243.1640625,-289.5507813
8.4650,962.890625,-229.0039063,-279.7851563
8.4700,959.4726563,-217.2851563,-273.4375
8.4750,939.9414063,-212.4023438,-263.1835938
8.4800,930.6640625,-203.125,-263.1835938
8.4850,936.0351563,-188.4765625,-248.5351563
8.4900,939.9414063,-164.5507813,-250.4882813
8.4950,945.8007813,-154.296875,-252.4414063
8.5000,935.0585938,-154.296875,-265.625
8.5050,935.546875,-157.2265625,-261.2304688
8.5100,929.6875,-178.2226563,-234.8632813
8.5150,930.1757813,-194.8242188,-238.7695313
8.5200,923.3398438,-209.4726563,-226.5625
8.5250,927.2460938,-231.4453125,-226.0742188
8.5300,944.8242188,-247.5585938,-234.375
8.5350,963.3789063,-266.1132813,-259.765625
8.5400,965.8203125,-274.4140625,-267.0898438
8.5450,971.1914063,-274.4140625,-284.1796875
8.5500,969.7265625,-264.6484375,-269.0429688
8.5550,954.5898438,-272.9492188,-269.53125
8.5600,934.0820313,-270.0195313,-285.6445313
8.5650,905.7617188,-297.3632813,-308.1054688
8.5700,898.4375,-302.2460938,-311.5234375
8.5750,907.7148438,-288.0859375,-271.9726563
8.5800,904.296875,-266.6015625,-266.6015625
8.5850,901.8554688,-241.6992188,-239.2578125
8.5900,898.4375,-232.9101563,-238.7695313
8.5950,908.6914063,-226.5625,-258.7890625
8.6000,927.2460938,-231.9335938,-260.7421875
8.6050,926.2695313,-245.6054688,-282.7148438
8.6100,940.4296875,-233.8867188,-267.578125
8.6150,949.7070313,-232.421875,-272.4609375
8.6200,955.5664063,-229.4921875,-270.0195313
8.6250,939.453125,-271.484375,-290.5273438
8.6300,952.6367188,-280.2734375,-269.53125
8.6350,943.8476563,-296.3867188,-280.7617188
8.6400,940.4296875,-286.1328125,-274.9023438
8.6450,938.9648438,-282.2265625,-275.390625
8.6500,935.0585938,-275.8789063,-286.1328125
8.6550,932.6171875,-281.7382813,-295.8984375
8.6600,916.5039063,-289.0625,-308.59375
8.6650,917.4804688,-302.734375,-298.828125
8.6700,910.6445313,-292.96875,-296.875
8.6750,912.109375,-287.109375,-275.8789063
8.6800,904.7851563,-282.2265625,-281.25
8.6850,914.0625,-260.7421875,-277.8320313
8.6900,925.78125,-233.3984375,-287.5976563
8.6950,936.0351563,-220.703125,-295.8984375
8.7000,942.3828125,-229.4921875,-314.453125
8.7050,921.875,-244.6289063,-320.8007813
8.7100,914.0625,-251.953125,-322.7539063
8.7150,912.5976563,-254.8828125,-304.1992188
8.7200,909.1796875,-244.140625,-290.0390625
8.7250,903.8085938,-250.4882813,-284.6679688
8.7300,911.1328125,-247.5585938,-297.3632813
8.7350,911.6210938,-257.3242188,-290.0390625
8.7400,908.203125,-254.8828125,-300.2929688
8.7450,912.109375,-257.3242188,-294.921875
8.7500,915.0390625,-269.53125,-292.4804688
8.7550,909.1796875,-283.6914063,-288.0859375
8.7600,906.7382813,-285.15625,-298.3398438
8.7650,914.5507813,-292.96875,-289.5507813
8.7700,926.2695313,-296.875,-307.1289063
8.7750,938.4765625,-304.6875,-319.8242188
8.7800,931.640625,-316.40625,-318.359375
8.7850,903.3203125,-324.7070313,-314.453125
8.7900,895.0195313,-291.9921875,-289.5507813
8.7950,891.6015625,-274.9023438,-289.5507813
8.8000,899.4140625,-247.5585938,-296.3867188
8.8050,893.5546875,-246.09375,-301.7578125
8.8100,893.0664063,-256.3476563,-316.40625
8.8150,895.9960938,-255.859375,-299.8046875
8.8200,890.625,-257.8125,-317.8710938
8.8250,886.2304688,-267.578125,-324.7070313
8.8300,884.2773438,-284.6679688,-333.4960938
8.8350,900.390625,-296.3867188,-322.265625
8.8400,923.3398438,-294.4335938,-320.8007813
8.8450,938.4765625,-309.0820313,-338.3789063
8.8500,939.453125,-321.2890625,-333.0078125
8.8550,938.9648438,-326.6601563,-349.609375
8.8600,923.828125,-322.7539063,-353.515625
8.8650,895.9960938,-323.2421875,-334.9609375
8.8700,875.4882813,-312.0117188,-315.4296875
8.8750,860.3515625,-292.96875,-274.4140625
8.8800,862.3046875,-279.7851563,-255.3710938
8.8850,870.1171875,-272.4609375,-269.53125
8.8900,882.3242188,-265.1367188,-279.7851563
8.8950,919.4335938,-260.2539063,-291.5039063
8.9000,934.5703125,-277.34375,-291.015625
8.9050,947.265625,-291.9921875,-318.359375
8.9100,931.1523438,-312.9882813,-314.9414063
8.9150,938.9648438,-318.359375,-323.7304688
8.9200,935.0585938,-317.8710938,-343.2617188
8.9250,921.875,-325.1953125,-346.6796875
8.9300,898.9257813,-320.8007813,-339.84375
8.9350,889.1601563,-323.7304688,-342.2851563
8.9400,893.0664063,-315.4296875,-333.0078125
8.9450,902.8320313,-323.7304688,-338.3789063
8.9500,887.2070313,-332.5195313,-351.0742188
8.9550,875.4882813,-331.5429688,-336.4257813
8.9600,861.8164063,-326.6601563,-332.03125
8.9650,865.7226563,-317.8710938,-329.5898438
8.9700,858.8867188,-329.5898438,-306.1523438
8.9750,862.3046875,-328.125,-338.3789063
8.9800,877.4414063,-304.1992188,-332.03125
8.9850,885.2539063,-301.2695313,-329.5898438
8.9900,907.7148438,-306.1523438,-338.8671875
8.9950,915.5273438,-320.3125,-346.6796875
9.0000,908.203125,-339.84375,-346.6796875
9.0050,897.4609375,-359.375,-327.1484375
9.0100,891.1132813,-360.3515625,-322.265625
9.0150,886.71875,-350.5859375,-338.3789063
9.0200,882.8125,-326.171875,-341.3085938
9.0250,870.1171875,-320.8007813,-349.609375
9.0300,854.0039063,-318.8476563,-333.0078125
9.0350,850.5859375,-319.8242188,-330.078125
9.0400,859.8632813,-307.1289063,-339.3554688
9.0450,858.8867188,-309.0820313,-349.1210938
9.0500,851.0742188,-337.890625,-350.5859375
9.0550,864.2578125,-343.2617188,-339.84375
9.0600,872.5585938,-341.3085938,-377.4414063
9.0650,865.7226563,-358.3984375,-376.953125
9.0700,849.609375,-365.7226563,-380.859375
9.0750,861.328125,-341.796875,-354.0039063
9.0800,866.2109375,-342.2851563,-359.8632813
9.0850,892.0898438,-327.1484375,-360.8398438
9.0900,884.765625,-333.0078125,-362.7929688
9.0950,883.3007813,-321.2890625,-376.953125
9.1000,870.6054688,-323.2421875,-371.5820313
9.1050,877.4414063,-324.21875,-360.3515625
9.1100,877.9296875,-326.6601563,-346.1914063
9.1150,872.0703125,-333.984375,-354.9804688
9.1200,864.7460938,-337.890625,-353.0273438
9.1250,865.234375,-340.3320313,-346.1914063
9.1300,865.7226563,-339.84375,-360.3515625
9.1350,864.7460938,-355.9570313,-351.0742188
9.1400,858.3984375,-364.7460938,-338.8671875
9.1450,855.46875,-381.3476563,-323.2421875
9.1500,854.0039063,-383.3007813,-345.703125
9.1550,857.9101563,-379.3945313,-368.6523438
9.1600,857.421875,-379.3945313,-365.234375
9.1650,874.5117188,-365.7226563,-363.28125
9.1700,874.0234375,-358.8867188,-373.046875
9.1750,864.2578125,-357.9101563,-374.0234375
9.1800,852.0507813,-349.609375,-355.9570313
9.1850,854.4921875,-341.3085938,-340.8203125
9.1900,851.5625,-337.4023438,-345.2148438
9.1950,846.6796875,-334.4726563,-356.4453125
9.2000,843.2617188,-324.7070313,-338.8671875
9.2050,846.1914063,-334.9609375,-345.2148438
9.2100,852.0507813,-352.0507813,-344.2382813
9.2150,858.3984375,-367.1875,-374.0234375
9.2200,878.4179688,-369.6289063,-399.9023438
9.2250,898.4375,-383.7890625,-406.25
9.2300,900.8789063,-406.25,-415.5273438
9.2350,899.4140625,-411.1328125,-424.8046875
9.2400,886.71875,-407.2265625,-399.4140625
9.2450,873.046875,-396.484375,-381.3476563
9.2500,850.5859375,-379.8828125,-356.4453125
9.2550,833.0078125,-370.1171875,-350.0976563
9.2600,828.125,-351.0742188,-355.46875
9.2650,817.8710938,-340.8203125,-356.4453125
9.2700,815.9179688,-354.0039063,-356.4453125
9.2750,838.8671875,-343.2617188,-372.0703125
9.2800,849.609375,-346.1914063,-385.7421875
9.2850,851.5625,-349.609375,-415.5273438
9.2900,850.0976563,-348.1445313,-384.765625
9.2950,843.75,-366.2109375,-382.8125
9.3000,830.5664063,-377.4414063,-370.6054688
9.3050,827.1484375,-386.2304688,-383.3007813
9.3100,834.9609375,-389.1601563,-370.1171875
9.3150,855.9570313,-383.7890625,-389.6484375
9.3200,861.328125,-378.4179688,-405.2734375
9.3250,845.2148438,-398.9257813,-418.9453125
9.3300,823.7304688,-409.6679688,-393.0664063
9.3350,824.7070313,-407.7148438,-353.0273438
9.3400,825.6835938,-381.3476563,-350.5859375
9.3450,829.1015625,-359.375,-376.953125
9.3500,833.0078125,-360.3515625,-385.2539063
9.3550,834.9609375,-352.0507813,-400.390625
9.3600,840.3320313,-330.5664063,-406.7382813
9.3650,842.7734375,-340.3320313,-398.4375
9.3700,829.1015625,-358.8867188,-377.9296875
9.3750,832.5195313,-373.5351563,-401.3671875
9.3800,836.9140625,-375.4882813,-395.9960938
9.3850,825.6835938,-395.9960938,-414.5507813
9.3900,827.1484375,-386.2304688,-386.2304688
9.3950,813.9648438,-396.484375,-365.234375
9.4000,809.5703125,-392.0898438,-370.1171875
9.4050,823.7304688,-396.9726563,-348.6328125
9.4100,836.4257813,-391.1132813,-373.5351563
9.4150,841.796875,-385.2539063,-385.7421875
9.4200,832.03125,-391.1132813,-387.6953125
9.4250,829.5898438,-391.6015625,-363.7695313
9.4300,823.2421875,-387.2070313,-375.9765625
9.4350,830.078125,-381.3476563,-400.390625
9.4400,844.7265625,-369.140625,-414.5507813
9.4450,842.2851563,-373.5351563,-419.921875
9.4500,833.0078125,-381.8359375,-405.2734375
9.4550,831.5429688,-392.0898438,-417.4804688
9.4600,847.1679688,-376.4648438,-407.7148438
9.4650,834.9609375,-387.6953125,-408.6914063
9.4700,830.078125,-401.8554688,-405.7617188
9.4750,834.4726563,-409.1796875,-389.1601563
9.4800,833.4960938,-407.2265625,-395.5078125
9.4850,830.5664063,-401.3671875,-395.0195313
9.4900,832.03125,-397.9492188,-401.8554688
9.4950,840.8203125,-390.1367188,-401.8554688
9.5000,841.3085938,-391.6015625,-413.5742188
9.5050,834.9609375,-395.5078125,-405.2734375
9.5100,815.4296875,-383.7890625,-406.7382813
9.5150,809.5703125,-368.6523438,-407.2265625
9.5200,804.1992188,-366.6992188,-410.15625
9.5250,808.1054688,-388.1835938,-411.6210938
9.5300,815.9179688,-399.9023438,-413.5742188
9.5350,812.5,-417.4804688,-418.4570313
9.5400,814.453125,-423.828125,-409.6679688
9.5450,810.0585938,-429.6875,-408.203125
9.5500,810.0585938,-419.4335938,-419.921875
9.5550,799.3164063,-418.4570313,-436.0351563
9.5600,794.4335938,-412.5976563,-407.2265625
9.5650,810.546875,-406.7382813,-416.5039063
9.5700,808.1054688,-396.9726563,-421.3867188
9.5750,817.3828125,-377.9296875,-420.4101563
9.5800,812.9882813,-373.046875,-418.4570313
9.5850,812.9882813,-385.2539063,-423.3398438
9.5900,817.8710938,-380.3710938,-418.4570313
9.5950,820.8007813,-374.0234375,-419.921875
9.6000,822.265625,-375.9765625,-406.25
9.6050,820.8007813,-388.671875,-412.109375
9.6100,830.5664063,-384.765625,-410.15625
9.6150,829.1015625,-392.578125,-410.6445313
9.6200,833.4960938,-374.5117188,-410.15625
9.6250,833.0078125,-376.4648438,-405.2734375
9.6300,829.5898438,-404.296875,-426.2695313
9.6350,833.0078125,-420.4101563,-426.2695313
9.6400,836.4257813,-417.96875,-430.6640625
9.6450,837.4023438,-406.7382813,-416.015625
9.6500,823.7304688,-395.5078125,-406.7382813
9.6550,813.9648438,-392.0898438,-388.671875
9.6600,796.875,-397.4609375,-409.6679688
9.6650,803.2226563,-378.4179688,-415.5273438
9.6700,810.0585938,-381.3476563,-407.2265625
9.6750,825.1953125,-376.953125,-430.6640625
9.6800,823.2421875,-372.5585938,-404.296875
9.6850,809.0820313,-385.7421875,-402.8320313
9.6900,809.0820313,-384.765625,-405.7617188
9.6950,813.4765625,-397.9492188,-425.78125
9.7000,811.5234375,-405.7617188,-421.875
9.7050,822.265625,-395.9960938,-429.1992188
9.7100,821.2890625,-385.7421875,-405.7617188
9.7150,800.2929688,-391.6015625,-385.7421875
9.7200,809.0820313,-385.2539063,-413.0859375
9.7250,798.3398438,-407.7148438,-422.3632813
9.7300,794.921875,-407.2265625,-427.2460938
9.7350,807.1289063,-399.4140625,-432.6171875
9.7400,818.359375,-399.9023438,-420.8984375
9.7450,830.5664063,-401.3671875,-438.9648438
9.7500,825.1953125,-407.2265625,-436.0351563
9.7550,805.6640625,-398.9257813,-439.9414063
9.7600,802.2460938,-382.3242188,-416.9921875
9.7650,799.3164063,-375,-443.8476563
9.7700,797.3632813,-371.5820313,-452.6367188
9.7750,792.4804688,-381.8359375,-427.2460938
9.7800,812.9882813,-387.2070313,-405.2734375
9.7850,810.546875,-399.4140625,-419.4335938
9.7900,804.6875,-392.0898438,-412.109375
9.7950,813.9648438,-387.2070313,-416.9921875
9.8000,813.4765625,-407.2265625,-442.8710938
9.8050,821.2890625,-407.7148438,-432.1289063
9.8100,815.9179688,-411.6210938,-419.4335938
9.8150,819.3359375,-408.203125,-424.3164063
9.8200,829.1015625,-395.5078125,-426.7578125
9.8250,821.2890625,-385.2539063,-404.296875
9.8300,812.9882813,-381.8359375,-392.578125
9.8350,820.3125,-379.8828125,-397.4609375
9.8400,801.7578125,-372.0703125,-418.4570313
9.8450,779.7851563,-391.6015625,-395.0195313
9.8500,785.15625,-393.0664063,-380.859375
9.8550,804.6875,-395.5078125,-396.484375
9.8600,804.6875,-406.7382813,-390.625
9.8650,808.59375,-419.4335938,-399.4140625
9.8700,795.8984375,-430.1757813,-409.6679688
9.8750,794.921875,-437.9882813,-400.390625
9.8800,795.8984375,-433.59375,-419.921875
9.8850,808.1054688,-418.9453125,-414.5507813
9.8900,804.6875,-409.1796875,-424.8046875
9.8950,816.8945313,-395.5078125,-430.1757813
9.9000,837.4023438,-385.2539063,-451.171875
9.9050,822.265625,-395.5078125,-456.0546875
9.9100,815.4296875,-375.9765625,-439.9414063
9.9150,815.4296875,-371.5820313,-451.171875
9.9200,826.6601563,-375.4882813,-446.7773438
9.9250,811.5234375,-383.7890625,-442.3828125
9.9300,805.1757813,-388.1835938,-437.5
9.9350,785.6445313,-405.7617188,-426.2695313
9.9400,799.8046875,-404.7851563,-428.7109375
9.9450,813.9648438,-420.8984375,-444.3359375
9.9500,825.1953125,-436.0351563,-450.6835938
9.9550,822.7539063,-436.5234375,-442.8710938
9.9600,817.8710938,-426.7578125,-414.5507813
9.9650,828.6132813,-419.4335938,-422.8515625
9.9700,831.5429688,-406.7382813,-437.5
9.9750,836.9140625,-398.4375,-452.6367188
9.9800,830.5664063,-395.5078125,-467.2851563
9.9850,846.1914063,-397.4609375,-451.171875
9.9900,850.5859375,-400.8789063,-458.4960938
9.9950,813.9648438,-404.7851563,-463.3789063
10.0000,785.15625,-390.1367188,-426.2695313
10.0050,787.5976563,-381.3476563,-429.1992188
10.0100,795.4101563,-400.8789063,-435.546875
10.0150,798.828125,-416.015625,-455.5664063
10.0200,793.4570313,-413.5742188,-422.8515625
10.0250,810.0585938,-431.1523438,-447.265625
10.0300,821.2890625,-431.640625,-435.546875
10.0350,815.9179688,-432.1289063,-454.5898438
10.0400,812.0117188,-420.8984375,-455.5664063
10.0450,807.6171875,-417.96875,-436.0351563
10.0500,808.59375,-412.109375,-424.8046875
10.0550,817.8710938,-390.1367188,-415.5273438
10.0600,812.0117188,-394.53125,-437.9882813
10.0650,813.4765625,-385.2539063,-443.359375
10.0700,827.1484375,-381.8359375,-440.4296875
10.0750,833.4960938,-394.0429688,-434.5703125
10.0800,812.5,-391.1132813,-430.1757813
10.0850,798.3398438,-392.578125,-430.6640625
10.0900,797.8515625,-394.53125,-423.828125
10.0950,800.2929688,-401.3671875,-428.2226563
10.1000,802.734375,-395.9960938,-448.7304688
10.1050,812.0117188,-412.109375,-467.7734375
10.1100,800.78125,-417.4804688,-461.4257813
10.1150,789.5507813,-401.8554688,-466.3085938
10.1200,797.8515625,-388.671875,-452.1484375
10.1250,795.4101563,-390.1367188,-449.7070313
10.1300,788.5742188,-381.8359375,-456.5429688
10.1350,785.15625,-379.3945313,-444.3359375
10.1400,785.6445313,-385.2539063,-471.6796875
10.1450,798.3398438,-394.0429688,-466.3085938
10.1500,788.0859375,-392.0898438,-481.4453125
10.1550,773.4375,-401.3671875,-439.9414063
10.1600,783.203125,-395.5078125,-459.9609375
10.1650,785.6445313,-408.6914063,-472.1679688
10.1700,790.0390625,-407.7148438,-468.2617188
10.1750,790.5273438,-402.8320313,-468.75
10.1800,791.5039063,-393.0664063,-476.0742188
10.1850,799.3164063,-384.2773438,-481.4453125
10.1900,792.4804688,-381.8359375,-472.1679688
10.1950,791.5039063,-383.3007813,-484.375
10.2000,785.6445313,-386.2304688,-481.4453125
10.2050,786.6210938,-392.0898438,-482.421875
10.2100,797.8515625,-396.484375,-492.6757813
10.2150,800.2929688,-398.9257813,-475.5859375
10.2200,787.109375,-409.1796875,-477.5390625
10.2250,789.5507813,-421.3867188,-465.8203125
10.2300,788.5742188,-419.4335938,-459.4726563
10.2350,781.25,-423.3398438,-463.8671875
10.2400,792.4804688,-424.3164063,-458.0078125
10.2450,797.8515625,-424.3164063,-484.375
10.2500,807.1289063,-422.8515625,-468.2617188
10.2550,808.59375,-412.5976563,-485.8398438
10.2600,808.1054688,-409.6679688,-473.6328125
10.2650,799.8046875,-413.0859375,-491.6992188
10.2700,794.4335938,-408.203125,-485.8398438
10.2750,783.203125,-418.4570313,-482.421875
10.2800,772.4609375,-418.9453125,-479.9804688
10.2850,775.8789063,-413.0859375,-480.46875
10.2900,783.6914063,-416.5039063,-482.421875
10.2950,780.2734375,-435.0585938,-480.9570313
10.3000,781.7382813,-433.1054688,-484.8632813
10.3050,781.7382813,-425.2929688,-473.6328125
10.3100,778.3203125,-423.3398438,-462.890625
10.3150,783.6914063,-414.0625,-476.0742188
10.3200,789.0625,-406.7382813,-478.0273438
10.3250,798.828125,-408.203125,-474.1210938
10.3300,800.78125,-406.7382813,-478.515625
10.3350,803.2226563,-401.3671875,-483.3984375
10.3400,808.59375,-390.1367188,-470.703125
10.3450,802.734375,-384.2773438,-485.3515625
10.3500,799.8046875,-391.1132813,-493.1640625
10.3550,796.3867188,-394.53125,-488.28125
10.3600,793.4570313,-401.8554688,-495.6054688
10.3650,793.4570313,-404.296875,-494.140625
10.3700,784.1796875,-416.5039063,-491.2109375
10.3750,779.7851563,-413.0859375,-482.421875
10.3800,770.5078125,-421.875,-472.65625
10.3850,769.0429688,-424.8046875,-475.0976563
10.3900,769.0429688,-430.6640625,-470.703125
10.3950,774.9023438,-431.1523438,-468.2617188
10.4000,779.296875,-421.3867188,-476.0742188
10.4050,783.6914063,-412.5976563,-475.5859375
10.4100,778.8085938,-412.109375,-487.3046875
10.4150,790.5273438,-393.0664063,-484.8632813
10.4200,796.3867188,-386.2304688,-491.2109375
10.4250,789.0625,-393.5546875,-498.5351563
10.4300,791.015625,-388.1835938,-485.8398438
10.4350,795.4101563,-385.7421875,-472.1679688
10.4400,792.96875,-386.71875,-471.6796875
10.4450,785.6445313,-384.765625,-473.6328125
10.4500,776.3671875,-392.578125,-469.2382813
10.4550,787.109375,-393.5546875,-460.9375
10.4600,773.9257813,-403.8085938,-455.5664063
10.4650,781.7382813,-400.390625,-464.84375
10.4700,786.6210938,-397.9492188,-473.1445313
10.4750,789.0625,-408.203125,-479.0039063
10.4800,791.5039063,-411.1328125,-494.140625
10.4850,783.203125,-411.1328125,-475.0976563
10.4900,781.25,-403.8085938,-466.796875
10.4950,776.3671875,-402.8320313,-463.3789063
10.5000,782.7148438,-389.6484375,-453.125
10.5050,780.7617188,-393.0664063,-467.2851563
10.5100,775.390625,-392.0898438,-456.5429688
10.5150,777.8320313,-398.4375,-468.75
10.5200,781.7382813,-401.8554688,-466.3085938
10.5250,790.5273438,-398.9257813,-460.9375
10.5300,799.3164063,-407.7148438,-477.0507813
10.5350,796.875,-412.5976563,-475.0976563
10.5400,783.6914063,-412.109375,-465.8203125
10.5450,787.5976563,-406.7382813,-453.6132813
10.5500,790.0390625,-401.8554688,-451.6601563
10.5550,800.2929688,-397.9492188,-451.171875
10.5600,802.2460938,-401.3671875,-449.7070313
10.5650,804.6875,-406.7382813,-460.9375
10.5700,807.1289063,-404.296875,-445.3125
10.5750,808.1054688,-404.296875,-453.125
10.5800,805.6640625,-408.203125,-450.6835938
10.5850,796.875,-415.0390625,-450.1953125
10.5900,804.1992188,-408.203125,-448.2421875
10.5950,806.640625,-414.5507813,-453.6132813
10.6000,799.3164063,-409.6679688,-454.5898438
10.6050,799.3164063,-409.1796875,-456.0546875
10.6100,796.875,-404.7851563,-441.8945313
10.6150,793.9453125,-406.7382813,-444.8242188
10.6200,794.921875,-392.0898438,-447.265625
10.6250,805.1757813,-383.3007813,-424.3164063
10.6300,798.828125,-388.671875,-446.7773438
10.6350,795.8984375,-388.671875,-441.40625
10.6400,799.3164063,-381.3476563,-429.6875
10.6450,804.6875,-384.765625,-432.6171875
10.6500,810.546875,-383.3007813,-440.4296875
10.6550,813.9648438,-391.1132813,-436.0351563
10.6600,815.9179688,-394.53125,-426.2695313
10.6650,818.8476563,-404.296875,-431.1523438
10.6700,822.265625,-403.8085938,-420.8984375
10.6750,828.6132813,-407.7148438,-407.2265625
10.6800,828.6132813,-402.8320313,-429.6875
10.6850,823.2421875,-405.2734375,-417.96875
10.6900,817.8710938,-403.3203125,-429.1992188
10.6950,825.1953125,-394.0429688,-408.6914063
10.7000,818.8476563,-399.4140625,-408.203125
10.7050,811.0351563,-395.9960938,-390.625
10.7100,808.1054688,-387.6953125,-416.5039063
10.7150,806.1523438,-385.2539063,-401.8554688
10.7200,799.3164063,-391.6015625,-411.1328125
10.7250,805.1757813,-394.53125,-417.96875
10.7300,799.3164063,-408.6914063,-416.9921875
10.7350,813.4765625,-400.390625,-424.8046875
10.7400,825.6835938,-393.5546875,-420.4101563
10.7450,830.078125,-405.7617188,-435.0585938
10.7500,827.6367188,-395.9960938,-423.3398438
10.7550,827.6367188,-398.9257813,-423.3398438
10.7600,826.171875,-382.3242188,-414.0625
10.7650,818.359375,-373.046875,-405.2734375
10.7700,804.1992188,-364.2578125,-403.8085938
10.7750,806.1523438,-354.4921875,-400.8789063
10.7800,802.2460938,-356.4453125,-392.578125
10.7850,800.2929688,-359.8632813,-378.90625
10.7900,803.7109375,-371.09375,-400.390625
10.7950,808.59375,-374.5117188,-397.4609375
10.8000,803.7109375,-375.9765625,-388.1835938
10.8050,823.7304688,-376.4648438,-394.0429688
10.8100,828.6132813,-379.8828125,-401.3671875
10.8150,831.0546875,-397.4609375,-411.1328125
10.8200,833.0078125,-391.1132813,-418.9453125
10.8250,837.4023438,-393.0664063,-414.5507813
10.8300,829.1015625,-393.5546875,-417.96875
10.8350,827.1484375,-390.1367188,-409.6679688
10.8400,821.7773438,-392.0898438,-405.2734375
10.8450,816.8945313,-379.8828125,-397.9492188
10.8500,811.5234375,-379.3945313,-394.53125
10.8550,810.546875,-371.5820313,-388.671875
10.8600,806.640625,-364.2578125,-390.1367188
10.8650,814.453125,-360.3515625,-392.578125
10.8700,816.8945313,-362.3046875,-392.0898438
10.8750,820.3125,-366.2109375,-382.8125
10.8800,824.7070313,-373.5351563,-398.9257813
10.8850,834.9609375,-385.2539063,-400.390625
10.8900,852.0507813,-382.3242188,-395.5078125
10.8950,866.2109375,-388.671875,-422.8515625
10.9000,863.28125,-393.5546875,-406.25
10.9050,858.3984375,-391.1132813,-413.5742188
10.9100,857.9101563,-386.2304688,-384.765625
10.9150,838.8671875,-393.5546875,-401.8554688
10.9200,833.4960938,-377.9296875,-387.2070313
10.9250,825.1953125,-372.5585938,-372.0703125
10.9300,820.3125,-363.28125,-365.234375
10.9350,817.3828125,-369.140625,-341.3085938
10.9400,823.2421875,-375.9765625,-363.7695313
10.9450,832.5195313,-384.2773438,-357.9101563
10.9500,836.9140625,-391.6015625,-366.2109375
10.9550,859.375,-385.7421875,-367.6757813
10.9600,867.1875,-388.671875,-377.9296875
10.9650,867.1875,-393.5546875,-376.953125
10.9700,873.5351563,-388.671875,-396.484375
10.9750,872.5585938,-390.1367188,-390.625
10.9800,863.28125,-384.2773438,-392.578125
10.9850,868.6523438,-374.0234375,-379.3945313
10.9900,854.9804688,-383.3007813,-386.2304688
10.9950,845.703125,-373.5351563,-373.046875
11.0000,835.9375,-363.28125,-372.5585938
11.0050,835.4492188,-357.421875,-347.65625
11.0100,833.984375,-345.703125,-354.0039063
11.0150,824.7070313,-352.0507813,-358.3984375
11.0200,827.6367188,-349.609375,-353.515625
11.0250,832.03125,-355.46875,-360.3515625
11.0300,845.2148438,-356.9335938,-362.7929688
11.0350,850.5859375,-362.7929688,-361.328125
11.0400,843.75,-368.1640625,-371.09375
11.0450,842.2851563,-370.6054688,-377.9296875
11.0500,847.65625,-374.0234375,-376.953125
11.0550,854.0039063,-375.4882813,-378.4179688
11.0600,860.3515625,-368.1640625,-379.8828125
11.0650,857.9101563,-375.4882813,-376.953125
11.0700,847.65625,-377.9296875,-355.9570313
11.0750,853.515625,-371.09375,-362.3046875
11.0800,865.7226563,-354.0039063,-343.2617188
11.0850,868.1640625,-358.3984375,-350.0976563
11.0900,863.28125,-350.5859375,-345.703125
11.0950,867.1875,-350.0976563,-343.75
11.1000,875,-346.1914063,-330.5664063
11.1050,876.4648438,-358.3984375,-324.7070313
11.1100,883.7890625,-355.9570313,-320.3125
11.1150,884.765625,-361.328125,-318.359375
11.1200,881.3476563,-363.28125,-346.6796875
11.1250,881.3476563,-361.8164063,-334.4726563
11.1300,881.8359375,-365.234375,-353.515625
11.1350,884.765625,-372.0703125,-366.2109375
11.1400,878.4179688,-388.1835938,-366.6992188
11.1450,890.1367188,-389.6484375,-352.0507813
11.1500,887.2070313,-384.765625,-354.0039063
11.1550,874.0234375,-377.4414063,-346.6796875
11.1600,875,-355.46875,-348.6328125
11.1650,873.5351563,-357.9101563,-334.9609375
11.1700,875,-348.1445313,-348.1445313
11.1750,882.3242188,-338.3789063,-330.5664063
11.1800,871.09375,-342.7734375,-320.3125
11.1850,868.1640625,-328.6132813,-313.9648438
11.1900,863.7695313,-325.6835938,-333.984375
11.1950,873.046875,-319.3359375,-326.6601563
11.2000,865.234375,-329.1015625,-342.2851563
11.2050,872.5585938,-342.7734375,-341.796875
11.2100,875.9765625,-356.4453125,-326.6601563
11.2150,882.8125,-362.3046875,-332.03125
11.2200,891.1132813,-357.9101563,-339.84375
11.2250,897.9492188,-347.1679688,-345.2148438
11.2300,910.15625,-340.8203125,-344.2382813
11.2350,897.9492188,-358.3984375,-340.8203125
11.2400,889.6484375,-352.5390625,-327.1484375
11.2450,876.4648438,-346.1914063,-325.6835938
11.2500,866.6992188,-332.5195313,-298.828125
11.2550,864.7460938,-322.265625,-301.2695313
11.2600,855.46875,-321.7773438,-304.6875
11.2650,860.3515625,-317.8710938,-315.4296875
11.2700,870.1171875,-326.171875,-314.453125
11.2750,879.3945313,-325.6835938,-319.8242188
11.2800,880.3710938,-332.5195313,-303.2226563
11.2850,897.9492188,-330.5664063,-313.4765625
11.2900,901.3671875,-335.4492188,-331.5429688
11.2950,908.203125,-341.796875,-339.84375
11.3000,908.203125,-346.6796875,-350.0976563
11.3050,908.203125,-354.9804688,-329.1015625
11.3100,904.296875,-344.7265625,-323.2421875
11.3150,895.0195313,-330.078125,-312.5
11.3200,877.4414063,-316.40625,-288.5742188
11.3250,872.0703125,-298.3398438,-307.6171875
11.3300,873.046875,-297.3632813,-282.2265625
11.3350,876.953125,-298.3398438,-291.015625
11.3400,890.1367188,-300.78125,-293.4570313
11.3450,902.8320313,-311.0351563,-290.5273438
11.3500,907.7148438,-323.7304688,-305.6640625
11.3550,911.6210938,-329.1015625,-311.5234375
11.3600,909.6679688,-332.03125,-325.1953125
11.3650,906.25,-336.4257813,-318.8476563
11.3700,915.5273438,-330.5664063,-317.3828125
11.3750,913.5742188,-339.84375,-316.8945313
11.3800,908.203125,-338.3789063,-310.546875
11.3850,910.15625,-326.6601563,-303.2226563
11.3900,906.25,-321.2890625,-299.8046875
11.3950,918.4570313,-315.9179688,-299.8046875
11.4000,906.7382813,-312.5,-295.8984375
11.4050,898.4375,-303.2226563,-291.9921875
11.4100,892.578125,-295.4101563,-271.484375
11.4150,894.0429688,-297.8515625,-289.0625
11.4200,894.53125,-294.921875,-298.3398438
11.4250,902.34375,-303.2226563,-291.015625
11.4300,896.9726563,-315.9179688,-292.4804688
11.4350,904.7851563,-309.0820313,-283.203125
11.4400,899.4140625,-306.640625,-289.0625
11.4450,907.7148438,-310.0585938,-279.296875
11.4500,912.109375,-307.6171875,-280.7617188
11.4550,920.4101563,-313.4765625,-272.9492188
11.4600,923.828125,-314.9414063,-281.25
11.4650,922.8515625,-325.6835938,-273.4375
11.4700,921.875,-322.265625,-281.7382813
11.4750,924.3164063,-321.7773438,-269.53125
11.4800,916.5039063,-314.453125,-270.9960938
11.4850,919.921875,-305.6640625,-263.671875
11.4900,919.4335938,-297.3632813,-268.0664063
11.4950,927.2460938,-297.3632813,-281.7382813
11.5000,927.2460938,-301.7578125,-289.5507813
11.5050,931.640625,-298.3398438,-297.3632813
11.5100,922.8515625,-294.921875,-295.4101563
11.5150,913.0859375,-295.4101563,-297.8515625
11.5200,918.9453125,-283.6914063,-283.6914063
11.5250,912.109375,-278.8085938,-281.25
11.5300,902.34375,-277.8320313,-283.6914063
11.5350,898.4375,-273.4375,-297.3632813
11.5400,898.4375,-261.2304688,-301.2695313
11.5450,912.109375,-257.8125,-299.8046875
11.5500,926.7578125,-269.53125,-305.6640625
11.5550,932.1289063,-289.5507813,-277.8320313
11.5600,941.40625,-285.15625,-271.9726563
11.5650,941.8945313,-273.9257813,-278.3203125
11.5700,930.1757813,-284.1796875,-254.8828125
11.5750,933.1054688,-292.96875,-258.3007813
11.5800,935.546875,-293.9453125,-263.1835938
11.5850,925.2929688,-296.875,-268.5546875
11.5900,923.828125,-283.6914063,-274.9023438
11.5950,910.15625,-290.0390625,-273.9257813
11.6000,902.8320313,-290.0390625,-264.6484375
11.6050,898.9257813,-290.0390625,-252.4414063
11.6100,900.8789063,-286.1328125,-245.1171875
11.6150,903.3203125,-284.6679688,-257.8125
11.6200,908.6914063,-283.6914063,-259.2773438
11.6250,915.5273438,-269.0429688,-262.6953125
11.6300,925.78125,-265.1367188,-263.671875
11.6350,921.875,-267.0898438,-262.6953125
11.6400,932.1289063,-257.3242188,-253.90625
11.6450,932.6171875,-242.1875,-266.6015625
11.6500,938.9648438,-237.7929688,-239.7460938
11.6550,943.8476563,-242.1875,-234.8632813
11.6600,942.3828125,-243.6523438,-229.9804688
11.6650,937.5,-254.8828125,-255.3710938
11.6700,932.6171875,-260.2539063,-256.8359375
11.6750,939.453125,-271.484375,-246.09375
11.6800,923.3398438,-292.4804688,-259.2773438
11.6850,927.734375,-284.6679688,-251.4648438
11.6900,915.5273438,-282.2265625,-242.6757813
11.6950,921.875,-273.9257813,-225.0976563
11.7000,927.2460938,-258.7890625,-214.84375
11.7050,935.546875,-263.671875,-208.0078125
11.7100,939.9414063,-275.8789063,-206.5429688
11.7150,952.6367188,-273.9257813,-219.7265625
11.7200,955.5664063,-263.1835938,-223.1445313
11.7250,959.4726563,-251.953125,-232.421875
11.7300,960.9375,-238.7695313,-222.65625
11.7350,962.890625,-241.6992188,-249.0234375
11.7400,952.6367188,-256.3476563,-244.140625
11.7450,938.9648438,-262.6953125,-252.4414063
11.7500,944.3359375,-247.0703125,-266.6015625
11.7550,929.6875,-245.1171875,-271.9726563
11.7600,916.015625,-257.3242188,-264.1601563
11.7650,912.5976563,-257.3242188,-246.09375
11.7700,910.6445313,-272.9492188,-230.9570313
11.7750,926.2695313,-256.3476563,-219.2382813
11.7800,927.2460938,-252.9296875,-213.3789063
11.7850,942.3828125,-254.8828125,-206.0546875
11.7900,949.7070313,-251.4648438,-205.5664063
11.7950,964.84375,-247.5585938,-210.4492188
11.8000,967.2851563,-246.5820313,-210.4492188
11.8050,963.3789063,-243.1640625,-243.1640625
11.8100,970.703125,-242.1875,-233.8867188
11.8150,969.2382813,-252.4414063,-252.4414063
11.8200,961.9140625,-262.6953125,-254.8828125
11.8250,946.7773438,-274.4140625,-262.6953125
11.8300,945.3125,-265.1367188,-263.671875
11.8350,940.9179688,-264.1601563,-257.8125
11.8400,939.453125,-252.9296875,-263.671875
11.8450,931.1523438,-247.0703125,-249.0234375
11.8500,916.9921875,-234.375,-254.8828125
11.8550,921.875,-220.703125,-231.4453125
11.8600,916.5039063,-212.890625,-226.5625
11.8650,916.9921875,-213.3789063,-223.1445313
11.8700,920.4101563,-204.1015625,-216.3085938
11.8750,926.2695313,-208.4960938,-226.0742188
11.8800,936.5234375,-209.9609375,-245.1171875
11.8850,946.7773438,-230.9570313,-227.5390625
11.8900,954.1015625,-252.9296875,-224.1210938
11.8950,954.5898438,-262.2070313,-229.4921875
11.9000,946.7773438,-262.2070313,-231.4453125
11.9050,955.5664063,-264.6484375,-228.515625
11.9100,951.6601563,-273.4375,-230.9570313
11.9150,947.7539063,-271.9726563,-233.3984375
11.9200,923.3398438,-269.0429688,-212.890625
11.9250,929.6875,-241.2109375,-207.03125
11.9300,916.015625,-228.0273438,-194.8242188
11.9350,921.875,-220.2148438,-182.6171875
11.9400,930.1757813,-210.4492188,-191.40625
11.9450,942.3828125,-211.4257813,-201.6601563
11.9500,957.03125,-201.171875,-232.9101563
11.9550,958.984375,-200.6835938,-232.9101563
11.9600,950.1953125,-198.2421875,-242.6757813
11.9650,948.2421875,-195.8007813,-254.8828125
11.9700,949.21875,-189.9414063,-263.1835938
11.9750,948.7304688,-195.8007813,-258.7890625
11.9800,945.8007813,-201.6601563,-255.859375
11.9850,932.6171875,-212.4023438,-233.3984375
11.9900,924.3164063,-214.84375,-241.2109375
11.9950,922.3632813,-210.9375,-211.4257813
12.0000,912.109375,-218.2617188,-204.1015625
12.0050,921.875,-208.4960938,-193.359375
12.0100,922.8515625,-206.5429688,-172.8515625
12.0150,926.2695313,-214.3554688,-175.2929688
12.0200,943.8476563,-212.4023438,-187.9882813
12.0250,954.5898438,-215.8203125,-183.1054688
12.0300,975.0976563,-222.65625,-188.4765625
12.0350,983.8867188,-225.0976563,-206.0546875
12.0400,987.7929688,-224.609375,-225.0976563
12.0450,986.328125,-232.9101563,-232.9101563
12.0500,989.2578125,-235.3515625,-240.7226563
12.0550,974.609375,-252.9296875,-260.7421875
12.0600,970.2148438,-248.5351563,-260.2539063
12.0650,960.4492188,-242.6757813,-271.9726563
12.0700,951.171875,-233.3984375,-260.7421875
12.0750,942.3828125,-229.4921875,-247.5585938
12.0800,920.8984375,-220.703125,-228.515625
12.0850,911.1328125,-219.2382813,-231.4453125
12.0900,904.7851563,-207.5195313,-229.4921875
12.0950,918.9453125,-188.9648438,-217.2851563
12.1000,931.1523438,-185.546875,-197.7539063
12.1050,935.546875,-184.5703125,-209.4726563
12.1100,932.1289063,-195.3125,-210.9375
12.1150,938.4765625,-197.7539063,-205.5664063
12.1200,959.4726563,-199.7070313,-201.171875
12.1250,967.2851563,-217.7734375,-206.5429688
12.1300,970.2148438,-228.515625,-216.796875
12.1350,965.8203125,-238.7695313,-224.1210938
12.1400,958.984375,-250,-236.8164063
12.1450,960.9375,-249.5117188,-253.90625
12.1500,963.3789063,-243.6523438,-243.6523438
12.1550,963.3789063,-240.234375,-248.5351563
12.1600,964.84375,-228.515625,-254.3945313
12.1650,954.5898438,-217.2851563,-229.9804688
12.1700,956.0546875,-197.265625,-215.8203125
12.1750,955.078125,-175.78125,-214.3554688
12.1800,957.03125,-166.9921875,-217.2851563
12.1850,969.2382813,-166.9921875,-226.0742188
12.1900,981.9335938,-169.4335938,-231.9335938
12.1950,984.375,-185.546875,-238.7695313
12.2000,988.28125,-181.640625,-238.28125
12.2050,978.0273438,-195.8007813,-238.28125
12.2100,978.515625,-203.6132813,-228.0273438
12.2150,991.2109375,-219.2382813,-228.515625
12.2200,992.1875,-242.1875,-231.9335938
12.2250,994.140625,-260.2539063,-224.1210938
12.2300,984.375,-256.3476563,-206.5429688
12.2350,974.609375,-258.7890625,-198.7304688
12.2400,963.8671875,-244.6289063,-180.6640625
12.2450,956.0546875,-233.8867188,-185.0585938
12.2500,952.1484375,-221.1914063,-182.1289063
12.2550,958.984375,-197.265625,-184.0820313
12.2600,953.6132813,-184.5703125,-194.8242188
12.2650,956.5429688,-164.5507813,-192.3828125
12.2700,949.7070313,-155.2734375,-200.6835938
12.2750,950.1953125,-136.2304688,-180.6640625
12.2800,948.2421875,-117.6757813,-194.3359375
12.2850,941.40625,-108.3984375,-187.9882813
12.2900,938.9648438,-110.3515625,-175.2929688
12.2950,932.6171875,-117.1875,-184.0820313
12.3000,930.6640625,-127.4414063,-186.5234375
12.3050,943.8476563,-138.671875,-197.265625
12.3100,947.7539063,-155.2734375,-198.2421875
12.3150,963.8671875,-167.96875,-196.2890625
12.3200,969.7265625,-177.2460938,-199.21875
12.3250,960.9375,-193.359375,-231.4453125
12.3300,961.4257813,-187.5,-237.3046875
12.3350,965.3320313,-174.3164063,-224.609375
12.3400,957.03125,-170.8984375,-226.5625
12.3450,970.2148438,-168.4570313,-222.65625
12.3500,966.3085938,-177.734375,-214.3554688
12.3550,974.1210938,-183.1054688,-224.1210938
12.3600,963.8671875,-188.4765625,-220.2148438
12.3650,959.9609375,-197.265625,-233.8867188
12.3700,965.8203125,-190.4296875,-230.9570313
12.3750,959.9609375,-206.0546875,-219.2382813
12.3800,949.21875,-212.4023438,-234.8632813
12.3850,949.7070313,-213.8671875,-234.375
12.3900,956.0546875,-214.3554688,-237.3046875
12.3950,957.03125,-210.9375,-231.9335938
12.4000,964.3554688,-190.4296875,-239.7460938
12.4050,952.6367188,-189.453125,-244.140625
12.4100,947.265625,-175.2929688,-239.2578125
12.4150,956.5429688,-159.6679688,-222.65625
12.4200,936.0351563,-159.1796875,-216.796875
12.4250,933.1054688,-150.8789063,-195.3125
12.4300,935.0585938,-150.8789063,-217.7734375
12.4350,937.5,-157.2265625,-218.75
12.4400,943.359375,-166.9921875,-210.4492188
12.4450,947.7539063,-173.828125,-216.3085938
12.4500,953.6132813,-178.2226563,-222.1679688
12.4550,959.4726563,-184.0820313,-215.8203125
12.4600,958.984375,-184.5703125,-214.3554688
12.4650,967.7734375,-187.9882813,-214.3554688
12.4700,971.6796875,-177.2460938,-208.4960938
12.4750,974.609375,-181.640625,-208.4960938
12.4800,991.2109375,-175.78125,-203.6132813
12.4850,991.2109375,-174.8046875,-212.4023438
12.4900,986.328125,-167.96875,-217.2851563
12.4950,981.4453125,-167.96875,-213.3789063
12.5000,968.75,-167.4804688,-215.3320313
12.5050,967.7734375,-167.4804688,-209.4726563
12.5100,964.3554688,-163.5742188,-223.1445313
12.5150,964.3554688,-159.6679688,-223.1445313
12.5200,958.4960938,-154.7851563,-224.1210938
12.5250,963.3789063,-149.9023438,-207.03125
12.5300,961.4257813,-150.390625,-210.4492188
12.5350,971.6796875,-146.484375,-203.6132813
12.5400,975.5859375,-146.484375,-197.265625
12.5450,960.9375,-152.8320313,-215.3320313
12.5500,970.703125,-152.8320313,-203.6132813
12.5550,970.703125,-163.0859375,-195.8007813
12.5600,976.5625,-157.7148438,-190.4296875
12.5650,972.65625,-166.5039063,-189.9414063
12.5700,969.2382813,-184.0820313,-178.7109375
12.5750,969.2382813,-195.3125,-190.4296875
12.5800,976.5625,-181.640625,-191.8945313
12.5850,969.7265625,-187.0117188,-205.078125
12.5900,972.1679688,-175.78125,-203.6132813
12.5950,965.8203125,-170.4101563,-202.1484375
12.6000,966.796875,-153.8085938,-202.6367188
12.6050,965.3320313,-138.1835938,-196.7773438
12.6100,959.9609375,-131.8359375,-217.7734375
12.6150,961.4257813,-127.4414063,-215.3320313
12.6200,957.5195313,-124.5117188,-209.9609375
12.6250,959.9609375,-128.90625,-223.6328125
12.6300,958.4960938,-138.1835938,-222.1679688
12.6350,959.9609375,-143.0664063,-238.28125
12.6400,954.5898438,-151.3671875,-225.5859375
12.6450,964.84375,-155.7617188,-230.9570313
12.6500,954.5898438,-160.6445313,-225.0976563
12.6550,959.9609375,-162.109375,-229.9804688
12.6600,950.1953125,-170.4101563,-228.515625
12.6650,949.21875,-158.6914063,-213.3789063
12.6700,956.5429688,-141.6015625,-204.1015625
12.6750,957.03125,-140.1367188,-203.125
12.6800,961.4257813,-136.71875,-199.21875
12.6850,966.796875,-138.671875,-213.8671875
12.6900,968.2617188,-139.1601563,-212.4023438
12.6950,963.3789063,-149.9023438,-217.2851563
12.7000,965.3320313,-148.9257813,-208.0078125
12.7050,951.171875,-159.6679688,-237.3046875
12.7100,960.4492188,-158.203125,-223.6328125
12.7150,951.171875,-166.015625,-233.8867188
12.7200,954.5898438,-162.109375,-227.0507813
12.7250,955.5664063,-162.5976563,-233.8867188
12.7300,957.5195313,-154.296875,-240.234375
12.7350,968.75,-137.6953125,-228.515625
12.7400,968.75,-128.90625,-228.515625
12.7450,971.6796875,-117.6757813,-215.3320313
12.7500,971.6796875,-116.6992188,-208.0078125
12.7550,967.7734375,-124.0234375,-208.0078125
12.7600,981.9335938,-124.5117188,-211.4257813
12.7650,979.4921875,-134.765625,-211.9140625
12.7700,972.65625,-154.296875,-221.6796875
12.7750,975.0976563,-159.1796875,-219.7265625
12.7800,968.2617188,-166.015625,-237.7929688
12.7850,966.796875,-165.0390625,-241.6992188
12.7900,960.9375,-156.25,-223.6328125
12.7950,963.8671875,-142.578125,-236.328125
12.8000,954.1015625,-144.0429688,-220.703125
12.8050,971.6796875,-128.4179688,-219.7265625
12.8100,971.6796875,-122.0703125,-208.0078125
12.8150,969.2382813,-123.046875,-202.1484375
12.8200,971.1914063,-113.7695313,-193.359375
12.8250,971.1914063,-112.3046875,-193.359375
12.8300,970.703125,-112.3046875,-196.2890625
12.8350,966.796875,-118.6523438,-208.984375
12.8400,964.3554688,-114.7460938,-218.75
12.8450,955.5664063,-121.09375,-231.9335938
12.8500,952.6367188,-121.5820313,-225.0976563
12.8550,946.7773438,-121.5820313,-229.0039063
12.8600,944.3359375,-128.4179688,-239.7460938
12.8650,939.453125,-135.2539063,-253.90625
12.8700,952.1484375,-126.4648438,-258.7890625
12.8750,953.125,-130.3710938,-248.046875
12.8800,955.078125,-123.5351563,-230.9570313
12.8850,955.078125,-114.7460938,-250
12.8900,952.1484375,-120.1171875,-232.9101563
12.8950,955.5664063,-121.09375,-207.03125
12.9000,962.890625,-115.7226563,-211.9140625
12.9050,970.2148438,-124.5117188,-214.84375
12.9100,967.7734375,-131.3476563,-224.1210938
12.9150,969.7265625,-141.1132813,-215.8203125
12.9200,970.2148438,-132.8125,-230.9570313
12.9250,967.7734375,-134.765625,-221.1914063
12.9300,962.890625,-135.7421875,-232.421875
12.9350,962.890625,-131.3476563,-237.7929688
12.9400,960.9375,-131.3476563,-246.5820313
12.9450,956.0546875,-138.671875,-250.9765625
12.9500,954.5898438,-139.1601563,-251.4648438
12.9550,961.9140625,-134.2773438,-250
12.9600,972.65625,-128.90625,-249.5117188
12.9650,974.609375,-134.765625,-242.6757813
12.9700,989.2578125,-127.9296875,-240.234375
12.9750,994.6289063,-133.7890625,-219.7265625
12.9800,988.28125,-133.7890625,-235.3515625
12.9850,985.8398438,-142.0898438,-210.4492188
12.9900,988.28125,-127.4414063,-227.0507813
12.9950,988.7695313,-127.9296875,-196.7773438
13.0000,986.8164063,-122.5585938,-207.5195313
13.0050,987.3046875,-117.6757813,-208.4960938
13.0100,973.6328125,-113.28125,-214.3554688
13.0150,981.9335938,-107.9101563,-214.84375
13.0200,985.3515625,-101.5625,-210.9375
13.0250,977.5390625,-107.9101563,-204.1015625
13.0300,980.9570313,-93.26171875,-206.0546875
13.0350,972.1679688,-92.7734375,-223.1445313
13.0400,957.5195313,-100.0976563,-213.8671875
13.0450,950.6835938,-108.8867188,-220.2148438
13.0500,957.03125,-104.9804688,-207.03125
13.0550,963.3789063,-111.8164063,-203.6132813
13.0600,973.6328125,-93.75,-202.6367188
13.0650,975.0976563,-91.30859375,-188.4765625
13.0700,975.5859375,-91.796875,-198.7304688
13.0750,971.6796875,-93.75,-220.2148438
13.0800,968.2617188,-89.84375,-212.890625
13.0850,959.9609375,-86.42578125,-219.2382813
13.0900,945.3125,-91.796875,-249.0234375
13.0950,942.8710938,-100.5859375,-247.0703125
13.1000,934.0820313,-103.0273438,-256.8359375
13.1050,924.8046875,-106.9335938,-261.71875
13.1100,924.8046875,-102.0507813,-265.625
13.1150,928.7109375,-96.6796875,-258.3007813
13.1200,921.3867188,-112.7929688,-272.4609375
13.1250,927.2460938,-114.2578125,-287.109375
13.1300,928.7109375,-121.5820313,-273.4375
13.1350,955.078125,-121.5820313,-277.8320313
13.1400,976.0742188,-111.8164063,-252.9296875
13.1450,980.9570313,-106.4453125,-256.8359375
13.1500,983.8867188,-102.5390625,-224.609375
13.1550,983.3984375,-99.12109375,-221.6796875
13.1600,977.0507813,-95.703125,-206.0546875
13.1650,984.8632813,-98.14453125,-211.4257813
13.1700,989.2578125,-94.7265625,-219.7265625
13.1750,996.5820313,-92.7734375,-208.0078125
13.1800,991.6992188,-78.125,-207.03125
13.1850,995.1171875,-79.1015625,-203.6132813
13.1900,1000.488281,-83.984375,-195.8007813
13.1950,1001.464844,-99.12109375,-204.5898438
13.2000,1005.859375,-108.8867188,-207.03125
13.2050,1003.90625,-118.1640625,-200.6835938
13.2100,1002.929688,-121.09375,-209.4726563
13.2150,1004.394531,-121.09375,-220.2148438
13.2200,996.09375,-132.3242188,-225.0976563
13.2250,998.5351563,-128.4179688,-219.2382813
13.2300,1002.441406,-117.6757813,-242.6757813
13.2350,989.2578125,-121.09375,-248.5351563
13.2400,974.1210938,-116.2109375,-252.9296875
13.2450,974.609375,-102.5390625,-263.671875
13.2500,955.078125,-104.0039063,-254.8828125
13.2550,957.5195313,-92.28515625,-260.7421875
13.2600,962.890625,-83.984375,-265.1367188
13.2650,954.5898438,-87.40234375,-267.578125
13.2700,959.9609375,-88.8671875,-255.859375
13.2750,961.4257813,-94.7265625,-262.2070313
13.2800,962.4023438,-91.796875,-254.3945313
13.2850,966.3085938,-98.14453125,-253.90625
13.2900,968.2617188,-104.4921875,-252.9296875
13.2950,966.796875,-110.3515625,-244.6289063
13.3000,967.7734375,-104.0039063,-235.3515625
13.3050,972.65625,-89.84375,-241.2109375
13.3100,963.8671875,-89.84375,-245.1171875
13.3150,973.1445313,-74.70703125,-228.0273438
13.3200,968.75,-61.5234375,-233.8867188
13.3250,969.2382813,-58.59375,-252.9296875
13.3300,962.890625,-65.91796875,-250.9765625
13.3350,969.2382813,-69.82421875,-242.1875
13.3400,977.0507813,-70.3125,-242.6757813
13.3450,981.9335938,-69.82421875,-237.3046875
13.3500,981.4453125,-77.63671875,-230.9570313
13.3550,990.234375,-74.70703125,-217.2851563
13.3600,984.8632813,-80.56640625,-219.2382813
13.3650,1001.464844,-72.265625,-214.84375
13.3700,1000.976563,-79.1015625,-205.078125
13.3750,999.5117188,-84.9609375,-218.2617188
13.3800,1000.488281,-86.42578125,-201.171875
13.3850,1006.347656,-88.37890625,-206.5429688
13.3900,995.1171875,-102.0507813,-206.0546875
13.3950,997.5585938,-102.0507813,-202.1484375
13.4000,998.046875,-104.4921875,-222.1679688
13.4050,987.7929688,-124.5117188,-226.0742188
13.4100,997.5585938,-115.234375,-248.046875
13.4150,988.28125,-113.28125,-236.8164063
13.4200,982.9101563,-101.0742188,-232.9101563
13.4250,979.4921875,-97.16796875,-226.0742188
13.4300,979.0039063,-86.9140625,-218.2617188
13.4350,986.8164063,-69.82421875,-228.515625
13.4400,980.46875,-70.80078125,-217.7734375
13.4450,986.8164063,-60.05859375,-230.9570313
13.4500,971.1914063,-67.87109375,-203.6132813
13.4550,969.7265625,-69.82421875,-217.2851563
13.4600,966.3085938,-69.3359375,-219.2382813
13.4650,972.1679688,-76.66015625,-221.6796875
13.4700,975.0976563,-78.61328125,-217.7734375
13.4750,984.8632813,-81.0546875,-209.9609375
13.4800,991.6992188,-81.54296875,-202.6367188
13.4850,998.5351563,-90.33203125,-194.3359375
13.4900,999.0234375,-91.796875,-198.2421875
13.4950,1000.488281,-91.30859375,-201.6601563
13.5000,992.6757813,-95.21484375,-203.125
13.5050,1005.371094,-86.9140625,-206.0546875
13.5100,990.7226563,-93.26171875,-207.5195313
13.5150,985.3515625,-91.30859375,-219.2382813
13.5200,974.609375,-84.47265625,-218.2617188
13.5250,963.3789063,-86.9140625,-235.8398438
13.5300,967.2851563,-78.125,-236.328125
13.5350,965.8203125,-86.42578125,-253.4179688
13.5400,960.4492188,-84.9609375,-253.90625
13.5450,957.03125,-92.7734375,-253.4179688
13.5500,957.03125,-94.7265625,-255.3710938
13.5550,961.9140625,-87.890625,-242.1875
13.5600,962.890625,-91.30859375,-228.515625
13.5650,974.1210938,-87.890625,-226.5625
13.5700,971.6796875,-97.16796875,-237.7929688
13.5750,970.703125,-96.6796875,-244.140625
13.5800,968.2617188,-98.6328125,-250.9765625
13.5850,968.2617188,-96.19140625,-245.1171875
13.5900,957.5195313,-95.703125,-248.046875
13.5950,959.4726563,-104.9804688,-255.3710938
13.6000,956.0546875,-108.3984375,-270.5078125
13.6050,954.1015625,-114.7460938,-270.9960938
13.6100,946.7773438,-123.046875,-263.671875
13.6150,959.4726563,-111.328125,-273.4375
13.6200,958.984375,-104.0039063,-254.3945313
13.6250,955.078125,-105.9570313,-263.1835938
13.6300,956.5429688,-97.16796875,-250.9765625
13.6350,953.125,-95.21484375,-247.0703125
13.6400,960.9375,-82.03125,-253.90625
13.6450,958.4960938,-87.40234375,-243.1640625
13.6500,949.7070313,-85.44921875,-256.3476563
13.6550,945.8007813,-91.796875,-253.4179688
13.6600,944.3359375,-89.35546875,-255.3710938
13.6650,949.7070313,-98.14453125,-247.5585938
13.6700,951.6601563,-102.5390625,-239.7460938
13.6750,962.4023438,-104.0039063,-244.6289063
13.6800,961.9140625,-107.9101563,-224.609375
13.6850,962.890625,-108.3984375,-245.1171875
13.6900,967.2851563,-108.8867188,-257.8125
