type,name,time_units,begin_time,frequency,count,units
signal_3d,"Noraxon MyoMotion-Segments-Forearm RT-Acceleration","s",0.0000,200,5108,"mG"

time,x,y,z
0.0000,1.339245666,12.82590959,-58.53569272
0.0050,8.764590928,15.46905,-59.50526884
0.0100,12.81263024,10.28620816,-64.08919364
0.0150,21.14381562,-5.88409339,-63.35517812
0.0200,23.32946525,12.86914778,-63.92809576
0.0250,36.42615242,-8.708237618,-58.82884597
0.0300,31.45177083,-5.789519346,-57.63485316
0.0350,32.63450341,-30.36509279,-56.65430941
0.0400,31.46273668,-16.0264728,-55.64187744
0.0450,30.80889698,-29.39860485,-54.68576329
0.0500,28.50090926,-36.1556384,-51.20318482
0.0550,26.66349188,-42.03049838,-41.07211308
0.0600,24.58592675,-53.57111788,-35.05388027
0.0650,34.08262164,-44.2690995,-22.80379562
0.0700,32.15828059,-42.96118189,-17.26533417
0.0750,20.65086689,-62.36942985,-17.64077733
0.0800,17.97120997,-44.71861104,-11.71406837
0.0850,14.78285144,-44.58831728,-6.71979913
0.0900,20.14392935,-47.68152972,1.574132728
0.0950,1.499895249,-46.29596139,-8.257886863
0.1000,4.599731981,-47.51896795,2.192632713
0.1050,5.698913385,-52.08805394,8.218247544
0.1100,-0.9358438518,-32.12236054,4.599774817
0.1150,9.604934701,-42.29639862,5.263602941
0.1200,5.463982901,-23.20522572,3.133301898
0.1250,10.62455009,-31.67800532,4.851799178
0.1300,12.76822116,-27.10544323,4.037412024
0.1350,23.94592076,-25.95534957,7.340116378
0.1400,18.82839799,-10.22517323,14.2424991
0.1450,27.12198151,-9.006894223,20.47947343
0.1500,26.36215352,-17.51452512,16.4556158
0.1550,32.20252556,2.499717714,10.70023303
0.1600,36.52222882,-4.508492404,16.34555489
0.1650,26.49363387,-4.968680669,7.679351402
0.1700,28.73936275,6.948692595,16.87852135
0.1750,19.62804152,21.58441726,14.13382944
0.1800,18.46694878,22.64724601,16.13186146
0.1850,-1.414970178,33.12884921,16.05852319
0.1900,-6.459146552,50.41893791,18.8254533
0.1950,-10.23754067,51.48099703,22.15230741
0.2000,-28.58612159,53.80339293,22.73580515
0.2050,-30.64725086,71.54448223,29.64906572
0.2100,-40.51177211,75.32667164,25.7972549
0.2150,-46.10285869,73.0079616,23.60822066
0.2200,-49.90701086,70.13574853,26.05392974
0.2250,-59.63165946,75.01786136,17.82014334
0.2300,-66.0708954,59.22254199,15.94850727
0.2350,-65.01566861,62.24435482,14.30640424
0.2400,-54.01972543,50.77816091,16.39138148
0.2450,-52.73537719,37.17001237,12.40694832
0.2500,-47.44558215,32.14307222,12.51752552
0.2550,-40.98071477,18.96125947,0.3728208323
0.2600,-41.99386654,17.5679778,-11.44390031
0.2650,-28.78799077,7.618184147,-18.38203653
0.2700,-18.89978079,0.5525463016,-16.23426771
0.2750,-7.041931278,-6.969197844,-16.94900988
0.2800,3.330965302,-0.6282862617,-18.69938402
0.2850,5.377256806,-12.65857494,-23.44584612
0.2900,19.18531438,-13.67135225,-22.58798716
0.2950,30.91131189,-10.81954864,-23.68810495
0.3000,33.59653804,-21.4945429,-27.71567702
0.3050,37.40950299,-14.89401647,-38.54746609
0.3100,41.78856749,-33.58734425,-37.33015228
0.3150,47.24205107,-32.032389,-38.81139069
0.3200,44.89606692,-41.44051951,-39.37073053
0.3250,39.63538114,-32.80474892,-39.01856127
0.3300,35.85361084,-45.81692578,-40.57733408
0.3350,38.49473258,-38.69327731,-37.54438168
0.3400,37.59401457,-29.69304544,-36.69705785
0.3450,40.67581167,-43.97855501,-24.8577009
0.3500,36.70645108,-28.27979491,-29.7986269
0.3550,40.27401509,-28.99113414,-23.41508799
0.3600,29.9223282,-22.21023828,-22.22040931
0.3650,24.89097421,-15.95316656,-13.79928241
0.3700,17.20421548,-2.840312289,-8.236146581
0.3750,19.37959807,-0.2633321396,2.019328627
0.3800,8.483541145,-0.7773330379,8.89181844
0.3850,4.069645283,26.80301236,4.807282626
0.3900,-3.741563781,16.91899389,0.9343614017
0.3950,-3.172467272,14.28847971,8.8698259
0.4000,-7.12049434,18.24837059,11.19729842
0.4050,-11.96823212,14.93898104,9.708620781
0.4100,-15.30531573,21.46320816,10.42254696
0.4150,-13.78950186,17.21177059,13.92749773
0.4200,-17.54154245,27.88755665,15.95693148
0.4250,-24.3952022,21.37097302,8.112100815
0.4300,-15.23304055,23.69288613,15.80260218
0.4350,-20.19043028,21.85891497,4.563776105
0.4400,-29.45890657,17.36537957,0.9408637115
0.4450,-11.83338543,15.51265547,10.67346583
0.4500,-7.169528266,13.22112324,8.563242296
0.4550,4.574332725,2.109761805,9.27894619
0.4600,6.52568975,2.254462638,5.525708504
0.4650,-7.387097789,11.93501419,-3.784705983
0.4700,1.760239367,6.088399611,6.353404634
0.4750,-6.317830994,12.68736283,1.183576005
0.4800,-2.669708583,9.844207641,6.618134154
0.4850,-2.789258271,22.72910447,9.58445592
0.4900,-2.385701866,22.68975204,9.497695397
0.4950,-4.921326556,17.40164208,5.780477634
0.5000,-0.6713792077,18.38345521,11.88624564
0.5050,7.916306317,0.5103790143,17.80139536
0.5100,10.36385872,3.993814722,11.55231419
0.5150,6.101052844,-8.970910186,4.139478151
0.5200,21.51704262,-8.927414507,8.518749534
0.5250,10.69743714,-7.780409015,3.194251946
0.5300,23.40829785,-21.66259992,6.32793103
0.5350,16.36711241,-19.6511652,-1.834082168
0.5400,20.88272035,-25.03014292,-0.9716523645
0.5450,17.07084385,-16.74962203,-4.40578513
0.5500,19.24043606,-27.31797512,-2.188311064
0.5550,17.10532415,-26.27394868,-1.213050567
0.5600,4.644002508,-26.53503909,-5.070272392
0.5650,9.839183745,-21.51523714,-2.819533165
0.5700,7.006657246,-26.4932281,1.634709224
0.5750,-2.394363087,-31.2874372,6.026364507
0.5800,-0.9164848055,-22.67431334,17.95762995
0.5850,-2.249474248,-20.55442437,24.06079462
0.5900,-3.915040772,-3.864262742,18.43765245
0.5950,-1.287844483,-1.21724683,21.06542557
0.6000,1.051106163,-6.211424222,20.29665484
0.6050,1.096017143,-2.929464096,16.37920453
0.6100,5.159330577,2.966182363,13.95330921
0.6150,13.29514555,-0.2299387539,15.214971
0.6200,9.070572543,0.1774550405,14.32562006
0.6250,13.22417343,0.559735587,11.80313421
0.6300,7.622097917,1.576745571,5.221313591
0.6350,2.120541674,8.410901303,-5.788219339
0.6400,7.384737516,-5.272242615,1.426713665
0.6450,5.616526246,-3.280964752,-4.511215683
0.6500,2.880891926,-11.60394788,-6.194415005
0.6550,-3.719963327,4.380909507,-12.30859558
0.6600,-11.56958714,3.904461797,-9.337071737
0.6650,-6.702941415,1.86529473,-4.395853251
0.6700,-12.9196014,-0.7929154795,-6.57307507
0.6750,-11.36716014,19.11973696,-6.047683746
0.6800,-13.13826924,11.55882961,-4.749536282
0.6850,-6.298607214,25.60540843,1.952013878
0.6900,-18.12811085,12.5938129,-3.435744324
0.6950,-17.70680641,21.07968669,3.105016412
0.7000,-15.57965862,17.86427404,6.197843507
0.7050,-7.176777447,24.4708951,11.78488671
0.7100,-9.903277949,21.14404975,7.972703722
0.7150,-13.66289318,17.33264626,1.722994168
0.7200,-6.781395012,20.38307609,3.338190236
0.7250,3.966441051,5.91069478,6.149869752
0.7300,0.7555918849,9.20489774,-3.359331101
0.7350,-3.409662693,1.493149677,-6.786139981
0.7400,1.897524473,-2.546334625,-5.294066844
0.7450,8.513393899,-10.87612058,-2.260514622
0.7500,5.676235056,7.524853166,-7.916750015
0.7550,15.93041957,-7.53919391,-6.662848611
0.7600,-0.6360174056,-16.14038856,-21.65803772
0.7650,13.71955406,-13.48211066,-9.569039693
0.7700,5.988748421,-12.32707581,-13.85400406
0.7750,10.48331319,-11.74747634,-14.85966728
0.7800,15.47291161,-22.75846421,-11.60713103
0.7850,22.23359896,-16.23468302,-4.307589614
0.7900,18.38962784,-21.85322656,-3.874113667
0.7950,14.31651914,-9.562848743,-2.557476833
0.8000,16.01859306,-8.90723492,0.3469568625
0.8050,13.85518574,13.01935719,-0.7878205312
0.8100,12.67086928,11.10251498,-2.016719902
0.8150,8.579045717,11.30391562,-7.995098761
0.8200,12.873832,17.34492213,2.569832139
0.8250,3.478663071,26.26066893,-1.572801893
0.8300,8.381353582,17.07418979,4.047619018
0.8350,1.117693907,15.00564119,4.075368679
0.8400,-4.802193414,13.88540582,3.602167437
0.8450,-0.2251745432,9.058901016,1.088573582
0.8500,-7.693072677,2.132481269,-6.251001242
0.8550,-13.77745855,1.075643807,-11.15379454
0.8600,-30.11494849,5.373792691,-15.69414877
0.8650,-38.49770832,16.29275787,-10.51514369
0.8700,-39.06504732,17.83388074,2.872653748
0.8750,-51.65585893,16.78953166,6.389813947
0.8800,-46.36380757,26.01679736,5.39989443
0.8850,-43.17054351,26.54867585,7.576707881
0.8900,-47.09988707,30.2213316,5.282584988
0.8950,-41.4069921,27.29243134,12.46579695
0.9000,-39.14731235,35.64462439,8.179371695
0.9050,-31.99082593,31.51403854,5.92882071
0.9100,-33.38448601,12.17787198,-1.025447872
0.9150,-18.84013758,11.27789122,-0.1750441811
0.9200,-13.23477363,1.443502426,5.225071787
0.9250,-10.75996221,-10.5071743,6.667362498
0.9300,-4.12449201,-15.4642283,8.333602335
0.9350,-4.141512336,-28.32574054,-0.07310548925
0.9400,-8.397888575,-33.89780458,-8.546432425
0.9450,-20.08307051,-30.77440907,-16.90623548
0.9500,-22.18533776,-32.36256134,-14.37121527
0.9550,-15.90392183,-41.82101575,-11.8900145
0.9600,-19.5503072,-42.54008948,-11.95126397
0.9650,-12.44539317,-38.26944084,-13.05403195
0.9700,-5.926161176,-32.31958047,-15.22671522
0.9750,11.6056295,-28.81661233,-20.88552092
0.9800,30.53771116,-26.49503529,-11.44832071
0.9850,38.07780748,-26.7969508,3.063369442
0.9900,55.86646172,-13.73168454,15.11927348
0.9950,58.57058608,-17.80110714,11.54438354
1.0000,51.25639025,-15.46210152,8.065940405
1.0050,46.48796015,-9.568991495,10.89768345
1.0100,37.78694171,-12.75514144,6.630227896
1.0150,24.58632031,-12.20115749,6.708909877
1.0200,15.55455314,-2.360453331,1.932642109
1.0250,8.629810843,-0.6354405846,-0.584780333
1.0300,1.819100503,-1.781765836,3.870483819
1.0350,-1.109456042,1.454461801,0.136123498
1.0400,14.39150539,5.002851942,8.732258344
1.0450,6.066893403,8.281092228,2.806419669
1.0500,16.56409931,1.424966495,6.728743727
1.0550,18.30485598,-0.6273871483,9.350686391
1.0600,11.45348732,7.919245352,6.245746698
1.0650,21.58240266,3.791336517,14.20282446
1.0700,28.94263994,-0.5548388047,22.0111767
1.0750,29.02557752,5.960563315,25.00310628
1.0800,20.47646828,2.7538961,23.58362203
1.0850,19.9303719,8.153314151,20.93632564
1.0900,-0.620628355,1.996221397,15.93490222
1.0950,3.377565441,19.13468633,18.84764513
1.1000,-23.53587905,14.21245603,13.79492493
1.1050,-24.96225827,21.18091009,16.27209216
1.1100,-33.69179898,13.78414509,19.80703549
1.1150,-33.99688395,23.1290798,17.53120676
1.1200,-28.34378963,22.15388162,24.34841462
1.1250,-37.87628378,19.74041104,18.46121048
1.1300,-32.86773261,23.34337563,19.67954913
1.1350,-30.13573501,24.3228073,13.77612856
1.1400,-23.45104858,14.57386858,6.086954114
1.1450,-14.71295545,15.30345981,8.566140297
1.1500,-10.523172,18.76220547,14.95339761
1.1550,-5.992091127,3.154585706,17.58839474
1.1600,-9.334839915,21.22678844,17.10550901
1.1650,-13.74338147,8.779172082,13.44599699
1.1700,-18.87429134,17.91292471,9.582737606
1.1750,-21.76085969,25.38204533,2.995971425
1.1800,-7.725507796,19.36841542,11.74175422
1.1850,-0.8928440679,9.924022361,5.95531713
1.1900,2.900929065,5.478885534,7.344076181
1.1950,9.294142327,6.305268899,1.604216921
1.2000,19.52940684,13.84992553,1.974153799
1.2050,13.21930135,6.198651649,-0.7664653389
1.2100,10.12665561,-5.516145052,8.266169909
1.2150,13.78723386,14.25782234,8.432014284
1.2200,-5.211842958,7.839424888,4.737278637
1.2250,-7.528586298,7.742661502,17.03051514
1.2300,-14.56952763,10.76142515,15.34395704
1.2350,-19.10141085,3.426805107,9.966819829
1.2400,-31.7257111,1.08082536,3.950831546
1.2450,-35.65327354,-13.1565802,2.270549154
1.2500,-38.9052636,-4.430133208,0.1375701905
1.2550,-34.58894564,-9.344863678,3.648857779
1.2600,-20.11702645,9.015450145,14.22265069
1.2650,-12.91427424,0.8899033851,12.83281281
1.2700,-13.0727032,11.1780523,11.47506767
1.2750,-9.911042094,9.327360023,17.04027552
1.2800,0.6648173661,8.043509378,21.89960776
1.2850,21.0119795,12.47496358,24.41888754
1.2900,28.19516688,12.13008511,24.55177734
1.2950,23.4007012,-6.871680798,25.38483237
1.3000,14.12220636,7.088125557,28.89569897
1.3050,-1.589819085,8.295199177,27.90739167
1.3100,-27.88800482,5.503699491,19.33337752
1.3150,-42.52852484,3.362700729,15.13195539
1.3200,-46.13605276,9.388002103,11.74050236
1.3250,-41.5223391,7.935687965,15.35610972
1.3300,-56.37975802,9.029087433,19.00351286
1.3350,-65.45816997,-0.04679231438,23.46724307
1.3400,-67.07269423,8.93348908,31.99800524
1.3450,-75.23147026,11.35600353,36.94399152
1.3500,-84.78851541,14.01710087,34.70180317
1.3550,-85.22153214,13.54183623,37.35059458
1.3600,-76.76848391,20.41545387,46.25480172
1.3650,-67.23452546,25.67493753,38.70699331
1.3700,-56.02132631,32.00504922,34.99666182
1.3750,-36.569785,11.22321763,29.3881844
1.3800,-30.11470969,10.27258015,31.20521631
1.3850,-7.520537007,24.52810311,35.70442702
1.3900,-9.068293419,19.2044997,29.5855844
1.3950,-3.635556944,8.430285841,35.0974559
1.4000,-5.445579469,21.94372788,34.21207185
1.4050,-17.19641587,5.415819679,29.75756424
1.4100,-21.13679284,13.72927635,30.19088213
1.4150,-27.46591793,9.203845266,25.18199285
1.4200,-42.38190765,0.5925174498,29.58389817
1.4250,-69.32399286,5.461119567,29.95992441
1.4300,-77.41234152,8.933379315,33.6793191
1.4350,-84.22284607,8.231885194,25.16919266
1.4400,-66.07309166,6.67181615,22.49246551
1.4450,-57.98854462,-5.861856177,22.25114768
1.4500,-46.9235731,4.493260415,33.71968442
1.4550,-46.11179111,6.77290665,37.11745099
1.4600,-23.88166454,8.758940353,40.3699251
1.4650,-24.00727189,6.869877497,34.31081723
1.4700,-35.52739263,2.246999766,33.25790413
1.4750,-26.38109472,12.89782015,43.01231778
1.4800,-40.57457719,16.17391768,44.58250107
1.4850,-38.34159823,12.79712032,44.55230848
1.4900,-39.24609478,18.09244617,46.87508529
1.4950,-37.03677649,-14.29632639,32.65635511
1.5000,-41.75799663,-10.03743862,27.6098669
1.5050,-49.0268916,-10.07424748,33.51387732
1.5100,-43.96307513,1.496463958,44.06692558
1.5150,-41.36032536,-14.89357818,39.26434703
1.5200,-39.10021872,9.94263519,38.7239983
1.5250,-36.62298457,1.265587588,36.92955295
1.5300,-31.13699657,-15.2067173,41.06058861
1.5350,-18.98786916,-0.8411010768,38.53310565
1.5400,-12.96565754,0.077052631,35.38008408
1.5450,-8.125250268,-9.279844768,44.31338823
1.5500,-18.12296955,-2.639664786,48.28778366
1.5550,-10.73378976,6.229739453,50.43982615
1.5600,-7.530341294,1.761837412,53.28899637
1.5650,-9.056345804,1.20601453,49.67339904
1.5700,-13.60422302,7.586552621,45.4246761
1.5750,-21.26072546,5.629012558,43.08820718
1.5800,-17.97314762,23.47173991,43.64715804
1.5850,-14.87775532,-7.488629063,45.47508197
1.5900,-24.74304756,-0.05539828735,50.3066066
1.5950,-31.84013752,5.469314344,43.71226492
1.6000,-22.9718477,1.576955013,35.2469018
1.6050,-11.42218873,11.14199835,32.51040175
1.6100,-12.87097359,3.303785096,34.80153841
1.6150,-11.32539508,3.10216126,34.58566231
1.6200,-25.36938148,-10.60254811,36.16894102
1.6250,-16.98926207,2.09106996,37.47874285
1.6300,-24.27853884,-0.2366914954,40.18260765
1.6350,-15.94301686,0.4720113016,49.56687421
1.6400,-19.50049296,-3.88226314,55.45172449
1.6450,-19.88020256,-6.321426284,46.61519379
1.6500,-16.32574401,4.627590414,39.6096386
1.6550,-5.970469847,-5.508567863,28.18040489
1.6600,-0.2024210693,-6.014549961,31.80819345
1.6650,8.292910988,-2.702783873,35.44525237
1.6700,11.32800151,-1.973024613,39.29725737
1.6750,2.927931809,-6.972045839,33.52499902
1.6800,-1.629320983,-4.958393873,31.93315312
1.6850,6.403761538,-1.362822217,25.12485038
1.6900,10.71759432,-3.14622744,26.38654844
1.6950,-1.213318914,-2.895800315,35.27919438
1.7000,1.960739224,-1.961550065,47.46932473
1.7050,-2.876664645,10.72005254,39.27177489
1.7100,33.5309087,7.542227568,28.2465412
1.7150,48.59476735,-4.869951397,22.36776352
1.7200,42.95720844,-7.591261286,28.8474624
1.7250,28.86592714,-16.49426462,36.5543957
1.7300,25.66286989,-0.05686610564,46.48955233
1.7350,20.56319235,-15.60842073,40.41444773
1.7400,11.8798066,-8.184332552,46.0899154
1.7450,14.14211356,-9.165026916,48.46239926
1.7500,15.68217229,-1.94013296,48.46204394
1.7550,22.4301561,1.940081204,44.90168286
1.7600,39.94942407,-4.89909958,30.06542316
1.7650,48.92560911,-6.204316631,15.46929877
1.7700,48.05996104,-19.20248278,12.97067803
1.7750,36.22829562,-9.177558189,11.36505477
1.7800,27.07857185,-6.704201349,17.52505607
1.7850,12.62028062,-9.532750791,20.87043317
1.7900,13.20928638,-7.423105343,23.66507983
1.7950,11.1073521,-13.27179003,15.29309628
1.8000,17.52768604,-10.41640891,17.70069616
1.8050,18.00762098,-11.46543374,32.02634862
1.8100,17.6861033,-4.424678074,46.8030209
1.8150,7.830926307,-5.640611754,49.17567717
1.8200,6.838802655,3.220659053,39.4556354
1.8250,4.243054693,-2.839278678,28.33511332
1.8300,18.50476104,-7.278281814,16.07216883
1.8350,39.53415227,-7.586105899,0.1786952009
1.8400,42.43909984,-14.80098367,4.882443826
1.8450,39.74138453,-15.80223667,14.0995304
1.8500,26.67143909,-16.70486392,17.08057096
1.8550,29.83706489,-8.880066455,6.577469838
1.8600,25.99857455,-0.2545841205,9.206554605
1.8650,23.62177463,-2.433332743,8.427016252
1.8700,25.66843133,-3.056448234,15.13687412
1.8750,13.00751986,-4.077003752,18.50759334
1.8800,27.2638737,14.89517402,15.25551993
1.8850,19.22184327,2.829984928,17.70308128
1.8900,1.793147037,13.31761109,39.10341307
1.8950,-8.673029096,20.19122152,52.06793439
1.9000,-9.301100164,18.12509526,50.62425312
1.9050,-4.029200965,14.9480195,41.85852151
1.9100,5.122285751,17.07451978,37.77906807
1.9150,8.952274472,8.957159386,32.84242884
1.9200,6.071249755,16.07461322,41.5467837
1.9250,25.94110186,25.96002378,34.73903607
1.9300,37.3169851,19.15425235,15.72762334
1.9350,36.57030302,4.579420963,6.41868468
1.9400,30.81267839,-2.610266967,14.94308599
1.9450,2.012388705,-7.868063507,29.25105244
1.9500,10.35396762,11.91753759,31.97842433
1.9550,4.323307354,14.37324266,25.76817159
1.9600,22.38080371,13.59468651,25.3182986
1.9650,18.40803891,0.5558017392,33.81426957
1.9700,18.4462236,-0.2819129892,36.1233206
1.9750,13.33348003,4.804079978,34.83047005
1.9800,18.18239128,-3.850915391,29.98611753
1.9850,6.068075222,-19.38573121,15.47231991
1.9900,3.481495873,-19.0666026,15.50461087
1.9950,3.330323867,-9.484355698,28.31639308
2.0000,3.650989219,-12.7778947,43.42324491
2.0050,13.31786246,1.774989994,37.02245785
2.0100,22.26489867,10.84788523,28.0469458
2.0150,39.55081676,29.3704284,14.5825114
2.0200,31.29296748,24.76488287,22.67781541
2.0250,28.67324654,-1.83198629,22.01401292
2.0300,23.61284044,6.225841601,31.11645636
2.0350,16.73718332,1.486537255,32.21325447
2.0400,11.31506783,-1.09019869,26.36347254
2.0450,12.79883937,1.60219658,18.01747893
2.0500,17.53523176,-14.4927455,10.46832922
2.0550,21.58224609,-0.7069569993,17.14718234
2.0600,29.53450164,-6.502698734,18.75164377
2.0650,30.39407738,-3.267846705,20.72267008
2.0700,26.29829131,-15.42406222,27.95338538
2.0750,20.65958815,-18.99425189,32.63675798
2.0800,10.46011592,-15.00441925,30.8052965
2.0850,23.72048191,3.037063756,17.01604103
2.0900,14.91687101,-7.706941872,11.68511928
2.0950,26.53659548,-8.168527454,12.59778634
2.1000,33.44261803,-11.96949304,30.46342632
2.1050,34.5390271,-4.227937604,47.52949464
2.1100,25.52575787,-2.981639434,55.96268635
2.1150,22.38651584,-9.624210652,37.42973133
2.1200,23.65198032,-13.76943283,25.55307143
2.1250,30.28884602,-24.09782841,13.10410448
2.1300,47.26030768,-26.79870772,-2.355770488
2.1350,49.79363399,-21.95645815,-25.88776608
2.1400,36.11419391,-22.45075791,-31.70226293
2.1450,30.15316008,-12.58241671,-29.16788036
2.1500,34.39422379,-24.11008399,-7.576057511
2.1550,26.47328958,-23.0645487,26.78595383
2.1600,27.62860995,-19.52220377,38.9790668
2.1650,23.79364988,-10.12761408,31.0323361
2.1700,33.37669912,-18.59456741,38.30723835
2.1750,29.30962239,-31.24477875,50.83765894
2.1800,24.32347612,-4.724316469,46.58833514
2.1850,36.3994607,-0.5989705199,9.664371792
2.1900,31.01622978,-21.30204389,12.28873477
2.1950,47.37541314,-24.49114929,23.38955214
2.2000,54.73295956,-8.439890093,23.52746106
2.2050,34.82524316,-4.845572955,-3.892286468
2.2100,26.90311788,-9.741253838,-48.24449087
2.2150,27.58429146,-8.767113486,-53.05380014
2.2200,35.24812279,-17.5886474,-28.61267278
2.2250,33.33791239,-17.59711317,12.06717721
2.2300,9.294569882,-4.954909901,32.33427016
2.2350,-1.915865381,-3.372968338,7.325743758
2.2400,16.90514396,-8.161315819,-8.031077376
2.2450,33.38832,0.5612296784,5.201159533
2.2500,38.82096659,0.8500866671,21.30614029
2.2550,23.85684767,-3.974294325,17.4760314
2.2600,14.29413973,13.82261948,14.2195882
2.2650,20.45433136,-3.042964325,0.9989935034
2.2700,35.17525762,-1.696679348,26.24537927
2.2750,43.86649987,-14.81700821,24.49996129
2.2800,29.45989221,4.952620848,8.310942372
2.2850,39.03245051,14.20172845,-37.73975417
2.2900,36.24365301,-7.28606577,-56.36383512
2.2950,32.64172749,-5.886623883,-44.750555
2.3000,22.41493405,-17.792318,-29.57078804
2.3050,17.44255848,-16.43187886,-12.05312204
2.3100,19.03901155,-16.60238597,-5.04628306
2.3150,28.57838461,-14.86832215,-2.110659644
2.3200,36.25038808,-8.605766197,-0.7479988554
2.3250,31.5883014,-10.21027989,-6.952423551
2.3300,11.31255699,-23.91476944,-7.158456185
2.3350,4.361803622,-2.313490042,-28.53935794
2.3400,4.416923424,4.779489358,-52.14580647
2.3450,7.072837066,-3.204667896,-65.50978222
2.3500,6.745208649,-1.759887471,-54.79744816
2.3550,5.558945052,4.95674938,-56.72133427
2.3600,6.303615245,1.980315506,-29.39771862
2.3650,14.13482536,-14.85591676,3.257848506
2.3700,30.54362607,-10.82282315,32.29051582
2.3750,37.86063713,-2.607127061,45.41189622
2.3800,49.30807444,-14.87908604,36.17617259
2.3850,49.35721605,-9.126918523,37.70733818
2.3900,38.11548023,-13.30041141,-9.23034792
2.3950,28.00567609,-6.71754353,-67.88873462
2.4000,33.35456908,-8.848327899,-79.4845082
2.4050,44.0189483,-42.46430812,-57.68744823
2.4100,67.14780446,-24.01198752,-35.17610849
2.4150,46.31445993,-25.13344377,-22.04352474
2.4200,29.30545117,1.513774007,-33.68754729
2.4250,24.56361875,-1.168511843,-70.502735
2.4300,30.37643012,-2.624143542,-79.07374205
2.4350,49.54477102,-8.431989002,-49.93014101
2.4400,63.10357141,-27.56138519,10.92921586
2.4450,55.92178275,-9.501569554,30.16440379
2.4500,28.2391464,9.707711166,-7.369014693
2.4550,17.5576229,10.34737446,-50.46345007
2.4600,27.32594446,-4.730965333,-58.40379967
2.4650,38.82432283,-15.57215605,-49.15833331
2.4700,32.34590301,-14.30233596,-35.80701221
2.4750,19.21481253,-3.596332895,-46.07297807
2.4800,13.71622437,-16.97958948,-39.77004127
2.4850,8.298923374,-35.88897034,-14.74743079
2.4900,29.81185206,-8.593691819,-26.80921774
2.4950,23.35840048,9.350152446,-49.67988578
2.5000,33.40497147,2.784235139,-74.96704275
2.5050,36.33792027,-12.31861016,-58.97533801
2.5100,44.06053809,-11.49984933,-29.0915895
2.5150,30.57288642,-2.467344997,-23.20986
2.5200,17.68665322,2.877458355,-41.18143871
2.5250,20.97597342,-1.756214002,-48.5696561
2.5300,38.5834861,-12.69161949,-39.48172506
2.5350,38.15596335,-4.813850538,-18.344529
2.5400,18.80711002,-5.309518434,-19.14515074
2.5450,14.87227054,-2.095985341,-35.59967729
2.5500,29.66357159,-4.276438209,-45.64138586
2.5550,21.36675475,-18.19313542,-38.33161319
2.5600,12.07020018,6.561797574,-34.60766555
2.5650,3.038410068,-2.070964777,-34.26605524
2.5700,10.95635958,-10.33431715,-29.48005125
2.5750,17.67740785,-15.99954433,-30.01118306
2.5800,12.87476675,-1.745974416,-36.15656298
2.5850,-2.823868632,11.29338027,-59.19129777
2.5900,-5.505897497,2.045794901,-72.8261233
2.5950,23.51101795,-9.816444429,-47.71343285
2.6000,56.04979256,-26.00764692,-1.962292973
2.6050,53.08073037,-14.57835236,11.2916343
2.6100,22.14962396,-2.294508908,-13.9908603
2.6150,15.20622375,15.83180453,-49.4221351
2.6200,27.13857513,2.143912697,-55.9978131
2.6250,39.43824678,-14.18793877,-59.46815169
2.6300,37.22146036,-31.1556859,-14.26587854
2.6350,25.13939822,-36.59693127,-14.34546602
2.6400,26.97584066,-28.6121101,-23.55711878
2.6450,29.10409879,-32.60746433,-25.48583461
2.6500,36.58002113,-32.81419009,-32.16887889
2.6550,23.32503348,-22.24911265,-22.35426512
2.6600,22.37639353,-16.54919913,-47.65111531
2.6650,25.5287116,-32.50004231,-49.49795994
2.6700,22.69461564,-36.85967229,-36.23383658
2.6750,13.10246708,-21.77630103,-44.94110004
2.6800,11.8580471,-19.03655715,-39.35528395
2.6850,21.31973397,-28.26770745,-27.4272119
2.6900,39.73627902,-19.2748867,-33.97543093
2.6950,30.84792197,10.64776894,-48.07617394
2.7000,5.06205359,1.021160872,-46.18758307
2.7050,19.06786623,-17.76338813,-22.76944749
2.7100,57.58737353,-42.19082675,22.73783392
2.7150,81.77519138,-36.22082381,46.22666704
2.7200,74.57249505,-25.86371375,28.94606962
2.7250,62.41149321,-13.23322443,-0.9400648464
2.7300,48.20603352,-26.92438991,-16.35252708
2.7350,30.14106288,-21.07592885,-27.40902115
2.7400,6.456764029,11.82032199,-49.19364015
2.7450,-4.311210074,-4.682119261,-72.82396351
2.7500,12.71661692,-24.65234116,-56.655449
2.7550,24.10515538,-10.19554652,-23.12933701
2.7600,16.67104123,-6.200752109,-20.74077961
2.7650,-7.156910792,-1.187325784,-21.79858605
2.7700,-6.929650439,4.017215136,-31.08402548
2.7750,-8.160921356,-19.35095027,-20.11769595
2.7800,-2.960537888,-6.576289863,-17.22303927
2.7850,-9.779073343,10.63733967,-13.12774868
2.7900,7.605173126,6.614998554,-20.52255453
2.7950,43.85597793,-15.76758079,2.984139271
2.8000,68.72067819,-48.89051457,26.50152524
2.8050,63.32435381,-29.32011312,42.39347074
2.8100,32.7707276,-13.43079886,7.304816941
2.8150,13.71068252,-12.22747762,-33.39667545
2.8200,18.0961999,-12.03102313,-51.16344039
2.8250,34.59443437,-18.92427681,-50.70373305
2.8300,62.2869762,-24.23107786,-26.4275719
2.8350,67.01846706,-41.63328547,-11.52778946
2.8400,62.64182015,-61.7468068,5.201410798
2.8450,74.07602864,-47.38316468,30.20364912
2.8500,85.74331518,-44.97392223,34.93456552
2.8550,81.04782669,-23.71204834,13.36175605
2.8600,70.6410048,-14.81567891,-6.140114074
2.8650,46.74043766,-21.17649869,-17.1726919
2.8700,35.44617962,-19.42023461,-17.21437418
2.8750,24.96225671,-2.850455889,-12.56137142
2.8800,18.46300452,-9.950088762,-13.81970222
2.8850,12.11678061,2.933681754,-24.08992628
2.8900,-19.73237115,19.02674029,-30.82857132
2.8950,-55.32396195,18.82188938,-36.34526128
2.9000,-74.86929188,19.91417299,-14.80622817
2.9050,-72.68556826,39.43600554,-8.238310152
2.9100,-26.45462865,34.90589709,-3.931598278
2.9150,0.9665741546,23.31247795,4.829854201
2.9200,-3.331886823,13.77704069,-1.289802572
2.9250,-9.284771287,27.04433386,37.81382452
2.9300,-3.583621305,14.13467294,51.61489547
2.9350,14.24084426,19.81047756,50.32376254
2.9400,21.86912632,35.21776975,30.37917376
2.9450,5.818907618,34.18454931,-7.880916028
2.9500,-2.566637618,42.37881809,-13.70456264
2.9550,-7.426825299,36.15639569,-29.56899225
2.9600,-10.11813438,33.97873585,-32.72235548
2.9650,-8.096815765,15.45685023,-21.17645185
2.9700,10.53252891,26.61987374,-12.83157333
2.9750,19.02425797,2.915792591,-17.27611072
2.9800,34.17468022,15.05211184,-23.05279201
2.9850,23.12760056,19.69655994,-16.71147715
2.9900,16.91733351,19.33302789,-42.6008761
2.9950,26.22153831,-7.479060441,-28.72089461
3.0000,36.39282806,1.93802819,-16.61633335
3.0050,14.23876536,35.63002493,-46.97068827
3.0100,-3.085367815,20.55892215,-66.50773363
3.0150,8.378193439,0.8632729822,-23.82607111
3.0200,17.78532234,2.821634986,-14.22268992
3.0250,15.92040251,19.77258943,-16.6342772
3.0300,12.13415249,41.32532132,-26.73940991
3.0350,-6.575527666,35.25684578,-38.36197509
3.0400,-5.134905201,27.9603702,-37.38123956
3.0450,5.865332785,7.277596025,-19.66785153
3.0500,23.5639194,15.27554089,-4.069458215
3.0550,32.64442577,31.44122036,-27.35771912
3.0600,31.61687434,28.60114837,-34.35667319
3.0650,4.037183892,26.01324275,-35.68688296
3.0700,-16.77408073,26.99159388,-40.50931533
3.0750,-13.91652537,7.529869979,-37.05009004
3.0800,7.223209806,-14.58203878,-31.27961927
3.0850,17.74034138,-2.699126563,-18.00978411
3.0900,-8.164491225,1.97309842,-46.63963306
3.0950,-23.52027794,20.13465859,-61.17186123
3.1000,-5.937841485,-5.895047395,-42.44120802
3.1050,17.59267101,-10.9569675,-21.16435136
3.1100,26.50442213,10.1239954,-26.97666823
3.1150,-2.337610104,11.89294238,-49.81562377
3.1200,-13.28322795,14.27800007,-56.72328723
3.1250,-20.7783325,-5.523124014,-50.07230028
3.1300,-11.7926341,13.46054717,-36.6373332
3.1350,-3.845874798,26.38340672,-34.9537217
3.1400,7.79413227,10.65719783,-30.08514657
3.1450,6.487555547,9.45152089,-18.20374816
3.1500,11.01327951,-6.053510305,1.373725859
3.1550,16.00267072,8.891868156,13.81807549
3.1600,3.004658792,1.644497159,-5.938904834
3.1650,-2.268161916,15.1693729,-21.58010237
3.1700,-2.12809957,1.147518849,-29.23344942
3.1750,-5.729282207,-6.331222417,-15.99367812
3.1800,-0.8788811886,0.03354108434,-7.406272189
3.1850,-4.887382332,-18.91093137,-17.89392873
3.1900,4.943388892,-24.3091824,-18.32297114
3.1950,3.483442624,-19.94191405,-14.95116585
3.2000,9.790675519,-11.74353092,-9.9825214
3.2050,-3.557915993,-12.83040088,-22.74616239
3.2100,-16.67587637,-7.315206918,-23.16334647
3.2150,-37.11057133,6.707217188,-38.96078764
3.2200,-37.08501155,-2.27616624,-42.96939132
3.2250,-22.69631431,-9.095457166,-31.46839324
3.2300,-27.98199737,-17.78564626,-37.26028952
3.2350,-35.59576743,-20.17608254,-43.98095203
3.2400,-25.26250958,-19.23695632,-13.84132889
3.2450,-24.48885865,-21.83316144,-10.74251426
3.2500,-27.08860925,4.6069359,-12.24586391
3.2550,-32.92545788,16.78913315,-27.33765321
3.2600,-15.86248885,23.5353452,-34.81044304
3.2650,-9.030897109,4.704297777,-23.57580288
3.2700,-18.00577795,4.780186308,-14.37864553
3.2750,-27.61108351,10.85100537,-9.031365619
3.2800,-21.75071036,13.38835469,-17.93082327
3.2850,8.975877149,-11.60754046,-15.77736225
3.2900,31.5202547,3.458012601,-7.235393827
3.2950,25.99181998,13.34076875,-9.385047218
3.3000,5.941200961,9.217559052,-29.80388317
3.3050,-3.738261521,-10.18138591,-27.66017903
3.3100,-0.09737763582,-15.06562034,-22.33656213
3.3150,3.889340499,-14.92002228,-24.99136425
3.3200,11.84710584,-2.635451583,-37.35550553
3.3250,9.144397533,-20.21972949,-24.04517397
3.3300,9.410685711,-24.72835955,-16.88783713
3.3350,13.16003306,-30.5559119,-12.86828671
3.3400,26.73993858,-32.03391162,-15.04304977
3.3450,30.84070698,-17.5189693,-10.6123774
3.3500,18.39444425,-10.49084174,-23.47861193
3.3550,5.296141027,-10.83492739,-13.75878317
3.3600,-11.44701459,-21.38320545,-26.79647582
3.3650,3.045315581,-18.56461895,-28.57141033
3.3700,6.903760807,-11.50361406,-18.03362251
3.3750,13.74428802,-12.9338701,-11.26446468
3.3800,3.036007441,-26.65433746,-15.03777464
3.3850,2.247463502,-15.29282212,-12.01747049
3.3900,2.234439212,-27.44563589,-31.4661519
3.3950,5.58126947,-29.92885032,-21.03343329
3.4000,10.98835107,-22.83572012,-3.966645596
3.4050,5.547922402,-28.45377113,-12.24768742
3.4100,19.30544941,-28.27900924,-9.12302779
3.4150,24.30933325,-34.7724141,-13.65108913
3.4200,22.89804909,-9.489640252,-19.19426145
3.4250,2.416702551,-4.378186409,-19.13580433
3.4300,-9.404997216,-17.79465434,-11.85447546
3.4350,-25.65515476,-6.35274675,-16.46239854
3.4400,-28.47264962,-14.19692425,-26.55228926
3.4450,-23.16606903,-18.66740188,-21.46519243
3.4500,-11.79346924,-32.2376997,-19.00048263
3.4550,13.90436198,-24.10127058,14.01471456
3.4600,29.14340938,-30.39733823,9.679332442
3.4650,39.11609104,-34.47000801,9.848123337
3.4700,50.88081471,-44.9375907,16.54030531
3.4750,47.8806449,-10.71479307,21.87114423
3.4800,26.18154827,-21.93806283,4.826851624
3.4850,6.148188794,-21.67208343,8.558186941
3.4900,-6.835737093,-1.863451101,-3.531678622
3.4950,-13.81173104,-17.95893126,-1.588996946
3.5000,-2.659807426,-15.93014171,-1.25225022
3.5050,-10.22015281,-20.11608172,3.30921575
3.5100,-13.20824125,-9.703701917,-6.885951784
3.5150,-11.1343075,-28.11755194,-1.45529099
3.5200,5.018863519,-34.65751643,16.13819818
3.5250,19.92823461,-23.84626144,27.81872004
3.5300,28.65892601,10.21402048,1.232520092
3.5350,0.9341706856,15.98136216,-35.70014772
3.5400,-8.827062602,16.32796843,-35.3157725
3.5450,-12.15183847,7.419369641,-17.09302681
3.5500,-4.034927427,12.81684386,-6.064600276
3.5550,-0.1135554897,25.26223585,0.2517648675
3.5600,-5.285712334,21.79107335,-5.625796383
3.5650,-7.627434933,7.495192023,-2.472553778
3.5700,-12.73842338,17.07028743,-20.94663332
3.5750,-17.24994195,0.8211756468,-10.74530705
3.5800,-19.23038714,12.92284636,-16.85974236
3.5850,-6.156250665,28.29655954,-17.45294673
3.5900,21.32408605,6.334800249,-5.462729926
3.5950,42.40710481,5.340001507,6.929411983
3.6000,41.05066204,21.68049774,11.74967155
3.6050,6.95676069,29.03393031,-23.28183106
3.6100,-9.179637489,19.15316293,-19.89109396
3.6150,-23.4564061,18.83609339,-31.32098686
3.6200,-10.22332567,8.92794686,-33.38645674
3.6250,-2.071187816,-3.086693599,-27.85250381
3.6300,1.339402676,3.988403184,-12.92284649
3.6350,13.23010019,-17.47514281,-11.1724809
3.6400,24.18066046,-15.72459883,-2.046476603
3.6450,9.052204827,-5.216099965,-13.12389632
3.6500,-18.94118813,5.008109957,-16.81105391
3.6550,-39.40477278,-0.1599770892,-22.51895672
3.6600,-40.88918626,-16.14588475,-9.837855632
3.6650,-48.59890418,-21.08153224,-11.96188441
3.6700,-55.12251223,1.206897927,-5.472910022
3.6750,-57.60529502,-23.02113149,-3.178416566
3.6800,-17.8526259,-34.78849688,14.41027195
3.6850,10.45127446,-14.44907765,-8.373486321
3.6900,8.126872309,-27.6474018,-9.579654305
3.6950,10.29058063,-17.14759365,0.5896197088
3.7000,7.564236297,-8.03551916,29.03535041
3.7050,-22.2769094,29.9974752,18.08564383
3.7100,-60.99870844,23.33162259,-6.899744389
3.7150,-55.81979697,22.01726958,-4.435487907
3.7200,-24.2245374,28.17355866,0.9337402433
3.7250,-2.953752686,8.804453624,-5.549298764
3.7300,25.50448256,14.1996779,28.07625812
3.7350,12.55625602,34.30899194,10.03069571
3.7400,-13.3488356,11.67683386,0.7162776352
3.7450,-19.81338768,14.39541643,-3.41877457
3.7500,-12.0352008,-9.518048504,11.37445502
3.7550,-24.33553526,31.03939959,-0.09250137415
3.7600,-24.55355731,2.934531457,3.234547216
3.7650,-2.390282113,17.23452479,11.53529878
3.7700,10.43741152,17.74337496,0.5134924419
3.7750,18.4112545,30.88037891,11.81071799
3.7800,22.60449674,17.54384658,10.52018555
3.7850,47.54822727,23.2543692,33.66075728
3.7900,45.31929124,46.9180025,16.66800848
3.7950,11.14691001,48.82864269,2.915142434
3.8000,-7.793473824,42.18627978,3.21892001
3.8050,-14.73026749,54.95076618,11.96885153
3.8100,-12.51466326,43.39719922,-2.822938728
3.8150,8.359548029,35.57866424,3.041597272
3.8200,17.50890363,9.819094152,9.556383166
3.8250,17.88923237,23.12831392,2.85350737
3.8300,1.109930425,7.999446092,-2.722699428
3.8350,-3.972118219,15.69403406,-7.762789431
3.8400,8.236399156,15.0195093,-5.405936735
3.8450,13.37719349,1.993750956,-5.388621251
3.8500,24.01958706,30.73919176,7.068796907
3.8550,2.38724535,17.04781379,1.627445932
3.8600,-11.30831421,35.98791965,0.2304610844
3.8650,-18.99188657,32.95404311,-2.51965081
3.8700,-12.70078467,23.25381838,-8.303138649
3.8750,-10.44344058,13.68606701,-11.0938899
3.8800,-10.4747648,25.63045736,-10.21000835
3.8850,-21.34941264,8.470054489,-14.76744932
3.8900,-16.78866922,4.99636168,-17.65371311
3.8950,-6.429735489,-10.80554238,-14.17915619
3.9000,2.766283962,-5.667364461,-11.97496358
3.9050,-2.053962806,-10.61284297,-19.48943931
3.9100,-12.19694666,-30.7795677,-13.67230708
3.9150,-19.04054712,-10.07975387,-15.26330726
3.9200,-24.91690637,-13.14600107,-19.7794211
3.9250,-30.14371511,-14.00866238,-27.43803165
3.9300,-26.66967141,-16.54305471,-21.36525462
3.9350,-17.90022223,-10.5064417,-8.827298292
3.9400,-14.38368637,-0.4827141364,-15.7102275
3.9450,-15.40467432,8.959828391,-13.89344392
3.9500,-18.80628948,2.493959227,-10.59163128
3.9550,-22.67979003,3.265493875,-14.12547196
3.9600,-16.03659649,11.70804665,-8.168635284
3.9650,-22.24157048,6.256214433,-21.36329112
3.9700,-24.0688285,-9.851666488,-26.15550062
3.9750,-22.4588434,-9.573711873,-17.2192648
3.9800,-27.75282819,-3.581910248,-29.51394224
3.9850,-30.90427711,-7.384147679,-29.96770377
3.9900,-25.14207276,-10.91503719,-23.24635911
3.9950,-5.52608417,-16.22519343,-8.726317156
4.0000,1.243297337,-26.98023129,-24.40558913
4.0050,4.241413256,-5.35770587,-27.1548843
4.0100,-18.31399987,-3.160100756,-28.86022991
4.0150,-35.67156671,-3.929419158,-32.77164088
4.0200,-22.30380138,-7.103913036,-12.17579485
4.0250,-17.96154524,-3.384181714,-26.59889035
4.0300,-3.37436437,3.081372008,-13.39992316
4.0350,-11.18710681,8.4989524,-24.99451353
4.0400,-10.76659643,9.093933052,-15.32944401
4.0450,-19.03044347,14.84319024,-19.31705339
4.0500,-13.58175842,7.177593277,-15.26730455
4.0550,-11.37729991,18.63967138,-15.88409212
4.0600,-20.11717703,4.576427961,-23.82603951
4.0650,-7.158131825,6.042108485,-16.32012985
4.0700,7.417379149,-6.778440232,-8.574227229
4.0750,11.03348898,1.750718571,-6.59236223
4.0800,4.538011258,3.02641058,-11.96603265
4.0850,2.565585403,22.34079201,-6.086397872
4.0900,-3.077490597,12.10557748,-7.859764725
4.0950,4.024277497,13.00422331,-3.251500992
4.1000,2.533592895,13.87774892,-12.12517725
4.1050,-3.118001255,16.44811626,-14.57893681
4.1100,-1.176547212,26.92593901,-13.70157145
4.1150,-5.688001562,10.58202159,-18.36781923
4.1200,3.954388844,10.25213089,-16.81692859
4.1250,7.367607458,18.77849937,-21.46935628
4.1300,0.4986487969,15.7705122,-27.5064265
4.1350,-8.60880175,17.17032502,-20.78368535
4.1400,-11.08115481,-1.915009289,-19.45956775
4.1450,-2.751469967,-5.626963197,-14.33243088
4.1500,4.982315228,-7.163131022,-13.16503015
4.1550,-1.93243094,-2.356180745,-25.67161654
4.1600,4.105507038,-10.64342444,-15.37614813
4.1650,2.53279253,-17.86941326,-5.841653942
4.1700,-3.826505533,-12.71984956,-16.8564072
4.1750,4.442744631,0.347531033,-12.01664811
4.1800,0.4956324768,-5.655688788,-21.74514228
4.1850,7.107057984,4.100738692,-7.96622764
4.1900,1.930645076,-0.9218200819,-17.73469301
4.1950,1.175916264,8.248650861,-8.698768406
4.2000,-7.778662984,14.93788577,-14.43053839
4.2050,-4.152379876,8.595862961,-15.70168829
4.2100,-8.084864677,-0.1542273232,-15.88773578
4.2150,-20.26376405,4.711864504,-21.35492887
4.2200,-22.43156262,5.971440902,-32.71028752
4.2250,-26.22279049,-15.37747644,-19.10567233
4.2300,-11.66619123,0.6927325854,-16.6647038
4.2350,-12.15558815,5.12010226,-13.54602961
4.2400,-14.91423073,3.505676454,-28.92723493
4.2450,-8.671808866,9.392426962,-16.37119838
4.2500,-3.220092597,15.31602744,-12.65853434
4.2550,1.798874216,11.34447423,-12.42384508
4.2600,13.1250512,11.41327943,-7.210249261
4.2650,10.80450441,21.55285372,-28.12268824
4.2700,0.8136629564,24.26738449,-32.45900778
4.2750,-20.06268831,-3.243172987,-39.88488776
4.2800,-8.951547303,-10.36804839,-36.2118415
4.2850,10.9632844,-28.97388076,-28.73705877
4.2900,28.71043515,-18.08865273,-24.3171311
4.2950,21.72892785,-12.03874416,-28.72454272
4.3000,8.670332703,-14.37638888,-43.66594902
4.3050,2.157619162,-9.031793253,-36.19547841
4.3100,3.253666665,4.314121261,-26.60786414
4.3150,4.782424353,12.94864808,-38.29777807
4.3200,2.593073699,15.98972839,-40.37125135
4.3250,-0.5772554659,23.06230379,-37.02348658
4.3300,7.212867312,19.26586204,-44.58069136
4.3350,18.60754591,-6.402857597,-18.72610998
4.3400,28.76855843,2.328542348,-22.85662705
4.3450,27.74657554,16.34385324,-23.83106906
4.3500,20.78124641,7.596922998,-36.9202737
4.3550,17.15903632,-3.004648696,-28.4650662
4.3600,17.43953583,-13.44501563,-29.72419582
4.3650,14.98825833,6.261230108,-33.68334691
4.3700,1.860567129,-1.989779473,-33.05481794
4.3750,-5.906401353,6.285415103,-49.55255389
4.3800,-9.131377868,-12.76298973,-35.49669303
4.3850,4.345725545,-4.582262694,-30.55404057
4.3900,11.55587467,4.981032065,-25.91820983
4.3950,11.91960142,1.926588443,-28.1370994
4.4000,17.45817943,17.75707253,-40.91206908
4.4050,4.64232146,10.62192065,-29.48289841
4.4100,-2.158343136,13.83861463,-33.2961962
4.4150,-12.13462619,3.115170294,-19.10680837
4.4200,-8.087440763,3.395677888,-24.37516922
4.4250,-5.250067209,3.366079046,-25.59431681
4.4300,-5.601684318,-1.10543433,-26.3224667
4.4350,-16.56478975,5.562272226,-20.85383909
4.4400,-23.11308381,1.178044082,-27.92688156
4.4450,-21.54430868,-1.16643781,-21.85534942
4.4500,-3.179866042,3.000828724,-6.378990784
4.4550,-5.170842139,15.72992763,-9.150040824
4.4600,-4.178604547,32.10292567,-20.20333836
4.4650,-5.410796362,34.6080811,-3.130017022
4.4700,2.040270732,10.34585986,-15.1828856
4.4750,12.62420789,9.010921093,0.2506642309
4.4800,13.1437285,8.977154169,-18.62922171
4.4850,-1.379609461,12.18958695,-19.66575519
4.4900,-27.70501424,13.75805521,-48.75660598
4.4950,-46.51451744,8.632343472,-55.53409193
4.5000,-37.19413582,9.577527163,-51.63690086
4.5050,-18.83901565,-3.528446657,-42.97620043
4.5100,2.97473818,-0.9122190477,-36.90073981
4.5150,13.22779344,-1.494769246,-34.91390264
4.5200,20.06641788,-8.232285267,-4.76256234
4.5250,29.5906611,-12.66689289,10.7473133
4.5300,41.54266508,-12.28282339,8.8754078
4.5350,39.19803891,-4.939008671,-2.237893493
4.5400,24.94566146,3.337994102,-22.03625806
4.5450,5.29515803,-2.436371836,-44.58199834
4.5500,-17.65006098,-7.542128934,-57.53309767
4.5550,-19.40233657,-12.31487782,-53.07523157
4.5600,-12.83903894,-8.339066997,-47.73614294
4.5650,-21.89697319,-12.24365609,-61.421548
4.5700,-23.7736882,9.62249437,-63.63555151
4.5750,-35.3185066,4.065167303,-55.34805491
4.5800,-14.29489797,5.479604777,-38.46932953
4.5850,-2.948217745,-9.758254708,-12.2281332
4.5900,5.365077264,-0.9470963843,-13.30168362
4.5950,-0.6344203836,15.38067974,-5.729388806
4.6000,-2.34193884,8.487778693,-27.4810486
4.6050,0.8108868071,-2.253481283,-19.23257063
4.6100,11.69328815,-2.085900576,-9.176606157
4.6150,9.431150873,-2.964682865,-5.082881092
4.6200,8.080827776,0.8835599503,-12.85713974
4.6250,6.044981276,-7.04978071,-34.38172597
4.6300,14.89681631,-16.56849815,-29.19570921
4.6350,15.94237103,-21.45520288,-25.99599885
4.6400,18.92456521,-3.519308134,-26.06715052
4.6450,2.126718013,-10.9666797,-35.32298816
4.6500,3.362132703,9.083112373,-39.57069679
4.6550,10.33401758,-13.36408226,-31.17949404
4.6600,31.20933167,-16.49982773,-2.563570251
4.6650,52.97343104,-17.31202962,2.725457448
4.6700,60.80458724,-6.807311469,23.59956421
4.6750,49.07998138,5.209558141,14.77129251
4.6800,43.78173336,9.66178822,-3.683478559
4.6850,36.99641537,9.462782979,-12.40212956
4.6900,38.92753867,-20.64302633,-9.791771754
4.6950,50.66874449,-39.09971625,18.45282118
4.7000,67.13254256,-34.77040946,37.59321764
4.7050,64.21663451,-21.72483625,24.29641322
4.7100,39.03476684,-4.873523093,-7.793340852
4.7150,10.40060429,3.68244951,-20.4781881
4.7200,10.9171835,9.816690599,-30.81695538
4.7250,18.66025909,-6.835784155,-15.78080577
4.7300,31.48976909,5.898015726,-7.268379089
4.7350,28.07137338,27.01135281,14.57707973
4.7400,20.67592759,14.63479084,8.496622883
4.7450,32.46602962,18.98166762,21.48960319
4.7500,36.3482085,-6.696507126,46.08482397
4.7550,49.07689417,-11.68099704,65.35892128
4.7600,49.10233443,-1.936401745,67.29085277
4.7650,31.99626293,13.05622743,36.59522504
4.7700,-0.7251547559,3.32149427,5.401746805
4.7750,-27.89906841,9.243180379,-24.42836112
4.7800,-34.25622935,-0.8080275378,-39.94726072
4.7850,-24.9160971,13.92746298,-39.81549505
4.7900,-23.56942408,5.60097045,-46.23204506
4.7950,-25.99602743,15.29231511,-42.5908229
4.8000,-27.12164846,17.55752575,-33.94189892
4.8050,-27.50029577,0.7176952801,-1.791194435
4.8100,-11.3945133,3.158729713,16.7834889
4.8150,3.307836745,6.862692741,26.08509425
4.8200,12.44495677,7.892372986,13.54616744
4.8250,-1.223222844,15.14425455,10.6335293
4.8300,-18.30646524,16.08303699,-17.69420045
4.8350,-32.94615941,6.864859876,-13.20888599
4.8400,-31.43879996,-1.302373681,-20.49743799
4.8450,-13.12571968,2.574748348,-14.01777161
4.8500,-5.156707963,-9.703088829,-11.91145495
4.8550,-8.120144446,-4.47561113,-16.78918019
4.8600,-18.7634923,9.703919309,-43.12317442
4.8650,-34.13567713,8.494396321,-39.48636957
4.8700,-18.81711921,12.71638403,-26.53315137
4.8750,-4.277190257,-20.91441775,2.04659192
4.8800,31.04207423,-5.485507336,26.86442114
4.8850,19.15934649,-29.12376213,53.76295141
4.8900,27.26422369,-6.064291466,48.43455816
4.8950,22.85862889,4.470922911,34.20568788
4.9000,19.00856922,-12.76837833,16.55919308
4.9050,2.963850662,4.943685913,5.609946911
4.9100,-14.17379048,-3.26698415,-17.01894327
4.9150,-16.73308634,-4.445382238,-26.46358429
4.9200,-8.460025377,-11.04606227,-21.37509831
4.9250,11.79882569,2.751872804,-18.85579932
4.9300,9.665714594,-7.766997664,-16.22534804
4.9350,-0.4561835678,-3.117492597,-0.1854634945
4.9400,6.529539741,1.274889282,1.008402591
4.9450,8.560213375,-15.17758247,-9.299549219
4.9500,22.64146479,9.2397891,-2.225280266
4.9550,15.17080736,-24.06443853,-6.894062796
4.9600,17.31290986,-20.64492448,2.955021945
4.9650,29.95748748,-18.44327738,-8.994245309
4.9700,28.34040258,-33.96228194,-9.530016176
4.9750,28.19237618,-25.47576968,-35.70261259
4.9800,24.59309815,-35.29648413,-53.93976703
4.9850,31.64567703,-43.91805829,-47.14723781
4.9900,31.38542663,-68.11489604,-0.792177558
4.9950,39.73327588,-56.02112131,17.78335719
5.0000,45.89021967,-26.66729522,6.202820684
5.0050,26.89296137,-15.51722914,-25.80087924
5.0100,16.98031713,-12.28829661,-55.25359376
5.0150,14.97171672,-7.902694506,-59.07659708
5.0200,38.14462647,-9.440476749,-39.73642701
5.0250,56.28172132,-25.096509,5.762338561
5.0300,78.44965406,-14.06417528,13.14666666
5.0350,55.30784238,-20.45617652,5.325996619
5.0400,41.02052743,11.2395571,6.60994076
5.0450,14.61544484,15.20364446,-0.4196412306
5.0500,17.62651028,22.34474547,-48.20573353
5.0550,-1.986224734,18.39894985,-59.3429835
5.0600,-10.71815025,5.117446398,-66.72254714
5.0650,-2.999201008,-9.997178224,-52.71888634
5.0700,25.42313133,-16.22688328,-22.15347324
5.0750,31.08929402,5.051900235,-2.999396266
5.0800,24.83158926,10.28865445,-27.35468671
5.0850,10.8573485,33.5898542,-38.40272497
5.0900,12.90822114,26.42631305,-28.7226704
5.0950,13.07577148,-1.753065905,6.484345036
5.1000,41.40607302,-6.928336612,29.99624704
5.1050,48.7588495,-9.722943171,32.65318272
5.1100,55.14574519,8.405998688,-3.172958067
5.1150,36.4476559,-1.688783607,-38.20105089
5.1200,27.98651437,-5.813495988,-55.42347721
5.1250,16.15634424,-6.448942858,-59.13502467
5.1300,8.889771773,-19.37137865,-50.62658765
5.1350,13.79846187,-4.532064816,-27.99043938
5.1400,26.69289876,-14.22937616,-16.40080695
5.1450,30.26896574,-20.88505511,-2.843412171
5.1500,41.12432205,-4.48015486,-6.928320994
5.1550,25.59867967,-6.833392752,-4.541738891
5.1600,18.45952928,-16.98371076,2.825433938
5.1650,18.69710717,3.758700498,6.646537977
5.1700,13.55879971,4.794127799,-2.849882978
5.1750,2.073311322,-2.142062372,-34.01236754
5.1800,0.4632091816,-0.3560903664,-48.56602724
5.1850,0.6618903054,-18.17359183,-49.73608093
5.1900,9.485399813,-6.904451422,-5.64407514
5.1950,24.11293497,-10.55796725,16.42327833
5.2000,31.4961878,-9.641520699,32.50592495
5.2050,37.33508026,2.59395853,28.2687592
5.2100,26.42032218,-3.884707863,13.32029617
5.2150,16.55578462,-9.131725594,-15.05966555
5.2200,13.96668793,3.909844676,-19.48484175
5.2250,9.483481233,-6.929339305,-20.86576583
5.2300,3.848966705,-24.24939981,-23.83730444
5.2350,10.48641884,-21.76714499,-32.35806787
5.2400,19.88333698,-32.46574182,-10.48158479
5.2450,22.76791041,-52.14599929,24.2472458
5.2500,23.86572784,-32.0180844,48.79416466
5.2550,7.178864544,-31.03493611,33.60883402
5.2600,-7.636976054,-5.264298198,19.83370775
5.2650,-8.704110644,-9.749670521,4.881096988
5.2700,-6.677775815,-12.30565124,2.118230557
5.2750,1.25071687,5.413666859,-7.33076204
5.2800,4.885650779,7.668523643,-25.80692323
5.2850,-3.947219994,6.225386454,-34.26978202
5.2900,4.439089698,2.308387185,-41.28354596
5.2950,6.002592394,0.2990646509,-17.16534475
5.3000,4.773475867,-12.82819419,8.080049573
5.3050,-2.647337004,-1.156524693,39.73401329
5.3100,11.66847643,1.457619301,30.21442784
5.3150,14.15207573,-12.96539001,25.76373088
5.3200,13.26471804,-21.63945052,18.53314666
5.3250,7.346327823,-18.83889034,15.33375777
5.3300,25.47143352,-10.87264709,-4.333356244
5.3350,16.63374982,-29.18978599,-20.96239157
5.3400,17.83009343,-16.80153203,-12.75911916
5.3450,20.06746796,-21.98260451,-9.126694811
5.3500,22.68405173,-24.7071737,3.947378231
5.3550,31.13931228,-3.011628775,13.82732313
5.3600,35.39911629,11.49118479,10.84565086
5.3650,8.923410901,4.258991933,26.93892808
5.3700,-3.629580182,2.203743396,43.43593867
5.3750,-2.904317678,28.10687945,46.6631928
5.3800,10.33302307,20.00484028,35.28667675
5.3850,19.95569051,19.81601648,25.90954919
5.3900,18.37787879,21.34323013,11.40878331
5.3950,5.227166433,-3.275951807,-28.71268703
5.4000,4.026347635,11.30455738,-17.30029035
5.4050,-0.3409374585,-15.85911405,2.756919566
5.4100,-11.00174542,-16.95397271,38.9605857
5.4150,-5.00724409,-5.033416897,34.41268696
5.4200,18.71895411,31.0906855,10.82438712
5.4250,27.31689613,12.95198834,-8.106480055
5.4300,31.01897539,16.12793661,-8.774347301
5.4350,33.31863266,34.39462754,-18.31009751
5.4400,40.81596365,24.99678935,-26.90192611
5.4450,23.8819117,14.31633403,-2.752020724
5.4500,19.94116302,12.56208709,26.77364978
5.4550,20.94521164,4.280986683,30.3539756
5.4600,22.09212899,16.84722936,22.03826221
5.4650,1.335175251,-0.5167853078,6.952957493
5.4700,-11.23285201,-6.100218954,14.73898099
5.4750,-6.757589521,-18.78893594,35.54240114
5.4800,7.532313231,-20.18303389,53.33294533
5.4850,23.30294249,-2.727338229,53.13076622
5.4900,43.68816716,5.695913864,14.91292071
5.4950,47.44194879,12.58889449,-21.0346938
5.5000,44.55994257,10.92088561,-35.23871258
5.5050,31.20307429,-0.712189083,-23.65210309
5.5100,37.17982791,-5.284977121,-2.756353584
5.5150,35.43544603,1.015585341,0.9240421542
5.5200,43.86342441,-10.8350149,-3.393117423
5.5250,40.7167068,-24.27887607,6.142832309
5.5300,5.724558473,-22.77290223,50.59306368
5.5350,-7.886118382,-19.6567185,61.17845474
5.5400,-24.12331076,-29.22797416,45.61186976
5.5450,-23.39538034,-22.39701256,38.05473629
5.5500,-16.27283648,-26.35460821,39.89407047
5.5550,9.029660242,-23.31599091,31.75085749
5.5600,36.21551482,-21.93754471,15.22929426
5.5650,47.59890916,-22.39467925,-14.52315523
5.5700,49.6337436,-16.00326184,-34.92077239
5.5750,38.7232804,-21.59722253,-25.92904734
5.5800,31.00958587,-17.10796068,4.922337126
5.5850,44.38583579,-12.5495144,9.298867263
5.5900,48.75863183,-8.697085906,15.91994359
5.5950,39.70811231,-19.83744416,17.84064041
5.6000,15.05167086,-24.58560861,30.04796026
5.6050,6.852169017,-27.10214493,29.39314178
5.6100,11.48531184,-26.83420613,20.20025497
5.6150,13.95123962,-26.43069915,14.44569925
5.6200,-2.143270418,-52.95868254,11.37454926
5.6250,0.1054211533,-47.38963514,19.63898887
5.6300,-13.07319306,-40.95999007,43.2063814
5.6350,-1.554301873,-22.17650611,43.91654956
5.6400,25.94593856,-2.719869423,26.67544147
5.6450,33.89442789,11.30308701,5.182259506
5.6500,43.68894722,13.5250533,-11.38444256
5.6550,30.19023288,5.65134261,0.9509744051
5.6600,26.88126739,13.84382885,16.96469965
5.6650,28.85916509,9.71373866,8.834203545
5.6700,37.66522506,12.59643854,2.368287315
5.6750,26.87256199,-16.49799957,6.205678119
5.6800,2.16771848,-14.85787145,32.73785755
5.6850,-18.28043933,-26.7145923,48.4787939
5.6900,-15.86811082,-23.1338028,37.54862126
5.6950,-4.585261123,-18.54907888,13.74416077
5.7000,8.013757488,-39.48822881,4.162277346
5.7050,10.05212423,-47.3282264,14.60403868
5.7100,5.028449503,-36.39323322,20.87836316
5.7150,17.18549121,-33.7311722,13.53615432
5.7200,32.10226639,-23.27110308,6.585388178
5.7250,33.6495983,-15.03896254,-3.88983273
5.7300,29.24642524,9.61305967,3.51797094
5.7350,6.575971495,7.126595071,8.846562976
5.7400,7.540691548,24.73923449,19.72608374
5.7450,8.922410147,32.35501584,29.91749757
5.7500,19.50489872,38.98179187,34.18403702
5.7550,16.83253377,35.38094344,27.27448944
5.7600,5.764734518,12.1228825,31.07349172
5.7650,8.873380916,-0.9330137192,37.92987585
5.7700,0.5053920685,-2.54591103,51.39706433
5.7750,-2.330395707,1.353281672,50.4597498
5.7800,14.79360321,-6.580166227,41.11598649
5.7850,-4.798761065,-22.65080896,37.80897286
5.7900,-0.1016614214,-28.19516008,37.09323943
5.7950,2.266675492,-23.00502986,24.74120211
5.8000,17.94203734,-7.142271446,14.97827021
5.8050,38.93853094,-3.153818798,12.00736963
5.8100,49.84712946,4.028540004,16.91990283
5.8150,30.9576352,-12.69616218,21.94118375
5.8200,25.91293197,9.332883706,33.071963
5.8250,34.53221659,12.81006387,23.10176623
5.8300,45.73562008,3.060564348,19.58261285
5.8350,35.14557012,-5.105793946,22.75607972
5.8400,11.09070408,-16.96801606,38.43101736
5.8450,-21.46632897,-12.61368855,52.71636049
5.8500,-16.01633925,-15.10028334,56.52900542
5.8550,-28.50815804,-9.551976528,57.2187255
5.8600,-34.52416313,-20.59224314,54.19641204
5.8650,-36.46132986,-17.94332209,56.31289803
5.8700,-16.69748078,-2.304498704,41.77094202
5.8750,-5.861818703,7.585051709,19.97635507
5.8800,27.09457381,4.528850268,13.25675887
5.8850,6.635190097,-2.697860536,24.28544591
5.8900,8.273468152,9.518222187,35.10268845
5.8950,2.858809528,18.04627054,28.52777293
5.9000,1.636333657,15.43755735,22.7498303
5.9050,10.90804863,12.1539164,21.19997526
5.9100,3.577806383,10.71498697,24.47884941
5.9150,-18.74975396,12.33646399,31.515972
5.9200,-16.26350973,13.78700732,34.44193129
5.9250,-19.62718815,1.042426737,27.59698975
5.9300,-22.93259307,-3.054430368,18.66447096
5.9350,-21.91875074,-7.821438099,26.33342743
5.9400,-17.38217337,0.6567781575,35.82775564
5.9450,-26.5593367,-3.762825326,41.3667708
5.9500,-23.93132518,8.453913885,44.14342968
5.9550,-29.30907657,-6.437954278,29.82962597
5.9600,-21.79162944,3.737404707,27.63793476
5.9650,-22.48660748,-2.64513869,24.85509803
5.9700,-18.89114066,-6.438594701,23.25802226
5.9750,-15.45313709,-2.796670507,19.98009837
5.9800,-14.52609605,5.318191269,21.29732449
5.9850,-0.256743056,6.889564956,10.52392772
5.9900,3.935151746,-3.909583515,0.1506620596
5.9950,6.324451974,-4.620949524,1.80637665
6.0000,3.86380477,-8.151786066,8.531850723
6.0050,-2.051287379,-6.29447424,8.099675776
6.0100,-14.96933445,-16.55539044,8.538339033
6.0150,-15.31680621,-12.50056612,23.90454275
6.0200,-21.72556901,-2.315780678,37.88470221
6.0250,-45.49828283,-6.734666216,31.9143712
6.0300,-27.06200579,2.399199519,26.01649767
6.0350,-31.48412857,-4.529787233,22.60250733
6.0400,-29.05770386,5.898045857,22.42708274
6.0450,-28.40085232,10.66018553,31.99223485
6.0500,-19.26474031,17.23554953,29.29217165
6.0550,-2.19091337,10.65781868,12.88369052
6.0600,15.78687991,6.439838404,3.900517905
6.0650,26.04500646,-2.275194898,-1.176558981
6.0700,19.55249894,-12.77803995,5.79841833
6.0750,12.163699,-11.2395344,14.94018648
6.0800,3.27670514,-7.946302798,21.94269202
6.0850,-4.693734993,-8.656389652,30.52776391
6.0900,-4.487163107,-17.71044166,26.72729156
6.0950,-4.720987445,-16.50949254,29.11448359
6.1000,-15.29110912,-11.31385306,27.81305787
6.1050,-14.65299736,-26.92201984,27.29367076
6.1100,-18.17356763,-8.867042853,28.892242
6.1150,-19.84713973,-13.23209473,22.22556682
6.1200,-8.827122484,-1.689582,23.0145012
6.1250,9.163417211,2.401124097,27.64732952
6.1300,17.59300339,6.640004954,29.79139342
6.1350,14.95037413,-9.750046778,23.35290816
6.1400,15.31287829,-1.596312899,25.5811316
6.1450,18.47618679,-7.127182658,25.95933072
6.1500,7.081755805,-15.03437771,28.61328603
6.1550,-17.24639478,-10.16233659,29.20656858
6.1600,-28.99403632,-20.68886515,30.52839483
6.1650,-23.68763552,-9.755160938,29.14716186
6.1700,-39.18545896,-25.12386397,22.41618497
6.1750,-38.42389917,-29.45980353,24.19915357
6.1800,-49.18039716,-13.60968308,17.92205508
6.1850,-48.37300485,-22.6953975,21.18699152
6.1900,-39.01141103,-16.54075607,26.81915263
6.1950,-33.5615791,-10.781061,12.20763333
6.2000,-26.79448802,-6.850720437,0.5430741892
6.2050,-0.1896303204,-17.10734095,3.397218304
6.2100,1.258845452,-23.83056697,1.577733105
6.2150,11.00893762,-8.04221581,2.442522682
6.2200,1.016381214,-18.69961902,-5.310567324
6.2250,4.637428292,-13.34762082,1.562750598
6.2300,-5.580425733,-13.15502002,4.091183875
6.2350,-12.63441343,-5.162429777,9.871125178
6.2400,-21.61626802,-15.34805377,9.873892841
6.2450,-20.24825448,-0.3562523273,5.71013444
6.2500,-10.76681478,-2.15686798,10.70860475
6.2550,-25.54949009,-13.31429368,4.62268616
6.2600,-22.6800117,-6.690867758,8.853788676
6.2650,-14.25690736,-8.172119108,7.178334201
6.2700,-15.50288703,-17.15335925,12.39625147
6.2750,-7.175687429,-24.42331735,12.23766761
6.2800,-31.00056556,-22.66122287,14.04745053
6.2850,-16.93530952,-14.34701093,20.64187218
6.2900,-31.90190631,-11.45287793,14.91183128
6.2950,-36.46480761,-21.79767366,10.71813087
6.3000,-35.28750082,-11.77557716,15.16556198
6.3050,-32.19312265,-4.255299685,22.46992503
6.3100,-40.84718387,-9.290452513,12.85690029
6.3150,-24.66310847,0.04161575628,17.05101586
6.3200,-10.74870154,2.088452695,21.68486326
6.3250,-17.57726369,6.203438602,13.55188137
6.3300,-24.7358254,7.818992245,10.54145839
6.3350,-18.83351318,14.04764032,5.842259797
6.3400,-7.462301704,33.67633829,-2.663620022
6.3450,11.04472986,26.34398629,-2.459751876
6.3500,11.58175844,16.0905223,-0.530805534
6.3550,6.046461244,23.50526323,0.002421790862
6.3600,-1.408457998,9.17076503,9.49889167
6.3650,-11.53142296,25.59533701,20.69930942
6.3700,0.2997490767,21.27412651,6.14937813
6.3750,0.1314587097,8.82045944,0.0885219194
6.3800,-15.21886625,2.085778301,5.193135618
6.3850,-26.63002481,4.179934783,23.32547485
6.3900,-39.17076489,6.101719091,17.9549639
6.3950,-32.68796863,4.35858628,11.83182274
6.4000,-26.84968748,11.39816766,16.49067131
6.4050,-23.98548418,9.362131899,13.20093332
6.4100,-19.61221608,19.76900021,18.83864186
6.4150,-19.2416497,7.782117787,11.00611784
6.4200,-11.37699417,19.65971492,15.86547225
6.4250,-10.01699255,24.58165554,14.93761741
6.4300,-7.720309097,29.49172012,9.194302025
6.4350,8.166206212,28.77701628,9.115506021
6.4400,16.65806516,27.5192636,13.38556087
6.4450,4.469810076,8.135088648,3.15355201
6.4500,9.999564396,9.855400316,6.922865089
6.4550,15.90783949,0.5792745931,6.802096423
6.4600,10.86326814,-7.080810815,9.322076381
6.4650,4.037568518,-3.772522284,9.024304814
6.4700,7.118079908,-10.63132157,3.203675431
6.4750,0.3962656814,4.840080633,7.833327916
6.4800,4.826061712,-13.50179706,17.35290209
6.4850,-5.870821437,-6.952341319,22.72984215
6.4900,-17.40709108,2.480535351,19.3344791
6.4950,-0.7513111094,-2.972159497,16.18057092
6.5000,-3.872206977,3.859793432,5.894884259
6.5050,2.791298505,7.732832451,3.820098291
6.5100,-3.750356411,4.976676299,-5.078201111
6.5150,10.83261848,3.735930834,-3.407050529
6.5200,11.8344068,14.62062444,1.705383106
6.5250,25.43815904,16.48779844,6.709792853
6.5300,17.64348909,-1.869246684,-4.438392695
6.5350,27.17243733,9.646689253,-7.980017702
6.5400,37.74281492,-7.397466612,-3.000157573
6.5450,35.23847712,-15.24546437,-3.080599325
6.5500,16.52589692,-20.76987937,-8.135252872
6.5550,23.55154903,-14.52971602,1.206510824
6.5600,18.26424591,-7.396766019,6.39674064
6.5650,12.89927808,-16.9187967,4.904462556
6.5700,4.028293099,-15.98535178,-2.112454795
6.5750,-5.079226982,-12.16609984,2.210198441
6.5800,2.768722826,9.217119678,9.693787355
6.5850,10.39373807,-7.590126481,9.376938795
6.5900,17.08066818,4.754910042,10.6575586
6.5950,21.97911419,-6.322695034,1.503902634
6.6000,23.20030928,-9.524658197,-4.690094946
6.6050,23.86016601,-3.839410149,-5.073624338
6.6100,33.4910527,-6.846375267,-1.424390366
6.6150,30.7190884,-12.56793576,-2.83195353
6.6200,27.36517405,-6.515992809,-0.5684320654
6.6250,21.27928099,-10.41007684,1.114016259
6.6300,9.18272431,-19.7413731,2.284030144
6.6350,7.933710862,-14.35759856,10.4516984
6.6400,-3.568662508,-13.83498474,9.632657089
6.6450,-4.218314955,-9.929234631,8.839266138
6.6500,-2.800905486,-4.765565659,7.112936272
6.6550,-15.07626073,-14.83180193,0.7244095208
6.6600,-13.71305461,-8.795315622,4.391066618
6.6650,-21.53148002,-6.850441839,-4.320816607
6.6700,-16.55968649,-0.007338907719,3.03152537
6.6750,-21.48507183,-9.411191305,6.804487945
6.6800,-34.55552064,0.5716963702,3.942855918
6.6850,-36.3054472,6.22598072,7.513308285
6.6900,-31.87980509,-3.530904424,5.034522358
6.6950,-26.78422007,3.01962732,0.8243245181
6.7000,-25.708275,-15.10528203,-1.024185681
6.7050,-24.84906442,-4.782130462,-8.806357025
6.7100,-26.43643845,-14.03411403,-5.909671178
6.7150,-37.88456547,-28.62950374,-8.203741488
6.7200,-52.5587631,-14.15640902,-9.622858678
6.7250,-65.93723266,-24.29819027,-6.743516378
6.7300,-60.75208367,-7.02514328,20.90940872
6.7350,-55.02073036,7.649737945,25.0419352
6.7400,-27.82845216,14.59848136,-2.351430362
6.7450,-36.29671699,-10.32147012,-1.216152548
6.7500,-48.83737764,2.727673347,1.605533537
6.7550,-34.60526576,15.03036394,2.669428305
6.7600,-34.92303044,20.86883416,1.848883566
6.7650,-20.32156106,18.74033733,5.3895737
6.7700,-11.41696825,12.72501188,7.899449796
6.7750,1.680585522,3.09561665,9.013438987
6.7800,-0.5630079261,6.429790883,3.664368305
6.7850,5.998753032,-0.3150687554,3.142860164
6.7900,20.79281446,-8.65975058,6.578040541
6.7950,12.39614331,-4.811849733,6.271055302
6.8000,26.28660632,-3.61157119,22.66053129
6.8050,16.45502466,3.099686227,18.56604223
6.8100,-1.377174649,11.9122469,19.22893693
6.8150,11.79133712,4.758356963,19.74121212
6.8200,1.607044804,15.98619876,10.80130762
6.8250,4.733870996,7.689774916,-0.4664570412
6.8300,11.17316098,6.377061977,-1.011547575
6.8350,16.67313015,1.801059991,-3.453806252
6.8400,14.52297812,15.16039666,-1.032129121
6.8450,22.29965767,17.65169897,1.289657466
6.8500,23.26700705,18.05196853,3.578884977
6.8550,29.32425013,28.61704395,4.230064795
6.8600,25.30636261,20.75379016,0.7570914635
6.8650,8.631455863,12.87742779,-6.982266752
6.8700,5.912698054,16.6207753,-8.753982646
6.8750,-9.307816701,1.188112666,-15.21676625
6.8800,-6.583048865,7.582883118,-10.84497527
6.8850,-15.72530176,15.80708354,-12.74653193
6.8900,-11.43566371,28.31972547,-7.695647163
6.8950,-12.63176207,23.33980976,-1.746878826
6.9000,-8.788822272,23.48916709,-3.807779029
6.9050,-17.9264109,26.46395709,-7.714861625
6.9100,-12.84142326,20.94499549,2.682822998
6.9150,-14.62797567,29.89455208,2.006916492
6.9200,-22.42725355,20.14898538,9.854108115
6.9250,-36.76301371,27.26132245,-2.839878867
6.9300,-37.85727366,17.91379625,4.903912614
6.9350,-36.55118699,4.893152716,8.936650532
6.9400,-39.23044348,20.48741788,10.11623374
6.9450,-43.84061651,11.2747215,11.68603698
6.9500,-40.72848417,13.56822574,11.34060204
6.9550,-46.43695532,19.13152888,4.021932447
6.9600,-29.27368747,31.68429102,6.720734711
6.9650,-20.57945048,24.97250163,8.772870399
6.9700,-12.00891248,31.17624253,9.452187978
6.9750,-3.312984562,19.17040411,14.21158536
6.9800,12.33990911,26.87351533,15.11138281
6.9850,20.78599373,19.93090773,14.28035864
6.9900,20.46757723,12.06798821,10.23267463
6.9950,24.52947718,10.1818926,9.760605203
7.0000,17.56357061,20.98333186,13.31623194
7.0050,20.65578078,12.78484527,17.65941032
7.0100,11.02546127,16.99009316,22.2612445
7.0150,10.09105109,15.5132553,26.11587205
7.0200,12.33969952,28.59291806,23.52721622
7.0250,8.848070015,20.74539506,17.27671504
7.0300,8.379972852,27.92867219,18.44640518
7.0350,11.92661242,21.71285499,11.48247494
7.0400,3.842281136,25.74394903,13.33433792
7.0450,3.974881206,14.88433954,11.41252755
7.0500,-1.323461463,10.49983103,19.3970394
7.0550,-18.54534867,8.098636371,9.996323056
7.0600,-37.25943093,11.04083318,6.914067532
7.0650,-33.97982067,15.36542365,15.05449896
7.0700,-37.97280123,4.837235968,15.21456716
7.0750,-32.31463246,25.97798391,7.927420428
7.0800,-33.30054603,0.4295064013,6.461375048
7.0850,-41.00921238,15.51869965,9.17707124
7.0900,-44.34878269,15.85000825,14.61482089
7.0950,-50.95775563,11.95959406,5.857806043
7.1000,-44.78604512,22.36624928,6.819824425
7.1050,-43.910684,8.376537652,6.431930548
7.1100,-43.79287642,15.330714,2.621707566
7.1150,-44.93984502,14.36242362,-0.2182925493
7.1200,-55.77130467,33.30224086,3.909958167
7.1250,-69.29315872,44.82528406,6.907712908
7.1300,-58.56352321,37.58169452,11.61975584
7.1350,-51.89618537,30.02821012,5.476838817
7.1400,-41.31911238,22.44402806,12.16974163
7.1450,-40.04596121,8.259823132,19.74280814
7.1500,-28.60198986,0.5190173131,20.11414682
7.1550,-26.46952891,-13.68903479,19.36115007
7.1600,-30.35224509,-24.47394515,23.08586796
7.1650,-44.31662781,-18.24321037,22.24634334
7.1700,-45.6132565,-6.729768168,24.63112466
7.1750,-48.03437371,-12.05215695,16.80537211
7.1800,-50.53825508,-8.849754471,19.02504398
7.1850,-48.00932058,3.087190706,22.14161552
7.1900,-36.92791472,9.992043558,30.6453188
7.1950,-37.5709385,-6.560105771,22.52050442
7.2000,-40.7548788,-14.55857993,18.43230976
7.2050,-41.1574317,-13.1468144,9.793626042
7.2100,-27.95463669,-9.406508802,9.652306921
7.2150,-34.55550142,-12.05497567,2.259458922
7.2200,-24.71173569,-13.05342635,4.159856954
7.2250,-17.60334691,8.541152607,-3.615801105
7.2300,0.6425448928,-7.825453138,-7.288022383
7.2350,20.59118631,-18.99728395,1.736672741
7.2400,16.94931761,-4.518145114,6.351143867
7.2450,22.13859246,-10.59668919,1.83941487
7.2500,19.94685438,1.944117575,-2.765147647
7.2550,25.5545131,-6.772873529,-2.696026133
7.2600,7.47482167,-1.520741873,-12.41064937
7.2650,12.02606354,0.5625939361,-16.74715259
7.2700,-0.9126401835,1.020325353,-19.23777318
7.2750,-0.5712550791,-10.72064014,-15.25382473
7.2800,-3.373262659,-8.471655786,-3.379183008
7.2850,-4.845354599,4.979040291,0.4870358892
7.2900,-6.854340522,9.059802694,7.964328265
7.2950,-21.46742057,4.873625011,8.051103881
7.3000,-24.66339513,-3.927369715,11.61458214
7.3050,-28.55611966,14.47781594,12.65700623
7.3100,-25.32361967,6.059352976,15.76610532
7.3150,-25.60528102,-0.6390295534,19.59899139
7.3200,-24.58232243,11.76411275,27.10386934
7.3250,-36.87684821,10.30420727,24.90883638
7.3300,-48.59296735,22.52064674,21.55799072
7.3350,-46.66044352,10.52772693,18.35808108
7.3400,-38.71689395,12.09005679,21.61690115
7.3450,-31.13937518,9.552828109,16.48619197
7.3500,-43.48612398,3.312464916,6.568243417
7.3550,-49.96844428,-9.89229707,6.135242976
7.3600,-56.39598937,7.921307246,13.09061647
7.3650,-59.58813464,2.766080194,16.50294006
7.3700,-56.72443129,11.48410561,16.66265289
7.3750,-30.26086467,12.70210046,22.77177537
7.3800,-30.98260975,7.016836805,19.63884908
7.3850,-40.62263592,14.64452904,16.15681101
7.3900,-33.3843645,15.77717103,28.11711311
7.3950,-41.885855,21.17738154,30.31501475
7.4000,-43.24343936,27.04639966,28.77377461
7.4050,-44.86198849,8.561802569,23.66951107
7.4100,-52.47349502,-11.04295178,13.64748859
7.4150,-54.58127455,0.6768250172,11.04310352
7.4200,-58.68697251,1.776481623,21.88469023
7.4250,-61.61306212,-2.712225135,20.73929434
7.4300,-62.16183562,-17.48708969,16.7746513
7.4350,-69.75801801,-7.508095409,10.24981379
7.4400,-68.65968036,-10.32752005,12.45986246
7.4450,-74.02691639,-12.36903621,12.94737696
7.4500,-82.70683881,11.62981209,13.18770046
7.4550,-70.60844829,-8.036163771,25.98885165
7.4600,-64.7697971,11.14303167,29.48917787
7.4650,-67.08745766,-0.5933841706,21.74494975
7.4700,-51.62811627,1.549285566,27.03274539
7.4750,-54.08035224,8.50667696,18.49505147
7.4800,-55.35452622,5.729881471,13.956481
7.4850,-40.60686442,3.519909641,11.06918545
7.4900,-27.21238809,-7.375446981,7.286691687
7.4950,-17.91194114,-23.20874008,6.776388391
7.5000,-28.41187567,-21.80018533,10.87838726
7.5050,-37.83787367,-14.73301211,16.00775596
7.5100,-53.57761631,-6.410875153,31.48089183
7.5150,-54.18565399,15.39824851,32.09243485
7.5200,-44.01747723,19.3371277,25.43759452
7.5250,-32.70216582,13.99873861,18.78575726
7.5300,-27.47445122,12.38260584,25.75338176
7.5350,-33.33364631,16.54521214,32.72920454
7.5400,-35.88131783,8.676508598,44.81796278
7.5450,-42.30873559,-8.244576801,47.52113263
7.5500,-56.68753031,2.148293118,38.41917696
7.5550,-56.41558538,-0.6053870144,39.05816039
7.5600,-36.29715234,5.081491782,50.59129451
7.5650,-42.10029493,-2.634448719,46.4990151
7.5700,-34.78057244,18.36378269,42.45311103
7.5750,-27.34987883,17.01230787,36.22170767
7.5800,-28.02426392,14.32933393,39.10319869
7.5850,-29.21828687,28.66161575,43.16243481
7.5900,-14.08697485,30.20348204,41.34782026
7.5950,-10.71370027,32.89955458,28.47375607
7.6000,-0.0229198365,26.35643535,23.41622781
7.6050,2.260691382,18.43872255,26.34204807
7.6100,-1.485113612,21.14388485,21.68655611
7.6150,5.332766344,27.67734437,25.2043329
7.6200,2.690077245,19.49234653,26.57205185
7.6250,-6.349889524,19.87329482,35.98983307
7.6300,1.178428452,18.79861123,43.73620299
7.6350,-17.36172593,20.22950171,45.67972144
7.6400,-25.60449784,26.8414303,40.83713245
7.6450,-17.45644327,23.30776985,44.76012685
7.6500,-19.9888585,17.4384669,46.70311484
7.6550,-21.820468,10.79276196,40.6898302
7.6600,-16.24893227,18.83362339,36.17754898
7.6650,-6.342311713,15.24091642,35.72337707
7.6700,10.81171674,20.04404307,33.62816017
7.6750,12.31457913,13.63980248,29.99160891
7.6800,-2.604337306,-6.826835767,24.29827807
7.6850,8.118823074,4.713120907,25.45809407
7.6900,4.085441393,-11.92877602,20.49731816
7.6950,15.03435431,4.027327503,19.5701767
7.7000,2.739837786,3.900375112,23.84541158
7.7050,-1.070344459,-6.198615847,27.71303194
7.7100,-5.37089662,5.780102433,33.71168909
7.7150,5.225108661,7.448115944,33.20379552
7.7200,12.55157513,4.207696721,28.63210235
7.7250,7.229393962,-3.186277908,21.22633831
7.7300,17.3451697,-0.744087745,14.68471732
7.7350,2.205606876,-6.899698609,7.317109013
7.7400,26.7458362,2.276567093,4.466917411
7.7450,29.47646404,-20.22879081,0.3739376731
7.7500,34.08724303,-13.55311344,2.758041144
7.7550,19.49537616,-8.461516233,7.551715024
7.7600,18.15522913,-20.09767093,14.85171385
7.7650,10.58292733,0.2810483423,19.04038504
7.7700,4.957886285,-12.3437572,13.96134754
7.7750,15.91650185,1.329062467,20.88260198
7.7800,6.103137325,-5.746613964,26.52911342
7.7850,4.110188496,-4.401817355,26.31200165
7.7900,10.4835655,4.31066559,24.86164352
7.7950,4.533948438,-21.13840963,9.334228948
7.8000,13.60302297,-11.05396839,12.61071597
7.8050,12.18874997,-24.27663288,10.9449026
7.8100,-3.995945361,-24.47713526,16.65985124
7.8150,9.541182618,-12.58994533,21.94808438
7.8200,16.98783997,-21.01544417,33.81193226
7.8250,-6.653450488,-17.8535008,33.93003003
7.8300,-2.145260628,-7.255187876,29.14038593
7.8350,-0.8849901667,-5.735136833,10.25328756
7.8400,7.972529,3.528071682,11.08677951
7.8450,26.47291617,4.078153184,18.90197402
7.8500,30.75030255,-3.876225448,24.19677122
7.8550,27.68185848,3.007077748,13.29560275
7.8600,32.8332474,6.740097037,2.155948781
7.8650,26.78536679,-7.303619742,1.548645088
7.8700,11.38154029,9.973278982,18.64333738
7.8750,17.33752241,3.620922602,24.5146281
7.8800,19.28408987,-4.696765113,28.95651748
7.8850,11.39203984,9.182853317,34.8207309
7.8900,16.19423537,9.936693341,26.91895652
7.8950,28.61069091,1.776452988,11.01382236
7.9000,33.95117894,16.75869295,17.72693128
7.9050,29.28781679,-1.767899798,20.44649709
7.9100,39.277981,-6.225438535,23.54566182
7.9150,32.42989629,8.007925182,26.05689972
7.9200,26.11293272,-8.610209517,25.54570282
7.9250,26.67995052,15.90162511,26.3823832
7.9300,19.8839304,2.922668439,25.00421331
7.9350,15.73209682,3.709745236,26.21748558
7.9400,15.88728722,2.171919784,19.29287487
7.9450,24.84816378,-0.9629707448,14.90128965
7.9500,33.56137343,8.565675872,9.378909174
7.9550,22.60127087,-1.248871719,5.581648572
7.9600,22.90529636,6.951395761,19.87165368
7.9650,15.68239309,1.288408651,29.32901362
7.9700,13.67283476,15.79758822,42.7034469
7.9750,27.62497448,10.54869982,25.29115504
7.9800,31.46987327,1.056175012,12.83414531
7.9850,18.78272298,5.129686549,15.28748066
7.9900,6.52862657,-13.30893233,22.44360022
7.9950,13.06577903,1.404277822,32.27018122
8.0000,3.819036901,-6.340170751,32.57691809
8.0050,7.630648438,-4.021785245,24.88139993
8.0100,16.59081035,-1.11550799,27.71166783
8.0150,33.67370191,-11.05249222,14.66214081
8.0200,22.73951236,-7.233703532,9.785542504
8.0250,15.93512607,-16.201071,-1.818516434
8.0300,19.45187174,-7.927991772,-0.09604508857
8.0350,21.93262859,-21.83366762,4.055372337
8.0400,19.12222209,-14.65430293,19.46712512
8.0450,9.785581263,-13.25714961,29.91019475
8.0500,5.444767735,-8.057261003,24.51429325
8.0550,4.362482838,-0.6268333376,11.74096385
8.0600,0.8592177206,-5.300196739,10.11407642
8.0650,-1.617354289,1.550017187,24.841621
8.0700,4.927275087,0.3233811206,21.04253101
8.0750,-1.733356288,12.47985755,18.8776777
8.0800,1.622182173,-5.524038202,12.61914501
8.0850,-0.7997993569,-0.06664122846,11.62192551
8.0900,15.01988877,5.400735868,4.840275388
8.0950,12.30856788,-2.565704879,-1.402652627
8.1000,10.73138758,-0.6994387822,-1.703172448
8.1050,8.108000494,-5.467635114,8.816108921
8.1100,1.524755113,-6.805553747,37.76917094
8.1150,4.989219851,9.022247725,40.82725481
8.1200,10.54065302,15.02957637,32.48112875
8.1250,17.37459986,4.30151932,2.049043138
8.1300,10.10641389,-5.623737626,2.526779842
8.1350,3.24115941,1.153351087,20.69310414
8.1400,4.034990372,-6.952677409,27.05268484
8.1450,-3.290449729,6.441096834,19.87689078
8.1500,10.73446817,0.2742016239,11.20681831
8.1550,14.33561836,-0.3055171928,21.75469548
8.1600,7.04208785,2.83703307,37.42487547
8.1650,14.71206139,-2.078596567,23.11468996
8.1700,21.75843063,2.194635277,6.619845362
8.1750,28.85849309,0.7118696001,-13.75578013
8.1800,28.9270812,11.29752986,-16.67199845
8.1850,22.97005233,-2.69032918,-0.5496308136
8.1900,16.60363561,-8.085347656,30.20673261
8.1950,13.46219207,6.137498431,44.62154674
8.2000,17.39603002,7.752852167,34.64799097
8.2050,17.30719961,6.133534579,3.100933958
8.2100,19.78275874,-3.15835064,-13.55988021
8.2150,16.73231163,0.3576718516,-8.760898564
8.2200,21.69459901,-8.24660728,-2.709042366
8.2250,32.50489413,-0.3092237154,6.175289693
8.2300,34.31537012,5.224776628,9.234765593
8.2350,20.25894989,-12.58092912,11.48550272
8.2400,11.32950737,-16.48330322,26.92733149
8.2450,13.36837417,-3.601918332,30.97357142
8.2500,20.12201655,-2.033834245,16.53371158
8.2550,27.74491545,4.675520267,-2.959145291
8.2600,23.37096229,2.519949227,-8.306139034
8.2650,20.68340394,-14.41917985,-2.368081426
8.2700,19.55948642,-13.86795272,19.89677821
8.2750,7.006855689,-17.1429698,20.54652947
8.2800,17.93240179,-17.55572266,7.421909858
8.2850,18.84850622,-3.208891406,4.178344062
8.2900,13.79866008,-17.89907118,9.398477756
8.2950,23.45890352,-5.567293424,24.32268473
8.3000,27.86078081,-10.4669742,14.75496635
8.3050,22.16459826,-2.639601923,7.946300398
8.3100,18.08650289,1.178195732,-0.1856105545
8.3150,12.57211045,-12.05418359,-6.865031894
8.3200,29.94954897,1.569510718,-3.812370381
8.3250,20.28591736,-17.25646331,13.46663539
8.3300,26.76291138,-20.42638434,18.38576421
8.3350,23.27106854,-14.59015665,-6.654738684
8.3400,5.097087058,-14.05061132,-8.065684915
8.3450,-0.1480620922,-35.10118149,-1.923248595
8.3500,-0.09562101164,-37.88915577,27.33593708
8.3550,21.35565954,-25.27397509,24.57521016
8.3600,10.56231112,-22.83416087,-2.047946866
8.3650,4.349330403,-6.417901466,-32.72631798
8.3700,3.912915516,-12.51710105,-52.26475642
8.3750,10.20289209,-2.202317749,-34.68920516
8.3800,13.64550889,-13.4830038,-12.42458141
8.3850,20.66924162,0.9668476757,-11.05841595
8.3900,22.00494659,4.405867209,-9.971549722
8.3950,5.238861009,-13.73697821,-0.511252415
8.4000,14.98604839,-14.0661088,15.45715947
8.4050,9.225743786,-10.87955446,30.46046545
8.4100,3.274024091,-3.211152508,22.42430301
8.4150,-7.872377338,-10.07393503,8.951936454
8.4200,15.6693211,-21.20757839,-11.6646224
8.4250,14.36546093,-27.02523266,-6.722027224
8.4300,17.13617489,-19.6136748,-22.87128036
8.4350,7.677819551,-1.924738424,-47.48301753
8.4400,7.407280625,-10.36536178,-60.27165708
8.4450,7.217617026,-15.18735782,-25.63026194
8.4500,26.83932545,-4.881273765,11.05972078
8.4550,17.65026783,-1.416629921,21.46721067
8.4600,1.776310253,-17.27302533,8.95512167
8.4650,-3.074558452,-19.31856673,3.280623765
8.4700,8.816329654,-5.598426558,22.31804894
8.4750,20.63275545,-9.4521769,22.44388085
8.4800,20.38491074,-9.585325585,5.409239372
8.4850,6.870100635,-23.58765968,-5.551798332
8.4900,22.40959645,-20.68996546,17.14272433
8.4950,23.13489247,-39.12982986,30.04825152
8.5000,28.95633623,-5.787138408,14.80888243
8.5050,18.79181598,0.1056964763,-43.54791112
8.5100,16.03813377,-1.212796081,-57.70270833
8.5150,17.14776271,-21.96425917,-37.87822598
8.5200,25.25841006,-21.82566229,-13.21426695
8.5250,24.28847547,2.969765318,-10.83827435
8.5300,19.94718947,1.014345097,-15.98827328
8.5350,21.60729731,3.407701536,-6.279745845
8.5400,22.54746472,-2.78483352,11.71947316
8.5450,20.83775695,-2.335839027,28.25793044
8.5500,14.98771455,-3.538995797,49.71376052
8.5550,28.91163468,-19.02460994,62.01923775
8.5600,51.43432783,8.73235718,57.61157176
8.5650,40.92905007,20.13143189,-8.50973388
8.5700,16.41222346,13.84891007,-87.14402982
8.5750,-6.215366685,-13.53563503,-107.8980605
8.5800,10.39670976,-22.30720328,-71.48207201
8.5850,29.58945355,-19.04604507,-30.68654291
8.5900,34.95192661,-5.733298553,-4.567179318
8.5950,29.39968669,12.35959525,-17.0521296
8.6000,23.89310444,1.455685459,-36.0861046
8.6050,20.75464183,3.331807253,-21.30205144
8.6100,28.16619285,-5.323024668,-24.4962196
8.6150,32.99852081,21.82262234,-16.27415191
8.6200,36.70617499,9.699752341,-11.4842616
8.6250,19.92101229,-2.934284503,22.06881387
8.6300,14.38209239,10.13422024,24.13423607
8.6350,10.57406849,3.297963406,5.916190771
8.6400,24.99223126,4.847846303,-7.257857943
8.6450,31.76175979,-1.602675401,-2.958983203
8.6500,33.51122885,-26.97198235,14.83422598
8.6550,39.58547812,-7.738279159,30.51758673
8.6600,24.86872235,-13.2389616,33.36739718
8.6650,24.63069678,-8.879211898,-1.308014417
8.6700,26.35350592,5.163064345,-21.91985397
8.6750,13.33230442,-26.00354389,-16.06259599
8.6800,14.67801359,-36.89534591,7.625213051
8.6850,25.59821753,-10.79071735,-5.686810291
8.6900,30.56524744,-14.43154578,-45.46410705
8.6950,15.99494161,-11.8049196,-29.63251156
8.7000,7.092620139,-35.08405716,-5.244384433
8.7050,11.74746392,-25.16935924,11.18721525
8.7100,19.96318282,-26.85231313,7.793238312
8.7150,16.80666387,-23.38870772,10.82543287
8.7200,10.65339069,-33.44663582,9.046274906
8.7250,15.73112834,-27.72769586,-2.089017377
8.7300,15.4732586,-7.677918635,-17.30568431
8.7350,0.3219403395,-10.38308421,-55.19566802
8.7400,2.972811528,-5.999497533,-54.55623779
8.7450,-4.308871823,-13.47614325,-31.76962553
8.7500,-2.122707911,2.481499161,-27.4440988
8.7550,-10.12897834,2.166633003,-28.39159546
8.7600,0.618730857,-5.410486626,-22.6741737
8.7650,26.34613455,-18.33229177,18.47662771
8.7700,40.25911927,-20.38767251,53.60520883
8.7750,23.43944305,-14.44064504,53.51711981
8.7800,-1.434738856,-1.698747579,3.244888705
8.7850,-18.96203287,5.462211999,-38.78406604
8.7900,-8.448185786,-6.498395993,-49.07110317
8.7950,-6.177431093,-22.1312297,-32.62111001
8.8000,7.001540598,-7.204707867,-36.81579838
8.8050,1.910598017,-2.883038482,-22.56047359
8.8100,-5.360501593,0.6898744335,-4.411955238
8.8150,-3.354717103,10.66834471,-3.135658725
8.8200,-7.986164516,13.51887897,-9.193246848
8.8250,-2.130731723,39.21643173,-30.3735799
8.8300,-12.380342,12.83189172,-38.89534971
8.8350,3.281474129,1.100569291,4.613101164
8.8400,37.33484728,-18.11933774,62.35464611
8.8450,66.55058378,1.14952022,74.39229425
8.8500,63.79074245,9.610746354,43.7359653
8.8550,42.75221441,-0.206238715,13.8096563
8.8600,27.30354294,-9.480774747,4.634039465
8.8650,23.54260215,8.998068264,-26.79572817
8.8700,5.080318459,27.6000204,-43.26940299
8.8750,10.27685618,16.24595391,-76.36441817
8.8800,15.70800366,13.91285468,-81.76374584
8.8850,20.04469789,-16.30373361,-66.28752301
8.8900,14.80910939,-22.60634114,-11.1194768
8.8950,17.61977714,-16.22179197,18.36063624
8.9000,34.6610543,6.978775663,10.17906053
8.9050,26.86082372,17.29676083,17.457799
8.9100,26.23574168,11.31737675,4.789301831
8.9150,42.36386083,7.863522545,54.37924343
8.9200,58.44798303,-10.58065861,58.66829636
8.9250,49.91869529,21.60201556,38.03334766
8.9300,24.42160704,37.54248502,-15.15876761
8.9350,-3.785329055,4.442946131,-50.49845742
8.9400,8.417980007,1.976968743,-65.91294192
8.9450,6.113860931,-10.5805381,-59.82974113
8.9500,4.297835776,8.719118222,-54.4608318
8.9550,-4.977928324,-9.310743697,-57.15034155
8.9600,14.67983124,-9.343028936,-41.01065168
8.9650,34.1055349,-18.55679641,-30.11586408
8.9700,37.42296984,-7.963836999,-30.48921093
8.9750,22.95278998,0.1334439244,-47.56849688
8.9800,7.024968791,-4.643193653,-63.04749463
8.9850,10.38606983,-4.714577738,-51.2791649
8.9900,35.07533878,-6.242762082,-29.32605767
8.9950,43.39471278,1.069907656,3.642588661
9.0000,36.70927659,16.16471971,-4.1545009
9.0050,17.52632212,15.00797286,-19.95105925
9.0100,22.86639371,10.22164757,-28.08985557
9.0150,23.94921769,-2.578937591,-14.07425757
9.0200,15.19083325,9.258966208,-23.94085906
9.0250,-1.86083294,27.40639774,-65.95854189
9.0300,-23.70701603,-3.304115326,-68.60573416
9.0350,-13.98368376,-17.99320401,-42.519076
9.0400,10.55210688,5.667226371,-25.94899774
9.0450,-4.543858945,7.144555211,-50.89700976
9.0500,-22.4644975,-4.865766194,-55.02438504
9.0550,-8.581858539,-5.518968322,-12.37656335
9.0600,8.040971275,-13.45792739,3.616249941
9.0650,14.91673088,-6.563921328,-4.828544999
9.0700,24.24663823,-13.19392698,-9.712412959
9.0750,35.04292254,-27.16496171,14.20708417
9.0800,43.12474223,-11.65184638,22.46376237
9.0850,33.84002726,-4.681580875,7.07057596
9.0900,23.4160966,6.85679612,-12.68166774
9.0950,5.126047144,3.367890614,-45.49030589
9.1000,5.633478322,13.28470644,-44.37961935
9.1050,-6.378599547,2.630882589,-51.13832042
9.1100,-6.135663838,3.463888927,-23.68414074
9.1150,-2.55446558,-7.140325713,-28.6533593
9.1200,23.05863907,-13.243311,-16.82181488
9.1250,40.61120642,-6.142870108,16.09335895
9.1300,34.59781839,7.743016789,13.45569031
9.1350,2.817638058,29.7558919,-16.982999
9.1400,-12.70810736,29.17548694,-28.47902825
9.1450,-6.460268383,4.397718551,-25.33560527
9.1500,14.51681184,-2.630613269,-14.48632641
9.1550,26.19202122,-8.471385656,-12.89412074
9.1600,40.82541477,-17.46928491,5.442387895
9.1650,47.96179226,-26.27558275,38.44622106
9.1700,40.41026936,-12.25684886,22.49330629
9.1750,7.391820566,19.39679098,-21.81826365
9.1800,-17.12987276,12.22509878,-62.21477991
9.1850,-20.23595396,8.031820337,-51.66995571
9.1900,-7.500307702,-0.1228931398,-44.04270093
9.1950,-9.742444735,5.365371681,-46.90224679
9.2000,-25.76338325,12.93943149,-45.88996945
9.2050,-39.95749086,15.75588056,-48.47349249
9.2100,-28.87942181,8.090350232,-39.69845246
9.2150,-2.040033943,6.039123296,-29.00775953
9.2200,36.59295808,-5.98098394,7.577156043
9.2250,63.8204176,-5.371957976,18.02886167
9.2300,62.41260468,-24.2031329,41.78701596
9.2350,54.87062371,-5.618330933,36.05520176
9.2400,50.22253207,6.850736045,9.262206924
9.2450,38.30158146,-15.6920507,-9.142335366
9.2500,26.96205497,-6.994135479,-24.33491381
9.2550,14.62952684,-6.054784752,-54.49753363
9.2600,0.02323661426,-19.4917648,-63.62964527
9.2650,-2.934187176,-16.20048341,-53.01919773
9.2700,-2.66059196,-5.494504356,-59.00238355
9.2750,-17.12953615,-2.142746243,-51.31777689
9.2800,-21.28600501,1.557276457,-65.64407951
9.2850,-19.17717194,3.872329418,-33.21353272
9.2900,-18.8627128,2.348337218,-27.12726741
9.2950,-16.05013965,1.296058035,-31.96084383
9.3000,-8.995319225,-0.184547225,-18.93391093
9.3050,-6.461326657,-9.526209161,-23.28403725
9.3100,2.156523034,-19.29407016,-11.45629537
9.3150,11.14350816,-9.972042087,3.383761424
9.3200,33.70548004,-12.28747574,-6.622936613
9.3250,46.8306985,-17.94867909,-10.35662704
9.3300,45.23395142,-22.28293349,1.482508023
9.3350,9.492250479,-19.37778874,11.29885478
9.3400,-9.490741579,-1.720647256,-11.69730545
9.3450,-17.99426532,-3.746158822,-41.47367836
9.3500,-3.927434697,-22.15578891,-53.78874216
9.3550,16.20022086,-38.38178638,-31.04903188
9.3600,31.49604447,-21.38967191,-5.94352348
9.3650,20.41945104,3.52495126,-8.268920528
9.3700,7.399446586,-5.155433175,-9.647067876
9.3750,9.467515171,-2.839418146,-9.468170517
9.3800,18.13940942,-7.364626299,-7.54131216
9.3850,20.44502065,12.59840901,-6.44590928
9.3900,1.212653863,19.59271412,-12.41900305
9.3950,-10.27943737,20.8937546,-26.43382253
9.4000,-3.348150037,1.672444059,-12.49221495
9.4050,19.14391551,-24.15131225,10.48637988
9.4100,42.50752473,-10.80226992,21.29844315
9.4150,28.0067796,9.665076653,3.149707001
9.4200,-2.505671743,17.11109341,-13.43626897
9.4250,-20.9438348,-7.107896205,-18.38498346
9.4300,-8.235260149,-2.955482945,-3.19934182
9.4350,13.24507126,5.654273847,13.09170916
9.4400,24.06721615,12.96118195,4.671025954
9.4450,9.972340658,4.228455141,-9.303828588
9.4500,1.732154528,-5.820851604,-0.8662753923
9.4550,10.07049258,-6.596832251,21.1688932
9.4600,20.37609792,13.21440392,19.28932272
9.4650,10.94267568,17.25167685,-14.37850977
9.4700,10.83484428,0.2014687628,-19.82267609
9.4750,20.46660312,-6.247416389,7.145195295
9.4800,23.34353828,1.126353688,5.569459532
9.4850,3.285942116,2.845592477,-15.00542785
9.4900,-8.396580153,-2.902855854,-27.86269373
9.4950,-14.81881451,-27.93040066,-22.64193353
9.5000,-1.107341004,-14.41136394,-1.778425329
9.5050,-5.998914726,-11.44960609,-5.622311809
9.5100,-16.41574087,-3.05139042,-3.744259072
9.5150,-27.89488209,13.90560524,-11.63983272
9.5200,-27.98817693,18.20423421,-16.36721126
9.5250,-18.75398928,27.47519173,-11.31793037
9.5300,-17.98903278,10.48909425,5.602193193
9.5350,-11.8032287,9.496452211,15.33074588
9.5400,-1.203109187,8.775325059,6.390766807
9.5450,3.526020961,5.824960785,16.18666621
9.5500,-0.3434459395,2.277676507,6.931688406
9.5550,2.168891949,17.3911089,0.6193030941
9.5600,17.26696606,-11.38327406,-1.531703183
9.5650,19.54340114,-22.29196231,-0.07418354433
9.5700,5.788191067,-11.88858878,-11.92242326
9.5750,-17.23321045,-19.787059,-18.78960385
9.5800,-20.21674718,-11.59101283,-21.09032002
9.5850,-2.25750583,-26.90374236,-11.25955632
9.5900,19.11828117,-33.87545312,1.39565676
9.5950,14.88585487,8.139973794,-4.466293864
9.6000,-5.676616629,-7.336138434,-8.091149009
9.6050,-11.82765303,-0.9359949286,-9.708495565
9.6100,-2.639900465,-5.81903195,-11.95052433
9.6150,-3.846923397,-16.16286029,-10.23966773
9.6200,-1.427342107,-18.45189645,-12.0032908
9.6250,5.926193095,-11.22819589,-11.54821474
9.6300,20.38348004,0.7610054487,-23.12860168
9.6350,16.72467067,-10.85521634,-21.05837253
9.6400,7.701891698,-23.2250154,-9.319604887
9.6450,-5.687373617,-10.85632094,-19.15733012
9.6500,-4.92135135,-15.38140374,-23.53429496
9.6550,5.854179505,-30.48220994,-16.48373543
9.6600,12.4542006,-20.90403016,-25.67999013
9.6650,10.59223061,-19.11405393,-25.66354271
9.6700,16.66851202,-28.37377695,-15.36576259
9.6750,22.13914444,-18.12565079,-6.425016054
9.6800,22.72022425,-14.74445222,5.178516922
9.6850,26.12160002,-21.16649318,11.62789228
9.6900,35.22978843,-12.50151793,6.610688525
9.6950,28.84056055,-2.310002251,-1.812205941
9.7000,19.45756172,-5.395981861,-31.85020996
9.7050,3.48896333,-0.1106104253,-21.38985524
9.7100,-12.89878308,5.830514128,-4.91832342
9.7150,-20.11739113,-4.621854336,-9.959592674
9.7200,-8.195997055,-3.302179131,-6.438296665
9.7250,-11.59008217,3.249801037,-13.79150122
9.7300,-19.807911,7.395840795,-18.53210428
9.7350,-20.97009651,0.9504589009,-2.116441806
9.7400,-4.979383429,-11.35439725,-12.84791027
9.7450,24.07738367,-22.02785145,20.9018997
9.7500,23.58593676,-22.3768269,20.53672837
9.7550,-5.389928481,8.863409758,9.108621653
9.7600,-29.07799921,9.077258489,-26.80267388
9.7650,-6.641937491,-8.305521423,-17.4430031
9.7700,14.38648729,-7.797459194,-16.29638735
9.7750,9.455378452,9.268315957,-13.60495447
9.7800,2.5944803,-2.825923466,-13.62494894
9.7850,8.008655494,-9.281766791,8.64531406
9.7900,15.38962638,7.769044417,12.65946281
9.7950,7.346256458,27.1719347,-5.957356189
9.8000,-3.906758606,6.757580976,-23.9579694
9.8050,-0.265439019,-11.76761995,-14.88753918
9.8100,26.02330659,-31.24989289,-6.833225666
9.8150,56.07571522,-41.53693431,5.350173425
9.8200,75.70065502,-47.37084011,8.498931075
9.8250,67.16603732,-19.77569547,10.20269726
9.8300,19.82895508,-0.9986625475,-23.13277836
9.8350,-10.08834838,-2.132078668,-23.57129098
9.8400,-5.609085852,-30.32013543,-19.67020951
9.8450,25.50603968,-35.74519885,-4.057865829
9.8500,43.34427326,-14.39790289,7.738755282
9.8550,41.95905309,6.274432923,1.574652647
9.8600,22.73715125,8.495177661,4.782439615
9.8650,8.203805542,-7.501660632,16.48648379
9.8700,-5.031954933,-7.75757969,17.11309538
9.8750,-24.66119243,-3.011188792,-3.589384231
9.8800,-20.04653888,-5.783759722,-15.66046472
9.8850,-10.52911735,-26.47132165,10.44421317
9.8900,-2.261053437,-2.84132861,32.52363404
9.8950,-22.62493652,-7.557226481,2.911078848
9.9000,-17.55624699,-36.01020776,7.26756931
9.9050,5.066436099,-14.61477281,17.05004785
9.9100,-4.310139575,-10.45649632,12.67653481
9.9150,-37.78821959,8.237251982,-3.257794717
9.9200,-48.87057705,-0.5249850442,-10.73598783
9.9250,-31.71485517,13.26747264,6.593416837
9.9300,-12.04130555,16.78246801,0.07444631789
9.9350,-32.54440326,15.91369297,7.282852851
9.9400,-49.69263522,42.16910741,-5.131259656
9.9450,-37.28256692,15.50768171,1.565456493
9.9500,-5.950871924,22.48530897,-4.897203105
9.9550,1.533167842,22.64943723,4.290493168
9.9600,-10.17492415,38.52068525,9.960644555
9.9650,-38.554639,12.40469982,2.754581421
9.9700,-25.53953889,52.89885063,-3.144401655
9.9750,-20.97008017,17.76993483,-11.36054807
9.9800,-7.091865879,24.78134186,-12.90261657
9.9850,1.754086671,29.05871622,-11.35629817
9.9900,26.6330881,-2.116580093,6.808953843
9.9950,29.62887694,30.44765531,7.504624602
10.0000,-22.15162906,50.37462751,-13.55508135
10.0050,-70.1654951,55.01825928,-34.52467847
10.0100,-56.27879842,32.65317188,-17.43188491
10.0150,-11.74406973,22.87460914,-16.70086654
10.0200,17.91924436,43.55436317,-15.65325456
10.0250,15.05599697,52.34926154,-9.223443899
10.0300,5.663296227,39.69612654,-21.84088456
10.0350,9.54823066,22.57634573,-23.3889404
10.0400,24.32362403,17.44335758,1.961130161
10.0450,6.921995577,25.95872625,-22.82518228
10.0500,-12.34426356,24.40270022,-41.82282277
10.0550,-19.00294244,0.7999059022,-33.40577019
10.0600,12.53531138,11.2580401,-26.90969674
10.0650,15.61633977,9.613239278,-35.90446531
10.0700,1.156329989,-2.242731502,-32.93247565
10.0750,-12.3957122,9.015543103,-25.25601243
10.0800,-8.94015461,-11.62895638,-33.80459374
10.0850,19.18637088,-13.17081264,-30.42325025
10.0900,17.70904976,-14.27274135,-36.5558603
10.0950,-3.976631342,2.734468316,-38.88731147
10.1000,-16.28774275,-2.370493013,-31.67269645
10.1050,-16.45868803,-1.176576826,-25.83986835
10.1100,-12.12084654,8.843364257,-14.49724908
10.1150,-21.20231804,7.940446346,-41.31014982
10.1200,-14.93928929,-19.58042113,-38.40302074
10.1250,2.595112021,-16.33249708,-30.89629195
10.1300,-4.498555137,-0.9129049212,-47.28299423
10.1350,-23.72578051,3.402919451,-41.86285848
10.1400,-8.423044896,0.8001013255,-26.72823254
10.1450,-4.373286423,-0.6684482367,-40.78159341
10.1500,-6.083776208,16.78680704,-41.49559615
10.1550,-21.80909773,19.21588544,-34.9500267
10.1600,-13.09584266,9.4140301,-31.50033107
10.1650,-7.186145667,-3.297353837,-37.94766712
10.1700,-2.742968373,2.793965316,-31.16021101
10.1750,-11.5198922,7.0828987,-35.70226573
10.1800,-12.60670949,2.524132849,-31.55957154
10.1850,-14.35204967,-6.360117293,-29.93280836
10.1900,-15.18881124,15.890192,-27.00721773
10.1950,-33.63405629,16.91113708,-26.30503034
10.2000,-41.39115255,9.538329178,-37.41724861
10.2050,-29.86486743,15.65127338,-24.675026
10.2100,-15.12947838,6.123505521,-14.45771124
10.2150,-15.81291592,23.3723207,-16.40253429
10.2200,-17.95562353,24.70428175,-13.87809293
10.2250,-23.45254248,26.43167872,-4.166130942
10.2300,-27.50819218,21.31550846,-10.73453775
10.2350,-16.63756123,11.88273645,-23.63957805
10.2400,-5.393539213,18.19089866,-25.17891416
10.2450,-9.58730751,14.15925405,-15.68378666
10.2500,-18.92914941,22.1834601,-20.10674383
10.2550,-28.91202522,23.04740143,-18.74637268
10.2600,-22.25786988,22.41375923,-5.98889212
10.2650,-16.5027038,6.409427975,-10.71767478
10.2700,-4.339788376,19.08319745,-14.40292742
10.2750,-19.28289739,22.36847387,-13.21164228
10.2800,-23.10052064,18.53537195,-18.74348571
10.2850,-20.30947724,11.23285688,-11.50819752
10.2900,-2.178287494,26.82912168,-1.796544381
10.2950,-10.4305368,21.29838146,-4.256359939
10.3000,-6.749332398,30.03397486,-4.85783496
10.3050,-13.91548045,24.59237005,-1.037639887
10.3100,-28.45649646,22.92175883,-6.602044659
10.3150,-42.15187083,23.47427687,-18.79795856
10.3200,-41.76537682,11.62186136,-13.84990042
10.3250,-28.68646711,0.4747174456,-4.060584461
10.3300,-17.07655896,-0.0005363604701,-11.19563818
10.3350,-25.19430291,-18.93012405,-22.30185341
10.3400,-22.92106096,-12.17970855,-11.27167668
10.3450,-28.84924363,-10.89314664,-3.949278244
10.3500,-26.63260895,1.488481157,-12.32425651
10.3550,-19.58509758,-3.178289848,-11.82492834
10.3600,-6.041428087,-2.01785784,-4.011112176
10.3650,-9.258513494,5.290050218,2.954420745
10.3700,-24.01172722,15.33846747,3.359864136
10.3750,-36.16586048,14.69513812,-8.097744504
10.3800,-31.35409722,0.4102640424,-4.987522937
10.3850,-25.73437551,1.984132823,-1.436934962
10.3900,-27.96631014,-0.4333824637,-3.71493079
10.3950,-43.24675622,5.299594973,-9.024010265
10.4000,-41.41371987,4.137217359,-17.98208689
10.4050,-38.50702965,-13.60128833,-18.03268156
10.4100,-31.57959097,-13.02748561,-15.77041656
10.4150,-32.95441115,-14.92490276,-7.080741851
10.4200,-24.09726494,-23.15029107,0.3448822378
10.4250,-23.72083065,-29.95975748,-9.867210384
10.4300,-14.37450566,-13.94105676,-6.812271484
10.4350,-22.12734896,-12.16651086,-18.59762208
10.4400,-25.09609749,-11.27275036,-14.18562539
10.4450,-28.99390795,-17.44804253,-14.41386024
10.4500,-26.80726357,-17.46742577,-9.645353105
10.4550,-23.34956802,-14.53414417,-9.137746386
10.4600,-18.74947672,-27.86264786,-11.4211736
10.4650,-8.974288623,-16.75825575,-12.56235114
10.4700,-10.89813583,-21.52192035,-4.920659486
10.4750,-9.87724418,-26.84885097,0.5713612229
10.4800,-6.336352808,-20.36459022,-5.168664107
10.4850,-9.054771995,-3.973056978,-5.176243098
10.4900,-24.14365179,-16.66960105,-2.05148141
10.4950,-28.75394226,-24.82034355,-1.363575763
10.5000,-16.17762296,-22.36908235,-3.334651345
10.5050,-12.33811429,-17.04170743,0.5907931526
10.5100,-4.987931588,-8.913477851,-4.365985507
10.5150,-8.072202017,-15.51704866,-5.041217291
10.5200,-5.981821254,-23.78499548,6.221739066
10.5250,-5.785362391,-8.600611413,3.251316764
10.5300,-10.74696754,-12.2924477,11.36541398
10.5350,-16.03558412,-10.66330035,-1.763281984
10.5400,-30.40969989,-8.397026245,-5.839520494
10.5450,-39.97318103,-0.4536220116,-10.39878168
10.5500,-39.27910038,-14.22500752,-11.81596392
10.5550,-43.50689799,-16.02199697,-17.20044523
10.5600,-29.6802921,-8.533457042,-7.847496582
10.5650,-17.56705802,-3.941145377,0.9815028007
10.5700,-14.98878941,-8.214472175,4.549367651
10.5750,-8.964197284,-0.9135524113,7.823791268
10.5800,-1.846187726,3.00031228,13.91515705
10.5850,-2.775777444,4.71886681,-1.726892287
10.5900,-2.215003898,-1.524981402,1.762228297
10.5950,-8.760018727,-6.587443873,5.351781487
10.6000,-6.910310556,-4.637866808,-5.148971765
10.6050,-9.510891394,1.750048879,-13.77718139
10.6100,-20.54943676,-8.316695598,-25.84430831
10.6150,-24.99540306,-5.554099176,-7.486695684
10.6200,-18.64177097,-12.96946071,-16.76463106
10.6250,-4.40613081,-10.21050827,-4.132309557
10.6300,5.406295539,-15.07425216,-5.161454042
10.6350,5.929963628,-2.148780553,-8.578361066
10.6400,0.806248257,-11.97235096,-4.270484192
10.6450,8.197018087,-15.28253961,-5.226372737
10.6500,22.74165879,-1.966851623,-1.755162424
10.6550,8.158496939,-6.295274978,-14.72107742
10.6600,3.596819993,8.900474222,-17.57976657
10.6650,-6.075146932,11.90771235,-18.15643361
10.6700,-6.937502718,-12.79048985,-13.32228907
10.6750,8.906023027,-33.53151398,2.39662055
10.6800,29.3338914,-32.91238602,6.083641933
10.6850,30.33310501,-6.984281483,-9.099249792
10.6900,8.269079301,3.358939956,-19.99363576
10.6950,-25.11760687,3.269199084,-18.31968343
10.7000,-31.01830686,5.870621007,-17.81732475
10.7050,-18.41729907,5.298511472,-15.95922989
10.7100,-4.970038991,-4.906680046,-6.813682388
10.7150,10.27264416,-1.1055351,-9.097321681
10.7200,13.17986851,13.24814581,-16.34639283
10.7250,-0.583549432,-0.157366012,-16.41217563
10.7300,-2.711450363,4.912490196,-10.54651545
10.7350,4.583078134,-0.7713736905,-7.36728299
10.7400,18.18615199,-20.49552137,-11.25230228
10.7450,32.14219661,-9.544754909,-11.39533271
10.7500,25.66998268,-19.18911675,-17.53241208
10.7550,13.02613087,-16.12746516,-27.648803
10.7600,9.019975854,-19.12400567,-38.04878685
10.7650,11.98880608,-11.7953909,-38.76486476
10.7700,11.02980205,-2.139481466,-44.00771671
10.7750,-0.7324041755,-8.263244858,-43.54734412
10.7800,2.262422858,4.890351513,-47.45348088
10.7850,-2.697951832,4.867133828,-45.70577939
10.7900,-3.035366443,4.162265165,-49.03422658
10.7950,-3.720150794,0.1646148758,-42.89465878
10.8000,6.890021102,-6.126445494,-19.20345845
10.8050,15.15694715,-7.122692207,-15.30502419
10.8100,17.8627591,-3.705320895,-19.16181326
10.8150,9.995379487,1.75287417,-33.02742509
10.8200,2.135417866,-6.898682275,-31.82862126
10.8250,8.869567108,-10.01292451,-18.43608337
10.8300,26.53846538,-12.29025678,-19.61959183
10.8350,28.91929323,-14.99163574,-4.916172121
10.8400,24.61374783,-2.391776321,-20.10809939
10.8450,7.486925282,18.35997121,-40.33055547
10.8500,-3.62174077,19.98562695,-43.53371963
10.8550,-15.70254336,13.8808624,-44.2991625
10.8600,-4.216406216,18.65913414,-41.13234094
10.8650,-1.188590515,13.71222013,-36.52440251
10.8700,1.519789459,-0.3969584445,-34.06198739
10.8750,-1.062005455,-11.42316073,-19.6180696
10.8800,16.26914896,7.056823964,-24.68292812
10.8850,13.39711911,-13.63718649,-25.97532296
10.8900,26.95082218,-1.902509075,-9.46178405
10.8950,23.69424505,-7.248836583,-1.602401332
10.9000,26.9530651,0.1139695893,6.408650356
10.9050,31.96977813,0.3565827588,0.1034216071
10.9100,29.95641858,-13.20410564,6.900204798
10.9150,41.86194891,7.121214071,8.677279362
10.9200,31.36323726,5.655047413,-3.322263313
10.9250,20.07215902,24.46327178,-18.18465197
10.9300,1.323075916,18.72252183,-16.94535702
10.9350,-5.659395205,15.54922405,-32.76739892
10.9400,-3.316400076,13.15427297,-32.81959106
10.9450,12.09652393,7.333663976,-16.55662855
10.9500,21.83443448,5.572709181,-9.164467638
10.9550,15.15191478,-15.43828678,-3.442921867
10.9600,24.54682262,-6.587392401,-2.473465277
10.9650,31.85282551,-6.393751829,-4.997224321
10.9700,37.14530957,-16.83736128,2.624017841
10.9750,44.74422793,-15.48430292,13.75315424
10.9800,41.55858989,-4.934031415,3.449669686
10.9850,25.92082975,-0.5943884401,-5.024130637
10.9900,15.25735238,7.04473438,-15.21715829
10.9950,-0.2555718225,6.351025919,-39.19493227
11.0000,-0.8239764527,8.343377933,-41.95744866
11.0050,0.7879427226,3.392843259,-44.68998033
11.0100,-3.049926492,6.99093362,-42.38884315
11.0150,-14.85862538,8.115046876,-55.09582067
11.0200,-9.688680315,19.07472777,-53.54048261
11.0250,-13.32098063,10.7934221,-32.13540219
11.0300,-0.243051045,4.430364692,-20.39798874
11.0350,9.044787538,3.264365864,-15.44007397
11.0400,17.64921357,23.41478347,-16.34582263
11.0450,2.018767158,7.439362107,-21.16295447
11.0500,12.95551523,2.849121754,3.425448363
11.0550,25.67110407,1.815890129,22.55643233
11.0600,41.71550566,4.935497635,16.63966885
11.0650,38.77274381,15.93393726,4.717155935
11.0700,35.58064196,11.43457116,-27.08105444
11.0750,25.76108238,1.78546073,-14.13994454
11.0800,25.73974997,-6.704716512,-16.92520749
11.0850,20.12772614,15.66549971,-17.36731959
11.0900,6.673011537,17.22510663,-42.0214595
11.0950,-6.861678168,22.45736048,-57.01016921
11.1000,-9.470561386,4.755662106,-55.16506351
11.1050,6.350391888,2.341247867,-33.92806739
11.1100,25.49247967,5.106997361,-4.254226868
11.1150,26.59042161,4.272097178,4.531946282
11.1200,27.05954067,14.17469493,-2.469713561
11.1250,15.84374801,16.22183405,-2.844874924
11.1300,8.735471978,18.07273354,-1.213812786
11.1350,6.518592386,7.229762862,-1.951627026
11.1400,16.76224904,9.809492006,4.678263074
11.1450,29.28979746,3.250361805,6.450759451
11.1500,36.46544567,-1.049792167,5.601820016
11.1550,34.30684568,2.503806969,-17.72833647
11.1600,20.03647504,-4.825627274,-24.21717136
11.1650,13.78747511,9.71838758,-18.58231509
11.1700,7.89358525,-4.667157392,-25.16262034
11.1750,8.908953723,-0.8046388289,-27.41515826
11.1800,23.80838064,3.94315582,-38.52880273
11.1850,19.77961742,2.852524705,-39.90459338
11.1900,17.09895599,10.42317599,-52.23414298
11.1950,3.162853665,12.53251376,-43.08469045
11.2000,-7.569057488,8.241188565,-47.62762545
11.2050,-1.374698002,3.736858594,-33.65384166
11.2100,20.62866662,-13.67239341,-1.88001825
11.2150,39.84075709,-25.03844711,33.04469041
11.2200,43.03372874,-15.43917415,37.58533685
11.2250,37.2797039,0.4874890521,1.360308831
11.2300,13.78623149,-13.42375241,-29.05435769
11.2350,0.4988874693,-8.431009734,-41.21331763
11.2400,0.444674602,-8.795990726,-43.22280711
11.2450,9.188796827,-25.88380237,-51.11024441
11.2500,21.77555189,-20.67988798,-33.11996779
11.2550,25.15944995,-7.981955567,-33.76446758
11.2600,13.2257082,10.05882934,-39.09736571
11.2650,-13.7488118,15.45508179,-56.87388878
11.2700,-22.24406972,9.407547762,-64.60534811
11.2750,-11.30599625,-7.29477432,-50.01075321
11.2800,29.05580252,-13.86604645,-11.80010441
11.2850,46.85946752,-37.23984601,24.16901051
11.2900,56.16028712,-30.55647114,41.83075447
11.2950,41.38299928,-11.82530279,43.51638092
11.3000,17.08456467,-13.59807091,33.97877625
11.3050,12.01198794,-13.22204472,-0.3575064865
11.3100,19.2050577,-29.08205596,-9.565373198
11.3150,21.84444097,-26.85546806,-12.26428903
11.3200,28.26746778,-27.90124303,-38.48316773
11.3250,9.507751109,-16.65872667,-58.84224508
11.3300,0.989058338,10.73078881,-63.68305802
11.3350,-3.195829013,7.41581766,-58.43288176
11.3400,8.304638621,7.204309532,-36.04796831
11.3450,14.33925503,0.3116416844,-12.01043687
11.3500,23.65169777,8.74058614,2.760683586
11.3550,27.512193,0.492674649,-2.175644314
11.3600,26.96393503,5.952804938,-5.980267155
11.3650,16.66619486,-3.523024144,10.97390855
11.3700,16.00180843,-9.993434913,22.1273333
11.3750,16.05245592,-5.152045095,30.99714408
11.3800,4.001334333,-9.064707071,17.62699939
11.3850,4.564086836,9.708832059,-6.499398791
11.3900,16.08386084,0.839371846,-35.76407263
11.3950,16.42131148,-19.40735068,-21.24815707
11.4000,31.83212677,-12.37723822,-19.06539896
11.4050,23.83570891,-8.336755738,-12.1084949
11.4100,12.35260586,9.296045944,1.984837476
11.4150,5.231712431,12.69178893,-1.94588995
11.4200,14.12340639,7.392618152,-1.90294395
11.4250,6.197713795,-4.925797449,9.842018933
11.4300,5.485396803,-3.230048956,20.76944574
11.4350,1.915140939,0.4459925409,16.44087455
11.4400,11.29860798,7.554865077,2.088650434
11.4450,8.603013457,15.94486153,0.1260222451
11.4500,5.202945117,11.82729786,-6.740669922
11.4550,6.481026901,11.18063591,-4.389202089
11.4600,6.910313583,14.12440404,8.943612381
11.4650,0.2198867199,11.19076571,29.87527608
11.4700,4.390120291,1.546565593,26.95845196
11.4750,-4.310362974,-3.452093495,37.26178959
11.4800,4.804544819,0.1407867087,36.87349466
11.4850,8.083502073,3.462098489,33.38548266
11.4900,11.84175555,11.8788663,26.67725234
11.4950,8.174179984,4.150214711,3.169936888
11.5000,1.213822386,6.183096517,-3.344469802
11.5050,-8.428111922,11.85666396,-18.89661336
11.5100,-15.99009394,8.669371898,-31.06969828
11.5150,-9.072584231,12.30565593,-30.85708964
11.5200,0.06465121176,8.570096668,-17.21344692
11.5250,8.583855691,-8.997479503,14.47705516
11.5300,1.935092197,-28.70384093,47.21127282
11.5350,8.252119881,0.7705983538,46.47601912
11.5400,4.280813152,3.955794678,13.24224511
11.5450,-4.015786834,8.986638903,-10.88130324
11.5500,-14.23955592,2.25286475,-18.41996339
11.5550,0.09149799944,9.135476035,-18.82547545
11.5600,9.330574739,-8.805912435,-11.96441665
11.5650,6.819614205,-1.576518298,-3.074543193
11.5700,15.50106176,21.27909023,-27.68587657
11.5750,-16.9891248,14.13366538,-28.66283957
11.5800,-20.92872646,19.55908646,-0.02023213656
11.5850,-4.385550022,4.400950049,12.8617587
11.5900,6.26788115,-11.41394422,20.08787374
11.5950,-1.672643165,-3.837914187,45.40359774
11.6000,2.083448934,0.8464475747,34.72347652
11.6050,3.846699461,7.367709701,20.04924567
11.6100,4.518027392,3.442021691,3.64767123
11.6150,7.289107397,10.62999597,-12.69625319
11.6200,12.33183297,-5.274787306,-35.57710688
11.6250,18.00549762,-7.215776084,-34.04345372
11.6300,25.5530342,4.231997011,-21.65139187
11.6350,12.80386409,0.478454036,-5.946143425
11.6400,10.15127999,4.879177256,-1.972482987
11.6450,3.191220702,-13.73230394,14.20615519
11.6500,12.55363693,-25.10086023,44.10715093
11.6550,31.65847226,-21.73337425,56.46462217
11.6600,39.24886136,0.9468682521,31.25300864
11.6650,25.07417676,-0.6656408275,-10.1947551
11.6700,8.543200561,-8.407060908,-28.75109837
11.6750,-6.898522834,-9.652201183,-14.8449755
11.6800,18.44687719,-13.58651783,-10.01599823
11.6850,16.09768514,-15.53495824,9.280163709
11.6900,23.48991638,-27.52702464,13.12199823
11.6950,27.70364935,-10.14052495,19.34644442
11.7000,37.39173083,1.405072837,10.85121799
11.7050,28.55640944,1.858455171,-3.156016649
11.7100,18.31372151,-4.941464904,-7.086009613
11.7150,10.44614403,-20.51709413,-9.634087641
11.7200,22.64064475,-8.49695453,-11.20790156
11.7250,20.22152686,-20.19135458,-26.56458585
11.7300,26.64242357,-7.889388286,-31.44447793
11.7350,30.64116533,-8.280538098,-36.57649173
11.7400,16.59548806,-24.33905617,-17.69933113
11.7450,15.19712227,-14.76084433,17.22197928
11.7500,17.25432534,-28.23020256,42.3112924
11.7550,16.16983562,-37.19848586,60.90038938
11.7600,12.04516731,-21.59598438,57.509911
11.7650,26.79636054,-14.7612179,26.02744704
11.7700,20.5507953,-19.93642654,7.853487957
11.7750,25.80601147,-22.66273648,-6.756887896
11.7800,34.77026586,-4.801754354,-15.92277319
11.7850,31.7315554,-3.909849825,-27.31155725
11.7900,19.79564756,-11.34863259,-24.88153672
11.7950,37.18274991,-11.88697571,-35.99919
11.8000,28.91212398,-0.6303467579,-27.77117961
11.8050,33.27334361,4.166842711,-36.55816153
11.8100,29.65973015,17.8163163,-29.84168846
11.8150,6.73235015,0.1955179699,-20.41876062
11.8200,-6.670252613,-5.698618417,14.78696775
11.8250,-12.41436223,-5.249036051,37.95272256
11.8300,-14.22349072,-11.62984225,49.84467662
11.8350,-10.05183771,-10.51020142,41.35977993
11.8400,0.675907013,-4.601708175,18.30738802
11.8450,6.700555984,-2.98330669,-11.07623736
11.8500,24.6773693,-0.845593788,-37.70644372
11.8550,16.17997381,-20.7117302,-52.04439897
11.8600,20.61634262,-22.08930863,-38.02289409
11.8650,28.45941726,-14.16670755,-30.8890131
11.8700,32.49477398,-1.390678028,-16.61258413
11.8750,30.915742,2.188231676,-15.99611632
11.8800,35.24082057,-5.53698313,-23.48053813
11.8850,7.821040614,-9.405830252,-7.372210848
11.8900,1.464378339,-27.64411953,-0.03007341085
11.8950,7.843728395,-18.63040781,0.9002376059
11.9000,17.62203814,-14.78908066,-8.918339007
11.9050,19.31485864,-27.9719462,2.134252029
11.9100,3.037100691,-47.47554621,23.35475613
11.9150,13.33095084,-38.57008298,25.0243429
11.9200,21.15391022,-20.37873696,23.35191149
11.9250,14.14242178,-32.93175859,7.145432246
11.9300,32.95921464,-33.10485559,-14.1770834
11.9350,35.59856707,-29.56100322,-29.52796048
11.9400,35.45168773,-21.32757842,-36.14410918
11.9450,36.11284161,-26.73850659,-46.5161929
11.9500,23.41359282,-40.43020419,-30.10347806
11.9550,13.29273438,-34.96358984,2.030878401
11.9600,16.78087468,-23.8302893,23.78024363
11.9650,5.10106832,-36.04335008,22.08590688
11.9700,6.697152617,-36.22376126,19.71659249
11.9750,-1.532163634,-33.39388701,12.75850794
11.9800,-2.426870954,-25.39808869,13.2832108
11.9850,12.04649269,-30.28559267,2.727275638
11.9900,23.62453855,-34.07436881,-7.255742795
11.9950,18.35140102,-32.84931068,-5.960766887
12.0000,22.9640306,-28.12006653,0.6111842042
12.0050,26.53624745,-5.877322565,20.82486609
12.0100,20.73195853,-4.899078262,21.01157124
12.0150,30.99179849,14.92849645,11.26225766
12.0200,29.86786707,7.471336099,1.00504626
12.0250,22.74200309,3.271032463,9.30366309
12.0300,18.10965885,3.804096308,24.5710011
12.0350,31.03254255,15.77034074,29.14533777
12.0400,36.51253542,-4.939369736,18.75585188
12.0450,18.97924855,-11.75283246,22.33149124
12.0500,19.92026328,-27.50786396,27.10002982
12.0550,6.374891966,-33.88768678,41.90350959
12.0600,11.86578201,-33.02310524,36.81880926
12.0650,12.96607613,-20.14678046,20.42714006
12.0700,3.84781729,-34.74844218,11.13821573
12.0750,-13.29115394,-34.5008809,18.24174277
12.0800,-21.4164231,-5.917066394,34.34098036
12.0850,-11.82430454,14.4912293,29.12241675
12.0900,11.92886908,20.38810595,18.42239033
12.0950,16.67874853,27.15598354,15.81150948
12.1000,4.831100242,47.31529746,20.96073441
12.1050,2.706552444,45.01530779,18.89451176
12.1100,5.635655635,43.08112158,9.739797384
12.1150,10.9952599,30.57606947,-5.199396524
12.1200,26.49713229,33.79810808,-4.296833909
12.1250,22.9316769,21.79092335,10.32089629
12.1300,20.94571957,16.64330372,27.38227816
12.1350,10.74499624,18.09961252,35.45087081
12.1400,-4.018936849,11.35928102,29.00278129
12.1450,-3.224637823,1.211197889,21.54368514
12.1500,-10.3594382,0.889850425,29.16663773
12.1550,-2.031422458,-11.48502135,29.47769908
12.1600,7.001982076,1.410857893,35.55750877
12.1650,26.00665371,5.055446017,30.13944106
12.1700,14.75931773,23.86506642,33.55606411
12.1750,30.50146556,47.93317929,21.87106212
12.1800,37.49800122,53.89297413,7.866227406
12.1850,53.82130562,68.29566256,-1.862264428
12.1900,53.75149041,53.94398462,0.5989059955
12.1950,33.45131049,19.44432559,13.41380398
12.2000,17.97649133,-0.4182578114,31.6815322
12.2050,17.45746023,-1.805703113,45.50685654
12.2100,17.80865286,-30.70949518,47.00062116
12.2150,12.53892037,-22.78092991,41.90224187
12.2200,-5.085698138,-28.13043829,38.09460457
12.2250,6.659065175,-24.82436506,51.94756261
12.2300,14.37953072,-32.70722299,56.19363478
12.2350,24.84440512,-28.98508531,45.5926251
12.2400,33.00829802,-33.22737807,21.48021432
12.2450,34.69234907,-41.61594647,9.608461615
12.2500,42.95438489,-16.29346076,13.84081733
12.2550,51.65588929,-26.02910243,10.79874028
12.2600,37.73262037,-19.21586913,22.53935468
12.2650,22.33722665,-17.97729096,22.48130767
12.2700,6.702772914,-17.65419146,25.21242419
12.2750,-6.526242064,-34.99972059,20.00415302
12.2800,-17.0067478,-20.40170497,28.74197612
12.2850,-8.750803858,-14.46124104,40.67371132
12.2900,-18.32467195,-16.63013943,37.18783225
12.2950,-1.587553495,-21.50400905,21.70327156
12.3000,7.282988965,-12.90642425,9.794413414
12.3050,14.3037599,-22.14919251,1.631381877
12.3100,18.86636835,-32.91694784,2.720285325
12.3150,18.11868556,-33.68528377,12.00312393
12.3200,22.0680954,-28.1517396,27.8474913
12.3250,8.465430674,-30.68254042,23.11315006
12.3300,21.33127247,-27.6068913,15.16429672
12.3350,14.48505345,-28.8565555,7.476557181
12.3400,21.79943447,-27.43924933,12.11114397
12.3450,-0.03267629781,-27.6449024,27.00678741
12.3500,-18.25903154,-21.69209454,44.96192181
12.3550,-35.65880438,-13.50391321,58.6946307
12.3600,-38.72709128,8.68963314,56.15389281
12.3650,-51.89812301,11.98835056,44.86188659
12.3700,-39.21296492,11.78570937,47.47072032
12.3750,-32.89011486,4.394026634,38.5852136
12.3800,-33.20346273,8.602320138,26.22066105
12.3850,-19.87799459,0.592633448,11.03454926
12.3900,-13.81759965,-6.61712225,12.40999563
12.3950,-15.75104247,-3.335964858,29.19851171
12.4000,-21.01058035,4.70555782,34.4795262
12.4050,-20.90935724,18.88377086,20.63531484
12.4100,-23.1254233,9.070588239,9.006102092
12.4150,-38.84281536,0.8732699613,21.79132349
12.4200,-38.50666953,12.94240724,36.88225199
12.4250,-37.75401619,3.299647423,26.43059202
12.4300,-23.82351317,16.66579168,14.34580363
12.4350,-10.18867138,0.749079649,5.587493582
12.4400,-9.444728957,0.01034320707,12.94199579
12.4450,-13.54783506,2.173141725,18.63981173
12.4500,-28.07182654,-18.09168112,17.66339963
12.4550,-22.40337587,-2.213764974,19.12207758
12.4600,-16.18149789,1.077617187,22.08391779
12.4650,-19.82256787,14.84935303,23.35375456
12.4700,-23.13260098,19.94511568,27.06708535
12.4750,-10.84323046,13.76312471,17.59046689
12.4800,-3.267973334,20.58503102,8.071380868
12.4850,-0.03544904018,1.584645409,2.17766429
12.4900,-11.40823073,-0.5909044754,8.99532681
12.4950,-16.42916318,-17.95424581,20.32110724
12.5000,-7.309534369,-7.084028715,30.40873767
12.5050,3.581707092,-22.66422087,32.99181303
12.5100,-7.257721834,-23.51869204,27.60898388
12.5150,-6.672787216,-42.65187186,18.34060786
12.5200,-9.270320984,-28.21394921,7.265728319
12.5250,11.86886917,-13.69143647,7.511526081
12.5300,19.19926555,-12.59599668,8.153986532
12.5350,31.30818072,-18.86259946,10.03457012
12.5400,34.70653028,-9.707706769,14.6487324
12.5450,17.98739567,0.06756096017,15.95910418
12.5500,5.10544275,-6.880947722,17.18935679
12.5550,17.0643886,8.088790423,19.54951588
12.5600,20.96378601,1.492494956,24.28515826
12.5650,9.527490275,-8.590672801,29.44322527
12.5700,-16.24898326,-5.000108786,29.26985681
12.5750,-18.33206608,4.949117922,24.47372375
12.5800,0.496992916,5.432846115,22.21562086
12.5850,17.03219082,0.1181577684,26.69329835
12.5900,18.28813342,-4.69008489,31.54206376
12.5950,10.91322225,0.5258948697,12.90109308
12.6000,19.17077534,-1.259396219,12.47302628
12.6050,17.46071395,5.944858603,16.81437442
12.6100,10.18944839,8.973472388,19.06598909
12.6150,-2.386048287,15.49399543,20.48797967
12.6200,-12.36110594,30.60630948,18.41471543
12.6250,-16.7403788,24.57008805,17.45599241
12.6300,-12.14699719,22.50312197,23.61338922
12.6350,-27.6592779,22.16095136,17.72506182
12.6400,-28.0150268,23.33637222,16.58819153
12.6450,-11.11957161,21.91291491,29.6063349
12.6500,-18.43475722,19.87701377,34.76030431
12.6550,-19.8461617,11.33176032,29.18932282
12.6600,-23.30679045,12.02907688,22.33649476
12.6650,-14.83211161,27.49943715,20.31557466
12.6700,-6.788911386,29.08707056,13.62578174
12.6750,-7.507128587,25.98253041,10.1944424
12.6800,-4.61237646,26.94460799,14.5223243
12.6850,-4.222679099,36.73323728,14.07619144
12.6900,-5.131035828,33.53305138,16.8747738
12.6950,-16.85907526,25.19947871,10.08697284
12.7000,-38.76224377,13.01675099,3.7989393
12.7050,-46.52133211,7.145815295,4.672622079
12.7100,-35.2873565,15.33698219,24.69245509
12.7150,-24.13991686,8.155006291,28.55340111
12.7200,-36.22138308,-9.539141678,20.48286772
12.7250,-23.06098275,-0.7139045595,22.72443249
12.7300,-19.49938905,13.48788002,20.83147247
12.7350,5.026746743,7.071326396,21.85988657
12.7400,7.667019674,23.06555727,16.07960924
12.7450,6.965951816,15.35677941,7.829216873
12.7500,-4.442361013,19.61526054,3.658924237
12.7550,7.820579723,14.17298162,2.406674899
12.7600,-18.60237498,4.123986958,3.694413612
12.7650,-25.05857563,9.923714578,8.488297613
12.7700,-22.83648104,5.797966827,9.293484136
12.7750,-26.50384533,-12.13399305,12.30479488
12.7800,-34.27524404,-16.84853333,19.27022859
12.7850,-38.84290644,-4.970447753,22.04125739
12.7900,-41.08417768,0.2475912249,21.62173999
12.7950,-33.4488535,8.050469761,17.87628332
12.8000,-25.97909198,12.4866596,9.086719703
12.8050,-0.432785517,15.5572767,10.05612847
12.8100,19.23568915,10.14882911,2.296915281
12.8150,20.55206561,-0.01480041437,-4.686324102
12.8200,31.84266272,6.550568193,-0.6541739101
12.8250,24.69690683,21.867157,-4.497971682
12.8300,26.91998127,-2.764311391,-4.505005476
12.8350,9.109043795,-2.45387701,-9.555127498
12.8400,-2.247051509,-6.871704391,-10.20262654
12.8450,-18.50988348,4.364021766,-7.983114415
12.8500,-20.45762555,-8.367152886,-9.394910858
12.8550,-22.29149893,2.27642961,-4.219844251
12.8600,-38.24788433,-4.365741143,-4.948077602
12.8650,-42.83680203,0.3201264949,8.20620129
12.8700,-49.41535255,6.346195072,11.74633363
12.8750,-33.22790803,-0.4751210688,12.74500436
12.8800,-29.83247274,12.60545463,9.687787884
12.8850,-20.70154776,5.672258527,5.307603824
12.8900,-12.80663852,5.320367452,-3.955514132
12.8950,8.448594169,18.7436905,1.405449286
12.9000,9.45730329,2.651509827,3.142232648
12.9050,6.991724265,0.5752870533,-1.782267865
12.9100,18.27498458,6.104879448,-2.637779264
12.9150,18.70471617,1.782185875,-3.183158247
12.9200,2.429140993,-15.35870378,-2.804653123
12.9250,-6.12341169,-6.626816995,-6.437093959
12.9300,-13.79503499,-9.851650484,-3.661692624
12.9350,-22.56380517,-11.03072592,-1.754962716
12.9400,-39.93149041,-1.060526457,1.668178145
12.9450,-30.2446367,-21.77292408,14.87551196
12.9500,-35.30611716,-17.75360228,12.51056617
12.9550,-41.94669588,-11.91753696,25.59374252
12.9600,-28.42810946,-6.369628053,24.21961247
12.9650,-23.97913312,-7.223405583,17.40817669
12.9700,-5.201003446,-9.333424282,20.79059851
12.9750,4.679471204,-9.075393931,16.94340754
12.9800,10.27639517,-10.28072127,5.794871682
12.9850,29.84619726,-23.36136896,11.4952844
12.9900,30.87177679,-26.2628931,6.60284876
12.9950,33.87627949,-15.85844042,3.928904114
13.0000,23.48389413,-14.69848717,3.035671369
13.0050,34.89368819,-16.25991792,11.15327831
13.0100,19.52038976,-22.5984625,1.218266789
13.0150,10.94428114,-25.3814494,-6.705765111
13.0200,-4.508414877,-24.3096312,-4.329386607
13.0250,-20.83110101,-22.17357005,0.5156551187
13.0300,-19.95863359,-11.34489687,6.194760766
13.0350,-23.60675146,-21.35927353,-7.065210774
13.0400,-20.77893958,-19.15220931,-14.3861182
13.0450,-17.03977285,-14.85061801,-15.32409032
13.0500,-25.76404726,-4.473729406,-15.56373262
13.0550,-20.93101754,-8.06588859,-8.584802954
13.0600,-30.76915238,-4.141718873,-10.34579349
13.0650,-14.69753397,-7.821296052,-6.454510394
13.0700,-7.354825839,-11.1336099,-2.887818489
13.0750,-17.59197576,-22.15079441,-10.37472056
13.0800,-18.73540654,-14.62548524,-9.810824235
13.0850,-42.15586879,-20.92880848,-21.47888529
13.0900,-51.0710601,-4.895393601,-14.44246661
13.0950,-59.19217034,1.796830245,-6.335320842
13.1000,-73.11995342,21.32117954,2.463089459
13.1050,-84.62971675,14.03953449,-8.068944582
13.1100,-90.90789355,29.02619524,2.130558433
13.1150,-68.36531795,36.28293058,21.86160251
13.1200,-75.01167792,43.01998805,44.92064433
13.1250,-121.1747497,59.70253929,157.5141948
13.1300,11.89186376,137.7081733,-33.82070202
13.1350,-4.7096213,17.49737382,-57.5110811
13.1400,-43.63036308,-16.46328268,-39.51356336
13.1450,-26.84480585,3.485854129,4.674290966
13.1500,9.640180394,1.895456014,27.68160889
13.1550,24.58856575,-0.8915629257,26.69859381
13.1600,28.46474169,-8.283976492,8.568268294
13.1650,40.91184983,7.277339908,-0.713778229
13.1700,43.97785128,-6.295211933,0.5326975916
13.1750,25.37424793,6.640764469,4.276491673
13.1800,23.94616156,8.194786813,9.098414426
13.1850,24.78280355,19.28872299,8.558532485
13.1900,31.55559315,26.79694894,8.191611717
13.1950,40.05315045,16.95520041,8.580055274
13.2000,49.47385753,23.13273503,16.08163853
13.2050,44.55829389,23.56480413,11.36925247
13.2100,28.16004454,27.55009899,6.511049789
13.2150,14.18690404,36.57009135,4.498315541
13.2200,8.381785422,36.5292301,15.50932206
13.2250,1.529041986,48.090904,13.5149684
13.2300,-1.173375813,32.53709015,16.74084609
13.2350,-4.92453668,25.39525095,21.0883631
13.2400,-17.0556094,25.61942897,19.20052494
13.2450,-15.27645019,12.66112417,18.50211417
13.2500,-29.25541009,9.871945791,11.94865745
13.2550,-35.2010141,11.34640145,5.085389885
13.2600,-30.76408119,21.70487922,18.35119086
13.2650,-40.70092995,20.16619716,26.84608144
13.2700,-49.49697902,35.60561938,26.34300424
13.2750,-71.86780982,32.81751366,14.34224916
13.2800,-50.34026795,50.21264592,13.45839362
13.2850,-57.72223449,23.24300221,9.802725042
13.2900,-69.21500942,35.13313698,6.805400322
13.2950,-50.89138376,29.42216265,14.43801503
13.3000,-66.00797973,18.87934318,9.980726749
13.3050,-50.25213436,18.02544843,18.39789417
13.3100,-53.82941062,12.98561634,10.73373008
13.3150,-34.12786703,21.75386,12.00137805
13.3200,-22.73895298,18.3754828,22.9517885
13.3250,-15.94815101,18.32076887,21.22017244
13.3300,-6.415110758,19.40560704,25.18749246
13.3350,-16.54868157,14.57741367,25.91156537
13.3400,-29.19746669,36.19915516,25.41367417
13.3450,-23.1018253,41.6996052,30.80291634
13.3500,-13.81677154,24.02140857,31.33149986
13.3550,-20.6211926,25.47858568,24.4710434
13.3600,-11.740559,35.75424595,28.61935844
13.3650,-13.76208138,21.5313764,22.41186805
13.3700,-0.5124537332,26.38311843,21.36911053
13.3750,-4.021661142,15.74167331,15.51487401
13.3800,-8.913439945,14.57419199,22.10665829
13.3850,-13.28104359,22.71762598,21.11792823
13.3900,-22.25302102,26.063743,15.73459026
13.3950,-26.956887,18.82706032,20.41136701
13.4000,-17.91923296,28.1846179,27.08546375
13.4050,-6.800190473,33.43945224,30.60545997
13.4100,-9.737965951,18.16853209,26.05676622
13.4150,-3.526535496,19.19367251,24.37236323
13.4200,-13.70344767,27.54501908,22.25910383
13.4250,-7.189400883,20.89783383,24.26771579
13.4300,-16.58245872,9.745744325,23.84524613
13.4350,-31.59874045,12.55024826,14.39855972
13.4400,-39.64131029,12.64053897,6.100731297
13.4450,-34.98136309,11.74382404,3.026433416
13.4500,-27.23527628,4.742537904,7.873118747
13.4550,-25.0045742,14.49410653,-0.4244197138
13.4600,-16.97614241,0.2401859249,6.140571951
13.4650,-10.24733248,8.669797332,10.87442744
13.4700,-14.26031132,2.573867668,14.01160099
