type,name,time_units,begin_time,frequency,count,units
signal,"Noraxon MyoMotion-Joints-Elbow RT-Flexion","s",0.0000,200,5108,"deg"

time,value
0.0000,1.057091728
0.0050,1.053770532
0.0100,1.050450409
0.0150,1.047131359
0.0200,1.043896288
0.0250,1.040826056
0.0300,1.037999937
0.0350,1.035490329
0.0400,1.033358942
0.0450,1.031655164
0.0500,1.030416018
0.0550,1.029667752
0.0600,1.029428483
0.0650,1.029710254
0.0700,1.030519863
0.0750,1.031859116
0.0800,1.033725121
0.0850,1.036111223
0.0900,1.039008869
0.0950,1.042410245
0.1000,1.046310888
0.1050,1.050710978
0.1100,1.055614664
0.1150,1.061028033
0.1200,1.066956583
0.1250,1.073402676
0.1300,1.080363214
0.1350,1.087827125
0.1400,1.095772291
0.1450,1.104162947
0.1500,1.112948167
0.1550,1.123113741
0.1600,1.133406529
0.1650,1.144095981
0.1700,1.15471061
0.1750,1.165368104
0.1800,1.175832781
0.1850,1.186149331
0.1900,1.195951649
0.1950,1.20516731
0.2000,1.2135374
0.2050,1.220982924
0.2100,1.227289008
0.2150,1.232516127
0.2200,1.236552511
0.2250,1.23941928
0.2300,1.241105659
0.2350,1.241458498
0.2400,1.240388791
0.2450,1.238132209
0.2500,1.234800998
0.2550,1.230645321
0.2600,1.225626435
0.2650,1.220072732
0.2700,1.214007488
0.2750,1.207579232
0.2800,1.2007846
0.2850,1.194098385
0.2900,1.187470839
0.2950,1.181031433
0.3000,1.1750517
0.3050,1.169614059
0.3100,1.164513729
0.3150,1.160113908
0.3200,1.156491015
0.3250,1.153739235
0.3300,1.151706568
0.3350,1.150411049
0.3400,1.149849501
0.3450,1.149884667
0.3500,1.150481528
0.3550,1.151778596
0.3600,1.153579095
0.3650,1.155661322
0.3700,1.158053196
0.3750,1.160798046
0.3800,1.16362743
0.3850,1.166866055
0.3900,1.170482205
0.3950,1.174351515
0.4000,1.178298754
0.4050,1.182384392
0.4100,1.186353298
0.4150,1.190373339
0.4200,1.194530327
0.4250,1.198561075
0.4300,1.202672769
0.4350,1.206716786
0.4400,1.2105956
0.4450,1.214352566
0.4500,1.217890739
0.4550,1.221224882
0.4600,1.224490441
0.4650,1.227487446
0.4700,1.230195498
0.4750,1.232542197
0.4800,1.234783359
0.4850,1.236576123
0.4900,1.23809613
0.4950,1.239429865
0.5000,1.240404369
0.5050,1.241172161
0.5100,1.241800905
0.5150,1.242269169
0.5200,1.242599098
0.5250,1.243008383
0.5300,1.243383596
0.5350,1.24396452
0.5400,1.244727576
0.5450,1.245571719
0.5500,1.246487489
0.5550,1.247535639
0.5600,1.24868765
0.5650,1.24968766
0.5700,1.250838952
0.5750,1.252099423
0.5800,1.253413533
0.5850,1.254773923
0.5900,1.256264893
0.5950,1.257682533
0.6000,1.259111734
0.6050,1.260564485
0.6100,1.262229184
0.6150,1.263883215
0.6200,1.26556039
0.6250,1.267296478
0.6300,1.269240844
0.6350,1.271418462
0.6400,1.273531317
0.6450,1.275752296
0.6500,1.278142422
0.6550,1.280723545
0.6600,1.283175583
0.6650,1.285887822
0.6700,1.288469652
0.6750,1.291123448
0.6800,1.293766727
0.6850,1.296219666
0.6900,1.29835339
0.6950,1.29997486
0.7000,1.301381477
0.7050,1.302297545
0.7100,1.30285103
0.7150,1.302917371
0.7200,1.302554509
0.7250,1.301744006
0.7300,1.300639841
0.7350,1.299251618
0.7400,1.297809016
0.7450,1.296237639
0.7500,1.294763569
0.7550,1.293338584
0.7600,1.292205962
0.7650,1.291106037
0.7700,1.290417769
0.7750,1.290087191
0.7800,1.290079127
0.7850,1.290465473
0.7900,1.291344131
0.7950,1.292527724
0.8000,1.294375211
0.8050,1.296757607
0.8100,1.299794712
0.8150,1.303529121
0.8200,1.307767842
0.8250,1.312537295
0.8300,1.317710109
0.8350,1.323377247
0.8400,1.329316825
0.8450,1.33554072
0.8500,1.342035375
0.8550,1.348676633
0.8600,1.355397995
0.8650,1.362152418
0.8700,1.368690695
0.8750,1.375068217
0.8800,1.381256136
0.8850,1.387033744
0.8900,1.392455093
0.8950,1.397613076
0.9000,1.402276098
0.9050,1.40678423
0.9100,1.410949935
0.9150,1.415076219
0.9200,1.418888716
0.9250,1.422570582
0.9300,1.426266823
0.9350,1.429925073
0.9400,1.434107869
0.9450,1.438487486
0.9500,1.44339585
0.9550,1.448640941
0.9600,1.454721185
0.9650,1.461338539
0.9700,1.468747941
0.9750,1.476767301
0.9800,1.485702245
0.9850,1.495358754
0.9900,1.505830341
0.9950,1.517511933
1.0000,1.530134022
1.0050,1.54384931
1.0100,1.558635589
1.0150,1.574362714
1.0200,1.591097776
1.0250,1.60898105
1.0300,1.627977748
1.0350,1.648387717
1.0400,1.669824115
1.0450,1.692539661
1.0500,1.716546229
1.0550,1.741856985
1.0600,1.76830287
1.0650,1.796061754
1.0700,1.825113686
1.0750,1.855280392
1.0800,1.886577505
1.0850,1.919146409
1.0900,1.952571509
1.0950,1.987058382
1.1000,2.022436007
1.1050,2.058667334
1.1100,2.095483916
1.1150,2.13307391
1.1200,2.1714684
1.1250,2.210515775
1.1300,2.25036969
1.1350,2.290904184
1.1400,2.332381263
1.1450,2.374523286
1.1500,2.417459625
1.1550,2.461155218
1.1600,2.505824695
1.1650,2.551441397
1.1700,2.598199585
1.1750,2.646156957
1.1800,2.695548668
1.1850,2.746465649
1.1900,2.79908469
1.1950,2.85335479
1.2000,2.909515928
1.2050,2.967672803
1.2100,3.028212184
1.2150,3.090920915
1.2200,3.156413491
1.2250,3.224663548
1.2300,3.295660581
1.2350,3.369631994
1.2400,3.446487058
1.2450,3.526505246
1.2500,3.609435936
1.2550,3.695443306
1.2600,3.784616737
1.2650,3.876798547
1.2700,3.971889741
1.2750,4.069961769
1.2800,4.170739809
1.2850,4.274254644
1.2900,4.380389811
1.2950,4.488926848
1.3000,4.599840778
1.3050,4.713076176
1.3100,4.828390917
1.3150,4.945940233
1.3200,5.065708116
1.3250,5.187654695
1.3300,5.311370934
1.3350,5.436831043
1.3400,5.56414489
1.3450,5.693191181
1.3500,5.823888893
1.3550,5.956175758
1.3600,6.089831408
1.3650,6.225112018
1.3700,6.36166799
1.3750,6.49969831
1.3800,6.639068984
1.3850,6.779912454
1.3900,6.922331844
1.3950,7.066178305
1.4000,7.211363317
1.4050,7.357908283
1.4100,7.50600487
1.4150,7.655611616
1.4200,7.806795685
1.4250,7.959673665
1.4300,8.114395335
1.4350,8.270913611
1.4400,8.429503858
1.4450,8.590170839
1.4500,8.753183886
1.4550,8.91856916
1.4600,9.086596859
1.4650,9.257311161
1.4700,9.43061463
1.4750,9.60678138
1.4800,9.78569358
1.4850,9.967403822
1.4900,10.15191184
1.4950,10.33943447
1.5000,10.52988202
1.5050,10.72317612
1.5100,10.91911438
1.5150,11.11782954
1.5200,11.31910988
1.5250,11.52291413
1.5300,11.72915443
1.5350,11.93772674
1.5400,12.14867291
1.5450,12.36179396
1.5500,12.57725488
1.5550,12.79493297
1.5600,13.01464976
1.5650,13.23641336
1.5700,13.46036971
1.5750,13.68634578
1.5800,13.91415536
1.5850,14.14399877
1.5900,14.37572949
1.5950,14.60921458
1.6000,14.8442282
1.6050,15.08082221
1.6100,15.31904082
1.6150,15.55880298
1.6200,15.79988672
1.6250,16.04224839
1.6300,16.28616933
1.6350,16.53139653
1.6400,16.77787734
1.6450,17.02574676
1.6500,17.27497491
1.6550,17.5255272
1.6600,17.77749579
1.6650,18.030522
1.6700,18.2848508
1.6750,18.54045714
1.6800,18.79723634
1.6850,19.05487447
1.6900,19.31347393
1.6950,19.57305165
1.7000,19.8336316
1.7050,20.0952064
1.7100,20.35775847
1.7150,20.62125038
1.7200,20.88544469
1.7250,21.15033076
1.7300,21.41582374
1.7350,21.68188429
1.7400,21.94840121
1.7450,22.21550163
1.7500,22.4830274
1.7550,22.75094612
1.7600,23.01923454
1.7650,23.2880321
1.7700,23.5574573
1.7750,23.82741566
1.7800,24.09810137
1.7850,24.36959317
1.7900,24.64170107
1.7950,24.91462659
1.8000,25.18843331
1.8050,25.46271442
1.8100,25.73774898
1.8150,26.01342668
1.8200,26.28977728
1.8250,26.56687879
1.8300,26.8446514
1.8350,27.1230269
1.8400,27.40191924
1.8450,27.68165995
1.8500,27.9617361
1.8550,28.24209326
1.8600,28.52255357
1.8650,28.80350095
1.8700,29.08480721
1.8750,29.36633737
1.8800,29.64836482
1.8850,29.93060794
1.8900,30.21266444
1.8950,30.49511415
1.9000,30.77782959
1.9050,31.06099291
1.9100,31.34436963
1.9150,31.62831418
1.9200,31.91287663
1.9250,32.19850495
1.9300,32.48497924
1.9350,32.77283836
1.9400,33.06185684
1.9450,33.35242424
1.9500,33.64457594
1.9550,33.9386246
1.9600,34.23448555
1.9650,34.53239875
1.9700,34.83288147
1.9750,35.13605775
1.9800,35.44246544
1.9850,35.75219934
1.9900,36.06559822
1.9950,36.38277282
2.0000,36.7037009
2.0050,37.02836577
2.0100,37.35661721
2.0150,37.68836718
2.0200,38.02374486
2.0250,38.36311282
2.0300,38.70626209
2.0350,39.05378102
2.0400,39.40574745
2.0450,39.76195682
2.0500,40.12260796
2.0550,40.48754122
2.0600,40.85715724
2.0650,41.23159102
2.0700,41.61082272
2.0750,41.9947677
2.0800,42.38301121
2.0850,42.77577455
2.0900,43.17301817
2.0950,43.57470988
2.1000,43.98058411
2.1050,44.39098276
2.1100,44.8059046
2.1150,45.22580251
2.1200,45.65034577
2.1250,46.07979866
2.1300,46.51415365
2.1350,46.95355853
2.1400,47.39801027
2.1450,47.84758226
2.1500,48.30227263
2.1550,48.76177471
2.1600,49.22666854
2.1650,49.69632473
2.1700,50.1705103
2.1750,50.64947205
2.1800,51.13297034
2.1850,51.62093189
2.1900,52.11375535
2.1950,52.61032992
2.2000,53.11065951
2.2050,53.6142468
2.2100,54.12087773
2.2150,54.62930441
2.2200,55.13986005
2.2250,55.65156619
2.2300,56.16461833
2.2350,56.67873349
2.2400,57.19378371
2.2450,57.71016409
2.2500,58.22821758
2.2550,58.74773517
2.2600,59.26920335
2.2650,59.79278931
2.2700,60.31768379
2.2750,60.84393652
2.2800,61.37065074
2.2850,61.89740002
2.2900,62.42396817
2.2950,62.95035036
2.3000,63.47655549
2.3050,64.00258496
2.3100,64.52869926
2.3150,65.0547894
2.3200,65.58059112
2.3250,66.1057361
2.3300,66.63034427
2.3350,67.15382935
2.3400,67.67605394
2.3450,68.1975175
2.3500,68.71778829
2.3550,69.23733238
2.3600,69.756495
2.3650,70.27552199
2.3700,70.79528735
2.3750,71.31656716
2.3800,71.83979686
2.3850,72.36486474
2.3900,72.89263618
2.3950,73.42238122
2.4000,73.95473653
2.4050,74.48940856
2.4100,75.02638649
2.4150,75.56526957
2.4200,76.10550474
2.4250,76.64688056
2.4300,77.1896993
2.4350,77.7340118
2.4400,78.27987134
2.4450,78.82656467
2.4500,79.37362657
2.4550,79.92131144
2.4600,80.46856064
2.4650,81.01621316
2.4700,81.56374364
2.4750,82.11114938
2.4800,82.65785857
2.4850,83.20306334
2.4900,83.74652621
2.4950,84.28842904
2.5000,84.82889603
2.5050,85.3668033
2.5100,85.90210963
2.5150,86.43483042
2.5200,86.96453068
2.5250,87.4908659
2.5300,88.01354668
2.5350,88.53237312
2.5400,89.04757427
2.5450,89.55823791
2.5500,90.06306064
2.5550,90.56268462
2.5600,91.05622722
2.5650,91.54428752
2.5700,92.02740361
2.5750,92.50613753
2.5800,92.98078222
2.5850,93.45234352
2.5900,93.92076407
2.5950,94.38608023
2.6000,94.84844296
2.6050,95.30797037
2.6100,95.76466586
2.6150,96.21887981
2.6200,96.67068804
2.6250,97.12051495
2.6300,97.56809464
2.6350,98.01428864
2.6400,98.45856172
2.6450,98.90086752
2.6500,99.34136319
2.6550,99.78094583
2.6600,100.2195927
2.6650,100.6573408
2.6700,101.094435
2.6750,101.530943
2.6800,101.9671
2.6850,102.4036996
2.6900,102.8408603
2.6950,103.2794476
2.7000,103.7201768
2.7050,104.1629305
2.7100,104.6073551
2.7150,105.0540288
2.7200,105.5037277
2.7250,105.9557946
2.7300,106.4102571
2.7350,106.8668306
2.7400,107.3252389
2.7450,107.7854595
2.7500,108.2470892
2.7550,108.7101797
2.7600,109.1745319
2.7650,109.6390009
2.7700,110.1037938
2.7750,110.5684861
2.7800,111.0334401
2.7850,111.4986952
2.7900,111.964378
2.7950,112.4307129
2.8000,112.8970227
2.8050,113.3642046
2.8100,113.832151
2.8150,114.3010234
2.8200,114.7706149
2.8250,115.2419455
2.8300,115.7146488
2.8350,116.1884048
2.8400,116.6628979
2.8450,117.1381776
2.8500,117.6149967
2.8550,118.0931434
2.8600,118.5724115
2.8650,119.0521606
2.8700,119.5321341
2.8750,120.0114492
2.8800,120.490129
2.8850,120.9680121
2.8900,121.4442473
2.8950,121.9178411
2.9000,122.3881218
2.9050,122.8539793
2.9100,123.3151729
2.9150,123.770729
2.9200,124.2205214
2.9250,124.6633266
2.9300,125.0989694
2.9350,125.5268685
2.9400,125.9464505
2.9450,126.3573682
2.9500,126.7598122
2.9550,127.1534061
2.9600,127.5376943
2.9650,127.913005
2.9700,128.2790842
2.9750,128.6352516
2.9800,128.9820516
2.9850,129.3201071
2.9900,129.6498716
2.9950,129.9712571
3.0000,130.2843476
3.0050,130.5901606
3.0100,130.8888082
3.0150,131.1800609
3.0200,131.464246
3.0250,131.7415015
3.0300,132.0124324
3.0350,132.2766139
3.0400,132.5343808
3.0450,132.7854448
3.0500,133.0299215
3.0550,133.2678036
3.0600,133.4991529
3.0650,133.7240281
3.0700,133.9422744
3.0750,134.1540306
3.0800,134.3595484
3.0850,134.5593164
3.0900,134.753565
3.0950,134.9416227
3.1000,135.124402
3.1050,135.3018015
3.1100,135.4744856
3.1150,135.6427428
3.1200,135.8069311
3.1250,135.9669644
3.1300,136.1236518
3.1350,136.2773714
3.1400,136.4284931
3.1450,136.5771215
3.1500,136.7230083
3.1550,136.865782
3.1600,137.0062236
3.1650,137.1441588
3.1700,137.2787423
3.1750,137.4107566
3.1800,137.5389714
3.1850,137.6627738
3.1900,137.7818792
3.1950,137.8961323
3.2000,138.0059019
3.2050,138.110678
3.2100,138.2098776
3.2150,138.3036881
3.2200,138.3913945
3.2250,138.4727359
3.2300,138.5479292
3.2350,138.6170824
3.2400,138.6805442
3.2450,138.7390392
3.2500,138.7922685
3.2550,138.8409388
3.2600,138.8856377
3.2650,138.9265205
3.2700,138.964386
3.2750,139.0003039
3.2800,139.0346652
3.2850,139.0679242
3.2900,139.1004064
3.2950,139.1327905
3.3000,139.1655656
3.3050,139.1987542
3.3100,139.2332255
3.3150,139.2692126
3.3200,139.3065762
3.3250,139.3461145
3.3300,139.3877511
3.3350,139.4321714
3.3400,139.4795134
3.3450,139.530198
3.3500,139.5844027
3.3550,139.6420759
3.3600,139.7035475
3.3650,139.7689464
3.3700,139.8381459
3.3750,139.9116916
3.3800,139.9895523
3.3850,140.0709947
3.3900,140.1561888
3.3950,140.2455425
3.4000,140.338958
3.4050,140.4359345
3.4100,140.5367293
3.4150,140.6406539
3.4200,140.7481561
3.4250,140.8590287
3.4300,140.973201
3.4350,141.0906996
3.4400,141.2117904
3.4450,141.3360682
3.4500,141.4630373
3.4550,141.5925481
3.4600,141.7237104
3.4650,141.856447
3.4700,141.9907808
3.4750,142.1253417
3.4800,142.2601439
3.4850,142.3943286
3.4900,142.5273902
3.4950,142.6588165
3.5000,142.7879294
3.5050,142.913951
3.5100,143.0369254
3.5150,143.1559391
3.5200,143.2708298
3.5250,143.3817448
3.5300,143.4882877
3.5350,143.5899566
3.5400,143.6870955
3.5450,143.7793049
3.5500,143.8668065
3.5550,143.9496088
3.5600,144.0280876
3.5650,144.103036
3.5700,144.174237
3.5750,144.2424049
3.5800,144.3077461
3.5850,144.370754
3.5900,144.4312704
3.5950,144.490076
3.6000,144.5477911
3.6050,144.6047206
3.6100,144.6610589
3.6150,144.7170605
3.6200,144.7735082
3.6250,144.8301479
3.6300,144.8875676
3.6350,144.9453935
3.6400,145.0034285
3.6450,145.0618255
3.6500,145.1207971
3.6550,145.1801802
3.6600,145.2401697
3.6650,145.300471
3.6700,145.36174
3.6750,145.4233598
3.6800,145.4854048
3.6850,145.5481728
3.6900,145.6116429
3.6950,145.6756533
3.7000,145.7396058
3.7050,145.803899
3.7100,145.8678024
3.7150,145.9317266
3.7200,145.9950804
3.7250,146.0578435
3.7300,146.1192426
3.7350,146.1791812
3.7400,146.2370499
3.7450,146.2930902
3.7500,146.347396
3.7550,146.3994647
3.7600,146.4494174
3.7650,146.4964835
3.7700,146.5408371
3.7750,146.5821552
3.7800,146.6206072
3.7850,146.6562579
3.7900,146.6889989
3.7950,146.7187689
3.8000,146.7451049
3.8050,146.7682048
3.8100,146.7876508
3.8150,146.8038324
3.8200,146.8162322
3.8250,146.8250737
3.8300,146.8299117
3.8350,146.8312723
3.8400,146.8291587
3.8450,146.8232582
3.8500,146.8140657
3.8550,146.8015722
3.8600,146.7856289
3.8650,146.7658454
3.8700,146.7430931
3.8750,146.7170176
3.8800,146.687813
3.8850,146.6555504
3.8900,146.6204317
3.8950,146.5824313
3.9000,146.541382
3.9050,146.4972282
3.9100,146.4501933
3.9150,146.4005252
3.9200,146.3480954
3.9250,146.2930738
3.9300,146.2357098
3.9350,146.1760392
3.9400,146.1144046
3.9450,146.05071
3.9500,145.9849364
3.9550,145.9173797
3.9600,145.8474056
3.9650,145.7759888
3.9700,145.7025574
3.9750,145.6276212
3.9800,145.550463
3.9850,145.4715426
3.9900,145.3908769
3.9950,145.3087166
4.0000,145.2254361
4.0050,145.1410637
4.0100,145.0557604
4.0150,144.9690348
4.0200,144.881267
4.0250,144.7921088
4.0300,144.7021131
4.0350,144.6108798
4.0400,144.5182145
4.0450,144.4242841
4.0500,144.3289419
4.0550,144.2326693
4.0600,144.1353086
4.0650,144.0373738
4.0700,143.9380549
4.0750,143.838231
4.0800,143.7373732
4.0850,143.6360785
4.0900,143.5341566
4.0950,143.4319798
4.1000,143.3291083
4.1050,143.2261611
4.1100,143.1227391
4.1150,143.0187891
4.1200,142.9148901
4.1250,142.8104632
4.1300,142.7059325
4.1350,142.601154
4.1400,142.4954482
4.1450,142.3894418
4.1500,142.2826977
4.1550,142.1745746
4.1600,142.0651605
4.1650,141.9542932
4.1700,141.8417742
4.1750,141.7272007
4.1800,141.6108555
4.1850,141.4920876
4.1900,141.3712392
4.1950,141.2483993
4.2000,141.1236347
4.2050,140.9969069
4.2100,140.8678958
4.2150,140.7361105
4.2200,140.6017133
4.2250,140.4639764
4.2300,140.3230246
4.2350,140.1790166
4.2400,140.031414
4.2450,139.8804259
4.2500,139.7260598
4.2550,139.5679415
4.2600,139.4068768
4.2650,139.2419723
4.2700,139.0738404
4.2750,138.9025688
4.2800,138.7282794
4.2850,138.5507778
4.2900,138.3702459
4.2950,138.1861796
4.3000,137.9988035
4.3050,137.8079822
4.3100,137.6140348
4.3150,137.4170226
4.3200,137.2162762
4.3250,137.0120089
4.3300,136.8039793
4.3350,136.5924343
4.3400,136.3773624
4.3450,136.1584824
4.3500,135.9361514
4.3550,135.7100218
4.3600,135.4801916
4.3650,135.2460778
4.3700,135.0079811
4.3750,134.7653748
4.3800,134.5178974
4.3850,134.2653676
4.3900,134.0078788
4.3950,133.7447206
4.4000,133.4765774
4.4050,133.2028754
4.4100,132.9240352
4.4150,132.6400252
4.4200,132.3505264
4.4250,132.055717
4.4300,131.7562672
4.4350,131.451206
4.4400,131.1408811
4.4450,130.8247369
4.4500,130.5026914
4.4550,130.1752926
4.4600,129.842303
4.4650,129.5040388
4.4700,129.1601166
4.4750,128.8108882
4.4800,128.4555989
4.4850,128.0947502
4.4900,127.7282752
4.4950,127.3561512
4.5000,126.978073
4.5050,126.5947194
4.5100,126.2057329
4.5150,125.8113483
4.5200,125.4116789
4.5250,125.0068598
4.5300,124.5962916
4.5350,124.1799533
4.5400,123.7577398
4.5450,123.3293099
4.5500,122.89472
4.5550,122.4546846
4.5600,122.0096845
4.5650,121.5601786
4.5700,121.1058336
4.5750,120.6464033
4.5800,120.182204
4.5850,119.7128436
4.5900,119.2383751
4.5950,118.7588717
4.6000,118.2738415
4.6050,117.7834336
4.6100,117.2873229
4.6150,116.7864983
4.6200,116.2808101
4.6250,115.7709098
4.6300,115.2570459
4.6350,114.7387933
4.6400,114.2175296
4.6450,113.6933432
4.6500,113.166417
4.6550,112.6363863
4.6600,112.104327
4.6650,111.5700594
4.6700,111.0347507
4.6750,110.4987008
4.6800,109.9631911
4.6850,109.4282641
4.6900,108.8943379
4.6950,108.3630592
4.7000,107.8345852
4.7050,107.3096264
4.7100,106.789268
4.7150,106.2732657
4.7200,105.7614873
4.7250,105.2543
4.7300,104.7501133
4.7350,104.2497878
4.7400,103.7528742
4.7450,103.2589144
4.7500,102.7686247
4.7550,102.2809755
4.7600,101.7954537
4.7650,101.3118298
4.7700,100.8291603
4.7750,100.3474458
4.7800,99.86633492
4.7850,99.38553047
4.7900,98.90358244
4.7950,98.4197436
4.8000,97.93299692
4.8050,97.44301199
4.8100,96.94904659
4.8150,96.45063871
4.8200,95.9476506
4.8250,95.43992925
4.8300,94.92775941
4.8350,94.41145188
4.8400,93.8910601
4.8450,93.36763683
4.8500,92.84118389
4.8550,92.31112136
4.8600,91.77664441
4.8650,91.23813467
4.8700,90.69471748
4.8750,90.14697108
4.8800,89.59523644
4.8850,89.04029677
4.8900,88.48293957
4.8950,87.92294712
4.9000,87.36082184
4.9050,86.79677078
4.9100,86.23083741
4.9150,85.6620062
4.9200,85.09143445
4.9250,84.51920496
4.9300,83.9457555
4.9350,83.37127484
4.9400,82.79473116
4.9450,82.21686598
4.9500,81.63729033
4.9550,81.05762365
4.9600,80.47765552
4.9650,79.89897988
4.9700,79.32183584
4.9750,78.74742664
4.9800,78.17510665
4.9850,77.60528592
4.9900,77.03881085
4.9950,76.47562634
5.0000,75.91557557
5.0050,75.35952605
5.0100,74.80643075
5.0150,74.25707594
5.0200,73.71188741
5.0250,73.17069447
5.0300,72.63398362
5.0350,72.10145707
5.0400,71.57332261
5.0450,71.04946748
5.0500,70.52907134
5.0550,70.0124192
5.0600,69.49970642
5.0650,68.9910157
5.0700,68.48713095
5.0750,67.98750088
5.0800,67.49150179
5.0850,66.99879365
5.0900,66.50972486
5.0950,66.02434959
5.1000,65.54311549
5.1050,65.06526985
5.1100,64.59121404
5.1150,64.12083053
5.1200,63.65420667
5.1250,63.19114727
5.1300,62.73122117
5.1350,62.27396954
5.1400,61.81956903
5.1450,61.36773838
5.1500,60.91769286
5.1550,60.46992554
5.1600,60.02379503
5.1650,59.57929721
5.1700,59.13684912
5.1750,58.69618905
5.1800,58.25707081
5.1850,57.81941617
5.1900,57.38286877
5.1950,56.94818632
5.2000,56.5152565
5.2050,56.0843615
5.2100,55.65577253
5.2150,55.22951683
5.2200,54.80537717
5.2250,54.38349178
5.2300,53.96343484
5.2350,53.54548884
5.2400,53.13013808
5.2450,52.71768445
5.2500,52.30776709
