type,name,time_units,begin_time,frequency,count,units
signal,"Noraxon Ultium-RT BRACHIORAD.","s",0.00000,2000,51080,"uV"

time,value
0.00000,-29.59089327
0.00050,-24.40258834
0.00100,-18.29870018
0.00150,-14.63636729
0.00200,-14.63636729
0.00250,-17.07792255
0.00300,-19.51947781
0.00350,-20.12986663
0.00400,-18.60389459
0.00450,-15.85714492
0.00500,-13.11039525
0.00550,-12.19481203
0.00600,-12.19481203
0.00650,-10.9740344
0.00700,-7.616895912
0.00750,-3.038979797
0.00800,1.233741911
0.00850,7.642824473
0.00900,14.66229585
0.00950,17.10385111
0.01000,12.525935
0.01050,6.422046842
0.01100,7.032435657
0.01150,14.35710144
0.01200,20.15579519
0.01250,18.32462874
0.01300,11.61035177
0.01350,5.811658027
0.01400,2.149325134
0.01450,-0.2922301275
0.01500,-2.733785389
0.01550,-3.344174205
0.01600,-2.428590981
0.01650,-1.818202166
0.01700,-3.038979797
0.01750,-4.870146243
0.01800,-7.006507097
0.01850,-9.142867951
0.01900,-11.2792288
0.01950,-14.02597847
0.02000,-16.46753374
0.02050,-18.909089
0.02100,-20.43506104
0.02150,-18.60389459
0.02200,-12.50000644
0.02250,-4.564951835
0.02300,-0.5974245352
0.02350,-3.038979797
0.02400,-7.006507097
0.02450,-8.532479135
0.02500,-9.142867951
0.02550,-13.11039525
0.02600,-20.12986663
0.02650,-24.09739393
0.02700,-23.48700511
0.02750,-22.57142189
0.02800,-23.18181071
0.02850,-21.04544985
0.02900,-13.72078407
0.02950,-7.006507097
0.03000,-6.701312689
0.03050,-10.36364558
0.03100,-8.532479135
0.03150,0.01296428019
0.03200,8.558407696
0.03250,13.74671263
0.03300,17.10385111
0.03350,20.15579519
0.03400,18.93501756
0.03450,10.38957414
0.03500,-0.9026189429
0.03550,-9.753256766
0.03600,-13.72078407
0.03650,-14.02597847
0.03700,-13.41558966
0.03750,-14.63636729
0.03800,-17.07792255
0.03850,-18.29870018
0.03900,-15.55195051
0.03950,-11.58442321
0.04000,-10.36364558
0.04050,-10.9740344
0.04100,-7.006507097
0.04150,3.064908357
0.04200,14.35710144
0.04250,21.07137841
0.04300,23.81812808
0.04350,25.03890571
0.04400,22.59735045
0.04450,14.35710144
0.04500,4.285685988
0.04550,-1.818202166
0.04600,-4.564951835
0.04650,-7.92209032
0.04700,-15.2467561
0.04750,-23.18181071
0.04800,-28.06492123
0.04850,-29.28569886
0.04900,-28.67531004
0.04950,-29.28569886
0.05000,-29.89608767
0.05050,-28.98050445
0.05100,-25.62336597
0.05150,-22.26622748
0.05200,-19.21428341
0.05250,-13.11039525
0.05300,-0.2922301275
0.05350,15.57787907
0.05400,26.87007216
0.05450,29.31162742
0.05500,27.78565538
0.05550,26.87007216
0.05600,25.34410012
0.05650,20.4609896
0.05700,15.57787907
0.05750,15.88307348
0.05800,20.4609896
0.05850,23.81812808
0.05900,23.20773927
0.05950,20.4609896
0.06000,19.54540637
0.06050,19.54540637
0.06100,15.88307348
0.06150,7.337630065
0.06200,-2.123396574
0.06250,-7.92209032
0.06300,-9.753256766
0.06350,-11.58442321
0.06400,-15.55195051
0.06450,-18.29870018
0.06500,-14.9415617
0.06550,-7.616895912
0.06600,-3.649368612
0.06650,-5.175340651
0.06700,-6.701312689
0.06750,-2.733785389
0.06800,3.98049158
0.06850,9.168796511
0.06900,11.30515737
0.06950,11.91554618
0.07000,11.91554618
0.07050,10.99996296
0.07100,11.30515737
0.07150,13.74671263
0.07200,15.27268467
0.07250,12.8311294
0.07300,8.863602104
0.07350,6.72724125
0.07400,4.896074803
0.07450,-0.2922301275
0.07500,-8.837673543
0.07550,-14.02597847
0.07600,-13.41558966
0.07650,-11.88961762
0.07700,-14.63636729
0.07750,-20.43506104
0.07800,-24.40258834
0.07850,-24.40258834
0.07900,-21.04544985
0.07950,-14.9415617
0.08000,-7.616895912
0.08050,-2.428590981
0.08100,0.3181586879
0.08150,3.98049158
0.08200,10.08437973
0.08250,15.88307348
0.08300,18.93501756
0.08350,20.766184
0.08400,24.4285169
0.08450,28.3960442
0.08500,29.00643301
0.08550,26.25968334
0.08600,23.20773927
0.08650,19.85060078
0.08700,13.13632381
0.08750,3.98049158
0.08800,-1.513007758
0.08850,-1.513007758
0.08900,0.3181586879
0.08950,1.233741911
0.09000,2.149325134
0.09050,5.201269211
0.09100,7.337630065
0.09150,4.896074803
0.09200,0.3181586879
0.09250,0.3181586879
0.09300,5.811658027
0.09350,10.38957414
0.09400,9.779185327
0.09450,7.032435657
0.09500,7.642824473
0.09550,11.30515737
0.09600,14.66229585
0.09650,15.27268467
0.09700,14.35710144
0.09750,13.13632381
0.09800,11.30515737
0.09850,8.253213288
0.09900,3.675297173
0.09950,0.9285475033
0.10000,2.149325134
0.10050,6.72724125
0.10100,10.69476855
0.10150,10.38957414
0.10200,7.337630065
0.10250,4.896074803
0.10300,4.590880396
0.10350,4.896074803
0.10400,4.285685988
0.10450,3.370102765
0.10500,3.064908357
0.10550,3.064908357
0.10600,3.064908357
0.10650,3.064908357
0.10700,3.064908357
0.10750,3.064908357
0.10800,3.675297173
0.10850,3.98049158
0.10900,2.454519542
0.10950,-0.9026189429
0.11000,-3.95456302
0.11050,-4.870146243
0.11100,-5.480535058
0.11150,-7.92209032
0.11200,-10.66883999
0.11250,-9.448062359
0.11300,-5.480535058
0.11350,-3.95456302
0.11400,-7.616895912
0.11450,-14.33117288
0.11500,-19.82467222
0.11550,-21.35064426
0.11600,-18.60389459
0.11650,-13.72078407
0.11700,-8.837673543
0.11750,-7.616895912
0.11800,-8.837673543
0.11850,-9.753256766
0.11900,-9.142867951
0.11950,-9.448062359
0.12000,-11.58442321
0.12050,-12.80520084
0.12100,-10.05845117
0.12150,-3.038979797
0.12200,5.201269211
0.12250,13.44151822
0.12300,19.24021197
0.12350,20.4609896
0.12400,16.18826789
0.12450,9.779185327
0.12500,7.337630065
0.12550,9.473990919
0.12600,11.30515737
0.12650,8.863602104
0.12700,5.201269211
0.12750,3.675297173
0.12800,3.98049158
0.12850,3.370102765
0.12900,3.675297173
0.12950,7.337630065
0.13000,13.44151822
0.13050,16.7986567
0.13100,15.27268467
0.13150,11.91554618
0.13200,8.863602104
0.13250,4.285685988
0.13300,-2.123396574
0.13350,-7.311701505
0.13400,-5.785729466
0.13450,1.538936319
0.13500,8.558407696
0.13550,10.08437973
0.13600,7.642824473
0.13650,4.896074803
0.13700,4.896074803
0.13750,5.201269211
0.13800,4.590880396
0.13850,4.590880396
0.13900,8.253213288
0.13950,14.96749026
0.14000,20.4609896
0.14050,21.68176723
0.14100,20.4609896
0.14150,19.24021197
0.14200,17.40904552
0.14250,14.35710144
0.14300,11.30515737
0.14350,11.30515737
0.14400,13.74671263
0.14450,14.66229585
0.14500,11.30515737
0.14550,4.285685988
0.14600,-1.207813351
0.14650,-2.733785389
0.14700,-0.9026189429
0.14750,-0.2922301275
0.14800,-3.649368612
0.14850,-6.396118282
0.14900,-4.259757428
0.14950,1.233741911
0.15000,3.98049158
0.15050,1.233741911
0.15100,-2.123396574
0.15150,-2.733785389
0.15200,-3.344174205
0.15250,-7.92209032
0.15300,-14.63636729
0.15350,-18.909089
0.15400,-20.12986663
0.15450,-20.43506104
0.15500,-21.35064426
0.15550,-21.96103307
0.15600,-21.35064426
0.15650,-20.43506104
0.15700,-18.909089
0.15750,-17.99350577
0.15800,-16.77272814
0.15850,-12.80520084
0.15900,-3.344174205
0.15950,8.253213288
0.16000,15.27268467
0.16050,15.57787907
0.16100,15.88307348
0.16150,21.07137841
0.16200,26.87007216
0.16250,26.87007216
0.16300,21.37657282
0.16350,16.7986567
0.16400,15.57787907
0.16450,15.57787907
0.16500,14.35710144
0.16550,10.99996296
0.16600,5.506463619
0.16650,-0.5974245352
0.16700,-6.090923874
0.16750,-8.532479135
0.16800,-7.616895912
0.16850,-4.564951835
0.16900,-0.5974245352
0.16950,3.064908357
0.17000,4.285685988
0.17050,2.149325134
0.17100,0.01296428019
0.17150,-0.5974245352
0.17200,0.3181586879
0.17250,1.233741911
0.17300,2.75971395
0.17350,5.201269211
0.17400,6.422046842
0.17450,5.506463619
0.17500,3.064908357
0.17550,0.9285475033
0.17600,-2.123396574
0.17650,-7.311701505
0.17700,-12.19481203
0.17750,-13.41558966
0.17800,-10.66883999
0.17850,-7.006507097
0.17900,-4.564951835
0.17950,-2.733785389
0.18000,0.3181586879
0.18050,3.370102765
0.18100,2.454519542
0.18150,-2.123396574
0.18200,-8.837673543
0.18250,-14.02597847
0.18300,-16.77272814
0.18350,-18.29870018
0.18400,-19.21428341
0.18450,-20.74025544
0.18500,-22.57142189
0.18550,-21.96103307
0.18600,-16.46753374
0.18650,-7.006507097
0.18700,2.454519542
0.18750,11.30515737
0.18800,20.4609896
0.18850,31.75318268
0.18900,42.43498695
0.18950,47.31809747
0.19000,44.5713478
0.19050,36.02590439
0.19100,26.25968334
0.19150,20.15579519
0.19200,19.54540637
0.19250,21.98696163
0.19300,23.81812808
0.19350,24.4285169
0.19400,24.4285169
0.19450,22.59735045
0.19500,17.10385111
0.19550,10.08437973
0.19600,7.337630065
0.19650,10.69476855
0.19700,14.05190703
0.19750,12.525935
0.19800,8.558407696
0.19850,6.72724125
0.19900,6.116852434
0.19950,4.896074803
0.20000,3.064908357
0.20050,3.064908357
0.20100,3.064908357
0.20150,-1.207813351
0.20200,-9.448062359
0.20250,-16.77272814
0.20300,-18.909089
0.20350,-18.29870018
0.20400,-18.29870018
0.20450,-19.51947781
0.20500,-18.909089
0.20550,-12.50000644
0.20600,-1.513007758
0.20650,6.422046842
0.20700,6.422046842
0.20750,3.064908357
0.20800,5.201269211
0.20850,15.88307348
0.20900,26.56487775
0.20950,28.3960442
0.21000,21.37657282
0.21050,11.61035177
0.21100,2.75971395
0.21150,-3.95456302
0.21200,-10.05845117
0.21250,-13.41558966
0.21300,-14.33117288
0.21350,-12.50000644
0.21400,-9.448062359
0.21450,-5.480535058
0.21500,-2.733785389
0.21550,-3.038979797
0.21600,-4.564951835
0.21650,-4.564951835
0.21700,0.3181586879
0.21750,9.779185327
0.21800,20.15579519
0.21850,27.17526657
0.21900,29.00643301
0.21950,28.7012386
0.22000,30.53240505
0.22050,34.49993235
0.22100,36.02590439
0.22150,32.05837709
0.22200,25.03890571
0.22250,21.07137841
0.22300,20.15579519
0.22350,19.24021197
0.22400,14.96749026
0.22450,9.473990919
0.22500,4.896074803
0.22550,0.9285475033
0.22600,-1.818202166
0.22650,-1.207813351
0.22700,2.75971395
0.22750,7.032435657
0.22800,6.72724125
0.22850,2.75971395
0.22900,0.01296428019
0.22950,-0.2922301275
0.23000,0.01296428019
0.23050,-0.9026189429
0.23100,-2.428590981
0.23150,-3.038979797
0.23200,-2.428590981
0.23250,0.01296428019
0.23300,1.844130726
0.23350,0.6233530956
0.23400,-4.870146243
0.23450,-9.753256766
0.23500,-9.448062359
0.23550,-7.006507097
0.23600,-9.448062359
0.23650,-17.99350577
0.23700,-25.31817156
0.23750,-25.01297715
0.23800,-18.29870018
0.23850,-9.448062359
0.23900,-1.513007758
0.23950,2.75971395
0.24000,3.370102765
0.24050,0.3181586879
0.24100,-3.038979797
0.24150,-5.785729466
0.24200,-8.532479135
0.24250,-11.58442321
0.24300,-16.16233933
0.24350,-22.57142189
0.24400,-31.42205971
0.24450,-37.52594787
0.24500,-35.38958701
0.24550,-27.75972682
0.24600,-24.40258834
0.24650,-30.8116709
0.24700,-39.96750313
0.24750,-43.32464161
0.24800,-39.66230872
0.24850,-34.7791982
0.24900,-31.11686531
0.24950,-24.09739393
0.25000,-7.616895912
0.25050,15.88307348
0.25100,36.3310988
0.25150,42.43498695
0.25200,32.97396031
0.25250,17.40904552
0.25300,8.558407696
0.25350,9.779185327
0.25400,15.27268467
0.25450,17.10385111
0.25500,14.35710144
0.25550,11.30515737
0.25600,10.69476855
0.25650,11.30515737
0.25700,10.69476855
0.25750,9.473990919
0.25800,9.168796511
0.25850,10.08437973
0.25900,10.08437973
0.25950,8.253213288
0.26000,6.72724125
0.26050,7.642824473
0.26100,10.99996296
0.26150,14.05190703
0.26200,13.74671263
0.26250,8.863602104
0.26300,1.538936319
0.26350,-3.95456302
0.26400,-4.870146243
0.26450,-4.259757428
0.26500,-9.142867951
0.26550,-19.51947781
0.26600,-28.67531004
0.26650,-29.59089327
0.26700,-24.70778274
0.26750,-21.35064426
0.26800,-21.35064426
0.26850,-20.74025544
0.26900,-17.99350577
0.26950,-15.85714492
0.27000,-16.46753374
0.27050,-17.99350577
0.27100,-16.77272814
0.27150,-12.19481203
0.27200,-5.480535058
0.27250,0.3181586879
0.27300,2.75971395
0.27350,1.233741911
0.27400,-2.733785389
0.27450,-7.311701505
0.27500,-12.19481203
0.27550,-17.38311696
0.27600,-21.04544985
0.27650,-20.12986663
0.27700,-16.46753374
0.27750,-13.11039525
0.27800,-13.11039525
0.27850,-15.2467561
0.27900,-18.909089
0.27950,-21.04544985
0.28000,-18.60389459
0.28050,-11.58442321
0.28100,-4.259757428
0.28150,-1.207813351
0.28200,-1.818202166
0.28250,-2.428590981
0.28300,-3.649368612
0.28350,-7.006507097
0.28400,-10.05845117
0.28450,-10.05845117
0.28500,-7.616895912
0.28550,-7.311701505
0.28600,-9.753256766
0.28650,-11.88961762
0.28700,-10.9740344
0.28750,-9.142867951
0.28800,-9.142867951
0.28850,-9.753256766
0.28900,-9.753256766
0.28950,-8.837673543
0.29000,-7.92209032
0.29050,-8.227284728
0.29100,-10.05845117
0.29150,-12.50000644
0.29200,-12.80520084
0.29250,-10.36364558
0.29300,-8.227284728
0.29350,-8.837673543
0.29400,-10.36364558
0.29450,-10.36364558
0.29500,-9.753256766
0.29550,-10.36364558
0.29600,-11.58442321
0.29650,-10.36364558
0.29700,-7.311701505
0.29750,-7.006507097
0.29800,-10.36364558
0.29850,-14.02597847
0.29900,-14.9415617
0.29950,-13.41558966
0.30000,-12.80520084
0.30050,-14.9415617
0.30100,-21.04544985
0.30150,-28.98050445
0.30200,-34.47400379
0.30250,-34.16880938
0.30300,-29.59089327
0.30350,-24.40258834
0.30400,-21.96103307
0.30450,-22.26622748
0.30500,-23.48700511
0.30550,-22.8766163
0.30600,-18.909089
0.30650,-12.80520084
0.30700,-7.92209032
0.30750,-4.564951835
0.30800,-0.2922301275
0.30850,4.896074803
0.30900,10.08437973
0.30950,11.61035177
0.31000,9.779185327
0.31050,5.811658027
0.31100,0.01296428019
0.31150,-6.396118282
0.31200,-10.66883999
0.31250,-10.66883999
0.31300,-7.006507097
0.31350,-2.123396574
0.31400,1.844130726
0.31450,3.064908357
0.31500,0.6233530956
0.31550,-3.344174205
0.31600,-5.480535058
0.31650,-5.175340651
0.31700,-4.564951835
0.31750,-4.870146243
0.31800,-4.259757428
0.31850,-3.038979797
0.31900,-2.123396574
0.31950,-1.207813351
0.32000,2.454519542
0.32050,8.863602104
0.32100,13.13632381
0.32150,12.525935
0.32200,7.642824473
0.32250,1.538936319
0.32300,-4.564951835
0.32350,-8.532479135
0.32400,-9.448062359
0.32450,-9.753256766
0.32500,-11.88961762
0.32550,-12.80520084
0.32600,-8.532479135
0.32650,-2.733785389
0.32700,-3.649368612
0.32750,-12.19481203
0.32800,-20.12986663
0.32850,-21.04544985
0.32900,-17.99350577
0.32950,-14.33117288
0.33000,-10.05845117
0.33050,-3.038979797
0.33100,3.370102765
0.33150,6.72724125
0.33200,6.422046842
0.33250,3.675297173
0.33300,1.844130726
0.33350,5.506463619
0.33400,18.01943433
0.33450,33.27915472
0.33500,40.2986261
0.33550,35.41551557
0.33600,27.78565538
0.33650,24.12332249
0.33700,21.98696163
0.33750,18.62982315
0.33800,18.62982315
0.33850,25.34410012
0.33900,32.97396031
0.33950,34.19473794
0.34000,31.14279387
0.34050,31.14279387
0.34100,32.6687659
0.34150,26.56487775
0.34200,12.8311294
0.34250,1.844130726
0.34300,1.233741911
0.34350,6.116852434
0.34400,8.863602104
0.34450,8.558407696
0.34500,7.94801888
0.34550,7.032435657
0.34600,4.590880396
0.34650,1.538936319
0.34700,0.6233530956
0.34750,2.149325134
0.34800,3.98049158
0.34850,4.590880396
0.34900,5.506463619
0.34950,7.642824473
0.35000,9.779185327
0.35050,9.473990919
0.35100,6.116852434
0.35150,3.675297173
0.35200,5.506463619
0.35250,9.779185327
0.35300,11.30515737
0.35350,7.94801888
0.35400,3.064908357
0.35450,0.6233530956
0.35500,0.3181586879
0.35550,-0.2922301275
0.35600,-1.818202166
0.35650,-3.038979797
0.35700,-4.259757428
0.35750,-7.006507097
0.35800,-10.05845117
0.35850,-10.05845117
0.35900,-6.396118282
0.35950,-1.207813351
0.36000,2.149325134
0.36050,2.454519542
0.36100,-0.2922301275
0.36150,-3.038979797
0.36200,-2.123396574
0.36250,2.149325134
0.36300,6.116852434
0.36350,6.422046842
0.36400,6.72724125
0.36450,9.473990919
0.36500,13.44151822
0.36550,15.57787907
0.36600,15.57787907
0.36650,14.35710144
0.36700,10.99996296
0.36750,5.506463619
0.36800,3.064908357
0.36850,9.168796511
0.36900,20.4609896
0.36950,27.78565538
0.37000,26.56487775
0.37050,18.93501756
0.37100,9.779185327
0.37150,1.538936319
0.37200,-4.259757428
0.37250,-6.090923874
0.37300,-5.785729466
0.37350,-6.090923874
0.37400,-7.92209032
0.37450,-8.837673543
0.37500,-7.92209032
0.37550,-6.701312689
0.37600,-3.95456302
0.37650,1.233741911
0.37700,7.642824473
0.37750,11.61035177
0.37800,13.13632381
0.37850,16.4934623
0.37900,22.59735045
0.37950,27.17526657
0.38000,28.3960442
0.38050,29.31162742
0.38100,31.75318268
0.38150,32.3635715
0.38200,27.17526657
0.38250,20.15579519
0.38300,16.4934623
0.38350,16.18826789
0.38400,16.18826789
0.38450,14.05190703
0.38500,11.30515737
0.38550,9.779185327
0.38600,10.08437973
0.38650,9.473990919
0.38700,4.896074803
0.38750,-3.038979797
0.38800,-10.36364558
0.38850,-11.88961762
0.38900,-10.36364558
0.38950,-11.2792288
0.39000,-15.55195051
0.39050,-15.55195051
0.39100,-7.006507097
0.39150,3.064908357
0.39200,7.032435657
0.39250,5.506463619
0.39300,6.116852434
0.39350,13.13632381
0.39400,23.20773927
0.39450,30.53240505
0.39500,32.97396031
0.39550,32.6687659
0.39600,32.6687659
0.39650,33.27915472
0.39700,31.44798827
0.39750,22.90254486
0.39800,8.253213288
0.39850,-5.175340651
0.39900,-13.41558966
0.39950,-16.77272814
0.40000,-17.68831137
0.40050,-15.2467561
0.40100,-10.66883999
0.40150,-7.92209032
0.40200,-10.36364558
0.40250,-15.55195051
0.40300,-17.99350577
0.40350,-14.9415617
0.40400,-7.616895912
0.40450,2.454519542
0.40500,15.57787907
0.40550,27.78565538
0.40600,36.02590439
0.40650,40.2986261
0.40700,41.82459814
0.40750,39.99343169
0.40800,33.58434913
0.40850,24.7337113
0.40900,19.24021197
0.40950,19.54540637
0.41000,21.98696163
0.41050,21.68176723
0.41100,17.40904552
0.41150,11.61035177
0.41200,6.72724125
0.41250,3.98049158
0.41300,2.75971395
0.41350,2.75971395
0.41400,4.896074803
0.41450,9.473990919
0.41500,14.66229585
0.41550,17.10385111
0.41600,16.4934623
0.41650,14.66229585
0.41700,13.44151822
0.41750,11.61035177
0.41800,8.863602104
0.41850,5.201269211
0.41900,0.6233530956
0.41950,-5.175340651
0.42000,-11.58442321
0.42050,-13.11039525
0.42100,-8.227284728
0.42150,-2.428590981
0.42200,-1.513007758
0.42250,-3.344174205
0.42300,-2.733785389
0.42350,-1.207813351
0.42400,-4.564951835
0.42450,-12.50000644
0.42500,-17.07792255
0.42550,-14.33117288
0.42600,-7.616895912
0.42650,-2.428590981
0.42700,0.9285475033
0.42750,3.98049158
0.42800,4.285685988
0.42850,0.6233530956
0.42900,-3.038979797
0.42950,-3.95456302
0.43000,-1.818202166
0.43050,1.233741911
0.43100,5.811658027
0.43150,12.22074059
0.43200,17.10385111
0.43250,17.40904552
0.43300,13.44151822
0.43350,9.779185327
0.43400,8.253213288
0.43450,8.253213288
0.43500,7.642824473
0.43550,7.032435657
0.43600,5.201269211
0.43650,2.149325134
0.43700,0.3181586879
0.43750,0.6233530956
0.43800,1.538936319
0.43850,-1.207813351
0.43900,-5.175340651
0.43950,-3.95456302
0.44000,2.454519542
0.44050,4.896074803
0.44100,-3.038979797
0.44150,-17.99350577
0.44200,-29.89608767
0.44250,-35.08439261
0.44300,-35.69478142
0.44350,-33.86361497
0.44400,-31.11686531
0.44450,-29.28569886
0.44500,-28.06492123
0.44550,-23.18181071
0.44600,-12.80520084
0.44650,-3.95456302
0.44700,-2.733785389
0.44750,-4.259757428
0.44800,3.675297173
0.44850,21.68176723
0.44900,34.49993235
0.44950,32.6687659
0.45000,22.59735045
0.45050,12.22074059
0.45100,2.75971395
0.45150,-6.701312689
0.45200,-10.05845117
0.45250,-4.259757428
0.45300,1.538936319
0.45350,-0.5974245352
0.45400,-7.311701505
0.45450,-8.227284728
0.45500,-3.95456302
0.45550,-2.733785389
0.45600,-5.785729466
0.45650,-7.616895912
0.45700,-6.396118282
0.45750,-6.090923874
0.45800,-8.227284728
0.45850,-9.753256766
0.45900,-8.837673543
0.45950,-7.92209032
0.46000,-7.311701505
0.46050,-5.175340651
0.46100,-0.2922301275
0.46150,6.116852434
0.46200,13.13632381
0.46250,17.71423993
0.46300,18.01943433
0.46350,13.44151822
0.46400,8.558407696
0.46450,6.72724125
0.46500,6.116852434
0.46550,2.75971395
0.46600,-2.733785389
0.46650,-7.92209032
0.46700,-12.19481203
0.46750,-15.85714492
0.46800,-16.46753374
0.46850,-12.80520084
0.46900,-9.753256766
0.46950,-10.9740344
0.47000,-14.9415617
0.47050,-14.9415617
0.47100,-10.66883999
0.47150,-6.090923874
0.47200,-3.344174205
0.47250,0.3181586879
0.47300,4.896074803
0.47350,7.337630065
0.47400,7.337630065
0.47450,8.253213288
0.47500,9.779185327
0.47550,7.94801888
0.47600,1.844130726
0.47650,-2.733785389
0.47700,-3.038979797
0.47750,-1.818202166
0.47800,-1.818202166
0.47850,-2.123396574
0.47900,-2.428590981
0.47950,-5.175340651
0.48000,-11.2792288
0.48050,-14.33117288
0.48100,-9.142867951
0.48150,0.01296428019
0.48200,5.201269211
0.48250,5.506463619
0.48300,6.72724125
0.48350,11.30515737
0.48400,11.61035177
0.48450,3.370102765
0.48500,-8.837673543
0.48550,-16.46753374
0.48600,-14.9415617
0.48650,-8.532479135
0.48700,-3.344174205
0.48750,-1.207813351
0.48800,-2.123396574
0.48850,-3.038979797
0.48900,-2.733785389
0.48950,-2.428590981
0.49000,-5.785729466
0.49050,-12.80520084
0.49100,-19.21428341
0.49150,-20.12986663
0.49200,-16.46753374
0.49250,-14.33117288
0.49300,-16.16233933
0.49350,-18.60389459
0.49400,-19.21428341
0.49450,-19.21428341
0.49500,-20.12986663
0.49550,-18.29870018
0.49600,-10.36364558
0.49650,2.149325134
0.49700,14.35710144
0.49750,20.766184
0.49800,20.4609896
0.49850,16.18826789
0.49900,10.99996296
0.49950,7.337630065
0.50000,5.201269211
0.50050,3.370102765
0.50100,0.3181586879
0.50150,-3.038979797
0.50200,-5.175340651
0.50250,-4.870146243
0.50300,-4.259757428
0.50350,-4.259757428
0.50400,-4.564951835
0.50450,-6.090923874
0.50500,-9.753256766
0.50550,-14.33117288
0.50600,-14.9415617
0.50650,-7.311701505
0.50700,4.896074803
0.50750,13.44151822
0.50800,13.74671263
0.50850,8.863602104
0.50900,4.590880396
0.50950,1.538936319
0.51000,-1.513007758
0.51050,-4.564951835
0.51100,-3.649368612
0.51150,0.01296428019
0.51200,1.233741911
0.51250,-1.207813351
0.51300,-4.564951835
0.51350,-6.396118282
0.51400,-11.58442321
0.51450,-23.18181071
0.51500,-33.86361497
0.51550,-32.64283734
0.51600,-18.29870018
0.51650,-2.123396574
0.51700,4.896074803
0.51750,3.675297173
0.51800,0.3181586879
0.51850,-1.207813351
0.51900,-0.5974245352
0.51950,3.370102765
0.52000,10.38957414
0.52050,16.18826789
0.52100,17.40904552
0.52150,16.7986567
0.52200,17.10385111
0.52250,17.71423993
0.52300,14.96749026
0.52350,10.69476855
0.52400,8.558407696
0.52450,8.253213288
0.52500,6.72724125
0.52550,3.064908357
0.52600,0.6233530956
0.52650,1.233741911
0.52700,1.844130726
0.52750,0.01296428019
0.52800,-4.564951835
0.52850,-10.05845117
0.52900,-15.55195051
0.52950,-20.74025544
0.53000,-23.79219952
0.53050,-25.31817156
0.53100,-26.23375478
0.53150,-25.92856037
0.53200,-22.57142189
0.53250,-14.63636729
0.53300,-4.870146243
0.53350,2.454519542
0.53400,6.72724125
0.53450,8.863602104
0.53500,11.61035177
0.53550,14.66229585
0.53600,15.88307348
0.53650,13.44151822
0.53700,9.779185327
0.53750,7.642824473
0.53800,6.72724125
0.53850,2.75971395
0.53900,-4.870146243
0.53950,-11.88961762
0.54000,-14.9415617
0.54050,-14.9415617
0.54100,-16.16233933
0.54150,-18.60389459
0.54200,-18.60389459
0.54250,-15.85714492
0.54300,-13.72078407
0.54350,-13.72078407
0.54400,-13.11039525
0.54450,-9.448062359
0.54500,-5.175340651
0.54550,-2.428590981
0.54600,-0.2922301275
0.54650,2.75971395
0.54700,6.72724125
0.54750,8.253213288
0.54800,7.032435657
0.54850,4.896074803
0.54900,1.538936319
0.54950,-1.818202166
0.55000,-3.95456302
0.55050,-2.428590981
0.55100,-0.5974245352
0.55150,-3.649368612
0.55200,-10.36364558
0.55250,-13.72078407
0.55300,-10.66883999
0.55350,-3.649368612
0.55400,1.844130726
0.55450,6.116852434
0.55500,5.506463619
0.55550,-2.428590981
0.55600,-16.46753374
0.55650,-25.92856037
0.55700,-25.01297715
0.55750,-18.909089
0.55800,-17.38311696
0.55850,-21.35064426
0.55900,-25.31817156
0.55950,-24.70778274
0.56000,-20.43506104
0.56050,-14.33117288
0.56100,-8.837673543
0.56150,-6.701312689
0.56200,-7.616895912
0.56250,-5.785729466
0.56300,3.064908357
0.56350,13.74671263
0.56400,16.18826789
0.56450,8.253213288
0.56500,-0.9026189429
0.56550,-3.344174205
0.56600,2.454519542
0.56650,12.525935
0.56700,20.15579519
0.56750,21.98696163
0.56800,17.10385111
0.56850,8.558407696
0.56900,0.3181586879
0.56950,-6.090923874
0.57000,-10.05845117
0.57050,-10.9740344
0.57100,-9.142867951
0.57150,-5.480535058
0.57200,-1.513007758
0.57250,2.149325134
0.57300,5.201269211
0.57350,4.590880396
0.57400,1.538936319
0.57450,1.538936319
0.57500,8.253213288
0.57550,18.62982315
0.57600,25.95448893
0.57650,29.00643301
0.57700,30.53240505
0.57750,29.00643301
0.57800,21.37657282
0.57850,9.473990919
0.57900,2.75971395
0.57950,6.116852434
0.58000,14.05190703
0.58050,18.01943433
0.58100,17.10385111
0.58150,15.57787907
0.58200,14.35710144
0.58250,11.61035177
0.58300,7.032435657
0.58350,3.064908357
0.58400,0.6233530956
0.58450,-2.428590981
0.58500,-4.870146243
0.58550,-2.733785389
0.58600,3.675297173
0.58650,6.72724125
0.58700,0.6233530956
0.58750,-8.227284728
0.58800,-10.36364558
0.58850,-4.870146243
0.58900,-1.513007758
0.58950,-4.259757428
0.59000,-7.92209032
0.59050,-7.006507097
0.59100,-1.818202166
0.59150,3.064908357
0.59200,8.253213288
0.59250,13.13632381
0.59300,14.35710144
0.59350,9.168796511
0.59400,3.064908357
0.59450,2.75971395
0.59500,7.032435657
0.59550,8.558407696
0.59600,4.285685988
0.59650,0.01296428019
0.59700,-0.5974245352
0.59750,0.6233530956
0.59800,0.9285475033
0.59850,-1.207813351
0.59900,-5.175340651
0.59950,-9.448062359
0.60000,-13.41558966
0.60050,-16.77272814
0.60100,-19.51947781
0.60150,-22.57142189
0.60200,-23.79219952
0.60250,-21.96103307
0.60300,-20.43506104
0.60350,-23.48700511
0.60400,-28.37011564
0.60450,-27.14933801
0.60500,-17.38311696
0.60550,-6.701312689
0.60600,-1.207813351
0.60650,3.370102765
0.60700,13.44151822
0.60750,26.56487775
0.60800,33.27915472
0.60850,30.53240505
0.60900,22.29215604
0.60950,15.57787907
0.61000,11.91554618
0.61050,11.30515737
0.61100,12.22074059
0.61150,12.525935
0.61200,10.99996296
0.61250,8.558407696
0.61300,6.116852434
0.61350,3.98049158
0.61400,0.9285475033
0.61450,-0.9026189429
0.61500,-1.818202166
0.61550,-3.344174205
0.61600,-7.006507097
0.61650,-10.05845117
0.61700,-7.616895912
0.61750,-0.9026189429
0.61800,3.675297173
0.61850,3.370102765
0.61900,0.6233530956
0.61950,-2.733785389
0.62000,-7.92209032
0.62050,-13.72078407
0.62100,-16.46753374
0.62150,-14.9415617
0.62200,-14.33117288
0.62250,-19.82467222
0.62300,-27.75972682
0.62350,-29.28569886
0.62400,-23.79219952
0.62450,-18.60389459
0.62500,-17.68831137
0.62550,-15.85714492
0.62600,-7.311701505
0.62650,7.032435657
0.62700,19.54540637
0.62750,24.4285169
0.62800,22.90254486
0.62850,20.15579519
0.62900,19.54540637
0.62950,21.07137841
0.63000,24.12332249
0.63050,25.95448893
0.63100,24.7337113
0.63150,19.24021197
0.63200,13.13632381
0.63250,9.473990919
0.63300,8.558407696
0.63350,7.642824473
0.63400,4.896074803
0.63450,1.844130726
0.63500,0.9285475033
0.63550,1.844130726
0.63600,1.538936319
0.63650,0.01296428019
0.63700,-1.818202166
0.63750,-3.038979797
0.63800,-4.564951835
0.63850,-7.311701505
0.63900,-9.448062359
0.63950,-9.448062359
0.64000,-8.532479135
0.64050,-7.92209032
0.64100,-7.006507097
0.64150,-5.480535058
0.64200,-4.564951835
0.64250,-7.311701505
0.64300,-12.80520084
0.64350,-16.46753374
0.64400,-14.9415617
0.64450,-9.448062359
0.64500,-4.870146243
0.64550,-5.480535058
0.64600,-10.36364558
0.64650,-16.46753374
0.64700,-21.65583867
0.64750,-23.79219952
0.64800,-21.35064426
0.64850,-15.85714492
0.64900,-10.66883999
0.64950,-9.142867951
0.65000,-8.837673543
0.65050,-6.701312689
0.65100,-3.649368612
0.65150,-4.870146243
0.65200,-11.58442321
0.65250,-17.99350577
0.65300,-16.77272814
0.65350,-7.92209032
0.65400,0.9285475033
0.65450,5.506463619
0.65500,6.116852434
0.65550,7.337630065
0.65600,12.525935
0.65650,20.15579519
0.65700,25.34410012
0.65750,25.03890571
0.65800,22.59735045
0.65850,24.4285169
0.65900,30.53240505
0.65950,35.11032117
0.66000,33.27915472
0.66050,27.78565538
0.66100,20.766184
0.66150,9.779185327
0.66200,-4.870146243
0.66250,-17.68831137
0.66300,-22.57142189
0.66350,-23.18181071
0.66400,-25.01297715
0.66450,-25.62336597
0.66500,-20.43506104
0.66550,-11.2792288
0.66600,-3.95456302
0.66650,0.3181586879
0.66700,4.590880396
0.66750,10.08437973
0.66800,14.05190703
0.66850,17.10385111
0.66900,21.07137841
0.66950,24.7337113
0.67000,25.34410012
0.67050,22.90254486
0.67100,19.85060078
0.67150,15.88307348
0.67200,10.99996296
0.67250,7.642824473
0.67300,8.558407696
0.67350,9.473990919
0.67400,6.72724125
0.67450,2.75971395
0.67500,3.675297173
0.67550,7.032435657
0.67600,6.72724125
0.67650,2.454519542
0.67700,0.6233530956
0.67750,3.98049158
0.67800,6.422046842
0.67850,3.98049158
0.67900,-2.123396574
0.67950,-9.142867951
0.68000,-15.2467561
0.68050,-17.99350577
0.68100,-15.55195051
0.68150,-8.837673543
0.68200,-3.95456302
0.68250,-3.344174205
0.68300,-3.038979797
0.68350,-0.2922301275
0.68400,2.454519542
0.68450,4.590880396
0.68500,7.032435657
0.68550,10.99996296
0.68600,13.74671263
0.68650,11.91554618
0.68700,7.94801888
0.68750,7.032435657
0.68800,10.38957414
0.68850,13.74671263
0.68900,16.18826789
0.68950,18.01943433
0.69000,20.766184
0.69050,22.29215604
0.69100,19.85060078
0.69150,15.57787907
0.69200,11.30515737
0.69250,8.253213288
0.69300,4.590880396
0.69350,0.3181586879
0.69400,-3.038979797
0.69450,-6.090923874
0.69500,-7.92209032
0.69550,-7.311701505
0.69600,-3.038979797
0.69650,2.454519542
0.69700,6.422046842
0.69750,7.94801888
0.69800,8.863602104
0.69850,9.473990919
0.69900,9.168796511
0.69950,7.337630065
0.70000,6.422046842
0.70050,6.116852434
0.70100,5.201269211
0.70150,2.454519542
0.70200,0.01296428019
0.70250,-0.2922301275
0.70300,0.9285475033
0.70350,1.538936319
0.70400,0.3181586879
0.70450,-0.2922301275
0.70500,0.6233530956
0.70550,2.75971395
0.70600,3.675297173
0.70650,2.75971395
0.70700,0.6233530956
0.70750,-2.123396574
0.70800,-6.090923874
0.70850,-9.448062359
0.70900,-9.142867951
0.70950,-4.564951835
0.71000,-1.207813351
0.71050,-2.428590981
0.71100,-5.785729466
0.71150,-6.701312689
0.71200,-6.396118282
0.71250,-7.92209032
0.71300,-8.227284728
0.71350,-3.344174205
0.71400,4.285685988
0.71450,7.642824473
0.71500,4.590880396
0.71550,0.9285475033
0.71600,-1.207813351
0.71650,-7.311701505
0.71700,-17.68831137
0.71750,-25.01297715
0.71800,-24.70778274
0.71850,-21.96103307
0.71900,-21.65583867
0.71950,-21.35064426
0.72000,-16.46753374
0.72050,-9.448062359
0.72100,-5.175340651
0.72150,-0.9026189429
0.72200,7.94801888
0.72250,18.01943433
0.72300,22.59735045
0.72350,21.37657282
0.72400,20.15579519
0.72450,20.4609896
0.72500,17.40904552
0.72550,9.168796511
0.72600,0.3181586879
0.72650,-3.038979797
0.72700,0.3181586879
0.72750,5.506463619
0.72800,9.779185327
0.72850,10.99996296
0.72900,11.61035177
0.72950,13.13632381
0.73000,15.88307348
0.73050,16.18826789
0.73100,12.22074059
0.73150,6.116852434
0.73200,1.538936319
0.73250,-0.9026189429
0.73300,-2.123396574
0.73350,-1.818202166
0.73400,0.9285475033
0.73450,4.590880396
0.73500,6.422046842
0.73550,4.590880396
0.73600,-0.5974245352
0.73650,-7.616895912
0.73700,-12.19481203
0.73750,-11.88961762
0.73800,-7.616895912
0.73850,-3.344174205
0.73900,-3.649368612
0.73950,-7.311701505
0.74000,-10.36364558
0.74050,-9.448062359
0.74100,-7.006507097
0.74150,-6.701312689
0.74200,-8.837673543
0.74250,-8.532479135
0.74300,-2.123396574
0.74350,8.558407696
0.74400,16.18826789
0.74450,15.57787907
0.74500,9.779185327
0.74550,5.506463619
0.74600,4.285685988
0.74650,3.98049158
0.74700,2.75971395
0.74750,2.75971395
0.74800,3.370102765
0.74850,1.844130726
0.74900,-3.038979797
0.74950,-10.05845117
0.75000,-15.85714492
0.75050,-21.04544985
0.75100,-25.62336597
0.75150,-25.62336597
0.75200,-19.82467222
0.75250,-12.80520084
0.75300,-11.88961762
0.75350,-18.60389459
0.75400,-26.23375478
0.75450,-26.8441436
0.75500,-18.60389459
0.75550,-4.564951835
0.75600,10.38957414
0.75650,23.81812808
0.75700,33.27915472
0.75750,36.94148761
0.75800,32.05837709
0.75850,18.62982315
0.75900,0.9285475033
0.75950,-11.58442321
0.76000,-14.9415617
0.76050,-12.80520084
0.76100,-13.11039525
0.76150,-17.99350577
0.76200,-22.26622748
0.76250,-20.12986663
0.76300,-12.19481203
0.76350,-2.428590981
0.76400,7.032435657
0.76450,17.10385111
0.76500,27.78565538
0.76550,36.6362932
0.76600,38.46745965
0.76650,32.3635715
0.76700,21.68176723
0.76750,13.13632381
0.76800,10.38957414
0.76850,11.61035177
0.76900,11.91554618
0.76950,8.253213288
0.77000,3.370102765
0.77050,0.3181586879
0.77100,0.01296428019
0.77150,-0.9026189429
0.77200,-5.785729466
0.77250,-11.2792288
0.77300,-11.88961762
0.77350,-7.616895912
0.77400,-4.259757428
0.77450,-4.870146243
0.77500,-5.175340651
0.77550,0.6233530956
0.77600,9.779185327
0.77650,12.525935
0.77700,7.337630065
0.77750,1.538936319
0.77800,0.9285475033
0.77850,3.675297173
0.77900,4.590880396
0.77950,1.538936319
0.78000,-5.480535058
0.78050,-15.2467561
0.78100,-22.26622748
0.78150,-21.96103307
0.78200,-15.85714492
0.78250,-13.41558966
0.78300,-19.51947781
0.78350,-26.23375478
0.78400,-24.40258834
0.78450,-16.16233933
0.78500,-11.58442321
0.78550,-16.46753374
0.78600,-23.48700511
0.78650,-22.26622748
0.78700,-10.36364558
0.78750,5.201269211
0.78800,17.40904552
0.78850,21.68176723
0.78900,19.54540637
0.78950,14.66229585
0.79000,10.99996296
0.79050,10.69476855
0.79100,14.35710144
0.79150,19.24021197
0.79200,21.07137841
0.79250,18.01943433
0.79300,14.05190703
0.79350,12.8311294
0.79400,14.05190703
0.79450,15.57787907
0.79500,15.57787907
0.79550,15.27268467
0.79600,15.27268467
0.79650,14.35710144
0.79700,10.69476855
0.79750,5.811658027
0.79800,2.75971395
0.79850,2.149325134
0.79900,0.9285475033
0.79950,-2.733785389
0.80000,-8.227284728
0.80050,-11.2792288
0.80100,-10.05845117
0.80150,-7.006507097
0.80200,-5.785729466
0.80250,-5.785729466
0.80300,-2.123396574
0.80350,5.811658027
0.80400,13.74671263
0.80450,15.57787907
0.80500,12.22074059
0.80550,7.032435657
0.80600,2.454519542
0.80650,-0.9026189429
0.80700,-2.123396574
0.80750,0.3181586879
0.80800,3.064908357
0.80850,2.75971395
0.80900,-2.428590981
0.80950,-9.142867951
0.81000,-13.41558966
0.81050,-15.55195051
0.81100,-19.51947781
0.81150,-27.14933801
0.81200,-37.52594787
0.81250,-45.76619688
0.81300,-46.6817801
0.81350,-39.96750313
0.81400,-31.42205971
0.81450,-27.45453241
0.81500,-24.09739393
0.81550,-12.19481203
0.81600,9.779185327
0.81650,30.22721064
0.81700,38.16226524
0.81750,37.55187643
0.81800,38.16226524
0.81850,40.2986261
0.81900,36.3310988
0.81950,24.12332249
0.82000,12.22074059
0.82050,6.72724125
0.82100,3.370102765
0.82150,-3.344174205
0.82200,-12.19481203
0.82250,-16.16233933
0.82300,-13.72078407
0.82350,-6.396118282
0.82400,3.064908357
0.82450,12.22074059
0.82500,16.18826789
0.82550,13.13632381
0.82600,6.72724125
0.82650,0.01296428019
0.82700,-7.92209032
0.82750,-16.16233933
0.82800,-18.909089
0.82850,-12.80520084
0.82900,-6.396118282
0.82950,-10.05845117
0.83000,-21.65583867
0.83050,-27.75972682
0.83100,-24.09739393
0.83150,-17.38311696
0.83200,-14.63636729
0.83250,-12.50000644
0.83300,-6.396118282
0.83350,1.538936319
0.83400,5.811658027
0.83450,7.642824473
0.83500,11.30515737
0.83550,16.4934623
0.83600,18.01943433
0.83650,16.4934623
0.83700,16.4934623
0.83750,18.32462874
0.83800,18.01943433
0.83850,12.8311294
0.83900,6.72724125
0.83950,6.116852434
0.84000,11.61035177
0.84050,21.07137841
0.84100,28.7012386
0.84150,29.61682183
0.84200,21.68176723
0.84250,10.99996296
0.84300,4.896074803
0.84350,6.116852434
0.84400,8.558407696
0.84450,8.558407696
0.84500,6.422046842
0.84550,5.201269211
0.84600,4.896074803
0.84650,3.98049158
0.84700,2.454519542
0.84750,0.01296428019
0.84800,-4.870146243
0.84850,-8.532479135
0.84900,-6.701312689
0.84950,1.233741911
0.85000,8.863602104
0.85050,9.168796511
0.85100,2.454519542
0.85150,-3.344174205
0.85200,-3.649368612
0.85250,0.01296428019
0.85300,2.75971395
0.85350,2.454519542
0.85400,0.9285475033
0.85450,1.844130726
0.85500,3.98049158
0.85550,1.233741911
0.85600,-9.142867951
0.85650,-21.04544985
0.85700,-25.62336597
0.85750,-21.04544985
0.85800,-13.11039525
0.85850,-7.616895912
0.85900,-5.175340651
0.85950,-4.564951835
0.86000,-5.175340651
0.86050,-3.95456302
0.86100,0.6233530956
0.86150,5.811658027
0.86200,6.72724125
0.86250,6.116852434
0.86300,11.91554618
0.86350,25.34410012
0.86400,37.55187643
0.86450,40.6038205
0.86500,33.58434913
0.86550,21.68176723
0.86600,9.168796511
0.86650,0.6233530956
0.86700,-0.2922301275
0.86750,3.98049158
0.86800,8.863602104
0.86850,9.168796511
0.86900,5.811658027
0.86950,4.590880396
0.87000,6.422046842
0.87050,9.473990919
0.87100,10.69476855
0.87150,8.863602104
0.87200,3.370102765
0.87250,-4.564951835
0.87300,-12.50000644
0.87350,-18.29870018
0.87400,-21.04544985
0.87450,-20.74025544
0.87500,-17.07792255
0.87550,-10.9740344
0.87600,-6.090923874
0.87650,-4.564951835
0.87700,-3.649368612
0.87750,0.01296428019
0.87800,3.98049158
0.87850,0.01296428019
0.87900,-17.38311696
0.87950,-40.27269754
0.88000,-55.22722351
0.88050,-56.44800114
0.88100,-50.03891858
0.88150,-44.54541924
0.88200,-42.40905839
0.88250,-39.96750313
0.88300,-33.86361497
0.88350,-26.53894919
0.88400,-20.74025544
0.88450,-14.9415617
0.88500,-4.870146243
0.88550,10.08437973
0.88600,25.95448893
0.88650,35.72070998
0.88700,38.16226524
0.88750,36.02590439
0.88800,31.44798827
0.88850,23.20773927
0.88900,12.8311294
0.88950,4.590880396
0.89000,1.538936319
0.89050,1.844130726
0.89100,2.75971395
0.89150,4.896074803
0.89200,8.558407696
0.89250,11.30515737
0.89300,10.38957414
0.89350,7.94801888
0.89400,7.032435657
0.89450,4.590880396
0.89500,-4.259757428
0.89550,-18.29870018
0.89600,-27.14933801
0.89650,-24.70778274
0.89700,-16.46753374
0.89750,-12.19481203
0.89800,-15.55195051
0.89850,-19.51947781
0.89900,-17.99350577
0.89950,-13.41558966
0.90000,-14.33117288
0.90050,-23.18181071
0.90100,-32.03244853
0.90150,-33.25322616
0.90200,-28.98050445
0.90250,-27.45453241
0.90300,-32.03244853
0.90350,-37.52594787
0.90400,-37.22075346
0.90450,-29.59089327
0.90500,-16.16233933
0.90550,0.9285475033
0.90600,16.7986567
0.90650,26.56487775
0.90700,30.83759946
0.90750,37.55187643
0.90800,50.67523596
0.90850,63.79859549
0.90900,65.62976194
0.90950,55.25315207
0.91000,42.43498695
0.91050,35.72070998
0.91100,35.41551557
0.91150,36.02590439
0.91200,34.19473794
0.91250,30.53240505
0.91300,25.34410012
0.91350,17.40904552
0.91400,7.94801888
0.91450,2.454519542
0.91500,4.590880396
0.91550,10.69476855
0.91600,13.44151822
0.91650,8.863602104
0.91700,3.675297173
0.91750,4.590880396
0.91800,9.473990919
0.91850,12.22074059
0.91900,11.30515737
0.91950,8.253213288
0.92000,-2.123396574
0.92050,-26.23375478
0.92100,-56.75319555
0.92150,-75.37005442
0.92200,-75.06486001
0.92250,-68.65577745
0.92300,-69.26616627
0.92350,-73.84408238
0.92400,-73.23369357
0.92450,-68.35058304
0.92500,-64.07786134
0.92550,-54.00644588
0.92600,-28.06492123
0.92650,7.94801888
0.92700,33.88954354
0.92750,36.94148761
0.92800,24.12332249
0.92850,13.74671263
0.92900,13.74671263
0.92950,17.71423993
0.93000,14.05190703
0.93050,0.3181586879
0.93100,-15.2467561
0.93150,-25.92856037
0.93200,-35.69478142
0.93250,-50.6493074
0.93300,-62.85708371
0.93350,-58.584362
0.93400,-38.44153109
0.93450,-20.74025544
0.93500,-14.63636729
0.93550,-9.448062359
0.93600,2.75971395
0.93650,14.05190703
0.93700,13.44151822
0.93750,8.558407696
0.93800,12.8311294
0.93850,26.87007216
0.93900,40.6038205
0.93950,51.59081918
0.94000,61.05184582
0.94050,67.76612279
0.94100,68.98690042
0.94150,68.68170601
0.94200,70.51287246
0.94250,68.98690042
0.94300,60.74665141
0.94350,51.59081918
0.94400,47.31809747
0.94450,42.12979254
0.94500,30.53240505
0.94550,19.85060078
0.94600,16.18826789
0.94650,9.168796511
0.94700,-12.19481203
0.94750,-40.57789194
0.94800,-57.66877878
0.94850,-60.41552844
0.94900,-60.41552844
0.94950,-59.49994522
0.95000,-48.20775214
0.95050,-25.62336597
0.95100,-3.95456302
0.95150,7.337630065
0.95200,12.8311294
0.95250,19.85060078
0.95300,30.53240505
0.95350,44.87654221
0.95400,61.35704023
0.95450,73.56481654
0.95500,71.42845568
0.95550,53.72718004
0.95600,30.53240505
0.95650,11.91554618
0.95700,0.01296428019
0.95750,-8.837673543
0.95800,-14.9415617
0.95850,-17.07792255
0.95900,-14.02597847
0.95950,-5.785729466
0.96000,5.811658027
0.96050,17.40904552
0.96100,24.7337113
0.96150,27.17526657
0.96200,25.95448893
0.96250,22.29215604
0.96300,18.01943433
0.96350,13.44151822
0.96400,8.253213288
0.96450,-0.2922301275
0.96500,-11.58442321
0.96550,-19.51947781
0.96600,-18.909089
0.96650,-10.9740344
0.96700,-3.344174205
0.96750,-1.207813351
0.96800,-3.649368612
0.96850,-9.142867951
0.96900,-16.77272814
0.96950,-25.92856037
0.97000,-32.64283734
0.97050,-33.25322616
0.97100,-28.67531004
0.97150,-23.18181071
0.97200,-19.82467222
0.97250,-17.99350577
0.97300,-16.46753374
0.97350,-15.55195051
0.97400,-14.9415617
0.97450,-11.58442321
0.97500,-3.649368612
0.97550,5.811658027
0.97600,12.8311294
0.97650,16.4934623
0.97700,18.32462874
0.97750,18.93501756
0.97800,17.40904552
0.97850,13.74671263
0.97900,7.642824473
0.97950,-0.2922301275
0.98000,-8.837673543
0.98050,-11.88961762
0.98100,-4.870146243
0.98150,7.94801888
0.98200,15.88307348
0.98250,14.05190703
0.98300,8.253213288
0.98350,5.201269211
0.98400,3.370102765
0.98450,-1.818202166
0.98500,-9.753256766
0.98550,-13.41558966
0.98600,-10.05845117
0.98650,-5.785729466
0.98700,-7.616895912
0.98750,-14.02597847
0.98800,-16.16233933
0.98850,-10.36364558
0.98900,-2.428590981
0.98950,-0.2922301275
0.99000,-3.95456302
0.99050,-7.006507097
0.99100,-5.785729466
0.99150,-3.038979797
0.99200,-2.733785389
0.99250,-3.95456302
0.99300,-7.311701505
0.99350,-14.63636729
0.99400,-24.09739393
0.99450,-28.06492123
0.99500,-21.04544985
0.99550,-10.36364558
0.99600,-8.227284728
0.99650,-14.63636729
0.99700,-20.74025544
0.99750,-20.12986663
0.99800,-17.38311696
0.99850,-18.29870018
0.99900,-21.96103307
0.99950,-23.79219952
1.00000,-24.70778274
1.00050,-27.45453241
1.00100,-29.59089327
1.00150,-24.40258834
1.00200,-11.88961762
1.00250,-1.513007758
1.00300,-1.513007758
1.00350,-9.142867951
1.00400,-13.41558966
1.00450,-7.311701505
1.00500,6.72724125
1.00550,24.12332249
1.00600,39.99343169
1.00650,50.98043037
1.00700,54.64276326
1.00750,51.28562477
1.00800,45.79212544
1.00850,43.04537577
1.00900,41.82459814
1.00950,38.16226524
1.01000,32.05837709
1.01050,27.17526657
1.01100,25.03890571
1.01150,22.59735045
1.01200,15.27268467
1.01250,6.116852434
1.01300,1.844130726
1.01350,5.811658027
1.01400,13.74671263
1.01450,19.85060078
1.01500,23.20773927
1.01550,26.25968334
1.01600,30.53240505
1.01650,33.88954354
1.01700,33.88954354
1.01750,31.44798827
1.01800,28.7012386
1.01850,23.51293367
1.01900,13.13632381
1.01950,0.3181586879
1.02000,-11.58442321
1.02050,-21.35064426
1.02100,-30.8116709
1.02150,-39.96750313
1.02200,-43.32464161
1.02250,-38.7467255
1.02300,-31.42205971
1.02350,-27.45453241
1.02400,-28.67531004
1.02450,-31.72725412
1.02500,-31.11686531
1.02550,-23.48700511
1.02600,-10.36364558
1.02650,3.064908357
1.02700,11.91554618
1.02750,15.88307348
1.02800,18.32462874
1.02850,19.24021197
1.02900,18.62982315
1.02950,20.4609896
1.03000,30.22721064
1.03050,44.5713478
1.03100,52.201208
1.03150,47.62329188
1.03200,39.68823728
1.03250,36.94148761
1.03300,35.72070998
1.03350,27.48046097
1.03400,13.44151822
1.03450,3.98049158
1.03500,1.538936319
1.03550,0.3181586879
1.03600,-3.95456302
1.03650,-5.785729466
1.03700,-2.123396574
1.03750,2.149325134
1.03800,2.75971395
1.03850,0.6233530956
1.03900,0.3181586879
1.03950,3.370102765
1.04000,7.337630065
1.04050,9.473990919
1.04100,8.558407696
1.04150,2.75971395
1.04200,-6.396118282
1.04250,-14.63636729
1.04300,-17.07792255
1.04350,-13.11039525
1.04400,-8.227284728
1.04450,-7.92209032
1.04500,-12.80520084
1.04550,-19.82467222
1.04600,-25.01297715
1.04650,-26.8441436
1.04700,-25.01297715
1.04750,-18.29870018
1.04800,-8.837673543
1.04850,-2.428590981
1.04900,-7.311701505
1.04950,-20.12986663
1.05000,-28.98050445
1.05050,-23.18181071
1.05100,-6.396118282
1.05150,8.253213288
1.05200,14.05190703
1.05250,12.22074059
1.05300,9.473990919
1.05350,8.558407696
1.05400,11.30515737
1.05450,16.18826789
1.05500,21.07137841
1.05550,22.59735045
1.05600,20.15579519
1.05650,16.18826789
1.05700,13.44151822
1.05750,11.91554618
1.05800,10.08437973
1.05850,7.032435657
1.05900,3.675297173
1.05950,0.3181586879
1.06000,-2.123396574
1.06050,-4.870146243
1.06100,-7.311701505
1.06150,-9.142867951
1.06200,-10.9740344
1.06250,-12.80520084
1.06300,-14.9415617
1.06350,-17.99350577
1.06400,-21.96103307
1.06450,-24.40258834
1.06500,-20.12986663
1.06550,-7.006507097
1.06600,9.473990919
1.06650,21.37657282
1.06700,22.90254486
1.06750,17.10385111
1.06800,10.99996296
1.06850,9.473990919
1.06900,10.99996296
1.06950,12.525935
1.07000,10.69476855
1.07050,5.201269211
1.07100,-0.2922301275
1.07150,-5.480535058
1.07200,-11.88961762
1.07250,-22.57142189
1.07300,-34.47400379
1.07350,-40.27269754
1.07400,-37.22075346
1.07450,-32.33764294
1.07500,-30.8116709
1.07550,-28.06492123
1.07600,-17.38311696
1.07650,-3.344174205
1.07700,3.675297173
1.07750,4.590880396
1.07800,10.08437973
1.07850,23.81812808
1.07900,35.11032117
1.07950,33.88954354
1.08000,27.17526657
1.08050,25.64929453
1.08100,25.03890571
1.08150,15.27268467
1.08200,0.3181586879
1.08250,-3.649368612
1.08300,8.863602104
1.08350,23.51293367
1.08400,24.12332249
1.08450,13.74671263
1.08500,7.337630065
1.08550,11.61035177
1.08600,20.4609896
1.08650,25.03890571
1.08700,19.54540637
1.08750,2.454519542
1.08800,-21.65583867
1.08850,-43.01944721
1.08900,-53.70125148
1.08950,-55.22722351
1.09000,-55.53241792
1.09050,-57.97397318
1.09100,-58.27916759
1.09150,-53.09086266
1.09200,-42.40905839
1.09250,-29.28569886
1.09300,-15.55195051
1.09350,-1.513007758
1.09400,11.61035177
1.09450,21.68176723
1.09500,23.20773927
1.09550,14.05190703
1.09600,-0.5974245352
1.09650,-12.50000644
1.09700,-16.77272814
1.09750,-18.29870018
1.09800,-23.48700511
1.09850,-33.25322616
1.09900,-44.85061365
1.09950,-57.05838996
1.10000,-65.90902778
1.10050,-64.99344456
1.10100,-50.03891858
1.10150,-26.8441436
1.10200,-3.344174205
1.10250,16.4934623
1.10300,36.3310988
1.10350,54.64276326
1.10400,66.85053957
1.10450,70.20767805
1.10500,68.37651161
1.10550,65.01937312
1.10600,62.27262345
1.10650,58.61029056
1.10700,52.201208
1.10750,40.90901491
1.10800,25.03890571
1.10850,10.69476855
1.10900,4.285685988
1.10950,7.337630065
1.11000,14.05190703
1.11050,19.54540637
1.11100,20.766184
1.11150,17.71423993
1.11200,10.08437973
1.11250,0.3181586879
1.11300,-7.311701505
1.11350,-9.753256766
1.11400,-8.532479135
1.11450,-5.175340651
1.11500,0.01296428019
1.11550,7.642824473
1.11600,14.66229585
1.11650,13.74671263
1.11700,3.064908357
1.11750,-8.532479135
1.11800,-9.142867951
1.11850,2.149325134
1.11900,13.74671263
1.11950,16.18826789
1.12000,13.13632381
1.12050,12.525935
1.12100,13.44151822
1.12150,9.168796511
1.12200,0.9285475033
1.12250,-1.818202166
1.12300,5.506463619
1.12350,15.88307348
1.12400,19.24021197
1.12450,13.13632381
1.12500,2.75971395
1.12550,-7.616895912
1.12600,-17.99350577
1.12650,-25.92856037
1.12700,-27.14933801
1.12750,-20.74025544
1.12800,-10.05845117
1.12850,-1.818202166
1.12900,0.01296428019
1.12950,-3.344174205
1.13000,-9.448062359
1.13050,-16.16233933
1.13100,-22.57142189
1.13150,-25.92856037
1.13200,-24.40258834
1.13250,-19.21428341
1.13300,-15.2467561
1.13350,-16.77272814
1.13400,-22.26622748
1.13450,-28.37011564
1.13500,-32.64283734
1.13550,-34.16880938
1.13600,-30.50647649
1.13650,-21.96103307
1.13700,-13.11039525
1.13750,-8.837673543
1.13800,-9.753256766
1.13850,-14.02597847
1.13900,-18.29870018
1.13950,-18.909089
1.14000,-11.88961762
1.14050,1.538936319
1.14100,14.66229585
1.14150,17.10385111
1.14200,10.38957414
1.14250,2.149325134
1.14300,-1.513007758
1.14350,-5.480535058
1.14400,-10.66883999
1.14450,-10.36364558
1.14500,0.6233530956
1.14550,18.93501756
1.14600,32.3635715
1.14650,37.85707084
1.14700,39.68823728
1.14750,42.43498695
1.14800,42.43498695
1.14850,37.55187643
1.14900,30.53240505
1.14950,25.34410012
1.15000,22.90254486
1.15050,20.15579519
1.15100,15.88307348
1.15150,10.69476855
1.15200,4.896074803
1.15250,-2.428590981
1.15300,-10.05845117
1.15350,-14.33117288
1.15400,-12.80520084
1.15450,-8.837673543
1.15500,-9.448062359
1.15550,-18.60389459
1.15600,-32.64283734
1.15650,-42.7142528
1.15700,-46.07139128
1.15750,-48.81814095
1.15800,-58.27916759
1.15850,-72.01291594
1.15900,-80.25316495
1.15950,-77.81160968
1.16000,-69.87655508
1.16050,-63.46747252
1.16100,-56.14280674
1.16150,-41.49347517
1.16200,-19.82467222
1.16250,-3.649368612
1.16300,-2.123396574
1.16350,-10.66883999
1.16400,-14.02597847
1.16450,-3.649368612
1.16500,12.525935
1.16550,23.51293367
1.16600,24.12332249
1.16650,19.24021197
1.16700,12.8311294
1.16750,3.064908357
1.16800,-9.753256766
1.16850,-21.65583867
1.16900,-26.8441436
1.16950,-26.23375478
1.17000,-25.31817156
1.17050,-25.62336597
1.17100,-26.23375478
1.17150,-27.75972682
1.17200,-33.25322616
1.17250,-42.40905839
1.17300,-49.73372418
1.17350,-48.81814095
1.17400,-40.27269754
1.17450,-32.33764294
1.17500,-32.03244853
1.17550,-39.35711431
1.17600,-46.37658569
1.17650,-45.15580806
1.17700,-35.69478142
1.17750,-23.18181071
1.17800,-13.11039525
1.17850,-4.870146243
1.17900,4.285685988
1.17950,16.18826789
1.18000,28.3960442
1.18050,41.21420932
1.18100,57.69470734
1.18150,78.14273265
1.18200,96.14920271
1.18250,104.6946461
1.18300,102.2530909
1.18350,95.53881389
1.18400,90.04531455
1.18450,87.60375929
1.18500,85.16220403
1.18550,80.58428791
1.18600,72.0388445
1.18650,60.74665141
1.18700,50.06484714
1.18750,44.5713478
1.18800,44.2661534
1.18850,43.96095899
1.18900,38.46745965
1.18950,26.25968334
1.19000,9.168796511
1.19050,-9.753256766
1.19100,-27.45453241
1.19150,-41.18828076
1.19200,-53.09086266
1.19250,-66.82461101
1.19300,-79.03238731
1.19350,-82.3895258
1.19400,-77.20122087
1.19450,-74.14927679
1.19500,-79.94797054
1.19550,-86.66224751
1.19600,-82.3895258
1.19650,-68.04538864
1.19700,-54.31164029
1.19750,-46.6817801
1.19800,-39.66230872
1.19850,-29.28569886
1.19900,-17.38311696
1.19950,-7.311701505
1.20000,2.454519542
1.20050,13.13632381
1.20100,19.85060078
1.20150,18.93501756
1.20200,13.74671263
1.20250,10.99996296
1.20300,10.99996296
1.20350,9.168796511
1.20400,2.454519542
1.20450,-7.006507097
1.20500,-14.33117288
1.20550,-16.77272814
1.20600,-16.16233933
1.20650,-16.16233933
1.20700,-17.38311696
1.20750,-17.68831137
1.20800,-15.2467561
1.20850,-10.05845117
1.20900,-3.649368612
1.20950,2.149325134
1.21000,6.116852434
1.21050,7.94801888
1.21100,9.168796511
1.21150,12.22074059
1.21200,18.01943433
1.21250,23.81812808
1.21300,29.00643301
1.21350,32.05837709
1.21400,30.53240505
1.21450,19.54540637
1.21500,1.233741911
1.21550,-15.2467561
1.21600,-22.8766163
1.21650,-23.79219952
1.21700,-25.62336597
1.21750,-29.28569886
1.21800,-26.8441436
1.21850,-15.2467561
1.21900,0.01296428019
1.21950,12.22074059
1.22000,22.59735045
1.22050,35.72070998
1.22100,49.14926392
1.22150,54.64276326
1.22200,47.62329188
1.22250,34.49993235
1.22300,25.95448893
1.22350,25.64929453
1.22400,27.48046097
1.22450,24.7337113
1.22500,18.62982315
1.22550,14.05190703
1.22600,13.13632381
1.22650,13.44151822
1.22700,17.10385111
1.22750,30.53240505
1.22800,54.03237444
1.22850,73.87001094
1.22900,76.61676061
1.22950,64.1037899
1.23000,48.84406951
1.23050,36.94148761
1.23100,26.87007216
1.23150,18.93501756
1.23200,20.4609896
1.23250,30.53240505
1.23300,36.6362932
1.23350,26.87007216
1.23400,5.811658027
1.23450,-11.2792288
1.23500,-17.68831137
1.23550,-16.77272814
1.23600,-13.41558966
1.23650,-8.837673543
1.23700,-5.175340651
1.23750,-7.006507097
1.23800,-17.68831137
1.23850,-34.47400379
1.23900,-50.95450181
1.23950,-59.19475081
1.24000,-53.39605707
1.24050,-35.99997583
1.24100,-17.38311696
1.24150,-5.175340651
1.24200,0.01296428019
1.24250,3.370102765
1.24300,8.253213288
1.24350,14.35710144
1.24400,20.4609896
1.24450,25.64929453
1.24500,29.61682183
1.24550,32.6687659
1.24600,35.72070998
1.24650,37.24668202
1.24700,34.19473794
1.24750,26.25968334
1.24800,18.93501756
1.24850,17.40904552
1.24900,20.766184
1.24950,25.34410012
1.25000,29.92201623
1.25050,34.19473794
1.25100,34.80512676
1.25150,26.56487775
1.25200,14.05190703
1.25250,6.116852434
1.25300,3.370102765
1.25350,-0.9026189429
1.25400,-10.05845117
1.25450,-17.07792255
1.25500,-14.9415617
1.25550,-8.532479135
1.25600,-7.311701505
1.25650,-10.9740344
1.25700,-12.80520084
1.25750,-7.311701505
1.25800,4.590880396
1.25850,20.15579519
1.25900,32.6687659
1.25950,36.94148761
1.26000,32.6687659
1.26050,29.92201623
1.26100,37.24668202
1.26150,52.5064024
1.26200,64.71417871
1.26250,66.24015075
1.26300,58.30509615
1.26350,44.5713478
1.26400,25.95448893
1.26450,3.98049158
1.26500,-18.29870018
1.26550,-37.22075346
1.26600,-51.56489062
1.26650,-60.11033404
1.26700,-64.99344456
1.26750,-68.35058304
1.26800,-69.57136068
1.26850,-65.60383338
1.26900,-53.70125148
1.26950,-39.05191991
1.27000,-28.37011564
1.27050,-24.09739393
1.27100,-22.57142189
1.27150,-20.12986663
1.27200,-16.77272814
1.27250,-10.36364558
1.27300,0.6233530956
1.27350,14.66229585
1.27400,24.4285169
1.27450,24.4285169
1.27500,16.18826789
1.27550,5.811658027
1.27600,-1.818202166
1.27650,-7.616895912
1.27700,-14.9415617
1.27750,-24.40258834
1.27800,-33.25322616
1.27850,-36.91555905
1.27900,-33.86361497
1.27950,-27.75972682
1.28000,-24.09739393
1.28050,-25.92856037
1.28100,-32.03244853
1.28150,-39.35711431
1.28200,-45.15580806
1.28250,-50.6493074
1.28300,-54.92202911
1.28350,-56.14280674
1.28400,-51.56489062
1.28450,-43.32464161
1.28500,-38.13633668
1.28550,-38.7467255
1.28600,-35.38958701
1.28650,-16.77272814
1.28700,17.40904552
1.28750,51.59081918
1.28800,70.20767805
1.28850,72.64923331
1.28900,68.37651161
1.28950,63.49340108
1.29000,55.25315207
1.29050,43.35057017
1.29100,35.41551557
1.29150,36.02590439
1.29200,37.85707084
1.29250,29.61682183
1.29300,12.525935
1.29350,0.3181586879
1.29400,3.064908357
1.29450,18.32462874
1.29500,35.11032117
1.29550,47.01290307
1.29600,51.59081918
1.29650,51.89601359
1.29700,53.11679122
1.29750,61.35704023
1.29800,75.70117739
1.29850,87.9089537
1.29900,91.57128659
1.29950,86.99337048
1.30000,76.61676061
1.30050,61.05184582
1.30100,41.82459814
1.30150,24.7337113
1.30200,13.74671263
1.30250,6.422046842
1.30300,-2.428590981
1.30350,-14.63636729
1.30400,-27.14933801
1.30450,-35.38958701
1.30500,-33.86361497
1.30550,-21.35064426
1.30600,-4.259757428
1.30650,5.201269211
1.30700,3.98049158
1.30750,-0.2922301275
1.30800,-1.818202166
1.30850,-3.344174205
1.30900,-7.616895912
1.30950,-10.36364558
1.31000,-5.785729466
1.31050,0.3181586879
1.31100,-2.733785389
1.31150,-24.40258834
1.31200,-58.584362
1.31250,-90.62977481
1.31300,-104.0583287
1.31350,-92.76613566
1.31400,-67.74019423
1.31450,-46.37658569
1.31500,-32.94803175
1.31550,-18.60389459
1.31600,2.454519542
1.31650,24.12332249
1.31700,38.77265406
1.31750,51.59081918
1.31800,71.42845568
1.31850,95.23361948
1.31900,112.0193119
1.31950,115.6816448
1.32000,110.7985343
1.32050,104.3894517
1.32100,99.8115356
1.32150,97.67517474
1.32200,95.53881389
1.32250,90.35050896
1.32300,80.58428791
1.32350,65.62976194
1.32400,43.96095899
1.32450,17.10385111
1.32500,-8.532479135
1.32550,-27.75972682
1.32600,-42.10386398
1.32650,-58.584362
1.32700,-77.20122087
1.32750,-88.79860836
1.32800,-87.27263632
1.32850,-77.50641528
1.32900,-67.74019423
1.32950,-63.77266693
1.33000,-67.12980541
1.33050,-75.98044324
1.33100,-82.69472021
1.33150,-77.50641528
1.33200,-59.49994522
1.33250,-36.91555905
1.33300,-17.68831137
1.33350,1.233741911
1.33400,23.81812808
1.33450,46.09731984
1.33500,60.74665141
1.33550,68.68170601
1.33600,76.31156621
1.33650,86.38298166
1.33700,95.8440083
1.33750,97.06478593
1.33800,86.07778725
1.33850,61.35704023
1.33900,28.09084979
1.33950,-4.870146243
1.34000,-32.03244853
1.34050,-50.6493074
1.34100,-59.49994522
1.34150,-56.14280674
1.34200,-41.18828076
1.34250,-21.96103307
1.34300,-7.006507097
1.34350,2.454519542
1.34400,10.08437973
1.34450,14.66229585
1.34500,12.525935
1.34550,3.064908357
1.34600,-8.532479135
1.34650,-18.60389459
1.34700,-25.62336597
1.34750,-27.14933801
1.34800,-23.18181071
1.34850,-17.07792255
1.34900,-16.46753374
1.34950,-23.79219952
1.35000,-34.7791982
1.35050,-46.6817801
1.35100,-61.94150048
1.35150,-79.94797054
1.35200,-92.46094125
1.35250,-90.3245804
1.35300,-77.50641528
1.35350,-68.96097186
1.35400,-73.23369357
1.35450,-80.86355376
1.35500,-78.11680409
1.35550,-63.77266693
1.35600,-52.78566825
1.35650,-54.92202911
1.35700,-63.77266693
1.35750,-66.5194166
1.35800,-60.41552844
1.35850,-54.31164029
1.35900,-51.87008503
1.35950,-46.98697451
1.36000,-34.7791982
1.36050,-18.909089
1.36100,-3.649368612
1.36150,12.8311294
1.36200,33.58434913
1.36250,51.89601359
1.36300,57.69470734
1.36350,50.06484714
1.36400,37.85707084
1.36450,28.7012386
1.36500,23.81812808
1.36550,19.54540637
1.36600,15.88307348
1.36650,14.05190703
1.36700,14.96749026
1.36750,16.7986567
1.36800,15.88307348
1.36850,10.99996296
1.36900,4.285685988
1.36950,0.3181586879
1.37000,0.3181586879
1.37050,2.149325134
1.37100,0.3181586879
1.37150,-7.92209032
1.37200,-21.35064426
1.37250,-32.33764294
1.37300,-35.08439261
1.37350,-29.59089327
1.37400,-22.57142189
1.37450,-17.99350577
1.37500,-11.2792288
1.37550,2.149325134
1.37600,18.32462874
1.37650,25.95448893
1.37700,21.37657282
1.37750,12.22074059
1.37800,6.422046842
1.37850,5.506463619
1.37900,8.863602104
1.37950,15.27268467
1.38000,20.766184
1.38050,20.766184
1.38100,14.35710144
1.38150,6.116852434
1.38200,-0.9026189429
1.38250,-7.92209032
1.38300,-11.2792288
1.38350,-6.090923874
1.38400,5.811658027
1.38450,14.96749026
1.38500,15.57787907
1.38550,11.91554618
1.38600,10.38957414
1.38650,7.337630065
1.38700,-1.207813351
1.38750,-13.11039525
1.38800,-18.60389459
1.38850,-14.63636729
1.38900,-7.006507097
1.38950,-1.513007758
1.39000,1.844130726
1.39050,7.337630065
1.39100,15.88307348
1.39150,27.78565538
1.39200,42.74018136
1.39250,58.61029056
1.39300,71.12326127
1.39350,76.92195502
1.39400,76.92195502
1.39450,75.09078857
1.39500,75.39598298
1.39550,79.66870469
1.39600,86.38298166
1.39650,89.74012014
1.39700,85.77259284
1.39750,73.56481654
1.39800,57.69470734
1.39850,41.82459814
1.39900,26.56487775
1.39950,12.525935
1.40000,2.75971395
1.40050,-1.818202166
1.40100,-4.564951835
1.40150,-6.701312689
1.40200,-5.785729466
1.40250,-2.428590981
1.40300,-4.870146243
1.40350,-21.04544985
1.40400,-45.46100247
1.40450,-64.07786134
1.40500,-71.40252712
1.40550,-72.31811035
1.40600,-71.40252712
1.40650,-65.60383338
1.40700,-54.92202911
1.40750,-51.56489062
1.40800,-64.99344456
1.40850,-88.49341395
1.40900,-104.973912
1.40950,-106.499884
1.41000,-99.17521822
1.41050,-90.3245804
1.41100,-82.3895258
1.41150,-77.20122087
1.41200,-79.03238731
1.41250,-83.61030343
1.41300,-77.81160968
1.41350,-50.95450181
1.41400,-10.66883999
1.41450,26.25968334
1.41500,52.81159681
1.41550,74.17520535
1.41600,93.40245304
1.41650,103.4738685
1.41700,101.9478965
1.41750,96.75959152
1.41800,95.8440083
1.41850,95.23361948
1.41900,85.77259284
1.41950,69.59728924
1.42000,55.86354089
1.42050,45.79212544
1.42100,31.44798827
1.42150,11.91554618
1.42200,-2.123396574
1.42250,-5.785729466
1.42300,-5.480535058
1.42350,-7.92209032
1.42400,-11.58442321
1.42450,-12.80520084
1.42500,-13.41558966
1.42550,-14.63636729
1.42600,-12.80520084
1.42650,-10.05845117
1.42700,-16.46753374
1.42750,-33.55842057
1.42800,-45.46100247
1.42850,-34.7791982
1.42900,-6.090923874
1.42950,21.98696163
1.43000,40.6038205
1.43050,56.77912411
1.43100,73.56481654
1.43150,85.46739844
1.43200,89.43492574
1.43250,93.09725863
1.43300,100.11673
1.43350,102.2530909
1.43400,89.43492574
1.43450,63.18820667
1.43500,33.58434913
1.43550,6.422046842
1.43600,-19.51947781
1.43650,-45.15580806
1.43700,-68.35058304
1.43750,-88.49341395
1.43800,-104.6687176
1.43850,-113.8245498
1.43900,-116.2661051
1.43950,-116.2661051
1.44000,-117.4868827
1.44050,-114.4349386
1.44100,-99.17521822
1.44150,-74.75966561
1.44200,-53.39605707
1.44250,-40.27269754
1.44300,-27.75972682
1.44350,-8.837673543
1.44400,10.99996296
1.44450,23.51293367
1.44500,29.00643301
1.44550,35.41551557
1.44600,43.04537577
1.44650,45.18173662
1.44700,37.85707084
1.44750,26.25968334
1.44800,16.18826789
1.44850,6.72724125
1.44900,-4.259757428
1.44950,-15.2467561
1.45000,-22.8766163
1.45050,-27.75972682
1.45100,-32.33764294
1.45150,-38.13633668
1.45200,-43.93503043
1.45250,-50.34411299
1.45300,-58.584362
1.45350,-69.57136068
1.45400,-84.83108106
1.45450,-104.6687176
1.45500,-125.7271317
1.45550,-140.3764633
1.45600,-144.649185
1.45650,-141.2920465
1.45700,-130.9154366
1.45750,-109.5518281
1.45800,-77.81160968
1.45850,-46.07139128
1.45900,-26.23375478
1.45950,-17.68831137
1.46000,-12.50000644
1.46050,-7.006507097
1.46100,-2.733785389
1.46150,0.3181586879
1.46200,5.201269211
1.46250,11.61035177
1.46300,14.96749026
1.46350,15.27268467
1.46400,18.93501756
1.46450,29.31162742
1.46500,41.51940373
1.46550,48.5388751
1.46600,47.01290307
1.46650,37.55187643
1.46700,23.20773927
1.46750,8.253213288
1.46800,-3.038979797
1.46850,-9.448062359
1.46900,-9.448062359
1.46950,0.01296428019
1.47000,18.62982315
1.47050,40.2986261
1.47100,55.86354089
1.47150,66.24015075
1.47200,78.14273265
1.47250,91.57128659
1.47300,97.06478593
1.47350,90.96089778
1.47400,81.19467673
1.47450,76.31156621
1.47500,71.73365009
1.47550,60.1362626
1.47600,44.5713478
1.47650,32.97396031
1.47700,27.17526657
1.47750,20.4609896
1.47800,11.30515737
1.47850,5.506463619
1.47900,5.811658027
1.47950,7.94801888
1.48000,10.99996296
1.48050,18.32462874
1.48100,29.31162742
1.48150,33.88954354
1.48200,22.59735045
1.48250,0.3181586879
1.48300,-20.43506104
1.48350,-31.42205971
1.48400,-32.33764294
1.48450,-25.92856037
1.48500,-14.33117288
1.48550,-1.513007758
1.48600,8.253213288
1.48650,14.96749026
1.48700,18.01943433
1.48750,18.01943433
1.48800,15.57787907
1.48850,12.8311294
1.48900,9.168796511
1.48950,-0.2922301275
1.49000,-17.68831137
1.49050,-35.08439261
1.49100,-41.18828076
1.49150,-33.55842057
1.49200,-17.99350577
1.49250,-1.513007758
1.49300,13.44151822
1.49350,29.31162742
1.49400,49.75965274
1.49450,78.44792706
1.49500,109.5777566
1.49550,127.8894211
1.49600,122.0907274
1.49650,96.14920271
1.49700,61.66223464
1.49750,24.4285169
1.49800,-13.11039525
1.49850,-44.24022484
1.49900,-59.19475081
1.49950,-59.80513963
1.50000,-57.36358437
1.50050,-57.66877878
1.50100,-54.31164029
1.50150,-43.01944721
1.50200,-31.42205971
1.50250,-28.98050445
1.50300,-35.69478142
1.50350,-43.32464161
1.50400,-46.6817801
1.50450,-46.07139128
1.50500,-41.18828076
1.50550,-28.06492123
1.50600,-4.259757428
1.50650,27.17526657
1.50700,56.77912411
1.50750,74.78559417
1.50800,79.66870469
1.50850,75.70117739
1.50900,65.93495634
1.50950,51.59081918
1.51000,35.72070998
1.51050,23.20773927
1.51100,14.35710144
1.51150,6.116852434
1.51200,1.538936319
1.51250,7.94801888
1.51300,21.68176723
1.51350,28.09084979
1.51400,17.40904552
1.51450,-0.9026189429
1.51500,-11.88961762
1.51550,-11.88961762
1.51600,-8.227284728
1.51650,-4.259757428
1.51700,4.285685988
1.51750,19.85060078
1.51800,40.6038205
1.51850,62.27262345
1.51900,80.27909351
1.51950,89.12973133
1.52000,91.26609218
1.52050,94.31803626
1.52100,97.67517474
1.52150,89.12973133
1.52200,60.44145701
1.52250,21.07137841
1.52300,-14.33117288
1.52350,-45.15580806
1.52400,-75.98044324
1.52450,-104.973912
1.52500,-123.2855764
1.52550,-130.9154366
1.52600,-134.5777695
1.52650,-137.0193248
1.52700,-135.1881583
1.52750,-128.4738814
1.52800,-117.1816883
1.52850,-98.87002382
1.52900,-73.23369357
1.52950,-48.20775214
1.53000,-32.33764294
1.53050,-21.04544985
1.53100,-6.396118282
1.53150,7.032435657
1.53200,7.337630065
1.53250,-3.95456302
1.53300,-14.02597847
1.53350,-17.38311696
1.53400,-24.09739393
1.53450,-39.35711431
1.53500,-50.95450181
1.53550,-49.73372418
1.53600,-45.76619688
1.53650,-51.25969621
1.53700,-61.94150048
1.53750,-62.5518893
1.53800,-49.12333536
1.53850,-30.8116709
1.53900,-14.9415617
1.53950,-2.123396574
1.54000,7.032435657
1.54050,10.99996296
1.54100,10.99996296
1.54150,10.38957414
1.54200,8.558407696
1.54250,3.370102765
1.54300,1.233741911
1.54350,8.558407696
1.54400,21.07137841
1.54450,24.12332249
1.54500,13.13632381
1.54550,-0.9026189429
1.54600,-8.837673543
1.54650,-12.80520084
1.54700,-21.35064426
1.54750,-34.16880938
1.54800,-43.32464161
1.54850,-44.54541924
1.54900,-39.96750313
1.54950,-32.94803175
1.55000,-26.8441436
1.55050,-22.8766163
1.55100,-20.74025544
1.55150,-18.29870018
1.55200,-16.46753374
1.55250,-21.35064426
1.55300,-37.22075346
1.55350,-58.27916759
1.55400,-69.87655508
1.55450,-62.24669489
1.55500,-39.35711431
1.55550,-15.55195051
1.55600,-2.428590981
1.55650,3.064908357
1.55700,13.13632381
1.55750,35.11032117
1.55800,64.40898431
1.55850,95.8440083
1.55900,131.551754
1.55950,172.4478046
1.56000,205.7139951
1.56050,213.3438553
1.56100,191.6750523
1.56150,158.7140563
1.56200,132.1621428
1.56250,112.3245063
1.56300,88.21414811
1.56350,57.69470734
1.56400,31.14279387
1.56450,15.27268467
1.56500,5.506463619
1.56550,-5.785729466
1.56600,-19.21428341
1.56650,-27.75972682
1.56700,-32.33764294
1.56750,-38.44153109
1.56800,-47.29216891
1.56850,-51.87008503
1.56900,-47.29216891
1.56950,-36.91555905
1.57000,-28.98050445
1.57050,-27.14933801
1.57100,-28.37011564
1.57150,-29.59089327
1.57200,-29.28569886
1.57250,-28.06492123
1.57300,-28.06492123
1.57350,-32.33764294
1.57400,-39.66230872
1.57450,-42.40905839
1.57500,-33.55842057
1.57550,-14.02597847
1.57600,9.168796511
1.57650,31.44798827
1.57700,50.06484714
1.57750,64.40898431
1.57800,75.09078857
1.57850,83.9414264
1.57900,91.57128659
1.57950,92.79206422
1.58000,84.55181521
1.58050,69.90248364
1.58100,56.1687353
1.58150,45.48693103
1.58200,34.19473794
1.58250,22.29215604
1.58300,17.10385111
1.58350,21.98696163
1.58400,26.25968334
1.58450,13.13632381
1.58500,-19.82467222
1.58550,-55.83761233
1.58600,-75.67524883
1.58650,-78.4219985
1.58700,-75.06486001
1.58750,-68.35058304
1.58800,-51.25969621
1.58850,-25.01297715
1.58900,-2.733785389
1.58950,11.91554618
1.59000,33.27915472
1.59050,70.51287246
1.59100,107.4413958
1.59150,119.0387833
1.59200,102.5582853
1.59250,76.31156621
1.59300,50.67523596
1.59350,18.62982315
1.59400,-24.40258834
1.59450,-69.57136068
1.59500,-104.0583287
1.59550,-124.8115485
1.59600,-136.408936
1.59650,-140.3764633
1.59700,-136.408936
1.59750,-125.7271317
1.59800,-108.6362449
1.59850,-84.22069225
1.59900,-56.44800114
1.59950,-32.03244853
1.60000,-12.80520084
1.60050,5.506463619
1.60100,24.4285169
1.60150,35.72070998
1.60200,32.97396031
1.60250,21.98696163
1.60300,12.525935
1.60350,9.473990919
1.60400,9.779185327
1.60450,12.22074059
1.60500,18.01943433
1.60550,25.64929453
1.60600,31.44798827
1.60650,33.58434913
1.60700,36.6362932
1.60750,46.09731984
1.60800,59.52587378
1.60850,67.46092838
1.60900,61.05184582
1.60950,41.51940373
1.61000,17.71423993
1.61050,-2.428590981
1.61100,-16.46753374
1.61150,-22.8766163
1.61200,-19.82467222
1.61250,-8.227284728
1.61300,6.72724125
1.61350,20.766184
1.61400,32.97396031
1.61450,46.09731984
1.61500,65.32456753
1.61550,94.31803626
1.61600,129.1101987
1.61650,154.1361402
1.61700,151.6945849
1.61750,118.7335889
1.61800,71.12326127
1.61850,27.78565538
1.61900,-3.649368612
1.61950,-23.79219952
1.62000,-32.94803175
1.62050,-32.64283734
1.62100,-31.42205971
1.62150,-36.91555905
1.62200,-47.59736332
1.62250,-58.88955641
1.62300,-71.70772153
1.62350,-88.49341395
1.62400,-100.7011903
1.62450,-93.98691329
1.62500,-65.90902778
1.62550,-32.33764294
1.62600,-10.36364558
1.62650,-3.95456302
1.62700,-7.006507097
1.62750,-12.80520084
1.62800,-19.82467222
1.62850,-28.98050445
1.62900,-43.93503043
1.62950,-65.60383338
1.63000,-90.01938599
1.63050,-108.6362449
1.63100,-118.7076603
1.63150,-122.980382
1.63200,-123.8959652
1.63250,-119.6232435
1.63300,-108.3310505
1.63350,-91.85055244
1.63400,-73.23369357
1.63450,-50.6493074
1.63500,-24.09739393
1.63550,0.3181586879
1.63600,16.7986567
1.63650,27.48046097
1.63700,37.85707084
1.63750,52.201208
1.63800,68.68170601
1.63850,82.41545436
1.63900,86.68817607
1.63950,76.31156621
1.64000,53.72718004
1.64050,29.00643301
1.64100,10.69476855
1.64150,0.6233530956
1.64200,-5.480535058
1.64250,-12.19481203
1.64300,-19.82467222
1.64350,-27.14933801
1.64400,-31.11686531
1.64450,-30.50647649
1.64500,-28.98050445
1.64550,-34.16880938
1.64600,-46.6817801
1.64650,-57.05838996
1.64700,-59.19475081
1.64750,-56.14280674
1.64800,-54.6168347
1.64850,-54.31164029
1.64900,-51.87008503
1.64950,-50.6493074
1.65000,-54.92202911
1.65050,-58.584362
1.65100,-50.6493074
1.65150,-29.28569886
1.65200,-4.564951835
1.65250,16.18826789
1.65300,36.6362932
1.65350,58.61029056
1.65400,76.61676061
1.65450,85.16220403
1.65500,87.60375929
1.65550,91.26609218
1.65600,99.50634119
1.65650,107.7465902
1.65700,109.2725622
1.65750,99.8115356
1.65800,82.11025995
1.65850,64.1037899
1.65900,52.5064024
1.65950,44.5713478
1.66000,32.6687659
1.66050,15.27268467
1.66100,-2.428590981
1.66150,-19.51947781
1.66200,-38.44153109
1.66250,-54.31164029
1.66300,-55.22722351
1.66350,-37.22075346
1.66400,-14.02597847
1.66450,-5.785729466
1.66500,-13.11039525
1.66550,-19.82467222
1.66600,-12.80520084
1.66650,2.75971395
1.66700,16.18826789
1.66750,25.64929453
1.66800,41.21420932
1.66850,66.24015075
1.66900,90.35050896
1.66950,101.0323132
1.67000,99.8115356
1.67050,99.8115356
1.67100,107.7465902
1.67150,114.4608672
1.67200,106.5258126
1.67250,85.16220403
1.67300,63.49340108
1.67350,45.48693103
1.67400,22.59735045
1.67450,-9.753256766
1.67500,-38.44153109
1.67550,-45.15580806
1.67600,-25.31817156
1.67650,9.168796511
1.67700,44.2661534
1.67750,68.37651161
1.67800,71.73365009
1.67850,53.42198563
1.67900,24.4285169
1.67950,1.538936319
1.68000,-11.2792288
1.68050,-21.65583867
1.68100,-35.69478142
1.68150,-51.25969621
1.68200,-63.46747252
1.68250,-67.43499982
1.68300,-57.05838996
1.68350,-30.8116709
1.68400,-2.428590981
1.68450,10.99996296
1.68500,6.116852434
1.68550,-7.006507097
1.68600,-21.35064426
1.68650,-39.35711431
1.68700,-58.88955641
1.68750,-69.57136068
1.68800,-66.82461101
1.68850,-58.27916759
1.68900,-49.73372418
1.68950,-36.30517024
1.69000,-16.16233933
1.69050,0.9285475033
1.69100,4.896074803
1.69150,0.3181586879
1.69200,-1.818202166
1.69250,-0.9026189429
1.69300,-2.733785389
1.69350,-7.92209032
1.69400,-10.36364558
1.69450,-9.142867951
1.69500,-7.006507097
1.69550,-2.733785389
1.69600,5.201269211
1.69650,12.525935
1.69700,10.99996296
1.69750,-0.5974245352
1.69800,-17.99350577
1.69850,-35.99997583
1.69900,-51.56489062
1.69950,-60.41552844
1.70000,-61.94150048
1.70050,-61.94150048
1.70100,-64.38305574
1.70150,-64.68825015
1.70200,-58.584362
1.70250,-48.51294654
1.70300,-37.22075346
1.70350,-20.74025544
1.70400,1.844130726
1.70450,21.37657282
1.70500,27.17526657
1.70550,22.90254486
1.70600,21.07137841
1.70650,23.20773927
1.70700,18.32462874
1.70750,2.75971395
1.70800,-14.33117288
1.70850,-20.74025544
1.70900,-13.72078407
1.70950,2.149325134
1.71000,22.29215604
1.71050,42.74018136
1.71100,61.66223464
1.71150,80.27909351
1.71200,102.8634797
1.71250,130.9413652
1.71300,157.7984731
1.71350,168.1750829
1.71400,149.2530296
1.71450,105.3050349
1.71500,58.30509615
1.71550,28.7012386
1.71600,12.525935
1.71650,-11.2792288
1.71700,-55.83761233
1.71750,-109.2466337
1.71800,-153.8050172
1.71850,-186.4608188
1.71900,-209.9607882
1.71950,-221.5581757
1.72000,-213.9283155
1.72050,-190.7335405
1.72100,-162.655655
1.72150,-133.3569919
1.72200,-97.95444059
1.72250,-57.36358437
1.72300,-23.18181071
1.72350,-2.123396574
1.72400,12.22074059
1.72450,25.34410012
1.72500,32.6687659
1.72550,31.14279387
1.72600,33.58434913
1.72650,50.98043037
1.72700,74.48039976
1.72750,83.63623199
1.72800,74.78559417
1.72850,65.32456753
1.72900,68.68170601
1.72950,78.75312147
1.73000,84.55181521
1.73050,86.99337048
1.73100,91.57128659
1.73150,94.92842508
1.73200,91.26609218
1.73250,84.85700962
1.73300,84.24662081
1.73350,89.43492574
1.73400,93.70764744
1.73450,93.40245304
1.73500,87.29856488
1.73550,71.12326127
1.73600,43.04537577
1.73650,12.22074059
1.73700,-9.448062359
1.73750,-21.65583867
1.73800,-29.28569886
1.73850,-31.72725412
1.73900,-25.31817156
1.73950,-14.02597847
1.74000,-7.006507097
1.74050,-6.396118282
1.74100,-6.701312689
1.74150,-7.92209032
1.74200,-15.2467561
1.74250,-23.48700511
1.74300,-20.74025544
1.74350,-4.259757428
1.74400,10.99996296
1.74450,14.05190703
1.74500,10.69476855
1.74550,11.91554618
1.74600,16.18826789
1.74650,12.8311294
1.74700,1.538936319
1.74750,-5.480535058
1.74800,-0.2922301275
1.74850,14.05190703
1.74900,31.75318268
1.74950,50.37004155
1.75000,69.59728924
1.75050,86.68817607
1.75100,97.67517474
1.75150,101.0323132
1.75200,98.28556356
1.75250,90.96089778
1.75300,81.19467673
1.75350,72.0388445
1.75400,59.52587378
1.75450,39.68823728
1.75500,14.35710144
1.75550,-5.785729466
1.75600,-16.77272814
1.75650,-25.31817156
1.75700,-38.44153109
1.75750,-51.25969621
1.75800,-54.92202911
1.75850,-50.95450181
1.75900,-45.15580806
1.75950,-36.30517024
1.76000,-18.60389459
1.76050,5.811658027
1.76100,30.83759946
1.76150,56.1687353
1.76200,86.38298166
1.76250,120.5647553
1.76300,150.1686129
1.76350,170.3114438
1.76400,179.467276
1.76450,172.4478046
1.76500,143.7595303
1.76550,99.50634119
1.76600,55.86354089
1.76650,18.32462874
1.76700,-21.04544985
1.76750,-64.68825015
1.76800,-97.34405178
1.76850,-104.3635232
1.76900,-92.15574685
1.76950,-75.67524883
1.77000,-57.36358437
1.77050,-28.37011564
1.77100,8.253213288
1.77150,33.88954354
1.77200,36.6362932
1.77250,29.92201623
1.77300,35.41551557
1.77350,55.25315207
1.77400,69.59728924
1.77450,64.1037899
1.77500,44.5713478
1.77550,28.7012386
1.77600,24.4285169
1.77650,27.17526657
1.77700,30.22721064
1.77750,33.88954354
1.77800,41.21420932
1.77850,50.98043037
1.77900,58.91548497
1.77950,61.05184582
1.78000,57.69470734
1.78050,51.59081918
1.78100,46.09731984
1.78150,40.90901491
1.78200,33.27915472
1.78250,23.20773927
1.78300,13.74671263
1.78350,10.08437973
1.78400,11.61035177
1.78450,10.69476855
1.78500,-2.123396574
1.78550,-27.75972682
1.78600,-55.22722351
1.78650,-74.14927679
1.78700,-84.83108106
1.78750,-93.68171888
1.78800,-100.7011903
1.78850,-95.81807974
1.78900,-77.50641528
1.78950,-57.66877878
1.79000,-48.20775214
1.79050,-46.07139128
1.79100,-39.35711431
1.79150,-24.70778274
1.79200,-8.227284728
1.79250,6.116852434
1.79300,18.62982315
1.79350,27.48046097
1.79400,30.83759946
1.79450,32.3635715
1.79500,35.72070998
1.79550,35.72070998
1.79600,23.20773927
1.79650,-0.5974245352
1.79700,-26.8441436
1.79750,-47.29216891
1.79800,-58.584362
1.79850,-57.97397318
1.79900,-46.37658569
1.79950,-32.33764294
1.80000,-24.09739393
1.80050,-11.2792288
1.80100,25.03890571
1.80150,87.60375929
1.80200,151.3893905
1.80250,193.5062188
1.80300,219.142549
1.80350,252.103545
1.80400,299.4086782
1.80450,335.7268128
1.80500,325.9605917
1.80550,259.4282108
1.80600,155.3569178
1.80650,43.96095899
1.80700,-54.31164029
1.80750,-131.5258254
1.80800,-181.5777083
1.80850,-204.7724833
1.80900,-209.9607882
1.80950,-206.9088441
1.81000,-195.6166511
1.81050,-169.0647376
1.81100,-130.6102422
1.81150,-93.68171888
1.81200,-66.21422219
1.81250,-43.32464161
1.81300,-22.26622748
1.81350,-11.2792288
1.81400,-16.46753374
1.81450,-30.8116709
1.81500,-41.18828076
1.81550,-44.24022484
1.81600,-40.27269754
1.81650,-24.09739393
1.81700,7.94801888
1.81750,47.31809747
1.81800,72.34403891
1.81850,67.15573397
1.81900,32.97396031
1.81950,-15.2467561
1.82000,-59.80513963
1.82050,-91.85055244
1.82100,-116.8764939
1.82150,-142.5128241
1.82200,-165.7075991
1.82250,-173.6426537
1.82300,-162.655655
1.82350,-139.1556856
1.82400,-108.6362449
1.82450,-72.01291594
1.82500,-40.57789194
1.82550,-33.55842057
1.82600,-51.56489062
1.82650,-71.09733271
1.82700,-74.4544712
1.82750,-69.57136068
1.82800,-71.09733271
1.82850,-71.09733271
1.82900,-53.70125148
1.82950,-26.8441436
1.83000,-10.36364558
1.83050,-8.532479135
1.83100,-8.227284728
1.83150,-3.344174205
1.83200,0.6233530956
1.83250,6.116852434
1.83300,23.81812808
1.83350,53.42198563
1.83400,79.9738991
1.83450,90.65570337
1.83500,85.16220403
1.83550,67.46092838
1.83600,39.07784847
1.83650,8.558407696
1.83700,-11.2792288
1.83750,-17.68831137
1.83800,-20.12986663
1.83850,-27.75972682
1.83900,-39.66230872
1.83950,-51.25969621
1.84000,-58.27916759
1.84050,-57.66877878
1.84100,-48.51294654
1.84150,-37.22075346
1.84200,-33.86361497
1.84250,-40.88308635
1.84300,-48.51294654
1.84350,-46.98697451
1.84400,-36.30517024
1.84450,-24.40258834
1.84500,-17.38311696
1.84550,-11.58442321
1.84600,-1.818202166
1.84650,9.473990919
1.84700,13.74671263
1.84750,9.168796511
1.84800,5.811658027
1.84850,11.30515737
1.84900,15.27268467
1.84950,5.506463619
1.85000,-11.88961762
1.85050,-19.51947781
1.85100,-13.11039525
1.85150,-7.616895912
1.85200,-9.142867951
1.85250,-9.142867951
1.85300,-1.818202166
1.85350,-1.513007758
1.85400,-21.35064426
1.85450,-50.03891858
1.85500,-62.85708371
1.85550,-51.87008503
1.85600,-34.7791982
1.85650,-28.98050445
1.85700,-33.55842057
1.85750,-33.86361497
1.85800,-23.48700511
1.85850,-11.2792288
1.85900,-7.311701505
1.85950,-9.753256766
1.86000,-4.564951835
1.86050,14.35710144
1.86100,37.24668202
1.86150,50.67523596
1.86200,54.94795767
1.86250,59.52587378
1.86300,67.76612279
1.86350,75.39598298
1.86400,79.05831587
1.86450,82.41545436
1.86500,86.07778725
1.86550,85.16220403
1.86600,77.53234384
1.86650,66.54534516
1.86700,54.64276326
1.86750,39.38304287
1.86800,17.40904552
1.86850,-8.227284728
1.86900,-30.50647649
1.86950,-41.18828076
1.87000,-41.18828076
1.87050,-37.22075346
1.87100,-36.61036464
1.87150,-36.91555905
1.87200,-30.8116709
1.87250,-16.16233933
1.87300,-3.038979797
1.87350,-0.5974245352
1.87400,-5.175340651
1.87450,-8.837673543
1.87500,-9.753256766
1.87550,-10.05845117
1.87600,-4.870146243
1.87650,11.30515737
1.87700,32.05837709
1.87750,40.90901491
1.87800,38.16226524
1.87850,39.38304287
1.87900,50.37004155
1.87950,55.55834648
1.88000,42.74018136
1.88050,24.7337113
1.88100,22.59735045
1.88150,37.85707084
1.88200,57.38951293
1.88250,75.39598298
1.88300,91.26609218
1.88350,93.40245304
1.88400,65.62976194
1.88450,17.40904552
1.88500,-17.38311696
1.88550,-21.04544985
1.88600,-8.227284728
1.88650,-3.649368612
1.88700,-14.63636729
1.88750,-34.47400379
1.88800,-59.19475081
1.88850,-86.96744191
1.88900,-111.0778001
1.88950,-123.8959652
1.89000,-126.3375205
1.89050,-125.4219373
1.89100,-126.9479093
1.89150,-137.0193248
1.89200,-158.3829333
1.89250,-181.8829027
1.89300,-190.1231517
1.89350,-177.610181
1.89400,-156.8569613
1.89450,-138.2401024
1.89500,-116.5712995
1.89550,-86.05185869
1.89600,-52.48047384
1.89650,-18.909089
1.89700,24.4285169
1.89750,83.63623199
1.89800,136.4348645
1.89850,153.8309458
1.89900,135.2140869
1.89950,107.4413958
1.90000,90.04531455
1.90050,81.80506554
1.90100,73.56481654
1.90150,61.35704023
1.90200,42.74018136
1.90250,16.4934623
1.90300,-6.701312689
1.90350,-12.19481203
1.90400,-3.038979797
1.90450,-0.2922301275
1.90500,-14.33117288
1.90550,-36.61036464
1.90600,-57.66877878
1.90650,-79.94797054
1.90700,-103.1427455
1.90750,-112.9089666
1.90800,-99.78560704
1.90850,-75.98044324
1.90900,-61.02591726
1.90950,-57.05838996
1.91000,-53.70125148
1.91050,-44.24022484
1.91100,-27.14933801
1.91150,0.3181586879
1.91200,35.11032117
1.91250,60.1362626
1.91300,62.88301227
1.91350,53.11679122
1.91400,50.67523596
1.91450,58.61029056
1.91500,63.18820667
1.91550,56.1687353
1.91600,42.74018136
1.91650,28.3960442
1.91700,11.91554618
1.91750,-3.344174205
1.91800,-11.88961762
1.91850,-14.63636729
1.91900,-17.99350577
1.91950,-22.8766163
1.92000,-21.96103307
1.92050,-18.29870018
1.92100,-23.18181071
1.92150,-37.52594787
1.92200,-43.32464161
1.92250,-26.53894919
1.92300,2.149325134
1.92350,22.29215604
1.92400,26.56487775
1.92450,19.24021197
1.92500,5.506463619
1.92550,-8.532479135
1.92600,-12.80520084
1.92650,1.538936319
1.92700,27.17526657
1.92750,46.40251425
1.92800,52.201208
1.92850,54.64276326
1.92900,63.79859549
1.92950,78.14273265
1.93000,90.04531455
1.93050,98.28556356
1.93100,103.7790629
1.93150,106.2206182
1.93200,102.2530909
1.93250,89.12973133
1.93300,65.62976194
1.93350,33.88954354
1.93400,3.064908357
1.93450,-16.16233933
1.93500,-24.09739393
1.93550,-30.20128208
1.93600,-38.44153109
1.93650,-40.57789194
1.93700,-31.72725412
1.93750,-23.48700511
1.93800,-28.06492123
1.93850,-39.66230872
1.93900,-43.62983602
1.93950,-38.13633668
1.94000,-37.52594787
1.94050,-49.42852977
1.94100,-64.07786134
1.94150,-68.65577745
1.94200,-64.07786134
1.94250,-59.49994522
1.94300,-58.88955641
1.94350,-59.80513963
1.94400,-58.88955641
1.94450,-56.75319555
1.94500,-54.00644588
1.94550,-50.6493074
1.94600,-43.32464161
1.94650,-25.31817156
1.94700,5.811658027
1.94750,43.96095899
1.94800,72.64923331
1.94850,79.05831587
1.94900,63.18820667
1.94950,38.77265406
1.95000,21.07137841
1.95050,15.88307348
1.95100,14.05190703
1.95150,5.201269211
1.95200,-8.227284728
1.95250,-15.55195051
1.95300,-17.68831137
1.95350,-30.8116709
1.95400,-59.80513963
1.95450,-84.52588665
1.95500,-85.13627547
1.95550,-68.04538864
1.95600,-52.48047384
1.95650,-36.30517024
1.95700,-1.207813351
1.95750,50.06484714
1.95800,92.48686981
1.95850,113.5452839
1.95900,132.1621428
1.95950,163.5971668
1.96000,194.1166076
1.96050,198.6945237
1.96100,177.6361096
1.96150,152.6101681
1.96200,137.3504477
1.96250,126.0582547
1.96300,106.5258126
1.96350,72.0388445
1.96400,22.59735045
1.96450,-35.69478142
1.96500,-95.20769092
1.96550,-146.4803514
1.96600,-180.0517363
1.96650,-184.9348468
1.96700,-157.4673501
1.96750,-110.7726057
1.96800,-67.74019423
1.96850,-41.49347517
1.96900,-27.14933801
1.96950,-17.07792255
1.97000,-9.753256766
1.97050,-3.95456302
1.97100,3.675297173
1.97150,11.61035177
1.97200,13.74671263
1.97250,11.61035177
1.97300,13.13632381
1.97350,14.35710144
1.97400,-3.344174205
1.97450,-46.98697451
1.97500,-96.42846855
1.97550,-130.6102422
1.97600,-151.3634619
1.97650,-168.1491544
1.97700,-171.2010984
1.97750,-143.7336017
1.97800,-93.98691329
1.97850,-54.92202911
1.97900,-46.07139128
1.97950,-52.78566825
1.98000,-52.17527944
1.98050,-42.10386398
1.98100,-34.16880938
1.98150,-29.59089327
1.98200,-19.51947781
1.98250,-4.870146243
1.98300,1.538936319
1.98350,-5.785729466
1.98400,-18.29870018
1.98450,-23.79219952
1.98500,-19.21428341
1.98550,-7.92209032
1.98600,5.201269211
1.98650,14.35710144
1.98700,13.74671263
1.98750,11.30515737
1.98800,27.78565538
1.98850,72.0388445
1.98900,123.6166994
1.98950,150.4738073
1.99000,146.8114744
1.99050,135.5192813
1.99100,137.0452533
1.99150,145.5906968
1.99200,140.4023918
1.99250,111.4089231
1.99300,64.1037899
1.99350,13.13632381
1.99400,-28.06492123
1.99450,-56.44800114
1.99500,-78.72719291
1.99550,-102.2271623
1.99600,-121.7596044
1.99650,-121.7596044
1.99700,-98.56482941
1.99750,-67.74019423
1.99800,-50.03891858
1.99850,-51.87008503
1.99900,-65.29863897
1.99950,-78.4219985
2.00000,-80.25316495
2.00050,-65.29863897
2.00100,-38.7467255
2.00150,-16.46753374
2.00200,-8.227284728
2.00250,-8.837673543
2.00300,-3.649368612
2.00350,9.779185327
2.00400,20.15579519
2.00450,17.71423993
2.00500,8.558407696
2.00550,3.370102765
2.00600,3.064908357
2.00650,0.3181586879
2.00700,-4.564951835
2.00750,0.3181586879
2.00800,20.15579519
2.00850,42.12979254
2.00900,51.89601359
2.00950,52.5064024
2.01000,57.08431852
2.01050,68.68170601
2.01100,77.83753824
2.01150,78.14273265
2.01200,71.73365009
2.01250,60.44145701
2.01300,43.96095899
2.01350,29.92201623
2.01400,27.78565538
2.01450,32.6687659
2.01500,29.31162742
2.01550,14.96749026
2.01600,3.675297173
2.01650,2.454519542
2.01700,-3.649368612
2.01750,-31.11686531
2.01800,-75.06486001
2.01850,-116.5712995
2.01900,-143.7336017
2.01950,-153.4998228
2.02000,-144.9543794
2.02050,-123.5907708
2.02100,-100.0908014
2.02150,-79.03238731
2.02200,-50.95450181
2.02250,-9.448062359
2.02300,37.55187643
2.02350,78.14273265
2.02400,109.2725622
2.02450,134.6036981
2.02500,155.3569178
2.02550,169.701055
2.02600,176.4153319
2.02650,169.3958606
2.02700,140.7075862
2.02750,99.8115356
2.02800,72.0388445
2.02850,73.56481654
2.02900,90.04531455
2.02950,93.70764744
2.03000,71.73365009
2.03050,31.44798827
2.03100,-13.41558966
2.03150,-50.95450181
2.03200,-74.4544712
2.03250,-84.52588665
2.03300,-85.13627547
2.03350,-75.37005442
2.03400,-54.6168347
2.03450,-31.11686531
2.03500,-19.21428341
2.03550,-19.21428341
2.03600,-17.07792255
2.03650,-6.396118282
2.03700,2.454519542
2.03750,3.064908357
2.03800,2.75971395
2.03850,10.08437973
2.03900,23.20773927
2.03950,37.55187643
2.04000,53.72718004
2.04050,68.37651161
2.04100,68.0713172
2.04150,45.48693103
2.04200,10.99996296
2.04250,-16.77272814
2.04300,-33.55842057
2.04350,-49.42852977
2.04400,-75.06486001
2.04450,-108.3310505
2.04500,-137.0193248
2.04550,-145.5647682
2.04600,-129.9998534
2.04650,-103.1427455
2.04700,-83.30510902
2.04750,-78.72719291
2.04800,-84.83108106
2.04850,-93.37652448
2.04900,-97.03885737
2.04950,-87.27263632
2.05000,-53.70125148
2.05050,1.233741911
2.05100,59.83106819
2.05150,99.8115356
2.05200,115.6816448
2.05250,119.3439777
2.05300,125.4478658
2.05350,136.7400589
2.05400,147.4218632
2.05450,151.3893905
2.05500,148.3374464
2.05550,137.9608366
2.05600,117.8180057
2.05650,85.77259284
2.05700,41.21420932
2.05750,-16.46753374
2.05800,-83.61030343
2.05850,-143.4284073
2.05900,-175.1686257
2.05950,-173.0322649
2.06000,-156.8569613
2.06050,-151.0582675
2.06100,-160.8244886
2.06150,-169.0647376
2.06200,-157.7725445
2.06250,-125.4219373
2.06300,-86.05185869
2.06350,-53.70125148
2.06400,-30.20128208
2.06450,-6.090923874
2.06500,25.34410012
2.06550,57.99990174
2.06600,77.22714943
2.06650,79.36351028
2.06700,75.70117739
2.06750,73.56481654
2.06800,69.29209483
2.06850,56.4739297
2.06900,38.46745965
2.06950,24.7337113
2.07000,18.93501756
2.07050,15.27268467
2.07100,7.642824473
2.07150,-4.259757428
2.07200,-14.63636729
2.07250,-17.07792255
2.07300,-11.88961762
2.07350,-3.038979797
2.07400,9.168796511
2.07450,26.56487775
2.07500,40.90901491
2.07550,35.72070998
2.07600,8.253213288
2.07650,-22.8766163
2.07700,-34.16880938
2.07750,-23.18181071
2.07800,-5.785729466
2.07850,7.94801888
2.07900,22.90254486
2.07950,43.65576458
2.08000,63.18820667
2.08050,70.81806687
2.08100,63.49340108
2.08150,49.75965274
2.08200,38.16226524
2.08250,29.92201623
2.08300,18.93501756
2.08350,3.370102765
2.08400,-8.532479135
2.08450,-10.05845117
2.08500,-5.480535058
2.08550,-8.837673543
2.08600,-26.53894919
2.08650,-51.56489062
2.08700,-77.50641528
2.08750,-102.8375511
2.08800,-121.45441
2.08850,-121.45441
2.08900,-100.3959959
2.08950,-70.18174949
2.09000,-43.62983602
2.09050,-16.46753374
2.09100,18.62982315
2.09150,56.77912411
2.09200,84.85700962
2.09250,101.0323132
2.09300,112.6297007
2.09350,118.4283945
2.09400,112.6297007
2.09450,99.8115356
2.09500,96.45439711
2.09550,112.0193119
2.09600,138.5712254
2.09650,163.2919724
2.09700,179.467276
2.09750,184.6555809
2.09800,173.3633879
2.09850,146.50628
2.09900,114.1556728
2.09950,86.38298166
2.10000,64.1037899
2.10050,41.82459814
2.10100,21.98696163
2.10150,11.61035177
2.10200,12.525935
2.10250,14.96749026
2.10300,7.642824473
2.10350,-10.05845117
2.10400,-28.37011564
2.10450,-33.55842057
2.10500,-21.65583867
2.10550,2.75971395
2.10600,31.44798827
2.10650,57.99990174
2.10700,77.83753824
2.10750,85.77259284
2.10800,80.58428791
2.10850,66.24015075
2.10900,43.04537577
2.10950,0.6233530956
2.11000,-67.12980541
2.11050,-144.649185
2.11100,-200.804956
2.11150,-222.7789533
2.11200,-226.7464806
2.11250,-234.6815352
2.11300,-244.7529507
2.11350,-239.5646458
2.11400,-210.571177
2.11450,-164.1816271
2.11500,-110.1622169
2.11550,-56.44800114
2.11600,-17.07792255
2.11650,-3.95456302
2.11700,-8.837673543
2.11750,-3.95456302
2.11800,25.03890571
2.11850,58.61029056
2.11900,63.49340108
2.11950,31.14279387
2.12000,-11.88961762
2.12050,-38.13633668
2.12100,-44.85061365
2.12150,-48.20775214
2.12200,-59.49994522
2.12250,-72.62330475
2.12300,-78.72719291
2.12350,-75.67524883
2.12400,-63.77266693
2.12450,-39.66230872
2.12500,-2.428590981
2.12550,35.11032117
2.12600,55.25315207
2.12650,56.4739297
2.12700,55.86354089
2.12750,64.40898431
2.12800,70.20767805
2.12850,56.1687353
2.12900,29.00643301
2.12950,12.22074059
2.13000,13.74671263
2.13050,18.01943433
2.13100,12.525935
2.13150,4.590880396
2.13200,2.454519542
2.13250,0.3181586879
2.13300,-7.92209032
2.13350,-10.05845117
2.13400,4.590880396
2.13450,24.7337113
2.13500,28.7012386
2.13550,11.91554618
2.13600,-12.50000644
2.13650,-35.69478142
2.13700,-54.00644588
2.13750,-63.16227811
2.13800,-58.584362
2.13850,-46.98697451
2.13900,-35.38958701
2.13950,-21.65583867
2.14000,-3.038979797
2.14050,8.253213288
2.14100,0.3181586879
2.14150,-16.77272814
2.14200,-22.57142189
2.14250,-17.07792255
2.14300,-19.82467222
2.14350,-36.30517024
2.14400,-49.73372418
2.14450,-46.07139128
2.14500,-24.09739393
2.14550,18.62982315
2.14600,82.72064877
2.14650,147.7270576
2.14700,183.4348033
2.14750,187.707525
2.14800,185.8763586
2.14850,191.3698579
2.14900,188.9283026
2.14950,165.7335277
2.15000,135.5192813
2.15050,114.1556728
2.15100,94.62323067
2.15150,66.54534516
2.15200,41.51940373
2.15250,37.24668202
2.15300,45.48693103
2.15350,41.82459814
2.15400,20.15579519
2.15450,-2.733785389
2.15500,-17.07792255
2.15550,-32.64283734
2.15600,-57.97397318
2.15650,-86.66224751
2.15700,-107.4154672
2.15750,-117.4868827
2.15800,-120.2336324
2.15850,-115.9609106
2.15900,-102.8375511
2.15950,-79.94797054
2.16000,-45.15580806
2.16050,0.3181586879
2.16100,41.21420932
2.16150,54.33756885
2.16200,35.72070998
2.16250,8.558407696
2.16300,-0.9026189429
2.16350,8.863602104
2.16400,22.90254486
2.16450,29.61682183
2.16500,30.53240505
2.16550,28.09084979
2.16600,24.12332249
2.16650,28.7012386
2.16700,53.11679122
2.16750,89.74012014
2.16800,112.9348951
2.16850,104.6946461
2.16900,74.78559417
2.16950,44.5713478
2.17000,22.90254486
2.17050,2.149325134
2.17100,-24.70778274
2.17150,-55.22722351
2.17200,-80.25316495
2.17250,-89.71419158
2.17300,-77.50641528
2.17350,-42.7142528
2.17400,3.675297173
2.17450,46.09731984
2.17500,70.81806687
2.17550,76.31156621
2.17600,68.68170601
2.17650,55.55834648
2.17700,40.90901491
2.17750,24.12332249
2.17800,3.675297173
2.17850,-14.63636729
2.17900,-18.909089
2.17950,-3.649368612
2.18000,16.7986567
2.18050,23.51293367
2.18100,16.18826789
2.18150,10.38957414
2.18200,12.8311294
2.18250,14.66229585
2.18300,14.05190703
2.18350,23.51293367
2.18400,45.48693103
2.18450,58.91548497
2.18500,49.14926392
2.18550,37.85707084
2.18600,52.5064024
2.18650,83.33103758
2.18700,95.8440083
2.18750,80.58428791
2.18800,61.96742904
2.18850,54.94795767
2.18900,43.96095899
2.18950,9.473990919
2.19000,-43.01944721
2.19050,-98.259635
2.19100,-144.9543794
2.19150,-176.3894034
2.19200,-187.6815965
2.19250,-184.6296524
2.19300,-180.9673195
2.19350,-179.4413474
2.19400,-172.7270705
2.19450,-160.5192942
2.19500,-155.0257948
2.19550,-161.4348774
2.19600,-169.9803208
2.19650,-175.7790146
2.19700,-184.0192636
2.19750,-193.4802902
2.19800,-188.5971797
2.19850,-162.655655
2.19900,-126.6427149
2.19950,-90.62977481
2.20000,-50.34411299
2.20050,-6.701312689
2.20100,21.37657282
2.20150,23.81812808
2.20200,21.68176723
2.20250,38.77265406
2.20300,63.79859549
2.20350,61.35704023
2.20400,24.7337113
2.20450,-9.448062359
2.20500,-4.564951835
2.20550,34.49993235
2.20600,72.64923331
2.20650,80.27909351
2.20700,53.42198563
2.20750,7.337630065
2.20800,-39.35711431
2.20850,-75.06486001
2.20900,-96.42846855
2.20950,-108.3310505
2.21000,-114.1297442
2.21050,-108.6362449
2.21100,-84.52588665
2.21150,-45.15580806
2.21200,-3.95456302
2.21250,26.87007216
2.21300,46.70770866
2.21350,65.62976194
2.21400,94.01284185
2.21450,131.2465596
2.21500,164.51275
2.21550,176.7205263
2.21600,164.8179444
2.21650,144.0647247
2.21700,135.5192813
2.21750,143.1491415
2.21800,153.5257514
2.21850,156.272501
2.21900,155.3569178
2.21950,156.8828898
2.22000,155.9673066
2.22050,146.50628
2.22100,136.4348645
2.22150,137.9608366
2.22200,146.2010856
2.22250,141.317975
2.22300,118.1232001
2.22350,91.876481
2.22400,73.25962213
2.22450,52.81159681
2.22500,18.62982315
2.22550,-27.45453241
2.22600,-74.75966561
2.22650,-118.0972715
2.22700,-152.5842396
2.22750,-166.6231823
2.22800,-151.6686563
2.22850,-118.7076603
2.22900,-88.18821955
2.22950,-69.26616627
2.23000,-53.39605707
2.23050,-32.94803175
2.23100,-13.41558966
2.23150,-6.396118282
2.23200,-12.80520084
2.23250,-16.77272814
2.23300,1.844130726
2.23350,45.48693103
2.23400,93.40245304
2.23450,121.785533
2.23500,123.9218938
2.23550,110.7985343
2.23600,95.53881389
2.23650,83.02584317
2.23700,75.70117739
2.23750,72.64923331
2.23800,65.93495634
2.23850,47.62329188
2.23900,19.54540637
2.23950,-5.175340651
2.24000,-13.72078407
2.24050,-4.259757428
2.24100,9.168796511
2.24150,9.779185327
2.24200,-9.142867951
2.24250,-34.47400379
2.24300,-43.32464161
2.24350,-28.37011564
2.24400,-3.649368612
2.24450,11.61035177
2.24500,11.30515737
2.24550,-0.5974245352
2.24600,-14.9415617
2.24650,-19.82467222
2.24700,-9.448062359
2.24750,6.72724125
2.24800,13.13632381
2.24850,7.337630065
2.24900,4.285685988
2.24950,13.13632381
2.25000,28.3960442
2.25050,40.90901491
2.25100,47.62329188
2.25150,43.65576458
2.25200,23.51293367
2.25250,-7.92209032
2.25300,-37.22075346
2.25350,-54.92202911
2.25400,-63.16227811
2.25450,-63.77266693
2.25500,-57.97397318
2.25550,-51.56489062
2.25600,-49.73372418
2.25650,-45.76619688
2.25700,-35.08439261
2.25750,-30.8116709
2.25800,-50.03891858
2.25850,-78.72719291
2.25900,-82.99991461
2.25950,-55.53241792
2.26000,-23.18181071
2.26050,-8.227284728
2.26100,-0.5974245352
2.26150,14.66229585
2.26200,32.05837709
2.26250,43.65576458
2.26300,60.1362626
2.26350,95.53881389
2.26400,142.5387527
2.26450,180.0776648
2.26500,197.1685517
2.26550,194.1166076
2.26600,171.5322214
2.26650,130.3309764
2.26700,78.75312147
2.26750,27.78565538
2.26800,-16.16233933
2.26850,-49.73372418
2.26900,-68.96097186
2.26950,-75.98044324
2.27000,-78.4219985
2.27050,-79.33758172
2.27100,-75.67524883
2.27150,-65.90902778
2.27200,-55.83761233
2.27250,-50.95450181
2.27300,-51.56489062
2.27350,-55.53241792
2.27400,-60.41552844
2.27450,-58.88955641
2.27500,-46.98697451
2.27550,-33.86361497
2.27600,-36.91555905
2.27650,-58.27916759
2.27700,-80.55835935
2.27750,-86.05185869
2.27800,-73.23369357
2.27850,-54.92202911
2.27900,-42.40905839
2.27950,-36.91555905
2.28000,-31.72725412
2.28050,-16.16233933
2.28100,11.91554618
2.28150,41.21420932
2.28200,56.1687353
2.28250,56.77912411
2.28300,54.64276326
2.28350,53.11679122
2.28400,42.43498695
2.28450,19.85060078
2.28500,0.3181586879
2.28550,-0.9026189429
2.28600,13.44151822
2.28650,27.48046097
2.28700,29.31162742
2.28750,23.81812808
2.28800,21.98696163
2.28850,28.7012386
2.28900,38.16226524
2.28950,39.38304287
2.29000,32.97396031
2.29050,33.58434913
2.29100,56.77912411
2.29150,96.75959152
2.29200,130.3309764
2.29250,139.1816142
2.29300,123.6166994
2.29350,92.48686981
2.29400,50.98043037
2.29450,0.3181586879
2.29500,-47.90255773
2.29550,-76.59083205
2.29600,-76.89602646
2.29650,-61.94150048
2.29700,-55.53241792
2.29750,-64.07786134
2.29800,-68.65577745
2.29850,-49.12333536
2.29900,-12.50000644
2.29950,18.01943433
2.30000,34.49993235
2.30050,49.14926392
2.30100,68.98690042
2.30150,79.9738991
2.30200,68.98690042
2.30250,45.48693103
2.30300,29.61682183
2.30350,25.03890571
2.30400,20.4609896
2.30450,11.91554618
2.30500,11.30515737
2.30550,29.61682183
2.30600,57.38951293
2.30650,67.76612279
2.30700,41.51940373
2.30750,-14.02597847
2.30800,-71.40252712
2.30850,-106.1946896
2.30900,-116.2661051
2.30950,-114.4349386
2.31000,-109.8570225
2.31050,-105.2791064
2.31100,-102.5323567
2.31150,-104.3635232
2.31200,-107.7206616
2.31250,-108.9414393
2.31300,-109.2466337
2.31350,-107.7206616
2.31400,-95.51288533
2.31450,-66.21422219
2.31500,-29.28569886
2.31550,0.6233530956
2.31600,28.7012386
2.31650,68.98690042
2.31700,118.1232001
2.31750,147.4218632
2.31800,140.0971974
2.31850,112.6297007
2.31900,90.65570337
2.31950,73.56481654
2.32000,45.48693103
2.32050,6.72724125
2.32100,-23.48700511
2.32150,-36.30517024
2.32200,-39.96750313
2.32250,-42.40905839
2.32300,-38.13633668
2.32350,-26.23375478
2.32400,-21.65583867
2.32450,-32.94803175
2.32500,-43.32464161
2.32550,-30.20128208
2.32600,0.3181586879
2.32650,17.40904552
2.32700,8.253213288
2.32750,-5.175340651
2.32800,1.844130726
2.32850,24.4285169
2.32900,36.3310988
2.32950,30.53240505
2.33000,24.7337113
2.33050,36.3310988
2.33100,61.35704023
2.33150,87.60375929
2.33200,108.9673678
2.33250,119.0387833
2.33300,109.8829511
2.33350,82.11025995
2.33400,47.62329188
2.33450,14.35710144
2.33500,-21.35064426
2.33550,-57.66877878
2.33600,-74.4544712
2.33650,-58.27916759
2.33700,-26.23375478
2.33750,-7.92209032
2.33800,-8.227284728
2.33850,-9.142867951
2.33900,-3.344174205
2.33950,-2.123396574
2.34000,-6.396118282
2.34050,-2.733785389
2.34100,12.22074059
2.34150,25.95448893
2.34200,33.58434913
2.34250,50.98043037
2.34300,82.72064877
2.34350,104.6946461
2.34400,91.876481
2.34450,48.84406951
2.34500,-2.123396574
2.34550,-51.87008503
2.34600,-98.259635
2.34650,-133.3569919
2.34700,-144.0387962
2.34750,-129.0842702
2.34800,-97.64924618
2.34850,-57.05838996
2.34900,-17.68831137
2.34950,2.454519542
2.35000,-3.95456302
2.35050,-22.26622748
2.35100,-29.89608767
2.35150,-25.01297715
2.35200,-21.96103307
2.35250,-26.8441436
2.35300,-29.89608767
2.35350,-23.48700511
2.35400,-12.50000644
2.35450,-3.649368612
2.35500,0.3181586879
2.35550,2.454519542
2.35600,6.72724125
2.35650,19.54540637
2.35700,40.6038205
2.35750,59.52587378
2.35800,68.68170601
2.35850,77.83753824
2.35900,100.11673
2.35950,130.9413652
2.36000,148.9478352
2.36050,143.4543359
2.36100,125.4478658
2.36150,107.7465902
2.36200,86.99337048
2.36250,51.89601359
2.36300,0.6233530956
2.36350,-55.83761233
2.36400,-98.259635
2.36450,-111.6881889
2.36500,-97.64924618
2.36550,-77.20122087
2.36600,-68.65577745
2.36650,-67.43499982
2.36700,-55.22722351
2.36750,-31.42205971
2.36800,-13.72078407
2.36850,-9.448062359
2.36900,-3.95456302
2.36950,9.779185327
2.37000,18.01943433
2.37050,7.94801888
2.37100,-3.649368612
2.37150,2.75971395
2.37200,20.4609896
2.37250,27.48046097
2.37300,25.03890571
2.37350,37.24668202
2.37400,73.87001094
2.37450,117.5128112
2.37500,148.9478352
2.37550,164.2075556
2.37600,161.7660004
2.37650,133.9933093
2.37700,85.46739844
2.37750,36.94148761
2.37800,2.75971395
2.37850,-28.67531004
2.37900,-76.28563765
2.37950,-139.1556856
2.38000,-197.7530119
2.38050,-238.0386737
2.38100,-256.960727
2.38150,-254.8243662
2.38200,-233.765952
2.38250,-207.519233
2.38300,-195.0062622
2.38350,-199.2789839
2.38400,-197.7530119
2.38450,-169.369932
2.38500,-122.980382
2.38550,-87.88302514
2.38600,-76.59083205
2.38650,-73.53888798
2.38700,-61.02591726
2.38750,-43.01944721
2.38800,-31.72725412
2.38850,-24.40258834
2.38900,-5.785729466
2.38950,23.81812808
2.39000,46.70770866
2.39050,45.18173662
2.39100,22.90254486
2.39150,-3.649368612
2.39200,-19.82467222
2.39250,-17.38311696
2.39300,3.370102765
2.39350,37.55187643
2.39400,77.22714943
2.39450,116.9024224
2.39500,154.1361402
2.39550,185.8763586
2.39600,209.0711336
2.39650,223.1100763
2.39700,230.7399365
2.39750,235.9282414
2.39800,242.6425184
2.39850,249.051601
2.39900,242.6425184
2.39950,209.376328
2.40000,151.3893905
2.40050,83.33103758
2.40100,13.44151822
2.40150,-64.38305574
2.40200,-152.2790452
2.40250,-233.4607576
2.40300,-287.7853622
2.40350,-310.6749428
2.40400,-309.7593595
2.40450,-291.4476951
2.40500,-259.0970879
2.40550,-221.2529813
2.40600,-185.5452356
2.40650,-152.889434
2.40700,-121.1492156
2.40750,-92.46094125
2.40800,-71.09733271
2.40850,-57.97397318
2.40900,-46.98697451
2.40950,-28.06492123
2.41000,7.94801888
2.41050,56.4739297
2.41100,93.70764744
2.41150,99.50634119
2.41200,84.85700962
2.41250,77.22714943
2.41300,82.41545436
2.41350,74.48039976
2.41400,36.6362932
2.41450,-11.2792288
2.41500,-40.57789194
2.41550,-48.51294654
2.41600,-54.92202911
2.41650,-67.74019423
2.41700,-76.28563765
2.41750,-71.40252712
2.41800,-59.19475081
2.41850,-48.51294654
2.41900,-39.66230872
2.41950,-26.23375478
2.42000,-6.396118282
2.42050,15.57787907
2.42100,33.88954354
2.42150,43.65576458
2.42200,42.74018136
2.42250,31.14279387
2.42300,13.13632381
2.42350,-4.870146243
2.42400,-19.51947781
2.42450,-29.59089327
2.42500,-32.03244853
2.42550,-18.60389459
2.42600,10.99996296
2.42650,41.82459814
2.42700,53.11679122
2.42750,45.18173662
2.42800,36.3310988
2.42850,37.85707084
2.42900,37.24668202
2.42950,26.25968334
2.43000,19.85060078
2.43050,40.90901491
2.43100,84.24662081
2.43150,123.0063106
2.43200,142.2335583
2.43250,155.0517234
2.43300,175.1945543
2.43350,193.8114132
2.43400,194.1166076
2.43450,180.6880536
2.43500,173.0581934
2.43550,179.7724704
2.43600,185.5711642
2.43650,172.4478046
2.43700,137.6556422
2.43750,89.12973133
2.43800,35.41551557
2.43850,-18.29870018
2.43900,-73.53888798
2.43950,-137.0193248
2.44000,-211.7919547
2.44050,-277.1035579
2.44100,-300.2983329
2.44150,-272.8308362
2.44200,-226.7464806
2.44250,-203.2465112
2.44300,-209.045205
2.44350,-221.5581757
2.44400,-222.1685645
2.44450,-209.3503994
2.44500,-182.7984859
2.44550,-137.3245192
2.44600,-78.11680409
2.44650,-22.57142189
2.44700,17.10385111
2.44750,45.18173662
2.44800,68.37651161
2.44850,83.9414264
2.44900,83.02584317
2.44950,63.49340108
2.45000,35.41551557
2.45050,16.7986567
2.45100,17.40904552
2.45150,29.92201623
2.45200,37.24668202
2.45250,32.97396031
2.45300,26.56487775
2.45350,24.12332249
2.45400,17.40904552
2.45450,-0.2922301275
2.45500,-16.77272814
2.45550,-19.21428341
2.45600,-16.77272814
2.45650,-25.01297715
2.45700,-39.05191991
2.45750,-36.91555905
2.45800,-12.80520084
2.45850,17.10385111
2.45900,41.21420932
2.45950,63.79859549
2.46000,89.43492574
2.46050,113.8504784
2.46100,135.2140869
2.46150,158.7140563
2.46200,178.5516928
2.46250,173.3633879
2.46300,130.3309764
2.46350,66.54534516
2.46400,9.168796511
2.46450,-37.22075346
2.46500,-87.57783073
2.46550,-143.7336017
2.46600,-186.4608188
2.46650,-199.8893728
2.46700,-191.9543182
2.46750,-179.136153
2.46800,-163.5712382
2.46850,-137.3245192
2.46900,-102.8375511
2.46950,-78.4219985
2.47000,-71.70772153
2.47050,-67.12980541
2.47100,-43.01944721
2.47150,0.3181586879
2.47200,41.82459814
2.47250,64.40898431
2.47300,72.0388445
2.47350,77.22714943
2.47400,78.75312147
2.47450,66.24015075
2.47500,36.94148761
2.47550,3.370102765
2.47600,-19.82467222
2.47650,-28.67531004
2.47700,-26.8441436
2.47750,-15.55195051
2.47800,10.08437973
2.47850,56.1687353
2.47900,115.6816448
2.47950,162.6815836
2.48000,163.5971668
2.48050,109.8829511
2.48100,34.49993235
2.48150,-15.55195051
2.48200,-25.01297715
2.48250,-19.82467222
2.48300,-31.72725412
2.48350,-62.24669489
2.48400,-89.71419158
2.48450,-95.51288533
2.48500,-75.98044324
2.48550,-37.83114227
2.48600,3.675297173
2.48650,33.58434913
2.48700,46.70770866
2.48750,51.59081918
2.48800,56.77912411
2.48850,58.61029056
2.48900,50.06484714
2.48950,36.6362932
2.49000,30.22721064
2.49050,29.61682183
2.49100,23.20773927
2.49150,7.642824473
2.49200,-7.616895912
2.49250,-14.02597847
2.49300,-17.38311696
2.49350,-27.45453241
2.49400,-39.96750313
2.49450,-38.44153109
2.49500,-23.79219952
2.49550,-20.74025544
2.49600,-50.34411299
2.49650,-97.34405178
2.49700,-124.8115485
2.49750,-117.1816883
2.49800,-90.3245804
2.49850,-60.11033404
2.49900,-24.40258834
2.49950,13.44151822
2.50000,35.72070998
2.50050,29.31162742
2.50100,4.896074803
2.50150,-20.12986663
2.50200,-41.79866957
2.50250,-55.53241792
2.50300,-47.59736332
2.50350,-15.85714492
2.50400,12.8311294
2.50450,14.96749026
2.50500,1.538936319
2.50550,1.233741911
2.50600,19.24021197
2.50650,34.49993235
2.50700,33.58434913
2.50750,24.4285169
2.50800,18.32462874
2.50850,18.01943433
2.50900,21.37657282
2.50950,27.17526657
2.51000,29.31162742
2.51050,22.90254486
2.51100,10.38957414
2.51150,-0.2922301275
2.51200,-6.701312689
2.51250,-11.88961762
2.51300,-20.74025544
2.51350,-39.05191991
2.51400,-68.35058304
2.51450,-100.3959959
2.51500,-122.980382
2.51550,-135.4933527
2.51600,-148.6167123
2.51650,-163.8764327
2.51700,-166.9283767
2.51750,-147.701129
2.51800,-112.6037722
2.51850,-73.23369357
2.51900,-31.72725412
2.51950,13.13632381
2.52000,56.4739297
2.52050,89.74012014
2.52100,113.2400895
2.52150,132.7725316
2.52200,147.4218632
2.52250,152.3049737
2.52300,147.1166688
2.52350,139.1816142
2.52400,135.8244757
2.52450,136.4348645
2.52500,135.5192813
2.52550,127.5842267
2.52600,108.6621734
2.52650,74.78559417
2.52700,23.81812808
2.52750,-33.86361497
2.52800,-75.67524883
2.52850,-84.52588665
2.52900,-69.87655508
2.52950,-55.22722351
2.53000,-46.6817801
2.53050,-28.98050445
2.53100,5.811658027
2.53150,40.6038205
2.53200,51.89601359
2.53250,38.16226524
2.53300,13.74671263
2.53350,-11.58442321
2.53400,-39.35711431
2.53450,-68.65577745
2.53500,-93.07133007
2.53550,-108.3310505
2.53600,-115.3505218
2.53650,-116.8764939
2.53700,-110.1622169
2.53750,-90.3245804
2.53800,-57.36358437
2.53850,-25.31817156
2.53900,-11.2792288
2.53950,-14.02597847
2.54000,-9.448062359
2.54050,19.24021197
2.54100,62.27262345
2.54150,94.01284185
2.54200,106.831007
2.54250,112.3245063
2.54300,114.4608672
2.54350,103.4738685
2.54400,77.83753824
2.54450,56.1687353
2.54500,52.81159681
2.54550,61.35704023
2.54600,64.40898431
2.54650,56.4739297
2.54700,46.09731984
2.54750,39.07784847
2.54800,32.3635715
2.54850,19.85060078
2.54900,0.3181586879
2.54950,-23.79219952
2.55000,-44.24022484
2.55050,-53.09086266
2.55100,-49.73372418
2.55150,-41.18828076
2.55200,-38.7467255
2.55250,-45.15580806
2.55300,-53.39605707
2.55350,-54.00644588
2.55400,-44.54541924
2.55450,-30.20128208
2.55500,-16.46753374
2.55550,-3.038979797
2.55600,17.40904552
2.55650,50.37004155
2.55700,85.16220403
2.55750,98.59075797
2.55800,72.64923331
2.55850,15.57787907
2.55900,-42.7142528
2.55950,-77.81160968
2.56000,-87.57783073
2.56050,-87.27263632
2.56100,-87.88302514
2.56150,-86.3570531
2.56200,-74.75966561
2.56250,-50.95450181
2.56300,-19.82467222
2.56350,11.30515737
2.56400,36.94148761
2.56450,49.75965274
2.56500,43.96095899
2.56550,19.24021197
2.56600,-15.2467561
2.56650,-49.73372418
2.56700,-79.03238731
2.56750,-101.3115791
2.56800,-113.214161
2.56850,-110.7726057
2.56900,-99.48041263
2.56950,-89.71419158
2.57000,-80.86355376
2.57050,-62.24669489
2.57100,-30.8116709
2.57150,3.370102765
2.57200,34.19473794
2.57250,62.27262345
2.57300,78.75312147
2.57350,68.68170601
2.57400,41.51940373
2.57450,32.6687659
2.57500,52.201208
2.57550,61.66223464
2.57600,26.56487775
2.57650,-22.57142189
2.57700,-31.11686531
2.57750,1.844130726
2.57800,26.56487775
2.57850,20.4609896
2.57900,9.168796511
2.57950,13.74671263
2.58000,20.15579519
2.58050,15.27268467
2.58100,13.74671263
2.58150,25.03890571
2.58200,35.11032117
2.58250,31.75318268
2.58300,23.51293367
2.58350,16.4934623
2.58400,5.811658027
2.58450,0.01296428019
2.58500,20.15579519
2.58550,67.46092838
2.58600,109.8829511
2.58650,123.6166994
2.58700,115.9868392
2.58750,100.4219244
2.58800,82.11025995
2.58850,72.64923331
2.58900,90.35050896
2.58950,121.785533
2.59000,125.4478658
2.59050,91.876481
2.59100,60.1362626
2.59150,59.83106819
2.59200,69.29209483
2.59250,59.83106819
2.59300,44.2661534
2.59350,49.14926392
2.59400,63.79859549
2.59450,57.99990174
2.59500,28.7012386
2.59550,0.9285475033
2.59600,-11.2792288
2.59650,-16.77272814
2.59700,-23.79219952
2.59750,-32.03244853
2.59800,-43.01944721
2.59850,-58.584362
2.59900,-76.89602646
2.59950,-97.03885737
2.60000,-123.5907708
2.60050,-149.5322955
2.60100,-152.2790452
2.60150,-121.1492156
2.60200,-78.11680409
2.60250,-51.25969621
2.60300,-39.35711431
2.60350,-20.12986663
2.60400,12.525935
2.60450,39.07784847
2.60500,42.12979254
2.60550,25.34410012
2.60600,4.285685988
2.60650,-12.19481203
2.60700,-24.40258834
2.60750,-33.25322616
2.60800,-39.35711431
2.60850,-39.96750313
2.60900,-31.42205971
2.60950,-14.33117288
2.61000,3.370102765
2.61050,15.88307348
2.61100,23.20773927
2.61150,25.03890571
2.61200,14.66229585
2.61250,-9.142867951
2.61300,-31.42205971
2.61350,-29.59089327
2.61400,-5.480535058
2.61450,13.44151822
2.61500,5.506463619
2.61550,-17.99350577
2.61600,-28.37011564
2.61650,-15.2467561
2.61700,7.642824473
2.61750,27.48046097
2.61800,49.14926392
2.61850,81.49987114
2.61900,121.785533
2.61950,157.1880842
2.62000,178.5516928
2.62050,185.8763586
2.62100,183.1296089
2.62150,171.8374158
2.62200,151.6945849
2.62250,124.837477
2.62300,95.23361948
2.62350,66.54534516
2.62400,42.74018136
2.62450,29.00643301
2.62500,31.75318268
2.62550,49.45445833
2.62600,65.62976194
2.62650,60.1362626
2.62700,30.22721064
2.62750,-4.870146243
2.62800,-27.75972682
2.62850,-33.86361497
2.62900,-23.18181071
2.62950,10.08437973
2.63000,59.22067937
2.63050,94.01284185
2.63100,91.876481
2.63150,70.51287246
2.63200,61.66223464
2.63250,62.57781786
2.63300,43.04537577
2.63350,0.3181586879
2.63400,-30.8116709
2.63450,-30.20128208
2.63500,-21.35064426
2.63550,-31.42205971
2.63600,-45.76619688
2.63650,-31.11686531
2.63700,15.57787907
2.63750,66.24015075
2.63800,96.75959152
2.63850,108.356979
2.63900,114.1556728
2.63950,126.9738379
2.64000,151.6945849
2.64050,180.0776648
2.64100,195.0321908
2.64150,187.707525
2.64200,161.7660004
2.64250,122.7011162
2.64300,66.85053957
2.64350,-5.785729466
2.64400,-83.30510902
2.64450,-146.175157
2.64500,-178.5257642
2.64550,-172.1166817
2.64600,-137.0193248
2.64650,-103.4479399
2.64700,-93.37652448
2.64750,-90.3245804
2.64800,-60.11033404
2.64850,-4.870146243
2.64900,36.6362932
2.64950,45.48693103
2.65000,44.2661534
2.65050,54.33756885
2.65100,58.61029056
2.65150,36.6362932
2.65200,3.675297173
2.65250,-11.58442321
2.65300,-10.05845117
2.65350,-13.11039525
2.65400,-24.70778274
2.65450,-29.89608767
2.65500,-22.8766163
2.65550,-10.66883999
2.65600,2.454519542
2.65650,21.98696163
2.65700,45.18173662
2.65750,68.37651161
2.65800,95.23361948
2.65850,126.0582547
2.65900,140.0971974
2.65950,112.0193119
2.66000,47.31809747
2.66050,-17.68831137
2.66100,-56.44800114
2.66150,-74.4544712
2.66200,-90.93496921
2.66250,-109.2466337
2.66300,-117.1816883
2.66350,-104.3635232
2.66400,-76.28563765
2.66450,-52.48047384
2.66500,-53.39605707
2.66550,-79.64277613
2.66600,-104.973912
2.66650,-104.0583287
2.66700,-82.69472021
2.66750,-71.09733271
2.66800,-81.47394258
2.66850,-86.66224751
2.66900,-58.584362
2.66950,-9.753256766
2.67000,18.62982315
2.67050,13.74671263
2.67100,5.201269211
2.67150,23.20773927
2.67200,60.1362626
2.67250,89.43492574
2.67300,105.6102293
2.67350,121.785533
2.67400,138.8764198
2.67450,140.7075862
2.67500,124.837477
2.67550,110.4933399
2.67600,109.5777566
2.67650,106.2206182
2.67700,81.49987114
2.67750,45.79212544
2.67800,27.78565538
2.67850,39.38304287
2.67900,58.61029056
2.67950,59.83106819
2.68000,43.35057017
2.68050,32.3635715
2.68100,44.2661534
2.68150,73.87001094
2.68200,104.9998405
2.68250,127.8894211
2.68300,143.1491415
2.68350,148.6426408
2.68400,139.4868086
2.68450,119.0387833
2.68500,99.50634119
2.68550,88.21414811
2.68600,76.31156621
2.68650,50.67523596
2.68700,11.30515737
2.68750,-30.8116709
2.68800,-69.26616627
2.68850,-105.8894952
2.68900,-139.7660744
2.68950,-165.0972103
2.69000,-178.8309586
2.69050,-184.9348468
2.69100,-185.5452356
2.69150,-180.0517363
2.69200,-171.8114873
2.69250,-169.9803208
2.69300,-173.9478481
2.69350,-165.4024047
2.69400,-128.4738814
2.69450,-75.06486001
2.69500,-34.16880938
2.69550,-15.2467561
2.69600,0.6233530956
2.69650,29.92201623
2.69700,54.33756885
2.69750,46.40251425
2.69800,10.08437973
2.69850,-18.29870018
2.69900,-14.63636729
2.69950,8.253213288
2.70000,24.7337113
2.70050,32.3635715
2.70100,51.89601359
2.70150,96.75959152
2.70200,149.8634185
2.70250,182.5192201
2.70300,183.4348033
2.70350,167.8698885
2.70400,151.6945849
2.70450,130.025782
2.70500,89.74012014
2.70550,35.11032117
2.70600,-12.19481203
2.70650,-41.49347517
2.70700,-57.36358437
2.70750,-68.96097186
2.70800,-79.03238731
2.70850,-90.93496921
2.70900,-107.7206616
2.70950,-121.45441
2.71000,-119.6232435
2.71050,-100.3959959
2.71100,-73.84408238
2.71150,-43.62983602
2.71200,-4.870146243
2.71250,36.6362932
2.71300,62.88301227
2.71350,65.93495634
2.71400,57.38951293
2.71450,47.62329188
2.71500,35.11032117
2.71550,19.85060078
2.71600,9.779185327
2.71650,7.94801888
2.71700,8.863602104
2.71750,12.525935
2.71800,21.98696163
2.71850,27.78565538
2.71900,18.93501756
2.71950,7.032435657
2.72000,13.74671263
2.72050,34.80512676
2.72100,45.18173662
2.72150,42.12979254
2.72200,50.98043037
2.72250,74.78559417
2.72300,81.49987114
2.72350,53.42198563
2.72400,12.8311294
2.72450,-21.96103307
2.72500,-69.26616627
2.72550,-138.8504912
2.72600,-192.8699014
2.72650,-190.7335405
2.72700,-144.3439906
2.72750,-97.34405178
2.72800,-64.07786134
2.72850,-30.20128208
2.72900,3.370102765
2.72950,16.7986567
2.73000,4.590880396
2.73050,-18.60389459
2.73100,-49.42852977
2.73150,-97.03885737
2.73200,-151.9738508
2.73250,-187.6815965
2.73300,-200.1945672
2.73350,-211.1815658
2.73400,-228.8828415
2.73450,-229.7984247
2.73500,-196.8374287
2.73550,-144.9543794
2.73600,-97.34405178
2.73650,-58.584362
2.73700,-25.92856037
2.73750,-7.92209032
2.73800,-8.532479135
2.73850,-13.11039525
2.73900,-6.701312689
2.73950,2.454519542
2.74000,4.590880396
2.74050,10.08437973
2.74100,31.14279387
2.74150,55.55834648
2.74200,60.74665141
2.74250,47.31809747
2.74300,29.61682183
2.74350,3.064908357
2.74400,-43.01944721
2.74450,-84.52588665
2.74500,-71.09733271
2.74550,4.896074803
2.74600,87.9089537
2.74650,120.5647553
2.74700,106.831007
2.74750,91.876481
2.74800,100.11673
2.74850,115.071256
2.74900,108.0517846
2.74950,70.81806687
2.75000,16.18826789
2.75050,-35.69478142
2.75100,-75.98044324
2.75150,-111.6881889
2.75200,-151.3634619
2.75250,-184.6296524
2.75300,-191.6491238
2.75350,-172.7270705
2.75400,-150.7530731
2.75450,-137.934908
2.75500,-121.1492156
2.75550,-91.24016362
2.75600,-66.82461101
2.75650,-66.82461101
2.75700,-78.11680409
2.75750,-73.23369357
2.75800,-44.85061365
2.75850,-7.006507097
2.75900,26.25968334
2.75950,46.09731984
2.76000,43.65576458
2.76050,25.64929453
2.76100,12.525935
2.76150,3.98049158
2.76200,-30.20128208
2.76250,-101.3115791
2.76300,-160.5192942
2.76350,-152.889434
2.76400,-95.81807974
2.76450,-51.87008503
2.76500,-35.08439261
2.76550,0.01296428019
2.76600,73.56481654
2.76650,142.8439471
2.76700,161.1556115
2.76750,137.9608366
2.76800,105.3050349
2.76850,70.81806687
2.76900,27.48046097
2.76950,-16.16233933
2.77000,-49.12333536
2.77050,-70.18174949
2.77100,-73.84408238
2.77150,-44.24022484
2.77200,6.422046842
2.77250,32.97396031
2.77300,7.337630065
2.77350,-38.13633668
2.77400,-58.27916759
2.77450,-52.48047384
2.77500,-53.09086266
2.77550,-68.35058304
2.77600,-79.64277613
2.77650,-80.25316495
2.77700,-81.77913698
2.77750,-86.3570531
2.77800,-80.86355376
2.77850,-60.72072285
2.77900,-36.91555905
2.77950,-18.909089
2.78000,-8.227284728
2.78050,-4.870146243
2.78100,-7.616895912
2.78150,-7.311701505
2.78200,2.454519542
2.78250,12.8311294
2.78300,11.30515737
2.78350,3.064908357
2.78400,0.9285475033
2.78450,3.370102765
2.78500,-0.2922301275
2.78550,-8.227284728
2.78600,-2.733785389
2.78650,22.59735045
2.78700,52.81159681
2.78750,72.0388445
2.78800,85.77259284
2.78850,110.4933399
2.78900,151.3893905
2.78950,197.1685517
2.79000,230.4347421
2.79050,235.0126582
2.79100,203.8828286
2.79150,148.6426408
2.79200,97.36998034
2.79250,71.42845568
2.79300,63.49340108
2.79350,46.09731984
2.79400,2.75971395
2.79450,-54.00644588
2.79500,-101.6167735
2.79550,-128.4738814
2.79600,-139.46088
2.79650,-141.5972409
2.79700,-139.7660744
2.79750,-137.3245192
2.79800,-129.3894646
2.79850,-99.48041263
2.79900,-32.94803175
2.79950,56.77912411
2.80000,130.6361708
2.80050,153.2205569
2.80100,120.8699497
2.80150,56.77912411
2.80200,-7.311701505
2.80250,-47.90255773
2.80300,-54.00644588
2.80350,-32.33764294
2.80400,-7.311701505
2.80450,-3.95456302
2.80500,-28.98050445
2.80550,-63.77266693
2.80600,-83.61030343
2.80650,-83.61030343
2.80700,-81.16874817
2.80750,-93.07133007
2.80800,-111.3829945
2.80850,-115.0453274
2.80900,-98.87002382
2.80950,-81.47394258
2.81000,-77.20122087
2.81050,-81.16874817
2.81100,-82.3895258
2.81150,-82.69472021
2.81200,-87.57783073
2.81250,-89.10380277
2.81300,-74.14927679
2.81350,-41.18828076
2.81400,-6.701312689
2.81450,7.642824473
2.81500,-8.837673543
2.81550,-47.59736332
2.81600,-78.11680409
2.81650,-71.70772153
2.81700,-30.20128208
2.81750,14.96749026
2.81800,41.21420932
2.81850,53.42198563
2.81900,65.01937312
2.81950,72.64923331
2.82000,64.40898431
2.82050,39.07784847
2.82100,6.116852434
2.82150,-25.31817156
2.82200,-44.54541924
2.82250,-36.91555905
2.82300,-4.259757428
2.82350,29.61682183
2.82400,42.43498695
2.82450,34.19473794
2.82500,15.88307348
2.82550,-9.448062359
2.82600,-40.27269754
2.82650,-65.90902778
2.82700,-78.72719291
2.82750,-82.3895258
2.82800,-75.98044324
2.82850,-46.07139128
2.82900,10.08437973
2.82950,71.12326127
2.83000,114.7660616
2.83050,144.0647247
2.83100,165.7335277
2.83150,166.0387221
2.83200,135.2140869
2.83250,97.06478593
2.83300,78.75312147
2.83350,66.85053957
2.83400,30.83759946
2.83450,-21.35064426
2.83500,-48.51294654
2.83550,-34.47400379
2.83600,-8.227284728
2.83650,1.538936319
2.83700,-4.564951835
2.83750,-20.12986663
2.83800,-42.40905839
2.83850,-59.80513963
2.83900,-54.92202911
2.83950,-35.38958701
2.84000,-34.16880938
2.84050,-58.88955641
2.84100,-73.84408238
2.84150,-44.24022484
2.84200,17.10385111
2.84250,64.71417871
2.84300,68.98690042
2.84350,42.43498695
2.84400,24.7337113
2.84450,44.5713478
2.84500,94.01284185
2.84550,137.0452533
2.84600,151.6945849
2.84650,154.746529
2.84700,169.701055
2.84750,188.6231082
2.84800,183.7399977
2.84850,150.4738073
2.84900,111.4089231
2.84950,81.80506554
2.85000,59.22067937
2.85050,43.65576458
2.85100,39.38304287
2.85150,39.38304287
2.85200,28.09084979
2.85250,4.590880396
2.85300,-18.909089
2.85350,-41.79866957
2.85400,-67.12980541
2.85450,-81.47394258
2.85500,-68.96097186
2.85550,-44.85061365
2.85600,-47.90255773
2.85650,-88.79860836
2.85700,-138.5452968
2.85750,-172.1166817
2.85800,-193.7854846
2.85850,-213.0127323
2.85900,-220.6425925
2.85950,-205.6880665
2.86000,-179.4413474
2.86050,-164.1816271
2.86100,-167.2335711
2.86150,-175.1686257
2.86200,-169.369932
2.86250,-141.9024353
2.86300,-100.3959959
2.86350,-57.97397318
2.86400,-20.12986663
2.86450,14.66229585
2.86500,40.6038205
2.86550,45.18173662
2.86600,30.83759946
2.86650,15.27268467
2.86700,2.75971395
2.86750,-21.96103307
2.86800,-59.19475081
2.86850,-77.81160968
2.86900,-57.05838996
2.86950,-20.12986663
2.87000,1.233741911
2.87050,13.44151822
2.87100,35.11032117
2.87150,57.69470734
2.87200,65.93495634
2.87250,84.24662081
2.87300,146.8114744
2.87350,230.4347421
2.87400,271.9411815
2.87450,256.0710723
2.87500,234.097075
2.87550,240.5061575
2.87600,244.7788793
2.87650,207.5451615
2.87700,140.7075862
2.87750,81.49987114
2.87800,33.88954354
2.87850,-20.74025544
2.87900,-83.61030343
2.87950,-132.4414087
2.88000,-157.7725445
2.88050,-167.84396
2.88100,-167.2335711
2.88150,-155.0257948
2.88200,-134.8829639
2.88250,-116.5712995
2.88300,-103.4479399
2.88350,-95.20769092
2.88400,-94.2921077
2.88450,-96.73366296
2.88500,-90.3245804
2.88550,-68.35058304
2.88600,-39.96750313
2.88650,-14.9415617
2.88700,10.69476855
2.88750,41.51940373
2.88800,68.68170601
2.88850,84.85700962
2.88900,99.8115356
2.88950,123.6166994
2.89000,148.6426408
2.89050,158.7140563
2.89100,155.6621122
2.89150,149.5582241
2.89200,136.7400589
2.89250,110.1881455
2.89300,81.49987114
2.89350,73.56481654
2.89400,84.55181521
2.89450,86.68817607
2.89500,59.52587378
2.89550,15.27268467
2.89600,-22.26622748
2.89650,-43.01944721
2.89700,-49.73372418
2.89750,-47.29216891
2.89800,-35.38958701
2.89850,-10.9740344
2.89900,24.12332249
2.89950,59.83106819
2.90000,82.41545436
2.90050,87.9089537
2.90100,84.24662081
2.90150,76.0063718
2.90200,60.74665141
2.90250,44.2661534
2.90300,44.87654221
2.90350,64.1037899
2.90400,74.17520535
2.90450,50.67523596
2.90500,9.779185327
2.90550,-13.41558966
2.90600,-10.66883999
2.90650,-1.513007758
2.90700,4.590880396
2.90750,22.59735045
2.90800,61.35704023
2.90850,100.7271188
2.90900,108.9673678
2.90950,76.31156621
2.91000,26.56487775
2.91050,-2.123396574
2.91100,6.72724125
2.91150,36.6362932
2.91200,60.74665141
2.91250,76.61676061
2.91300,99.8115356
2.91350,126.6686435
2.91400,130.025782
2.91450,100.4219244
2.91500,64.1037899
2.91550,44.2661534
2.91600,30.53240505
2.91650,8.863602104
2.91700,-6.396118282
2.91750,2.454519542
2.91800,21.98696163
2.91850,21.07137841
2.91900,-7.006507097
2.91950,-49.73372418
2.92000,-104.3635232
2.92050,-169.0647376
2.92100,-219.7270093
2.92150,-229.1880359
2.92200,-208.1296218
2.92250,-189.5127629
2.92300,-173.3374593
2.92350,-126.6427149
2.92400,-45.46100247
2.92450,24.4285169
2.92500,47.31809747
2.92550,43.65576458
2.92600,54.94795767
2.92650,90.35050896
2.92700,132.1621428
2.92750,171.8374158
2.92800,202.9672454
2.92850,202.0516622
2.92900,151.3893905
2.92950,77.53234384
2.93000,24.12332249
2.93050,-7.311701505
2.93100,-54.31164029
2.93150,-123.5907708
2.93200,-171.8114873
2.93250,-168.1491544
2.93300,-134.5777695
2.93350,-108.6362449
2.93400,-94.59730211
2.93450,-77.81160968
2.93500,-60.41552844
2.93550,-48.20775214
2.93600,-27.45453241
2.93650,12.22074059
2.93700,48.84406951
2.93750,52.81159681
