type,name,time_units,begin_time,frequency,count,units
signal_4d,"Noraxon MyoMotion-Segments-Forearm RT-Orientation","s",0.0000,200,5108,""

time,x,y,z,w
0.0000,0.1664257963,-0.6130361691,-0.7482271156,0.1914296036
0.0050,0.1665111762,-0.6130081706,-0.748220222,0.1914719572
0.0100,0.1665965546,-0.6129801659,-0.748213321,0.1915143088
0.0150,0.1666819313,-0.6129521552,-0.7482064125,0.1915566585
0.0200,0.1667612739,-0.6129217759,-0.7482007796,0.1916068044
0.0250,0.1668317363,-0.6128892208,-0.7481967926,0.191665162
0.0300,0.1668904539,-0.6128547534,-0.748194814,0.1917319688
0.0350,0.16693463,-0.6128187102,-0.748195184,0.1918072585
0.0400,0.1669616135,-0.612781496,-0.7481982118,0.1918908381
0.0450,0.1669689613,-0.6127435747,-0.7482041725,0.1919822751
0.0500,0.1669544855,-0.6127054522,-0.7482133103,0.1920808967
0.0550,0.1669162913,-0.6126676522,-0.7482258468,0.1921858005
0.0600,0.1668528096,-0.612630688,-0.7482419902,0.1922958767
0.0650,0.1667628133,-0.6125950378,-0.7482619423,0.1924098477
0.0700,0.1666454208,-0.6125611269,-0.748285899,0.1925263173
0.0750,0.1665001061,-0.6125293144,-0.7483140466,0.1926438198
0.0800,0.1663267163,-0.6124998854,-0.7483465509,0.1927608714
0.0850,0.1661254863,-0.612473042,-0.7483835491,0.19287602
0.0900,0.165897042,-0.6124488932,-0.7484251472,0.1929878851
0.0950,0.1656423998,-0.6124274475,-0.7484714197,0.1930951859
0.1000,0.1653629668,-0.6124086098,-0.7485224084,0.1931967597
0.1050,0.1650605406,-0.6123921859,-0.7485781164,0.1932915731
0.1100,0.1647373031,-0.6123778965,-0.7486384972,0.1933787304
0.1150,0.1643958045,-0.6123653945,-0.7487034424,0.1934574849
0.1200,0.1640389469,-0.6123542828,-0.7487727691,0.1935272501
0.1250,0.1636699721,-0.6123441337,-0.7488462077,0.1935876012
0.1300,0.1632924397,-0.6123345115,-0.7489233921,0.1936382658
0.1350,0.1629101877,-0.6123249961,-0.7490038521,0.1936791148
0.1400,0.1625272812,-0.6123152116,-0.7490870027,0.1937101619
0.1450,0.1621479523,-0.6123048537,-0.7491721345,0.1937315686
0.1500,0.161776529,-0.6122937091,-0.7492584127,0.1937436438
0.1550,0.1613523658,-0.6122783311,-0.7493495638,0.1937934221
0.1600,0.1609413977,-0.6122635684,-0.7494386923,0.1938371373
0.1650,0.1605478936,-0.6122487408,-0.7495253721,0.19387514
0.1700,0.1601778045,-0.6122345687,-0.7496075122,0.1939084358
0.1750,0.1598320213,-0.6122214082,-0.7496850351,0.193935609
0.1800,0.1595159382,-0.6122100974,-0.7497558477,0.1939578071
0.1850,0.1592315425,-0.6122002161,-0.749819722,0.1939757608
0.1900,0.1589812046,-0.6121926751,-0.7498753303,0.1939899332
0.1950,0.1587681483,-0.6121884689,-0.7499210847,0.1940008257
0.2000,0.1585940135,-0.6121873157,-0.7499564905,0.19401003
0.2050,0.1584595971,-0.6121899744,-0.7499808776,0.1940172017
0.2100,0.15836503,-0.6121971645,-0.7499937599,0.1940219298
0.2150,0.1583120828,-0.6122082423,-0.7499949798,0.1940254694
0.2200,0.1582972602,-0.612223649,-0.7499844988,0.1940294632
0.2250,0.1583201642,-0.6122432623,-0.7499627887,0.1940328035
0.2300,0.1583765213,-0.6122666776,-0.7499309918,0.1940358226
0.2350,0.1584654862,-0.6122947787,-0.749888202,0.194039888
0.2400,0.1585832459,-0.6123266032,-0.7498358254,0.1940456647
0.2450,0.1587263369,-0.6123622917,-0.7497746316,0.1940525068
0.2500,0.1588904187,-0.6124012351,-0.7497056779,0.1940617391
0.2550,0.1590718265,-0.612442393,-0.7496305004,0.1940736513
0.2600,0.1592664737,-0.6124860638,-0.7495497045,0.1940882596
0.2650,0.1594720785,-0.6125316942,-0.7494647191,0.1941036181
0.2700,0.1596807621,-0.6125791477,-0.7493767882,0.1941217951
0.2750,0.1598915556,-0.612628804,-0.7492860279,0.1941419257
0.2800,0.1601003856,-0.6126799114,-0.7491938641,0.1941642262
0.2850,0.1603046548,-0.6127324032,-0.7491009984,0.1941883466
0.2900,0.1605002735,-0.6127856188,-0.7490092092,0.1942129044
0.2950,0.1606856505,-0.6128401151,-0.748918036,0.1942392609
0.3000,0.1608580956,-0.6128957095,-0.748828535,0.1942661768
0.3050,0.1610167388,-0.6129518393,-0.7487413307,0.194293778
0.3100,0.1611591313,-0.6130098771,-0.748655795,0.194322221
0.3150,0.1612825144,-0.6130689193,-0.74857347,0.1943507413
0.3200,0.1613866385,-0.6131298137,-0.7484943202,0.1943770491
0.3250,0.16147101,-0.6131920512,-0.7484185987,0.1944022183
0.3300,0.1615338685,-0.6132561921,-0.7483462318,0.1944262573
0.3350,0.1615773282,-0.6133222004,-0.7482772453,0.194447447
0.3400,0.1616002584,-0.6133890641,-0.7482124495,0.1944668172
0.3450,0.1616043437,-0.6134573118,-0.748150814,0.194485275
0.3500,0.1615897863,-0.6135268661,-0.7480923732,0.1945027678
0.3550,0.1615587774,-0.6135963727,-0.7480377091,0.1945195071
0.3600,0.1615102664,-0.6136670461,-0.7479858966,0.1945360862
0.3650,0.1614481929,-0.6137388628,-0.7479362839,0.194551804
0.3700,0.161370259,-0.6138111024,-0.7478897885,0.1945673001
0.3750,0.1612801102,-0.6138837648,-0.7478461878,0.1945803916
0.3800,0.1611785225,-0.6139564848,-0.7478051873,0.1945927042
0.3850,0.1610657192,-0.6140279795,-0.7477680884,0.1946030842
0.3900,0.1609454163,-0.6140979878,-0.7477340738,0.1946124075
0.3950,0.1608196971,-0.6141667316,-0.7477024351,0.1946209633
0.4000,0.1606901378,-0.6142355926,-0.7476719149,0.1946279119
0.4050,0.1605570136,-0.6143023434,-0.7476440743,0.1946340527
0.4100,0.1604241106,-0.6143693438,-0.7476162871,0.1946389
0.4150,0.1602946941,-0.6144342188,-0.7475896353,0.194643107
0.4200,0.1601689331,-0.6144973401,-0.7475639158,0.1946461497
0.4250,0.1600483035,-0.614558792,-0.7475385004,0.1946489714
0.4300,0.1599338038,-0.6146182634,-0.7475136617,0.1946506981
0.4350,0.159828128,-0.6146766857,-0.7474883544,0.1946502031
0.4400,0.1597295624,-0.614733718,-0.7474628402,0.19464898
0.4450,0.1596398005,-0.6147885476,-0.7474377217,0.1946459042
0.4500,0.1595576301,-0.6148420583,-0.7474126381,0.1946405777
0.4550,0.1594840397,-0.6148937681,-0.7473876288,0.194633572
0.4600,0.1594189633,-0.6149433558,-0.7473630137,0.194624739
0.4650,0.1593612208,-0.6149909382,-0.7473387321,0.194614919
0.4700,0.1593104211,-0.6150369327,-0.7473146619,0.1946035901
0.4750,0.1592678981,-0.6150818773,-0.7472895954,0.1945926038
0.4800,0.1592318826,-0.6151245734,-0.7472652086,0.1945807668
0.4850,0.1592005466,-0.6151664761,-0.7472407143,0.1945680022
0.4900,0.1591736951,-0.6152073066,-0.7472160009,0.1945557831
0.4950,0.1591487848,-0.6152461798,-0.7471928294,0.1945422275
0.5000,0.1591264645,-0.6152848667,-0.7471694315,0.1945279974
0.5050,0.1591042862,-0.6153215001,-0.7471476731,0.1945138358
0.5100,0.1590817831,-0.6153569909,-0.7471268422,0.1944999787
0.5150,0.1590593352,-0.6153909471,-0.7471072482,0.194486169
0.5200,0.1590358294,-0.6154242335,-0.7470885443,0.1944719124
0.5250,0.1590096434,-0.6154558946,-0.7470718111,0.1944574096
0.5300,0.1589819237,-0.615487423,-0.7470554455,0.1944431573
0.5350,0.15895336,-0.6155172561,-0.7470407987,0.1944283462
0.5400,0.1589223317,-0.6155471628,-0.747026813,0.194412766
0.5450,0.1588896913,-0.6155766081,-0.747013425,0.1943976552
0.5500,0.1588548186,-0.6156058112,-0.7470009981,0.194381431
0.5550,0.1588178894,-0.6156353923,-0.7469893452,0.1943627018
0.5600,0.1587790977,-0.615665508,-0.7469780987,0.194342225
0.5650,0.1587380404,-0.615696612,-0.7469667267,0.1943209349
0.5700,0.1586964416,-0.6157282083,-0.746955727,0.1942970791
0.5750,0.1586523462,-0.6157600434,-0.7469457296,0.1942706333
0.5800,0.1586069566,-0.6157925908,-0.7469356175,0.1942434086
0.5850,0.1585621878,-0.6158252747,-0.7469256919,0.1942145061
0.5900,0.1585184943,-0.615857462,-0.7469164118,0.1941837977
0.5950,0.158474568,-0.6158905256,-0.746906929,0.1941512585
0.6000,0.1584322895,-0.615923396,-0.7468974164,0.1941180805
0.6050,0.1583907013,-0.6159558103,-0.746888708,0.1940826717
0.6100,0.158351414,-0.6159879784,-0.7468802651,0.1940451233
0.6150,0.1583157545,-0.6160206955,-0.7468712859,0.1940049145
0.6200,0.1582830045,-0.6160532196,-0.7468620333,0.193963977
0.6250,0.1582563223,-0.6160844442,-0.7468529056,0.1939217147
0.6300,0.1582347372,-0.6161146524,-0.7468440857,0.1938773186
0.6350,0.1582180169,-0.6161435171,-0.7468355644,0.193832054
0.6400,0.1582075981,-0.6161723643,-0.7468260597,0.1937854738
0.6450,0.1582018212,-0.6162003156,-0.7468172133,0.1937353989
0.6500,0.158202237,-0.6162271531,-0.7468083638,0.1936838036
0.6550,0.1582067461,-0.6162528883,-0.7468004312,0.1936288181
0.6600,0.1582167672,-0.6162783031,-0.7467920902,0.1935719034
0.6650,0.1582302466,-0.6163023471,-0.746784841,0.1935122923
0.6700,0.1582496408,-0.6163264756,-0.746776919,0.1934501481
0.6750,0.1582740232,-0.6163493018,-0.7467694914,0.1933861383
0.6800,0.1583030219,-0.6163725618,-0.7467616986,0.1933183483
0.6850,0.1583373585,-0.616395522,-0.7467535276,0.1932485715
0.6900,0.1583759863,-0.6164197052,-0.7467442105,0.1931757699
0.6950,0.1584154824,-0.6164455637,-0.7467338706,0.1931008243
0.7000,0.1584557921,-0.6164712628,-0.7467241993,0.1930230926
0.7050,0.158496165,-0.6164986973,-0.7467137483,0.1929427374
0.7100,0.1585341988,-0.6165268827,-0.746703848,0.1928597263
0.7150,0.158566566,-0.6165574653,-0.7466937587,0.1927743937
0.7200,0.1585930628,-0.616589937,-0.7466838484,0.1926871054
0.7250,0.158613061,-0.6166249904,-0.7466736487,0.1925979764
0.7300,0.1586271687,-0.6166618038,-0.7466634246,0.1925081076
0.7350,0.1586352052,-0.6166999408,-0.7466530356,0.1924195914
0.7400,0.1586400045,-0.6167395518,-0.7466417505,0.1923324483
0.7450,0.1586407284,-0.6167810557,-0.7466289546,0.1922484142
0.7500,0.1586384975,-0.6168240093,-0.7466148208,0.1921673177
0.7550,0.1586342689,-0.6168687906,-0.7465985869,0.1920901194
0.7600,0.1586287615,-0.6169144583,-0.7465809783,0.1920164315
0.7650,0.158621905,-0.616963091,-0.746559871,0.1919478954
0.7700,0.1586146878,-0.6170129342,-0.7465367278,0.1918836467
0.7750,0.1586063793,-0.6170637506,-0.7465117696,0.1918241957
0.7800,0.1585961604,-0.6171160738,-0.7464845397,0.1917702827
0.7850,0.1585858436,-0.6171697378,-0.7464547452,0.1917220863
0.7900,0.1585743198,-0.6172246809,-0.7464230128,0.1916782836
0.7950,0.1585619041,-0.6172809281,-0.7463888639,0.1916403984
0.8000,0.1585445962,-0.6173380682,-0.7463541646,0.1916057971
0.8050,0.158523836,-0.6173970481,-0.7463174377,0.1915759917
0.8100,0.1584984021,-0.6174566358,-0.7462802397,0.1915498974
0.8150,0.1584656693,-0.617517198,-0.74624319,0.1915260905
0.8200,0.1584260385,-0.6175791517,-0.7462058908,0.1915044394
0.8250,0.1583795677,-0.6176410885,-0.7461695176,0.191484854
0.8300,0.1583264534,-0.6177034983,-0.746133717,0.191466965
0.8350,0.1582666821,-0.6177667057,-0.7460983253,0.191450369
0.8400,0.1581996926,-0.6178303553,-0.7460643524,0.1914327336
0.8450,0.1581250962,-0.6178947778,-0.7460315472,0.1914142839
0.8500,0.1580430521,-0.6179605886,-0.7460002528,0.1913915555
0.8550,0.1579543429,-0.6180274296,-0.7459701828,0.1913661627
0.8600,0.1578585062,-0.6180955728,-0.7459419041,0.1913353878
0.8650,0.1577544414,-0.6181646222,-0.7459159134,0.191299467
0.8700,0.1576427968,-0.6182357877,-0.7458914166,0.1912570364
0.8750,0.1575237848,-0.6183080045,-0.7458692241,0.1912081833
0.8800,0.1573960495,-0.6183813054,-0.7458500086,0.1911512737
0.8850,0.1572574616,-0.6184566537,-0.7458333175,0.1910866841
0.8900,0.1571075005,-0.6185324191,-0.7458203776,0.191015298
0.8950,0.1569462854,-0.6186089056,-0.7458110421,0.1909365728
0.9000,0.1567706353,-0.6186862765,-0.7458057486,0.1908508439
0.9050,0.156580941,-0.6187640665,-0.7458045238,0.1907591443
0.9100,0.1563750566,-0.6188411183,-0.7458085417,0.1906623483
0.9150,0.1561497399,-0.618917823,-0.7458180811,0.1905606909
0.9200,0.1559038297,-0.6189937671,-0.745833287,0.1904558224
0.9250,0.1556352341,-0.6190698781,-0.745853769,0.1903478793
0.9300,0.1553434431,-0.6191441836,-0.7458808609,0.1902383663
0.9350,0.1550249737,-0.6192163679,-0.7459152859,0.1901282029
0.9400,0.1546805126,-0.6192852747,-0.7459576359,0.1900181385
0.9450,0.1543080183,-0.6193520921,-0.7460066301,0.1899108458
0.9500,0.1539049973,-0.6194150237,-0.7460644226,0.1898055785
0.9550,0.1534720011,-0.6194746596,-0.7461296914,0.1897049676
0.9600,0.1530093437,-0.6195292128,-0.7462035764,0.1896099097
0.9650,0.1525183075,-0.6195792599,-0.7462846132,0.1895230402
0.9700,0.1519982396,-0.6196234846,-0.7463739078,0.1894446155
0.9750,0.1514504108,-0.6196619579,-0.7464706943,0.1893761695
0.9800,0.1508763591,-0.6196934834,-0.746574973,0.1893201535
0.9850,0.1502773697,-0.619718694,-0.7466856857,0.1892774133
0.9900,0.149653366,-0.6197357472,-0.7468039753,0.1892492963
0.9950,0.1490087074,-0.6197431965,-0.7469297222,0.1892373264
1.0000,0.1483437774,-0.6197426636,-0.7470609462,0.1892434868
1.0050,0.1476612155,-0.6197321108,-0.7471984268,0.189269087
1.0100,0.1469623786,-0.619711617,-0.7473416316,0.1893147027
1.0150,0.1462512338,-0.6196801503,-0.7474897731,0.1893835449
1.0200,0.1455307777,-0.6196379791,-0.7476416714,0.1894769082
1.0250,0.144804566,-0.6195831044,-0.747797984,0.1895958583
1.0300,0.1440723595,-0.6195160829,-0.7479577637,0.1897423566
1.0350,0.143337473,-0.6194346158,-0.7481221054,0.1899169317
1.0400,0.1426021932,-0.6193399142,-0.748289301,0.1901205069
1.0450,0.141868851,-0.6192313507,-0.7484596211,0.1903521973
1.0500,0.1411408233,-0.6191081734,-0.7486325611,0.1906138138
1.0550,0.1404196074,-0.6189703078,-0.7488081962,0.1909041047
1.0600,0.139705258,-0.6188188254,-0.7489856811,0.1912227806
1.0650,0.1389998632,-0.6186529235,-0.7491656038,0.1915685164
1.0700,0.1383053208,-0.6184725186,-0.7493473768,0.1919424156
1.0750,0.1376234528,-0.6182780348,-0.7495306027,0.1923432677
1.0800,0.1369571296,-0.6180705635,-0.7497145074,0.1927684636
1.0850,0.1363059885,-0.6178484253,-0.7499002889,0.1932189369
1.0900,0.1356734121,-0.6176130398,-0.7500864145,0.1936936476
1.0950,0.1350596204,-0.6173647074,-0.7502727336,0.1941920238
1.1000,0.134467483,-0.6171031853,-0.7504591295,0.1947132497
1.1050,0.1338951241,-0.6168285106,-0.7506460434,0.1952567586
1.1100,0.1333446317,-0.6165417525,-0.7508324412,0.1958216584
1.1150,0.1328152026,-0.6162424376,-0.7510188012,0.1964080965
1.1200,0.1323067397,-0.6159303463,-0.7512056034,0.1970149148
1.1250,0.1318181519,-0.6156065181,-0.7513923202,0.197641521
1.1300,0.1313479943,-0.6152707799,-0.7515797727,0.1982861997
1.1350,0.1308935009,-0.6149233848,-0.7517681756,0.1989490699
1.1400,0.1304550378,-0.6145630439,-0.751957973,0.199632049
1.1450,0.1300330299,-0.6141907139,-0.7521491297,0.2003318868
1.1500,0.1296248518,-0.6138063906,-0.7523415482,0.2010505097
1.1550,0.1292286854,-0.6134097811,-0.7525362393,0.201786015
1.1600,0.1288404662,-0.6130009913,-0.7527337674,0.2025383777
1.1650,0.1284572266,-0.6125807358,-0.7529341277,0.2033071134
1.1700,0.1280755671,-0.6121473208,-0.7531389471,0.2040931969
1.1750,0.1276945392,-0.6117013007,-0.7533477441,0.204897047
1.1800,0.1273114339,-0.6112418165,-0.7535618514,0.205717711
1.1850,0.1269242267,-0.6107687605,-0.7537815423,0.2065554368
1.1900,0.126531979,-0.6102830698,-0.7540065705,0.2074085933
1.1950,0.1261302775,-0.6097831916,-0.7542384595,0.2082785599
1.2000,0.1257187834,-0.6092689149,-0.7544776301,0.2091642479
1.2050,0.1252938716,-0.6087396329,-0.7547249717,0.2100659948
1.2100,0.1248523346,-0.608194957,-0.7549810302,0.2109844374
1.2150,0.1243932893,-0.6076336247,-0.7552463151,0.2119214268
1.2200,0.1239130454,-0.6070541997,-0.7555227749,0.2128757674
1.2250,0.1234094211,-0.6064559033,-0.7558105985,0.2138496932
1.2300,0.1228816198,-0.6058391694,-0.7561092528,0.2148436784
1.2350,0.1223287388,-0.6052034749,-0.7564188918,0.2158585039
1.2400,0.1217479236,-0.6045483169,-0.7567401617,0.2168942214
1.2450,0.1211422161,-0.6038723072,-0.7570731577,0.2179519077
1.2500,0.1205101287,-0.6031767113,-0.757416504,0.2190328817
1.2550,0.1198522164,-0.6024612717,-0.7577701802,0.2201368127
1.2600,0.1191670676,-0.6017258147,-0.7581346587,0.2212624982
1.2650,0.1184542076,-0.600970242,-0.7585098193,0.2224100335
1.2700,0.1177156034,-0.6001953749,-0.7588943396,0.2235798067
1.2750,0.1169489733,-0.5994020837,-0.7592880758,0.2247703223
1.2800,0.1161548634,-0.5985902002,-0.759690963,0.2259811069
1.2850,0.1153317283,-0.5977592712,-0.7601030758,0.2272130283
1.2900,0.1144794405,-0.5969104081,-0.7605235527,0.2284652014
1.2950,0.1135982021,-0.5960443533,-0.7609513629,0.2297381132
1.3000,0.1126883018,-0.5951593625,-0.7613874782,0.2310320062
1.3050,0.1117516391,-0.5942561694,-0.7618308107,0.2323467068
1.3100,0.1107889717,-0.5933355832,-0.7622800646,0.2336831028
1.3150,0.1098032198,-0.592396726,-0.7627356579,0.2350397586
1.3200,0.1087947591,-0.5914386398,-0.7631981284,0.2364162698
1.3250,0.1077636519,-0.59046266,-0.7636660386,0.2378130022
1.3300,0.1067141442,-0.5894683476,-0.764139364,0.2392283241
1.3350,0.1056467509,-0.588456618,-0.7646167101,0.2406633736
1.3400,0.1045607135,-0.5874262619,-0.7650992655,0.2421168273
1.3450,0.103457327,-0.5863771886,-0.7655864291,0.2435893957
1.3500,0.1023371629,-0.5853096803,-0.7660776675,0.2450809878
1.3550,0.1012017373,-0.5842240076,-0.7665726223,0.2465906164
1.3600,0.1000517472,-0.5831205533,-0.7670702868,0.2481194134
1.3650,0.09888771137,-0.5819978742,-0.7675718238,0.2496661575
1.3700,0.09770860009,-0.5808584357,-0.7680758936,0.2512288374
1.3750,0.09651620479,-0.5797012012,-0.7685822073,0.2528092763
1.3800,0.09530847982,-0.5785257397,-0.7690909196,0.2544079785
1.3850,0.09408342188,-0.5773337596,-0.7696015217,0.2560225333
1.3900,0.09283967041,-0.5761239763,-0.7701147108,0.2576534336
1.3950,0.09157605224,-0.5748975222,-0.7706297697,0.2592998721
1.4000,0.09029190866,-0.5736544778,-0.7711462277,0.2609624625
1.4050,0.08898620021,-0.5723956933,-0.7716639803,0.2626391592
1.4100,0.08765681904,-0.5711200166,-0.7721836067,0.2643306381
1.4150,0.08630415449,-0.5698282396,-0.7727047354,0.2660352648
1.4200,0.08492556389,-0.5685202055,-0.7732270071,0.2677544025
1.4250,0.08352080714,-0.567196014,-0.7737502828,0.2694873954
1.4300,0.08208880569,-0.5658536126,-0.7742755677,0.2712350684
1.4350,0.08062860451,-0.5644945844,-0.774801978,0.2729959472
1.4400,0.07913961556,-0.5631184141,-0.7753297394,0.2747696638
1.4450,0.07761921702,-0.561725182,-0.7758578454,0.276558639
1.4500,0.07606871907,-0.5603122715,-0.7763878316,0.2783624316
1.4550,0.07448663636,-0.5588809653,-0.7769184265,0.2801813094
1.4600,0.07287647544,-0.5574281939,-0.7774502523,0.2820176116
1.4650,0.07123830439,-0.5559552629,-0.777982453,0.2838699569
1.4700,0.06957379331,-0.5544618498,-0.7785140178,0.2857402116
1.4750,0.06788221969,-0.5529471326,-0.7790454546,0.2876276279
1.4800,0.06616339513,-0.5514125326,-0.7795752648,0.2895324342
1.4850,0.06441850269,-0.5498568161,-0.7801041561,0.2914536738
1.4900,0.06264418957,-0.5482800632,-0.780631497,0.293392474
1.4950,0.06084441533,-0.5466820627,-0.7811571996,0.2953474376
1.5000,0.05901908009,-0.5450634137,-0.7816799267,0.2973198874
1.5050,0.05716774207,-0.5434241294,-0.78219953,0.2993091379
1.5100,0.0552933584,-0.5417641375,-0.7827154157,0.3013151867
1.5150,0.05339574628,-0.5400846868,-0.7832276248,0.3033346555
1.5200,0.05147644728,-0.5383856405,-0.7837352503,0.3053688506
1.5250,0.04953625463,-0.5366682083,-0.7842378355,0.3074156975
1.5300,0.04757498935,-0.5349322558,-0.7847353082,0.3094747134
1.5350,0.04559381491,-0.5331785165,-0.785227149,0.3115448572
1.5400,0.04359552086,-0.5314066355,-0.7857127601,0.313626971
1.5450,0.04157901937,-0.5296171307,-0.7861924233,0.3157187889
1.5500,0.03954781708,-0.5278098941,-0.7866659405,0.317819735
1.5550,0.03750267866,-0.5259849196,-0.7871324371,0.3199311487
1.5600,0.03544711195,-0.5241415458,-0.7875916301,0.32205367
1.5650,0.03338395005,-0.5222801925,-0.7880431066,0.3241866354
1.5700,0.03131540721,-0.5203999056,-0.7884877102,0.3263286908
1.5750,0.02924363133,-0.5185017445,-0.7889243347,0.3284800528
1.5800,0.02716986071,-0.5165862513,-0.789352326,0.330640816
1.5850,0.02509603414,-0.514654014,-0.7897723155,0.3328079395
1.5900,0.02302256078,-0.512705987,-0.7901835309,0.3349813727
1.5950,0.02094997816,-0.5107423525,-0.790586184,0.3371599524
1.6000,0.01888018134,-0.5087645621,-0.7909793385,0.3393432557
1.6050,0.01681184098,-0.5067732624,-0.7913629988,0.3415301256
1.6100,0.01474781753,-0.5047675548,-0.7917372761,0.343721258
1.6150,0.0126880122,-0.50274826,-0.7921019816,0.345915672
1.6200,0.01063493603,-0.500714985,-0.7924570829,0.3481137366
1.6250,0.008588567319,-0.4986679204,-0.7928022514,0.3503157603
1.6300,0.006548141532,-0.4966073011,-0.7931375125,0.3525212002
1.6350,0.004513119357,-0.4945341975,-0.7934627827,0.3547285889
1.6400,0.002484039262,-0.4924484696,-0.7937773668,0.3569395275
1.6450,0.0004611383362,-0.4903501013,-0.7940815933,0.3591531549
1.6500,-0.001556856132,-0.4882398783,-0.794374932,0.3613694298
1.6550,-0.00357072794,-0.4861174436,-0.7946571534,0.3635891768
1.6600,-0.005581523662,-0.4839828055,-0.7949284459,0.3658117775
1.6650,-0.00758837064,-0.4818368845,-0.795187777,0.3680380859
1.6700,-0.009590557189,-0.4796779252,-0.7954355171,0.3702694254
1.6750,-0.01158884873,-0.4775068881,-0.7956714887,0.3725047012
1.6800,-0.01358002674,-0.4753229896,-0.795895799,0.3747446006
1.6850,-0.01556174061,-0.4731263728,-0.7961077001,0.3769904473
1.6900,-0.01753470029,-0.4709172555,-0.7963073604,0.3792414277
1.6950,-0.01949787047,-0.4686952993,-0.7964953509,0.3814966651
1.7000,-0.02145237593,-0.46646126,-0.7966711649,0.3837560989
1.7050,-0.02339726581,-0.4642158567,-0.796834663,0.386019075
1.7100,-0.02533304586,-0.4619595364,-0.7969859104,0.3882847951
1.7150,-0.02725973055,-0.4596924162,-0.7971246522,0.3905535539
1.7200,-0.02917806812,-0.4574147132,-0.7972515191,0.3928236701
1.7250,-0.03108839225,-0.4551264187,-0.7973664319,0.3950952141
1.7300,-0.03299120195,-0.4528297552,-0.7974685132,0.3973672909
1.7350,-0.03488674651,-0.4505246738,-0.7975577337,0.3996399564
1.7400,-0.03677572051,-0.44821142,-0.7976342093,0.4019125993
1.7450,-0.03865708587,-0.445889164,-0.7976987087,0.4041846772
1.7500,-0.04053293082,-0.4435598152,-0.7977502196,0.4064558512
1.7550,-0.04240099726,-0.4412221127,-0.7977889065,0.4087273705
1.7600,-0.04426249311,-0.4388778088,-0.7978147603,0.4109972128
1.7650,-0.04611586796,-0.4365245355,-0.7978284342,0.4132667979
1.7700,-0.04796334683,-0.4341634466,-0.7978302618,0.4155339847
1.7750,-0.0498045185,-0.4317954786,-0.797820306,0.417797719
1.7800,-0.05163900527,-0.4294190832,-0.7977984905,0.4200597966
1.7850,-0.05346599858,-0.4270345747,-0.7977649671,0.4223196849
1.7900,-0.05528351209,-0.4246430379,-0.7977196477,0.4245767154
1.7950,-0.05709338714,-0.4222448592,-0.7976625569,0.4268302582
1.8000,-0.05889679237,-0.4198389439,-0.7975948651,0.4290790839
1.8050,-0.06069332134,-0.4174274926,-0.7975150797,0.4313239002
1.8100,-0.06248477438,-0.4150104278,-0.7974239982,0.4335631037
1.8150,-0.06426915684,-0.4125868394,-0.7973213763,0.4357983459
1.8200,-0.066045621,-0.4101571347,-0.7972077698,0.4380283924
1.8250,-0.06781593341,-0.4077200322,-0.7970833598,0.4402538949
1.8300,-0.06957783792,-0.405277352,-0.7969483203,0.4424732389
1.8350,-0.07133236087,-0.4028285902,-0.7968025317,0.444687021
1.8400,-0.07308028465,-0.4003743456,-0.7966456007,0.4468953369
1.8450,-0.07482241943,-0.3979149743,-0.7964780225,0.4490969143
1.8500,-0.07656056837,-0.3954517721,-0.7962989497,0.4512918767
1.8550,-0.07829506135,-0.3929844514,-0.7961089392,0.4534795047
1.8600,-0.08002625129,-0.3905150183,-0.7959073266,0.4556592444
1.8650,-0.08175504696,-0.3880413781,-0.7956944176,0.4578322782
1.8700,-0.08348260329,-0.3855647008,-0.7954693649,0.4599989195
1.8750,-0.08520634673,-0.3830836702,-0.7952325081,0.4621601867
1.8800,-0.08692519799,-0.3805970502,-0.7949849107,0.4643155038
1.8850,-0.08863739257,-0.3781046626,-0.794725332,0.4664674946
1.8900,-0.09033906776,-0.3756058925,-0.7944541462,0.4686167687
1.8950,-0.0920313745,-0.3730983619,-0.7941726281,0.4707628653
1.9000,-0.09371406548,-0.3705820349,-0.7938808238,0.4729057696
1.9050,-0.09538712452,-0.3680563329,-0.7935786345,0.4750460853
1.9100,-0.0970521858,-0.3655216564,-0.7932659193,0.4771833749
1.9150,-0.09871248102,-0.3629776481,-0.7929424302,0.4793176145
1.9200,-0.1003679661,-0.3604249149,-0.7926088428,0.4814471669
1.9250,-0.1020200103,-0.3578632814,-0.7922655827,0.4835711279
1.9300,-0.1036680237,-0.3552926665,-0.7919124542,0.4856899494
1.9350,-0.1053122414,-0.3527117197,-0.7915507609,0.4878023857
1.9400,-0.1069515607,-0.3501219575,-0.791180473,0.4899075807
1.9450,-0.1085887194,-0.347523067,-0.7908013067,0.4920055907
1.9500,-0.1102226104,-0.3449141795,-0.7904150144,0.494094414
1.9550,-0.1118558229,-0.3422968597,-0.7900209025,0.496173466
1.9600,-0.1134855558,-0.339670286,-0.7896197199,0.4982427354
1.9650,-0.1151139164,-0.3370354437,-0.7892109103,0.5003019439
1.9700,-0.1167409209,-0.3343907771,-0.7887957561,0.5023500978
1.9750,-0.1183675073,-0.3317364347,-0.7883742409,0.5043868827
1.9800,-0.1199963058,-0.3290736022,-0.787946235,0.5064110798
1.9850,-0.1216276205,-0.326402597,-0.7875124403,0.5084213047
1.9900,-0.1232629641,-0.3237242286,-0.7870716907,0.5104184745
1.9950,-0.1249037503,-0.3210381418,-0.7866239487,0.5124025059
2.0000,-0.1265516376,-0.318344517,-0.7861689467,0.5143732484
2.0050,-0.1282075486,-0.3156428755,-0.7857063595,0.5163312079
2.0100,-0.1298716835,-0.3129350076,-0.7852353749,0.5182764058
2.0150,-0.1315436817,-0.3102198652,-0.7847553214,0.5202105157
2.0200,-0.1332225321,-0.3074966023,-0.7842663095,0.5221340367
2.0250,-0.1349079251,-0.3047647279,-0.7837678484,0.5240479674
2.0300,-0.1365970139,-0.302023569,-0.7832608446,0.5259519644
2.0350,-0.138290341,-0.2992704137,-0.7827454907,0.5278470402
2.0400,-0.1399863943,-0.2965052832,-0.7822219558,0.5297331765
2.0450,-0.141685316,-0.2937297991,-0.7816894045,0.5316105259
2.0500,-0.1433868427,-0.2909421206,-0.781148206,0.5334794992
2.0550,-0.1450901711,-0.2881427918,-0.7805978838,0.5353405622
2.0600,-0.1467951337,-0.2853307621,-0.7800391662,0.5371931162
2.0650,-0.1485014433,-0.2825064949,-0.779472536,0.5390361466
2.0700,-0.1502089744,-0.2796717129,-0.7788976802,0.5408691162
2.0750,-0.1519197724,-0.2768267861,-0.7783139196,0.5426921372
2.0800,-0.1536339054,-0.2739740562,-0.7777214163,0.5445036624
2.0850,-0.1553536017,-0.2711122565,-0.7771194574,0.5463046327
2.0900,-0.1570769874,-0.2682408662,-0.7765082189,0.5480954695
2.0950,-0.158804499,-0.2653596525,-0.7758869914,0.5498770431
2.1000,-0.1605363027,-0.2624703913,-0.7752556629,0.5516484808
2.1050,-0.1622737343,-0.2595729937,-0.7746143859,0.5534091156
2.1100,-0.1640174327,-0.2566685218,-0.7739620413,0.555159716
2.1150,-0.1657669679,-0.2537561299,-0.7732989683,0.5569002106
2.1200,-0.1675231091,-0.2508375095,-0.7726243699,0.5586305889
2.1250,-0.169284174,-0.2479123589,-0.7719390073,0.5603503367
2.1300,-0.1710515501,-0.2449808948,-0.7712419214,0.5620601633
2.1350,-0.1728255525,-0.2420429365,-0.7705330558,0.5637600156
2.1400,-0.1746036297,-0.2390980247,-0.7698136029,0.5654491347
2.1450,-0.1763851669,-0.2361462417,-0.7690827575,0.5671286781
2.1500,-0.1781683602,-0.2331876423,-0.7683407868,0.5687987291
2.1550,-0.1799536324,-0.2302239394,-0.7675865726,0.570459886
2.1600,-0.181742055,-0.2272544434,-0.7668207427,0.572111171
2.1650,-0.1835328496,-0.2242814367,-0.7660424072,0.5737530484
2.1700,-0.1853246894,-0.2213042058,-0.7652512104,0.5753866466
2.1750,-0.1871173815,-0.2183224146,-0.7644479177,0.577011083
2.1800,-0.1889097499,-0.2153371706,-0.7636321332,0.5786268007
2.1850,-0.190701232,-0.212348998,-0.7628038511,0.58023377
2.1900,-0.1924916475,-0.2093565662,-0.7619642169,0.5818310115
2.1950,-0.1942793597,-0.2063630314,-0.7611122024,0.5834192704
2.2000,-0.1960636512,-0.2033689662,-0.7602483371,0.5849979267
2.2050,-0.1978449701,-0.2003761405,-0.7593723639,0.5865666058
2.2100,-0.1996234193,-0.1973857491,-0.7584845165,0.5881246421
2.2150,-0.201397053,-0.1944000949,-0.7575848883,0.5896719149
2.2200,-0.2031666184,-0.1914194768,-0.7566721388,0.5912099318
2.2250,-0.2049303945,-0.1884437066,-0.7557471531,0.5927383431
2.2300,-0.2066864157,-0.1854728276,-0.7548098582,0.5942580532
2.2350,-0.2084344964,-0.1825072684,-0.7538603997,0.5957689615
2.2400,-0.2101717463,-0.179545754,-0.7529005248,0.5972704236
2.2450,-0.2118952596,-0.1765865129,-0.7519317788,0.5987622253
2.2500,-0.2136042322,-0.1736308832,-0.7509526243,0.6002463698
2.2550,-0.2152972729,-0.1706776789,-0.7499651248,0.6017213025
2.2600,-0.2169755119,-0.1677292038,-0.748968319,0.6031873661
2.2650,-0.2186410926,-0.1647863359,-0.7479636426,0.6046419812
2.2700,-0.2202962021,-0.161851505,-0.7469495916,0.6060857871
2.2750,-0.2219421884,-0.158924127,-0.7459274704,0.6075170744
2.2800,-0.2235799041,-0.1560051068,-0.7448961048,0.608936964
2.2850,-0.2252104613,-0.1530968348,-0.7438551909,0.6103450355
2.2900,-0.2268358916,-0.1502007072,-0.742806116,0.6117387513
2.2950,-0.2284560091,-0.1473177254,-0.7417475193,0.6131198556
2.3000,-0.2300688611,-0.1444472461,-0.7406806935,0.6144879352
2.3050,-0.2316708188,-0.1415884527,-0.7396069233,0.6158432761
2.3100,-0.233260147,-0.1387382295,-0.7385280497,0.6171853265
2.3150,-0.2348378164,-0.1358980004,-0.7374454282,0.6185120645
2.3200,-0.2364031309,-0.1330703662,-0.7363578548,0.6198249326
2.3250,-0.2379560736,-0.1302543097,-0.7352671955,0.6211222691
2.3300,-0.2394993109,-0.1274513118,-0.734171841,0.6224049736
2.3350,-0.2410322427,-0.1246624906,-0.7330729981,0.6236719497
2.3400,-0.2425561979,-0.1218881762,-0.7319698346,0.6249239351
2.3450,-0.2440725673,-0.1191258322,-0.7308623535,0.6261611919
2.3500,-0.2455792892,-0.1163768257,-0.7297515681,0.6273833724
2.3550,-0.2470786212,-0.1136414381,-0.7286373072,0.6285900516
2.3600,-0.2485726817,-0.1109219094,-0.7275181447,0.6297819472
2.3650,-0.2500611174,-0.1082173038,-0.7263941294,0.6309596037
2.3700,-0.2515435446,-0.1055254647,-0.7252642955,0.6321249268
2.3750,-0.2530170704,-0.102843442,-0.7241299471,0.6332783023
2.3800,-0.2544788244,-0.1001695754,-0.7229920525,0.6344202678
2.3850,-0.2559304066,-0.09750455725,-0.7218522981,0.6355483837
2.3900,-0.2573738927,-0.0948492358,-0.7207086766,0.6366642014
2.3950,-0.2588056675,-0.09220315316,-0.7195625271,0.637767963
2.4000,-0.2602267488,-0.08956519733,-0.718413703,0.6388598172
2.4050,-0.2616365219,-0.08693646149,-0.7172623757,0.6399398929
2.4100,-0.2630346426,-0.08431651114,-0.7161084179,0.6410087648
2.4150,-0.2644253349,-0.08170738696,-0.7149510724,0.6420655023
2.4200,-0.2658074525,-0.07911160512,-0.7137911237,0.6431096204
2.4250,-0.2671822632,-0.07653064799,-0.7126274418,0.6441419311
2.4300,-0.2685501772,-0.07396439266,-0.7114601885,0.6451623602
2.4350,-0.2699115667,-0.07141492231,-0.7102898211,0.6461702756
2.4400,-0.2712685352,-0.06888169404,-0.7091159119,0.6471656029
2.4450,-0.2726206736,-0.06636753666,-0.7079373296,0.6481497171
2.4500,-0.273969065,-0.06387244116,-0.7067536405,0.6491229115
2.4550,-0.2753134104,-0.06139764931,-0.7055655735,0.6500846685
2.4600,-0.2766515655,-0.05894399516,-0.7043732152,0.6510360132
2.4650,-0.2779821282,-0.05650835856,-0.7031775908,0.651977007
2.4700,-0.2793044513,-0.05409117138,-0.7019803317,0.6529064118
2.4750,-0.2806173777,-0.05169315606,-0.7007815099,0.6538248851
2.4800,-0.2819220115,-0.04931542601,-0.6995804226,0.654732923
2.4850,-0.2832176967,-0.04695842,-0.6983787556,0.6556292831
2.4900,-0.2845070688,-0.04462401687,-0.6971749301,0.6565146927
2.4950,-0.2857890284,-0.04231090828,-0.6959705313,0.6573883463
2.5000,-0.2870638591,-0.04001913026,-0.6947646649,0.6582513733
2.5050,-0.2883293221,-0.03774799212,-0.6935588476,0.6591034942
2.5100,-0.2895828127,-0.03549584199,-0.6923543209,0.6599449479
2.5150,-0.2908239915,-0.03326165159,-0.6911528013,0.66077445
2.5200,-0.2920525452,-0.03104606136,-0.6899550006,0.6615916793
2.5250,-0.2932686156,-0.02884973501,-0.6887616139,0.6623961437
2.5300,-0.2944734119,-0.02667305309,-0.6875739187,0.6631862968
2.5350,-0.295666709,-0.02451672615,-0.6863909339,0.6639635631
2.5400,-0.296852375,-0.02238061103,-0.6852115043,0.6647277413
2.5450,-0.2980317313,-0.02026792945,-0.6840345225,0.6654795792
2.5500,-0.2992062059,-0.01817881978,-0.6828609465,0.6662177607
2.5550,-0.3003758478,-0.01611220027,-0.681689822,0.666943576
2.5600,-0.3015404656,-0.0140681808,-0.6805227432,0.6676557721
2.5650,-0.3026986499,-0.01204495963,-0.6793587224,0.6683563216
2.5700,-0.3038486261,-0.01004144397,-0.6781980215,0.6690460563
2.5750,-0.3049879511,-0.008055800575,-0.6770433914,0.6697235996
2.5800,-0.3061163255,-0.006085308292,-0.6758962247,0.6703879905
2.5850,-0.3072327314,-0.004126315554,-0.6747565011,0.6710400036
2.5900,-0.3083358218,-0.002177787016,-0.6736237007,0.6716810166
2.5950,-0.3094259082,-0.0002388659032,-0.6724988095,0.672310123
2.6000,-0.3105027566,0.001689650554,-0.6713817267,0.6729277526
2.6050,-0.3115705345,0.003606857391,-0.670269838,0.6735348075
2.6100,-0.3126321784,0.005509873309,-0.6691625127,0.6741307692
2.6150,-0.3136872666,0.007400424734,-0.6680585164,0.6747172379
2.6200,-0.3147361006,0.009280864655,-0.6669589366,0.6752931434
2.6250,-0.3157798169,0.0111493275,-0.6658623568,0.6758595427
2.6300,-0.3168198355,0.01300546202,-0.6647674983,0.676417196
2.6350,-0.3178572773,0.01484921311,-0.6636729847,0.6769670757
2.6400,-0.318890923,0.01667928064,-0.6625797969,0.6775089619
2.6450,-0.3199205198,0.01849496461,-0.6614878319,0.6780432476
2.6500,-0.3209478246,0.02029647507,-0.6603957321,0.678570574
2.6550,-0.321972909,0.02208552172,-0.6593031156,0.6790913615
2.6600,-0.3229940034,0.02386280916,-0.6582095019,0.6796070127
2.6650,-0.3240110653,0.02563029181,-0.6571161264,0.6801163975
2.6700,-0.3250233327,0.02738835315,-0.6560232078,0.6806197632
2.6750,-0.3260322392,0.02913621144,-0.654929095,0.6811181548
2.6800,-0.3270423934,0.03087300098,-0.6538312345,0.6816119479
2.6850,-0.3280514225,0.03259851969,-0.6527285223,0.682103421
2.6900,-0.3290604791,0.03431550433,-0.6516211293,0.6825917895
2.6950,-0.3300724931,0.036023799,-0.6505085806,0.6830761464
2.7000,-0.3310874647,0.03772291432,-0.649388443,0.6835588654
2.7050,-0.3321041976,0.03941466714,-0.6482619352,0.6840392894
2.7100,-0.3331222042,0.0411004106,-0.6471295119,0.6845171642
2.7150,-0.3341362453,0.04278379104,-0.6459929751,0.6849931335
2.7200,-0.3351483035,0.04446786196,-0.6448516426,0.6854666899
2.7250,-0.3361573709,0.04615265707,-0.6437055628,0.6859382645
2.7300,-0.3371637932,0.04783949317,-0.6425553387,0.6864070193
2.7350,-0.3381673841,0.04952757989,-0.6413991544,0.6868747804
2.7400,-0.3391686684,0.05121527923,-0.640237129,0.6873412749
2.7450,-0.3401676018,0.05290310769,-0.6390687801,0.6878069193
2.7500,-0.3411638051,0.05459115712,-0.6378951737,0.6882708849
2.7550,-0.3421559428,0.05628020804,-0.6367171331,0.6887329971
2.7600,-0.343146231,0.05796832931,-0.6355328869,0.6891939398
2.7650,-0.3441356172,0.05965298266,-0.634343318,0.6896526325
2.7700,-0.3451259769,0.06133303038,-0.6331462368,0.6901102537
2.7750,-0.3461200877,0.06300879187,-0.6319411075,0.6905658649
2.7800,-0.347116975,0.06468144616,-0.6307279314,0.6910198208
2.7850,-0.3481173125,0.0663527524,-0.629507443,0.6914709163
2.7900,-0.3491206736,0.06802356881,-0.6282807155,0.6919182696
2.7950,-0.3501258464,0.06969534519,-0.6270483367,0.6923617798
2.8000,-0.3511326108,0.07137113701,-0.6258129223,0.6927988429
2.8050,-0.3521408556,0.07305279091,-0.6245740136,0.6932296944
2.8100,-0.3531550008,0.07473946045,-0.6233313706,0.6936523343
2.8150,-0.3541745699,0.07643262553,-0.6220838877,0.6940677665
2.8200,-0.3552001844,0.07813193294,-0.6208314158,0.6944757615
2.8250,-0.3562323539,0.07983954581,-0.6195723518,0.6948771531
2.8300,-0.3572717974,0.08155621887,-0.6183073618,0.6952707762
2.8350,-0.3583187877,0.08328291353,-0.6170353778,0.6956572038
2.8400,-0.359372126,0.08501941043,-0.6157578599,0.6960356549
2.8450,-0.360431822,0.08676549055,-0.6144743435,0.696406442
2.8500,-0.3614969071,0.08852334502,-0.6131839762,0.6967704176
2.8550,-0.3625672701,0.09029071627,-0.611886042,0.6971284192
2.8600,-0.3636420789,0.09207072155,-0.6105801252,0.6974807032
2.8650,-0.3647201734,0.0938597956,-0.6092661859,0.6978282371
2.8700,-0.3658027985,0.09565580923,-0.6079429421,0.6981716536
2.8750,-0.3668902176,0.09745566438,-0.6066075685,0.6985135786
2.8800,-0.3679821042,0.0992555886,-0.6052590721,0.6988554606
2.8850,-0.3690776506,0.1010540141,-0.6038968723,0.6991983565
2.8900,-0.3701733782,0.1028490172,-0.6025220767,0.6995433488
2.8950,-0.3712672962,0.1046402675,-0.6011367413,0.6998897252
2.9000,-0.3723576279,0.1064257189,-0.5997406421,0.700238906
2.9050,-0.3734417472,0.1082059328,-0.5983360132,0.7005902889
2.9100,-0.3745160457,0.1099807953,-0.5969244571,0.7009444691
2.9150,-0.375578211,0.1117497459,-0.5955092456,0.7013000357
2.9200,-0.3766247401,0.1135131807,-0.5940925619,0.7016570322
2.9250,-0.3776547311,0.1152709823,-0.5926774489,0.7020134944
2.9300,-0.3786643013,0.1170240842,-0.591267979,0.7023680571
2.9350,-0.3796529165,0.1187731385,-0.5898659235,0.7027195719
2.9400,-0.3806202694,0.1205193726,-0.5884742355,0.7030656907
2.9450,-0.3815665427,0.1222623986,-0.5870948159,0.7034049733
2.9500,-0.3824919048,0.1240024517,-0.5857287876,0.7037365431
2.9550,-0.3833968073,0.1257369579,-0.5843791619,0.7040583077
2.9600,-0.3842829382,0.127466139,-0.5830479405,0.7043678768
2.9650,-0.3851519039,0.1291882139,-0.5817345732,0.7046653835
2.9700,-0.3860040162,0.1309033605,-0.5804415891,0.7049487721
2.9750,-0.386838516,0.1326119571,-0.5791717829,0.7052163337
2.9800,-0.3876555574,0.134312611,-0.5779254542,0.7054682564
2.9850,-0.388457721,0.1360054452,-0.576701323,0.7057044012
2.9900,-0.389243683,0.1376893822,-0.5755011791,0.7059244875
2.9950,-0.3900144729,0.1393629371,-0.5743247469,0.706128719
3.0000,-0.3907676262,0.1410269323,-0.5731732944,0.7063175216
3.0050,-0.3915041638,0.1426827839,-0.5720457871,0.7064911396
3.0100,-0.3922246241,0.1443282039,-0.5709413903,0.7066506511
3.0150,-0.3929310201,0.1459603009,-0.5698584354,0.7067971191
3.0200,-0.3936211024,0.1475795111,-0.5687958644,0.7069327976
3.0250,-0.3942966228,0.1491836605,-0.5677547793,0.7070565177
3.0300,-0.3949573789,0.1507709441,-0.5667324896,0.7071711791
3.0350,-0.3956017071,0.1523429494,-0.5657318438,0.7072753325
3.0400,-0.3962290169,0.1538990795,-0.5647516441,0.7073706384
3.0450,-0.396838274,0.1554402713,-0.5637934782,0.7074564441
3.0500,-0.3974295242,0.1569655166,-0.5628578015,0.7075328227
3.0550,-0.3980025896,0.1584767163,-0.5619443021,0.7075999367
3.0600,-0.3985568836,0.1599751977,-0.5610541642,0.7076571002
3.0650,-0.3990922201,0.1614611299,-0.5601889183,0.7077033836
3.0700,-0.3996074502,0.1629350376,-0.5593499558,0.7077384306
3.0750,-0.400102588,0.1643971138,-0.558537363,0.7077623345
3.0800,-0.4005786737,0.1658463978,-0.5577512276,0.70777487
3.0850,-0.4010358646,0.1672826678,-0.5569904903,0.7077770398
3.0900,-0.4014747204,0.1687062039,-0.5562548767,0.7077688732
3.0950,-0.4018990219,0.170115206,-0.5555431081,0.7077498484
3.1000,-0.4023088614,0.1715082798,-0.5548538215,0.7077215037
3.1050,-0.4027066066,0.1728862408,-0.5541853841,0.7076837548
3.1100,-0.4030891155,0.1742493827,-0.5535375509,0.7076386771
3.1150,-0.4034576528,0.1755992252,-0.5529095319,0.7075859552
3.1200,-0.4038130309,0.1769366896,-0.5523003736,0.7075257884
3.1250,-0.4041549014,0.1782615131,-0.5517095275,0.7074590065
3.1300,-0.4044829044,0.1795739932,-0.5511345242,0.7073877984
3.1350,-0.4047964135,0.1808751003,-0.5505754895,0.7073123016
3.1400,-0.4050980319,0.1821627546,-0.5500288368,0.707234469
3.1450,-0.405386507,0.1834376257,-0.5494942995,0.7071551685
3.1500,-0.4056624554,0.1847014066,-0.5489716512,0.7070738921
3.1550,-0.4059258719,0.1859541063,-0.548461895,0.7069899622
3.1600,-0.4061796304,0.1871952259,-0.5479630283,0.7069035117
3.1650,-0.406422998,0.1884255843,-0.5474741838,0.7068155091
3.1700,-0.4066574632,0.189643825,-0.5469974933,0.7067238992
3.1750,-0.4068860736,0.1908501616,-0.5465306988,0.7066287103
3.1800,-0.407109624,0.1920440883,-0.5460757093,0.7065282315
3.1850,-0.4073314275,0.1932237861,-0.5456323455,0.7064212767
3.1900,-0.4075538195,0.1943899538,-0.5452013847,0.706305798
3.1950,-0.4077787309,0.1955410724,-0.5447820777,0.7061817638
3.2000,-0.4080074933,0.1966800043,-0.5443754384,0.706046913
3.2050,-0.4082412717,0.1978048928,-0.543984171,0.7058990793
3.2100,-0.408481224,0.1989160547,-0.5436081334,0.7057376921
3.2150,-0.4087288413,0.2000130961,-0.5432470273,0.7055623027
3.2200,-0.4089881481,0.2010933475,-0.5428991062,0.7053727531
3.2250,-0.4092580439,0.2021573788,-0.5425648198,0.7051692449
3.2300,-0.4095423884,0.2032057271,-0.5422414681,0.7049515266
3.2350,-0.4098392666,0.2042373944,-0.5419308385,0.7047196808
3.2400,-0.41014965,0.2052519047,-0.5416312387,0.7044746422
3.2450,-0.4104742015,0.2062500754,-0.5413417268,0.7042165655
3.2500,-0.4108125532,0.2072296701,-0.5410624732,0.7039462409
3.2550,-0.4111647495,0.2081927693,-0.5407907573,0.7036651735
3.2600,-0.4115293128,0.2091406272,-0.5405255751,0.7033746694
3.2650,-0.4119054236,0.2100711195,-0.5402668592,0.703075933
3.2700,-0.412293843,0.2109850759,-0.5400108659,0.7027711928
3.2750,-0.4126944126,0.2118819381,-0.5397563754,0.7024616867
3.2800,-0.4131045859,0.2127648921,-0.5395036464,0.7021477888
3.2850,-0.4135212954,0.2136355512,-0.5392535317,0.7018301918
3.2900,-0.4139454479,0.2144929979,-0.5390034933,0.701510623
3.2950,-0.414376237,0.215338489,-0.5387523628,0.7011901033
3.3000,-0.4148149301,0.2161711363,-0.5384994756,0.7008686956
3.3050,-0.4152618503,0.2169888043,-0.5382425167,0.7005486762
3.3100,-0.4157158907,0.2177929185,-0.537980005,0.7002314311
3.3150,-0.4161778544,0.2185835989,-0.5377111619,0.6999170738
3.3200,-0.4166480254,0.2193603867,-0.5374352252,0.699606191
3.3250,-0.4171222164,0.2201266688,-0.5371513477,0.6993008909
3.3300,-0.4176003749,0.2208842412,-0.5368612008,0.6989993777
3.3350,-0.418080428,0.2216333128,-0.5365634679,0.6987038537
3.3400,-0.4185605549,0.2223761471,-0.5362589269,0.6984141139
3.3450,-0.4190421023,0.2231124236,-0.5359450573,0.6981314049
3.3500,-0.4195235996,0.2238419907,-0.5356208791,0.6978574256
3.3550,-0.420005226,0.2245643033,-0.5352852066,0.6975931704
3.3600,-0.4204857978,0.2252797919,-0.5349367439,0.6973402248
3.3650,-0.4209658141,0.2259866133,-0.5345736211,0.6971003354
3.3700,-0.4214453613,0.2266853554,-0.5341961475,0.6968730395
3.3750,-0.4219236171,0.2273761129,-0.5338019491,0.6966606374
3.3800,-0.4224009067,0.2280583179,-0.5333907141,0.6964633685
3.3850,-0.4228746271,0.2287346845,-0.5329651457,0.6962798628
3.3900,-0.4233441948,0.2294050168,-0.5325248787,0.6961108278
3.3950,-0.4238077657,0.2300704791,-0.5320709811,0.6959561936
3.4000,-0.4242665846,0.2307297444,-0.5316012649,0.6958173219
3.4050,-0.4247191295,0.2313822087,-0.5311181587,0.6956934929
3.4100,-0.4251661923,0.2320298655,-0.5306203586,0.6955845638
3.4150,-0.4256078764,0.2326712827,-0.530109599,0.6954896281
3.4200,-0.4260420249,0.2333092038,-0.5295841594,0.6954104015
3.4250,-0.4264684202,0.2339422067,-0.5290454285,0.6953464353
3.4300,-0.4268877884,0.2345699844,-0.5284924111,0.6952981447
3.4350,-0.4273016329,0.2351936445,-0.5279230898,0.6952657588
3.4400,-0.4277078913,0.2358142521,-0.5273384027,0.6952494568
3.4450,-0.4281083019,0.2364318712,-0.5267374142,0.6952488393
3.4500,-0.4285032537,0.2370445398,-0.5261203816,0.6952641166
3.4550,-0.4288906083,0.2376547876,-0.5254880407,0.6952951655
3.4600,-0.4292687292,0.2382623851,-0.5248433406,0.6953408242
3.4650,-0.4296379808,0.2388696305,-0.5241878121,0.695398909
3.4700,-0.4299966529,0.2394764915,-0.5235227803,0.6954694723
3.4750,-0.4303452768,0.2400810076,-0.5228515438,0.6955503689
3.4800,-0.4306848398,0.2406819381,-0.5221732365,0.6956420663
3.4850,-0.4310151731,0.2412783241,-0.5214913188,0.6957424058
3.4900,-0.4313361533,0.2418683855,-0.5208065154,0.6958515506
3.4950,-0.4316491474,0.2424510239,-0.5201203293,0.6959679285
3.5000,-0.4319547709,0.2430244521,-0.5194349789,0.6960901481
3.5050,-0.4322516338,0.2435878588,-0.5187531345,0.6962173982
3.5100,-0.4325398483,0.2441397277,-0.5180767768,0.6963487103
3.5150,-0.432821592,0.2446777813,-0.5174068884,0.6964828531
3.5200,-0.4330959937,0.2452018369,-0.5167473394,0.6966176187
3.5250,-0.4333638861,0.2457106115,-0.5160975997,0.6967534034
3.5300,-0.4336236977,0.2462030748,-0.5154614254,0.6968888388
3.5350,-0.4338781705,0.2466778686,-0.5148379526,0.6970234177
3.5400,-0.4341278188,0.247135897,-0.514227819,0.6971561056
3.5450,-0.4343713424,0.2475763793,-0.5136326138,0.6972868932
3.5500,-0.4346097799,0.248000747,-0.5130518497,0.6974150616
3.5550,-0.4348417668,0.248409028,-0.5124877874,0.697539863
3.5600,-0.4350675793,0.2488027748,-0.5119412616,0.6976600356
3.5650,-0.4352858671,0.2491845723,-0.5114110355,0.6977764797
3.5700,-0.4354974843,0.2495538564,-0.5108984875,0.6978879204
3.5750,-0.4357034623,0.2499101017,-0.5104001772,0.697996485
3.5800,-0.4359049049,0.2502538933,-0.5099136282,0.6981031403
3.5850,-0.4361031321,0.2505856435,-0.5094373617,0.6982080406
3.5900,-0.4362978786,0.2509069497,-0.5089719158,0.6983104272
3.5950,-0.4364875653,0.2512212473,-0.5085171856,0.6984101676
3.6000,-0.4366734606,0.2515290854,-0.5080711396,0.6985077845
3.6050,-0.4368550786,0.2518319201,-0.5076343847,0.6986026452
3.6100,-0.4370337108,0.2521321616,-0.5072071424,0.6986929393
3.6150,-0.4372098156,0.2524292817,-0.5067881203,0.6987795332
3.6200,-0.4373855212,0.2527242339,-0.5063762458,0.6988615494
3.6250,-0.4375632628,0.2530150445,-0.5059707581,0.6989387456
3.6300,-0.4377427994,0.2533021024,-0.5055690177,0.6990130577
3.6350,-0.4379279488,0.2535841079,-0.5051709429,0.6990826348
3.6400,-0.4381203704,0.2538601265,-0.504773828,0.6991487394
3.6450,-0.4383186267,0.2541316488,-0.5043783408,0.6992112527
3.6500,-0.4385221845,0.2544010958,-0.5039853914,0.6992689764
3.6550,-0.4387314332,0.254668524,-0.5035933058,0.6993228545
3.6600,-0.4389467445,0.2549328217,-0.5032021359,0.6993730209
3.6650,-0.4391675031,0.2551946452,-0.5028112268,0.6994200937
3.6700,-0.4393931825,0.2554543894,-0.502418223,0.6994659501
3.6750,-0.4396244198,0.255711084,-0.5020252972,0.6995089792
3.6800,-0.4398599421,0.2559668059,-0.501632636,0.6995490863
3.6850,-0.44010005,0.2562191028,-0.5012384056,0.6995882919
3.6900,-0.4403440965,0.2564679288,-0.5008429557,0.6996267661
3.6950,-0.4405920941,0.2567135374,-0.5004448708,0.6996654183
3.7000,-0.4408417668,0.2569582858,-0.5000471034,0.6997027014
3.7050,-0.4410918724,0.2572011087,-0.4996491261,0.6997401664
3.7100,-0.4413410844,0.2574428988,-0.4992532905,0.6997766451
3.7150,-0.441587266,0.2576843033,-0.4988583302,0.6998141558
3.7200,-0.4418305406,0.2579224536,-0.4984669825,0.6998517333
3.7250,-0.442069443,0.258158242,-0.4980795241,0.6998897894
3.7300,-0.4423027583,0.2583927839,-0.4976980794,0.6999271827
3.7350,-0.4425284833,0.2586230924,-0.497325966,0.6999639427
3.7400,-0.4427455399,0.2588518795,-0.4969646966,0.6999987012
3.7450,-0.4429510029,0.2590785884,-0.4966172008,0.7000314635
3.7500,-0.4431449426,0.259303986,-0.4962839744,0.7000615826
3.7550,-0.4433272512,0.2595260095,-0.4959663179,0.7000890017
3.7600,-0.4434970774,0.2597445782,-0.4956637831,0.700114641
3.7650,-0.4436551162,0.2599559279,-0.4953784802,0.7001379969
3.7700,-0.4437993897,0.2601641569,-0.4951104718,0.7001587919
3.7750,-0.4439292341,0.2603678547,-0.4948615418,0.7001767418
3.7800,-0.4440413554,0.2605686712,-0.4946341806,0.700191595
3.7850,-0.4441354976,0.2607654145,-0.4944281971,0.7002041247
3.7900,-0.4442123264,0.2609582782,-0.4942445301,0.7002132037
3.7950,-0.4442701444,0.2611457218,-0.4940845058,0.700219574
3.8000,-0.4443083982,0.2613257975,-0.4939493965,0.7002234419
3.8050,-0.4443286098,0.261498024,-0.4938376667,0.7002251273
3.8100,-0.4443300015,0.2616630066,-0.4937506911,0.7002239469
3.8150,-0.4443115245,0.2618188203,-0.4936893208,0.7002207003
3.8200,-0.4442726463,0.2619660265,-0.4936547592,0.7002146781
3.8250,-0.4442129894,0.2621027052,-0.4936472629,0.7002066636
3.8300,-0.4441343567,0.2622290736,-0.4936673252,0.7001950858
3.8350,-0.4440351354,0.2623456145,-0.4937148715,0.7001808358
3.8400,-0.4439147087,0.2624499083,-0.4937897766,0.7001652902
3.8450,-0.4437747273,0.2625418642,-0.4938913032,0.7001479426
3.8500,-0.4436158186,0.2626195807,-0.4940188122,0.7001295412
3.8550,-0.4434394242,0.2626834306,-0.494169942,0.7001106775
3.8600,-0.4432470657,0.2627308865,-0.4943430985,0.7000924375
3.8650,-0.443041029,0.2627615963,-0.4945382262,0.7000735197
3.8700,-0.4428209863,0.2627744877,-0.4947527363,0.7000563354
3.8750,-0.4425890539,0.2627708695,-0.4949860159,0.7000394586
3.8800,-0.4423460627,0.2627493928,-0.4952388203,0.7000223056
3.8850,-0.4420933533,0.262710613,-0.4955095555,0.7000049151
3.8900,-0.4418331161,0.2626541902,-0.4957971094,0.6999867858
3.8950,-0.4415670409,0.2625793101,-0.4961003807,0.6999679039
3.9000,-0.4412954989,0.2624857129,-0.4964202718,0.6999474601
3.9050,-0.4410196722,0.2623754042,-0.4967563145,0.699924253
3.9100,-0.4407395946,0.2622464003,-0.4971066001,0.6999003239
3.9150,-0.4404580398,0.2621001088,-0.4974695191,0.6998745072
3.9200,-0.4401746548,0.2619369733,-0.4978450873,0.6998468148
3.9250,-0.4398920482,0.2617568132,-0.4982306036,0.6998175636
3.9300,-0.4396103098,0.2615594781,-0.4986256485,0.699787023
3.9350,-0.4393295357,0.2613463841,-0.4990290717,0.6997553945
3.9400,-0.439050911,0.2611175612,-0.4994415712,0.6997213973
3.9450,-0.4387747182,0.2608709614,-0.4998621287,0.6996863157
3.9500,-0.438503023,0.2606069975,-0.5002888593,0.6996500189
3.9550,-0.4382351079,0.2603260015,-0.5007226101,0.6996122003
3.9600,-0.4379710621,0.2600280282,-0.5011641982,0.6995721691
3.9650,-0.4377110568,0.2597143687,-0.5016122096,0.69953032
3.9700,-0.4374561071,0.2593856183,-0.5020671223,0.6994854252
3.9750,-0.4372053278,0.259042476,-0.5025280288,0.6994384013
3.9800,-0.4369584037,0.2586843248,-0.5029961664,0.6993887546
3.9850,-0.4367171199,0.2583122672,-0.5034695376,0.6993363672
3.9900,-0.4364801817,0.2579261272,-0.5039487177,0.6992816699
3.9950,-0.4362479227,0.2575261692,-0.5044338416,0.6992242284
4.0000,-0.4360202192,0.2571123107,-0.504924257,0.6991645893
4.0050,-0.4357979981,0.2566857941,-0.5054210921,0.6991008709
4.0100,-0.4355811741,0.2562447291,-0.5059226242,0.6990350334
4.0150,-0.4353690511,0.2557891558,-0.5064303993,0.6989663424
4.0200,-0.4351617284,0.2553202394,-0.5069435213,0.6988949218
4.0250,-0.4349595136,0.2548384676,-0.5074632456,0.6988194555
4.0300,-0.4347625062,0.2543429681,-0.5079882218,0.6987411425
4.0350,-0.4345694355,0.2538352527,-0.5085192689,0.6986595904
4.0400,-0.434380567,0.2533142843,-0.5090573358,0.6985742804
4.0450,-0.4341948386,0.2527821892,-0.5096026015,0.6984849286
4.0500,-0.434010905,0.2522360965,-0.5101561954,0.6983925417
4.0550,-0.4338294883,0.2516779297,-0.5107170214,0.6982967269
4.0600,-0.433648426,0.2511076888,-0.511285975,0.6981981259
4.0650,-0.4334656214,0.2505275129,-0.5118634808,0.6980969111
4.0700,-0.4332815376,0.2499340487,-0.5124503872,0.6979933246
4.0750,-0.4330943853,0.2493298501,-0.5130454375,0.6978884283
4.0800,-0.4329059649,0.2487130526,-0.5136479296,0.697782235
4.0850,-0.4327145911,0.2480839956,-0.5142570267,0.6976762317
4.0900,-0.4325212212,0.2474416708,-0.5148721593,0.69757055
4.0950,-0.4323237172,0.246787555,-0.5154935416,0.6974657804
4.1000,-0.4321243844,0.2461210215,-0.5161202731,0.6973613288
4.1050,-0.4319204199,0.2454399057,-0.5167514176,0.6972603359
4.1100,-0.4317147539,0.2447438322,-0.5173868636,0.6971611444
4.1150,-0.4315063278,0.2440335522,-0.5180258206,0.6970646768
4.1200,-0.4312941346,0.2433094907,-0.5186684709,0.6969712178
4.1250,-0.4310784144,0.2425714765,-0.5193162952,0.6968795197
4.1300,-0.4308581936,0.2418194438,-0.5199690156,0.6967903533
4.1350,-0.4306351944,0.24105104,-0.5206251025,0.6967045486
4.1400,-0.4304113808,0.2402654848,-0.5212848079,0.6966209078
4.1450,-0.4301863193,0.2394629272,-0.5219470122,0.6965404179
4.1500,-0.429958602,0.2386453602,-0.5226128851,0.6964623213
4.1550,-0.4297291072,0.2378112159,-0.5232845651,0.6963849395
4.1600,-0.429496966,0.2369610743,-0.5239609908,0.6963093318
4.1650,-0.4292628195,0.2360943191,-0.5246416478,0.6962356251
4.1700,-0.4290270139,0.2352117181,-0.5253267564,0.6961631045
4.1750,-0.4287873022,0.2343126745,-0.5260187396,0.6960914492
4.1800,-0.428543073,0.2333991266,-0.526716788,0.6960209103
4.1850,-0.4282940681,0.23246967,-0.5274223714,0.6959509221
4.1900,-0.4280382887,0.2315242114,-0.5281357036,0.6958824912
4.1950,-0.4277754285,0.2305620531,-0.5288554124,0.695816984
4.2000,-0.4275051845,0.2295862673,-0.5295810359,0.6957538283
4.2050,-0.4272265298,0.2285950365,-0.5303127385,0.6956940426
4.2100,-0.4269379951,0.2275898086,-0.5310514773,0.69563723
4.2150,-0.4266383389,0.2265697346,-0.5317988449,0.6955831163
4.2200,-0.4263272964,0.2255341689,-0.5325546807,0.6955320892
4.2250,-0.4260030676,0.2244846516,-0.5333219968,0.6954823328
4.2300,-0.4256657428,0.223421233,-0.5341006545,0.6954337631
4.2350,-0.4253145394,0.2223428357,-0.5348899221,0.6953876453
4.2400,-0.4249488295,0.2212492702,-0.5356910937,0.6953433
4.2450,-0.4245692353,0.2201422997,-0.5365045814,0.6952993359
4.2500,-0.4241745803,0.2190192269,-0.5373311582,0.695256593
4.2550,-0.4237644413,0.2178792122,-0.5381717568,0.6952147204
4.2600,-0.4233392223,0.2167250823,-0.5390256851,0.6951729658
4.2650,-0.4228985356,0.2155556201,-0.5398946009,0.695130508
4.2700,-0.422442502,0.2143701795,-0.5407776335,0.6950879871
4.2750,-0.4219703898,0.2131679687,-0.5416754907,0.6950453726
4.2800,-0.4214822575,0.2119506607,-0.5425888692,0.6950013979
4.2850,-0.4209785232,0.2107160256,-0.543517814,0.6949562759
4.2900,-0.4204597603,0.2094652114,-0.5444622467,0.6949091862
4.2950,-0.4199250313,0.208197414,-0.5454235609,0.6948596579
4.3000,-0.4193747604,0.206912465,-0.546401574,0.694807428
4.3050,-0.4188081231,0.2056103027,-0.5473942858,0.6947543849
4.3100,-0.4182247346,0.2042919534,-0.5484026035,0.694699542
4.3150,-0.4176235982,0.2029581203,-0.5494270943,0.6946426417
4.3200,-0.417004179,0.2016089709,-0.5504691128,0.6945826757
4.3250,-0.4163651449,0.2002462737,-0.5515283432,0.6945199656
4.3300,-0.4157048464,0.198869678,-0.5526063446,0.6944541452
4.3350,-0.4150225404,0.1974799483,-0.553703016,0.6943852901
4.3400,-0.4143174547,0.1960784319,-0.5548186259,0.6943130329
4.3450,-0.4135900101,0.1946635868,-0.5559527565,0.6942376568
4.3500,-0.4128416349,0.1932362459,-0.5571034444,0.6941594126
4.3550,-0.4120734532,0.1917940208,-0.5582702023,0.6940784567
4.3600,-0.4112873344,0.1903339892,-0.5594516336,0.6939953679
4.3650,-0.4104865258,0.1888556918,-0.5606459367,0.6939095571
4.3700,-0.4096716705,0.1873600693,-0.5618514579,0.6938214944
4.3750,-0.4088425661,0.185846637,-0.5630690464,0.6937305187
4.3800,-0.4079984756,0.1843166303,-0.5642995676,0.6936357991
4.3850,-0.4071395218,0.1827720543,-0.5655426146,0.6935368318
4.3900,-0.4062626685,0.1812149083,-0.5668007687,0.6934325416
4.3950,-0.4053689497,0.179645781,-0.5680735592,0.6933223199
4.4000,-0.4044567816,0.1780657797,-0.5693606813,0.6932068266
4.4050,-0.4035290787,0.1764761512,-0.5706628971,0.6930831902
4.4100,-0.4025859278,0.1748755389,-0.571978004,0.6929533026
4.4150,-0.4016285823,0.1732630911,-0.5733060681,0.6928163793
4.4200,-0.4006608135,0.1716364678,-0.5746437553,0.6926733645
4.4250,-0.3996852232,0.169997181,-0.5759895978,0.6925234032
4.4300,-0.3987019305,0.1683449949,-0.577340586,0.6923688187
4.4350,-0.3977110498,0.1666810495,-0.5786991888,0.6922070481
4.4400,-0.3967124661,0.1650063491,-0.5800633909,0.6920394401
4.4450,-0.3957061756,0.1633216694,-0.5814352133,0.6918639661
4.4500,-0.3946929225,0.1616262613,-0.5828129714,0.6916816385
4.4550,-0.3936707111,0.1599222685,-0.5841957546,0.6914937163
4.4600,-0.3926399822,0.1582104035,-0.5855839469,0.6912993228
4.4650,-0.3916007403,0.1564905995,-0.5869769357,0.6910988565
4.4700,-0.3905517544,0.1547641204,-0.5883762976,0.6908912553
4.4750,-0.389493463,0.153031546,-0.5897803232,0.6906774634
4.4800,-0.3884260839,0.1512915129,-0.5911904981,0.6904562625
4.4850,-0.3873500849,0.1495456142,-0.5926059028,0.6902276907
4.4900,-0.386267397,0.1477941544,-0.5940253808,0.6899914731
4.4950,-0.3851796895,0.1460367955,-0.5954486807,0.6897468592
4.5000,-0.3840862166,0.1442723223,-0.596875982,0.689494262
4.5050,-0.3829885114,0.1425012669,-0.598306476,0.6892333058
4.5100,-0.381889265,0.1407218752,-0.5997400413,0.6889628625
4.5150,-0.3807883345,0.1389348794,-0.6011755047,0.6886837853
4.5200,-0.379685253,0.1371409443,-0.6026132086,0.6883958097
4.5250,-0.3785793566,0.1353406965,-0.6040521588,0.6880999608
4.5300,-0.3774694814,0.1335352983,-0.6054950755,0.6877941758
4.5350,-0.376355692,0.1317243475,-0.6069413191,0.6874789629
4.5400,-0.3752377766,0.1299086359,-0.6083909701,0.6871541201
4.5450,-0.374117097,0.1280847506,-0.6098433569,0.6868200451
4.5500,-0.3729940779,0.1262537863,-0.61129736,0.6864771933
4.5550,-0.3718705446,0.124413631,-0.6127520386,0.6861257069
4.5600,-0.3707457164,0.1225646586,-0.6142070513,0.6857661528
4.5650,-0.3696214804,0.1207058744,-0.6156610253,0.6853988292
4.5700,-0.3684971282,0.1188369254,-0.617114514,0.6850235969
4.5750,-0.36737497,0.1169576459,-0.6185660372,0.6846404882
4.5800,-0.3662570127,0.1150641072,-0.6200131952,0.684251189
4.5850,-0.3651445924,0.1131572512,-0.6214559881,0.6838547492
4.5900,-0.3640365433,0.1112375694,-0.6228931164,0.6834528248
4.5950,-0.362933705,0.1093062677,-0.6243245269,0.6830447648
4.6000,-0.3618353743,0.1073644497,-0.6257498283,0.6826310784
4.6050,-0.3607414582,0.1054125022,-0.6271708666,0.6822100181
4.6100,-0.3596488502,0.1034507642,-0.6285888623,0.6817819931
4.6150,-0.3585591521,0.1014825243,-0.6300023742,0.6813469309
4.6200,-0.3574703472,0.09950924815,-0.6314134606,0.6809037393
4.6250,-0.3563815876,0.09753111995,-0.6328211199,0.6804537272
4.6300,-0.3552939047,0.09554993262,-0.6342256323,0.6799958081
4.6350,-0.3542096684,0.09356305944,-0.6356262446,0.6795297947
4.6400,-0.3531311686,0.0915694078,-0.6370200874,0.6790573095
4.6450,-0.3520602287,0.0895692313,-0.6384062832,0.6785781943
4.6500,-0.3509960022,0.08756305356,-0.6397855027,0.6780921977
4.6550,-0.3499377785,0.08555223816,-0.6411596013,0.6775977652
4.6600,-0.3488860841,0.08353967947,-0.6425272085,0.6770955683
4.6650,-0.3478378123,0.08152679941,-0.6438896364,0.6765858212
4.6700,-0.3467902311,0.07951599733,-0.6452489074,0.6760677401
4.6750,-0.3457414164,0.07750697396,-0.6466043321,0.6755430258
4.6800,-0.3446908766,0.07550307624,-0.647955322,0.6750121375
4.6850,-0.3436382571,0.0735034148,-0.6493032385,0.674474092
4.6900,-0.3425831065,0.07150882012,-0.6506462224,0.6739308548
4.6950,-0.3415266828,0.06951733627,-0.651982771,0.6733834949
4.7000,-0.3404698558,0.0675293567,-0.6533118916,0.6728325464
4.7050,-0.3394120772,0.06554532881,-0.6546317378,0.672280105
4.7100,-0.3383525034,0.06356681233,-0.655942385,0.6717264557
4.7150,-0.3372908369,0.0615955058,-0.6572437855,0.6711717302
4.7200,-0.3362243764,0.05963329708,-0.6585369828,0.6706161949
4.7250,-0.3351526017,0.05767879876,-0.6598210474,0.6700612473
4.7300,-0.3340752594,0.05573117763,-0.6610983124,0.6695048755
4.7350,-0.3329896447,0.05379362339,-0.662367986,0.6689490218
4.7400,-0.3318931023,0.05186604342,-0.6636322182,0.6683929691
4.7450,-0.3307842464,0.04994944023,-0.6648914433,0.6678369594
4.7500,-0.3296613678,0.04804501628,-0.6661465146,0.6672809604
4.7550,-0.3285244785,0.04615149033,-0.6673982175,0.6667243255
4.7600,-0.3273730285,0.04426771136,-0.6686468597,0.6661671314
4.7650,-0.3262065371,0.04239346654,-0.6698925829,0.6656095076
4.7700,-0.3250264402,0.04052500749,-0.6711341487,0.6650522471
4.7750,-0.3238376724,0.03865944392,-0.6723707972,0.6644938829
4.7800,-0.322641908,0.03679466033,-0.6736007588,0.6639355164
4.7850,-0.3214399195,0.03492849559,-0.6748235743,0.6633773601
4.7900,-0.3202318813,0.03305884491,-0.6760384267,0.6628202626
4.7950,-0.3190172743,0.03118336113,-0.6772466158,0.6622632393
4.8000,-0.3177980747,0.02930175552,-0.6784480874,0.6617053601
4.8050,-0.3165740248,0.02741382438,-0.6796425038,0.6611470609
4.8100,-0.3153425973,0.0255197261,-0.6808317773,0.6605875271
4.8150,-0.314104447,0.02362052425,-0.6820162205,0.6600260163
4.8200,-0.3128589072,0.02171550354,-0.6831960391,0.6594625942
4.8250,-0.3116080384,0.01980452081,-0.6843718628,0.6588955644
4.8300,-0.3103533683,0.0178861449,-0.6855419138,0.6583260265
4.8350,-0.3090959303,0.01596077781,-0.6867070484,0.6577525288
4.8400,-0.3078391348,0.0140255619,-0.6878656299,0.6571751866
4.8450,-0.3065833715,0.01208265842,-0.6890173184,0.656594076
4.8500,-0.3053311812,0.01013157084,-0.6901619264,0.6560081832
4.8550,-0.3040802169,0.008174613325,-0.691299949,0.6554180177
4.8600,-0.302831021,0.006210643673,-0.6924327439,0.6548218809
4.8650,-0.3015834278,0.004240987978,-0.6935605774,0.6542195163
4.8700,-0.3003371768,0.00226434355,-0.6946840887,0.6536103349
4.8750,-0.2990906013,0.0002814045122,-0.6958035782,0.6529947271
4.8800,-0.297843764,-0.001704835288,-0.6969197587,0.6523718539
4.8850,-0.2965934938,-0.003691658088,-0.6980332432,0.6517424817
4.8900,-0.2953409214,-0.005678879397,-0.6991440421,0.651106058
4.8950,-0.2940841668,-0.007666344824,-0.7002536056,0.6504618496
4.9000,-0.2928207377,-0.009652984341,-0.7013628323,0.6498099821
4.9050,-0.2915498163,-0.01163749425,-0.7024716907,0.6491508277
4.9100,-0.2902737767,-0.01362081631,-0.7035796786,0.6484838038
4.9150,-0.2889934144,-0.01560819821,-0.7046861558,0.6478090864
4.9200,-0.2877130837,-0.01760156566,-0.7057873844,0.6471286846
4.9250,-0.2864378518,-0.01960416021,-0.7068822858,0.6464413878
4.9300,-0.2851691319,-0.02161618376,-0.7079691451,0.6457484003
4.9350,-0.2839052879,-0.0236355344,-0.7090484204,0.6450499876
4.9400,-0.2826438039,-0.02566269011,-0.710122393,0.6443447008
4.9450,-0.2813843978,-0.02769730499,-0.7111918462,0.6436317565
4.9500,-0.2801257632,-0.02973739869,-0.7122581782,0.6429102048
4.9550,-0.2788672854,-0.03178299547,-0.7133192842,0.6421825886
4.9600,-0.2776069636,-0.0338328925,-0.7143785713,0.6414459962
4.9650,-0.2763426732,-0.03588556462,-0.7154358726,0.6407015416
4.9700,-0.2750767474,-0.03794228479,-0.7164910097,0.6399482784
4.9750,-0.273811277,-0.04000203637,-0.7175435484,0.6391857929
4.9800,-0.2725465964,-0.04206906782,-0.7185934814,0.6384136236
4.9850,-0.2712840236,-0.04414302706,-0.7196395272,0.6376325922
4.9900,-0.27002569,-0.04622606267,-0.7206806022,0.6368427965
4.9950,-0.2687711399,-0.04831794891,-0.7217176849,0.6360432638
5.0000,-0.267517819,-0.05041839504,-0.7227509657,0.635234794
5.0050,-0.2662646693,-0.05252633362,-0.7237809054,0.6344173004
5.0100,-0.2650084718,-0.05464202459,-0.7248089154,0.6335904002
5.0150,-0.2637471287,-0.05676571477,-0.7258342751,0.6327556486
5.0200,-0.2624787668,-0.05889583867,-0.7268580756,0.631912585
5.0250,-0.2611995914,-0.06103114916,-0.7278805603,0.6310624868
5.0300,-0.2599076163,-0.06317063032,-0.7289012981,0.6302066328
5.0350,-0.2586025279,-0.0653156457,-0.7299206031,0.6293445099
5.0400,-0.2572863553,-0.06746735784,-0.7309373155,0.6284763542
5.0450,-0.2559609367,-0.06962788834,-0.7319493887,0.6276034165
5.0500,-0.2546267246,-0.07179965188,-0.7329560918,0.6267259438
5.0550,-0.2532848866,-0.07398377685,-0.7339561812,0.6258446221
5.0600,-0.2519351751,-0.07618138011,-0.7349484053,0.6249607239
5.0650,-0.2505776595,-0.07839089311,-0.7359322129,0.6240749013
5.0700,-0.2492113485,-0.08061016607,-0.7369086911,0.6231863974
5.0750,-0.247833192,-0.08283880787,-0.7378777541,0.6222964413
5.0800,-0.2464415446,-0.08507692648,-0.7388407478,0.6214039194
5.0850,-0.2450378161,-0.08732518172,-0.7397966558,0.6205092179
5.0900,-0.2436222563,-0.08958312687,-0.7407469386,0.6196103877
5.0950,-0.2421959858,-0.09185023071,-0.7416907881,0.6187078587
5.1000,-0.240761807,-0.09412681474,-0.7426272762,0.6178014435
5.1050,-0.2393192123,-0.09641367699,-0.7435573566,0.6168899213
5.1100,-0.2378708013,-0.09870751806,-0.744480804,0.6159729216
5.1150,-0.2364148365,-0.1010098329,-0.7453976499,0.6150507151
5.1200,-0.2349540344,-0.1033191707,-0.7463071278,0.6141232952
5.1250,-0.2334868512,-0.1056350665,-0.7472083702,0.6131922819
5.1300,-0.2320156991,-0.107957878,-0.7481014972,0.6122564511
5.1350,-0.2305409093,-0.1102879979,-0.7489853944,0.6113168782
5.1400,-0.2290622395,-0.1126229603,-0.7498603215,0.6103737031
5.1450,-0.2275812747,-0.1149624886,-0.7507259632,0.6094267123
5.1500,-0.22609547,-0.1173080986,-0.7515823314,0.6084764971
5.1550,-0.2246079252,-0.1196605394,-0.7524296262,0.607521434
5.1600,-0.2231187764,-0.1220207571,-0.7532651356,0.6065645736
5.1650,-0.2216264391,-0.124386403,-0.7540898983,0.6056056221
5.1700,-0.2201313196,-0.1267558805,-0.7549034,0.6046453552
5.1750,-0.2186315868,-0.1291278568,-0.755706472,0.6036836539
5.1800,-0.2171252955,-0.1315002534,-0.7564989115,0.602721898
5.1850,-0.2156143082,-0.1338759001,-0.7572805873,0.6017589431
5.1900,-0.2140977762,-0.1362547683,-0.7580522797,0.6007940758
5.1950,-0.2125766438,-0.1386354999,-0.7588123792,0.5998292606
5.2000,-0.2110535925,-0.1410207723,-0.7595610544,0.598862695
5.2050,-0.2095318784,-0.1434112705,-0.7602964249,0.5978954304
5.2100,-0.2080125852,-0.1458072592,-0.7610188128,0.596926607
5.2150,-0.206494651,-0.148207169,-0.7617298048,0.5959549468
5.2200,-0.2049783286,-0.1506109404,-0.762430467,0.5949790017
5.2250,-0.2034594228,-0.1530158864,-0.7631219773,0.5939993683
5.2300,-0.2019348421,-0.1554229421,-0.7638064579,0.5930141005
5.2350,-0.200404014,-0.1578300286,-0.7644847636,0.5920227694
5.2400,-0.1988663005,-0.1602356184,-0.7651570496,0.5910257445
5.2450,-0.1973233132,-0.162638001,-0.7658239949,0.590022033
5.2500,-0.1957747159,-0.1650385462,-0.7664846741,0.5890125494
5.2550,-0.1942228681,-0.1674355894,-0.767140453,0.5879951754
5.2600,-0.1926698222,-0.1698331541,-0.767790084,0.586969698
5.2650,-0.1911202453,-0.1722317805,-0.7684322069,0.5859361817
5.2700,-0.1895742414,-0.1746316416,-0.7690660584,0.5848955415
5.2750,-0.1880312299,-0.1770306166,-0.7696929101,0.5838469333
5.2800,-0.1864901376,-0.1794282465,-0.7703128025,0.5827908022
5.2850,-0.1849509918,-0.1818237358,-0.7709259219,0.5817271549
5.2900,-0.183414201,-0.1842161244,-0.7715331387,0.5806550321
5.2950,-0.1818779583,-0.1866043194,-0.7721347399,0.5795749992
5.3000,-0.1803434787,-0.1889888194,-0.7727306259,0.5784866772
5.3050,-0.1788102552,-0.1913696125,-0.7733218432,0.5773888559
5.3100,-0.1772792791,-0.193746713,-0.7739063834,0.5762839388
5.3150,-0.1757488763,-0.1961189645,-0.7744858293,0.5751707438
5.3200,-0.174220508,-0.198488439,-0.7750588922,0.5740498827
5.3250,-0.172695412,-0.2008551914,-0.7756262545,0.5729200643
5.3300,-0.1711747858,-0.2032177348,-0.7761884456,0.5717807639
5.3350,-0.1696589367,-0.2055772906,-0.7767444966,0.5706328152
5.3400,-0.1681469074,-0.2079309476,-0.7772943515,0.5694776815
5.3450,-0.1666352006,-0.2102782083,-0.7778395782,0.5683145042
5.3500,-0.1651231155,-0.2126194767,-0.7783803951,0.5671430819
5.3550,-0.1636088235,-0.2149539979,-0.7789172904,0.565963591
5.3600,-0.1620936352,-0.2172834273,-0.779450698,0.5647744461
5.3650,-0.1605767108,-0.2196103718,-0.7799807936,0.5635746323
5.3700,-0.1590594992,-0.2219357818,-0.7805067485,0.5623644726
5.3750,-0.1575405988,-0.2242598797,-0.7810293015,0.5611432048
5.3800,-0.1560218042,-0.2265835098,-0.7815471403,0.5599117583
5.3850,-0.1545022711,-0.2289071914,-0.7820606919,0.5586695089
5.3900,-0.1529798708,-0.2312310935,-0.7825698447,0.5574170599
5.3950,-0.1514534646,-0.2335515173,-0.783075166,0.556155393
5.4000,-0.149919401,-0.2358701902,-0.7835765574,0.5548848577
5.4050,-0.148378918,-0.2381850915,-0.7840733682,0.553606821
5.4100,-0.1468313538,-0.2404974621,-0.7845651848,0.5523214598
5.4150,-0.1452777605,-0.2428070447,-0.7850514715,0.5510293081
5.4200,-0.1437165511,-0.2451146041,-0.7855326283,0.5497298187
5.4250,-0.1421502661,-0.2474213435,-0.7860076498,0.5484231533
5.4300,-0.1405792756,-0.2497263822,-0.7864767447,0.5471092499
5.4350,-0.1390034904,-0.2520303993,-0.7869401678,0.5457873944
5.4400,-0.1374220572,-0.2543326976,-0.7873980739,0.5444578316
5.4450,-0.1358319418,-0.2566328207,-0.7878503267,0.5431216637
5.4500,-0.1342350551,-0.2589278905,-0.7882971599,0.5417793695
5.4550,-0.1326310236,-0.2612192793,-0.7887371443,0.5404324351
5.4600,-0.1310184556,-0.2635053502,-0.7891711201,0.5390807341
5.4650,-0.1293996109,-0.2657881176,-0.7895970305,0.5377257169
5.4700,-0.1277748157,-0.2680687284,-0.7900146478,0.5363670474
5.4750,-0.1261461921,-0.2703455823,-0.7904239933,0.5350049675
5.4800,-0.1245163201,-0.2726209383,-0.7908246136,0.5336383987
5.4850,-0.1228852048,-0.2748948354,-0.791215594,0.5322686725
5.4900,-0.1212544972,-0.2771667124,-0.7915965751,0.5308962448
5.4950,-0.1196234011,-0.2794363847,-0.7919674038,0.5295216522
5.5000,-0.1179890819,-0.281702729,-0.7923276951,0.528146734
5.5050,-0.1163516555,-0.2839664355,-0.7926783069,0.5267698336
5.5100,-0.1147108673,-0.2862255233,-0.7930199328,0.5253910475
5.5150,-0.1130676342,-0.2884807995,-0.7933509487,0.5240122237
5.5200,-0.1114191717,-0.2907321435,-0.7936716562,0.5226336107
5.5250,-0.1097679629,-0.2929809864,-0.7939821216,0.5212538024
5.5300,-0.1081165942,-0.2952269598,-0.7942810712,0.5198744311
5.5350,-0.1064661898,-0.2974714191,-0.7945684829,0.5184945816
5.5400,-0.1048193328,-0.2997138767,-0.7948443292,0.5171140995
5.5450,-0.1031737832,-0.301953508,-0.7951073761,0.5157358916
5.5500,-0.1015317698,-0.304189051,-0.7953587168,0.5143586615
5.5550,-0.09989042477,-0.3064206076,-0.7955983114,0.5129830808
5.5600,-0.09825102831,-0.3086451701,-0.7958267749,0.5116098501
5.5650,-0.09661263014,-0.3108630016,-0.7960448215,0.510238019
5.5700,-0.09497494737,-0.3130735054,-0.7962531634,0.5088670154
5.5750,-0.09334084679,-0.3152799575,-0.7964504138,0.5074965745
5.5800,-0.09171233405,-0.3174805265,-0.7966367812,0.5061272586
5.5850,-0.09008921135,-0.3196778606,-0.7968118125,0.5047582936
5.5900,-0.0884688942,-0.321872249,-0.7969745264,0.5033916113
5.5950,-0.08685244881,-0.3240625577,-0.7971252815,0.5020272866
5.6000,-0.08523881346,-0.3262494353,-0.7972632744,0.5006664778
5.6050,-0.08362651494,-0.3284327945,-0.7973880182,0.4993103784
5.6100,-0.08201462404,-0.3306119124,-0.797501158,0.4979570944
5.6150,-0.08040574196,-0.3327880934,-0.7976008071,0.4966084514
5.6200,-0.0787991914,-0.3349589652,-0.7976876266,0.4952652113
5.6250,-0.07719497957,-0.3371249273,-0.7977620543,0.4939265362
5.6300,-0.07559207573,-0.3392874965,-0.7978238019,0.4925921375
5.6350,-0.07398844899,-0.3414433742,-0.7978748039,0.4912615687
5.6400,-0.07238353773,-0.343594487,-0.7979161284,0.4899319381
5.6450,-0.0707782392,-0.3457409117,-0.797947965,0.4886028121
5.6500,-0.0691733514,-0.3478809594,-0.7979721601,0.4872723235
5.6550,-0.06757141788,-0.3500146102,-0.7979890658,0.4859396331
5.6600,-0.06596976357,-0.3521399075,-0.7980001449,0.4846042144
5.6650,-0.06437021632,-0.3542567056,-0.7980064032,0.4832643607
5.6700,-0.06277359175,-0.356364754,-0.7980086919,0.4819188375
5.6750,-0.06118065704,-0.3584630398,-0.7980071673,0.48056814
5.6800,-0.05959114153,-0.3605506421,-0.7980035605,0.4792102334
5.6850,-0.0580056981,-0.3626256527,-0.7979988444,0.4778449741
5.6900,-0.05642616124,-0.364688952,-0.7979931252,0.4764714353
5.6950,-0.05485699935,-0.366743595,-0.7979866596,0.4750864515
5.7000,-0.05329887887,-0.368788975,-0.7979791784,0.4736909882
5.7050,-0.05175180649,-0.370825471,-0.7979711461,0.4722840993
5.7100,-0.05021538316,-0.372854231,-0.7979609526,0.470867769
5.7150,-0.04869112386,-0.3748750043,-0.7979491725,0.4694411824
5.7200,-0.0471785616,-0.3768875123,-0.7979352655,0.4680056607
5.7250,-0.04567698083,-0.3788914069,-0.7979185888,0.4665627942
5.7300,-0.04418288431,-0.3808854816,-0.7978988001,0.4651146391
5.7350,-0.04269452776,-0.3828687305,-0.7978754318,0.4636631405
5.7400,-0.04121184748,-0.3848413828,-0.7978470574,0.4622107384
5.7450,-0.03973393637,-0.3868039462,-0.7978132934,0.4607579303
5.7500,-0.03826034767,-0.388754945,-0.7977739925,0.4593064288
5.7550,-0.03679009289,-0.3906917072,-0.797729054,0.4578589689
5.7600,-0.03532500827,-0.3926162208,-0.7976769323,0.4564166503
5.7650,-0.03386489637,-0.3945261282,-0.7976191599,0.454979097
5.7700,-0.03240941036,-0.3964209872,-0.7975553699,0.4535476413
5.7750,-0.03095820781,-0.3983016772,-0.797484943,0.4521229136
5.7800,-0.02950848649,-0.4001666662,-0.7974086835,0.4507053138
5.7850,-0.02806171897,-0.4020145849,-0.7973275335,0.449294578
5.7900,-0.02661635775,-0.403846836,-0.7972413515,0.4478900869
5.7950,-0.02517496819,-0.4056649387,-0.7971505016,0.4464899285
5.8000,-0.02374034008,-0.4074694735,-0.7970555941,0.4450925795
5.8050,-0.02231015756,-0.4092603068,-0.7969566083,0.4436985718
5.8100,-0.02088528943,-0.4110364715,-0.7968539669,0.4423082402
5.8150,-0.01946592116,-0.4127982736,-0.7967480139,0.4409209289
5.8200,-0.01805451215,-0.4145450285,-0.7966392673,0.4395364965
5.8250,-0.01665108883,-0.4162769968,-0.7965281021,0.4381542944
5.8300,-0.01525504652,-0.4179930981,-0.796414863,0.4367750215
5.8350,-0.01386656022,-0.4196932212,-0.7962995399,0.4353990828
5.8400,-0.01248457256,-0.4213779289,-0.7961824909,0.4340255956
5.8450,-0.01110954095,-0.4230488148,-0.796064364,0.432652062
5.8500,-0.009741168509,-0.4247058574,-0.7959445534,0.4312798538
5.8550,-0.008379513137,-0.4263492251,-0.7958232237,0.429908733
5.8600,-0.007024348697,-0.4279795488,-0.7956999674,0.4285390603
5.8650,-0.005675094838,-0.4295967283,-0.7955750837,0.4271706106
5.8700,-0.004331388038,-0.4312009551,-0.7954481732,0.425804156
5.8750,-0.002992829861,-0.4327915816,-0.7953191644,0.4244407103
5.8800,-0.001657468224,-0.4343693889,-0.7951874903,0.4230807749
5.8850,-0.0003255741656,-0.4359321317,-0.7950535145,0.4217261903
5.8900,0.001001264927,-0.4374795959,-0.7949182721,0.4203754766
5.8950,0.002323659096,-0.4390130176,-0.7947801266,0.4190306926
5.9000,0.003641263441,-0.4405318764,-0.7946399073,0.4176910638
5.9050,0.004952693391,-0.442035927,-0.79449721,0.416357891
5.9100,0.006258253858,-0.4435253113,-0.7943524653,0.4150304728
5.9150,0.007559359184,-0.4449993037,-0.7942062067,0.413708807
5.9200,0.00885653796,-0.446459866,-0.7940582027,0.4123914652
5.9250,0.01014947815,-0.4479076034,-0.7939086752,0.4110775867
5.9300,0.01143684486,-0.4493430397,-0.7937575435,0.4097669989
5.9350,0.01271671241,-0.4507687599,-0.7936041042,0.4084584875
5.9400,0.01398911496,-0.4521853536,-0.7934490345,0.4071502674
5.9450,0.01525421324,-0.4535924575,-0.7932928045,0.4058419862
5.9500,0.01651142405,-0.4549922732,-0.7931337209,0.4045346771
5.9550,0.01776206812,-0.4563851515,-0.7929725748,0.4032264847
5.9600,0.01900385559,-0.4577723703,-0.7928092977,0.4019163195
5.9650,0.02023711935,-0.459153896,-0.7926441161,0.4006038742
5.9700,0.02146165235,-0.4605293801,-0.7924765628,0.399290602
5.9750,0.0226757778,-0.4618986474,-0.7923077411,0.3979747378
5.9800,0.02388106514,-0.4632625032,-0.7921364267,0.3966578241
5.9850,0.02507766338,-0.4646219514,-0.791962921,0.3953381904
5.9900,0.02626475904,-0.465975039,-0.7917875824,0.3940175755
5.9950,0.02744559549,-0.4673215485,-0.7916099387,0.3926971027
6.0000,0.02861986678,-0.4686610348,-0.7914299481,0.391377535
6.0050,0.0297876029,-0.4699937564,-0.7912474731,0.3900589751
6.0100,0.03094722014,-0.4713184414,-0.7910635147,0.388741189
6.0150,0.03210025732,-0.472635496,-0.7908767903,0.3874263335
6.0200,0.03324714325,-0.4739441478,-0.7906872294,0.3861156271
6.0250,0.03438812032,-0.4752441674,-0.7904945966,0.3848099936
6.0300,0.03552277942,-0.4765359796,-0.7902975528,0.3835118907
6.0350,0.03665026955,-0.4778176921,-0.7900968921,0.3822223332
6.0400,0.03777241662,-0.4790903765,-0.7898918216,0.3809416831
6.0450,0.03888755588,-0.4803513818,-0.7896825439,0.3796732646
6.0500,0.03999946439,-0.4816011184,-0.7894684554,0.3784177103
6.0550,0.04110741434,-0.482839319,-0.7892501354,0.3771744904
6.0600,0.04221028105,-0.4840651065,-0.7890282375,0.3759437527
6.0650,0.04330662811,-0.4852803032,-0.78880105,0.3747271899
6.0700,0.04439657502,-0.486482862,-0.7885698407,0.3735250666
6.0750,0.04547788414,-0.4876742134,-0.788333951,0.3723374886
6.0800,0.04654891588,-0.4888543858,-0.7880936478,0.3711643709
6.0850,0.04760970169,-0.4900239597,-0.7878484381,0.3700063158
6.0900,0.04865928496,-0.4911809842,-0.7875995602,0.3688637248
6.0950,0.04969782991,-0.4923260332,-0.7873465248,0.367737206
6.1000,0.05072364968,-0.4934593528,-0.7870886658,0.3666284367
6.1050,0.05173649814,-0.4945807496,-0.7868268046,0.3655363136
6.1100,0.05273607422,-0.4956912314,-0.7865598864,0.3644621444
6.1150,0.05372247353,-0.4967916509,-0.7862880323,0.3634048454
6.1200,0.0546974829,-0.4978817638,-0.7860111366,0.3623650477
6.1250,0.0556609999,-0.4989613959,-0.7857299608,0.3613416765
6.1300,0.05661245975,-0.5000308798,-0.7854448108,0.3603340087
6.1350,0.05755191547,-0.5010912344,-0.7851553251,0.3593417137
6.1400,0.05847806896,-0.5021432924,-0.7848610437,0.358365137
6.1450,0.05939136183,-0.5031857315,-0.7845635272,0.3574029345
6.1500,0.06029305264,-0.5042186357,-0.7842631858,0.3564541634
6.1550,0.06118061299,-0.5052432366,-0.7839589004,0.3555202483
6.1600,0.06205580228,-0.5062575247,-0.7836525077,0.3545999765
6.1650,0.06291795836,-0.5072623925,-0.7833435322,0.3536935202
6.1700,0.06376581794,-0.5082590116,-0.7830313102,0.352801169
6.1750,0.06460187118,-0.5092470698,-0.7827164762,0.3519217782
6.1800,0.06542240684,-0.510226906,-0.7823994458,0.351054868
6.1850,0.06622973471,-0.5111986711,-0.7820813072,0.3501976155
6.1900,0.06702282709,-0.512163522,-0.78176069,0.3493518155
6.1950,0.06780087233,-0.5131202742,-0.7814401981,0.3485137625
6.2000,0.06856344778,-0.5140679991,-0.7811200642,0.3476846145
6.2050,0.06931002996,-0.5150084877,-0.7808008458,0.3468608027
6.2100,0.07003714583,-0.5159436524,-0.7804812667,0.3460432605
6.2150,0.07074348477,-0.5168732115,-0.7801625491,0.3452301255
6.2200,0.07142868078,-0.5177974327,-0.7798457366,0.3444189154
6.2250,0.07209288993,-0.5187158479,-0.7795301978,0.343611925
6.2300,0.07273752058,-0.5196282731,-0.7792168369,0.3428072812
6.2350,0.07336342378,-0.5205350406,-0.7789057056,0.3420043586
6.2400,0.0739692356,-0.5214356857,-0.7785972874,0.3412032268
6.2450,0.07455327502,-0.5223318338,-0.7782915312,0.3404020522
6.2500,0.07511779963,-0.5232219639,-0.7779898182,0.3395996694
6.2550,0.0756621195,-0.5241086088,-0.7776904472,0.3387963667
6.2600,0.07618748185,-0.5249901752,-0.7773952896,0.3379901585
6.2650,0.07669564747,-0.525867508,-0.7771033616,0.3371817123
6.2700,0.07718843739,-0.5267416484,-0.776815166,0.336367922
6.2750,0.07766646072,-0.5276139067,-0.7765299642,0.3355483589
6.2800,0.07812979253,-0.5284833607,-0.7762486075,0.3347225304
6.2850,0.07857962691,-0.5293500966,-0.7759702481,0.3338920357
6.2900,0.07901777115,-0.5302140195,-0.7756948347,0.333056765
6.2950,0.07944522794,-0.5310763534,-0.7754207797,0.3322182672
6.3000,0.07986311158,-0.531935975,-0.7751491467,0.3313756211
6.3050,0.08027220817,-0.5327920271,-0.7748792903,0.3305315626
6.3100,0.08067547273,-0.5336461923,-0.774609553,0.3296865936
6.3150,0.08107380433,-0.5344961448,-0.7743410703,0.3288416281
6.3200,0.0814681683,-0.5353443106,-0.7740720398,0.3279967741
6.3250,0.08186028802,-0.5361887305,-0.7738031615,0.3271531839
6.3300,0.08225261759,-0.5370293271,-0.7735343066,0.3263107189
6.3350,0.08264578815,-0.5378667205,-0.7732643362,0.3254709373
6.3400,0.08304220675,-0.5386985843,-0.7729942786,0.3246346752
6.3450,0.0834444132,-0.5395249524,-0.7727244306,0.3238005712
6.3500,0.08385270453,-0.5403480149,-0.7724532185,0.3229686856
6.3550,0.08426845167,-0.5411670123,-0.7721803231,0.322140717
6.3600,0.08469400335,-0.5419819498,-0.7719050186,0.3213178085
6.3650,0.0851337783,-0.5427925381,-0.7716274588,0.3204989317
6.3700,0.08558610016,-0.5435995465,-0.7713471879,0.3196843259
6.3750,0.08605329192,-0.5444017527,-0.7710648287,0.3188739446
6.3800,0.08653787357,-0.545199254,-0.7707795698,0.3180688992
6.3850,0.08704112813,-0.5459918059,-0.7704920196,0.3172677697
6.3900,0.08756319908,-0.5467812214,-0.7702008931,0.3164704826
6.3950,0.08810479076,-0.547566381,-0.7699069244,0.3156769426
6.4000,0.0886656676,-0.5483462816,-0.7696112824,0.3148860569
6.4050,0.0892445722,-0.5491219526,-0.7693134206,0.3140976733
6.4100,0.0898402853,-0.549895038,-0.7690131995,0.3133095423
6.4150,0.09045275776,-0.5506644177,-0.7687112358,0.3125220531
6.4200,0.09108048038,-0.5514302498,-0.7684080331,0.3117340539
6.4250,0.09172333129,-0.5521924991,-0.768103235,0.31094645
6.4300,0.09238197804,-0.5529508116,-0.7677970068,0.3101591953
6.4350,0.09305403491,-0.5537052965,-0.7674893325,0.3093727778
6.4400,0.09374079847,-0.5544538771,-0.7671813443,0.308587663
6.4450,0.09444151642,-0.5551987891,-0.766871316,0.3078043037
6.4500,0.09515460124,-0.5559385183,-0.7665601262,0.3070236777
6.4550,0.0958806719,-0.5566733105,-0.7662483196,0.3062437507
6.4600,0.09661741075,-0.5574036371,-0.7659349651,0.3054666767
6.4650,0.0973632763,-0.5581290742,-0.7656206984,0.3046920989
6.4700,0.0981191258,-0.5588481584,-0.7653068072,0.3039191733
6.4750,0.098881569,-0.5595614184,-0.7649930685,0.3031485767
6.4800,0.09965289822,-0.5602688629,-0.7646794021,0.3023797499
6.4850,0.1004300012,-0.5609701683,-0.7643659505,0.3016139568
6.4900,0.101213681,-0.5616648384,-0.7640530105,0.3008511212
6.4950,0.1020032575,-0.562354133,-0.7637388106,0.3000936416
6.5000,0.1027991902,-0.5630384596,-0.7634237337,0.2993396439
6.5050,0.1035998135,-0.5637165593,-0.7631079537,0.2985916448
6.5100,0.1044048309,-0.5643884469,-0.7627916415,0.2978493311
6.5150,0.1052142509,-0.5650543543,-0.7624746669,0.2971126394
6.5200,0.1060261693,-0.5657145419,-0.7621559058,0.2963846887
6.5250,0.106840137,-0.5663678791,-0.7618368099,0.2956641436
6.5300,0.1076566671,-0.5670143714,-0.7615168065,0.2949523659
6.5350,0.1084744987,-0.5676534421,-0.7611964569,0.2942495655
6.5400,0.1092931541,-0.5682846079,-0.7608751839,0.2935584532
6.5450,0.1101142657,-0.5689069628,-0.7605529032,0.2928805177
6.5500,0.1109340885,-0.5695213167,-0.7602296245,0.2922157011
6.5550,0.1117535554,-0.5701252009,-0.7599068389,0.2915647344
6.5600,0.1125707589,-0.5707200648,-0.7595831616,0.2909292913
6.5650,0.1133836669,-0.5713044698,-0.7592602584,0.290308813
6.5700,0.11419101,-0.5718793607,-0.7589375731,0.2897035901
6.5750,0.1149911621,-0.5724433454,-0.7586159336,0.2891150536
6.5800,0.1157812177,-0.5729972292,-0.7582956048,0.2885423029
6.5850,0.1165608096,-0.57354138,-0.7579767657,0.2879845234
6.5900,0.1173283399,-0.5740763941,-0.7576596205,0.2874408703
6.5950,0.1180841292,-0.5746002375,-0.7573462626,0.2869099929
6.6000,0.1188268324,-0.5751155981,-0.7570357624,0.2863897468
6.6050,0.1195560603,-0.5756220856,-0.7567289986,0.2858789705
6.6100,0.1202704846,-0.576120504,-0.7564259829,0.2853767822
6.6150,0.1209705064,-0.5766123123,-0.7561255944,0.2848832453
6.6200,0.1216531085,-0.5770964386,-0.7558299165,0.2843964822
6.6250,0.1223192929,-0.5775738242,-0.7555387801,0.2839148111
6.6300,0.1229664226,-0.5780457323,-0.7552517505,0.2834381478
6.6350,0.1235956111,-0.5785132998,-0.7549684941,0.2829647677
6.6400,0.1242047533,-0.5789771609,-0.7546895738,0.2824929621
6.6450,0.1247923508,-0.5794391692,-0.7544146436,0.2820206798
6.6500,0.1253555468,-0.579898217,-0.754145074,0.2815479573
6.6550,0.1258926201,-0.5803552567,-0.7538813083,0.2810725834
6.6600,0.1264016972,-0.5808117628,-0.7536238699,0.2805911079
6.6650,0.1268794031,-0.5812678494,-0.7533735861,0.2801027384
6.6700,0.1273254225,-0.5817243082,-0.7531298284,0.2796078104
6.6750,0.1277388569,-0.5821803691,-0.752894117,0.2791043728
6.6800,0.1281169196,-0.5826381699,-0.7526658147,0.278591079
6.6850,0.1284567067,-0.5830968051,-0.7524459764,0.2780684143
6.6900,0.1287578829,-0.5835556603,-0.7522361043,0.2775338579
6.6950,0.1290186726,-0.584016759,-0.752034961,0.2769874091
6.7000,0.1292389662,-0.5844802786,-0.7518429901,0.2764275888
6.7050,0.1294184279,-0.5849459836,-0.7516610746,0.2758526703
6.7100,0.1295584833,-0.5854133773,-0.7514888942,0.2752639078
6.7150,0.1296585467,-0.585882965,-0.7513268952,0.27465926
6.7200,0.1297194891,-0.5863555264,-0.7511739224,0.2740397583
6.7250,0.129743124,-0.5868302506,-0.7510303952,0.2734050552
6.7300,0.1297293911,-0.5873091148,-0.7508958697,0.2727520515
6.7350,0.1296816154,-0.5877916415,-0.750770431,0.2720798132
6.7400,0.129601826,-0.5882786616,-0.7506534211,0.2713872223
6.7450,0.1294912029,-0.5887697938,-0.7505446117,0.2706749789
6.7500,0.1293532674,-0.5892672065,-0.7504424015,0.2699409078
6.7550,0.1291910082,-0.5897691645,-0.7503471395,0.2691861555
6.7600,0.1290092653,-0.5902769932,-0.7502574662,0.2684090444
6.7650,0.1288138984,-0.5907914181,-0.7501714903,0.2676101922
6.7700,0.1286060351,-0.5913136849,-0.7500881499,0.26678902
6.7750,0.1283909637,-0.5918431753,-0.750006576,0.2659465214
6.7800,0.1281723254,-0.592379483,-0.7499264294,0.2650825413
6.7850,0.1279533822,-0.5929243433,-0.7498456684,0.26419714
6.7900,0.1277363699,-0.59347709,-0.7497642693,0.2632905315
6.7950,0.1275255723,-0.5940377694,-0.7496808754,0.2623641401
6.8000,0.127321729,-0.5946065788,-0.7495944771,0.2614198034
6.8050,0.1271277427,-0.5951839575,-0.7495039704,0.2604580429
6.8100,0.1269474382,-0.595767326,-0.749409981,0.2594808695
6.8150,0.1267831088,-0.5963573134,-0.7493106489,0.2584909079
6.8200,0.1266374189,-0.5969522097,-0.7492064555,0.2574892436
6.8250,0.1265124663,-0.5975529688,-0.7490952304,0.2564788124
6.8300,0.1264086983,-0.5981587713,-0.7489767015,0.2554619853
6.8350,0.1263272041,-0.5987683733,-0.7488514535,0.2544393312
6.8400,0.1262691635,-0.5993811618,-0.7487189631,0.2534131716
6.8450,0.126233546,-0.5999970153,-0.7485786512,0.2523859672
6.8500,0.126221661,-0.6006141022,-0.7484314447,0.2513586384
6.8550,0.126231426,-0.6012333669,-0.7482767869,0.2503316116
6.8600,0.1262618168,-0.6018523418,-0.7481159329,0.2493075675
6.8650,0.1263132688,-0.6024717765,-0.7479479959,0.2482871565
6.8700,0.1263831093,-0.6030888262,-0.7477744842,0.2472741355
6.8750,0.126472139,-0.6037039019,-0.7475951944,0.2462677855
6.8800,0.1265793904,-0.6043153093,-0.7474112326,0.2452694729
6.8850,0.1267031765,-0.6049211318,-0.7472238728,0.2442810131
6.8900,0.1268407994,-0.6055216839,-0.7470335602,0.2433017917
6.8950,0.1269881318,-0.6061162918,-0.7468409613,0.2423337239
6.9000,0.127142981,-0.606704481,-0.7466468186,0.2413770152
6.9050,0.1273021519,-0.6072862241,-0.7464514552,0.2404325877
6.9100,0.1274627602,-0.6078604246,-0.7462569172,0.2394985648
6.9150,0.1276215681,-0.6084255897,-0.7460647362,0.2385758719
6.9200,0.1277765386,-0.6089807725,-0.7458760068,0.2376648002
6.9250,0.1279236015,-0.6095267627,-0.7456910385,0.2367647628
6.9300,0.1280609401,-0.6100624474,-0.7455112854,0.2358752408
6.9350,0.1281869908,-0.6105867348,-0.7453381409,0.2349957241
6.9400,0.1282972705,-0.6110996989,-0.7451723682,0.2341262695
6.9450,0.1283915116,-0.6115995935,-0.7450147374,0.233269368
6.9500,0.1284686765,-0.6120865064,-0.7448658677,0.2324236366
6.9550,0.1285287873,-0.6125611568,-0.7447253184,0.2315888169
6.9600,0.1285692612,-0.6130211218,-0.7445950709,0.2307666129
6.9650,0.1285896647,-0.6134660365,-0.7444752367,0.2299581312
6.9700,0.1285897729,-0.613895119,-0.7443667326,0.2291628692
6.9750,0.1285670851,-0.6143095586,-0.7442686986,0.2283820814
6.9800,0.1285211335,-0.6147068089,-0.7441831976,0.2276164003
6.9850,0.1284538876,-0.6150874268,-0.7441091154,0.2268670989
6.9900,0.1283655377,-0.6154510425,-0.7440459957,0.2261368155
6.9950,0.1282578444,-0.6157953202,-0.7439952013,0.2254266829
7.0000,0.1281315334,-0.6161210752,-0.743955666,0.2247378424
7.0050,0.1279875569,-0.6164269454,-0.7439276309,0.2240729487
7.0100,0.1278276062,-0.616712874,-0.7439111036,0.2234314304
7.0150,0.1276501056,-0.6169786402,-0.7439058542,0.2228158166
7.0200,0.1274558874,-0.6172244016,-0.7439127304,0.2222226009
7.0250,0.1272456815,-0.6174503853,-0.7439309097,0.2216536935
7.0300,0.1270213106,-0.6176559775,-0.7439599754,0.2211113636
7.0350,0.1267848672,-0.6178416569,-0.7439996305,0.2205942755
7.0400,0.126538132,-0.6180083292,-0.7440483231,0.2201042914
7.0450,0.1262835328,-0.6181553356,-0.7441063874,0.219640922
7.0500,0.126022504,-0.6182825285,-0.7441734114,0.2192053309
7.0550,0.1257563534,-0.6183924296,-0.7442474327,0.2187964842
7.0600,0.1254868816,-0.6184844871,-0.7443282253,0.2184158299
7.0650,0.1252162945,-0.618558645,-0.7444159892,0.2180617282
7.0700,0.1249462363,-0.6186153355,-0.744509442,0.2177365275
7.0750,0.1246796038,-0.6186555061,-0.7446073289,0.2174403066
7.0800,0.1244179089,-0.618679315,-0.744708939,0.21717432
7.0850,0.1241654035,-0.6186873838,-0.7448126998,0.2169398902
7.0900,0.1239249447,-0.6186797964,-0.7449182471,0.2167365285
7.0950,0.1236996303,-0.6186569625,-0.7450248877,0.2165638034
7.1000,0.1234929862,-0.6186199871,-0.7451307709,0.2164230307
7.1050,0.1233073612,-0.6185682447,-0.745236115,0.2163140176
7.1100,0.1231433724,-0.6185041832,-0.7453387629,0.2162369391
7.1150,0.1230026652,-0.6184272331,-0.7454388308,0.2161921628
7.1200,0.1228871016,-0.6183380408,-0.7455352855,0.2161804006
7.1250,0.1227962762,-0.6182371457,-0.7456282842,0.2161998337
7.1300,0.1227287516,-0.6181252719,-0.7457173439,0.2162508837
7.1350,0.122682956,-0.6180025033,-0.7458026547,0.2163335352
7.1400,0.1226588496,-0.6178697411,-0.7458843172,0.2164448543
7.1450,0.1226560303,-0.6177275261,-0.7459621699,0.2165840316
7.1500,0.1226722022,-0.6175755074,-0.7460369569,0.2167507382
7.1550,0.1227058254,-0.617414707,-0.7461081755,0.2169445792
7.1600,0.1227555407,-0.6172453787,-0.7461759418,0.2171651064
7.1650,0.1228180195,-0.6170679427,-0.7462406474,0.2174115551
7.1700,0.1228926722,-0.616882966,-0.7463028832,0.2176805087
7.1750,0.1229748384,-0.6166898655,-0.7463634927,0.2179732452
7.1800,0.123063306,-0.6164886418,-0.7464229818,0.2182885923
7.1850,0.1231535945,-0.6162800918,-0.7464817294,0.2186254065
7.1900,0.123244708,-0.6160630093,-0.7465401807,0.2189860023
7.1950,0.1233340267,-0.615838121,-0.7465982498,0.2193699614
7.2000,0.1234193515,-0.6156026808,-0.7466580638,0.2197788407
7.2050,0.123498943,-0.6153561342,-0.7467202044,0.220213023
7.2100,0.1235686154,-0.6150974537,-0.7467853533,0.2206752269
7.2150,0.1236258103,-0.6148265222,-0.7468542053,0.2211646506
7.2200,0.1236678909,-0.6145431929,-0.7469263494,0.2216843373
7.2250,0.1236942983,-0.6142443168,-0.7470038842,0.2222359935
7.2300,0.1237050714,-0.6139289743,-0.7470867443,0.2228220509
7.2350,0.1236975578,-0.6135965927,-0.7471754826,0.2234433573
7.2400,0.1236727873,-0.6132462781,-0.7472697319,0.2241026369
7.2450,0.1236285216,-0.6128768544,-0.747370939,0.2247990869
7.2500,0.1235643229,-0.6124864461,-0.7474800658,0.2255343937
7.2550,0.1234783378,-0.6120754442,-0.7475967259,0.226309271
7.2600,0.1233713353,-0.6116435564,-0.7477208672,0.227123707
7.2650,0.1232410076,-0.6111893253,-0.747853881,0.2279777078
7.2700,0.1230851908,-0.6107141956,-0.7479956998,0.2288681719
7.2750,0.1229023039,-0.6102174959,-0.7481468255,0.2297954719
7.2800,0.1226922451,-0.6096998777,-0.7483073165,0.2307570848
7.2850,0.1224521808,-0.6091617038,-0.7484782775,0.2317493262
7.2900,0.1221801233,-0.6086040339,-0.7486598281,0.2327694335
7.2950,0.1218742726,-0.6080267323,-0.7488527752,0.2338154734
7.3000,0.1215340358,-0.6074304059,-0.7490572948,0.2348849702
7.3050,0.1211588077,-0.6068164735,-0.7492728279,0.2359757196
7.3100,0.1207462362,-0.6061852043,-0.7494999266,0.237085859
7.3150,0.1203004332,-0.6055364261,-0.7497382467,0.2382141973
7.3200,0.1198208054,-0.6048704395,-0.7499869178,0.2393623804
7.3250,0.1193083518,-0.6041875891,-0.7502462248,0.2405274966
7.3300,0.1187636185,-0.6034874632,-0.7505163609,0.2417090744
7.3350,0.1181850807,-0.6027700055,-0.7507969099,0.2429086397
7.3400,0.1175731327,-0.6020349313,-0.7510882941,0.2441247106
7.3450,0.1169298376,-0.6012824911,-0.7513895359,0.245357992
7.3500,0.1162548515,-0.6005126282,-0.7517005093,0.2466084692
7.3550,0.1155486494,-0.5997248913,-0.7520212336,0.2478762363
7.3600,0.1148113157,-0.5989191068,-0.7523517446,0.2491608268
7.3650,0.1140423484,-0.5980956704,-0.7526912757,0.2504630818
7.3700,0.113244043,-0.5972544325,-0.7530391099,0.2517836939
7.3750,0.1124192248,-0.5963953139,-0.7533947501,0.2531222984
7.3800,0.1115684144,-0.5955195073,-0.7537569828,0.2544787146
7.3850,0.1106913573,-0.5946253229,-0.754126737,0.2558534999
7.3900,0.1097884372,-0.5937144289,-0.7545019423,0.2572479252
7.3950,0.1088592414,-0.5927874425,-0.7548827009,0.2586596634
7.4000,0.1079028606,-0.5918435996,-0.7552694637,0.2600887609
7.4050,0.1069199493,-0.5908834445,-0.7556614829,0.261535089
7.4100,0.1059121678,-0.5899064472,-0.7560589352,0.262997876
7.4150,0.1048782786,-0.5889142551,-0.7564606564,0.2644765059
7.4200,0.1038167009,-0.5879075376,-0.7568664007,0.2659700572
7.4250,0.1027280562,-0.5868855343,-0.7572760779,0.2674794534
7.4300,0.1016127518,-0.5858491221,-0.757689542,0.2690022543
7.4350,0.1004718704,-0.5847993322,-0.7581055424,0.2705385941
7.4400,0.0993053676,-0.5837350737,-0.758524086,0.272090093
7.4450,0.098111583,-0.5826552188,-0.7589465707,0.2736551044
7.4500,0.0968909453,-0.5815621387,-0.7593705677,0.275234381
7.4550,0.09564327546,-0.5804536142,-0.7597974424,0.2768281273
7.4600,0.09436624692,-0.5793314811,-0.76022618,0.2784352739
7.4650,0.09305960303,-0.5781934642,-0.7606582086,0.2800559192
7.4700,0.09172102833,-0.5770402212,-0.7610924811,0.2816914469
7.4750,0.09035119181,-0.5758716352,-0.7615289482,0.283341107
7.4800,0.08894838391,-0.5746876047,-0.7619678402,0.2850041273
7.4850,0.08751233627,-0.5734884531,-0.7624083195,0.2866812508
7.4900,0.08604213863,-0.5722735039,-0.7628514267,0.2883704006
7.4950,0.08453780342,-0.5710431744,-0.7632962922,0.2900720998
7.5000,0.08300108763,-0.5697965823,-0.7637427039,0.2917871765
7.5050,0.08143253144,-0.5685347322,-0.7641901183,0.2935139932
7.5100,0.07983601522,-0.5672571272,-0.7646378338,0.2952533581
7.5150,0.07821259432,-0.5659634622,-0.7650859227,0.2970045125
7.5200,0.07656540369,-0.5646531572,-0.7655344325,0.2987667712
7.5250,0.07489693658,-0.563326806,-0.765982509,0.3005397719
7.5300,0.07320570654,-0.5619857809,-0.7664302811,0.3023202456
7.5350,0.07149303882,-0.5606293137,-0.7668770663,0.3041103143
7.5400,0.06975852813,-0.5592575626,-0.7673242528,0.3059055696
7.5450,0.06800381343,-0.5578711462,-0.7677710341,0.3077058739
7.5500,0.06622810638,-0.5564721464,-0.7682160011,0.3095105231
7.5550,0.06443373494,-0.5550588621,-0.7686606167,0.3113178598
7.5600,0.06262085065,-0.5536315768,-0.7691046346,0.3131273977
7.5650,0.06079160398,-0.5521918714,-0.769546927,0.3149381609
7.5700,0.05894809927,-0.5507374752,-0.7699883981,0.3167510408
7.5750,0.05709317148,-0.5492679787,-0.7704293853,0.3185649377
7.5800,0.05522655529,-0.5477844808,-0.7708684365,0.3203810915
7.5850,0.05334989587,-0.5462858745,-0.7713063359,0.3221988022
7.5900,0.05146393113,-0.5447723498,-0.7717423431,0.324018991
7.5950,0.04956997486,-0.54324342,-0.7721769902,0.3258406052
7.6000,0.04766968255,-0.541698989,-0.77261003,0.3276637732
7.6050,0.0457625917,-0.5401398131,-0.7730409781,0.3294881085
7.6100,0.04385095853,-0.53856536,-0.7734696865,0.3313141872
7.6150,0.04193202438,-0.5369768333,-0.7738958965,0.3331407019
7.6200,0.04000881087,-0.535373123,-0.7743198806,0.334968113
7.6250,0.03808173154,-0.5337546229,-0.7747405336,0.3367979957
7.6300,0.03615403798,-0.5321214508,-0.7751582895,0.3386285182
7.6350,0.03422850241,-0.5304740266,-0.7755714939,0.3404622955
7.6400,0.03230733432,-0.5288125822,-0.7759804781,0.3422978041
7.6450,0.0303919174,-0.5271372879,-0.7763843863,0.3441364493
7.6500,0.02848364921,-0.5254482994,-0.7767828952,0.3459784678
7.6550,0.02658558399,-0.5237457356,-0.7771751361,0.3478252708
7.6600,0.02469896824,-0.522029988,-0.7775610981,0.3496761233
7.6650,0.02282504852,-0.5203027174,-0.7779393307,0.3515316447
7.6700,0.02096426236,-0.518563498,-0.7783100017,0.3533920479
7.6750,0.01911594495,-0.5168135294,-0.7786732065,0.3552553926
7.6800,0.01727941023,-0.5150529785,-0.779028062,0.3571234098
7.6850,0.01545597429,-0.5132825376,-0.7793740642,0.3589961246
7.6900,0.01364639445,-0.5115006301,-0.7797126903,0.3608725563
7.6950,0.01185000972,-0.5097076457,-0.7800427897,0.3627546546
7.7000,0.01006812665,-0.5079041853,-0.7803642812,0.3646416872
7.7050,0.008299781632,-0.5060920905,-0.7806752035,0.3665353139
7.7100,0.006543251054,-0.5042699221,-0.7809761198,0.3684363335
7.7150,0.004797619728,-0.5024381045,-0.7812681119,0.3703418303
7.7200,0.003063793849,-0.5005974109,-0.7815500257,0.3722531432
7.7250,0.001338881295,-0.4987481716,-0.7818216608,0.3741702279
7.7300,-0.0003772957698,-0.4968902705,-0.78208313,0.3760929334
7.7350,-0.002086268875,-0.4950243151,-0.7823340893,0.3780210943
7.7400,-0.003790447502,-0.4931519195,-0.7825738037,0.3799540216
7.7450,-0.005489267917,-0.4912727026,-0.7828027286,0.3818911989
7.7500,-0.007182515503,-0.4893869266,-0.7830206144,0.3838327305
7.7550,-0.008870189464,-0.4874942337,-0.7832286496,0.385776586
7.7600,-0.01054985479,-0.4855962118,-0.7834265666,0.387721336
7.7650,-0.0122235664,-0.4836944133,-0.7836132899,0.3896671796
7.7700,-0.01388902025,-0.4817883258,-0.783789699,0.3916130896
7.7750,-0.01554690129,-0.4798785671,-0.7839558755,0.3935581786
7.7800,-0.01719692516,-0.4779640823,-0.7841121547,0.3955031359
7.7850,-0.01883787623,-0.4760448745,-0.7842596802,0.3974458025
7.7900,-0.02047062752,-0.4741222854,-0.7843976344,0.3993862329
7.7950,-0.02209302097,-0.4721953012,-0.7845276489,0.4013226434
7.8000,-0.02370755965,-0.4702655049,-0.7846489689,0.4032546367
7.8050,-0.02531301633,-0.4683319924,-0.7847628968,0.4051809373
7.8100,-0.02691075198,-0.4663950479,-0.784870339,0.4070995232
7.8150,-0.02850057076,-0.4644555235,-0.784970852,0.4090104468
7.8200,-0.03008356275,-0.4625129932,-0.7850654403,0.4109123566
7.8250,-0.03166321107,-0.4605687178,-0.7851534907,0.4128049094
7.8300,-0.03323633836,-0.4586207044,-0.7852359897,0.4146888421
7.8350,-0.03480345256,-0.4566688996,-0.7853142319,0.4165618718
7.8400,-0.03636352653,-0.4547134317,-0.785386971,0.4184264508
7.8450,-0.03791769709,-0.4527549447,-0.7854539266,0.4202824497
7.8500,-0.03946600658,-0.4507924302,-0.785515799,0.4221297771
7.8550,-0.04100954681,-0.4488258436,-0.7855722113,0.4239691971
7.8600,-0.0425456207,-0.4468545209,-0.7856234566,0.4258012349
7.8650,-0.04407428017,-0.444877155,-0.7856703552,0.4276258502
7.8700,-0.0455969437,-0.4428949739,-0.7857117111,0.4294439054
7.8750,-0.04711299427,-0.4409085431,-0.7857477365,0.4312545849
7.8800,-0.04862301293,-0.4389159542,-0.7857794477,0.4330580185
7.8850,-0.05012495028,-0.4369183088,-0.7858055741,0.4348557007
7.8900,-0.05162062372,-0.4349158774,-0.7858268325,0.4366459437
7.8950,-0.05310973674,-0.4329091834,-0.7858428461,0.4384290319
7.9000,-0.05459254233,-0.4308991571,-0.7858533705,0.4402045557
7.9050,-0.05606734315,-0.4288843209,-0.7858586454,0.4419738474
7.9100,-0.05753405797,-0.4268652791,-0.7858582529,0.4437371655
7.9150,-0.0589912486,-0.4248411023,-0.7858526994,0.4454947869
7.9200,-0.06044017471,-0.4228122702,-0.7858416993,0.4472466804
7.9250,-0.06187898851,-0.4207791382,-0.7858252646,0.4489928298
7.9300,-0.06330797095,-0.4187414961,-0.7858023011,0.4507354033
7.9350,-0.06472642009,-0.4166987373,-0.7857743112,0.4524725237
7.9400,-0.06613529077,-0.4146511288,-0.785739987,0.4542061618
7.9450,-0.06753521409,-0.4125988156,-0.7856995327,0.455935803
7.9500,-0.06892705643,-0.410542217,-0.7856524224,0.457661906
7.9550,-0.07031162854,-0.4084815052,-0.7855992415,0.4593832458
7.9600,-0.07168772355,-0.4064162573,-0.7855395409,0.4611012099
7.9650,-0.0730568984,-0.4043455102,-0.7854731518,0.4628167302
7.9700,-0.07441869993,-0.4022703311,-0.7854014784,0.4645265928
7.9750,-0.07577482047,-0.4001893353,-0.7853228189,0.4662346433
7.9800,-0.07712334107,-0.3981023864,-0.7852381162,0.4679397194
7.9850,-0.07846676149,-0.396010372,-0.7851478398,0.4696398857
7.9900,-0.07980601257,-0.3939146982,-0.7850516217,0.4713344483
7.9950,-0.0811420678,-0.3918150827,-0.7849494518,0.4730235342
8.0000,-0.08247565107,-0.3897106602,-0.7848414646,0.474707535
8.0050,-0.0838080041,-0.3876016381,-0.7847292651,0.4763834265
8.0100,-0.08513830131,-0.3854886406,-0.7846127297,0.4780510872
8.0150,-0.08646737833,-0.3833709307,-0.7844916801,0.4797112943
8.0200,-0.08779656949,-0.3812480439,-0.7843673173,0.4813622367
8.0250,-0.08912473772,-0.3791199793,-0.7842404637,0.4830028131
8.0300,-0.09045257012,-0.3769861414,-0.7841110804,0.484633465
8.0350,-0.09178105883,-0.3748471343,-0.7839792898,0.4862533663
8.0400,-0.09311075443,-0.372703769,-0.7838456009,0.4878610068
8.0450,-0.09444386714,-0.3705573054,-0.7837090363,0.489456623
8.0500,-0.09578077502,-0.3684075097,-0.7835708697,0.4910383306
8.0550,-0.09712248185,-0.3662538595,-0.7834299857,0.492608152
8.0600,-0.09846867161,-0.3640940165,-0.7832863038,0.4941680221
8.0650,-0.09981843673,-0.3619293273,-0.7831401153,0.4957166545
8.0700,-0.1011727616,-0.3597607064,-0.7829907091,0.4972543171
8.0750,-0.1025307512,-0.357587807,-0.782838105,0.4987814218
8.0800,-0.1038920024,-0.3554117235,-0.782681149,0.5002990882
8.0850,-0.1052567038,-0.3532331406,-0.7825196385,0.5018071244
8.0900,-0.1066223574,-0.3510510462,-0.7823545389,0.5033052864
8.0950,-0.1079909894,-0.3488661047,-0.7821848576,0.5047942509
8.1000,-0.1093609176,-0.3466794052,-0.7820105178,0.5062737696
8.1050,-0.1107314831,-0.3444900454,-0.7818318938,0.5077440666
8.1100,-0.1121020924,-0.3422972527,-0.7816479363,0.5092074385
8.1150,-0.1134728569,-0.3401012189,-0.7814590245,0.5106631617
8.1200,-0.1148410763,-0.337903495,-0.781265,0.5121110768
8.1250,-0.1162058306,-0.3357043831,-0.7810661007,0.5135508918
8.1300,-0.117569666,-0.333503632,-0.780861493,0.5149835239
8.1350,-0.1189295569,-0.3313015604,-0.7806508408,0.5164100128
8.1400,-0.1202872154,-0.3290978125,-0.780434424,0.5178298228
8.1450,-0.1216411198,-0.3268914954,-0.7802129265,0.5192428888
8.1500,-0.1229903449,-0.3246836466,-0.7799861409,0.5206491378
8.1550,-0.1243344734,-0.3224726386,-0.7797546339,0.5220488933
8.1600,-0.1256756507,-0.3202588948,-0.7795178432,0.5234422636
8.1650,-0.1270139348,-0.3180441713,-0.7792755204,0.5248285708
8.1700,-0.1283478094,-0.3158268472,-0.7790279687,0.5262087669
8.1750,-0.1296790958,-0.3136082173,-0.7787744845,0.5275827143
8.1800,-0.1310052385,-0.3113887273,-0.7785150129,0.5289509077
8.1850,-0.132328636,-0.3091679833,-0.7782498726,0.5303125739
8.1900,-0.1336456177,-0.3069449018,-0.77797927,0.5316690057
8.1950,-0.1349582188,-0.3047202667,-0.7777031344,0.5330193927
8.2000,-0.1362656328,-0.3024932678,-0.7774203614,0.5343660561
8.2050,-0.1375691949,-0.3002646117,-0.7771314786,0.5357075177
8.2100,-0.1388688483,-0.2980342766,-0.7768366723,0.5370435713
8.2150,-0.1401636659,-0.2958024315,-0.7765357708,0.5383746511
8.2200,-0.1414523638,-0.293568647,-0.7762283521,0.5397019768
8.2250,-0.142737157,-0.2913327338,-0.7759152132,0.5410239589
8.2300,-0.1440190661,-0.2890967383,-0.7755955194,0.5423404602
8.2350,-0.1452996054,-0.2868621195,-0.7752688745,0.5436509186
8.2400,-0.1465789141,-0.2846281757,-0.7749348159,0.5449563786
8.2450,-0.1478574161,-0.2823956529,-0.7745940522,0.5462553744
8.2500,-0.1491333973,-0.2801634736,-0.7742463987,0.5475492416
8.2550,-0.1504072302,-0.2779308751,-0.7738912732,0.5488391304
8.2600,-0.151679932,-0.2756983948,-0.7735282905,0.5501250559
8.2650,-0.1529499616,-0.2734648953,-0.7731588841,0.5514060213
8.2700,-0.1542173639,-0.2712299108,-0.7727816259,0.5526842668
8.2750,-0.1554812348,-0.2689933478,-0.772397846,0.5539582402
8.2800,-0.1567441622,-0.2667541764,-0.772007565,0.5552276979
8.2850,-0.1580061983,-0.2645134419,-0.7716103453,0.5564927272
8.2900,-0.1592675962,-0.262271135,-0.771204757,0.5577552396
8.2950,-0.1605311924,-0.2600276116,-0.7707912834,0.5590135731
8.3000,-0.1617975868,-0.2577842958,-0.7703706638,0.5602658638
8.3050,-0.1630690156,-0.2555422778,-0.7699412825,0.5615131894
8.3100,-0.1643445536,-0.253302427,-0.7695035748,0.5627548281
8.3150,-0.1656236755,-0.2510627781,-0.7690582264,0.56399089
8.3200,-0.1669070775,-0.2488240237,-0.7686050578,0.5652211053
8.3250,-0.1681940481,-0.2465870099,-0.7681440351,0.5664453637
8.3300,-0.169485197,-0.244351771,-0.7676759179,0.567662457
8.3350,-0.1707799414,-0.2421171257,-0.7672006447,0.5688731667
8.3400,-0.1720749239,-0.2398831785,-0.7667187913,0.5700776932
8.3450,-0.1733717754,-0.2376503796,-0.7662305019,0.5712751899
8.3500,-0.1746720029,-0.2354187095,-0.7657353249,0.5724658372
8.3550,-0.1759756329,-0.2331892527,-0.7652324293,0.57365031
8.3600,-0.1772833728,-0.2309614351,-0.7647235157,0.5748263788
8.3650,-0.1785948306,-0.2287350948,-0.7642086033,0.5759942305
8.3700,-0.1799113323,-0.2265124896,-0.7636879294,0.5771522772
8.3750,-0.181231831,-0.2242945703,-0.7631600479,0.5783024386
8.3800,-0.1825575967,-0.2220808884,-0.7626260222,0.5794431405
8.3850,-0.1838872372,-0.2198711667,-0.7620856641,0.5805752274
8.3900,-0.1852213802,-0.2176676407,-0.7615383684,0.5816985061
8.3950,-0.1865590452,-0.21546818,-0.7609850654,0.5828129342
8.4000,-0.1878989389,-0.2132717233,-0.7604265206,0.5839183741
8.4050,-0.1892411198,-0.2110793275,-0.759862015,0.5850154137
8.4100,-0.1905841171,-0.2088906984,-0.7592932713,0.5861024642
8.4150,-0.1919266628,-0.206705383,-0.7587201452,0.5871803658
8.4200,-0.1932682478,-0.2045208604,-0.7581429016,0.5882498982
8.4250,-0.1946058654,-0.2023344824,-0.7575634105,0.5893106087
8.4300,-0.1959392237,-0.2001495197,-0.7569819155,0.5903612199
8.4350,-0.197274311,-0.197967066,-0.7563976893,0.5914003911
8.4400,-0.1986124398,-0.195788992,-0.7558095586,0.5924286291
8.4450,-0.1999527063,-0.1936149393,-0.7552170984,0.5934469688
8.4500,-0.2012955878,-0.1914440808,-0.754621126,0.5944545454
8.4550,-0.2026402417,-0.1892770918,-0.7540222568,0.5954507127
8.4600,-0.2039849525,-0.1871130827,-0.753420549,0.5964363418
8.4650,-0.2053308749,-0.1849528194,-0.7528157594,0.5974111807
8.4700,-0.2066773953,-0.1827952667,-0.7522080101,0.59837568
8.4750,-0.208024877,-0.1806404982,-0.7515970923,0.5993300192
8.4800,-0.2093736624,-0.1784884657,-0.7509828522,0.6002743479
8.4850,-0.2107204313,-0.1763381781,-0.7503652836,0.6012101861
8.4900,-0.2120666441,-0.1741898228,-0.7497441834,0.6021372796
8.4950,-0.2134091516,-0.1720423469,-0.7491188786,0.6030579331
8.5000,-0.214748822,-0.1698956256,-0.7484891778,0.6039721604
8.5050,-0.2160858863,-0.1677498486,-0.7478542066,0.6048809501
8.5100,-0.2174191783,-0.1656055155,-0.7472134964,0.605785197
8.5150,-0.2187473822,-0.1634603738,-0.7465668444,0.6066862746
8.5200,-0.2200689163,-0.1613146372,-0.7459154468,0.6075832504
8.5250,-0.2213794619,-0.1591674292,-0.7452593498,0.6084779083
8.5300,-0.2226782835,-0.1570183438,-0.7445992386,0.6093698348
8.5350,-0.2239641583,-0.154864923,-0.7439350628,0.6102602181
8.5400,-0.2252360238,-0.1527089455,-0.7432669803,0.6111488424
8.5450,-0.2264923393,-0.1505490237,-0.7425946067,0.6120371409
8.5500,-0.2277345035,-0.1483873967,-0.7419172024,0.6129249882
8.5550,-0.2289641524,-0.1462263094,-0.7412340819,0.6138121204
8.5600,-0.2301818617,-0.1440654592,-0.7405453572,0.6146983227
8.5650,-0.23138852,-0.1419053378,-0.7398493928,0.6155851719
8.5700,-0.2325851697,-0.1397483051,-0.7391467727,0.6164710849
8.5750,-0.233774394,-0.1375954288,-0.7384363894,0.617356242
8.5800,-0.2349558746,-0.1354467616,-0.7377181196,0.6182409625
8.5850,-0.236129275,-0.1333028954,-0.7369909515,0.6191265146
8.5900,-0.2372944059,-0.1311633452,-0.7362555788,0.62001231
8.5950,-0.2384502406,-0.1290286536,-0.7355118,0.6208989301
8.6000,-0.2395972892,-0.1268993732,-0.7347593643,0.6217864301
8.6050,-0.2407327703,-0.1247720956,-0.7339984367,0.6226764428
8.6100,-0.2418573639,-0.1226483773,-0.7332291292,0.6235683083
8.6150,-0.2429727028,-0.1205307772,-0.7324506263,0.6244619103
8.6200,-0.2440783929,-0.1184182145,-0.7316624596,0.6253582251
8.6250,-0.2451766643,-0.1163095971,-0.7308647887,0.6262564503
8.6300,-0.2462651609,-0.1142044605,-0.7300577891,0.6271574255
8.6350,-0.2473413282,-0.1121012358,-0.7292424624,0.6280613117
8.6400,-0.2484078935,-0.1099974015,-0.7284195183,0.6289666887
8.6450,-0.2494621595,-0.1078951887,-0.7275890443,0.6298741477
8.6500,-0.2505073387,-0.1057932025,-0.7267507425,0.6307830292
8.6550,-0.2515455287,-0.1036932676,-0.7259049181,0.6316918578
8.6600,-0.2525791563,-0.1015985104,-0.7250500823,0.6326008936
8.6650,-0.2536089734,-0.09950742884,-0.7241867925,0.6335094709
8.6700,-0.2546352506,-0.09741725307,-0.7233150369,0.6344179422
8.6750,-0.2556586259,-0.09532790071,-0.7224355116,0.6353252631
8.6800,-0.2566778855,-0.09324055723,-0.7215486916,0.6362312058
8.6850,-0.2576939445,-0.09115322409,-0.7206557104,0.6371344189
8.6900,-0.2587111577,-0.08906899063,-0.7197549774,0.6380345009
8.6950,-0.2597307884,-0.08698993962,-0.7188459748,0.6389312424
8.7000,-0.2607536712,-0.08491541646,-0.7179289159,0.6398241686
8.7050,-0.261777693,-0.08284403738,-0.7170057413,0.64071216
8.7100,-0.2628035934,-0.08077546444,-0.7160767235,0.6415946709
8.7150,-0.2638310699,-0.07871016835,-0.7151426248,0.6424709349
8.7200,-0.2648625775,-0.07664880031,-0.7142035541,0.6433397701
8.7250,-0.2658998775,-0.07459450224,-0.7132581479,0.6442016221
8.7300,-0.2669420778,-0.07254572118,-0.7123071346,0.6450562699
8.7350,-0.2679881721,-0.07050236907,-0.7113508171,0.64590384
8.7400,-0.2690350213,-0.06846540363,-0.7103900978,0.6467445824
8.7450,-0.270085245,-0.06643560761,-0.7094250706,0.6475772848
8.7500,-0.2711390719,-0.06441413541,-0.7084542644,0.6484034069
8.7550,-0.2721958659,-0.06240138094,-0.7074779543,0.6492229374
8.7600,-0.2732567985,-0.06039626426,-0.7064966651,0.6500349803
8.7650,-0.2743163614,-0.05839670574,-0.7055119865,0.6508403764
8.7700,-0.2753755666,-0.05640419783,-0.7045238505,0.6516387096
8.7750,-0.2764290667,-0.05441472948,-0.7035351154,0.6524295745
8.7800,-0.2774751353,-0.0524253554,-0.7025473539,0.6532123291
8.7850,-0.2785132296,-0.0504368096,-0.7015621024,0.6539855699
8.7900,-0.2795431421,-0.04844753132,-0.7005790293,0.6547499463
8.7950,-0.2805670877,-0.04646040025,-0.6995983432,0.6555041561
8.8000,-0.2815865324,-0.0444752493,-0.6986202146,0.6562474935
8.8050,-0.2826005456,-0.04249205771,-0.6976448205,0.6569802592
8.8100,-0.2836092269,-0.04051050427,-0.696672339,0.657702332
8.8150,-0.2846142172,-0.03853218333,-0.6957033242,0.6584124109
8.8200,-0.2856167292,-0.03655845044,-0.6947361617,0.6591116972
8.8250,-0.2866185858,-0.03458803511,-0.6937706232,0.6597998003
8.8300,-0.2876170567,-0.03261863913,-0.6928074256,0.6604773457
8.8350,-0.2886119083,-0.0306501329,-0.6918474477,0.6611435887
8.8400,-0.2896026566,-0.02868168842,-0.6908910219,0.6617985025
8.8450,-0.2905917353,-0.02671480546,-0.689937003,0.6624422197
8.8500,-0.291576714,-0.0247474682,-0.6889867273,0.6630745601
8.8550,-0.2925533079,-0.02277687891,-0.6880415709,0.6636961447
8.8600,-0.2935205061,-0.02080244956,-0.6871022848,0.664306722
8.8650,-0.2944767567,-0.01882538439,-0.68617073,0.6649050865
8.8700,-0.2954240157,-0.01684667584,-0.6852441893,0.6654932317
8.8750,-0.2963606615,-0.0148655338,-0.6843234393,0.6660711708
8.8800,-0.2972853142,-0.01288383366,-0.6834080012,0.6666400473
8.8850,-0.2981999631,-0.01090382464,-0.682498065,0.6671988308
8.8900,-0.2991063299,-0.00892719622,-0.6815917807,0.66774872
8.8950,-0.3000023744,-0.006954013835,-0.6806892772,0.6682905992
8.9000,-0.3008873545,-0.004983133817,-0.6797903243,0.6688251515
8.9050,-0.3017612716,-0.003016783552,-0.678896242,0.6693511236
8.9100,-0.3026244319,-0.001054717904,-0.6780050328,0.669870522
8.9150,-0.3034752253,0.0009023354111,-0.6771167536,0.6703841253
8.9200,-0.3043131228,0.00285551842,-0.6762339869,0.6708896811
8.9250,-0.3051356917,0.004802419737,-0.6753562995,0.6713888703
8.9300,-0.3059477233,0.006741897547,-0.6744830293,0.671880332
8.9350,-0.306752715,0.008672062497,-0.6736131554,0.6723636546
8.9400,-0.3075505389,0.01059121784,-0.6727459782,0.6728397588
8.9450,-0.3083432682,0.01250086957,-0.6718803543,0.6733089535
8.9500,-0.3091286693,0.01439925364,-0.6710171661,0.6737715415
8.9550,-0.3099071485,0.01628580582,-0.6701572466,0.6742266656
8.9600,-0.310681202,0.01816079432,-0.6692995118,0.6746743954
8.9650,-0.3114523845,0.02002157301,-0.6684414759,0.6751166878
8.9700,-0.3122198936,0.02186705095,-0.6675835734,0.6755536563
8.9750,-0.3129865689,0.02369644377,-0.66672623,0.6759837428
8.9800,-0.3137526778,0.02550899445,-0.6658684424,0.6764079877
8.9850,-0.3145199431,0.0273033739,-0.6650091905,0.676826793
8.9900,-0.3152832958,0.0290857139,-0.6641500327,0.677240872
8.9950,-0.3160432016,0.03085477759,-0.6632923704,0.6776488093
9.0000,-0.3167994382,0.03260857349,-0.6624359307,0.6780512036
9.0050,-0.3175576943,0.03434361137,-0.6615784783,0.6784478935
9.0100,-0.3183175065,0.0360592114,-0.6607184292,0.6788408177
9.0150,-0.3190810302,0.03775524341,-0.6598556494,0.6792292394
9.0200,-0.3198477582,0.03943171876,-0.6589901974,0.6796134717
9.0250,-0.320617226,0.04109031325,-0.6581233234,0.6799925527
9.0300,-0.3213881181,0.04273360205,-0.6572555578,0.6803665545
9.0350,-0.3221573418,0.04436282156,-0.656389141,0.6807348109
9.0400,-0.3229253494,0.04597989826,-0.655524658,0.6810965353
9.0450,-0.3236918708,0.04758520355,-0.6546617995,0.6814522356
9.0500,-0.3244546261,0.04918003438,-0.653803827,0.6817998795
9.0550,-0.3252144565,0.05076582586,-0.6529514956,0.6821383529
9.0600,-0.3259704326,0.05234118256,-0.6521043051,0.6824687927
9.0650,-0.3267272088,0.05390512083,-0.6512610241,0.6827903394
9.0700,-0.3274840721,0.05545839395,-0.6504231535,0.6831019473
9.0750,-0.3282445185,0.05699814377,-0.6495887425,0.6834041362
9.0800,-0.3290106445,0.05852340387,-0.6487562692,0.6836975282
9.0850,-0.3297841005,0.06003599499,-0.6479253191,0.6839816571
9.0900,-0.3305618346,0.06153671423,-0.6470971306,0.6842568304
9.0950,-0.331340365,0.06302892861,-0.6462737228,0.6845226014
9.1000,-0.3321172093,0.06451529497,-0.6454570966,0.6847781191
9.1050,-0.3328900136,0.06599628067,-0.6446473158,0.6850245017
9.1100,-0.3336582206,0.06747366058,-0.6438460454,0.6852603642
9.1150,-0.3344208636,0.06894658927,-0.6430523388,0.6854872306
9.1200,-0.3351769025,0.07041655271,-0.6422660243,0.6857057001
9.1250,-0.3359274121,0.0718817895,-0.6414849646,0.685917504
9.1300,-0.3366749356,0.07334180698,-0.640708136,0.6861224756
9.1350,-0.3374177354,0.07479470705,-0.6399359904,0.6863213182
9.1400,-0.3381544972,0.07624227576,-0.6391689202,0.6865141971
9.1450,-0.3388829159,0.07768645624,-0.6384072881,0.6867017681
9.1500,-0.3396024518,0.0791256357,-0.6376516566,0.686884032
9.1550,-0.3403141489,0.08055865031,-0.6369010942,0.6870615548
9.1600,-0.341019131,0.08198415895,-0.636154727,0.6872348313
9.1650,-0.3417181975,0.08340139357,-0.635411738,0.6874043964
9.1700,-0.3424098263,0.08481060119,-0.6346733046,0.687569974
9.1750,-0.3430944164,0.08621045902,-0.6339394561,0.6877315932
9.1800,-0.3437742328,0.08759975502,-0.6332099041,0.6878886372
9.1850,-0.3444456184,0.08898284203,-0.632485011,0.6880421358
9.1900,-0.3451066488,0.09035892515,-0.6317671109,0.6881910949
9.1950,-0.3457566075,0.09173112499,-0.6310571633,0.6883346756
9.2000,-0.3463944865,0.09309554299,-0.6303562984,0.68847296
9.2050,-0.3470203816,0.0944514317,-0.6296640833,0.6886065088
9.2100,-0.3476358722,0.09579886635,-0.6289805714,0.6887345776
9.2150,-0.3482411797,0.09713913217,-0.628304894,0.6888577719
9.2200,-0.34883732,0.09847091178,-0.6276362232,0.6889766143
9.2250,-0.349425765,0.09979479363,-0.6269751436,0.6890898368
9.2300,-0.3500040958,0.1011106807,-0.626321105,0.6891992721
9.2350,-0.3505736323,0.1024177235,-0.6256744539,0.6893041535
9.2400,-0.35113683,0.103714592,-0.6250340373,0.6894045708
9.2450,-0.3516935157,0.1050012224,-0.6244006036,0.6895000366
9.2500,-0.3522467927,0.1062757838,-0.6237725289,0.6895908113
9.2550,-0.3527982838,0.1075368328,-0.6231485345,0.6896775365
9.2600,-0.3533478916,0.1087826331,-0.6225278349,0.6897613363
9.2650,-0.3538965912,0.1100135704,-0.6219100764,0.6898420645
9.2700,-0.3544457028,0.1112300266,-0.6212948231,0.6899194647
9.2750,-0.3549940787,0.1124330447,-0.6206821211,0.6899939993
9.2800,-0.3555425387,0.1136224096,-0.6200709077,0.6900663161
9.2850,-0.3560929328,0.1147962672,-0.6194607436,0.6901362383
9.2900,-0.3566456727,0.11595218,-0.6188517481,0.6902039337
9.2950,-0.3572016726,0.1170923934,-0.6182427383,0.6902696959
9.3000,-0.3577603397,0.1182190462,-0.6176340569,0.6903332298
9.3050,-0.3583197865,0.1193335429,-0.6170265374,0.6903945888
9.3100,-0.3588807671,0.1204377591,-0.6164211366,0.6904522602
9.3150,-0.3594430772,0.1215313674,-0.6158176517,0.6905066408
9.3200,-0.3600044641,0.1226149843,-0.6152160694,0.6905588602
9.3250,-0.3605671354,0.1236898496,-0.6146161285,0.6906078313
9.3300,-0.3611334674,0.1247539238,-0.6140161329,0.6906542303
9.3350,-0.3617042823,0.1258084273,-0.6134158147,0.6906976835
9.3400,-0.3622784537,0.1268555512,-0.6128149846,0.6907385799
9.3450,-0.3628549031,0.1278947687,-0.6122147942,0.690776587
9.3500,-0.3634356216,0.1289288357,-0.6116131653,0.6908120152
9.3550,-0.3640207818,0.1299569339,-0.6110071073,0.6908475814
9.3600,-0.3646103659,0.1309799716,-0.6103996756,0.6908804268
9.3650,-0.365201925,0.1320011494,-0.6097903999,0.6909116577
9.3700,-0.3657962332,0.1330204026,-0.6091795201,0.6909406635
9.3750,-0.3663922043,0.1340414092,-0.6085668274,0.6909674883
9.3800,-0.3669886425,0.1350623482,-0.607952906,0.6909925922
9.3850,-0.3675861467,0.1360826067,-0.6073376046,0.6910159065
9.3900,-0.3681877415,0.1371002343,-0.6067187671,0.6910380961
9.3950,-0.3687931047,0.138113949,-0.6060950396,0.6910607687
9.4000,-0.3694021547,0.1391223966,-0.6054663641,0.6910842849
9.4050,-0.3700144217,0.1401284368,-0.6048333193,0.6911078098
9.4100,-0.3706297939,0.1411303697,-0.6041954073,0.6911321758
9.4150,-0.3712453738,0.1421297186,-0.6035540144,0.6911574113
9.4200,-0.371859946,0.143128884,-0.6029103137,0.6911826508
9.4250,-0.3724700306,0.1441300768,-0.6022687375,0.6912054434
9.4300,-0.3730752352,0.1451330711,-0.6016282173,0.6912269879
9.4350,-0.3736752609,0.1461398069,-0.6009880657,0.6912476409
9.4400,-0.3742692565,0.147148923,-0.6003490186,0.6912675126
9.4450,-0.3748574996,0.14816074,-0.5997124926,0.6912851628
9.4500,-0.3754391942,0.1491771986,-0.5990779965,0.6913010408
9.4550,-0.3760131234,0.1501995028,-0.5984472977,0.6913140186
9.4600,-0.3765781079,0.1512266879,-0.5978217046,0.6913238221
9.4650,-0.3771345512,0.1522594373,-0.5972009684,0.6913303099
9.4700,-0.3776826352,0.1532971432,-0.5965860262,0.6913327175
9.4750,-0.3782226558,0.1543366628,-0.5959767041,0.6913317477
9.4800,-0.3787554295,0.1553794804,-0.5953718822,0.6913276095
9.4850,-0.3792816831,0.1564206785,-0.5947716558,0.6913209484
9.4900,-0.3798029755,0.1574630561,-0.5941745802,0.6913115463
9.4950,-0.3803193321,0.1585009523,-0.5935813639,0.6913000927
9.5000,-0.3808309778,0.1595387603,-0.5929894014,0.691287726
9.5050,-0.3813364898,0.1605760937,-0.5924001291,0.6912741039
9.5100,-0.3818358468,0.1616130709,-0.5918133819,0.6912593742
9.5150,-0.3823292784,0.1626487854,-0.5912298163,0.691243083
9.5200,-0.3828153032,0.1636826754,-0.5906485397,0.6912269728
9.5250,-0.3832951864,0.1647160822,-0.5900690647,0.6912104681
9.5300,-0.3837696038,0.1657488492,-0.5894908307,0.6911937288
9.5350,-0.3842377694,0.1667818151,-0.5889141614,0.6911767308
9.5400,-0.3847001569,0.1678152164,-0.588338752,0.6911594282
9.5450,-0.3851595101,0.1688481603,-0.5877640118,0.6911410253
9.5500,-0.385613375,0.1698830676,-0.5871909802,0.6911214229
9.5550,-0.3860628265,0.1709190569,-0.5866188089,0.6911009644
9.5600,-0.3865085982,0.1719586124,-0.5860472386,0.6910788473
9.5650,-0.3869500962,0.1729998636,-0.58547648,0.6910556863
9.5700,-0.387390266,0.1740406579,-0.5849047892,0.6910318507
9.5750,-0.3878299101,0.1750797162,-0.5843306764,0.6910084764
9.5800,-0.3882726582,0.176116017,-0.5837540099,0.690983898
9.5850,-0.3887160684,0.1771488288,-0.5831754786,0.6909590956
9.5900,-0.3891638138,0.1781777858,-0.5825932375,0.6909336598
9.5950,-0.3896144823,0.1792000708,-0.5820065096,0.6909097716
9.6000,-0.390071211,0.1802141126,-0.5814148594,0.6908864489
9.6050,-0.3905335006,0.1812211528,-0.5808182505,0.6908636903
9.6100,-0.3909997358,0.1822186777,-0.5802180519,0.6908419301
9.6150,-0.3914713512,0.1832084204,-0.5796140921,0.6908200636
9.6200,-0.3919510899,0.1841872014,-0.5790055363,0.6907980942
9.6250,-0.3924392251,0.1851516067,-0.5783900697,0.6907787376
9.6300,-0.3929357029,0.1861034773,-0.5777677987,0.6907614638
9.6350,-0.3934410238,0.1870428296,-0.5771375749,0.6907469583
9.6400,-0.3939555422,0.1879685816,-0.5764982131,0.6907363125
9.6450,-0.3944768909,0.1888828937,-0.5758519005,0.6907284732
9.6500,-0.3950034414,0.1897871227,-0.5751990297,0.6907236825
9.6550,-0.3955333837,0.1906817803,-0.5745431017,0.6907199326
9.6600,-0.3960669698,0.191567781,-0.573881382,0.6907191182
9.6650,-0.3966044912,0.1924452441,-0.5732159191,0.6907193465
9.6700,-0.3971436803,0.193315931,-0.5725459852,0.6907220446
9.6750,-0.3976833856,0.1941798567,-0.5718729079,0.6907267805
9.6800,-0.3982231462,0.195040516,-0.5711979446,0.6907318083
9.6850,-0.3987611251,0.1959002196,-0.5705219344,0.6907368467
9.6900,-0.3992952295,0.1967595458,-0.5698469407,0.6907412432
9.6950,-0.3998283044,0.1976192438,-0.5691722897,0.6907437051
9.7000,-0.4003607368,0.1984772872,-0.5684966533,0.6907456855
9.7050,-0.4008945764,0.1993323591,-0.5678193478,0.6907469417
9.7100,-0.401428007,0.2001860912,-0.5671395588,0.6907487278
9.7150,-0.4019620246,0.2010395486,-0.5664587579,0.6907489459
9.7200,-0.4024956728,0.2018923155,-0.5657777387,0.6907476216
9.7250,-0.4030291125,0.2027425579,-0.5650942875,0.690747013
9.7300,-0.4035611478,0.2035920129,-0.5644117044,0.6907446129
9.7350,-0.4040909941,0.2044412807,-0.5637302772,0.6907404765
9.7400,-0.4046211297,0.2052895762,-0.5630498301,0.6907335377
9.7450,-0.4051490397,0.206137729,-0.5623715161,0.6907240913
9.7500,-0.4056752861,0.2069868879,-0.5616971462,0.6907100017
9.7550,-0.4062002885,0.2078351115,-0.5610252296,0.6906928288
9.7600,-0.4067266754,0.2086839631,-0.5603545721,0.6906715345
9.7650,-0.4072520135,0.2095349828,-0.5596854449,0.6906468643
