type,name,time_units,begin_time,frequency,count,units
signal,"Noraxon Ultium-RT LAT. TRICEPS","s",0.00000,2000,51080,"uV"

time,value
0.00000,1.746974885
0.00050,-0.08419156075
0.00100,-2.525746822
0.00150,-3.746524453
0.00200,-2.83094123
0.00250,-2.525746822
0.00300,-3.136135638
0.00350,-4.356913269
0.00400,-4.662107676
0.00450,-4.356913269
0.00500,-4.356913269
0.00550,-4.356913269
0.00600,-4.051718861
0.00650,-4.051718861
0.00700,-4.967302084
0.00750,-6.188079715
0.00800,-6.493274122
0.00850,-5.577690899
0.00900,-4.662107676
0.00950,-4.356913269
0.01000,-3.746524453
0.01050,-2.525746822
0.01100,-0.9997747838
0.01150,-0.3893859684
0.01200,-0.9997747838
0.01250,-0.6945803761
0.01300,0.5261972547
0.01350,1.746974885
0.01400,1.13658607
0.01450,-0.08419156075
0.01500,-0.3893859684
0.01550,0.221002847
0.01600,0.8313916624
0.01650,-0.3893859684
0.01700,-2.83094123
0.01750,-4.662107676
0.01800,-5.577690899
0.01850,-6.188079715
0.01900,-6.188079715
0.01950,-5.272496492
0.02000,-3.441330045
0.02050,-2.525746822
0.02100,-3.441330045
0.02150,-4.051718861
0.02200,-3.746524453
0.02250,-2.83094123
0.02300,-2.83094123
0.02350,-3.136135638
0.02400,-2.83094123
0.02450,-2.220552415
0.02500,-2.220552415
0.02550,-1.915358007
0.02600,-1.304969192
0.02650,-0.3893859684
0.02700,-0.9997747838
0.02750,-1.915358007
0.02800,-1.915358007
0.02850,-0.3893859684
0.02900,0.5261972547
0.02950,0.5261972547
0.03000,0.8313916624
0.03050,1.746974885
0.03100,1.13658607
0.03150,-0.9997747838
0.03200,-3.441330045
0.03250,-3.746524453
0.03300,-2.525746822
0.03350,-2.83094123
0.03400,-3.441330045
0.03450,-2.83094123
0.03500,-0.6945803761
0.03550,-0.08419156075
0.03600,-0.08419156075
0.03650,-0.08419156075
0.03700,1.746974885
0.03750,3.578141332
0.03800,3.578141332
0.03850,2.967752516
0.03900,3.272946924
0.03950,3.578141332
0.04000,3.272946924
0.04050,2.967752516
0.04100,2.967752516
0.04150,2.052169293
0.04200,0.221002847
0.04250,-0.9997747838
0.04300,-0.3893859684
0.04350,1.13658607
0.04400,1.441780478
0.04450,0.8313916624
0.04500,0.5261972547
0.04550,1.441780478
0.04600,1.746974885
0.04650,1.13658607
0.04700,1.13658607
0.04750,2.357363701
0.04800,2.357363701
0.04850,0.5261972547
0.04900,-1.304969192
0.04950,-1.304969192
0.05000,-0.3893859684
0.05050,-0.08419156075
0.05100,-0.6945803761
0.05150,-0.6945803761
0.05200,0.5261972547
0.05250,2.357363701
0.05300,2.967752516
0.05350,2.662558109
0.05400,2.052169293
0.05450,1.13658607
0.05500,0.5261972547
0.05550,0.5261972547
0.05600,1.13658607
0.05650,1.13658607
0.05700,0.8313916624
0.05750,1.441780478
0.05800,2.967752516
0.05850,5.10411337
0.05900,6.019696593
0.05950,5.714502186
0.06000,4.493724555
0.06050,3.883335739
0.06100,2.967752516
0.06150,2.357363701
0.06200,2.052169293
0.06250,2.662558109
0.06300,3.272946924
0.06350,2.967752516
0.06400,1.746974885
0.06450,0.5261972547
0.06500,0.221002847
0.06550,0.5261972547
0.06600,0.8313916624
0.06650,0.8313916624
0.06700,1.13658607
0.06750,1.441780478
0.06800,2.052169293
0.06850,1.746974885
0.06900,1.13658607
0.06950,1.441780478
0.07000,2.357363701
0.07050,3.272946924
0.07100,4.188530147
0.07150,4.188530147
0.07200,3.883335739
0.07250,3.272946924
0.07300,2.662558109
0.07350,2.662558109
0.07400,3.883335739
0.07450,4.493724555
0.07500,4.188530147
0.07550,2.052169293
0.07600,0.221002847
0.07650,0.221002847
0.07700,1.441780478
0.07750,2.662558109
0.07800,2.967752516
0.07850,2.662558109
0.07900,2.967752516
0.07950,2.967752516
0.08000,3.272946924
0.08050,3.578141332
0.08100,4.188530147
0.08150,4.493724555
0.08200,3.578141332
0.08250,2.357363701
0.08300,2.357363701
0.08350,3.272946924
0.08400,4.188530147
0.08450,3.578141332
0.08500,2.662558109
0.08550,2.967752516
0.08600,4.493724555
0.08650,6.019696593
0.08700,6.630085409
0.08750,6.324891001
0.08800,6.324891001
0.08850,6.935279816
0.08900,7.240474224
0.08950,6.324891001
0.09000,4.188530147
0.09050,2.052169293
0.09100,1.13658607
0.09150,1.13658607
0.09200,1.441780478
0.09250,1.441780478
0.09300,1.13658607
0.09350,1.441780478
0.09400,2.967752516
0.09450,4.798918962
0.09500,5.714502186
0.09550,5.714502186
0.09600,6.019696593
0.09650,6.019696593
0.09700,5.409307778
0.09750,5.10411337
0.09800,6.630085409
0.09850,8.766446263
0.09900,9.376835078
0.09950,7.850863039
0.10000,6.324891001
0.10050,6.324891001
0.10100,7.240474224
0.10150,6.935279816
0.10200,6.935279816
0.10250,8.156057447
0.10300,9.682029486
0.10350,9.987223893
0.10400,9.987223893
0.10450,11.51319593
0.10500,12.42877916
0.10550,10.59761271
0.10600,6.935279816
0.10650,5.409307778
0.10700,6.630085409
0.10750,7.850863039
0.10800,6.630085409
0.10850,5.10411337
0.10900,5.409307778
0.10950,6.630085409
0.11000,6.019696593
0.11050,3.883335739
0.11100,2.052169293
0.11150,2.052169293
0.11200,2.052169293
0.11250,0.8313916624
0.11300,-0.08419156075
0.11350,-0.08419156075
0.11400,1.13658607
0.11450,2.967752516
0.11500,3.578141332
0.11550,3.272946924
0.11600,2.662558109
0.11650,2.357363701
0.11700,2.967752516
0.11750,3.883335739
0.11800,4.188530147
0.11850,2.967752516
0.11900,1.441780478
0.11950,0.5261972547
0.12000,0.221002847
0.12050,0.8313916624
0.12100,1.441780478
0.12150,1.441780478
0.12200,1.441780478
0.12250,1.746974885
0.12300,1.13658607
0.12350,0.221002847
0.12400,-0.08419156075
0.12450,-0.08419156075
0.12500,0.5261972547
0.12550,1.13658607
0.12600,2.052169293
0.12650,2.967752516
0.12700,2.967752516
0.12750,1.441780478
0.12800,0.221002847
0.12850,0.221002847
0.12900,1.13658607
0.12950,0.8313916624
0.13000,-0.08419156075
0.13050,0.221002847
0.13100,1.441780478
0.13150,2.052169293
0.13200,0.5261972547
0.13250,-0.9997747838
0.13300,-2.220552415
0.13350,-2.525746822
0.13400,-2.525746822
0.13450,-1.610163599
0.13500,-0.6945803761
0.13550,-0.3893859684
0.13600,-1.610163599
0.13650,-2.525746822
0.13700,-1.304969192
0.13750,0.5261972547
0.13800,1.441780478
0.13850,0.221002847
0.13900,-0.3893859684
0.13950,-0.08419156075
0.14000,1.746974885
0.14050,2.662558109
0.14100,1.441780478
0.14150,-0.3893859684
0.14200,-2.220552415
0.14250,-2.83094123
0.14300,-1.915358007
0.14350,-0.6945803761
0.14400,-0.3893859684
0.14450,-0.9997747838
0.14500,-2.525746822
0.14550,-3.136135638
0.14600,-2.525746822
0.14650,-1.610163599
0.14700,-1.610163599
0.14750,-2.525746822
0.14800,-3.441330045
0.14850,-4.051718861
0.14900,-3.746524453
0.14950,-2.525746822
0.15000,-1.915358007
0.15050,-1.915358007
0.15100,-2.525746822
0.15150,-2.525746822
0.15200,-1.915358007
0.15250,-1.610163599
0.15300,-1.610163599
0.15350,-1.304969192
0.15400,-0.6945803761
0.15450,-0.6945803761
0.15500,-1.610163599
0.15550,-1.304969192
0.15600,0.221002847
0.15650,2.357363701
0.15700,2.662558109
0.15750,1.441780478
0.15800,1.441780478
0.15850,2.357363701
0.15900,3.272946924
0.15950,2.357363701
0.16000,0.5261972547
0.16050,-0.08419156075
0.16100,-0.08419156075
0.16150,0.5261972547
0.16200,1.746974885
0.16250,3.578141332
0.16300,4.798918962
0.16350,4.798918962
0.16400,3.272946924
0.16450,1.441780478
0.16500,1.13658607
0.16550,2.052169293
0.16600,2.662558109
0.16650,2.052169293
0.16700,0.221002847
0.16750,-0.08419156075
0.16800,0.221002847
0.16850,0.5261972547
0.16900,-0.08419156075
0.16950,-1.304969192
0.17000,-1.304969192
0.17050,-0.08419156075
0.17100,1.746974885
0.17150,2.052169293
0.17200,1.746974885
0.17250,2.357363701
0.17300,3.578141332
0.17350,3.883335739
0.17400,3.272946924
0.17450,2.967752516
0.17500,4.188530147
0.17550,6.019696593
0.17600,6.935279816
0.17650,6.324891001
0.17700,5.714502186
0.17750,5.409307778
0.17800,5.409307778
0.17850,4.798918962
0.17900,5.10411337
0.17950,6.019696593
0.18000,6.630085409
0.18050,6.324891001
0.18100,5.714502186
0.18150,6.324891001
0.18200,7.850863039
0.18250,9.07164067
0.18300,9.07164067
0.18350,8.156057447
0.18400,7.240474224
0.18450,7.240474224
0.18500,8.156057447
0.18550,9.07164067
0.18600,8.766446263
0.18650,7.850863039
0.18700,6.630085409
0.18750,6.019696593
0.18800,5.409307778
0.18850,4.798918962
0.18900,4.798918962
0.18950,6.019696593
0.19000,7.545668632
0.19050,7.545668632
0.19100,6.630085409
0.19150,6.019696593
0.19200,6.324891001
0.19250,6.935279816
0.19300,7.545668632
0.19350,7.545668632
0.19400,7.240474224
0.19450,6.324891001
0.19500,6.019696593
0.19550,7.545668632
0.19600,8.766446263
0.19650,7.850863039
0.19700,6.019696593
0.19750,5.714502186
0.19800,7.850863039
0.19850,9.987223893
0.19900,10.59761271
0.19950,10.2924183
0.20000,9.376835078
0.20050,8.766446263
0.20100,8.461251855
0.20150,9.376835078
0.20200,10.59761271
0.20250,9.07164067
0.20300,6.019696593
0.20350,4.188530147
0.20400,5.409307778
0.20450,7.850863039
0.20500,8.766446263
0.20550,9.07164067
0.20600,9.376835078
0.20650,8.766446263
0.20700,6.324891001
0.20750,4.188530147
0.20800,3.578141332
0.20850,4.493724555
0.20900,5.409307778
0.20950,6.019696593
0.21000,7.240474224
0.21050,7.850863039
0.21100,6.935279816
0.21150,5.10411337
0.21200,3.578141332
0.21250,2.662558109
0.21300,2.357363701
0.21350,2.357363701
0.21400,3.272946924
0.21450,4.493724555
0.21500,4.798918962
0.21550,4.493724555
0.21600,3.883335739
0.21650,4.188530147
0.21700,4.493724555
0.21750,4.493724555
0.21800,3.883335739
0.21850,3.272946924
0.21900,2.662558109
0.21950,2.662558109
0.22000,2.357363701
0.22050,2.052169293
0.22100,0.8313916624
0.22150,-0.08419156075
0.22200,0.5261972547
0.22250,2.052169293
0.22300,2.662558109
0.22350,1.746974885
0.22400,1.13658607
0.22450,0.5261972547
0.22500,0.221002847
0.22550,-0.3893859684
0.22600,-0.9997747838
0.22650,-0.08419156075
0.22700,0.8313916624
0.22750,2.052169293
0.22800,2.662558109
0.22850,2.357363701
0.22900,1.13658607
0.22950,-0.9997747838
0.23000,-2.83094123
0.23050,-2.83094123
0.23100,-2.525746822
0.23150,-2.220552415
0.23200,-1.915358007
0.23250,-0.9997747838
0.23300,-0.6945803761
0.23350,-1.304969192
0.23400,-2.220552415
0.23450,-2.83094123
0.23500,-3.136135638
0.23550,-3.746524453
0.23600,-4.356913269
0.23650,-4.051718861
0.23700,-3.746524453
0.23750,-4.051718861
0.23800,-5.272496492
0.23850,-5.577690899
0.23900,-4.967302084
0.23950,-4.967302084
0.24000,-6.493274122
0.24050,-8.019246161
0.24100,-8.019246161
0.24150,-6.493274122
0.24200,-4.967302084
0.24250,-4.356913269
0.24300,-4.356913269
0.24350,-4.662107676
0.24400,-6.493274122
0.24450,-8.019246161
0.24500,-8.629634976
0.24550,-7.714051753
0.24600,-7.408857346
0.24650,-8.629634976
0.24700,-9.850412607
0.24750,-10.46080142
0.24800,-10.15560701
0.24850,-9.850412607
0.24900,-8.629634976
0.24950,-6.79846853
0.25000,-4.967302084
0.25050,-4.662107676
0.25100,-4.967302084
0.25150,-5.882885307
0.25200,-6.188079715
0.25250,-5.882885307
0.25300,-4.662107676
0.25350,-3.441330045
0.25400,-2.220552415
0.25450,-1.915358007
0.25500,-1.610163599
0.25550,-1.915358007
0.25600,-2.83094123
0.25650,-4.356913269
0.25700,-5.882885307
0.25750,-7.103662938
0.25800,-8.629634976
0.25850,-8.934829384
0.25900,-8.019246161
0.25950,-6.493274122
0.26000,-5.882885307
0.26050,-7.408857346
0.26100,-9.240023792
0.26150,-9.850412607
0.26200,-9.850412607
0.26250,-9.545218199
0.26300,-9.850412607
0.26350,-10.15560701
0.26400,-9.850412607
0.26450,-9.545218199
0.26500,-8.934829384
0.26550,-8.629634976
0.26600,-9.545218199
0.26650,-10.76599583
0.26700,-11.98677346
0.26750,-11.98677346
0.26800,-11.37638465
0.26850,-10.46080142
0.26900,-10.46080142
0.26950,-11.07119024
0.27000,-11.37638465
0.27050,-11.07119024
0.27100,-11.07119024
0.27150,-11.68157905
0.27200,-12.90235668
0.27250,-13.5127455
0.27300,-12.90235668
0.27350,-11.98677346
0.27400,-11.07119024
0.27450,-10.15560701
0.27500,-9.850412607
0.27550,-10.15560701
0.27600,-10.76599583
0.27650,-10.15560701
0.27700,-8.934829384
0.27750,-8.019246161
0.27800,-7.714051753
0.27850,-8.019246161
0.27900,-8.019246161
0.27950,-8.324440569
0.28000,-8.934829384
0.28050,-8.934829384
0.28100,-7.714051753
0.28150,-6.188079715
0.28200,-5.882885307
0.28250,-7.408857346
0.28300,-9.545218199
0.28350,-10.76599583
0.28400,-10.15560701
0.28450,-8.934829384
0.28500,-7.714051753
0.28550,-7.714051753
0.28600,-8.629634976
0.28650,-9.850412607
0.28700,-9.850412607
0.28750,-9.240023792
0.28800,-9.240023792
0.28850,-9.850412607
0.28900,-10.15560701
0.28950,-9.240023792
0.29000,-8.324440569
0.29050,-7.408857346
0.29100,-7.103662938
0.29150,-6.79846853
0.29200,-6.493274122
0.29250,-6.493274122
0.29300,-6.79846853
0.29350,-7.408857346
0.29400,-7.408857346
0.29450,-6.79846853
0.29500,-5.577690899
0.29550,-4.662107676
0.29600,-4.356913269
0.29650,-4.051718861
0.29700,-3.746524453
0.29750,-3.746524453
0.29800,-4.967302084
0.29850,-6.188079715
0.29900,-6.188079715
0.29950,-5.577690899
0.30000,-5.272496492
0.30050,-7.103662938
0.30100,-9.545218199
0.30150,-11.37638465
0.30200,-12.59716228
0.30250,-12.29196787
0.30300,-10.76599583
0.30350,-8.934829384
0.30400,-8.629634976
0.30450,-9.850412607
0.30500,-10.76599583
0.30550,-10.46080142
0.30600,-8.629634976
0.30650,-7.714051753
0.30700,-8.019246161
0.30750,-7.408857346
0.30800,-6.188079715
0.30850,-4.967302084
0.30900,-4.967302084
0.30950,-5.272496492
0.31000,-5.882885307
0.31050,-6.79846853
0.31100,-7.408857346
0.31150,-7.103662938
0.31200,-5.577690899
0.31250,-4.662107676
0.31300,-5.882885307
0.31350,-7.103662938
0.31400,-7.714051753
0.31450,-7.714051753
0.31500,-8.324440569
0.31550,-8.324440569
0.31600,-6.79846853
0.31650,-4.967302084
0.31700,-4.356913269
0.31750,-5.272496492
0.31800,-5.577690899
0.31850,-5.272496492
0.31900,-5.272496492
0.31950,-6.188079715
0.32000,-6.493274122
0.32050,-5.577690899
0.32100,-4.967302084
0.32150,-4.967302084
0.32200,-5.577690899
0.32250,-5.882885307
0.32300,-5.272496492
0.32350,-4.662107676
0.32400,-4.051718861
0.32450,-3.746524453
0.32500,-3.746524453
0.32550,-3.746524453
0.32600,-3.746524453
0.32650,-4.051718861
0.32700,-5.272496492
0.32750,-6.79846853
0.32800,-7.714051753
0.32850,-7.714051753
0.32900,-7.714051753
0.32950,-6.79846853
0.33000,-4.662107676
0.33050,-1.915358007
0.33100,-1.304969192
0.33150,-1.915358007
0.33200,-1.915358007
0.33250,-0.9997747838
0.33300,-0.6945803761
0.33350,-1.610163599
0.33400,-1.610163599
0.33450,-0.08419156075
0.33500,0.8313916624
0.33550,-0.08419156075
0.33600,-1.610163599
0.33650,-2.220552415
0.33700,-1.610163599
0.33750,-1.610163599
0.33800,-1.915358007
0.33850,-1.304969192
0.33900,-0.3893859684
0.33950,-0.6945803761
0.34000,-1.610163599
0.34050,-1.915358007
0.34100,-1.610163599
0.34150,-1.915358007
0.34200,-2.83094123
0.34250,-3.441330045
0.34300,-2.83094123
0.34350,-2.525746822
0.34400,-2.525746822
0.34450,-1.915358007
0.34500,-0.6945803761
0.34550,-0.08419156075
0.34600,-0.3893859684
0.34650,-0.9997747838
0.34700,-0.3893859684
0.34750,-0.08419156075
0.34800,-0.08419156075
0.34850,-0.3893859684
0.34900,-0.6945803761
0.34950,-1.304969192
0.35000,-1.610163599
0.35050,-1.304969192
0.35100,-0.3893859684
0.35150,0.221002847
0.35200,0.5261972547
0.35250,0.5261972547
0.35300,1.13658607
0.35350,1.441780478
0.35400,1.13658607
0.35450,1.441780478
0.35500,3.272946924
0.35550,5.10411337
0.35600,5.409307778
0.35650,3.272946924
0.35700,1.13658607
0.35750,0.5261972547
0.35800,1.13658607
0.35850,2.357363701
0.35900,2.662558109
0.35950,2.357363701
0.36000,1.441780478
0.36050,0.5261972547
0.36100,0.8313916624
0.36150,2.052169293
0.36200,2.967752516
0.36250,3.272946924
0.36300,4.188530147
0.36350,5.714502186
0.36400,6.935279816
0.36450,8.156057447
0.36500,9.07164067
0.36550,9.682029486
0.36600,9.376835078
0.36650,9.07164067
0.36700,9.07164067
0.36750,9.07164067
0.36800,8.461251855
0.36850,6.630085409
0.36900,5.409307778
0.36950,6.019696593
0.37000,6.935279816
0.37050,8.156057447
0.37100,9.07164067
0.37150,9.987223893
0.37200,9.682029486
0.37250,8.766446263
0.37300,8.156057447
0.37350,8.461251855
0.37400,9.07164067
0.37450,9.682029486
0.37500,10.2924183
0.37550,9.682029486
0.37600,7.545668632
0.37650,5.409307778
0.37700,5.10411337
0.37750,6.630085409
0.37800,7.850863039
0.37850,7.545668632
0.37900,6.935279816
0.37950,7.545668632
0.38000,8.156057447
0.38050,7.850863039
0.38100,6.630085409
0.38150,6.324891001
0.38200,6.935279816
0.38250,7.545668632
0.38300,7.240474224
0.38350,6.019696593
0.38400,4.798918962
0.38450,4.188530147
0.38500,4.493724555
0.38550,4.798918962
0.38600,5.10411337
0.38650,5.409307778
0.38700,5.714502186
0.38750,6.324891001
0.38800,6.324891001
0.38850,6.019696593
0.38900,6.324891001
0.38950,6.935279816
0.39000,7.240474224
0.39050,7.240474224
0.39100,7.240474224
0.39150,6.324891001
0.39200,5.10411337
0.39250,3.883335739
0.39300,3.578141332
0.39350,4.188530147
0.39400,4.798918962
0.39450,5.409307778
0.39500,6.019696593
0.39550,6.019696593
0.39600,5.10411337
0.39650,2.967752516
0.39700,1.746974885
0.39750,1.746974885
0.39800,2.357363701
0.39850,1.746974885
0.39900,0.8313916624
0.39950,0.221002847
0.40000,-0.08419156075
0.40050,-0.08419156075
0.40100,-0.3893859684
0.40150,-0.3893859684
0.40200,-0.08419156075
0.40250,0.5261972547
0.40300,0.221002847
0.40350,-0.6945803761
0.40400,-1.610163599
0.40450,-1.304969192
0.40500,-0.3893859684
0.40550,0.221002847
0.40600,0.8313916624
0.40650,2.052169293
0.40700,3.578141332
0.40750,5.10411337
0.40800,5.714502186
0.40850,5.714502186
0.40900,4.798918962
0.40950,3.272946924
0.41000,1.746974885
0.41050,2.052169293
0.41100,3.883335739
0.41150,4.798918962
0.41200,3.272946924
0.41250,1.441780478
0.41300,1.441780478
0.41350,2.357363701
0.41400,3.578141332
0.41450,4.188530147
0.41500,5.10411337
0.41550,5.10411337
0.41600,2.967752516
0.41650,0.5261972547
0.41700,1.13658607
0.41750,2.967752516
0.41800,3.272946924
0.41850,1.13658607
0.41900,-0.08419156075
0.41950,1.746974885
0.42000,4.188530147
0.42050,4.493724555
0.42100,3.578141332
0.42150,3.578141332
0.42200,4.493724555
0.42250,3.883335739
0.42300,2.357363701
0.42350,2.052169293
0.42400,3.272946924
0.42450,4.493724555
0.42500,4.188530147
0.42550,2.662558109
0.42600,1.441780478
0.42650,1.13658607
0.42700,0.8313916624
0.42750,-0.08419156075
0.42800,-0.3893859684
0.42850,-0.08419156075
0.42900,1.13658607
0.42950,2.662558109
0.43000,2.662558109
0.43050,1.746974885
0.43100,1.746974885
0.43150,2.662558109
0.43200,2.662558109
0.43250,0.5261972547
0.43300,-1.304969192
0.43350,-0.3893859684
0.43400,2.967752516
0.43450,5.10411337
0.43500,3.883335739
0.43550,1.746974885
0.43600,1.13658607
0.43650,2.052169293
0.43700,2.662558109
0.43750,1.441780478
0.43800,-0.08419156075
0.43850,-0.08419156075
0.43900,1.441780478
0.43950,3.272946924
0.44000,3.578141332
0.44050,2.357363701
0.44100,1.441780478
0.44150,2.052169293
0.44200,2.662558109
0.44250,2.052169293
0.44300,0.5261972547
0.44350,0.5261972547
0.44400,1.746974885
0.44450,2.052169293
0.44500,0.221002847
0.44550,-1.915358007
0.44600,-1.610163599
0.44650,0.8313916624
0.44700,2.357363701
0.44750,1.441780478
0.44800,-0.08419156075
0.44850,-0.08419156075
0.44900,0.221002847
0.44950,-0.6945803761
0.45000,-3.441330045
0.45050,-4.051718861
0.45100,-1.915358007
0.45150,1.13658607
0.45200,2.662558109
0.45250,2.357363701
0.45300,2.357363701
0.45350,2.357363701
0.45400,2.052169293
0.45450,0.8313916624
0.45500,-0.08419156075
0.45550,-0.08419156075
0.45600,-0.08419156075
0.45650,-0.9997747838
0.45700,-1.610163599
0.45750,-1.304969192
0.45800,-0.08419156075
0.45850,-0.08419156075
0.45900,-0.08419156075
0.45950,-0.08419156075
0.46000,0.8313916624
0.46050,1.441780478
0.46100,1.13658607
0.46150,0.221002847
0.46200,-0.08419156075
0.46250,-0.08419156075
0.46300,-0.9997747838
0.46350,-1.610163599
0.46400,-1.610163599
0.46450,-1.915358007
0.46500,-2.220552415
0.46550,-2.220552415
0.46600,-1.304969192
0.46650,-0.3893859684
0.46700,-0.3893859684
0.46750,-0.6945803761
0.46800,-0.9997747838
0.46850,-0.3893859684
0.46900,0.5261972547
0.46950,1.441780478
0.47000,1.746974885
0.47050,0.221002847
0.47100,-1.610163599
0.47150,-2.220552415
0.47200,-0.9997747838
0.47250,-0.08419156075
0.47300,0.5261972547
0.47350,0.5261972547
0.47400,0.5261972547
0.47450,0.5261972547
0.47500,-0.3893859684
0.47550,-1.304969192
0.47600,-1.610163599
0.47650,-1.304969192
0.47700,-1.304969192
0.47750,-1.304969192
0.47800,-1.304969192
0.47850,-0.6945803761
0.47900,-0.3893859684
0.47950,-0.6945803761
0.48000,-1.610163599
0.48050,-2.83094123
0.48100,-3.136135638
0.48150,-2.525746822
0.48200,-2.220552415
0.48250,-3.746524453
0.48300,-5.882885307
0.48350,-6.188079715
0.48400,-4.662107676
0.48450,-3.441330045
0.48500,-3.441330045
0.48550,-3.136135638
0.48600,-1.610163599
0.48650,-0.3893859684
0.48700,-0.6945803761
0.48750,-1.610163599
0.48800,-1.304969192
0.48850,-0.3893859684
0.48900,0.221002847
0.48950,1.13658607
0.49000,1.746974885
0.49050,1.746974885
0.49100,1.13658607
0.49150,0.8313916624
0.49200,1.13658607
0.49250,0.8313916624
0.49300,-0.08419156075
0.49350,-1.304969192
0.49400,-0.9997747838
0.49450,-0.08419156075
0.49500,-0.08419156075
0.49550,-0.08419156075
0.49600,0.221002847
0.49650,1.441780478
0.49700,2.052169293
0.49750,1.746974885
0.49800,2.052169293
0.49850,3.578141332
0.49900,3.883335739
0.49950,2.357363701
0.50000,-0.3893859684
0.50050,-2.220552415
0.50100,-1.610163599
0.50150,-0.6945803761
0.50200,-1.610163599
0.50250,-2.83094123
0.50300,-2.83094123
0.50350,-1.915358007
0.50400,-1.915358007
0.50450,-2.83094123
0.50500,-2.220552415
0.50550,-0.3893859684
0.50600,-0.08419156075
0.50650,-0.9997747838
0.50700,-1.915358007
0.50750,-0.3893859684
0.50800,0.8313916624
0.50850,0.5261972547
0.50900,-0.9997747838
0.50950,-1.304969192
0.51000,-0.08419156075
0.51050,-0.08419156075
0.51100,-0.6945803761
0.51150,-0.9997747838
0.51200,-0.3893859684
0.51250,-0.6945803761
0.51300,-1.915358007
0.51350,-3.136135638
0.51400,-2.525746822
0.51450,-1.304969192
0.51500,-1.304969192
0.51550,-2.220552415
0.51600,-2.525746822
0.51650,-1.304969192
0.51700,0.221002847
0.51750,1.13658607
0.51800,0.8313916624
0.51850,-0.08419156075
0.51900,-0.3893859684
0.51950,0.221002847
0.52000,1.441780478
0.52050,1.746974885
0.52100,1.441780478
0.52150,1.13658607
0.52200,1.441780478
0.52250,1.441780478
0.52300,1.441780478
0.52350,2.052169293
0.52400,2.357363701
0.52450,1.746974885
0.52500,1.13658607
0.52550,1.746974885
0.52600,2.967752516
0.52650,2.662558109
0.52700,0.8313916624
0.52750,-0.9997747838
0.52800,-1.610163599
0.52850,-0.6945803761
0.52900,-0.08419156075
0.52950,-0.08419156075
0.53000,0.8313916624
0.53050,1.746974885
0.53100,2.357363701
0.53150,2.357363701
0.53200,1.746974885
0.53250,0.5261972547
0.53300,-0.3893859684
0.53350,-0.9997747838
0.53400,-0.3893859684
0.53450,0.5261972547
0.53500,0.8313916624
0.53550,-0.08419156075
0.53600,-1.304969192
0.53650,-2.220552415
0.53700,-2.525746822
0.53750,-3.136135638
0.53800,-3.746524453
0.53850,-3.746524453
0.53900,-2.83094123
0.53950,-0.9997747838
0.54000,0.5261972547
0.54050,1.746974885
0.54100,2.357363701
0.54150,1.746974885
0.54200,1.13658607
0.54250,1.746974885
0.54300,3.578141332
0.54350,4.493724555
0.54400,4.493724555
0.54450,3.578141332
0.54500,2.967752516
0.54550,2.357363701
0.54600,1.441780478
0.54650,1.13658607
0.54700,1.746974885
0.54750,2.662558109
0.54800,3.272946924
0.54850,4.188530147
0.54900,5.409307778
0.54950,6.324891001
0.55000,5.714502186
0.55050,4.493724555
0.55100,4.493724555
0.55150,5.714502186
0.55200,5.714502186
0.55250,4.188530147
0.55300,3.272946924
0.55350,4.493724555
0.55400,6.324891001
0.55450,6.935279816
0.55500,5.714502186
0.55550,5.10411337
0.55600,5.409307778
0.55650,6.019696593
0.55700,6.935279816
0.55750,7.545668632
0.55800,7.850863039
0.55850,7.545668632
0.55900,5.714502186
0.55950,3.272946924
0.56000,0.8313916624
0.56050,0.221002847
0.56100,2.052169293
0.56150,4.493724555
0.56200,5.714502186
0.56250,5.409307778
0.56300,3.883335739
0.56350,2.662558109
0.56400,2.052169293
0.56450,1.746974885
0.56500,1.746974885
0.56550,2.357363701
0.56600,3.272946924
0.56650,3.883335739
0.56700,3.883335739
0.56750,3.272946924
0.56800,2.357363701
0.56850,0.8313916624
0.56900,-0.08419156075
0.56950,-0.08419156075
0.57000,-0.3893859684
0.57050,-0.9997747838
0.57100,-1.915358007
0.57150,-1.915358007
0.57200,-0.9997747838
0.57250,-0.08419156075
0.57300,0.8313916624
0.57350,0.8313916624
0.57400,-0.08419156075
0.57450,-2.525746822
0.57500,-4.356913269
0.57550,-4.967302084
0.57600,-4.662107676
0.57650,-4.356913269
0.57700,-3.746524453
0.57750,-2.525746822
0.57800,-0.3893859684
0.57850,0.5261972547
0.57900,0.8313916624
0.57950,0.8313916624
0.58000,1.746974885
0.58050,3.578141332
0.58100,4.798918962
0.58150,3.883335739
0.58200,1.746974885
0.58250,0.8313916624
0.58300,1.13658607
0.58350,1.746974885
0.58400,1.13658607
0.58450,-0.08419156075
0.58500,-0.6945803761
0.58550,-0.6945803761
0.58600,-0.6945803761
0.58650,-0.9997747838
0.58700,-0.9997747838
0.58750,0.221002847
0.58800,1.441780478
0.58850,1.441780478
0.58900,0.5261972547
0.58950,-0.08419156075
0.59000,-0.08419156075
0.59050,-0.6945803761
0.59100,-0.9997747838
0.59150,-0.9997747838
0.59200,-0.6945803761
0.59250,-1.610163599
0.59300,-2.83094123
0.59350,-3.136135638
0.59400,-2.220552415
0.59450,-1.610163599
0.59500,-1.610163599
0.59550,-0.9997747838
0.59600,-0.08419156075
0.59650,0.221002847
0.59700,-0.9997747838
0.59750,-2.220552415
0.59800,-2.220552415
0.59850,-1.610163599
0.59900,-1.915358007
0.59950,-3.136135638
0.60000,-3.441330045
0.60050,-2.525746822
0.60100,-1.304969192
0.60150,-0.9997747838
0.60200,-0.9997747838
0.60250,-1.610163599
0.60300,-1.610163599
0.60350,-1.610163599
0.60400,-0.6945803761
0.60450,0.5261972547
0.60500,1.746974885
0.60550,2.357363701
0.60600,2.357363701
0.60650,1.441780478
0.60700,0.8313916624
0.60750,0.221002847
0.60800,0.5261972547
0.60850,0.8313916624
0.60900,0.5261972547
0.60950,-0.08419156075
0.61000,-0.3893859684
0.61050,-0.3893859684
0.61100,-0.08419156075
0.61150,-0.08419156075
0.61200,-0.08419156075
0.61250,0.5261972547
0.61300,1.13658607
0.61350,1.746974885
0.61400,1.441780478
0.61450,0.5261972547
0.61500,-0.3893859684
0.61550,-1.304969192
0.61600,-1.915358007
0.61650,-2.83094123
0.61700,-3.441330045
0.61750,-3.746524453
0.61800,-2.83094123
0.61850,-1.304969192
0.61900,-0.6945803761
0.61950,-0.6945803761
0.62000,-1.304969192
0.62050,-1.915358007
0.62100,-2.83094123
0.62150,-3.136135638
0.62200,-2.525746822
0.62250,-1.610163599
0.62300,-1.610163599
0.62350,-1.610163599
0.62400,-1.610163599
0.62450,-1.304969192
0.62500,-1.610163599
0.62550,-2.525746822
0.62600,-2.83094123
0.62650,-1.915358007
0.62700,-0.08419156075
0.62750,1.441780478
0.62800,2.357363701
0.62850,2.662558109
0.62900,1.746974885
0.62950,0.5261972547
0.63000,-0.08419156075
0.63050,-0.6945803761
0.63100,-0.08419156075
0.63150,0.5261972547
0.63200,-0.08419156075
0.63250,-1.610163599
0.63300,-2.525746822
0.63350,-1.915358007
0.63400,-0.6945803761
0.63450,-0.3893859684
0.63500,-0.9997747838
0.63550,-0.6945803761
0.63600,-0.08419156075
0.63650,-0.3893859684
0.63700,-2.525746822
0.63750,-4.051718861
0.63800,-3.441330045
0.63850,-2.525746822
0.63900,-2.525746822
0.63950,-3.441330045
0.64000,-3.136135638
0.64050,-1.304969192
0.64100,-0.3893859684
0.64150,-0.6945803761
0.64200,-1.610163599
0.64250,-1.304969192
0.64300,-0.08419156075
0.64350,-0.08419156075
0.64400,-1.304969192
0.64450,-3.441330045
0.64500,-4.356913269
0.64550,-3.746524453
0.64600,-2.525746822
0.64650,-1.915358007
0.64700,-2.220552415
0.64750,-2.83094123
0.64800,-3.136135638
0.64850,-3.136135638
0.64900,-3.746524453
0.64950,-3.746524453
0.65000,-2.525746822
0.65050,-0.6945803761
0.65100,-0.3893859684
0.65150,-1.610163599
0.65200,-2.220552415
0.65250,-0.6945803761
0.65300,2.357363701
0.65350,3.578141332
0.65400,2.662558109
0.65450,2.052169293
0.65500,2.357363701
0.65550,1.441780478
0.65600,-1.915358007
0.65650,-5.272496492
0.65700,-5.272496492
0.65750,-3.746524453
0.65800,-3.441330045
0.65850,-4.967302084
0.65900,-5.577690899
0.65950,-4.967302084
0.66000,-4.662107676
0.66050,-5.577690899
0.66100,-5.882885307
0.66150,-4.967302084
0.66200,-4.051718861
0.66250,-4.051718861
0.66300,-4.051718861
0.66350,-3.136135638
0.66400,-2.525746822
0.66450,-2.83094123
0.66500,-3.441330045
0.66550,-3.136135638
0.66600,-2.220552415
0.66650,-1.610163599
0.66700,-1.915358007
0.66750,-2.525746822
0.66800,-2.220552415
0.66850,-1.304969192
0.66900,-0.9997747838
0.66950,-1.304969192
0.67000,-1.304969192
0.67050,-0.08419156075
0.67100,1.13658607
0.67150,0.8313916624
0.67200,-0.6945803761
0.67250,-2.525746822
0.67300,-2.83094123
0.67350,-1.610163599
0.67400,-0.6945803761
0.67450,-0.08419156075
0.67500,-0.08419156075
0.67550,-0.3893859684
0.67600,-0.9997747838
0.67650,-1.915358007
0.67700,-1.610163599
0.67750,-0.08419156075
0.67800,1.13658607
0.67850,1.441780478
0.67900,0.5261972547
0.67950,-0.3893859684
0.68000,-0.9997747838
0.68050,-0.6945803761
0.68100,-0.6945803761
0.68150,-0.3893859684
0.68200,-0.08419156075
0.68250,0.221002847
0.68300,-0.08419156075
0.68350,-1.915358007
0.68400,-3.136135638
0.68450,-2.525746822
0.68500,-1.915358007
0.68550,-1.915358007
0.68600,-2.83094123
0.68650,-3.136135638
0.68700,-2.220552415
0.68750,-1.304969192
0.68800,-0.9997747838
0.68850,-1.304969192
0.68900,-1.915358007
0.68950,-2.525746822
0.69000,-2.525746822
0.69050,-2.220552415
0.69100,-1.915358007
0.69150,-2.220552415
0.69200,-2.525746822
0.69250,-1.915358007
0.69300,-0.3893859684
0.69350,-0.3893859684
0.69400,-0.9997747838
0.69450,-0.6945803761
0.69500,-0.08419156075
0.69550,0.8313916624
0.69600,0.221002847
0.69650,-0.3893859684
0.69700,-0.3893859684
0.69750,-0.08419156075
0.69800,0.5261972547
0.69850,0.8313916624
0.69900,0.8313916624
0.69950,-0.08419156075
0.70000,-1.304969192
0.70050,-1.304969192
0.70100,0.221002847
0.70150,2.052169293
0.70200,1.746974885
0.70250,0.5261972547
0.70300,0.8313916624
0.70350,2.357363701
0.70400,2.662558109
0.70450,2.052169293
0.70500,2.052169293
0.70550,2.967752516
0.70600,3.272946924
0.70650,2.052169293
0.70700,1.13658607
0.70750,1.746974885
0.70800,2.357363701
0.70850,2.662558109
0.70900,2.967752516
0.70950,4.188530147
0.71000,5.10411337
0.71050,5.10411337
0.71100,5.10411337
0.71150,6.324891001
0.71200,7.545668632
0.71250,7.545668632
0.71300,6.630085409
0.71350,5.409307778
0.71400,4.188530147
0.71450,2.967752516
0.71500,2.662558109
0.71550,3.578141332
0.71600,4.493724555
0.71650,3.578141332
0.71700,1.746974885
0.71750,0.8313916624
0.71800,0.5261972547
0.71850,0.221002847
0.71900,-0.08419156075
0.71950,0.221002847
0.72000,1.13658607
0.72050,0.8313916624
0.72100,-0.6945803761
0.72150,-1.915358007
0.72200,-1.915358007
0.72250,-0.9997747838
0.72300,-0.08419156075
0.72350,1.441780478
0.72400,2.967752516
0.72450,3.272946924
0.72500,3.578141332
0.72550,4.188530147
0.72600,4.493724555
0.72650,2.662558109
0.72700,-0.08419156075
0.72750,-0.3893859684
0.72800,1.13658607
0.72850,2.662558109
0.72900,2.052169293
0.72950,1.13658607
0.73000,1.746974885
0.73050,2.662558109
0.73100,1.441780478
0.73150,-0.3893859684
0.73200,-0.6945803761
0.73250,-0.3893859684
0.73300,-1.610163599
0.73350,-4.051718861
0.73400,-4.967302084
0.73450,-3.746524453
0.73500,-2.83094123
0.73550,-3.441330045
0.73600,-4.051718861
0.73650,-3.136135638
0.73700,-1.915358007
0.73750,-2.220552415
0.73800,-3.136135638
0.73850,-2.525746822
0.73900,-0.6945803761
0.73950,1.13658607
0.74000,2.052169293
0.74050,1.746974885
0.74100,0.8313916624
0.74150,-0.08419156075
0.74200,-0.08419156075
0.74250,1.13658607
0.74300,2.052169293
0.74350,2.052169293
0.74400,2.052169293
0.74450,2.357363701
0.74500,2.662558109
0.74550,2.357363701
0.74600,1.13658607
0.74650,-0.08419156075
0.74700,0.221002847
0.74750,1.441780478
0.74800,2.052169293
0.74850,1.13658607
0.74900,-0.08419156075
0.74950,-0.08419156075
0.75000,0.221002847
0.75050,0.8313916624
0.75100,0.5261972547
0.75150,-0.08419156075
0.75200,-0.08419156075
0.75250,-0.08419156075
0.75300,-0.08419156075
0.75350,-0.08419156075
0.75400,0.221002847
0.75450,-0.08419156075
0.75500,-2.220552415
0.75550,-3.746524453
0.75600,-2.525746822
0.75650,-0.08419156075
0.75700,0.8313916624
0.75750,-0.08419156075
0.75800,-0.6945803761
0.75850,-0.6945803761
0.75900,-0.3893859684
0.75950,-0.9997747838
0.76000,-1.915358007
0.76050,-2.220552415
0.76100,-2.220552415
0.76150,-2.220552415
0.76200,-2.220552415
0.76250,-0.9997747838
0.76300,0.221002847
0.76350,0.5261972547
0.76400,-0.9997747838
0.76450,-2.525746822
0.76500,-1.610163599
0.76550,-0.08419156075
0.76600,-0.08419156075
0.76650,-1.915358007
0.76700,-3.441330045
0.76750,-3.441330045
0.76800,-2.83094123
0.76850,-3.136135638
0.76900,-3.746524453
0.76950,-3.441330045
0.77000,-2.525746822
0.77050,-1.304969192
0.77100,-0.08419156075
0.77150,0.8313916624
0.77200,2.052169293
0.77250,2.357363701
0.77300,2.357363701
0.77350,2.357363701
0.77400,2.357363701
0.77450,2.662558109
0.77500,2.967752516
0.77550,2.967752516
0.77600,2.662558109
0.77650,2.357363701
0.77700,1.746974885
0.77750,1.746974885
0.77800,1.746974885
0.77850,1.746974885
0.77900,2.357363701
0.77950,2.967752516
0.78000,3.272946924
0.78050,3.272946924
0.78100,2.052169293
0.78150,-0.08419156075
0.78200,-2.220552415
0.78250,-3.746524453
0.78300,-3.746524453
0.78350,-3.746524453
0.78400,-3.746524453
0.78450,-3.441330045
0.78500,-2.525746822
0.78550,-2.220552415
0.78600,-2.525746822
0.78650,-2.220552415
0.78700,-1.304969192
0.78750,-0.08419156075
0.78800,0.8313916624
0.78850,1.13658607
0.78900,1.13658607
0.78950,0.221002847
0.79000,-0.3893859684
0.79050,-0.08419156075
0.79100,0.5261972547
0.79150,0.5261972547
0.79200,-0.6945803761
0.79250,-1.915358007
0.79300,-1.304969192
0.79350,-0.3893859684
0.79400,-0.3893859684
0.79450,-0.6945803761
0.79500,-0.3893859684
0.79550,0.221002847
0.79600,-0.08419156075
0.79650,-0.08419156075
0.79700,0.221002847
0.79750,1.13658607
0.79800,1.13658607
0.79850,-0.08419156075
0.79900,-1.610163599
0.79950,-3.441330045
0.80000,-4.356913269
0.80050,-4.662107676
0.80100,-3.746524453
0.80150,-2.83094123
0.80200,-1.610163599
0.80250,-0.6945803761
0.80300,-0.3893859684
0.80350,-0.6945803761
0.80400,-0.9997747838
0.80450,-0.3893859684
0.80500,-0.08419156075
0.80550,-1.915358007
0.80600,-4.662107676
0.80650,-5.882885307
0.80700,-4.356913269
0.80750,-2.220552415
0.80800,-1.304969192
0.80850,-1.304969192
0.80900,-2.220552415
0.80950,-4.051718861
0.81000,-5.577690899
0.81050,-5.577690899
0.81100,-4.356913269
0.81150,-3.441330045
0.81200,-3.136135638
0.81250,-2.220552415
0.81300,-0.9997747838
0.81350,-0.08419156075
0.81400,0.5261972547
0.81450,1.441780478
0.81500,2.662558109
0.81550,2.662558109
0.81600,0.8313916624
0.81650,-0.3893859684
0.81700,-0.3893859684
0.81750,0.8313916624
0.81800,1.13658607
0.81850,0.5261972547
0.81900,-0.08419156075
0.81950,0.221002847
0.82000,0.8313916624
0.82050,1.441780478
0.82100,2.052169293
0.82150,2.662558109
0.82200,3.578141332
0.82250,3.883335739
0.82300,3.272946924
0.82350,2.052169293
0.82400,1.441780478
0.82450,2.052169293
0.82500,2.662558109
0.82550,3.272946924
0.82600,3.272946924
0.82650,3.578141332
0.82700,4.493724555
0.82750,5.714502186
0.82800,6.324891001
0.82850,6.935279816
0.82900,7.545668632
0.82950,8.461251855
0.83000,8.766446263
0.83050,8.156057447
0.83100,8.156057447
0.83150,8.766446263
0.83200,9.07164067
0.83250,8.461251855
0.83300,7.545668632
0.83350,7.240474224
0.83400,6.935279816
0.83450,5.409307778
0.83500,3.578141332
0.83550,3.578141332
0.83600,4.188530147
0.83650,4.188530147
0.83700,4.188530147
0.83750,5.714502186
0.83800,7.545668632
0.83850,6.630085409
0.83900,2.967752516
0.83950,-0.08419156075
0.84000,-0.08419156075
0.84050,0.5261972547
0.84100,-0.08419156075
0.84150,-1.610163599
0.84200,-1.304969192
0.84250,0.5261972547
0.84300,1.441780478
0.84350,0.5261972547
0.84400,-0.6945803761
0.84450,-1.610163599
0.84500,-2.525746822
0.84550,-4.051718861
0.84600,-6.188079715
0.84650,-7.103662938
0.84700,-7.408857346
0.84750,-8.019246161
0.84800,-9.240023792
0.84850,-11.07119024
0.84900,-13.5127455
0.84950,-15.34391195
0.85000,-17.17507839
0.85050,-18.39585602
0.85100,-19.31143925
0.85150,-19.61663365
0.85200,-19.61663365
0.85250,-18.70105043
0.85300,-17.17507839
0.85350,-15.64910635
0.85400,-15.34391195
0.85450,-15.64910635
0.85500,-14.73352313
0.85550,-12.90235668
0.85600,-12.29196787
0.85650,-12.90235668
0.85700,-13.20755109
0.85750,-11.98677346
0.85800,-10.46080142
0.85850,-10.46080142
0.85900,-10.76599583
0.85950,-9.850412607
0.86000,-8.019246161
0.86050,-7.408857346
0.86100,-7.103662938
0.86150,-5.272496492
0.86200,-2.83094123
0.86250,-2.525746822
0.86300,-4.051718861
0.86350,-5.577690899
0.86400,-4.356913269
0.86450,-2.525746822
0.86500,-1.610163599
0.86550,-2.220552415
0.86600,-2.525746822
0.86650,-2.525746822
0.86700,-2.83094123
0.86750,-2.83094123
0.86800,-1.915358007
0.86850,-0.6945803761
0.86900,-0.6945803761
0.86950,-1.304969192
0.87000,-0.6945803761
0.87050,0.221002847
0.87100,0.221002847
0.87150,-0.9997747838
0.87200,-1.304969192
0.87250,-0.08419156075
0.87300,0.5261972547
0.87350,0.221002847
0.87400,-0.08419156075
0.87450,0.5261972547
0.87500,1.441780478
0.87550,0.5261972547
0.87600,-0.6945803761
0.87650,-0.9997747838
0.87700,-0.08419156075
0.87750,1.13658607
0.87800,2.357363701
0.87850,3.883335739
0.87900,4.188530147
0.87950,3.272946924
0.88000,1.441780478
0.88050,0.5261972547
0.88100,0.8313916624
0.88150,1.13658607
0.88200,0.8313916624
0.88250,1.441780478
0.88300,2.357363701
0.88350,2.967752516
0.88400,2.662558109
0.88450,1.746974885
0.88500,0.8313916624
0.88550,0.5261972547
0.88600,0.5261972547
0.88650,0.8313916624
0.88700,1.746974885
0.88750,2.662558109
0.88800,3.272946924
0.88850,3.883335739
0.88900,3.578141332
0.88950,2.662558109
0.89000,2.357363701
0.89050,3.272946924
0.89100,3.883335739
0.89150,3.578141332
0.89200,2.357363701
0.89250,1.746974885
0.89300,2.662558109
0.89350,3.883335739
0.89400,4.798918962
0.89450,5.10411337
0.89500,5.10411337
0.89550,4.798918962
0.89600,4.188530147
0.89650,3.883335739
0.89700,4.188530147
0.89750,5.10411337
0.89800,5.10411337
0.89850,3.883335739
0.89900,1.746974885
0.89950,-0.08419156075
0.90000,0.5261972547
0.90050,2.357363701
0.90100,3.883335739
0.90150,3.272946924
0.90200,2.357363701
0.90250,2.052169293
0.90300,2.052169293
0.90350,2.357363701
0.90400,2.357363701
0.90450,2.967752516
0.90500,3.272946924
0.90550,3.272946924
0.90600,3.578141332
0.90650,5.10411337
0.90700,7.240474224
0.90750,7.240474224
0.90800,6.019696593
0.90850,5.714502186
0.90900,7.545668632
0.90950,9.376835078
0.91000,9.376835078
0.91050,8.156057447
0.91100,7.545668632
0.91150,7.545668632
0.91200,7.240474224
0.91250,6.019696593
0.91300,5.409307778
0.91350,5.10411337
0.91400,4.493724555
0.91450,3.883335739
0.91500,4.798918962
0.91550,6.019696593
0.91600,6.019696593
0.91650,4.188530147
0.91700,2.662558109
0.91750,2.662558109
0.91800,3.272946924
0.91850,3.272946924
0.91900,3.272946924
0.91950,4.493724555
0.92000,6.019696593
0.92050,6.935279816
0.92100,6.935279816
0.92150,7.240474224
0.92200,7.545668632
0.92250,7.545668632
0.92300,7.850863039
0.92350,8.766446263
0.92400,9.07164067
0.92450,8.461251855
0.92500,7.545668632
0.92550,7.850863039
0.92600,8.461251855
0.92650,8.461251855
0.92700,7.545668632
0.92750,6.324891001
0.92800,5.714502186
0.92850,6.019696593
0.92900,6.324891001
0.92950,5.714502186
0.93000,4.188530147
0.93050,2.662558109
0.93100,2.357363701
0.93150,2.357363701
0.93200,1.746974885
0.93250,0.5261972547
0.93300,0.5261972547
0.93350,1.746974885
0.93400,2.052169293
0.93450,0.5261972547
0.93500,-0.6945803761
0.93550,-1.304969192
0.93600,-1.610163599
0.93650,-2.83094123
0.93700,-3.746524453
0.93750,-4.051718861
0.93800,-5.577690899
0.93850,-8.934829384
0.93900,-12.59716228
0.93950,-14.42832872
0.94000,-14.73352313
0.94050,-14.73352313
0.94100,-15.03871754
0.94150,-14.42832872
0.94200,-13.20755109
0.94250,-12.29196787
0.94300,-11.37638465
0.94350,-9.545218199
0.94400,-7.103662938
0.94450,-5.882885307
0.94500,-6.188079715
0.94550,-7.103662938
0.94600,-7.408857346
0.94650,-7.103662938
0.94700,-7.408857346
0.94750,-8.019246161
0.94800,-8.934829384
0.94850,-8.934829384
0.94900,-7.408857346
0.94950,-5.272496492
0.95000,-3.746524453
0.95050,-4.051718861
0.95100,-4.051718861
0.95150,-2.83094123
0.95200,-1.915358007
0.95250,-2.83094123
0.95300,-4.356913269
0.95350,-5.272496492
0.95400,-5.882885307
0.95450,-6.188079715
0.95500,-7.103662938
0.95550,-7.103662938
0.95600,-7.103662938
0.95650,-7.408857346
0.95700,-8.019246161
0.95750,-8.019246161
0.95800,-7.408857346
0.95850,-6.188079715
0.95900,-4.967302084
0.95950,-4.356913269
0.96000,-5.272496492
0.96050,-6.79846853
0.96100,-7.714051753
0.96150,-6.79846853
0.96200,-6.188079715
0.96250,-6.79846853
0.96300,-7.103662938
0.96350,-6.188079715
0.96400,-5.882885307
0.96450,-8.019246161
0.96500,-11.07119024
0.96550,-11.98677346
0.96600,-11.07119024
0.96650,-10.76599583
0.96700,-11.68157905
0.96750,-11.98677346
0.96800,-10.76599583
0.96850,-10.46080142
0.96900,-11.37638465
0.96950,-11.07119024
0.97000,-8.629634976
0.97050,-6.188079715
0.97100,-5.882885307
0.97150,-6.493274122
0.97200,-5.882885307
0.97250,-3.746524453
0.97300,-2.220552415
0.97350,-1.915358007
0.97400,-1.915358007
0.97450,-1.610163599
0.97500,-0.6945803761
0.97550,0.8313916624
0.97600,2.662558109
0.97650,4.188530147
0.97700,5.10411337
0.97750,5.714502186
0.97800,6.935279816
0.97850,6.935279816
0.97900,4.798918962
0.97950,1.746974885
0.98000,-0.08419156075
0.98050,0.8313916624
0.98100,2.357363701
0.98150,2.357363701
0.98200,0.5261972547
0.98250,-1.304969192
0.98300,-1.915358007
0.98350,-0.6945803761
0.98400,0.8313916624
0.98450,1.441780478
0.98500,0.221002847
0.98550,-0.08419156075
0.98600,-0.3893859684
0.98650,-1.610163599
0.98700,-4.051718861
0.98750,-5.272496492
0.98800,-2.83094123
0.98850,-0.3893859684
0.98900,-0.9997747838
0.98950,-3.136135638
0.99000,-2.83094123
0.99050,-0.3893859684
0.99100,0.5261972547
0.99150,-0.6945803761
0.99200,-1.610163599
0.99250,-0.6945803761
0.99300,-0.08419156075
0.99350,-0.6945803761
0.99400,-0.6945803761
0.99450,0.8313916624
0.99500,2.052169293
0.99550,2.357363701
0.99600,3.272946924
0.99650,5.409307778
0.99700,6.324891001
0.99750,5.409307778
0.99800,5.714502186
0.99850,8.766446263
0.99900,12.42877916
0.99950,13.64955679
1.00000,13.64955679
1.00050,14.87033442
1.00100,15.78591764
1.00150,13.34436238
1.00200,9.987223893
1.00250,9.987223893
1.00300,12.73397356
1.00350,14.56514001
1.00400,13.95475119
1.00450,13.03916797
1.00500,13.64955679
1.00550,14.2599456
1.00600,13.03916797
1.00650,11.81839034
1.00700,11.81839034
1.00750,12.73397356
1.00800,12.73397356
1.00850,12.12358475
1.00900,11.51319593
1.00950,11.51319593
1.01000,10.90280712
1.01050,9.987223893
1.01100,8.766446263
1.01150,6.935279816
1.01200,4.798918962
1.01250,2.662558109
1.01300,1.13658607
1.01350,1.441780478
1.01400,3.272946924
1.01450,5.714502186
1.01500,6.630085409
1.01550,6.324891001
1.01600,6.324891001
1.01650,6.935279816
1.01700,7.240474224
1.01750,6.630085409
1.01800,5.714502186
1.01850,5.409307778
1.01900,5.714502186
1.01950,4.798918962
1.02000,4.188530147
1.02050,4.188530147
1.02100,4.493724555
1.02150,4.493724555
1.02200,4.188530147
1.02250,4.188530147
1.02300,3.578141332
1.02350,0.8313916624
1.02400,-1.610163599
1.02450,-2.525746822
1.02500,-3.441330045
1.02550,-6.79846853
1.02600,-11.37638465
1.02650,-14.42832872
1.02700,-15.03871754
1.02750,-15.03871754
1.02800,-15.03871754
1.02850,-13.81793991
1.02900,-11.37638465
1.02950,-9.850412607
1.03000,-10.15560701
1.03050,-10.15560701
1.03100,-8.324440569
1.03150,-5.577690899
1.03200,-4.662107676
1.03250,-5.577690899
1.03300,-6.188079715
1.03350,-5.882885307
1.03400,-4.967302084
1.03450,-4.356913269
1.03500,-3.441330045
1.03550,-2.83094123
1.03600,-3.136135638
1.03650,-4.051718861
1.03700,-4.662107676
1.03750,-4.967302084
1.03800,-4.662107676
1.03850,-4.662107676
1.03900,-5.272496492
1.03950,-6.493274122
1.04000,-6.79846853
1.04050,-5.577690899
1.04100,-3.746524453
1.04150,-3.136135638
1.04200,-4.662107676
1.04250,-6.79846853
1.04300,-7.408857346
1.04350,-7.103662938
1.04400,-6.79846853
1.04450,-7.408857346
1.04500,-8.019246161
1.04550,-8.629634976
1.04600,-8.934829384
1.04650,-8.629634976
1.04700,-6.79846853
1.04750,-4.662107676
1.04800,-2.83094123
1.04850,-0.9997747838
1.04900,1.441780478
1.04950,4.188530147
1.05000,4.798918962
1.05050,2.967752516
1.05100,-0.08419156075
1.05150,-3.136135638
1.05200,-6.188079715
1.05250,-8.019246161
1.05300,-8.324440569
1.05350,-7.714051753
1.05400,-8.019246161
1.05450,-9.850412607
1.05500,-11.98677346
1.05550,-15.03871754
1.05600,-19.31143925
1.05650,-22.97377214
1.05700,-23.88935536
1.05750,-21.14260569
1.05800,-17.17507839
1.05850,-15.03871754
1.05900,-13.5127455
1.05950,-10.46080142
1.06000,-6.493274122
1.06050,-3.136135638
1.06100,-1.610163599
1.06150,-0.6945803761
1.06200,-0.08419156075
1.06250,1.441780478
1.06300,2.357363701
1.06350,3.272946924
1.06400,4.798918962
1.06450,6.324891001
1.06500,6.630085409
1.06550,5.409307778
1.06600,4.493724555
1.06650,4.188530147
1.06700,4.798918962
1.06750,5.10411337
1.06800,4.798918962
1.06850,4.493724555
1.06900,6.019696593
1.06950,9.07164067
1.07000,10.59761271
1.07050,10.2924183
1.07100,9.682029486
1.07150,11.20800152
1.07200,14.2599456
1.07250,16.09111205
1.07300,14.56514001
1.07350,12.73397356
1.07400,12.42877916
1.07450,13.64955679
1.07500,13.95475119
1.07550,13.03916797
1.07600,12.42877916
1.07650,12.12358475
1.07700,11.81839034
1.07750,10.90280712
1.07800,10.90280712
1.07850,11.51319593
1.07900,12.12358475
1.07950,11.81839034
1.08000,11.81839034
1.08050,12.42877916
1.08100,13.34436238
1.08150,13.03916797
1.08200,11.20800152
1.08250,9.376835078
1.08300,9.682029486
1.08350,11.51319593
1.08400,12.73397356
1.08450,13.03916797
1.08500,13.34436238
1.08550,14.56514001
1.08600,14.87033442
1.08650,12.12358475
1.08700,8.461251855
1.08750,7.545668632
1.08800,9.07164067
1.08850,9.07164067
1.08900,6.630085409
1.08950,4.188530147
1.09000,3.883335739
1.09050,4.188530147
1.09100,3.883335739
1.09150,3.272946924
1.09200,4.493724555
1.09250,5.409307778
1.09300,3.578141332
1.09350,0.8313916624
1.09400,-0.08419156075
1.09450,1.441780478
1.09500,2.357363701
1.09550,2.052169293
1.09600,2.052169293
1.09650,2.967752516
1.09700,4.188530147
1.09750,4.493724555
1.09800,4.493724555
1.09850,4.493724555
1.09900,3.883335739
1.09950,2.357363701
1.10000,1.13658607
1.10050,1.746974885
1.10100,3.578141332
1.10150,5.714502186
1.10200,7.545668632
1.10250,9.376835078
1.10300,10.90280712
1.10350,11.81839034
1.10400,11.81839034
1.10450,11.81839034
1.10500,13.03916797
1.10550,14.56514001
1.10600,15.78591764
1.10650,15.17552882
1.10700,13.34436238
1.10750,11.20800152
1.10800,10.2924183
1.10850,11.20800152
1.10900,12.42877916
1.10950,12.73397356
1.11000,10.90280712
1.11050,9.682029486
1.11100,9.682029486
1.11150,10.90280712
1.11200,11.51319593
1.11250,10.90280712
1.11300,10.59761271
1.11350,12.42877916
1.11400,14.87033442
1.11450,16.09111205
1.11500,15.78591764
1.11550,15.48072323
1.11600,15.78591764
1.11650,14.87033442
1.11700,12.12358475
1.11750,8.766446263
1.11800,6.630085409
1.11850,5.10411337
1.11900,2.967752516
1.11950,-0.6945803761
1.12000,-4.662107676
1.12050,-7.103662938
1.12100,-8.629634976
1.12150,-8.934829384
1.12200,-8.019246161
1.12250,-6.493274122
1.12300,-4.662107676
1.12350,-3.441330045
1.12400,-2.83094123
1.12450,-2.525746822
1.12500,-2.83094123
1.12550,-3.746524453
1.12600,-4.051718861
1.12650,-3.136135638
1.12700,-0.9997747838
1.12750,-0.08419156075
1.12800,-0.08419156075
1.12850,-0.3893859684
1.12900,-0.6945803761
1.12950,-1.304969192
1.13000,-2.83094123
1.13050,-5.272496492
1.13100,-7.103662938
1.13150,-8.019246161
1.13200,-8.324440569
1.13250,-7.714051753
1.13300,-6.188079715
1.13350,-5.577690899
1.13400,-7.408857346
1.13450,-10.15560701
1.13500,-11.07119024
1.13550,-9.545218199
1.13600,-7.714051753
1.13650,-6.188079715
1.13700,-3.746524453
1.13750,0.221002847
1.13800,3.883335739
1.13850,5.409307778
1.13900,4.798918962
1.13950,4.188530147
1.14000,4.188530147
1.14050,3.578141332
1.14100,2.357363701
1.14150,1.746974885
1.14200,1.441780478
1.14250,0.221002847
1.14300,-0.9997747838
1.14350,-1.610163599
1.14400,-0.3893859684
1.14450,-0.08419156075
1.14500,-1.304969192
1.14550,-4.051718861
1.14600,-5.577690899
1.14650,-5.577690899
1.14700,-4.051718861
1.14750,-1.915358007
1.14800,-0.08419156075
1.14850,0.8313916624
1.14900,1.441780478
1.14950,2.357363701
1.15000,3.272946924
1.15050,4.188530147
1.15100,4.798918962
1.15150,5.409307778
1.15200,6.019696593
1.15250,6.324891001
1.15300,5.714502186
1.15350,4.188530147
1.15400,3.578141332
1.15450,3.883335739
1.15500,5.714502186
1.15550,6.630085409
1.15600,6.324891001
1.15650,4.798918962
1.15700,2.967752516
1.15750,1.746974885
1.15800,1.441780478
1.15850,0.8313916624
1.15900,-0.3893859684
1.15950,-2.525746822
1.16000,-4.356913269
1.16050,-4.967302084
1.16100,-4.356913269
1.16150,-3.441330045
1.16200,-3.746524453
1.16250,-5.882885307
1.16300,-8.934829384
1.16350,-11.98677346
1.16400,-14.73352313
1.16450,-16.86988398
1.16500,-18.09066162
1.16550,-18.39585602
1.16600,-18.39585602
1.16650,-19.00624484
1.16700,-19.92182806
1.16750,-19.92182806
1.16800,-18.70105043
1.16850,-16.56468958
1.16900,-15.64910635
1.16950,-16.25949517
1.17000,-17.4802728
1.17050,-17.4802728
1.17100,-15.95430076
1.17150,-13.81793991
1.17200,-12.29196787
1.17250,-11.98677346
1.17300,-11.68157905
1.17350,-11.37638465
1.17400,-11.07119024
1.17450,-10.46080142
1.17500,-9.850412607
1.17550,-9.240023792
1.17600,-8.019246161
1.17650,-6.188079715
1.17700,-3.746524453
1.17750,-2.83094123
1.17800,-4.051718861
1.17850,-5.577690899
1.17900,-4.967302084
1.17950,-2.83094123
1.18000,-0.9997747838
1.18050,0.221002847
1.18100,2.967752516
1.18150,6.630085409
1.18200,7.545668632
1.18250,4.493724555
1.18300,0.8313916624
1.18350,0.221002847
1.18400,2.052169293
1.18450,4.188530147
1.18500,5.714502186
1.18550,7.240474224
1.18600,7.850863039
1.18650,6.324891001
1.18700,3.883335739
1.18750,2.662558109
1.18800,3.883335739
1.18850,6.019696593
1.18900,8.156057447
1.18950,8.461251855
1.19000,6.324891001
1.19050,2.662558109
1.19100,-0.3893859684
1.19150,-1.610163599
1.19200,-0.08419156075
1.19250,2.967752516
1.19300,5.714502186
1.19350,6.324891001
1.19400,5.10411337
1.19450,3.883335739
1.19500,2.967752516
1.19550,1.441780478
1.19600,-1.304969192
1.19650,-4.967302084
1.19700,-7.714051753
1.19750,-10.15560701
1.19800,-12.90235668
1.19850,-14.73352313
1.19900,-15.64910635
1.19950,-17.17507839
1.20000,-19.61663365
1.20050,-22.05818892
1.20100,-22.05818892
1.20150,-19.92182806
1.20200,-19.31143925
1.20250,-20.22702247
1.20300,-21.14260569
1.20350,-20.83741128
1.20400,-19.92182806
1.20450,-19.00624484
1.20500,-17.17507839
1.20550,-14.73352313
1.20600,-12.29196787
1.20650,-10.46080142
1.20700,-9.545218199
1.20750,-9.240023792
1.20800,-10.15560701
1.20850,-10.46080142
1.20900,-10.15560701
1.20950,-9.545218199
1.21000,-8.629634976
1.21050,-7.103662938
1.21100,-4.356913269
1.21150,-1.610163599
1.21200,-0.9997747838
1.21250,-2.220552415
1.21300,-3.136135638
1.21350,-2.220552415
1.21400,-0.08419156075
1.21450,2.357363701
1.21500,2.967752516
1.21550,1.13658607
1.21600,-0.6945803761
1.21650,-0.3893859684
1.21700,2.662558109
1.21750,6.324891001
1.21800,7.850863039
1.21850,8.156057447
1.21900,8.766446263
1.21950,9.987223893
1.22000,10.90280712
1.22050,11.20800152
1.22100,12.12358475
1.22150,13.03916797
1.22200,12.42877916
1.22250,9.987223893
1.22300,6.935279816
1.22350,4.798918962
1.22400,4.798918962
1.22450,6.019696593
1.22500,7.545668632
1.22550,9.07164067
1.22600,10.59761271
1.22650,12.12358475
1.22700,13.64955679
1.22750,14.2599456
1.22800,14.2599456
1.22850,13.34436238
1.22900,13.03916797
1.22950,12.42877916
1.23000,11.51319593
1.23050,10.2924183
1.23100,8.766446263
1.23150,7.545668632
1.23200,6.324891001
1.23250,6.324891001
1.23300,6.630085409
1.23350,6.324891001
1.23400,5.714502186
1.23450,4.798918962
1.23500,4.188530147
1.23550,3.272946924
1.23600,3.272946924
1.23650,3.272946924
1.23700,3.272946924
1.23750,1.746974885
1.23800,-0.08419156075
1.23850,-1.610163599
1.23900,-3.746524453
1.23950,-5.882885307
1.24000,-8.629634976
1.24050,-10.76599583
1.24100,-12.90235668
1.24150,-15.34391195
1.24200,-18.39585602
1.24250,-20.22702247
1.24300,-20.83741128
1.24350,-21.4478001
1.24400,-22.97377214
1.24450,-24.49974418
1.24500,-24.49974418
1.24550,-22.66857773
1.24600,-21.14260569
1.24650,-22.36338332
1.24700,-24.49974418
1.24750,-25.11013299
1.24800,-22.66857773
1.24850,-19.92182806
1.24900,-19.31143925
1.24950,-19.61663365
1.25000,-18.39585602
1.25050,-15.34391195
1.25100,-13.5127455
1.25150,-13.5127455
1.25200,-12.90235668
1.25250,-9.545218199
1.25300,-5.272496492
1.25350,-2.220552415
1.25400,-0.08419156075
1.25450,3.272946924
1.25500,6.935279816
1.25550,8.766446263
1.25600,8.766446263
1.25650,9.07164067
1.25700,9.682029486
1.25750,9.376835078
1.25800,9.07164067
1.25850,9.682029486
1.25900,9.682029486
1.25950,6.935279816
1.26000,3.272946924
1.26050,1.746974885
1.26100,2.967752516
1.26150,3.578141332
1.26200,1.441780478
1.26250,-2.220552415
1.26300,-4.662107676
1.26350,-5.882885307
1.26400,-7.714051753
1.26450,-11.37638465
1.26500,-15.95430076
1.26550,-18.70105043
1.26600,-18.70105043
1.26650,-17.4802728
1.26700,-16.86988398
1.26750,-17.78546721
1.26800,-18.09066162
1.26850,-16.56468958
1.26900,-14.42832872
1.26950,-13.5127455
1.27000,-14.42832872
1.27050,-14.42832872
1.27100,-11.98677346
1.27150,-8.324440569
1.27200,-5.882885307
1.27250,-4.356913269
1.27300,-3.441330045
1.27350,-1.610163599
1.27400,0.221002847
1.27450,2.052169293
1.27500,3.578141332
1.27550,5.409307778
1.27600,7.545668632
1.27650,9.682029486
1.27700,10.90280712
1.27750,10.90280712
1.27800,10.59761271
1.27850,10.90280712
1.27900,12.42877916
1.27950,13.34436238
1.28000,13.03916797
1.28050,12.12358475
1.28100,12.73397356
1.28150,14.56514001
1.28200,15.78591764
1.28250,14.56514001
1.28300,12.12358475
1.28350,10.90280712
1.28400,9.987223893
1.28450,8.156057447
1.28500,5.409307778
1.28550,4.493724555
1.28600,5.714502186
1.28650,6.630085409
1.28700,4.798918962
1.28750,1.746974885
1.28800,0.8313916624
1.28850,2.967752516
1.28900,5.10411337
1.28950,5.409307778
1.29000,4.493724555
1.29050,4.188530147
1.29100,5.10411337
1.29150,6.324891001
1.29200,7.240474224
1.29250,7.240474224
1.29300,6.324891001
1.29350,5.409307778
1.29400,5.714502186
1.29450,7.240474224
1.29500,8.766446263
1.29550,9.07164067
1.29600,6.935279816
1.29650,3.883335739
1.29700,1.13658607
1.29750,1.746974885
1.29800,5.409307778
1.29850,9.682029486
1.29900,11.20800152
1.29950,10.59761271
1.30000,9.376835078
1.30050,9.987223893
1.30100,10.59761271
1.30150,10.2924183
1.30200,9.376835078
1.30250,9.376835078
1.30300,10.2924183
1.30350,11.51319593
1.30400,11.81839034
1.30450,10.90280712
1.30500,10.2924183
1.30550,10.2924183
1.30600,10.90280712
1.30650,11.81839034
1.30700,12.42877916
1.30750,12.73397356
1.30800,12.42877916
1.30850,11.51319593
1.30900,9.376835078
1.30950,6.630085409
1.31000,4.188530147
1.31050,2.357363701
1.31100,1.441780478
1.31150,1.441780478
1.31200,0.8313916624
1.31250,-0.9997747838
1.31300,-4.051718861
1.31350,-5.577690899
1.31400,-4.662107676
1.31450,-1.610163599
1.31500,0.5261972547
1.31550,1.441780478
1.31600,1.746974885
1.31650,2.662558109
1.31700,4.188530147
1.31750,5.10411337
1.31800,5.409307778
1.31850,6.019696593
1.31900,7.240474224
1.31950,7.850863039
1.32000,7.850863039
1.32050,7.850863039
1.32100,8.766446263
1.32150,10.2924183
1.32200,11.20800152
1.32250,11.20800152
1.32300,11.51319593
1.32350,12.12358475
1.32400,12.42877916
1.32450,12.12358475
1.32500,11.20800152
1.32550,9.987223893
1.32600,8.156057447
1.32650,5.714502186
1.32700,3.578141332
1.32750,1.441780478
1.32800,-0.6945803761
1.32850,-2.525746822
1.32900,-2.83094123
1.32950,-2.525746822
1.33000,-3.746524453
1.33050,-6.188079715
1.33100,-8.324440569
1.33150,-9.545218199
1.33200,-10.15560701
1.33250,-11.68157905
1.33300,-13.20755109
1.33350,-14.42832872
1.33400,-15.34391195
1.33450,-15.34391195
1.33500,-12.90235668
1.33550,-8.934829384
1.33600,-6.493274122
1.33650,-7.103662938
1.33700,-8.934829384
1.33750,-10.15560701
1.33800,-9.545218199
1.33850,-7.408857346
1.33900,-3.441330045
1.33950,0.5261972547
1.34000,4.188530147
1.34050,5.409307778
1.34100,4.798918962
1.34150,3.578141332
1.34200,3.272946924
1.34250,4.188530147
1.34300,4.798918962
1.34350,3.578141332
1.34400,-0.08419156075
1.34450,-3.746524453
1.34500,-5.577690899
1.34550,-5.882885307
1.34600,-6.493274122
1.34650,-8.934829384
1.34700,-11.37638465
1.34750,-14.73352313
1.34800,-19.61663365
1.34850,-25.4153274
1.34900,-29.68804911
1.34950,-30.90882674
1.35000,-30.29843792
1.35050,-28.77246588
1.35100,-25.72052181
1.35150,-21.4478001
1.35200,-17.17507839
1.35250,-13.81793991
1.35300,-11.68157905
1.35350,-9.850412607
1.35400,-7.714051753
1.35450,-4.662107676
1.35500,-0.08419156075
1.35550,2.052169293
1.35600,1.441780478
1.35650,-0.08419156075
1.35700,1.441780478
1.35750,4.493724555
1.35800,4.798918962
1.35850,0.8313916624
1.35900,-2.83094123
1.35950,-3.746524453
1.36000,-3.746524453
1.36050,-4.662107676
1.36100,-6.493274122
1.36150,-7.103662938
1.36200,-6.188079715
1.36250,-5.272496492
1.36300,-4.356913269
1.36350,-3.136135638
1.36400,-3.441330045
1.36450,-4.967302084
1.36500,-6.188079715
1.36550,-6.79846853
1.36600,-7.408857346
1.36650,-7.408857346
1.36700,-6.493274122
1.36750,-4.967302084
1.36800,-5.882885307
1.36850,-10.46080142
1.36900,-15.95430076
1.36950,-19.00624484
1.37000,-19.00624484
1.37050,-17.4802728
1.37100,-14.73352313
1.37150,-11.98677346
1.37200,-10.46080142
1.37250,-10.15560701
1.37300,-9.240023792
1.37350,-6.79846853
1.37400,-4.662107676
1.37450,-3.746524453
1.37500,-2.83094123
1.37550,-0.3893859684
1.37600,1.746974885
1.37650,3.578141332
1.37700,5.409307778
1.37750,8.461251855
1.37800,11.51319593
1.37850,12.42877916
1.37900,11.51319593
1.37950,10.59761271
1.38000,9.07164067
1.38050,7.850863039
1.38100,7.240474224
1.38150,7.850863039
1.38200,7.850863039
1.38250,5.714502186
1.38300,2.967752516
1.38350,2.052169293
1.38400,2.357363701
1.38450,2.662558109
1.38500,2.052169293
1.38550,2.357363701
1.38600,3.578141332
1.38650,4.798918962
1.38700,4.798918962
1.38750,3.883335739
1.38800,3.272946924
1.38850,2.967752516
1.38900,3.883335739
1.38950,6.019696593
1.39000,7.850863039
1.39050,8.461251855
1.39100,6.630085409
1.39150,4.188530147
1.39200,2.662558109
1.39250,3.272946924
1.39300,5.409307778
1.39350,7.240474224
1.39400,8.766446263
1.39450,9.987223893
1.39500,10.59761271
1.39550,9.987223893
1.39600,9.376835078
1.39650,9.682029486
1.39700,11.20800152
1.39750,12.42877916
1.39800,12.42877916
1.39850,10.59761271
1.39900,6.935279816
1.39950,3.272946924
1.40000,0.8313916624
1.40050,0.221002847
1.40100,0.8313916624
1.40150,1.746974885
1.40200,2.662558109
1.40250,3.578141332
1.40300,3.578141332
1.40350,1.441780478
1.40400,-1.304969192
1.40450,-3.136135638
1.40500,-3.746524453
1.40550,-3.441330045
1.40600,-3.441330045
1.40650,-3.746524453
1.40700,-4.356913269
1.40750,-4.967302084
1.40800,-4.967302084
1.40850,-3.746524453
1.40900,-3.441330045
1.40950,-4.967302084
1.41000,-6.79846853
1.41050,-5.882885307
1.41100,-2.220552415
1.41150,1.441780478
1.41200,4.188530147
1.41250,6.019696593
1.41300,6.630085409
1.41350,6.019696593
1.41400,6.935279816
1.41450,10.2924183
1.41500,13.64955679
1.41550,13.64955679
1.41600,10.59761271
1.41650,7.850863039
1.41700,7.240474224
1.41750,6.324891001
1.41800,4.493724555
1.41850,2.967752516
1.41900,2.662558109
1.41950,1.746974885
1.42000,-0.9997747838
1.42050,-5.882885307
1.42100,-10.76599583
1.42150,-14.12313432
1.42200,-15.95430076
1.42250,-16.56468958
1.42300,-17.17507839
1.42350,-18.39585602
1.42400,-19.31143925
1.42450,-17.78546721
1.42500,-15.34391195
1.42550,-14.12313432
1.42600,-14.73352313
1.42650,-15.34391195
1.42700,-15.64910635
1.42750,-16.86988398
1.42800,-17.78546721
1.42850,-17.17507839
1.42900,-15.95430076
1.42950,-15.03871754
1.43000,-13.81793991
1.43050,-11.07119024
1.43100,-7.408857346
1.43150,-5.577690899
1.43200,-4.967302084
1.43250,-3.746524453
1.43300,-0.9997747838
1.43350,0.8313916624
1.43400,0.8313916624
1.43450,0.221002847
1.43500,1.13658607
1.43550,2.052169293
1.43600,1.441780478
1.43650,-0.08419156075
1.43700,-0.08419156075
1.43750,0.8313916624
1.43800,0.5261972547
1.43850,-0.6945803761
1.43900,-2.525746822
1.43950,-3.746524453
1.44000,-5.882885307
1.44050,-9.545218199
1.44100,-12.59716228
1.44150,-13.5127455
1.44200,-12.90235668
1.44250,-11.98677346
1.44300,-11.68157905
1.44350,-11.37638465
1.44400,-11.07119024
1.44450,-9.850412607
1.44500,-7.714051753
1.44550,-5.577690899
1.44600,-2.83094123
1.44650,-0.6945803761
1.44700,0.8313916624
1.44750,2.052169293
1.44800,3.272946924
1.44850,5.10411337
1.44900,7.240474224
1.44950,8.766446263
1.45000,8.461251855
1.45050,8.461251855
1.45100,9.987223893
1.45150,12.73397356
1.45200,13.03916797
1.45250,11.51319593
1.45300,10.90280712
1.45350,12.42877916
1.45400,12.73397356
1.45450,9.682029486
1.45500,5.409307778
1.45550,4.798918962
1.45600,6.935279816
1.45650,7.850863039
1.45700,5.409307778
1.45750,1.441780478
1.45800,-0.6945803761
1.45850,-1.304969192
1.45900,-1.915358007
1.45950,-3.136135638
1.46000,-5.272496492
1.46050,-6.188079715
1.46100,-5.882885307
1.46150,-5.577690899
1.46200,-6.493274122
1.46250,-7.103662938
1.46300,-5.577690899
1.46350,-3.136135638
1.46400,-1.304969192
1.46450,-0.6945803761
1.46500,1.13658607
1.46550,5.409307778
1.46600,9.987223893
1.46650,12.73397356
1.46700,13.64955679
1.46750,14.56514001
1.46800,15.48072323
1.46850,15.78591764
1.46900,15.17552882
1.46950,14.2599456
1.47000,13.03916797
1.47050,12.73397356
1.47100,12.42877916
1.47150,10.90280712
1.47200,9.07164067
1.47250,8.156057447
1.47300,9.07164067
1.47350,10.59761271
1.47400,10.59761271
1.47450,9.376835078
1.47500,7.850863039
1.47550,6.324891001
1.47600,3.272946924
1.47650,-0.9997747838
1.47700,-5.272496492
1.47750,-9.240023792
1.47800,-12.59716228
1.47850,-14.73352313
1.47900,-13.5127455
1.47950,-9.545218199
1.48000,-5.577690899
1.48050,-2.83094123
1.48100,-0.08419156075
1.48150,2.357363701
1.48200,4.188530147
1.48250,5.10411337
1.48300,6.630085409
1.48350,9.376835078
1.48400,10.90280712
1.48450,10.59761271
1.48500,10.59761271
1.48550,13.34436238
1.48600,16.70150086
1.48650,19.44825053
1.48700,20.97422257
1.48750,22.1950002
1.48800,23.41577783
1.48850,24.02616665
1.48900,24.02616665
1.48950,23.72097224
1.49000,21.88980579
1.49050,18.83786172
1.49100,16.39630646
1.49150,14.87033442
1.49200,12.42877916
1.49250,7.545668632
1.49300,2.967752516
1.49350,0.5261972547
1.49400,-0.08419156075
1.49450,-0.9997747838
1.49500,-0.9997747838
1.49550,0.5261972547
1.49600,3.883335739
1.49650,6.324891001
1.49700,6.324891001
1.49750,5.714502186
1.49800,5.409307778
1.49850,6.019696593
1.49900,6.324891001
1.49950,5.714502186
1.50000,4.798918962
1.50050,3.272946924
1.50100,2.357363701
1.50150,2.357363701
1.50200,2.052169293
1.50250,0.221002847
1.50300,-1.304969192
1.50350,-0.9997747838
1.50400,1.441780478
1.50450,4.493724555
1.50500,5.409307778
1.50550,5.10411337
1.50600,6.630085409
1.50650,9.682029486
1.50700,11.81839034
1.50750,11.81839034
1.50800,10.90280712
1.50850,9.987223893
1.50900,8.461251855
1.50950,6.019696593
1.51000,4.493724555
1.51050,6.630085409
1.51100,11.20800152
1.51150,14.87033442
1.51200,14.2599456
1.51250,11.20800152
1.51300,6.935279816
1.51350,2.662558109
1.51400,-0.08419156075
1.51450,-0.6945803761
1.51500,0.5261972547
1.51550,2.052169293
1.51600,1.441780478
1.51650,0.5261972547
1.51700,0.221002847
1.51750,1.441780478
1.51800,2.967752516
1.51850,4.493724555
1.51900,6.324891001
1.51950,7.545668632
1.52000,7.240474224
1.52050,5.409307778
1.52100,4.188530147
1.52150,5.10411337
1.52200,6.019696593
1.52250,4.493724555
1.52300,0.5261972547
1.52350,-2.83094123
1.52400,-4.967302084
1.52450,-7.408857346
1.52500,-12.29196787
1.52550,-18.39585602
1.52600,-22.66857773
1.52650,-24.49974418
1.52700,-26.02571622
1.52750,-29.07766029
1.52800,-32.43479878
1.52850,-33.04518759
1.52900,-30.60363233
1.52950,-26.63610503
1.53000,-22.66857773
1.53050,-18.39585602
1.53100,-14.12313432
1.53150,-9.850412607
1.53200,-6.188079715
1.53250,-2.220552415
1.53300,1.441780478
1.53350,5.409307778
1.53400,7.850863039
1.53450,9.07164067
1.53500,10.2924183
1.53550,11.20800152
1.53600,12.12358475
1.53650,13.95475119
1.53700,16.70150086
1.53750,19.75344494
1.53800,21.58461139
1.53850,21.88980579
1.53900,21.58461139
1.53950,20.36383376
1.54000,18.53266731
1.54050,16.70150086
1.54100,16.39630646
1.54150,16.70150086
1.54200,16.70150086
1.54250,15.17552882
1.54300,11.81839034
1.54350,6.630085409
1.54400,0.5261972547
1.54450,-4.356913269
1.54500,-8.019246161
1.54550,-9.545218199
1.54600,-10.46080142
1.54650,-11.07119024
1.54700,-11.07119024
1.54750,-9.850412607
1.54800,-7.103662938
1.54850,-4.051718861
1.54900,-2.220552415
1.54950,-2.83094123
1.55000,-4.662107676
1.55050,-4.967302084
1.55100,-4.051718861
1.55150,-3.746524453
1.55200,-5.577690899
1.55250,-8.934829384
1.55300,-11.07119024
1.55350,-10.46080142
1.55400,-7.714051753
1.55450,-3.441330045
1.55500,0.221002847
1.55550,2.967752516
1.55600,4.188530147
1.55650,4.798918962
1.55700,6.324891001
1.55750,8.156057447
1.55800,8.461251855
1.55850,7.850863039
1.55900,8.156057447
1.55950,9.987223893
1.56000,11.81839034
1.56050,13.03916797
1.56100,13.95475119
1.56150,13.95475119
1.56200,12.42877916
1.56250,10.90280712
1.56300,10.59761271
1.56350,11.51319593
1.56400,11.81839034
1.56450,9.682029486
1.56500,6.019696593
1.56550,3.578141332
1.56600,3.272946924
1.56650,3.883335739
1.56700,3.883335739
1.56750,2.967752516
1.56800,2.967752516
1.56850,4.493724555
1.56900,5.714502186
1.56950,5.714502186
1.57000,4.493724555
1.57050,4.493724555
1.57100,5.409307778
1.57150,5.10411337
1.57200,1.746974885
1.57250,-1.915358007
1.57300,-4.051718861
1.57350,-4.967302084
1.57400,-7.408857346
1.57450,-10.76599583
1.57500,-13.5127455
1.57550,-13.81793991
1.57600,-13.20755109
1.57650,-11.68157905
1.57700,-8.324440569
1.57750,-4.051718861
1.57800,-1.304969192
1.57850,-0.6945803761
1.57900,-0.3893859684
1.57950,1.13658607
1.58000,2.967752516
1.58050,3.883335739
1.58100,5.10411337
1.58150,6.630085409
1.58200,8.461251855
1.58250,8.766446263
1.58300,8.461251855
1.58350,7.240474224
1.58400,5.10411337
1.58450,2.662558109
1.58500,2.357363701
1.58550,4.493724555
1.58600,6.630085409
1.58650,6.324891001
1.58700,4.798918962
1.58750,3.578141332
1.58800,2.357363701
1.58850,0.5261972547
1.58900,-0.3893859684
1.58950,0.5261972547
1.59000,3.272946924
1.59050,4.188530147
1.59100,2.357363701
1.59150,0.221002847
1.59200,-0.08419156075
1.59250,0.221002847
1.59300,-0.08419156075
1.59350,-0.3893859684
1.59400,0.221002847
1.59450,0.8313916624
1.59500,-0.9997747838
1.59550,-4.967302084
1.59600,-7.408857346
1.59650,-6.79846853
1.59700,-6.188079715
1.59750,-7.408857346
1.59800,-8.934829384
1.59850,-8.324440569
1.59900,-6.493274122
1.59950,-4.356913269
1.60000,-4.051718861
1.60050,-4.967302084
1.60100,-6.79846853
1.60150,-7.714051753
1.60200,-5.272496492
1.60250,-0.9997747838
1.60300,1.441780478
1.60350,0.8313916624
1.60400,-0.6945803761
1.60450,-0.9997747838
1.60500,-0.6945803761
1.60550,-3.746524453
1.60600,-9.545218199
1.60650,-14.42832872
1.60700,-16.25949517
1.60750,-15.95430076
1.60800,-14.73352313
1.60850,-12.59716228
1.60900,-10.15560701
1.60950,-9.240023792
1.61000,-9.850412607
1.61050,-10.15560701
1.61100,-8.629634976
1.61150,-8.324440569
1.61200,-11.68157905
1.61250,-16.86988398
1.61300,-20.53221688
1.61350,-20.22702247
1.61400,-17.17507839
1.61450,-14.73352313
1.61500,-14.12313432
1.61550,-14.12313432
1.61600,-12.29196787
1.61650,-9.545218199
1.61700,-7.103662938
1.61750,-6.493274122
1.61800,-4.967302084
1.61850,-1.610163599
1.61900,0.8313916624
1.61950,0.5261972547
1.62000,-0.9997747838
1.62050,-1.304969192
1.62100,-0.9997747838
1.62150,-3.441330045
1.62200,-8.934829384
1.62250,-12.29196787
1.62300,-10.46080142
1.62350,-7.103662938
1.62400,-5.882885307
1.62450,-5.577690899
1.62500,-3.441330045
1.62550,-1.304969192
1.62600,-1.610163599
1.62650,-3.441330045
1.62700,-2.525746822
1.62750,0.5261972547
1.62800,3.578141332
1.62850,4.188530147
1.62900,4.188530147
1.62950,5.10411337
1.63000,5.409307778
1.63050,5.10411337
1.63100,4.798918962
1.63150,5.10411337
1.63200,4.188530147
1.63250,1.441780478
1.63300,-0.08419156075
1.63350,0.221002847
1.63400,-0.08419156075
1.63450,-4.051718861
1.63500,-10.46080142
1.63550,-13.5127455
1.63600,-11.98677346
1.63650,-8.324440569
1.63700,-5.577690899
1.63750,-3.746524453
1.63800,-1.610163599
1.63850,0.5261972547
1.63900,2.052169293
1.63950,3.272946924
1.64000,4.493724555
1.64050,4.493724555
1.64100,2.662558109
1.64150,-0.08419156075
1.64200,-3.136135638
1.64250,-5.272496492
1.64300,-7.103662938
1.64350,-8.019246161
1.64400,-7.714051753
1.64450,-6.493274122
1.64500,-6.493274122
1.64550,-8.324440569
1.64600,-9.545218199
1.64650,-8.324440569
1.64700,-5.577690899
1.64750,-3.441330045
1.64800,-1.610163599
1.64850,2.052169293
1.64900,6.630085409
1.64950,8.766446263
1.65000,7.545668632
1.65050,6.324891001
1.65100,6.935279816
1.65150,5.409307778
1.65200,0.8313916624
1.65250,-2.525746822
1.65300,-1.610163599
1.65350,0.5261972547
1.65400,0.5261972547
1.65450,-0.9997747838
1.65500,-1.304969192
1.65550,-0.6945803761
1.65600,-2.83094123
1.65650,-6.188079715
1.65700,-6.188079715
1.65750,-3.746524453
1.65800,-4.051718861
1.65850,-9.240023792
1.65900,-14.12313432
1.65950,-15.64910635
1.66000,-16.56468958
1.66050,-19.61663365
1.66100,-23.58416095
1.66150,-25.72052181
1.66200,-26.63610503
1.66250,-27.85688266
1.66300,-29.07766029
1.66350,-28.77246588
1.66400,-27.85688266
1.66450,-27.24649385
1.66500,-24.49974418
1.66550,-18.39585602
1.66600,-11.07119024
1.66650,-5.577690899
1.66700,-2.220552415
1.66750,0.221002847
1.66800,2.662558109
1.66850,3.883335739
1.66900,5.10411337
1.66950,7.545668632
1.67000,10.2924183
1.67050,11.81839034
1.67100,12.12358475
1.67150,13.34436238
1.67200,15.78591764
1.67250,17.61708409
1.67300,17.31188968
1.67350,15.78591764
1.67400,15.17552882
1.67450,15.78591764
1.67500,16.09111205
1.67550,15.17552882
1.67600,12.73397356
1.67650,8.156057447
1.67700,2.052169293
1.67750,-2.83094123
1.67800,-5.882885307
1.67850,-6.493274122
1.67900,-6.79846853
1.67950,-8.934829384
1.68000,-13.5127455
1.68050,-18.09066162
1.68100,-21.14260569
1.68150,-21.4478001
1.68200,-20.22702247
1.68250,-19.61663365
1.68300,-19.61663365
1.68350,-18.39585602
1.68400,-14.42832872
1.68450,-10.15560701
1.68500,-7.408857346
1.68550,-7.103662938
1.68600,-6.493274122
1.68650,-4.356913269
1.68700,-1.610163599
1.68750,-0.08419156075
1.68800,0.221002847
1.68850,2.357363701
1.68900,5.714502186
1.68950,9.07164067
1.69000,9.376835078
1.69050,6.935279816
1.69100,4.493724555
1.69150,4.188530147
1.69200,5.10411337
1.69250,6.324891001
1.69300,7.240474224
1.69350,8.461251855
1.69400,8.156057447
1.69450,6.019696593
1.69500,1.746974885
1.69550,-2.220552415
1.69600,-6.493274122
1.69650,-11.07119024
1.69700,-16.25949517
1.69750,-20.83741128
1.69800,-23.27896655
1.69850,-23.27896655
1.69900,-22.05818892
1.69950,-19.61663365
1.70000,-15.95430076
1.70050,-12.90235668
1.70100,-12.90235668
1.70150,-15.95430076
1.70200,-19.00624484
1.70250,-18.09066162
1.70300,-13.5127455
1.70350,-8.934829384
1.70400,-6.188079715
1.70450,-4.967302084
1.70500,-3.136135638
1.70550,-0.3893859684
1.70600,1.441780478
1.70650,2.357363701
1.70700,3.578141332
1.70750,5.409307778
1.70800,6.324891001
1.70850,5.714502186
1.70900,5.10411337
1.70950,6.630085409
1.71000,9.07164067
1.71050,10.59761271
1.71100,10.2924183
1.71150,10.2924183
1.71200,12.12358475
1.71250,15.17552882
1.71300,18.2274729
1.71350,20.36383376
1.71400,21.27941698
1.71450,20.97422257
1.71500,19.75344494
1.71550,18.53266731
1.71600,17.31188968
1.71650,15.48072323
1.71700,11.51319593
1.71750,6.019696593
1.71800,0.8313916624
1.71850,-1.304969192
1.71900,-1.610163599
1.71950,-2.220552415
1.72000,-3.441330045
1.72050,-4.356913269
1.72100,-3.746524453
1.72150,-1.915358007
1.72200,0.221002847
1.72250,1.13658607
1.72300,-0.08419156075
1.72350,-2.220552415
1.72400,-3.441330045
1.72450,-2.525746822
1.72500,0.5261972547
1.72550,3.272946924
1.72600,3.883335739
1.72650,2.662558109
1.72700,1.13658607
1.72750,0.221002847
1.72800,0.8313916624
1.72850,1.746974885
1.72900,1.13658607
1.72950,-1.610163599
1.73000,-5.577690899
1.73050,-7.408857346
1.73100,-6.188079715
1.73150,-3.441330045
1.73200,-0.9997747838
1.73250,1.13658607
1.73300,3.272946924
1.73350,4.798918962
1.73400,5.409307778
1.73450,5.10411337
1.73500,3.272946924
1.73550,-0.08419156075
1.73600,-3.441330045
1.73650,-4.662107676
1.73700,-5.577690899
1.73750,-7.714051753
1.73800,-9.240023792
1.73850,-7.103662938
1.73900,-1.304969192
1.73950,1.746974885
1.74000,-1.304969192
1.74050,-8.019246161
1.74100,-13.20755109
1.74150,-16.25949517
1.74200,-19.00624484
1.74250,-21.4478001
1.74300,-21.14260569
1.74350,-16.25949517
1.74400,-10.15560701
1.74450,-5.882885307
1.74500,-3.441330045
1.74550,-1.304969192
1.74600,2.052169293
1.74650,6.019696593
1.74700,9.376835078
1.74750,11.51319593
1.74800,13.03916797
1.74850,15.17552882
1.74900,17.31188968
1.74950,19.14305612
1.75000,20.66902816
1.75050,21.58461139
1.75100,21.88980579
1.75150,20.36383376
1.75200,17.00669527
1.75250,13.64955679
1.75300,12.42877916
1.75350,13.34436238
1.75400,15.78591764
1.75450,17.31188968
1.75500,16.70150086
1.75550,14.2599456
1.75600,13.03916797
1.75650,13.95475119
1.75700,15.48072323
1.75750,15.48072323
1.75800,13.34436238
1.75850,12.12358475
1.75900,12.42877916
1.75950,11.81839034
1.76000,9.07164067
1.76050,6.324891001
1.76100,7.240474224
1.76150,10.59761271
1.76200,13.03916797
1.76250,13.64955679
1.76300,14.87033442
1.76350,17.31188968
1.76400,20.36383376
1.76450,22.80538902
1.76500,24.02616665
1.76550,23.72097224
1.76600,20.05863935
1.76650,13.64955679
1.76700,7.850863039
1.76750,5.10411337
1.76800,5.409307778
1.76850,6.935279816
1.76900,8.461251855
1.76950,9.07164067
1.77000,9.07164067
1.77050,9.07164067
1.77100,9.682029486
1.77150,9.987223893
1.77200,9.07164067
1.77250,8.156057447
1.77300,8.156057447
1.77350,9.07164067
1.77400,8.766446263
1.77450,7.240474224
1.77500,5.409307778
1.77550,4.798918962
1.77600,5.10411337
1.77650,6.935279816
1.77700,10.2924183
1.77750,12.42877916
1.77800,12.12358475
1.77850,9.682029486
1.77900,8.766446263
1.77950,10.59761271
1.78000,12.73397356
1.78050,13.34436238
1.78100,13.03916797
1.78150,13.34436238
1.78200,13.34436238
1.78250,11.81839034
1.78300,9.987223893
1.78350,9.682029486
1.78400,10.90280712
1.78450,10.90280712
1.78500,7.850863039
1.78550,2.357363701
1.78600,-1.610163599
1.78650,-3.746524453
1.78700,-4.051718861
1.78750,-3.746524453
1.78800,-3.441330045
1.78850,-4.051718861
1.78900,-6.188079715
1.78950,-9.850412607
1.79000,-12.59716228
1.79050,-12.90235668
1.79100,-11.98677346
1.79150,-11.37638465
1.79200,-12.29196787
1.79250,-14.73352313
1.79300,-17.4802728
1.79350,-19.31143925
1.79400,-17.78546721
1.79450,-13.20755109
1.79500,-8.934829384
1.79550,-8.629634976
1.79600,-10.46080142
1.79650,-10.76599583
1.79700,-9.545218199
1.79750,-10.46080142
1.79800,-14.42832872
1.79850,-18.70105043
1.79900,-20.53221688
1.79950,-20.22702247
1.80000,-19.31143925
1.80050,-18.09066162
1.80100,-15.64910635
1.80150,-13.81793991
1.80200,-13.5127455
1.80250,-12.90235668
1.80300,-9.850412607
1.80350,-5.882885307
1.80400,-3.746524453
1.80450,-4.051718861
1.80500,-4.662107676
1.80550,-4.967302084
1.80600,-6.188079715
1.80650,-8.629634976
1.80700,-10.15560701
1.80750,-9.850412607
1.80800,-8.629634976
1.80850,-7.408857346
1.80900,-6.493274122
1.80950,-6.188079715
1.81000,-8.324440569
1.81050,-12.29196787
1.81100,-14.73352313
1.81150,-11.98677346
1.81200,-5.577690899
1.81250,-1.304969192
1.81300,-1.304969192
1.81350,-1.610163599
1.81400,-0.3893859684
1.81450,1.441780478
1.81500,1.13658607
1.81550,-0.6945803761
1.81600,-4.051718861
1.81650,-7.103662938
1.81700,-9.545218199
1.81750,-11.07119024
1.81800,-9.545218199
1.81850,-5.882885307
1.81900,-2.83094123
1.81950,-0.9997747838
1.82000,-0.08419156075
1.82050,2.662558109
1.82100,6.630085409
1.82150,9.07164067
1.82200,9.376835078
1.82250,8.156057447
1.82300,7.545668632
1.82350,8.766446263
1.82400,11.51319593
1.82450,15.48072323
1.82500,18.83786172
1.82550,20.05863935
1.82600,19.14305612
1.82650,17.00669527
1.82700,13.34436238
1.82750,7.545668632
1.82800,-0.3893859684
1.82850,-7.714051753
1.82900,-9.850412607
1.82950,-6.79846853
1.83000,-4.051718861
1.83050,-4.967302084
1.83100,-7.714051753
1.83150,-8.324440569
1.83200,-6.79846853
1.83250,-4.051718861
1.83300,-0.9997747838
1.83350,3.578141332
1.83400,9.07164067
1.83450,12.42877916
1.83500,13.34436238
1.83550,13.95475119
1.83600,15.48072323
1.83650,17.61708409
1.83700,18.83786172
1.83750,18.53266731
1.83800,17.31188968
1.83850,15.78591764
1.83900,13.95475119
1.83950,12.12358475
1.84000,10.59761271
1.84050,9.376835078
1.84100,9.376835078
1.84150,9.987223893
1.84200,10.59761271
1.84250,9.987223893
1.84300,8.766446263
1.84350,8.766446263
1.84400,10.90280712
1.84450,13.64955679
1.84500,13.95475119
1.84550,11.20800152
1.84600,5.714502186
1.84650,-0.08419156075
1.84700,-4.662107676
1.84750,-7.103662938
1.84800,-8.019246161
1.84850,-8.934829384
1.84900,-10.15560701
1.84950,-10.46080142
1.85000,-9.240023792
1.85050,-6.79846853
1.85100,-5.272496492
1.85150,-5.882885307
1.85200,-6.188079715
1.85250,-4.967302084
1.85300,-1.304969192
1.85350,2.052169293
1.85400,3.578141332
1.85450,2.662558109
1.85500,1.13658607
1.85550,1.441780478
1.85600,2.967752516
1.85650,3.578141332
1.85700,1.746974885
1.85750,-0.9997747838
1.85800,-2.525746822
1.85850,-0.3893859684
1.85900,4.188530147
1.85950,9.376835078
1.86000,12.12358475
1.86050,12.12358475
1.86100,11.20800152
1.86150,11.51319593
1.86200,12.73397356
1.86250,13.34436238
1.86300,13.03916797
1.86350,12.12358475
1.86400,11.81839034
1.86450,11.20800152
1.86500,8.766446263
1.86550,4.188530147
1.86600,-1.915358007
1.86650,-9.240023792
1.86700,-15.64910635
1.86750,-19.31143925
1.86800,-18.09066162
1.86850,-13.20755109
1.86900,-8.019246161
1.86950,-4.967302084
1.87000,-4.967302084
1.87050,-6.79846853
1.87100,-8.324440569
1.87150,-8.019246161
1.87200,-6.493274122
1.87250,-6.188079715
1.87300,-8.934829384
1.87350,-12.90235668
1.87400,-15.03871754
1.87450,-14.12313432
1.87500,-11.98677346
1.87550,-10.76599583
1.87600,-10.76599583
1.87650,-10.76599583
1.87700,-11.07119024
1.87750,-11.37638465
1.87800,-11.07119024
1.87850,-10.15560701
1.87900,-8.629634976
1.87950,-6.188079715
1.88000,-3.441330045
1.88050,-1.610163599
1.88100,-3.441330045
1.88150,-9.545218199
1.88200,-15.64910635
1.88250,-17.4802728
1.88300,-16.56468958
1.88350,-17.4802728
1.88400,-20.22702247
1.88450,-21.75299451
1.88500,-19.00624484
1.88550,-14.12313432
1.88600,-8.934829384
1.88650,-3.441330045
1.88700,2.052169293
1.88750,5.714502186
1.88800,3.578141332
1.88850,-3.441330045
1.88900,-10.46080142
1.88950,-13.81793991
1.89000,-14.12313432
1.89050,-14.42832872
1.89100,-15.95430076
1.89150,-16.56468958
1.89200,-14.12313432
1.89250,-9.545218199
1.89300,-5.882885307
1.89350,-3.746524453
1.89400,-1.304969192
1.89450,3.272946924
1.89500,9.376835078
1.89550,14.2599456
1.89600,18.53266731
1.89650,22.1950002
1.89700,23.72097224
1.89750,21.88980579
1.89800,17.00669527
1.89850,10.90280712
1.89900,3.883335739
1.89950,-4.662107676
1.90000,-13.20755109
1.90050,-16.86988398
1.90100,-13.81793991
1.90150,-5.272496492
1.90200,4.798918962
1.90250,13.03916797
1.90300,16.09111205
1.90350,12.73397356
1.90400,6.630085409
1.90450,1.441780478
1.90500,-1.610163599
1.90550,-4.662107676
1.90600,-7.408857346
1.90650,-9.240023792
1.90700,-11.68157905
1.90750,-15.34391195
1.90800,-17.78546721
1.90850,-17.17507839
1.90900,-15.95430076
1.90950,-16.86988398
1.91000,-17.17507839
1.91050,-13.81793991
1.91100,-8.629634976
1.91150,-7.408857346
1.91200,-10.46080142
1.91250,-11.37638465
1.91300,-7.408857346
1.91350,-1.915358007
1.91400,0.8313916624
1.91450,3.578141332
1.91500,7.240474224
1.91550,9.07164067
1.91600,8.156057447
1.91650,8.766446263
1.91700,13.34436238
1.91750,16.70150086
1.91800,13.95475119
1.91850,8.156057447
1.91900,6.324891001
1.91950,9.07164067
1.92000,11.51319593
1.92050,11.51319593
1.92100,12.12358475
1.92150,13.95475119
1.92200,13.95475119
1.92250,10.90280712
1.92300,8.156057447
1.92350,7.240474224
1.92400,6.630085409
1.92450,3.883335739
1.92500,1.441780478
1.92550,2.357363701
1.92600,6.019696593
1.92650,9.376835078
1.92700,10.2924183
1.92750,8.461251855
1.92800,4.493724555
1.92850,1.441780478
1.92900,1.441780478
1.92950,3.883335739
1.93000,6.019696593
1.93050,5.714502186
1.93100,3.883335739
1.93150,2.357363701
1.93200,1.13658607
1.93250,-0.6945803761
1.93300,-2.220552415
1.93350,-2.525746822
1.93400,-2.525746822
1.93450,-2.220552415
1.93500,-0.08419156075
1.93550,4.188530147
1.93600,7.545668632
1.93650,7.545668632
1.93700,6.324891001
1.93750,8.156057447
1.93800,13.03916797
1.93850,17.00669527
1.93900,17.31188968
1.93950,15.48072323
1.94000,14.87033442
1.94050,16.39630646
1.94100,18.83786172
1.94150,19.44825053
1.94200,17.92227849
1.94250,14.87033442
1.94300,11.51319593
1.94350,8.461251855
1.94400,5.409307778
1.94450,1.746974885
1.94500,-0.9997747838
1.94550,-3.136135638
1.94600,-4.051718861
1.94650,-5.272496492
1.94700,-6.493274122
1.94750,-7.408857346
1.94800,-8.019246161
1.94850,-9.850412607
1.94900,-13.5127455
1.94950,-17.17507839
1.95000,-19.00624484
1.95050,-20.22702247
1.95100,-23.27896655
1.95150,-27.85688266
1.95200,-30.90882674
1.95250,-29.99324352
1.95300,-26.94129944
1.95350,-24.49974418
1.95400,-22.05818892
1.95450,-18.70105043
1.95500,-16.25949517
1.95550,-16.25949517
1.95600,-17.78546721
1.95650,-19.00624484
1.95700,-19.00624484
1.95750,-19.31143925
1.95800,-20.83741128
1.95850,-21.14260569
1.95900,-20.22702247
1.95950,-19.31143925
1.96000,-18.39585602
1.96050,-15.64910635
1.96100,-10.46080142
1.96150,-4.662107676
1.96200,-1.304969192
1.96250,-0.6945803761
1.96300,-0.08419156075
1.96350,1.746974885
1.96400,3.883335739
1.96450,4.188530147
1.96500,2.052169293
1.96550,-0.6945803761
1.96600,-3.136135638
1.96650,-4.356913269
1.96700,-6.188079715
1.96750,-9.240023792
1.96800,-12.29196787
1.96850,-14.12313432
1.96900,-14.12313432
1.96950,-12.90235668
1.97000,-10.76599583
1.97050,-7.103662938
1.97100,-1.915358007
1.97150,3.883335739
1.97200,9.987223893
1.97250,14.2599456
1.97300,16.09111205
1.97350,16.09111205
1.97400,15.48072323
1.97450,15.78591764
1.97500,16.70150086
1.97550,17.61708409
1.97600,16.70150086
1.97650,13.03916797
1.97700,8.156057447
1.97750,4.798918962
1.97800,3.578141332
1.97850,2.052169293
1.97900,-0.9997747838
1.97950,-4.051718861
1.98000,-3.441330045
1.98050,0.221002847
1.98100,5.409307778
1.98150,10.59761271
1.98200,15.17552882
1.98250,16.39630646
1.98300,12.12358475
1.98350,3.578141332
1.98400,-5.272496492
1.98450,-11.68157905
1.98500,-13.81793991
1.98550,-13.5127455
1.98600,-11.37638465
1.98650,-9.850412607
1.98700,-8.934829384
1.98750,-8.019246161
1.98800,-5.272496492
1.98850,-0.3893859684
1.98900,3.883335739
1.98950,6.324891001
1.99000,6.935279816
1.99050,6.935279816
1.99100,6.935279816
1.99150,6.019696593
1.99200,4.188530147
1.99250,1.746974885
1.99300,0.221002847
1.99350,1.13658607
1.99400,4.188530147
1.99450,8.461251855
1.99500,12.42877916
1.99550,15.78591764
1.99600,16.39630646
1.99650,11.20800152
1.99700,2.052169293
1.99750,-5.272496492
1.99800,-6.493274122
1.99850,-3.441330045
1.99900,-1.304969192
1.99950,-1.610163599
2.00000,-1.915358007
2.00050,-0.6945803761
2.00100,0.5261972547
2.00150,2.357363701
2.00200,5.10411337
2.00250,9.987223893
2.00300,14.56514001
2.00350,16.09111205
2.00400,12.73397356
2.00450,6.630085409
2.00500,2.052169293
2.00550,0.8313916624
2.00600,2.662558109
2.00650,3.883335739
2.00700,2.967752516
2.00750,0.8313916624
2.00800,-0.9997747838
2.00850,-2.220552415
2.00900,-1.610163599
2.00950,-0.08419156075
2.01000,1.441780478
2.01050,1.746974885
2.01100,1.441780478
2.01150,2.357363701
2.01200,3.883335739
2.01250,3.578141332
2.01300,2.357363701
2.01350,2.052169293
2.01400,2.052169293
2.01450,-0.08419156075
2.01500,-4.967302084
2.01550,-9.545218199
2.01600,-10.46080142
2.01650,-8.019246161
2.01700,-4.662107676
2.01750,-2.220552415
2.01800,-1.304969192
2.01850,-2.525746822
2.01900,-4.662107676
2.01950,-6.188079715
2.02000,-6.493274122
2.02050,-5.882885307
2.02100,-4.051718861
2.02150,-1.304969192
2.02200,-0.08419156075
2.02250,-0.3893859684
2.02300,-0.08419156075
2.02350,2.052169293
2.02400,4.798918962
2.02450,5.714502186
2.02500,5.10411337
2.02550,5.409307778
2.02600,5.714502186
2.02650,4.493724555
2.02700,3.883335739
2.02750,6.324891001
2.02800,10.2924183
2.02850,11.81839034
2.02900,10.2924183
2.02950,7.545668632
2.03000,4.188530147
2.03050,0.8313916624
2.03100,-0.3893859684
2.03150,0.8313916624
2.03200,1.746974885
2.03250,-0.6945803761
2.03300,-5.577690899
2.03350,-8.629634976
2.03400,-10.15560701
2.03450,-13.81793991
2.03500,-19.00624484
2.03550,-21.14260569
2.03600,-18.70105043
2.03650,-15.03871754
2.03700,-11.68157905
2.03750,-6.188079715
2.03800,-0.08419156075
2.03850,2.357363701
2.03900,1.13658607
2.03950,0.5261972547
2.04000,3.272946924
2.04050,7.850863039
2.04100,11.51319593
2.04150,14.56514001
2.04200,16.39630646
2.04250,15.17552882
2.04300,12.12358475
2.04350,9.987223893
2.04400,9.682029486
2.04450,8.156057447
2.04500,3.272946924
2.04550,-1.610163599
2.04600,-4.967302084
2.04650,-6.493274122
2.04700,-6.493274122
2.04750,-5.272496492
2.04800,-4.662107676
2.04850,-7.103662938
2.04900,-11.68157905
2.04950,-14.42832872
2.05000,-14.12313432
2.05050,-14.12313432
2.05100,-16.56468958
2.05150,-17.78546721
2.05200,-13.81793991
2.05250,-7.408857346
2.05300,-3.441330045
2.05350,-1.915358007
2.05400,1.13658607
2.05450,7.240474224
2.05500,12.12358475
2.05550,11.81839034
2.05600,6.324891001
2.05650,0.221002847
2.05700,-1.610163599
2.05750,0.5261972547
2.05800,4.798918962
2.05850,7.240474224
2.05900,6.935279816
2.05950,4.493724555
2.06000,0.5261972547
2.06050,-2.83094123
2.06100,-4.356913269
2.06150,-3.136135638
2.06200,-0.9997747838
2.06250,-0.08419156075
2.06300,1.13658607
2.06350,2.967752516
2.06400,3.578141332
2.06450,0.8313916624
2.06500,-2.83094123
2.06550,-3.441330045
2.06600,0.221002847
2.06650,4.798918962
2.06700,6.630085409
2.06750,6.324891001
2.06800,6.935279816
2.06850,9.987223893
2.06900,14.56514001
2.06950,18.83786172
2.07000,20.97422257
2.07050,20.97422257
2.07100,20.66902816
2.07150,21.58461139
2.07200,21.58461139
2.07250,18.53266731
2.07300,12.42877916
2.07350,6.019696593
2.07400,2.052169293
2.07450,0.221002847
2.07500,-0.6945803761
2.07550,-1.304969192
2.07600,-1.915358007
2.07650,-2.83094123
2.07700,-4.051718861
2.07750,-4.051718861
2.07800,-1.610163599
2.07850,0.8313916624
2.07900,1.441780478
2.07950,0.8313916624
2.08000,1.13658607
2.08050,3.272946924
2.08100,4.798918962
2.08150,1.746974885
2.08200,-5.577690899
2.08250,-14.42832872
2.08300,-21.14260569
2.08350,-25.11013299
2.08400,-26.63610503
2.08450,-26.63610503
2.08500,-25.4153274
2.08550,-25.11013299
2.08600,-25.72052181
2.08650,-26.94129944
2.08700,-26.33091062
2.08750,-24.49974418
2.08800,-20.83741128
2.08850,-15.95430076
2.08900,-9.850412607
2.08950,-4.662107676
2.09000,-1.915358007
2.09050,-1.304969192
2.09100,-0.6945803761
2.09150,0.5261972547
2.09200,2.662558109
2.09250,4.493724555
2.09300,6.324891001
2.09350,8.766446263
2.09400,11.20800152
2.09450,13.64955679
2.09500,16.70150086
2.09550,20.36383376
2.09600,23.72097224
2.09650,25.24694428
2.09700,24.33136106
2.09750,21.58461139
2.09800,18.83786172
2.09850,16.70150086
2.09900,14.56514001
2.09950,12.42877916
2.10000,11.81839034
2.10050,13.64955679
2.10100,15.48072323
2.10150,13.64955679
2.10200,7.240474224
2.10250,-0.08419156075
2.10300,-5.577690899
2.10350,-8.019246161
2.10400,-8.934829384
2.10450,-8.629634976
2.10500,-7.103662938
2.10550,-4.356913269
2.10600,-1.610163599
2.10650,1.13658607
2.10700,5.714502186
2.10750,11.20800152
2.10800,14.87033442
2.10850,14.87033442
2.10900,13.03916797
2.10950,13.34436238
2.11000,16.39630646
2.11050,17.31188968
2.11100,13.64955679
2.11150,7.545668632
2.11200,3.272946924
2.11250,1.441780478
2.11300,-0.08419156075
2.11350,-2.83094123
2.11400,-4.967302084
2.11450,-5.272496492
2.11500,-3.441330045
2.11550,-0.9997747838
2.11600,1.746974885
2.11650,3.883335739
2.11700,3.272946924
2.11750,-1.610163599
2.11800,-8.629634976
2.11850,-13.5127455
2.11900,-12.90235668
2.11950,-7.408857346
2.12000,-0.6945803761
2.12050,2.052169293
2.12100,-0.08419156075
2.12150,-4.051718861
2.12200,-6.493274122
2.12250,-5.882885307
2.12300,-5.272496492
2.12350,-5.882885307
2.12400,-6.188079715
2.12450,-2.83094123
2.12500,3.883335739
2.12550,10.2924183
2.12600,12.73397356
2.12650,11.51319593
2.12700,9.07164067
2.12750,6.019696593
2.12800,1.441780478
2.12850,-3.441330045
2.12900,-5.577690899
2.12950,-4.051718861
2.13000,-2.83094123
2.13050,-5.272496492
2.13100,-9.240023792
2.13150,-10.76599583
2.13200,-8.934829384
2.13250,-6.188079715
2.13300,-4.967302084
2.13350,-5.272496492
2.13400,-7.103662938
2.13450,-10.46080142
2.13500,-13.81793991
2.13550,-14.73352313
2.13600,-12.90235668
2.13650,-11.07119024
2.13700,-11.98677346
2.13750,-14.12313432
2.13800,-14.73352313
2.13850,-11.98677346
2.13900,-7.103662938
2.13950,-1.610163599
2.14000,2.052169293
2.14050,4.188530147
2.14100,4.493724555
2.14150,4.493724555
2.14200,4.493724555
2.14250,3.883335739
2.14300,2.967752516
2.14350,2.052169293
2.14400,1.13658607
2.14450,0.5261972547
2.14500,0.8313916624
2.14550,2.662558109
2.14600,6.630085409
2.14650,10.59761271
2.14700,13.03916797
2.14750,13.64955679
2.14800,14.87033442
2.14850,19.14305612
2.14900,25.24694428
2.14950,30.1300548
2.15000,31.04563802
2.15050,30.1300548
2.15100,30.1300548
2.15150,31.04563802
2.15200,29.21447158
2.15250,22.80538902
2.15300,12.12358475
2.15350,1.13658607
2.15400,-6.493274122
2.15450,-10.15560701
2.15500,-11.07119024
2.15550,-10.76599583
2.15600,-9.545218199
2.15650,-7.103662938
2.15700,-4.051718861
2.15750,-2.525746822
2.15800,-3.746524453
2.15850,-4.967302084
2.15900,-5.272496492
2.15950,-5.577690899
2.16000,-6.493274122
2.16050,-7.408857346
2.16100,-7.714051753
2.16150,-10.76599583
2.16200,-18.70105043
2.16250,-26.94129944
2.16300,-28.16207707
2.16350,-22.05818892
2.16400,-13.81793991
2.16450,-8.629634976
2.16500,-6.188079715
2.16550,-5.272496492
2.16600,-5.577690899
2.16650,-5.272496492
2.16700,-2.83094123
2.16750,1.13658607
2.16800,4.493724555
2.16850,6.019696593
2.16900,6.630085409
2.16950,7.545668632
2.17000,7.240474224
2.17050,6.630085409
2.17100,7.850863039
2.17150,11.81839034
2.17200,14.87033442
2.17250,13.64955679
2.17300,8.461251855
2.17350,1.746974885
2.17400,-3.441330045
2.17450,-4.967302084
2.17500,-2.525746822
2.17550,0.221002847
2.17600,0.5261972547
2.17650,-0.6945803761
2.17700,-0.6945803761
2.17750,0.8313916624
2.17800,0.5261972547
2.17850,-1.915358007
2.17900,-2.83094123
2.17950,-0.9997747838
2.18000,0.221002847
2.18050,-0.08419156075
2.18100,-0.08419156075
2.18150,0.5261972547
2.18200,-0.9997747838
2.18250,-9.545218199
2.18300,-19.61663365
2.18350,-22.97377214
2.18400,-18.39585602
2.18450,-12.59716228
2.18500,-10.76599583
2.18550,-9.240023792
2.18600,-6.188079715
2.18650,-3.441330045
2.18700,-4.356913269
2.18750,-5.882885307
2.18800,-3.746524453
2.18850,-0.08419156075
2.18900,1.441780478
2.18950,0.8313916624
2.19000,1.13658607
2.19050,2.967752516
2.19100,4.188530147
2.19150,3.883335739
2.19200,5.10411337
2.19250,7.545668632
2.19300,8.156057447
2.19350,6.324891001
2.19400,5.10411337
2.19450,7.240474224
2.19500,10.2924183
2.19550,12.42877916
2.19600,14.2599456
2.19650,18.2274729
2.19700,23.11058342
2.19750,25.85733309
2.19800,24.94174987
2.19850,22.80538902
2.19900,20.66902816
2.19950,18.83786172
2.20000,16.70150086
2.20050,13.64955679
2.20100,9.376835078
2.20150,3.578141332
2.20200,-1.915358007
2.20250,-5.272496492
2.20300,-7.103662938
2.20350,-8.934829384
2.20400,-10.76599583
2.20450,-10.15560701
2.20500,-6.493274122
2.20550,-1.915358007
2.20600,0.221002847
2.20650,0.8313916624
2.20700,0.8313916624
2.20750,-0.3893859684
2.20800,-4.967302084
2.20850,-11.37638465
2.20900,-15.34391195
2.20950,-16.25949517
2.21000,-17.78546721
2.21050,-21.14260569
2.21100,-23.27896655
2.21150,-20.53221688
2.21200,-14.12313432
2.21250,-8.324440569
2.21300,-3.441330045
2.21350,1.746974885
2.21400,7.240474224
2.21450,9.376835078
2.21500,6.630085409
2.21550,2.052169293
2.21600,-0.6945803761
2.21650,-1.915358007
2.21700,-2.220552415
2.21750,-2.525746822
2.21800,-3.136135638
2.21850,-4.662107676
2.21900,-4.662107676
2.21950,-1.915358007
2.22000,1.746974885
2.22050,4.798918962
2.22100,8.766446263
2.22150,16.09111205
2.22200,23.11058342
2.22250,23.41577783
2.22300,16.09111205
2.22350,8.461251855
2.22400,5.409307778
2.22450,2.967752516
2.22500,-4.356913269
2.22550,-14.42832872
2.22600,-21.14260569
2.22650,-23.27896655
2.22700,-22.66857773
2.22750,-20.22702247
2.22800,-14.12313432
2.22850,-6.493274122
2.22900,-1.610163599
2.22950,-0.6945803761
2.23000,0.221002847
2.23050,3.883335739
2.23100,8.156057447
2.23150,12.12358475
2.23200,16.39630646
2.23250,20.36383376
2.23300,21.88980579
2.23350,21.58461139
2.23400,23.72097224
2.23450,28.60408276
2.23500,31.65602684
2.23550,29.51966599
2.23600,25.24694428
2.23650,23.11058342
2.23700,21.88980579
2.23750,17.92227849
2.23800,11.20800152
2.23850,6.019696593
2.23900,2.967752516
2.23950,-1.304969192
2.24000,-9.850412607
2.24050,-18.39585602
2.24100,-22.05818892
2.24150,-20.83741128
2.24200,-17.78546721
2.24250,-15.34391195
2.24300,-14.73352313
2.24350,-14.73352313
2.24400,-13.81793991
2.24450,-10.46080142
2.24500,-5.882885307
2.24550,-1.915358007
2.24600,-0.3893859684
2.24650,-1.610163599
2.24700,-4.967302084
2.24750,-8.934829384
2.24800,-11.07119024
2.24850,-10.76599583
2.24900,-10.46080142
2.24950,-11.37638465
2.25000,-13.20755109
2.25050,-13.20755109
2.25100,-11.98677346
2.25150,-12.29196787
2.25200,-14.42832872
2.25250,-15.03871754
2.25300,-12.59716228
2.25350,-9.545218199
2.25400,-8.019246161
2.25450,-9.240023792
2.25500,-11.07119024
2.25550,-11.68157905
2.25600,-11.07119024
2.25650,-9.545218199
2.25700,-9.545218199
2.25750,-11.98677346
2.25800,-14.42832872
2.25850,-13.20755109
2.25900,-8.324440569
2.25950,-4.356913269
2.26000,-4.662107676
2.26050,-6.79846853
2.26100,-7.408857346
2.26150,-5.577690899
2.26200,-3.136135638
2.26250,-0.08419156075
2.26300,4.188530147
2.26350,7.240474224
2.26400,7.240474224
2.26450,5.714502186
2.26500,5.714502186
2.26550,6.019696593
2.26600,3.272946924
2.26650,-2.83094123
2.26700,-8.934829384
2.26750,-10.76599583
2.26800,-9.240023792
2.26850,-7.714051753
2.26900,-6.493274122
2.26950,-4.356913269
2.27000,-0.3893859684
2.27050,2.967752516
2.27100,3.578141332
2.27150,0.8313916624
2.27200,-2.83094123
2.27250,-4.662107676
2.27300,-4.051718861
2.27350,-3.746524453
2.27400,-4.967302084
2.27450,-6.188079715
2.27500,-5.577690899
2.27550,-3.136135638
2.27600,-0.08419156075
2.27650,2.967752516
2.27700,4.798918962
2.27750,5.10411337
2.27800,4.188530147
2.27850,4.493724555
2.27900,6.324891001
2.27950,7.850863039
2.28000,6.935279816
2.28050,6.324891001
2.28100,8.461251855
2.28150,11.81839034
2.28200,12.42877916
2.28250,9.987223893
2.28300,8.461251855
2.28350,8.156057447
2.28400,7.545668632
2.28450,4.493724555
2.28500,1.441780478
2.28550,0.8313916624
2.28600,1.441780478
2.28650,3.272946924
2.28700,6.630085409
2.28750,11.81839034
2.28800,16.70150086
2.28850,19.44825053
2.28900,19.14305612
2.28950,17.31188968
2.29000,13.34436238
2.29050,5.10411337
2.29100,-7.408857346
2.29150,-19.92182806
2.29200,-26.02571622
2.29250,-22.66857773
2.29300,-14.42832872
2.29350,-8.324440569
2.29400,-8.629634976
2.29450,-13.20755109
2.29500,-18.70105043
2.29550,-21.75299451
2.29600,-22.05818892
2.29650,-19.92182806
2.29700,-16.86988398
2.29750,-15.34391195
2.29800,-14.73352313
2.29850,-12.59716228
2.29900,-8.629634976
2.29950,-4.967302084
2.30000,-4.051718861
2.30050,-4.967302084
2.30100,-6.188079715
2.30150,-8.019246161
2.30200,-11.07119024
2.30250,-12.29196787
2.30300,-8.934829384
2.30350,-3.441330045
2.30400,0.221002847
2.30450,1.441780478
2.30500,2.052169293
2.30550,3.578141332
2.30600,5.714502186
2.30650,8.461251855
2.30700,10.59761271
2.30750,10.2924183
2.30800,7.850863039
2.30850,5.714502186
2.30900,4.493724555
2.30950,2.357363701
2.31000,-3.746524453
2.31050,-11.37638465
2.31100,-14.73352313
2.31150,-13.81793991
2.31200,-11.98677346
2.31250,-11.07119024
2.31300,-7.103662938
2.31350,1.13658607
2.31400,10.90280712
2.31450,17.31188968
2.31500,18.83786172
2.31550,15.78591764
2.31600,9.987223893
2.31650,2.662558109
2.31700,-3.441330045
2.31750,-8.324440569
2.31800,-11.37638465
2.31850,-13.20755109
2.31900,-12.59716228
2.31950,-10.46080142
2.32000,-7.714051753
2.32050,-5.882885307
2.32100,-4.051718861
2.32150,-1.610163599
2.32200,0.5261972547
2.32250,2.662558109
2.32300,5.10411337
2.32350,7.850863039
2.32400,9.987223893
2.32450,11.81839034
2.32500,14.56514001
2.32550,17.31188968
2.32600,18.53266731
2.32650,18.53266731
2.32700,19.44825053
2.32750,21.88980579
2.32800,24.33136106
2.32850,23.11058342
2.32900,19.14305612
2.32950,14.56514001
2.33000,10.2924183
2.33050,4.493724555
2.33100,-2.525746822
2.33150,-8.324440569
2.33200,-8.934829384
2.33250,-5.272496492
2.33300,-2.525746822
2.33350,-5.272496492
2.33400,-13.20755109
2.33450,-22.97377214
2.33500,-29.99324352
2.33550,-32.12960437
2.33600,-30.90882674
2.33650,-29.07766029
2.33700,-28.16207707
2.33750,-27.85688266
2.33800,-27.24649385
2.33850,-26.94129944
2.33900,-25.4153274
2.33950,-20.83741128
2.34000,-13.5127455
2.34050,-8.019246161
2.34100,-7.714051753
2.34150,-10.76599583
2.34200,-12.90235668
2.34250,-12.59716228
2.34300,-11.07119024
2.34350,-8.324440569
2.34400,-4.051718861
2.34450,-0.08419156075
2.34500,2.967752516
2.34550,5.409307778
2.34600,7.850863039
2.34650,8.461251855
2.34700,4.798918962
2.34750,-1.304969192
2.34800,-6.79846853
2.34850,-9.545218199
2.34900,-11.98677346
2.34950,-15.64910635
2.35000,-18.70105043
2.35050,-19.00624484
2.35100,-16.56468958
2.35150,-12.29196787
2.35200,-7.408857346
2.35250,-4.356913269
2.35300,-4.662107676
2.35350,-6.493274122
2.35400,-5.272496492
2.35450,-0.08419156075
2.35500,5.10411337
2.35550,9.376835078
2.35600,13.64955679
2.35650,18.83786172
2.35700,22.80538902
2.35750,24.02616665
2.35800,23.41577783
2.35850,24.02616665
2.35900,26.46772191
2.35950,28.29888836
2.36000,27.99369395
2.36050,23.41577783
2.36100,15.17552882
2.36150,4.493724555
2.36200,-5.577690899
2.36250,-12.59716228
2.36300,-15.95430076
2.36350,-15.95430076
2.36400,-13.81793991
2.36450,-10.46080142
2.36500,-7.408857346
2.36550,-4.662107676
2.36600,-2.220552415
2.36650,-0.6945803761
2.36700,-0.08419156075
2.36750,0.8313916624
2.36800,2.052169293
2.36850,3.272946924
2.36900,4.493724555
2.36950,5.409307778
2.37000,4.798918962
2.37050,2.052169293
2.37100,-0.9997747838
2.37150,-2.525746822
2.37200,-2.220552415
2.37250,-2.525746822
2.37300,-4.967302084
2.37350,-6.79846853
2.37400,-5.577690899
2.37450,-1.304969192
2.37500,3.578141332
2.37550,6.935279816
2.37600,6.935279816
2.37650,3.883335739
2.37700,0.8313916624
2.37750,0.5261972547
2.37800,2.662558109
2.37850,2.967752516
2.37900,-0.08419156075
2.37950,-5.272496492
2.38000,-8.629634976
2.38050,-10.15560701
2.38100,-11.98677346
2.38150,-15.03871754
2.38200,-18.39585602
2.38250,-20.22702247
2.38300,-18.09066162
2.38350,-12.59716228
2.38400,-4.356913269
2.38450,4.188530147
2.38500,12.12358475
2.38550,16.70150086
2.38600,17.00669527
2.38650,14.56514001
2.38700,13.64955679
2.38750,16.39630646
2.38800,20.66902816
2.38850,23.72097224
2.38900,25.24694428
2.38950,25.55213869
2.39000,24.02616665
2.39050,20.36383376
2.39100,16.39630646
2.39150,15.17552882
2.39200,17.61708409
2.39250,21.27941698
2.39300,23.41577783
2.39350,23.72097224
2.39400,21.27941698
2.39450,14.87033442
2.39500,4.188530147
2.39550,-7.408857346
2.39600,-15.95430076
2.39650,-18.39585602
2.39700,-15.95430076
2.39750,-11.68157905
2.39800,-7.408857346
2.39850,-1.610163599
2.39900,6.019696593
2.39950,13.34436238
2.40000,17.00669527
2.40050,16.09111205
2.40100,11.81839034
2.40150,6.019696593
2.40200,-0.9997747838
2.40250,-8.019246161
2.40300,-11.37638465
2.40350,-10.15560701
2.40400,-6.188079715
2.40450,-1.915358007
2.40500,1.746974885
2.40550,4.493724555
2.40600,5.10411337
2.40650,3.883335739
2.40700,1.746974885
2.40750,0.5261972547
2.40800,1.746974885
2.40850,5.714502186
2.40900,10.59761271
2.40950,13.64955679
2.41000,12.73397356
2.41050,10.2924183
2.41100,7.850863039
2.41150,4.493724555
2.41200,-0.08419156075
2.41250,-3.441330045
2.41300,-1.915358007
2.41350,2.662558109
2.41400,4.798918962
2.41450,0.5261972547
2.41500,-8.324440569
2.41550,-18.39585602
2.41600,-25.4153274
2.41650,-27.24649385
2.41700,-24.19454977
2.41750,-19.00624484
2.41800,-14.12313432
2.41850,-8.629634976
2.41900,-1.915358007
2.41950,3.578141332
2.42000,6.019696593
2.42050,5.409307778
2.42100,4.798918962
2.42150,4.493724555
2.42200,3.272946924
2.42250,1.441780478
2.42300,0.221002847
2.42350,-0.08419156075
2.42400,-1.304969192
2.42450,-3.441330045
2.42500,-3.746524453
2.42550,-2.525746822
2.42600,-1.915358007
2.42650,-3.136135638
2.42700,-2.83094123
2.42750,-0.08419156075
2.42800,3.272946924
2.42850,4.493724555
2.42900,3.578141332
2.42950,2.357363701
2.43000,0.5261972547
2.43050,-0.6945803761
2.43100,-0.9997747838
2.43150,-0.3893859684
2.43200,-0.9997747838
2.43250,-2.220552415
2.43300,-1.915358007
2.43350,0.221002847
2.43400,0.8313916624
2.43450,-4.051718861
2.43500,-12.90235668
2.43550,-19.61663365
2.43600,-21.14260569
2.43650,-18.09066162
2.43700,-13.5127455
2.43750,-7.714051753
2.43800,-0.9997747838
2.43850,5.10411337
2.43900,8.461251855
2.43950,6.019696593
2.44000,-0.3893859684
2.44050,-7.714051753
2.44100,-11.98677346
2.44150,-11.98677346
2.44200,-8.019246161
2.44250,-0.9997747838
2.44300,5.714502186
2.44350,9.987223893
2.44400,10.2924183
2.44450,10.59761271
2.44500,13.03916797
2.44550,16.39630646
2.44600,16.70150086
2.44650,13.64955679
2.44700,10.59761271
2.44750,8.766446263
2.44800,8.156057447
2.44850,7.850863039
2.44900,8.461251855
2.44950,7.545668632
2.45000,3.578141332
2.45050,-2.220552415
2.45100,-4.967302084
2.45150,-1.304969192
2.45200,4.798918962
2.45250,8.156057447
2.45300,8.766446263
2.45350,9.07164067
2.45400,11.81839034
2.45450,14.2599456
2.45500,13.03916797
2.45550,7.545668632
2.45600,1.746974885
2.45650,-0.3893859684
2.45700,0.8313916624
2.45750,2.052169293
2.45800,-0.08419156075
2.45850,-4.356913269
2.45900,-7.408857346
2.45950,-7.714051753
2.46000,-8.019246161
2.46050,-10.46080142
2.46100,-13.5127455
2.46150,-13.81793991
2.46200,-10.76599583
2.46250,-5.577690899
2.46300,-0.08419156075
2.46350,6.019696593
2.46400,11.20800152
2.46450,15.17552882
2.46500,18.53266731
2.46550,21.58461139
2.46600,23.11058342
2.46650,21.88980579
2.46700,19.14305612
2.46750,17.31188968
2.46800,18.2274729
2.46850,20.97422257
2.46900,23.11058342
2.46950,24.94174987
2.47000,27.38330513
2.47050,28.90927717
2.47100,28.90927717
2.47150,27.38330513
2.47200,26.46772191
2.47250,27.07811072
2.47300,27.68849954
2.47350,25.85733309
2.47400,21.27941698
2.47450,16.70150086
2.47500,15.17552882
2.47550,16.70150086
2.47600,20.05863935
2.47650,23.41577783
2.47700,24.33136106
2.47750,20.36383376
2.47800,12.42877916
2.47850,3.272946924
2.47900,-4.051718861
2.47950,-11.07119024
2.48000,-18.39585602
2.48050,-26.33091062
2.48100,-32.43479878
2.48150,-36.09713167
2.48200,-38.84388134
2.48250,-39.45427015
2.48300,-33.96077082
2.48350,-22.05818892
2.48400,-9.240023792
2.48450,-1.915358007
2.48500,0.221002847
2.48550,1.441780478
2.48600,2.662558109
2.48650,1.13658607
2.48700,-4.356913269
2.48750,-11.98677346
2.48800,-17.78546721
2.48850,-20.53221688
2.48900,-19.92182806
2.48950,-15.34391195
2.49000,-7.714051753
2.49050,-1.610163599
2.49100,0.221002847
2.49150,-0.08419156075
2.49200,0.221002847
2.49250,2.357363701
2.49300,4.798918962
2.49350,6.324891001
2.49400,7.545668632
2.49450,9.376835078
2.49500,10.59761271
2.49550,11.51319593
2.49600,13.03916797
2.49650,16.39630646
2.49700,20.66902816
2.49750,22.50019461
2.49800,19.75344494
2.49850,13.64955679
2.49900,7.545668632
2.49950,5.10411337
2.50000,6.019696593
2.50050,6.935279816
2.50100,5.10411337
2.50150,0.8313916624
2.50200,-4.051718861
2.50250,-9.545218199
2.50300,-16.56468958
2.50350,-23.58416095
2.50400,-27.55168825
2.50450,-27.24649385
2.50500,-25.72052181
2.50550,-26.94129944
2.50600,-29.3828547
2.50650,-27.85688266
2.50700,-20.83741128
2.50750,-12.29196787
2.50800,-6.188079715
2.50850,-3.136135638
2.50900,-0.9997747838
2.50950,0.221002847
2.51000,2.052169293
2.51050,3.883335739
2.51100,5.409307778
2.51150,6.324891001
2.51200,6.019696593
2.51250,6.324891001
2.51300,8.461251855
2.51350,11.20800152
2.51400,11.81839034
2.51450,9.376835078
2.51500,5.714502186
2.51550,2.357363701
2.51600,0.221002847
2.51650,-0.6945803761
2.51700,-2.525746822
2.51750,-5.272496492
2.51800,-8.324440569
2.51850,-11.68157905
2.51900,-15.64910635
2.51950,-18.70105043
2.52000,-17.78546721
2.52050,-13.20755109
2.52100,-8.019246161
2.52150,-5.272496492
2.52200,-4.051718861
2.52250,-2.83094123
2.52300,-2.525746822
2.52350,-4.356913269
2.52400,-6.188079715
2.52450,-4.356913269
2.52500,-0.08419156075
2.52550,1.441780478
2.52600,-0.6945803761
2.52650,-2.83094123
2.52700,-1.304969192
2.52750,0.8313916624
2.52800,-0.08419156075
2.52850,-3.136135638
2.52900,-5.272496492
2.52950,-6.188079715
2.53000,-7.714051753
2.53050,-9.850412607
2.53100,-11.07119024
2.53150,-10.15560701
2.53200,-6.79846853
2.53250,-1.610163599
2.53300,4.188530147
2.53350,8.461251855
2.53400,8.461251855
2.53450,4.798918962
2.53500,0.221002847
2.53550,-1.304969192
2.53600,0.221002847
2.53650,3.578141332
2.53700,6.630085409
2.53750,7.850863039
2.53800,10.2924183
2.53850,16.70150086
2.53900,24.94174987
2.53950,30.74044362
2.54000,32.26641566
2.54050,32.26641566
2.54100,32.26641566
2.54150,29.51966599
2.54200,23.11058342
2.54250,17.61708409
2.54300,16.39630646
2.54350,16.39630646
2.54400,11.81839034
2.54450,2.967752516
2.54500,-3.136135638
2.54550,-5.577690899
2.54600,-8.019246161
2.54650,-13.20755109
2.54700,-19.61663365
2.54750,-23.27896655
2.54800,-22.97377214
2.54850,-20.22702247
2.54900,-16.86988398
2.54950,-14.73352313
2.55000,-14.12313432
2.55050,-14.12313432
2.55100,-13.81793991
2.55150,-12.90235668
2.55200,-13.20755109
2.55250,-14.42832872
2.55300,-15.34391195
2.55350,-14.42832872
2.55400,-11.98677346
2.55450,-9.545218199
2.55500,-7.714051753
2.55550,-7.714051753
2.55600,-8.629634976
2.55650,-8.629634976
2.55700,-6.79846853
2.55750,-4.662107676
2.55800,-2.83094123
2.55850,-0.08419156075
2.55900,4.493724555
2.55950,11.51319593
2.56000,17.92227849
2.56050,22.1950002
2.56100,24.63655546
2.56150,25.85733309
2.56200,25.85733309
2.56250,24.94174987
2.56300,23.41577783
2.56350,22.1950002
2.56400,20.66902816
2.56450,17.61708409
2.56500,13.03916797
2.56550,9.682029486
2.56600,9.987223893
2.56650,12.12358475
2.56700,11.81839034
2.56750,7.545668632
2.56800,2.357363701
2.56850,-0.3893859684
2.56900,-3.441330045
2.56950,-8.019246161
2.57000,-14.12313432
2.57050,-20.83741128
2.57100,-30.29843792
2.57150,-42.20101982
2.57200,-51.05165765
2.57250,-51.66204646
2.57300,-44.33738068
2.57350,-35.48674285
2.57400,-27.55168825
2.57450,-18.70105043
2.57500,-7.714051753
2.57550,2.662558109
2.57600,10.2924183
2.57650,14.56514001
2.57700,16.09111205
2.57750,14.2599456
2.57800,9.987223893
2.57850,5.714502186
2.57900,3.578141332
2.57950,4.188530147
2.58000,5.409307778
2.58050,5.714502186
2.58100,5.409307778
2.58150,5.409307778
2.58200,5.409307778
2.58250,3.578141332
2.58300,-0.08419156075
2.58350,-3.136135638
2.58400,-5.577690899
2.58450,-10.15560701
2.58500,-17.78546721
2.58550,-25.11013299
2.58600,-25.72052181
2.58650,-19.31143925
2.58700,-11.37638465
2.58750,-6.188079715
2.58800,-2.525746822
2.58850,-0.3893859684
2.58900,-1.610163599
2.58950,-6.188079715
2.59000,-11.07119024
2.59050,-14.12313432
2.59100,-13.5127455
2.59150,-9.240023792
2.59200,-1.915358007
2.59250,5.409307778
2.59300,8.766446263
2.59350,7.240474224
2.59400,4.493724555
2.59450,2.357363701
2.59500,-1.610163599
2.59550,-9.545218199
2.59600,-16.86988398
2.59650,-19.00624484
2.59700,-17.4802728
2.59750,-15.95430076
2.59800,-15.34391195
2.59850,-12.59716228
2.59900,-6.79846853
2.59950,-1.915358007
2.60000,-0.3893859684
2.60050,-0.3893859684
2.60100,1.441780478
2.60150,6.630085409
2.60200,11.51319593
2.60250,13.03916797
2.60300,11.20800152
2.60350,7.850863039
2.60400,4.798918962
2.60450,1.13658607
2.60500,-3.136135638
2.60550,-7.714051753
2.60600,-9.545218199
2.60650,-7.408857346
2.60700,-3.136135638
2.60750,0.221002847
2.60800,-0.08419156075
2.60850,-3.441330045
2.60900,-8.324440569
2.60950,-11.68157905
2.61000,-15.34391195
2.61050,-19.92182806
2.61100,-23.88935536
2.61150,-24.80493858
2.61200,-23.58416095
2.61250,-22.36338332
2.61300,-20.53221688
2.61350,-16.56468958
2.61400,-11.07119024
2.61450,-5.882885307
2.61500,-1.915358007
2.61550,0.8313916624
2.61600,2.357363701
2.61650,2.357363701
2.61700,2.052169293
2.61750,3.272946924
2.61800,6.324891001
2.61850,10.2924183
2.61900,15.17552882
2.61950,19.44825053
2.62000,20.36383376
2.62050,16.39630646
2.62100,11.51319593
2.62150,9.376835078
2.62200,7.850863039
2.62250,1.746974885
2.62300,-5.577690899
2.62350,-6.493274122
2.62400,0.8313916624
2.62450,8.156057447
2.62500,6.935279816
2.62550,-0.08419156075
2.62600,-6.79846853
2.62650,-9.850412607
2.62700,-10.76599583
2.62750,-11.68157905
2.62800,-11.07119024
2.62850,-8.019246161
2.62900,-3.746524453
2.62950,0.221002847
2.63000,3.578141332
2.63050,6.019696593
2.63100,7.850863039
2.63150,10.2924183
2.63200,12.73397356
2.63250,12.73397356
2.63300,10.59761271
2.63350,8.156057447
2.63400,7.545668632
2.63450,8.156057447
2.63500,8.766446263
2.63550,9.07164067
2.63600,10.2924183
2.63650,12.42877916
2.63700,13.64955679
2.63750,13.03916797
2.63800,10.2924183
2.63850,6.935279816
2.63900,4.188530147
2.63950,3.272946924
2.64000,5.10411337
2.64050,8.766446263
2.64100,11.20800152
2.64150,10.59761271
2.64200,6.935279816
2.64250,3.578141332
2.64300,2.052169293
2.64350,-0.08419156075
2.64400,-4.662107676
2.64450,-10.76599583
2.64500,-14.42832872
2.64550,-14.73352313
2.64600,-13.81793991
2.64650,-12.59716228
2.64700,-10.76599583
2.64750,-8.324440569
2.64800,-7.714051753
2.64850,-7.714051753
2.64900,-5.272496492
2.64950,1.13658607
2.65000,8.461251855
2.65050,13.03916797
2.65100,14.2599456
2.65150,13.34436238
2.65200,12.12358475
2.65250,9.987223893
2.65300,7.850863039
2.65350,5.714502186
2.65400,3.578141332
2.65450,0.5261972547
2.65500,-3.136135638
2.65550,-7.408857346
2.65600,-10.76599583
2.65650,-12.29196787
2.65700,-11.98677346
2.65750,-11.07119024
2.65800,-9.850412607
2.65850,-8.019246161
2.65900,-5.882885307
2.65950,-4.356913269
2.66000,-3.441330045
2.66050,-2.220552415
2.66100,-0.08419156075
2.66150,3.578141332
2.66200,8.461251855
2.66250,13.03916797
2.66300,12.73397356
2.66350,4.188530147
2.66400,-9.240023792
2.66450,-17.4802728
2.66500,-15.64910635
2.66550,-8.934829384
2.66600,-5.577690899
2.66650,-6.79846853
2.66700,-7.408857346
2.66750,-6.493274122
2.66800,-5.577690899
2.66850,-4.356913269
2.66900,-0.3893859684
2.66950,5.714502186
2.67000,10.59761271
2.67050,13.64955679
2.67100,16.39630646
2.67150,18.2274729
2.67200,17.31188968
2.67250,14.87033442
2.67300,14.56514001
2.67350,16.70150086
2.67400,16.70150086
2.67450,14.56514001
2.67500,14.56514001
2.67550,16.70150086
2.67600,16.09111205
2.67650,11.51319593
2.67700,8.766446263
2.67750,13.03916797
2.67800,20.05863935
2.67850,21.58461139
2.67900,15.48072323
2.67950,7.240474224
2.68000,1.746974885
2.68050,-0.08419156075
2.68100,-1.610163599
2.68150,-5.272496492
2.68200,-8.629634976
2.68250,-7.408857346
2.68300,-1.610163599
2.68350,2.967752516
2.68400,1.746974885
2.68450,-2.220552415
2.68500,-5.272496492
2.68550,-8.324440569
2.68600,-16.86988398
2.68650,-28.77246588
2.68700,-35.18154845
2.68750,-32.73999318
2.68800,-27.85688266
2.68850,-27.85688266
2.68900,-32.12960437
2.68950,-34.26596522
2.69000,-32.12960437
2.69050,-27.24649385
2.69100,-21.4478001
2.69150,-15.34391195
2.69200,-10.15560701
2.69250,-5.882885307
2.69300,-2.525746822
2.69350,0.221002847
2.69400,1.746974885
2.69450,3.272946924
2.69500,6.630085409
2.69550,11.20800152
2.69600,14.2599456
2.69650,14.56514001
2.69700,12.42877916
2.69750,8.461251855
2.69800,3.578141332
2.69850,1.746974885
2.69900,5.10411337
2.69950,11.20800152
2.70000,15.48072323
2.70050,17.92227849
2.70100,20.66902816
2.70150,23.11058342
2.70200,20.36383376
2.70250,13.64955679
2.70300,9.07164067
2.70350,9.376835078
2.70400,9.987223893
2.70450,7.545668632
2.70500,4.188530147
2.70550,3.578141332
2.70600,3.578141332
2.70650,-0.08419156075
2.70700,-5.882885307
2.70750,-9.850412607
2.70800,-9.850412607
2.70850,-8.019246161
2.70900,-6.79846853
2.70950,-6.79846853
2.71000,-9.240023792
2.71050,-12.29196787
2.71100,-13.20755109
2.71150,-8.629634976
2.71200,-0.3893859684
2.71250,7.545668632
2.71300,14.2599456
2.71350,20.36383376
2.71400,25.85733309
2.71450,30.1300548
2.71500,31.96122125
2.71550,31.96122125
2.71600,29.82486039
2.71650,26.1625275
2.71700,21.27941698
2.71750,15.48072323
2.71800,7.545668632
2.71850,-1.304969192
2.71900,-8.324440569
2.71950,-10.76599583
2.72000,-9.545218199
2.72050,-6.79846853
2.72100,-4.356913269
2.72150,-1.915358007
2.72200,-0.08419156075
2.72250,-0.08419156075
2.72300,-2.220552415
2.72350,-5.272496492
2.72400,-6.79846853
2.72450,-5.272496492
2.72500,-2.83094123
2.72550,-1.610163599
2.72600,-1.304969192
2.72650,-0.9997747838
2.72700,0.221002847
2.72750,1.746974885
2.72800,2.967752516
2.72850,4.188530147
2.72900,5.10411337
2.72950,3.578141332
2.73000,-1.304969192
2.73050,-9.240023792
2.73100,-17.78546721
2.73150,-25.72052181
2.73200,-31.82440996
2.73250,-33.65557641
2.73300,-29.07766029
2.73350,-20.22702247
2.73400,-10.15560701
2.73450,-0.6945803761
2.73500,6.324891001
2.73550,11.20800152
2.73600,14.87033442
2.73650,18.2274729
2.73700,20.36383376
2.73750,19.75344494
2.73800,17.92227849
2.73850,19.75344494
2.73900,26.1625275
2.73950,31.35083243
2.74000,30.1300548
2.74050,25.85733309
2.74100,26.1625275
2.74150,31.04563802
2.74200,33.48719329
2.74250,27.68849954
2.74300,15.48072323
2.74350,1.13658607
2.74400,-11.07119024
2.74450,-20.22702247
2.74500,-24.80493858
2.74550,-25.4153274
2.74600,-22.97377214
2.74650,-19.31143925
2.74700,-16.56468958
2.74750,-17.78546721
2.74800,-20.83741128
2.74850,-20.22702247
2.74900,-14.12313432
2.74950,-7.408857346
2.75000,-4.051718861
2.75050,-0.9997747838
2.75100,3.883335739
2.75150,7.240474224
2.75200,1.13658607
2.75250,-10.46080142
2.75300,-16.25949517
2.75350,-11.68157905
2.75400,-4.356913269
2.75450,-1.915358007
2.75500,-2.220552415
2.75550,0.221002847
2.75600,6.019696593
2.75650,10.59761271
2.75700,10.90280712
2.75750,10.59761271
2.75800,12.42877916
2.75850,15.48072323
2.75900,16.70150086
2.75950,14.87033442
2.76000,11.51319593
2.76050,9.376835078
2.76100,8.156057447
2.76150,6.324891001
2.76200,3.883335739
2.76250,3.272946924
2.76300,5.409307778
2.76350,7.240474224
2.76400,5.10411337
2.76450,-0.6945803761
2.76500,-7.714051753
2.76550,-12.59716228
2.76600,-13.81793991
2.76650,-10.15560701
2.76700,-1.915358007
2.76750,7.850863039
2.76800,15.78591764
2.76850,19.44825053
2.76900,17.92227849
2.76950,11.20800152
2.77000,-0.9997747838
2.77050,-14.73352313
2.77100,-23.58416095
2.77150,-24.49974418
2.77200,-20.22702247
2.77250,-15.34391195
2.77300,-10.76599583
2.77350,-5.882885307
2.77400,-1.915358007
2.77450,-1.610163599
2.77500,-4.051718861
2.77550,-5.577690899
2.77600,-4.356913269
2.77650,-2.220552415
2.77700,-3.136135638
2.77750,-6.493274122
2.77800,-10.46080142
2.77850,-13.20755109
2.77900,-14.73352313
2.77950,-13.81793991
2.78000,-10.46080142
2.78050,-6.493274122
2.78100,-3.746524453
2.78150,-1.304969192
2.78200,2.052169293
2.78250,3.883335739
2.78300,0.8313916624
2.78350,-5.882885307
2.78400,-10.76599583
2.78450,-11.68157905
2.78500,-11.07119024
2.78550,-11.07119024
2.78600,-8.324440569
2.78650,-1.610163599
2.78700,3.883335739
2.78750,4.798918962
2.78800,2.662558109
2.78850,2.357363701
2.78900,4.188530147
2.78950,4.493724555
2.79000,1.13658607
2.79050,-3.441330045
2.79100,-7.103662938
2.79150,-6.493274122
2.79200,0.221002847
2.79250,9.682029486
2.79300,15.17552882
2.79350,12.73397356
2.79400,6.324891001
2.79450,1.746974885
2.79500,1.441780478
2.79550,1.441780478
2.79600,0.221002847
2.79650,-0.3893859684
2.79700,0.221002847
2.79750,2.662558109
2.79800,5.714502186
2.79850,9.07164067
2.79900,13.03916797
2.79950,17.00669527
2.80000,17.92227849
2.80050,14.56514001
2.80100,7.240474224
2.80150,0.221002847
2.80200,-4.967302084
2.80250,-10.76599583
2.80300,-18.09066162
2.80350,-23.58416095
2.80400,-23.27896655
2.80450,-18.39585602
2.80500,-12.90235668
2.80550,-7.408857346
2.80600,0.8313916624
2.80650,10.59761271
2.80700,16.70150086
2.80750,16.39630646
2.80800,13.03916797
2.80850,9.376835078
2.80900,6.630085409
2.80950,3.578141332
2.81000,0.8313916624
2.81050,-0.08419156075
2.81100,-0.3893859684
2.81150,-0.08419156075
2.81200,0.221002847
2.81250,-0.3893859684
2.81300,-5.577690899
2.81350,-13.5127455
2.81400,-19.31143925
2.81450,-18.70105043
2.81500,-13.5127455
2.81550,-8.629634976
2.81600,-6.493274122
2.81650,-4.662107676
2.81700,-0.3893859684
2.81750,6.630085409
2.81800,13.95475119
2.81850,18.53266731
2.81900,20.05863935
2.81950,20.36383376
2.82000,19.75344494
2.82050,14.87033442
2.82100,4.188530147
2.82150,-8.019246161
2.82200,-15.03871754
2.82250,-16.86988398
2.82300,-18.70105043
2.82350,-23.88935536
2.82400,-28.46727148
2.82450,-27.55168825
2.82500,-23.27896655
2.82550,-19.92182806
2.82600,-19.00624484
2.82650,-16.56468958
2.82700,-12.29196787
2.82750,-7.714051753
2.82800,-4.356913269
2.82850,0.221002847
2.82900,7.545668632
2.82950,15.78591764
2.83000,21.27941698
2.83050,23.72097224
2.83100,24.33136106
2.83150,25.85733309
2.83200,28.29888836
2.83250,29.51966599
2.83300,28.29888836
2.83350,26.77291632
2.83400,28.29888836
2.83450,31.96122125
2.83500,34.40277651
2.83550,34.0975821
2.83600,34.40277651
2.83650,35.01316532
2.83700,32.26641566
2.83750,23.41577783
2.83800,12.42877916
2.83850,5.10411337
2.83900,1.13658607
2.83950,-2.83094123
2.84000,-6.493274122
2.84050,-7.714051753
2.84100,-7.408857346
2.84150,-9.240023792
2.84200,-13.5127455
2.84250,-16.86988398
2.84300,-18.70105043
2.84350,-21.75299451
2.84400,-27.85688266
2.84450,-32.73999318
2.84500,-33.350382
2.84550,-31.51921555
2.84600,-30.90882674
2.84650,-29.3828547
2.84700,-24.19454977
2.84750,-15.95430076
2.84800,-11.68157905
2.84850,-14.12313432
2.84900,-18.39585602
2.84950,-15.64910635
2.85000,-4.967302084
2.85050,6.019696593
2.85100,11.20800152
2.85150,11.51319593
2.85200,10.2924183
2.85250,8.156057447
2.85300,2.662558109
2.85350,-4.051718861
2.85400,-8.934829384
2.85450,-11.98677346
2.85500,-15.95430076
2.85550,-20.53221688
2.85600,-21.75299451
2.85650,-19.00624484
2.85700,-15.34391195
2.85750,-11.68157905
2.85800,-6.79846853
2.85850,-0.9997747838
2.85900,1.746974885
2.85950,0.5261972547
2.86000,-0.9997747838
2.86050,-0.6945803761
2.86100,-0.08419156075
2.86150,-0.6945803761
2.86200,-0.9997747838
2.86250,1.441780478
2.86300,5.409307778
2.86350,7.850863039
2.86400,8.766446263
2.86450,11.20800152
2.86500,13.95475119
2.86550,14.2599456
2.86600,11.51319593
2.86650,8.766446263
2.86700,7.850863039
2.86750,6.324891001
2.86800,0.5261972547
2.86850,-8.324440569
2.86900,-15.64910635
2.86950,-17.78546721
2.87000,-17.4802728
2.87050,-16.86988398
2.87100,-14.73352313
2.87150,-8.324440569
2.87200,-0.9997747838
2.87250,1.746974885
2.87300,-1.304969192
2.87350,-5.272496492
2.87400,-5.882885307
2.87450,-5.272496492
2.87500,-5.577690899
2.87550,-7.103662938
2.87600,-7.714051753
2.87650,-7.714051753
2.87700,-8.629634976
2.87750,-9.545218199
2.87800,-10.46080142
2.87850,-11.37638465
2.87900,-11.98677346
2.87950,-11.07119024
2.88000,-9.240023792
2.88050,-9.850412607
2.88100,-13.81793991
2.88150,-15.95430076
2.88200,-11.37638465
2.88250,-1.304969192
2.88300,8.156057447
2.88350,15.17552882
2.88400,20.97422257
2.88450,25.85733309
2.88500,27.99369395
2.88550,25.85733309
2.88600,22.80538902
2.88650,22.50019461
2.88700,25.24694428
2.88750,26.46772191
2.88800,23.11058342
2.88850,17.31188968
2.88900,12.12358475
2.88950,7.240474224
2.89000,0.221002847
2.89050,-8.934829384
2.89100,-16.86988398
2.89150,-18.70105043
2.89200,-15.03871754
2.89250,-10.76599583
2.89300,-8.324440569
2.89350,-6.79846853
2.89400,-3.441330045
2.89450,-0.9997747838
2.89500,-3.441330045
2.89550,-10.15560701
2.89600,-16.56468958
2.89650,-15.95430076
2.89700,-8.324440569
2.89750,0.8313916624
2.89800,6.019696593
2.89850,6.324891001
2.89900,6.019696593
2.89950,9.07164067
2.90000,15.17552882
2.90050,20.36383376
2.90100,22.1950002
2.90150,22.50019461
2.90200,24.63655546
2.90250,28.90927717
2.90300,32.26641566
2.90350,32.57161006
2.90400,28.29888836
2.90450,20.05863935
2.90500,9.376835078
2.90550,-0.08419156075
2.90600,-5.577690899
2.90650,-7.103662938
2.90700,-7.408857346
2.90750,-8.019246161
2.90800,-9.240023792
2.90850,-8.934829384
2.90900,-6.493274122
2.90950,-2.220552415
2.91000,1.746974885
2.91050,2.967752516
2.91100,-2.525746822
2.91150,-13.81793991
2.91200,-26.33091062
2.91250,-34.57115963
