type,name,time_units,begin_time,frequency,count,units
signal_3d,"Noraxon MyoMotion-Trajectories-Lateral humeral epicondyle RT","s",0.0000,200,5108,"mm"

time,x,y,z
0.0000,212.1105913,1.170240132,1238.602142
0.0050,212.0744493,1.195809772,1238.611251
0.0100,212.03831,1.221380817,1238.620365
0.0150,212.0021733,1.246953265,1238.629486
0.0200,211.9608799,1.272038874,1238.638582
0.0250,211.9141535,1.296015306,1238.647476
0.0300,211.8617281,1.318247552,1238.656
0.0350,211.8033537,1.338118947,1238.663994
0.0400,211.7387997,1.355057337,1238.671325
0.0450,211.6678597,1.368552905,1238.677882
0.0500,211.5903559,1.378170851,1238.683582
0.0550,211.5061477,1.383559934,1238.688374
0.0600,211.415148,1.38445669,1238.692234
0.0650,211.3173433,1.380688421,1238.695161
0.0700,211.2128129,1.372176938,1238.697176
0.0750,211.101748,1.358940141,1238.698316
0.0800,210.9844726,1.341089072,1238.698629
0.0850,210.8614619,1.318821713,1238.698168
0.0900,210.7333526,1.292413397,1238.696986
0.0950,210.6009453,1.262202579,1238.695133
0.1000,210.4652007,1.228574209,1238.69265
0.1050,210.3272319,1.19194506,1238.689568
0.1100,210.1882957,1.152754066,1238.68591
0.1150,210.0497829,1.111457058,1238.681685
0.1200,209.9132023,1.068523392,1238.67689
0.1250,209.7801589,1.024432204,1238.671514
0.1300,209.6523206,0.9796665988,1238.665538
0.1350,209.5313704,0.9347064265,1238.658943
0.1400,209.4189492,0.890018675,1238.651713
0.1450,209.3165961,0.8460446766,1238.643837
0.1500,209.2256917,0.8031894647,1238.635319
0.1550,209.0758946,0.7414342922,1238.62765
0.1600,208.9393092,0.6805047573,1238.619117
0.1650,208.8169784,0.6192882525,1238.609516
0.1700,208.7090682,0.5595918371,1238.599271
0.1750,208.6146903,0.5006300348,1238.588474
0.1800,208.5349783,0.4427831576,1238.577155
0.1850,208.4683646,0.3858185616,1238.565529
0.1900,208.4137926,0.3308451659,1238.553974
0.1950,208.3719731,0.2773382115,1238.5424
0.2000,208.3401638,0.2264368374,1238.531353
0.2050,208.3171961,0.1779485701,1238.52102
0.2100,208.301531,0.1324446265,1238.511722
0.2150,208.29079,0.08956544493,1238.503733
0.2200,208.2843342,0.0493362018,1238.496954
0.2250,208.2801219,0.01179980596,1238.491717
0.2300,208.2755914,-0.02281505131,1238.488252
0.2350,208.2710059,-0.0546150326,1238.486407
0.2400,208.2652053,-0.08236877217,1238.486381
0.2450,208.2565819,-0.1075809948,1238.488049
0.2500,208.2443634,-0.1305998886,1238.491251
0.2550,208.2284626,-0.1520770684,1238.495727
0.2600,208.2079943,-0.1719562084,1238.50148
0.2650,208.1821142,-0.1914090857,1238.508428
0.2700,208.1521275,-0.210449033,1238.516031
0.2750,208.1166781,-0.2303204858,1238.52426
0.2800,208.0773645,-0.2500717535,1238.5329
0.2850,208.0346515,-0.2722994757,1238.541385
0.2900,207.9894836,-0.2956205892,1238.549723
0.2950,207.9410082,-0.32161692,1238.557658
0.3000,207.8903802,-0.351294625,1238.564823
0.3050,207.8376882,-0.3846312052,1238.571176
0.3100,207.7829985,-0.4215128049,1238.576641
0.3150,207.7286486,-0.4628339929,1238.580676
0.3200,207.6736139,-0.5093723357,1238.583406
0.3250,207.6190463,-0.5613302044,1238.584571
0.3300,207.5642707,-0.6182335998,1238.584298
0.3350,207.510663,-0.6797916533,1238.582575
0.3400,207.4574631,-0.7453323242,1238.579535
0.3450,207.4047241,-0.8147186385,1238.57522
0.3500,207.3527327,-0.8876213295,1238.569657
0.3550,207.3016422,-0.9638653966,1238.562897
0.3600,207.2501899,-1.043494917,1238.55507
0.3650,207.199249,-1.125117011,1238.54643
0.3700,207.1504781,-1.208103235,1238.536747
0.3750,207.1026544,-1.292544916,1238.526398
0.3800,207.0554621,-1.376959861,1238.515606
0.3850,207.0099596,-1.461783088,1238.504223
0.3900,206.9652263,-1.547095147,1238.492432
0.3950,206.9226132,-1.632318957,1238.480197
0.4000,206.8815623,-1.717537689,1238.467685
0.4050,206.842376,-1.80132928,1238.455043
0.4100,206.8048448,-1.884276605,1238.442368
0.4150,206.769252,-1.965549583,1238.429826
0.4200,206.7359577,-2.045833934,1238.417288
0.4250,206.7043874,-2.123944957,1238.40503
0.4300,206.6753125,-2.200577137,1238.392918
0.4350,206.6481315,-2.275587909,1238.381201
0.4400,206.6236208,-2.348200285,1238.369781
0.4450,206.6003605,-2.417947413,1238.359038
0.4500,206.5803259,-2.484658123,1238.348698
0.4550,206.56197,-2.54831291,1238.338993
0.4600,206.5453094,-2.609396141,1238.32985
0.4650,206.5303776,-2.66694918,1238.321332
0.4700,206.5177467,-2.721034917,1238.313353
0.4750,206.5073531,-2.772179167,1238.305788
0.4800,206.4987717,-2.820572076,1238.298665
0.4850,206.49235,-2.865311878,1238.292016
0.4900,206.4888619,-2.907447582,1238.285488
0.4950,206.4868424,-2.946365374,1238.279386
0.5000,206.4874046,-2.982626415,1238.273459
0.5050,206.4901127,-3.015671928,1238.26772
0.5100,206.4946463,-3.046718864,1238.262015
0.5150,206.5019482,-3.075188332,1238.256315
0.5200,206.510745,-3.101936688,1238.250659
0.5250,206.5214431,-3.127373693,1238.244861
0.5300,206.5337389,-3.152295291,1238.238863
0.5350,206.5480002,-3.176591675,1238.232685
0.5400,206.5628481,-3.20169628,1238.226264
0.5450,206.5785076,-3.226790818,1238.219671
0.5500,206.5949837,-3.251642873,1238.212996
0.5550,206.6112616,-3.276934347,1238.206361
0.5600,206.6274753,-3.30279501,1238.199697
0.5650,206.6441029,-3.328204084,1238.193043
0.5700,206.6605409,-3.354312823,1238.18644
0.5750,206.6777411,-3.380423314,1238.17981
0.5800,206.6961983,-3.407027925,1238.172957
0.5850,206.715128,-3.433562524,1238.166176
0.5900,206.734829,-3.459905778,1238.159474
0.5950,206.7565315,-3.485855884,1238.152665
0.6000,206.7800955,-3.511346233,1238.145782
0.6050,206.8054111,-3.535863003,1238.138956
0.6100,206.8332049,-3.560740392,1238.131924
0.6150,206.8625456,-3.585346351,1238.124994
0.6200,206.8946414,-3.6095289,1238.117896
0.6250,206.9280146,-3.632708822,1238.111048
0.6300,206.9637809,-3.655694959,1238.104179
0.6350,207.0007549,-3.678728871,1238.097354
0.6400,207.0389767,-3.701175303,1238.090725
0.6450,207.0790863,-3.722712526,1238.084292
0.6500,207.1203934,-3.74409383,1238.077992
0.6550,207.1624481,-3.765001582,1238.07196
0.6600,207.2053063,-3.784610498,1238.066282
0.6650,207.2486027,-3.804118856,1238.060794
0.6700,207.2913501,-3.822747128,1238.055814
0.6750,207.3334379,-3.840593987,1238.051285
0.6800,207.3746891,-3.858257629,1238.047225
0.6850,207.4142683,-3.87461697,1238.043832
0.6900,207.4521456,-3.889904977,1238.041109
0.6950,207.488288,-3.903426997,1238.039012
0.7000,207.5225324,-3.915263115,1238.037565
0.7050,207.5549946,-3.925376785,1238.036741
0.7100,207.5862683,-3.933547575,1238.036398
0.7150,207.6152156,-3.940473599,1238.036481
0.7200,207.6416816,-3.946153216,1238.036985
0.7250,207.6676642,-3.950846806,1238.037574
0.7300,207.6916322,-3.955190441,1238.038328
0.7350,207.7148782,-3.959122997,1238.038986
0.7400,207.7370337,-3.964314526,1238.039436
0.7450,207.7601062,-3.970755491,1238.03931
0.7500,207.7812562,-3.979672363,1238.038875
0.7550,207.8026369,-3.991077518,1238.037834
0.7600,207.8239254,-4.005554917,1238.036193
0.7650,207.8459116,-4.023578649,1238.033713
0.7700,207.8685605,-4.045750666,1238.030375
0.7750,207.8927073,-4.071472713,1238.026128
0.7800,207.918282,-4.101146045,1238.020854
0.7850,207.9470204,-4.134967967,1238.014344
0.7900,207.977804,-4.173261055,1238.006729
0.7950,208.0123058,-4.21509781,1237.997855
0.8000,208.049778,-4.261612443,1237.987649
0.8050,208.0906647,-4.313193497,1237.975974
0.8100,208.1352362,-4.36921032,1237.962884
0.8150,208.1821336,-4.429940032,1237.948518
0.8200,208.2322608,-4.494505624,1237.932899
0.8250,208.2837621,-4.562017638,1237.916419
0.8300,208.3373391,-4.63203703,1237.89906
0.8350,208.3916228,-4.705415304,1237.880914
0.8400,208.4460725,-4.780071305,1237.862452
0.8450,208.5007067,-4.856404496,1237.843585
0.8500,208.5536888,-4.934357717,1237.824736
0.8550,208.6041655,-5.013367814,1237.806047
0.8600,208.6505087,-5.092888842,1237.787922
0.8650,208.6921227,-5.172355525,1237.770478
0.8700,208.7269547,-5.251362888,1237.754121
0.8750,208.7539452,-5.329496094,1237.739043
0.8800,208.7720667,-5.406388221,1237.725448
0.8850,208.7803956,-5.481676595,1237.713421
0.8900,208.7776425,-5.554628868,1237.703163
0.8950,208.7632976,-5.626092925,1237.694627
0.9000,208.7366921,-5.694839101,1237.687964
0.9050,208.6980661,-5.762747246,1237.68282
0.9100,208.6467568,-5.827864312,1237.679455
0.9150,208.5824901,-5.892300124,1237.677485
0.9200,208.5057045,-5.954333402,1237.676977
0.9250,208.4174799,-6.015681633,1237.677471
0.9300,208.3185921,-6.075715268,1237.678861
0.9350,208.2086303,-6.133922518,1237.681128
0.9400,208.0888401,-6.192674771,1237.683764
0.9450,207.9601556,-6.251383938,1237.686552
0.9500,207.8242762,-6.310035376,1237.68921
0.9550,207.6814699,-6.368499405,1237.691633
0.9600,207.5338636,-6.428137836,1237.693313
0.9650,207.3827591,-6.488109346,1237.69412
0.9700,207.2288812,-6.548686208,1237.6939
0.9750,207.0739153,-6.609049588,1237.692502
0.9800,206.9197427,-6.670342743,1237.689438
0.9850,206.7672873,-6.732020178,1237.684685
0.9900,206.6177733,-6.793212595,1237.678115
0.9950,206.4713997,-6.855520408,1237.669538
1.0000,206.3316064,-6.918809573,1237.658407
1.0050,206.198232,-6.982644946,1237.64482
1.0100,206.072117,-7.04708273,1237.628659
1.0150,205.9553014,-7.111104625,1237.609742
1.0200,205.8490245,-7.175612926,1237.587802
1.0250,205.7524193,-7.240196995,1237.56308
1.0300,205.6675371,-7.305301075,1237.535125
1.0350,205.5950404,-7.370924509,1237.503917
1.0400,205.5354557,-7.436056771,1237.469556
1.0450,205.4884451,-7.501618622,1237.432081
1.0500,205.4541856,-7.567570652,1237.391491
1.0550,205.4324245,-7.633750209,1237.347959
1.0600,205.4234697,-7.700011005,1237.301481
1.0650,205.4257219,-7.766624207,1237.252402
1.0700,205.4388857,-7.833739563,1237.20076
1.0750,205.4616918,-7.900620594,1237.146962
1.0800,205.4935321,-7.967829144,1237.091262
1.0850,205.5325377,-8.035090208,1237.033922
1.0900,205.5782229,-8.101051736,1236.975372
1.0950,205.6279643,-8.167318629,1236.915815
1.1000,205.6813435,-8.232570493,1236.855634
1.1050,205.737365,-8.296415477,1236.795011
1.1100,205.7948855,-8.35813387,1236.734324
1.1150,205.8543279,-8.418418288,1236.673374
1.1200,205.9146915,-8.477037061,1236.612398
1.1250,205.9757936,-8.533812951,1236.551438
1.1300,206.0373902,-8.589001336,1236.490541
1.1350,206.0987579,-8.642077231,1236.42978
1.1400,206.1601811,-8.693920848,1236.368906
1.1450,206.2206527,-8.743113014,1236.308418
1.1500,206.2819547,-8.790645531,1236.247735
1.1550,206.3431976,-8.83562038,1236.187139
1.1600,206.405025,-8.879277108,1236.126224
1.1650,206.4680372,-8.921900349,1236.064779
1.1700,206.5321121,-8.963210373,1236.002711
1.1750,206.5984812,-9.004066144,1235.939665
1.1800,206.6665288,-9.044774453,1235.87566
1.1850,206.7364968,-9.085804322,1235.810514
1.1900,206.8095035,-9.128574955,1235.743918
1.1950,206.8846939,-9.171627134,1235.675988
1.2000,206.9628054,-9.216008018,1235.606504
1.2050,207.0442271,-9.261605093,1235.53531
1.2100,207.1288399,-9.310520526,1235.462005
1.2150,207.2166438,-9.360773822,1235.386738
1.2200,207.3077002,-9.414335952,1235.309186
1.2250,207.4031247,-9.47066686,1235.229096
1.2300,207.5019792,-9.530258035,1235.146495
1.2350,207.6053165,-9.593959994,1235.061077
1.2400,207.7135409,-9.660598297,1234.972858
1.2450,207.826662,-9.730956509,1234.881798
1.2500,207.9445863,-9.804694178,1234.787877
1.2550,208.0681062,-9.882363209,1234.690964
1.2600,208.1969629,-9.963993632,1234.591117
1.2650,208.3304494,-10.04860528,1234.488554
1.2700,208.4695003,-10.13642314,1234.383169
1.2750,208.613189,-10.22823507,1234.275001
1.2800,208.7621449,-10.32211765,1234.164259
1.2850,208.9152146,-10.41821955,1234.05099
1.2900,209.0728744,-10.51645208,1233.935198
1.2950,209.2349034,-10.61616315,1233.817002
1.3000,209.4005594,-10.71575224,1233.696718
1.3050,209.5682661,-10.81567857,1233.574581
1.3100,209.7379697,-10.91512294,1233.450718
1.3150,209.9088487,-11.01395085,1233.325435
1.3200,210.0795997,-11.1110614,1233.199094
1.3250,210.250472,-11.20726232,1233.071561
1.3300,210.4195051,-11.29951278,1232.943699
1.3350,210.5852069,-11.38883316,1232.81554
1.3400,210.7477018,-11.47408815,1232.687268
1.3450,210.905087,-11.55497976,1232.55916
1.3500,211.0588614,-11.6310298,1232.431094
1.3550,211.2077437,-11.70201152,1232.303352
1.3600,211.3505739,-11.7670268,1232.176179
1.3650,211.4878956,-11.8265263,1232.049467
1.3700,211.6190791,-11.87993997,1231.923426
1.3750,211.7438895,-11.92814471,1231.797937
1.3800,211.8625032,-11.97031585,1231.672949
1.3850,211.9745231,-12.00812652,1231.548344
1.3900,212.0799607,-12.04128749,1231.424069
1.3950,212.180345,-12.06971298,1231.299913
1.4000,212.2753176,-12.09328077,1231.175865
1.4050,212.3659869,-12.11254176,1231.051745
1.4100,212.4514678,-12.12812329,1230.927464
1.4150,212.5321858,-12.14001534,1230.803055
1.4200,212.607892,-12.14882094,1230.678321
1.4250,212.6795584,-12.15495893,1230.553115
1.4300,212.7464739,-12.15808965,1230.427472
1.4350,212.8099066,-12.15869404,1230.301215
1.4400,212.868923,-12.15773039,1230.174365
1.4450,212.9250553,-12.15547341,1230.04651
1.4500,212.9768032,-12.15141545,1229.91796
1.4550,213.0261296,-12.14624163,1229.788356
1.4600,213.0727456,-12.13968981,1229.657771
1.4650,213.1163629,-12.13248067,1229.526249
1.4700,213.1577058,-12.12430262,1229.393695
1.4750,213.195368,-12.11591361,1229.260216
1.4800,213.2306289,-12.10801318,1229.125533
1.4850,213.263697,-12.09914479,1228.989913
1.4900,213.293996,-12.08947705,1228.853254
1.4950,213.3218703,-12.08011773,1228.71556
1.5000,213.3473734,-12.07103688,1228.576786
1.5050,213.3693387,-12.06197448,1228.437106
1.5100,213.3876458,-12.05191095,1228.296741
1.5150,213.4026994,-12.04195847,1228.15565
1.5200,213.4134707,-12.03162748,1228.013979
1.5250,213.4195429,-12.02138284,1227.871837
1.5300,213.4203759,-12.01061439,1227.729371
1.5350,213.4154159,-11.99914966,1227.586758
1.5400,213.4047645,-11.98779892,1227.443902
1.5450,213.3874811,-11.97602221,1227.301004
1.5500,213.3635214,-11.96452567,1227.158141
1.5550,213.3324416,-11.95364787,1227.015246
1.5600,213.2930279,-11.94214907,1226.872704
1.5650,213.2453692,-11.93026757,1226.730607
1.5700,213.1896486,-11.91778064,1226.589096
1.5750,213.1273747,-11.90425748,1226.448116
1.5800,213.0563389,-11.88914685,1226.308054
1.5850,212.9782869,-11.87255918,1226.168934
1.5900,212.89258,-11.85381704,1226.030976
1.5950,212.7993635,-11.83238338,1225.894273
1.6000,212.6976419,-11.80768175,1225.759131
1.6050,212.5896142,-11.77948335,1225.625349
1.6100,212.4749884,-11.74775609,1225.49302
1.6150,212.3531482,-11.7120613,1225.362346
1.6200,212.2253929,-11.6713275,1225.233322
1.6250,212.0915865,-11.62503952,1225.106045
1.6300,211.9538778,-11.57460023,1224.980086
1.6350,211.8110554,-11.51862868,1224.855845
1.6400,211.6636794,-11.45770406,1224.733086
1.6450,211.5123048,-11.39240978,1224.611717
1.6500,211.3568051,-11.322303,1224.491824
1.6550,211.1976122,-11.24747637,1224.37325
1.6600,211.0364916,-11.16852755,1224.255666
1.6650,210.8731988,-11.0840181,1224.139283
1.6700,210.7082696,-10.99449438,1224.023916
1.6750,210.5424904,-10.90058477,1223.909391
1.6800,210.3762649,-10.80176539,1223.795757
1.6850,210.2110335,-10.69688462,1223.682958
1.6900,210.0464704,-10.58695197,1223.570904
1.6950,209.8820055,-10.47134109,1223.459839
1.7000,209.719231,-10.35071113,1223.349433
1.7050,209.5574877,-10.22476276,1223.239915
1.7100,209.397163,-10.09312672,1223.131322
1.7150,209.2380667,-9.955947782,1223.023635
1.7200,209.0809433,-9.811354864,1222.917042
1.7250,208.926538,-9.659457512,1222.811399
1.7300,208.7752463,-9.500306147,1222.706733
1.7350,208.6259323,-9.333713284,1222.603214
1.7400,208.4798274,-9.158329615,1222.500882
1.7450,208.3358047,-8.975209344,1222.399765
1.7500,208.1953314,-8.783622945,1222.299768
1.7550,208.0569215,-8.583802934,1222.201033
1.7600,207.9209471,-8.375370657,1222.10368
1.7650,207.7858094,-8.158786994,1222.007804
1.7700,207.6514664,-7.93450044,1221.913424
1.7750,207.5174902,-7.701426782,1221.820868
1.7800,207.3825674,-7.460151783,1221.730178
1.7850,207.246742,-7.211807535,1221.641236
1.7900,207.1088646,-6.956581843,1221.55426
1.7950,206.9693549,-6.694967506,1221.469149
1.8000,206.8269544,-6.427281603,1221.386007
1.8050,206.6822646,-6.154535692,1221.304528
1.8100,206.5347566,-5.878410785,1221.22456
1.8150,206.3828631,-5.598944147,1221.146273
1.8200,206.227466,-5.316968918,1221.069486
1.8250,206.0667203,-5.031927073,1220.994467
1.8300,205.9010161,-4.744450644,1220.921236
1.8350,205.7300099,-4.455247795,1220.84962
1.8400,205.5525915,-4.164308367,1220.779763
1.8450,205.3700015,-3.871822961,1220.711588
1.8500,205.1818573,-3.576048959,1220.645327
1.8550,204.9879458,-3.276066238,1220.581183
1.8600,204.7889963,-2.972407816,1220.519001
1.8650,204.5863425,-2.664717652,1220.458619
1.8700,204.3788614,-2.352397577,1220.4003
1.8750,204.1667184,-2.034319657,1220.344211
1.8800,203.9507875,-1.7100711,1220.290402
1.8850,203.7315699,-1.378915368,1220.238844
1.8900,203.5084868,-1.040267617,1220.189727
1.8950,203.2822054,-0.6928142335,1220.143279
1.9000,203.0527677,-0.3371519215,1220.099372
1.9050,202.8211747,0.02687832639,1220.057918
1.9100,202.5855392,0.4003034697,1220.019351
1.9150,202.3474004,0.7824882804,1219.983316
1.9200,202.1051698,1.173779767,1219.950254
1.9250,201.859289,1.57263568,1219.919919
1.9300,201.6073977,1.97952173,1219.892743
1.9350,201.3506943,2.393751834,1219.868558
1.9400,201.088344,2.815210935,1219.847565
1.9450,200.820811,3.243468266,1219.829634
1.9500,200.5468479,3.677690696,1219.814893
1.9550,200.2658792,4.116789866,1219.80332
1.9600,199.9765065,4.560019759,1219.795045
1.9650,199.6783021,5.006312071,1219.789982
1.9700,199.3716051,5.456396797,1219.788364
1.9750,199.0556359,5.910235131,1219.790353
1.9800,198.7315307,6.367722998,1219.795913
1.9850,198.3983407,6.828886157,1219.8053
1.9900,198.057048,7.292674051,1219.818194
1.9950,197.708375,7.758506938,1219.834336
2.0000,197.351549,8.226207901,1219.853784
2.0050,196.9861591,8.694558403,1219.876284
2.0100,196.6125066,9.162667469,1219.901629
2.0150,196.2313298,9.632224307,1219.929975
2.0200,195.8411762,10.1028433,1219.961518
2.0250,195.4425316,10.57540811,1219.996447
2.0300,195.0366501,11.05129751,1220.034902
2.0350,194.6239899,11.53093906,1220.076916
2.0400,194.2052909,12.01415303,1220.122414
2.0450,193.781192,12.50074786,1220.171262
2.0500,193.3506151,12.99134871,1220.223789
2.0550,192.9118426,13.48647736,1220.280444
2.0600,192.4655944,13.98530781,1220.341023
2.0650,192.0130227,14.48756941,1220.405377
2.0700,191.5536245,14.99272608,1220.473581
2.0750,191.0873704,15.49915854,1220.545201
2.0800,190.61408,16.00716003,1220.620398
2.0850,190.132783,16.51605868,1220.699115
2.0900,189.6438889,17.02418034,1220.780909
2.0950,189.1465834,17.53161259,1220.865912
2.1000,188.6410401,18.03813279,1220.954085
2.1050,188.1268238,18.54389974,1221.04563
2.1100,187.6049128,19.04970362,1221.140571
2.1150,187.0768883,19.55492294,1221.238557
2.1200,186.5421447,20.06103358,1221.340052
2.1250,186.0020166,20.56570046,1221.444347
2.1300,185.4559197,21.06890671,1221.551497
2.1350,184.9038873,21.57149045,1221.661737
2.1400,184.3464607,22.07419064,1221.775255
2.1450,183.7839027,22.57607148,1221.89177
2.1500,183.2160164,23.07506924,1222.010854
2.1550,182.6428842,23.57233158,1222.132752
2.1600,182.0655995,24.06790342,1222.257358
2.1650,181.4823254,24.56182096,1222.38503
2.1700,180.8939235,25.05497696,1222.515752
2.1750,180.299978,25.54761493,1222.649778
2.1800,179.7010886,26.04052343,1222.787216
2.1850,179.0973416,26.53336701,1222.927999
2.1900,178.4887302,27.02532922,1223.072006
2.1950,177.8741397,27.51678498,1223.2195
2.2000,177.2536703,28.00746923,1223.370482
2.2050,176.6263802,28.49763234,1223.525217
2.2100,175.9924556,28.98702702,1223.683642
2.2150,175.3504209,29.47595602,1223.846092
2.2200,174.7006081,29.96263737,1224.012038
2.2250,174.0414229,30.44814579,1224.182032
2.2300,173.3750042,30.93367462,1224.356034
2.2350,172.7013264,31.42098216,1224.53456
2.2400,172.0201205,31.91098864,1224.718048
2.2450,171.3327663,32.40470041,1224.906651
2.2500,170.6413495,32.90276305,1225.100185
2.2550,169.9457249,33.40476058,1225.298629
2.2600,169.2476764,33.9095857,1225.501411
2.2650,168.5469484,34.41557683,1225.708245
2.2700,167.8420301,34.92232601,1225.91923
