type,name,time_units,begin_time,frequency,count,units
signal,"Noraxon MyoMotion-Segments-Forearm RT-Roll","s",0.0000,200,5108,"deg"

time,value
0.0000,-0.8375105845
0.0050,-0.8424336154
0.0100,-0.8473568005
0.0150,-0.8522801394
0.0200,-0.8561977277
0.0250,-0.8588344401
0.0300,-0.8599244718
0.0350,-0.8592204649
0.0400,-0.8565017282
0.0450,-0.8515808229
0.0500,-0.8443080443
0.0550,-0.8345747613
0.0600,-0.8223154324
0.0650,-0.8075068415
0.0700,-0.7901653992
0.0750,-0.7703446485
0.0800,-0.7481331671
0.0850,-0.7236522961
0.0900,-0.6970538352
0.0950,-0.6685181524
0.1000,-0.6382529681
0.1050,-0.606492392
0.1100,-0.5734952668
0.1150,-0.5395424078
0.1200,-0.5049337898
0.1250,-0.469986694
0.1300,-0.4350338763
0.1350,-0.4004201711
0.1400,-0.3664971788
0.1450,-0.3336169522
0.1500,-0.302125358
0.1550,-0.2634939665
0.1600,-0.2263866112
0.1650,-0.1911608401
0.1700,-0.158212015
0.1750,-0.1277119545
0.1800,-0.09999520072
0.1850,-0.07519122296
0.1900,-0.05343146367
0.1950,-0.03491277339
0.2000,-0.01966420986
0.2050,-0.007752345578
0.2100,0.0008059755725
0.2150,0.005932771841
0.2200,0.008062636078
0.2250,0.007139737581
0.2300,0.003532884553
0.2350,-0.002548216815
0.2400,-0.01076833341
0.2450,-0.02087982766
0.2500,-0.03243943279
0.2550,-0.04515601985
0.2600,-0.05867362183
0.2650,-0.07296983981
0.2700,-0.08723176399
0.2750,-0.1014296228
0.2800,-0.1152346243
0.2850,-0.1284590614
0.2900,-0.1408925105
0.2950,-0.1522773749
0.3000,-0.1624915521
0.3050,-0.1714751758
0.3100,-0.178960483
0.3150,-0.1848114002
0.3200,-0.1891511163
0.3250,-0.191876803
0.3300,-0.1928206515
0.3350,-0.1922928197
0.3400,-0.1901597927
0.3450,-0.1864729843
0.3500,-0.1812567879
0.3550,-0.174729865
0.3600,-0.1667131258
0.3650,-0.1575895895
0.3700,-0.1471466335
0.3750,-0.1358552509
0.3800,-0.1236695757
0.3850,-0.1107456707
0.3900,-0.09733582127
0.3950,-0.08358279846
0.4000,-0.06962936337
0.4050,-0.05552217636
0.4100,-0.04152367819
0.4150,-0.02794638949
0.4200,-0.0148303268
0.4250,-0.002222879961
0.4300,0.009713928185
0.4350,0.02070480169
0.4400,0.0309939763
0.4450,0.04032326257
0.4500,0.04879677671
0.4550,0.05635765464
0.4600,0.06298786468
0.4650,0.06885465744
0.4700,0.07396650634
0.4750,0.0783747343
0.4800,0.0820897823
0.4850,0.08531336488
0.4900,0.08816414859
0.4950,0.09067613481
0.5000,0.09291329887
0.5050,0.09506567025
0.5100,0.09722482957
0.5150,0.09932454883
0.5200,0.1014524924
0.5250,0.1037228805
0.5300,0.1061349629
0.5350,0.1085099635
0.5400,0.1110338366
0.5450,0.1137102748
0.5500,0.1164778391
0.5550,0.1192386805
0.5600,0.1220406339
0.5650,0.1250061348
0.5700,0.1278383404
0.5750,0.1306886026
0.5800,0.1336136294
0.5850,0.1363631452
0.5900,0.1388654757
0.5950,0.1412796517
0.6000,0.1434999822
0.6050,0.1454741162
0.6100,0.1470828796
0.6150,0.1482058633
0.6200,0.1490229986
0.6250,0.1491836927
0.6300,0.1487174605
0.6350,0.1477283945
0.6400,0.1461126848
0.6450,0.1438082064
0.6500,0.1408290721
0.6550,0.1372071725
0.6600,0.1329660209
0.6650,0.1281781454
0.6700,0.1227065237
0.6750,0.1166272176
0.6800,0.1098899248
0.6850,0.1025444933
0.6900,0.09465601868
0.6950,0.08659413015
0.7000,0.07824485344
0.7050,0.06975466938
0.7100,0.06128382877
0.7150,0.05319701203
0.7200,0.04551993854
0.7250,0.03833973932
0.7300,0.03165914864
0.7350,0.02563719543
0.7400,0.02004524061
0.7450,0.01510196735
0.7500,0.01068421803
0.7550,0.006800302618
0.7600,0.003325108573
0.7650,0.0004688130923
0.7700,-0.001983316121
0.7750,-0.003940265681
0.7800,-0.00525702184
0.7850,-0.00607683403
0.7900,-0.006411325074
0.7950,-0.006168778882
0.8000,-0.005234224309
0.8050,-0.003575724149
0.8100,-0.001221407511
0.8150,0.001951374421
0.8200,0.00591481849
0.8250,0.01060408463
0.8300,0.01599287857
0.8350,0.02206348405
0.8400,0.02867001037
0.8450,0.03587442044
0.8500,0.04342043427
0.8550,0.05135347087
0.8600,0.05951334719
0.8650,0.0679947226
0.8700,0.07668426555
0.8750,0.08553099556
0.8800,0.0945232785
0.8850,0.1039030376
0.8900,0.1137204043
0.8950,0.1239352701
0.9000,0.134844116
0.9050,0.1464766869
0.9100,0.1590357909
0.9150,0.1728243698
0.9200,0.1880512036
0.9250,0.2049363544
0.9300,0.223565823
0.9350,0.24429011
0.9400,0.2670689435
0.9450,0.2923240321
0.9500,0.3201422702
0.9550,0.3507049855
0.9600,0.3839927859
0.9650,0.4201263768
0.9700,0.4591359912
0.9750,0.5010406514
0.9800,0.5458612493
0.9850,0.5935833479
0.9900,0.644254944
0.9950,0.6975811564
1.0000,0.7537459155
1.0050,0.8125599015
1.0100,0.8739613488
1.0150,0.937831083
1.0200,1.004030311
1.0250,1.072273886
1.0300,1.142755307
1.0350,1.215157301
1.0400,1.289403315
1.0450,1.365208578
1.0500,1.442401307
1.0550,1.520757102
1.0600,1.600287003
1.0650,1.680684513
1.0700,1.761869568
1.0750,1.843608532
1.0800,1.92549421
1.0850,2.007567846
1.0900,2.089508647
1.0950,2.171260968
1.1000,2.252505496
1.1050,2.333355864
1.1100,2.413598161
1.1150,2.493291119
1.1200,2.572342334
1.1250,2.65083107
1.1300,2.728739789
1.1350,2.806319282
1.1400,2.883635949
1.1450,2.960434315
1.1500,3.037082648
1.1550,3.113578765
1.1600,3.190271436
1.1650,3.267401889
1.1700,3.345277796
1.1750,3.424030824
1.1800,3.503792377
1.1850,3.584752604
1.1900,3.666901311
1.1950,3.75067361
1.2000,3.83601064
1.2050,3.923234611
1.2100,4.01266309
1.2150,4.104474374
1.2200,4.198855418
1.2250,4.296145992
1.2300,4.396474078
1.2350,4.499968123
1.2400,4.606874376
1.2450,4.716969602
1.2500,4.830538033
1.2550,4.947507767
1.2600,5.067918152
1.2650,5.191827813
1.2700,5.319133276
1.2750,5.449967568
1.2800,5.584255782
1.2850,5.722201481
1.2900,5.863804415
1.2950,6.009126398
1.3000,6.158118994
1.3050,6.310642314
1.3100,6.466740953
1.3150,6.6260321
1.3200,6.788437127
1.3250,6.954041428
1.3300,7.122339995
1.3350,7.293418763
1.3400,7.467224624
1.3450,7.643707224
1.3500,7.822834547
1.3550,8.004419845
1.3600,8.18851333
1.3650,8.374945436
1.3700,8.563760869
1.3750,8.754913215
1.3800,8.948635612
1.3850,9.145012568
1.3900,9.344189769
1.3950,9.546279178
1.4000,9.75141746
1.4050,9.959606075
1.4100,10.17108854
1.4150,10.38576362
1.4200,10.60401374
1.4250,10.82585249
1.4300,11.05141821
1.4350,11.28078393
1.4400,11.51400549
1.4450,11.75156422
1.4500,11.99326644
1.4550,12.23936601
1.4600,12.48964728
1.4650,12.74409102
1.4700,13.00270957
1.4750,13.26554621
1.4800,13.53273147
1.4850,13.80409391
1.4900,14.08011285
1.4950,14.36033778
1.5000,14.64495009
1.5050,14.93400354
1.5100,15.22725204
1.5150,15.52455968
1.5200,15.8259174
1.5250,16.1311817
1.5300,16.44039038
1.5350,16.7534238
1.5400,17.07009803
1.5450,17.39043276
1.5500,17.71406799
1.5550,18.04107407
1.5600,18.37115856
1.5650,18.70402809
1.5700,19.03936876
1.5750,19.37703277
1.5800,19.71694626
1.5850,20.05872908
1.5900,20.40239155
1.5950,20.74783079
1.6000,21.09487185
1.6050,21.44362649
1.6100,21.79383881
1.6150,22.14549716
1.6200,22.49836604
1.6250,22.85250235
1.6300,23.20798812
1.6350,23.56482929
1.6400,23.92310691
1.6450,24.28276109
1.6500,24.64398157
1.6550,25.00694669
1.6600,25.37177055
1.6650,25.73846128
1.6700,26.10703856
1.6750,26.4775655
1.6800,26.84972936
1.6850,27.223375
1.6900,27.59856275
1.6950,27.97512978
1.7000,28.35324917
1.7050,28.73279533
1.7100,29.11380774
1.7150,29.49634075
1.7200,29.88040022
1.7250,30.26606571
1.7300,30.6533858
1.7350,31.04242696
1.7400,31.43326785
1.7450,31.82576484
1.7500,32.22020637
1.7550,32.6164177
1.7600,33.01445018
1.7650,33.41422869
1.7700,33.81593029
1.7750,34.21946286
1.7800,34.62493978
1.7850,35.03225255
1.7900,35.44112066
1.7950,35.85177814
1.8000,36.26433303
1.8050,36.67881172
1.8100,37.09538056
1.8150,37.51392597
1.8200,37.93427605
1.8250,38.35676773
1.8300,38.78099655
1.8350,39.20718763
1.8400,39.63548978
1.8450,40.06596035
1.8500,40.49888892
1.8550,40.93431363
1.8600,41.37225881
1.8650,41.81300742
1.8700,42.25677552
1.8750,42.703326
1.8800,43.15252338
1.8850,43.60434497
1.8900,44.0583183
1.8950,44.51466798
1.9000,44.97340491
1.9050,45.43463215
1.9100,45.8986055
1.9150,46.36587418
1.9200,46.83635936
1.9250,47.31026968
1.9300,47.7876147
1.9350,48.26844576
1.9400,48.75255425
1.9450,49.24044192
1.9500,49.73189219
1.9550,50.22728394
1.9600,50.72628013
1.9650,51.22922499
1.9700,51.7361813
1.9750,52.24734658
1.9800,52.76307916
1.9850,53.28339191
1.9900,53.8086347
1.9950,54.33912129
2.0000,54.87517865
2.0050,55.41709724
2.0100,55.96490246
2.0150,56.51878764
2.0200,57.07874853
2.0250,57.64491427
2.0300,58.21691355
2.0350,58.79515051
2.0400,59.379467
2.0450,59.96988471
2.0500,60.5665911
2.0550,61.16954036
2.0600,61.77881777
2.0650,62.39435707
2.0700,63.01605648
2.0750,63.64430801
2.0800,64.27889736
2.0850,64.92041555
2.0900,65.56868114
2.0950,66.22390599
2.1000,66.88595531
2.1050,67.55504729
2.1100,68.23128295
2.1150,68.91468435
2.1200,69.60523987
2.1250,70.30266523
2.1300,71.00722046
2.1350,71.71896216
2.1400,72.43744593
2.1450,73.16263136
2.1500,73.89420034
2.1550,74.63204975
2.1600,75.37631027
2.1650,76.1265768
2.1700,76.8827296
2.1750,77.64463813
2.1800,78.41193514
2.1850,79.18437405
2.1900,79.9619215
2.1950,80.74387458
2.2000,81.52987984
2.2050,82.31961409
2.2100,83.11273314
2.2150,83.90845282
2.2200,84.70678252
2.2250,85.50728147
2.2300,86.30954133
2.2350,87.11328956
2.2400,87.91806851
2.2450,88.72355204
2.2500,89.52943755
2.2550,90.33545378
2.2600,91.14129475
2.2650,91.94677061
2.2700,92.75167299
2.2750,93.55595866
2.2800,94.35948684
2.2850,95.16177344
2.2900,95.96243191
2.2950,96.76117026
2.3000,97.55759059
2.3050,98.35119725
2.3100,99.14209545
2.3150,99.92983387
2.3200,100.7138161
2.3250,101.4939238
2.3300,102.2700991
2.3350,103.0418119
2.3400,103.8090317
2.3450,104.5722163
2.3500,105.3307052
2.3550,106.0844874
2.3600,106.8332494
2.3650,107.5769994
2.3700,108.3160936
2.3750,109.0507033
2.3800,109.7808091
2.3850,110.5061379
2.3900,111.226734
2.3950,111.9422943
2.4000,112.6530514
2.4050,113.3586804
2.4100,114.0592156
2.4150,114.7544481
2.4200,115.4436828
2.4250,116.1267145
2.4300,116.8035132
2.4350,117.4735759
2.4400,118.1370711
2.4450,118.7934586
2.4500,119.4427654
2.4550,120.0846253
2.4600,120.7187791
2.4650,121.3457244
2.4700,121.9652186
2.4750,122.5771005
2.4800,123.1812492
2.4850,123.777444
2.4900,124.3655127
2.4950,124.9455922
2.5000,125.5177909
2.5050,126.0821372
2.5100,126.6388894
2.5150,127.1881669
2.5200,127.7298522
2.5250,128.2638301
2.5300,128.789992
2.5350,129.30836
2.5400,129.8191219
2.5450,130.3218064
2.5500,130.8163589
2.5550,131.30313
2.5600,131.7820259
2.5650,132.2535556
2.5700,132.7179953
2.5750,133.1755652
2.5800,133.6267425
2.5850,134.0723051
2.5900,134.5125868
2.5950,134.9477307
2.6000,135.3776742
2.6050,135.802456
2.6100,136.2215955
2.6150,136.6355788
2.6200,137.044787
2.6250,137.449022
2.6300,137.8483391
2.6350,138.242859
2.6400,138.6323451
2.6450,139.0167396
2.6500,139.396192
2.6550,139.7710799
2.6600,140.1416687
2.6650,140.5082427
2.6700,140.8709189
2.6750,141.2296935
2.6800,141.5845054
2.6850,141.9355332
2.6900,142.2832223
2.6950,142.6275012
2.7000,142.9685142
2.7050,143.3065369
2.7100,143.6418004
2.7150,143.9750012
2.7200,144.3066409
2.7250,144.6367778
2.7300,144.9655765
2.7350,145.2930792
2.7400,145.6189998
2.7450,145.9434797
2.7500,146.2664774
2.7550,146.5881276
2.7600,146.9081805
2.7650,147.2261317
2.7700,147.5419123
2.7750,147.855498
2.7800,148.1671355
2.7850,148.4770154
2.7900,148.7852115
2.7950,149.091968
2.8000,149.3975524
2.8050,149.7022885
2.8100,150.0058266
2.8150,150.308497
2.8200,150.6102133
2.8250,150.9113893
2.8300,151.2120238
2.8350,151.5123108
2.8400,151.8121437
2.8450,152.1115087
2.8500,152.4108292
2.8550,152.7098239
2.8600,153.0090038
2.8650,153.3079118
2.8700,153.6062662
2.8750,153.9038397
2.8800,154.2002061
2.8850,154.4952536
2.8900,154.7888532
2.8950,155.0809372
2.9000,155.3713819
2.9050,155.6602776
2.9100,155.9477394
2.9150,156.2336096
2.9200,156.5180273
2.9250,156.8008306
2.9300,157.0821043
2.9350,157.3618701
2.9400,157.6401112
2.9450,157.9166523
2.9500,158.1914626
2.9550,158.4639785
2.9600,158.7339978
2.9650,159.0012748
2.9700,159.2656484
2.9750,159.5270316
2.9800,159.7852574
2.9850,160.0403122
2.9900,160.2920478
2.9950,160.5402756
3.0000,160.7852053
3.0050,161.0270642
3.0100,161.2656448
3.0150,161.500636
3.0200,161.7323763
3.0250,161.9604388
3.0300,162.1848874
3.0350,162.4058429
3.0400,162.623419
3.0450,162.8377151
3.0500,163.0486177
3.0550,163.2564283
3.0600,163.4612859
3.0650,163.6631371
3.0700,163.862049
3.0750,164.0580716
3.0800,164.2510486
3.0850,164.4410642
3.0900,164.6281657
3.0950,164.8120108
3.1000,164.9925808
3.1050,165.1699564
3.1100,165.344453
3.1150,165.5162383
3.1200,165.6854574
3.1250,165.8521777
3.1300,166.0166842
3.1350,166.1791436
3.1400,166.3394506
3.1450,166.4978175
3.1500,166.6544207
3.1550,166.8092015
3.1600,166.9620715
3.1650,167.1132626
3.1700,167.2623644
3.1750,167.4093674
3.1800,167.5540197
3.1850,167.6959078
3.1900,167.8348775
3.1950,167.9706975
3.2000,168.1034919
3.2050,168.2327712
3.2100,168.3585014
3.2150,168.4805613
3.2200,168.5985175
3.2250,168.7124894
3.2300,168.8224595
3.2350,168.9283424
3.2400,169.0301633
3.2450,169.1280398
3.2500,169.2217755
3.2550,169.3118082
3.2600,169.3984724
3.2650,169.4816403
3.2700,169.5616514
3.2750,169.6385758
3.2800,169.7129199
3.2850,169.7850268
3.2900,169.8549526
3.2950,169.92299
3.3000,169.9890165
3.3050,170.053001
3.3100,170.1153029
3.3150,170.1759449
3.3200,170.2349345
3.3250,170.2930111
3.3300,170.3502219
3.3350,170.4068693
3.3400,170.4632574
3.3450,170.519461
3.3500,170.5756716
3.3550,170.6319283
3.3600,170.6884808
3.3650,170.7452787
3.3700,170.8023526
3.3750,170.8599811
3.3800,170.9181192
3.3850,170.9770124
3.3900,171.0367261
3.3950,171.0974339
3.4000,171.1590997
3.4050,171.221598
3.4100,171.2851589
3.4150,171.3495066
3.4200,171.4152101
3.4250,171.4820486
3.4300,171.5500221
3.4350,171.6192786
3.4400,171.6900066
3.4450,171.7621507
3.4500,171.8354865
3.4550,171.9103546
3.4600,171.9866263
3.4650,172.0643508
3.4700,172.1435557
3.4750,172.2237545
3.4800,172.3048315
3.4850,172.386434
3.4900,172.46836
3.4950,172.5502829
3.5000,172.6318192
3.5050,172.712797
3.5100,172.7929185
3.5150,172.8717355
3.5200,172.9489921
3.5250,173.0245611
3.5300,173.0981801
3.5350,173.1695891
3.5400,173.2387796
3.5450,173.3056673
3.5500,173.370338
3.5550,173.432726
3.5600,173.4928792
3.5650,173.5512349
3.5700,173.6075674
3.5750,173.6620354
3.5800,173.7148069
3.5850,173.7659354
3.5900,173.8155374
3.5950,173.8640434
3.6000,173.911566
3.6050,173.9582196
3.6100,174.0040862
3.6150,174.0491909
3.6200,174.0935305
3.6250,174.1368046
3.6300,174.1792833
3.6350,174.2205555
3.6400,174.2606318
3.6450,174.2997004
3.6500,174.3379339
3.6550,174.3754432
3.6600,174.412102
3.6650,174.4480695
3.6700,174.4836151
3.6750,174.5184292
3.6800,174.5527734
3.6850,174.5865701
3.6900,174.6198407
3.6950,174.6527219
3.7000,174.6853524
3.7050,174.7177882
3.7100,174.7500184
3.7150,174.7823731
3.7200,174.8143818
3.7250,174.8462146
3.7300,174.8778879
3.7350,174.9090468
3.7400,174.939878
3.7450,174.9703327
3.7500,175.0004277
3.7550,175.0298964
3.7600,175.0588382
3.7650,175.086717
3.7700,175.1140238
3.7750,175.1405516
3.7800,175.1664982
3.7850,175.1918036
3.7900,175.2163538
3.7950,175.2400529
3.8000,175.2626844
3.8050,175.2842134
3.8100,175.3046414
3.8150,175.3238286
3.8200,175.3417673
3.8250,175.3583131
3.8300,175.3732996
3.8350,175.3869047
3.8400,175.3989941
3.8450,175.4094895
3.8500,175.4182399
3.8550,175.4253539
3.8600,175.430635
3.8650,175.4338748
3.8700,175.4352256
3.8750,175.4346725
3.8800,175.4319766
3.8850,175.4272041
3.8900,175.4202397
3.8950,175.4109684
3.9000,175.3992631
3.9050,175.3852272
3.9100,175.3688501
3.9150,175.3501495
3.9200,175.329186
3.9250,175.30595
3.9300,175.2804525
3.9350,175.2528918
3.9400,175.2231126
3.9450,175.1910033
3.9500,175.1565784
3.9550,175.1198496
3.9600,175.0807421
3.9650,175.0394588
3.9700,174.9959217
3.9750,174.9503304
3.9800,174.9025531
3.9850,174.8526939
3.9900,174.8007917
3.9950,174.7468252
4.0000,174.6908458
4.0050,174.6327835
4.0100,174.5726238
4.0150,174.5102945
4.0200,174.4459526
4.0250,174.3795055
4.0300,174.3109771
4.0350,174.2405253
4.0400,174.1679579
4.0450,174.0935205
4.0500,174.0169824
4.0550,173.9385308
4.0600,173.8582629
4.0650,173.7764905
4.0700,173.6928153
4.0750,173.607697
4.0800,173.5208811
4.0850,173.4325955
4.0900,173.3427154
4.0950,173.2515164
4.1000,173.1588238
4.1050,173.0647476
4.1100,172.9690171
4.1150,172.8718391
4.1200,172.7733081
4.1250,172.6732587
4.1300,172.5717772
4.1350,172.4686334
4.1400,172.3635674
4.1450,172.2567075
4.1500,172.1482349
4.1550,172.0377525
4.1600,171.9254566
4.1650,171.8112701
4.1700,171.6952022
4.1750,171.5771682
4.1800,171.4574438
4.1850,171.3357892
4.1900,171.2123245
4.1950,171.0871085
4.2000,170.9604666
4.2050,170.8322874
4.2100,170.702726
4.2150,170.5716568
4.2200,170.4390373
4.2250,170.3048873
4.2300,170.1691977
4.2350,170.0319729
4.2400,169.8931188
4.2450,169.7526967
4.2500,169.6104635
4.2550,169.466274
4.2600,169.3203971
4.2650,169.1725895
4.2700,169.0228283
4.2750,168.8710122
4.2800,168.7172141
4.2850,168.5611566
4.2900,168.4028845
4.2950,168.2422509
4.3000,168.079192
4.3050,167.9139012
4.3100,167.7464043
4.3150,167.5767716
4.3200,167.4049194
4.3250,167.2311232
4.3300,167.0553173
4.3350,166.8776135
4.3400,166.6981547
4.3450,166.516755
4.3500,166.333518
4.3550,166.148119
4.3600,165.9601897
4.3650,165.7695406
4.3700,165.5763155
4.3750,165.3803683
4.3800,165.1817718
4.3850,164.9807218
4.3900,164.7774112
4.3950,164.5718256
4.4000,164.3641926
4.4050,164.1543274
4.4100,163.942223
4.4150,163.7276481
4.4200,163.5102964
4.4250,163.2902196
4.4300,163.0675925
4.4350,162.8422903
4.4400,162.6145639
4.4450,162.3842972
4.4500,162.1514521
4.4550,161.9164608
4.4600,161.6793062
4.4650,161.4399965
4.4700,161.1986045
4.4750,160.9552746
4.4800,160.7096722
4.4850,160.4619937
4.4900,160.2121985
4.4950,159.9601139
4.5000,159.7055985
4.5050,159.4486387
4.5100,159.1888015
4.5150,158.9262489
4.5200,158.6610338
4.5250,158.3933301
4.5300,158.1231067
4.5350,157.850328
4.5400,157.5750695
4.5450,157.2968179
4.5500,157.0157392
4.5550,156.7314714
4.5600,156.4441038
4.5650,156.1534484
4.5700,155.8594166
4.5750,155.5619089
4.5800,155.2604165
4.5850,154.9549275
4.5900,154.645648
4.5950,154.3326463
4.6000,154.0161114
4.6050,153.6959074
4.6100,153.3721392
4.6150,153.0452476
4.6200,152.7153637
4.6250,152.38262
4.6300,152.0471551
4.6350,151.7084781
4.6400,151.3665014
4.6450,151.0211981
4.6500,150.672617
4.6550,150.3208243
4.6600,149.9663196
4.6650,149.609378
4.6700,149.2503391
4.6750,148.8893156
4.6800,148.5268861
4.6850,148.1628115
4.6900,147.7973954
4.6950,147.4303836
4.7000,147.0618667
4.7050,146.6920958
4.7100,146.3213519
4.7150,145.949924
4.7200,145.5781663
4.7250,145.2059594
4.7300,144.8329757
4.7350,144.4599297
4.7400,144.0867428
4.7450,143.7135964
4.7500,143.3406831
4.7550,142.9677042
4.7600,142.5944435
4.7650,142.2208484
4.7700,141.8462958
4.7750,141.4701124
4.7800,141.0919848
4.7850,140.7115122
4.7900,140.3283522
4.7950,139.9419555
4.8000,139.5521488
4.8050,139.1588861
4.8100,138.762069
4.8150,138.3617813
4.8200,137.957845
4.8250,137.5500553
4.8300,137.1382058
4.8350,136.7222138
4.8400,136.3015496
4.8450,135.8765915
4.8500,135.4471626
4.8550,135.0136895
4.8600,134.5758001
4.8650,134.1337014
4.8700,133.6870743
4.8750,133.2360352
4.8800,132.7810693
4.8850,132.3226867
4.8900,131.8608817
4.8950,131.3955684
4.9000,130.9268874
4.9050,130.455077
4.9100,129.9799398
4.9150,129.5004597
4.9200,129.0165192
4.9250,128.5275197
4.9300,128.0335702
4.9350,127.5350728
4.9400,127.0317448
4.9450,126.5235896
4.9500,126.0108897
4.9550,125.4938304
4.9600,124.9723489
4.9650,124.4467578
4.9700,123.9168233
4.9750,123.3828223
4.9800,122.843895
4.9850,122.3002661
4.9900,121.7516465
4.9950,121.1980284
5.0000,120.6394469
5.0050,120.0760948
5.0100,119.5077435
5.0150,118.9343668
5.0200,118.3561512
5.0250,117.7732247
5.0300,117.1857584
5.0350,116.5933933
5.0400,115.9960299
5.0450,115.3934564
5.0500,114.7852399
5.0550,114.1713062
5.0600,113.5515354
5.0650,112.9263357
5.0700,112.2960434
5.0750,111.6606158
5.0800,111.019824
5.0850,110.3736983
5.0900,109.7222274
5.0950,109.0656864
5.1000,108.4043007
5.1050,107.7378353
5.1100,107.0672476
5.1150,106.3921746
5.1200,105.7132651
5.1250,105.0306791
5.1300,104.344605
5.1350,103.6552021
5.1400,102.9630633
