type,name,time_units,begin_time,frequency,count,units
signal,"Noraxon MyoMotion-Segments-Forearm RT-Course","s",0.0000,200,5008,"deg"

time,value
0.0000,-31.14206609
0.0050,-31.1379476
0.0100,-31.13382909
0.0150,-31.12971055
0.0200,-31.12536456
0.0250,-31.12083196
0.0300,-31.11615498
0.0350,-31.11137463
0.0400,-31.1065283
0.0450,-31.10164774
0.0500,-31.09675816
0.0550,-31.09187886
0.0600,-31.08702417
0.0650,-31.0822038
0.0700,-31.07742301
0.0750,-31.07268435
0.0800,-31.06799025
0.0850,-31.06334576
0.0900,-31.05875985
0.0950,-31.05424446
0.1000,-31.04981222
0.1050,-31.04547487
0.1100,-31.0412431
0.1150,-31.03712692
0.1200,-31.03313649
0.1250,-31.02928354
0.1300,-31.02558308
0.1350,-31.02205433
0.1400,-31.01872102
0.1450,-31.01561118
0.1500,-31.01275638
0.1550,-31.00800133
0.1600,-31.00378746
0.1650,-31.00011094
0.1700,-30.99684967
0.1750,-30.99411169
0.1800,-30.9919053
0.1850,-30.99018703
0.1900,-30.98907795
0.1950,-30.98846486
0.2000,-30.98814698
0.2050,-30.9880745
0.2100,-30.98845324
0.2150,-30.98922956
0.2200,-30.99026169
0.2250,-30.99157055
0.2300,-30.99308392
0.2350,-30.99476639
0.2400,-30.99673354
0.2450,-30.99895026
0.2500,-31.00113666
0.2550,-31.00335618
0.2600,-31.00548618
0.2650,-31.00760199
0.2700,-31.00964346
0.2750,-31.01149332
0.2800,-31.01313497
0.2850,-31.01444939
0.2900,-31.01538634
0.2950,-31.0159287
0.3000,-31.01600878
0.3050,-31.01547257
0.3100,-31.01421603
0.3150,-31.0123621
0.3200,-31.00996678
0.3250,-31.00696953
0.3300,-31.00336229
0.3350,-30.99928468
0.3400,-30.99475735
0.3450,-30.98969908
0.3500,-30.98423901
0.3550,-30.97853569
0.3600,-30.97242765
0.3650,-30.96603928
0.3700,-30.95944838
0.3750,-30.95259651
0.3800,-30.94560124
0.3850,-30.9387735
0.3900,-30.93196483
0.3950,-30.92541099
0.4000,-30.91890005
0.4050,-30.91271981
0.4100,-30.90665161
0.4150,-30.90097211
0.4200,-30.89544548
0.4250,-30.89022098
0.4300,-30.88530879
0.4350,-30.88076808
0.4400,-30.87648445
0.4450,-30.87264048
0.4500,-30.86920826
0.4550,-30.86618589
0.4600,-30.8634603
0.4650,-30.86102784
0.4700,-30.85899043
0.4750,-30.85714923
0.4800,-30.85552518
0.4850,-30.85392174
0.4900,-30.85219789
0.4950,-30.84997041
0.5000,-30.84742812
0.5050,-30.84414081
0.5100,-30.83986219
0.5150,-30.83467794
0.5200,-30.82839463
0.5250,-30.8211028
0.5300,-30.81254448
0.5350,-30.80256219
0.5400,-30.79085548
0.5450,-30.77718419
0.5500,-30.76150408
0.5550,-30.74342093
0.5600,-30.72277712
0.5650,-30.69929253
0.5700,-30.67286965
0.5750,-30.64350354
0.5800,-30.61128919
0.5850,-30.57647417
0.5900,-30.53907455
0.5950,-30.4993161
0.6000,-30.45739606
0.6050,-30.41352136
0.6100,-30.36784755
0.6150,-30.32057928
0.6200,-30.27158246
0.6250,-30.22099396
0.6300,-30.16905616
0.6350,-30.11607682
0.6400,-30.06188848
0.6450,-30.00704941
0.6500,-29.95165407
0.6550,-29.8959525
0.6600,-29.84011547
0.6650,-29.78451697
0.6700,-29.72915207
0.6750,-29.67433624
0.6800,-29.62004687
0.6850,-29.566186
0.6900,-29.51300001
0.6950,-29.46023008
0.7000,-29.40828788
0.7050,-29.35710868
0.7100,-29.30705174
0.7150,-29.25819339
0.7200,-29.21102221
0.7250,-29.1657652
0.7300,-29.12229726
0.7350,-29.08090662
0.7400,-29.04168841
0.7450,-29.00447965
0.7500,-28.96950389
0.7550,-28.93660569
0.7600,-28.90592372
0.7650,-28.87740907
0.7700,-28.85088914
0.7750,-28.8263764
0.7800,-28.80378329
0.7850,-28.78311521
0.7900,-28.76420639
0.7950,-28.74710523
0.8000,-28.73161381
0.8050,-28.71791414
0.8100,-28.70568591
0.8150,-28.69470883
0.8200,-28.68476927
0.8250,-28.675424
0.8300,-28.66655706
0.8350,-28.65811243
0.8400,-28.64999066
0.8450,-28.64220349
0.8500,-28.63468872
0.8550,-28.62756569
0.8600,-28.62098085
0.8650,-28.61518698
0.8700,-28.61014233
0.8750,-28.60595428
0.8800,-28.60255674
0.8850,-28.59989347
0.8900,-28.59795629
0.8950,-28.59664356
0.9000,-28.59608337
0.9050,-28.59615722
0.9100,-28.59664855
0.9150,-28.59761694
0.9200,-28.59921239
0.9250,-28.60136702
0.9300,-28.60391537
0.9350,-28.60667774
0.9400,-28.60987992
0.9450,-28.61317856
0.9500,-28.6167592
0.9550,-28.62033371
0.9600,-28.62405422
0.9650,-28.62758699
0.9700,-28.63106647
0.9750,-28.63433188
0.9800,-28.63735476
0.9850,-28.64024694
0.9900,-28.64298934
0.9950,-28.6459364
1.0000,-28.64920333
1.0050,-28.65325325
1.0100,-28.65836108
1.0150,-28.66467828
1.0200,-28.6721729
1.0250,-28.68066949
1.0300,-28.69034171
1.0350,-28.70081085
1.0400,-28.71213007
1.0450,-28.72450355
1.0500,-28.73782059
1.0550,-28.7521787
1.0600,-28.76765498
1.0650,-28.78426789
1.0700,-28.80214487
1.0750,-28.82142389
1.0800,-28.8421239
1.0850,-28.86418955
1.0900,-28.88793908
1.0950,-28.91338333
1.1000,-28.94038411
1.1050,-28.96900764
1.1100,-28.9994503
1.1150,-29.03143314
1.1200,-29.06478923
1.1250,-29.0994043
1.1300,-29.13509481
1.1350,-29.17166717
1.1400,-29.20884922
1.1450,-29.24642525
1.1500,-29.28403883
1.1550,-29.32158308
1.1600,-29.35867439
1.1650,-29.39511151
1.1700,-29.4304897
1.1750,-29.4645313
1.1800,-29.49711835
1.1850,-29.52796398
1.1900,-29.55715014
1.1950,-29.58450737
1.2000,-29.60964646
1.2050,-29.63257561
1.2100,-29.65324957
1.2150,-29.67128176
1.2200,-29.68664673
1.2250,-29.69924649
1.2300,-29.70899275
1.2350,-29.71588562
1.2400,-29.71952247
1.2450,-29.72000178
1.2500,-29.71670624
1.2550,-29.7096103
1.2600,-29.69845137
1.2650,-29.68311172
1.2700,-29.66345638
1.2750,-29.63928552
1.2800,-29.61075364
1.2850,-29.57788625
1.2900,-29.54062931
1.2950,-29.4990822
1.3000,-29.45318787
1.3050,-29.40280753
1.3100,-29.34806628
1.3150,-29.28923621
1.3200,-29.2263552
1.3250,-29.15999061
1.3300,-29.09040778
1.3350,-29.01791619
1.3400,-28.94283189
1.3450,-28.86521436
1.3500,-28.78479418
1.3550,-28.70186909
1.3600,-28.6162321
1.3650,-28.52798467
1.3700,-28.43728881
1.3750,-28.34381461
1.3800,-28.24784671
1.3850,-28.14946832
1.3900,-28.04830889
1.3950,-27.94484226
1.4000,-27.83876343
1.4050,-27.72997621
1.4100,-27.61836765
1.4150,-27.50418989
1.4200,-27.38760439
1.4250,-27.26855464
1.4300,-27.14742414
1.4350,-27.02410772
1.4400,-26.89880623
1.4450,-26.77180385
1.4500,-26.6433847
1.4550,-26.51359331
1.4600,-26.38276927
1.4650,-26.25089416
1.4700,-26.11821395
1.4750,-25.98482716
1.4800,-25.8506278
1.4850,-25.7156296
1.4900,-25.57979478
1.4950,-25.44312201
1.5000,-25.30594814
1.5050,-25.16821905
1.5100,-25.03020368
1.5150,-24.89218193
1.5200,-24.75412825
1.5250,-24.61626336
1.5300,-24.47877993
1.5350,-24.34159182
1.5400,-24.20481594
1.5450,-24.06826187
1.5500,-23.93196724
1.5550,-23.79594291
1.5600,-23.66019477
1.5650,-23.52494571
1.5700,-23.3898598
1.5750,-23.25513372
1.5800,-23.12047031
1.5850,-22.98605124
1.5900,-22.85184022
1.5950,-22.71796194
1.6000,-22.5846146
1.6050,-22.45197018
1.6100,-22.31997147
1.6150,-22.18842722
1.6200,-22.05771946
1.6250,-21.92747452
1.6300,-21.7977619
1.6350,-21.66861109
1.6400,-21.54013368
1.6450,-21.41211816
1.6500,-21.28497284
1.6550,-21.15851955
1.6600,-21.03290749
1.6650,-20.90809241
1.6700,-20.78372392
1.6750,-20.65988072
1.6800,-20.53632529
1.6850,-20.41284522
1.6900,-20.28960485
1.6950,-20.1662037
1.7000,-20.04285994
1.7050,-19.91930342
1.7100,-19.79557
1.7150,-19.67134458
1.7200,-19.54671856
1.7250,-19.42150657
1.7300,-19.29561411
1.7350,-19.16917229
1.7400,-19.04274943
1.7450,-18.91614748
1.7500,-18.78902293
1.7550,-18.66150567
1.7600,-18.53308994
1.7650,-18.40366475
1.7700,-18.27285078
1.7750,-18.14069192
1.7800,-18.00686995
1.7850,-17.87113227
1.7900,-17.73347037
1.7950,-17.59373174
1.8000,-17.45164904
1.8050,-17.30753362
1.8100,-17.16124083
1.8150,-17.0125791
1.8200,-16.86175254
1.8250,-16.70876281
1.8300,-16.55366524
1.8350,-16.3964425
1.8400,-16.23734169
1.8450,-16.07629735
1.8500,-15.91385493
1.8550,-15.74987306
1.8600,-15.58465104
1.8650,-15.41797461
1.8700,-15.2503664
1.8750,-15.08174844
1.8800,-14.9124207
1.8850,-14.74220191
1.8900,-14.57109955
1.8950,-14.39906276
1.9000,-14.22614657
1.9050,-14.05232484
1.9100,-13.87757623
1.9150,-13.70194832
1.9200,-13.52518956
1.9250,-13.34754575
1.9300,-13.16870946
1.9350,-12.98859199
1.9400,-12.80700803
1.9450,-12.62415678
1.9500,-12.43990312
1.9550,-12.25416474
1.9600,-12.06693541
1.9650,-11.87817748
1.9700,-11.68795435
1.9750,-11.4963175
1.9800,-11.30299357
1.9850,-11.10771903
1.9900,-10.91023606
1.9950,-10.71050669
2.0000,-10.50838867
2.0050,-10.30393498
2.0100,-10.09708275
2.0150,-9.888129656
2.0200,-9.67661885
2.0250,-9.462985089
2.0300,-9.246846219
2.0350,-9.028412651
2.0400,-8.807202807
2.0450,-8.583390224
2.0500,-8.35726892
2.0550,-8.128764927
2.0600,-7.898059312
2.0650,-7.665283786
2.0700,-7.430828827
2.0750,-7.19452444
2.0800,-6.956567645
2.0850,-6.716917227
2.0900,-6.47550885
2.0950,-6.232090153
2.1000,-5.986793213
2.1050,-5.739110673
2.1100,-5.489041086
2.1150,-5.236414371
2.1200,-4.980812211
2.1250,-4.722098091
2.1300,-4.459851209
2.1350,-4.194038615
2.1400,-3.92449483
2.1450,-3.651255608
2.1500,-3.374231481
2.1550,-3.093464608
2.1600,-2.808902862
2.1650,-2.520482137
2.1700,-2.228430043
2.1750,-1.932777757
2.1800,-1.633341276
2.1850,-1.33050775
2.1900,-1.024108078
2.1950,-0.7142081921
2.2000,-0.4008609518
2.2050,-0.084303111
2.2100,0.2355977907
2.2150,0.5588382247
2.2200,0.8853946949
2.2250,1.215265275
2.2300,1.548257191
2.2350,1.884570741
2.2400,2.224263104
2.2450,2.567382404
2.2500,2.914184713
2.2550,3.264666757
2.2600,3.619097367
2.2650,3.977027794
2.2700,4.338851917
2.2750,4.704720515
2.2800,5.074397794
2.2850,5.447771172
2.2900,5.824364734
2.2950,6.204468904
2.3000,6.587751782
2.3050,6.973858587
2.3100,7.362867056
2.3150,7.755080038
2.3200,8.149705579
2.3250,8.54676954
2.3300,8.945981557
2.3350,9.34711904
2.3400,9.75018103
2.3450,10.15502013
2.3500,10.56115788
2.3550,10.96875072
2.3600,11.37772606
2.3650,11.78809532
2.3700,12.19994992
2.3750,12.61308208
2.3800,13.02781898
2.3850,13.4441882
2.3900,13.86217109
2.3950,14.28164027
2.4000,14.70305145
2.4050,15.12600686
2.4100,15.55043389
2.4150,15.97636853
2.4200,16.40378148
2.4250,16.83241899
2.4300,17.26214644
2.4350,17.69263593
2.4400,18.12379059
2.4450,18.55522193
2.4500,18.98704559
2.4550,19.41875862
2.4600,19.85029715
2.4650,20.28125083
2.4700,20.7116423
2.4750,21.14134255
2.4800,21.57024834
2.4850,21.99872171
2.4900,22.42653649
2.4950,22.8533775
2.5000,23.27907862
2.5050,23.70381895
2.5100,24.12736133
2.5150,24.54951121
2.5200,24.96971601
2.5250,25.38790584
2.5300,25.80413341
2.5350,26.21805602
2.5400,26.62965019
2.5450,27.03880887
2.5500,27.44523849
2.5550,27.84884563
2.5600,28.24962998
2.5650,28.64772964
2.5700,29.04299023
2.5750,29.43500295
2.5800,29.82408555
2.5850,30.20985814
2.5900,30.59247766
2.5950,30.97148091
2.6000,31.34695783
2.6050,31.71900301
2.6100,32.08774379
2.6150,32.45289275
2.6200,32.8142317
2.6250,33.17211125
2.6300,33.52612218
2.6350,33.87642409
2.6400,34.22256791
2.6450,34.56436919
2.6500,34.90220006
2.6550,35.23588289
2.6600,35.56526165
2.6650,35.8904711
2.6700,36.21189896
2.6750,36.52959013
2.6800,36.84352674
2.6850,37.15361615
2.6900,37.46000165
2.6950,37.76262943
2.7000,38.06106122
2.7050,38.35554999
2.7100,38.64605109
2.7150,38.9323142
2.7200,39.21440288
2.7250,39.49272242
2.7300,39.76725601
2.7350,40.03824212
2.7400,40.30587213
2.7450,40.57014373
2.7500,40.83125729
2.7550,41.08930865
2.7600,41.34437691
2.7650,41.59690701
2.7700,41.84642954
2.7750,42.0929537
2.7800,42.33642354
2.7850,42.57661159
2.7900,42.81379749
2.7950,43.04802541
2.8000,43.27908009
2.8050,43.50707761
2.8100,43.73214367
2.8150,43.95419273
2.8200,44.1738158
2.8250,44.39126885
2.8300,44.6066178
2.8350,44.82023676
2.8400,45.03201816
2.8450,45.2419885
2.8500,45.45018838
2.8550,45.65670815
2.8600,45.86115307
2.8650,46.06365984
2.8700,46.26452117
2.8750,46.46401909
2.8800,46.66213563
2.8850,46.85885202
2.8900,47.05400146
2.8950,47.24794816
2.9000,47.44036711
2.9050,47.63141136
2.9100,47.82063693
2.9150,48.00790049
2.9200,48.19329198
2.9250,48.37681787
2.9300,48.55845534
2.9350,48.7378866
2.9400,48.91526006
2.9450,49.09030515
2.9500,49.26340072
2.9550,49.43427655
2.9600,49.60326532
2.9650,49.77052809
2.9700,49.93581827
2.9750,50.09966948
2.9800,50.26227126
2.9850,50.4235089
2.9900,50.58382736
2.9950,50.74298059
3.0000,50.90104258
3.0050,51.05788555
3.0100,51.21344997
3.0150,51.36777151
3.0200,51.52054683
3.0250,51.67154607
3.0300,51.82039419
3.0350,51.96725184
3.0400,52.11222263
3.0450,52.25506129
3.0500,52.39555271
3.0550,52.53390575
3.0600,52.67033613
3.0650,52.80460391
3.0700,52.93734994
3.0750,53.06889789
3.0800,53.19959006
3.0850,53.32936914
3.0900,53.45819703
3.0950,53.586379
3.1000,53.71399088
3.1050,53.84119257
3.1100,53.96815988
3.1150,54.09544361
3.1200,54.22302027
3.1250,54.3507386
3.1300,54.47824435
3.1350,54.60515233
3.1400,54.73150139
3.1450,54.85715085
3.1500,54.98239163
3.1550,55.10698369
3.1600,55.23133081
3.1650,55.35492295
3.1700,55.477344
3.1750,55.59849975
3.1800,55.71825661
3.1850,55.83685095
3.1900,55.95433679
3.1950,56.07056798
3.2000,56.18557906
3.2050,56.29941475
3.2100,56.41211019
3.2150,56.52341377
3.2200,56.63336521
3.2250,56.74142731
3.2300,56.84763604
3.2350,56.95207802
3.2400,57.05498863
3.2450,57.15664533
3.2500,57.25665933
3.2550,57.35519075
3.2600,57.45210841
3.2650,57.54719109
3.2700,57.64045671
3.2750,57.73156189
3.2800,57.82041912
3.2850,57.9068544
3.2900,57.9907437
3.2950,58.0722926
3.3000,58.15145957
3.3050,58.22843043
3.3100,58.3033848
3.3150,58.37602062
3.3200,58.44686846
3.3250,58.51608473
3.3300,58.58421725
3.3350,58.65105352
3.3400,58.71648407
3.3450,58.7809452
3.3500,58.84468357
3.3550,58.9076321
3.3600,58.96998079
3.3650,59.03212184
3.3700,59.09400393
3.3750,59.15608814
3.3800,59.21829659
3.3850,59.28094682
3.3900,59.34409422
3.3950,59.40791215
3.4000,59.47243519
3.4050,59.53743663
3.4100,59.60267183
3.4150,59.6678317
3.4200,59.73270583
3.4250,59.79719765
3.4300,59.86118402
3.4350,59.92458221
3.4400,59.98726791
3.4450,60.04900183
3.4500,60.10929304
3.4550,60.16814913
3.4600,60.2253874
3.4650,60.28089923
3.4700,60.33449996
3.4750,60.38644123
3.4800,60.43662822
3.4850,60.48514998
3.4900,60.53225657
3.4950,60.5781607
3.5000,60.62288957
3.5050,60.66662108
3.5100,60.70926464
3.5150,60.75132292
3.5200,60.79268071
3.5250,60.83358254
3.5300,60.87404531
3.5350,60.91411854
3.5400,60.95356516
3.5450,60.99233526
3.5500,61.03039337
3.5550,61.06785502
3.5600,61.1046976
3.5650,61.14109834
3.5700,61.1770513
3.5750,61.21277114
3.5800,61.24821042
3.5850,61.2835322
3.5900,61.31857616
3.5950,61.35305846
3.6000,61.38668771
3.6050,61.41970017
3.6100,61.45224325
3.6150,61.48476817
3.6200,61.51703146
3.6250,61.5491489
3.6300,61.58113246
3.6350,61.61315269
3.6400,61.64522268
3.6450,61.67732293
3.6500,61.7093827
3.6550,61.74190738
3.6600,61.77454639
3.6650,61.80731534
3.6700,61.84028398
3.6750,61.87323253
3.6800,61.90607391
3.6850,61.93902862
3.6900,61.97206892
3.6950,62.00496693
3.7000,62.03793055
3.7050,62.07093676
3.7100,62.10420893
3.7150,62.13765321
3.7200,62.17103991
3.7250,62.2043116
3.7300,62.23736966
3.7350,62.27021186
3.7400,62.30289953
3.7450,62.33550954
3.7500,62.36807402
3.7550,62.40066182
3.7600,62.43314894
3.7650,62.46576961
3.7700,62.49874816
3.7750,62.53188479
3.7800,62.56531357
3.7850,62.59923175
3.7900,62.63339736
3.7950,62.66769009
3.8000,62.70215466
3.8050,62.73665111
3.8100,62.77128116
3.8150,62.80568073
3.8200,62.83994902
3.8250,62.8739559
3.8300,62.90788147
3.8350,62.94168354
3.8400,62.975188
3.8450,63.00832048
3.8500,63.04102619
3.8550,63.07325374
3.8600,63.10517052
3.8650,63.13655174
3.8700,63.16735797
3.8750,63.19743795
3.8800,63.22681796
3.8850,63.25536849
3.8900,63.28338382
3.8950,63.31099758
3.9000,63.338676
3.9050,63.3661742
3.9100,63.39319615
3.9150,63.41986928
3.9200,63.44626695
3.9250,63.47227123
3.9300,63.49834966
3.9350,63.52442024
3.9400,63.55068724
3.9450,63.57705058
3.9500,63.60328693
3.9550,63.62917668
3.9600,63.65500646
3.9650,63.68058702
3.9700,63.7061923
3.9750,63.73197772
3.9800,63.75794563
3.9850,63.78398323
3.9900,63.81012638
3.9950,63.83615252
4.0000,63.86203919
4.0050,63.88777416
4.0100,63.91317337
4.0150,63.93842196
4.0200,63.96350067
4.0250,63.98838206
4.0300,64.01293238
4.0350,64.03697013
4.0400,64.06030179
4.0450,64.08325466
4.0500,64.10553485
4.0550,64.12732886
4.0600,64.14856719
4.0650,64.16939842
4.0700,64.18971524
4.0750,64.20961615
4.0800,64.22909888
4.0850,64.24776147
4.0900,64.26565884
4.0950,64.28286441
4.1000,64.29918299
4.1050,64.3146366
4.1100,64.32927273
4.1150,64.34318996
4.1200,64.35635099
4.1250,64.36859894
4.1300,64.37976818
4.1350,64.38968134
4.1400,64.39860668
4.1450,64.40632767
4.1500,64.41282731
4.1550,64.4179123
4.1600,64.42128535
4.1650,64.42319621
4.1700,64.42393685
4.1750,64.42339449
4.1800,64.42127357
4.1850,64.41769115
4.1900,64.41256355
4.1950,64.40631877
4.2000,64.39860436
4.2050,64.38932175
4.2100,64.37867962
4.2150,64.36662717
4.2200,64.35318312
4.2250,64.33859652
4.2300,64.32269106
4.2350,64.30553636
4.2400,64.28711798
4.2450,64.26736773
4.2500,64.24675425
4.2550,64.22506468
4.2600,64.2023028
4.2650,64.17873084
4.2700,64.15405032
4.2750,64.12819874
4.2800,64.10143134
4.2850,64.07360984
4.2900,64.04492648
4.2950,64.01549692
4.3000,63.98528985
4.3050,63.95436015
4.3100,63.92288851
4.3150,63.89065365
4.3200,63.85801329
4.3250,63.82479435
4.3300,63.79086731
4.3350,63.75653126
4.3400,63.72169666
4.3450,63.68601988
4.3500,63.64978903
4.3550,63.61281613
4.3600,63.57529707
4.3650,63.53701004
4.3700,63.49819049
4.3750,63.45860217
4.3800,63.41843408
4.3850,63.37745366
4.3900,63.33580138
4.3950,63.29350216
4.4000,63.25067802
4.4050,63.20711918
4.4100,63.16278168
4.4150,63.11769372
4.4200,63.07199951
4.4250,63.02581785
4.4300,62.97912306
4.4350,62.93173753
4.4400,62.88359427
4.4450,62.83482891
4.4500,62.78536691
4.4550,62.73560933
4.4600,62.68548508
4.4650,62.63473245
4.4700,62.58311362
4.4750,62.5306227
4.4800,62.47743287
4.4850,62.42346303
4.4900,62.36858552
4.4950,62.31245954
4.5000,62.25557818
4.5050,62.19792199
4.5100,62.13971067
4.5150,62.08086321
4.5200,62.0214031
4.5250,61.96126277
4.5300,61.9000784
4.5350,61.83803902
4.5400,61.77499895
4.5450,61.71128913
4.5500,61.64665335
4.5550,61.58145431
4.5600,61.51574254
4.5650,61.44959825
4.5700,61.38317065
4.5750,61.316285
4.5800,61.24884932
4.5850,61.18120576
4.5900,61.11315712
4.5950,61.04488535
4.6000,60.97653526
4.6050,60.90837145
4.6100,60.84023663
4.6150,60.77221343
4.6200,60.7039853
4.6250,60.6359384
4.6300,60.56833271
4.6350,60.50085664
4.6400,60.43364985
4.6450,60.36676401
4.6500,60.30011229
4.6550,60.23379458
4.6600,60.16792461
4.6650,60.1025153
4.6700,60.03751936
4.6750,59.97293455
4.6800,59.90865244
4.6850,59.84469469
4.6900,59.78098928
4.6950,59.71712203
4.7000,59.65327753
4.7050,59.58938345
4.7100,59.52538861
4.7150,59.46135852
4.7200,59.39682945
4.7250,59.33186106
4.7300,59.26639056
4.7350,59.20051939
4.7400,59.13413277
4.7450,59.06686201
4.7500,58.99871493
4.7550,58.92914856
4.7600,58.85841123
4.7650,58.78642703
4.7700,58.71287805
4.7750,58.63821841
4.7800,58.56211056
4.7850,58.48479568
4.7900,58.40648352
4.7950,58.3269296
4.8000,58.24606025
4.8050,58.16380224
4.8100,58.07977774
4.8150,57.99373591
4.8200,57.90529321
4.8250,57.81424876
4.8300,57.72060708
4.8350,57.62450085
4.8400,57.52593874
4.8450,57.42470885
4.8500,57.32061278
4.8550,57.21371589
4.8600,57.10378624
4.8650,56.99098847
4.8700,56.875543
4.8750,56.75779196
4.8800,56.63785947
4.8850,56.51554203
4.8900,56.39065208
4.8950,56.26302795
4.9000,56.13221472
4.9050,55.99799734
4.9100,55.86039042
4.9150,55.71965617
4.9200,55.57602446
4.9250,55.42934273
4.9300,55.27980884
4.9350,55.12773142
4.9400,54.97348213
4.9450,54.8172095
4.9500,54.65913655
4.9550,54.49918185
4.9600,54.33714978
4.9650,54.17314981
4.9700,54.00723071
4.9750,53.83967019
4.9800,53.67058925
4.9850,53.50057197
4.9900,53.32918745
4.9950,53.15684099
5.0000,52.98346572
5.0050,52.80924417
5.0100,52.63418512
5.0150,52.4584868
5.0200,52.28186002
5.0250,52.10397522
5.0300,51.92456798
5.0350,51.7433607
5.0400,51.55989944
5.0450,51.37416464
5.0500,51.1859828
5.0550,50.99537016
5.0600,50.80203364
5.0650,50.60585789
5.0700,50.40720475
5.0750,50.20559114
5.0800,50.00146679
5.0850,49.79459995
5.0900,49.58469356
5.0950,49.37229504
5.1000,49.15703777
5.1050,48.93900339
5.1100,48.71806088
5.1150,48.49466158
5.1200,48.26891494
5.1250,48.04076207
5.1300,47.81035124
5.1350,47.57711166
5.1400,47.34115482
5.1450,47.10277875
5.1500,46.86199459
5.1550,46.61853408
5.1600,46.37225007
5.1650,46.12291394
5.1700,45.87060975
5.1750,45.61490102
5.1800,45.35579327
5.1850,45.09325109
5.1900,44.8275589
5.1950,44.5586462
5.2000,44.28691128
5.2050,44.01246399
5.2100,43.7353017
5.2150,43.45544301
5.2200,43.17287913
5.2250,42.88800872
5.2300,42.60084172
5.2350,42.31090414
5.2400,42.01818761
5.2450,41.72221897
5.2500,41.42312214
5.2550,41.12079964
5.2600,40.81542434
5.2650,40.50692281
5.2700,40.19515668
5.2750,39.88008453
5.2800,39.56181092
5.2850,39.23984336
5.2900,38.91454052
5.2950,38.58584751
5.3000,38.25374379
5.3050,37.91829237
5.3100,37.5791854
5.3150,37.23606302
5.3200,36.88953699
5.3250,36.53937931
5.3300,36.18531407
5.3350,35.82758226
5.3400,35.46593807
5.3450,35.10048856
5.3500,34.73128914
5.3550,34.35849439
5.3600,33.98211594
5.3650,33.60213435
5.3700,33.2184617
5.3750,32.83138927
5.3800,32.440623
5.3850,32.04623382
5.3900,31.64834838
5.3950,31.24641129
5.4000,30.84053334
5.4050,30.43083919
5.4100,30.01707561
5.4150,29.59872297
5.4200,29.17595502
5.4250,28.74866638
5.4300,28.31668604
5.4350,27.87983101
5.4400,27.43817089
5.4450,26.99157872
5.4500,26.54002112
5.4550,26.08320922
5.4600,25.62159248
5.4650,25.15497014
5.4700,24.68296407
5.4750,24.20584401
5.4800,23.72349664
5.4850,23.23627562
5.4900,22.74413442
5.4950,22.24778395
5.5000,21.74755794
5.5050,21.24339871
5.5100,20.73595977
5.5150,20.22516629
5.5200,19.71126489
5.5250,19.19408493
5.5300,18.67386146
5.5350,18.15102874
5.5400,17.62543622
5.5450,17.0978002
5.5500,16.5679517
5.5550,16.03611939
5.5600,15.50262335
5.5650,14.96757571
5.5700,14.43125199
5.5750,13.89404766
5.5800,13.35587748
5.5850,12.81689678
5.5900,12.27750035
5.5950,11.73805509
5.6000,11.19853835
5.6050,10.6593874
5.6100,10.12122283
5.6150,9.584080315
5.6200,9.048129639
5.6250,8.514034363
5.6300,7.982031439
5.6350,7.452801351
5.6400,6.926376426
5.6450,6.403180393
5.6500,5.883413998
5.6550,5.367308836
5.6600,4.855019705
5.6650,4.346973509
5.6700,3.843130237
5.6750,3.343590486
5.6800,2.848980827
5.6850,2.358970602
5.6900,1.873640389
5.6950,1.393230012
5.7000,0.9175569708
5.7050,0.4469057897
5.7100,-0.0182994876
5.7150,-0.478560883
5.7200,-0.9339412869
5.7250,-1.384071711
5.7300,-1.829112433
5.7350,-2.26890127
5.7400,-2.703285779
5.7450,-3.132626695
5.7500,-3.556899226
5.7550,-3.976371804
5.7600,-4.390857814
5.7650,-4.800703187
5.7700,-5.205685036
5.7750,-5.60581909
5.7800,-6.00091227
5.7850,-6.391262163
5.7900,-6.776555598
5.7950,-7.157111238
5.8000,-7.533474844
5.8050,-7.905342197
5.8100,-8.273177015
5.8150,-8.636712077
5.8200,-8.996216782
5.8250,-9.351426392
5.8300,-9.702466815
5.8350,-10.04953166
5.8400,-10.39251387
5.8450,-10.73153396
5.8500,-11.06649528
5.8550,-11.39725907
5.8600,-11.72398884
5.8650,-12.04631296
5.8700,-12.363918
5.8750,-12.67675817
5.8800,-12.98489933
5.8850,-13.28863391
5.8900,-13.58813886
5.8950,-13.88345958
5.9000,-14.17454311
5.9050,-14.46150953
5.9100,-14.7443391
5.9150,-15.0228511
5.9200,-15.2970493
5.9250,-15.56695075
5.9300,-15.83264506
5.9350,-16.09456198
5.9400,-16.35223273
5.9450,-16.60596185
5.9500,-16.85603586
5.9550,-17.10270268
5.9600,-17.34606031
5.9650,-17.58608977
5.9700,-17.82265891
5.9750,-18.05623918
5.9800,-18.28683231
5.9850,-18.5139739
5.9900,-18.73801125
5.9950,-18.95871944
6.0000,-19.17628983
6.0050,-19.39095459
6.0100,-19.60319974
6.0150,-19.81270664
6.0200,-20.01987245
6.0250,-20.22557559
6.0300,-20.43009205
6.0350,-20.6336004
6.0400,-20.83621063
6.0450,-21.03790515
6.0500,-21.23835833
6.0550,-21.43744755
6.0600,-21.63522236
6.0650,-21.83156876
6.0700,-22.02683329
6.0750,-22.22117963
6.0800,-22.414731
6.0850,-22.60760856
6.0900,-22.79991516
6.0950,-22.99137065
6.1000,-23.18108355
6.1050,-23.36925067
6.1100,-23.55553573
6.1150,-23.7396836
6.1200,-23.92166086
6.1250,-24.10158137
6.1300,-24.27959327
6.1350,-24.45569597
6.1400,-24.6300635
6.1450,-24.80298579
6.1500,-24.97458372
6.1550,-25.14533624
6.1600,-25.31471652
6.1650,-25.48291794
6.1700,-25.64997161
6.1750,-25.81601328
6.1800,-25.98072726
6.1850,-26.14431446
6.1900,-26.30655963
6.1950,-26.46708614
6.2000,-26.62601045
6.2050,-26.78339713
6.2100,-26.93938945
6.2150,-27.09423668
6.2200,-27.24806968
6.2250,-27.40120661
6.2300,-27.55349301
6.2350,-27.70503494
6.2400,-27.85579786
6.2450,-28.00536479
6.2500,-28.15349942
6.2550,-28.29974768
6.2600,-28.44415627
6.2650,-28.58665911
6.2700,-28.72758594
6.2750,-28.8665621
6.2800,-29.00370393
6.2850,-29.13940419
6.2900,-29.2734066
6.2950,-29.40588467
6.3000,-29.53683606
6.3050,-29.66590666
6.3100,-29.79310232
6.3150,-29.91825949
6.3200,-30.04131584
6.3250,-30.16169215
6.3300,-30.27943843
6.3350,-30.39429913
6.3400,-30.50656283
6.3450,-30.61616276
6.3500,-30.72324244
6.3550,-30.82812475
6.3600,-30.93084823
6.3650,-31.03150789
6.3700,-31.12976242
6.3750,-31.2255002
6.3800,-31.31864088
6.3850,-31.40907777
6.3900,-31.4969047
6.3950,-31.58230871
6.4000,-31.66569221
6.4050,-31.74686528
6.4100,-31.82593744
6.4150,-31.90325612
6.4200,-31.9787243
6.4250,-32.05234461
6.4300,-32.12403346
6.4350,-32.19376505
6.4400,-32.26147051
6.4450,-32.32688693
6.4500,-32.38986416
6.4550,-32.45035873
6.4600,-32.50877637
6.4650,-32.56512664
6.4700,-32.61982197
6.4750,-32.67314868
6.4800,-32.72539086
6.4850,-32.77630236
6.4900,-32.82631304
6.4950,-32.87571822
6.5000,-32.92465072
6.5050,-32.97334636
6.5100,-33.02177947
6.5150,-33.07002923
6.5200,-33.118189
6.5250,-33.16626598
6.5300,-33.21439588
6.5350,-33.26253493
6.5400,-33.31076215
6.5450,-33.35904483
6.5500,-33.40754942
6.5550,-33.4563926
6.5600,-33.50561777
6.5650,-33.55528412
6.5700,-33.60505886
6.5750,-33.65496829
6.5800,-33.70493278
6.5850,-33.7548187
6.5900,-33.80444902
6.5950,-33.85359413
6.6000,-33.9019575
6.6050,-33.94971291
6.6100,-33.99657278
6.6150,-34.04278262
6.6200,-34.08835879
6.6250,-34.13341748
6.6300,-34.17801816
6.6350,-34.22228722
6.6400,-34.26590582
6.6450,-34.30890408
6.6500,-34.35104137
6.6550,-34.39193157
6.6600,-34.43159706
6.6650,-34.46984572
6.6700,-34.50653142
6.6750,-34.54158697
6.6800,-34.57472104
6.6850,-34.60588623
6.6900,-34.6347715
6.6950,-34.66132887
6.7000,-34.68543844
6.7050,-34.70723697
6.7100,-34.72673575
6.7150,-34.74392933
6.7200,-34.75884834
6.7250,-34.7714765
6.7300,-34.78184538
6.7350,-34.78999161
6.7400,-34.79595108
6.7450,-34.79990938
6.7500,-34.80195869
6.7550,-34.80225076
6.7600,-34.80079489
6.7650,-34.79780958
6.7700,-34.79339397
6.7750,-34.78757528
6.7800,-34.78088386
6.7850,-34.77363457
6.7900,-34.76558824
6.7950,-34.75688691
6.8000,-34.74761358
6.8050,-34.73749178
6.8100,-34.7264571
6.8150,-34.71458381
6.8200,-34.70195076
6.8250,-34.68838413
6.8300,-34.67392445
6.8350,-34.65882656
6.8400,-34.64329436
6.8450,-34.62751161
6.8500,-34.61159717
6.8550,-34.59581126
6.8600,-34.58027274
6.8650,-34.56514932
6.8700,-34.55062123
6.8750,-34.53675615
6.8800,-34.5237729
6.8850,-34.51175622
6.8900,-34.50084852
6.8950,-34.49127293
6.9000,-34.48316672
6.9050,-34.47666606
6.9100,-34.47216697
6.9150,-34.46972309
6.9200,-34.46933913
6.9250,-34.47109542
6.9300,-34.47515072
6.9350,-34.48119907
6.9400,-34.48935598
6.9450,-34.49937431
6.9500,-34.5113041
6.9550,-34.52476624
6.9600,-34.53992513
6.9650,-34.55643952
6.9700,-34.574336
6.9750,-34.59332952
6.9800,-34.61367818
6.9850,-34.63483623
6.9900,-34.65702904
6.9950,-34.68012423
7.0000,-34.70388131
7.0050,-34.72817901
7.0100,-34.7529693
7.0150,-34.77789159
7.0200,-34.8029817
7.0250,-34.82800873
7.0300,-34.85268116
7.0350,-34.87703692
7.0400,-34.90089602
7.0450,-34.92414208
7.0500,-34.946881
7.0550,-34.96892386
7.0600,-34.99058979
7.0650,-35.01182168
7.0700,-35.03263413
7.0750,-35.05312004
7.0800,-35.07273566
7.0850,-35.09126724
7.0900,-35.10897113
7.0950,-35.12571943
7.1000,-35.14148616
7.1050,-35.15631457
7.1100,-35.17010734
7.1150,-35.18292921
7.1200,-35.19488801
7.1250,-35.2060903
7.1300,-35.21653306
7.1350,-35.22610408
7.1400,-35.23454156
7.1450,-35.24182726
7.1500,-35.24794253
7.1550,-35.25279485
7.1600,-35.25627205
7.1650,-35.25846191
7.1700,-35.2595086
7.1750,-35.25944489
7.1800,-35.25815238
7.1850,-35.2557592
7.1900,-35.25222346
7.1950,-35.24744022
7.2000,-35.24151463
7.2050,-35.23451809
7.2100,-35.22620252
7.2150,-35.21671068
7.2200,-35.20616194
7.2250,-35.19455534
7.2300,-35.18199639
7.2350,-35.16873937
7.2400,-35.15461358
7.2450,-35.13946782
7.2500,-35.12311025
7.2550,-35.10575434
7.2600,-35.08697998
7.2650,-35.0668081
7.2700,-35.04519943
7.2750,-35.02243979
7.2800,-34.9979684
7.2850,-34.97216596
7.2900,-34.9447696
7.2950,-34.91558959
7.3000,-34.88474426
7.3050,-34.85199052
7.3100,-34.81721636
7.3150,-34.78024559
7.3200,-34.74088874
7.3250,-34.69899227
7.3300,-34.65463241
7.3350,-34.60768379
7.3400,-34.55791805
7.3450,-34.50520844
7.3500,-34.44949939
7.3550,-34.39082962
7.3600,-34.32890591
7.3650,-34.26380835
7.3700,-34.19567387
7.3750,-34.12449863
7.3800,-34.05079193
7.3850,-33.97464304
7.3900,-33.89606926
7.3950,-33.81520996
7.4000,-33.73207329
7.4050,-33.64701674
7.4100,-33.56034815
7.4150,-33.47191885
7.4200,-33.3820146
7.4250,-33.29068295
7.4300,-33.19817981
7.4350,-33.10452264
7.4400,-33.01019983
7.4450,-32.91529901
7.4500,-32.81970893
7.4550,-32.72346892
7.4600,-32.62677515
7.4650,-32.52943176
7.4700,-32.43125479
7.4750,-32.33202923
7.4800,-32.23178139
7.4850,-32.13020411
7.4900,-32.02749466
7.4950,-31.92398783
7.5000,-31.81982515
7.5050,-31.71524774
7.5100,-31.6106383
7.5150,-31.50580064
7.5200,-31.40076763
7.5250,-31.29541971
7.5300,-31.1895453
7.5350,-31.08292796
7.5400,-30.97559264
7.5450,-30.86790183
7.5500,-30.76000204
7.5550,-30.65221722
7.5600,-30.54491048
7.5650,-30.43861263
7.5700,-30.3332484
7.5750,-30.22880204
7.5800,-30.12588376
7.5850,-30.02450766
7.5900,-29.92485487
7.5950,-29.82710145
7.6000,-29.73129037
7.6050,-29.63737741
7.6100,-29.54543636
7.6150,-29.45574038
7.6200,-29.36799873
7.6250,-29.28218676
7.6300,-29.1981642
7.6350,-29.11570592
7.6400,-29.03468269
7.6450,-28.9551724
7.6500,-28.87714943
7.6550,-28.80038352
7.6600,-28.72489628
7.6650,-28.65030537
7.6700,-28.576225
7.6750,-28.50233147
7.6800,-28.42814843
7.6850,-28.35345153
7.6900,-28.27802048
7.6950,-28.20169847
7.7000,-28.12440236
7.7050,-28.04570226
7.7100,-27.96556986
7.7150,-27.88435991
7.7200,-27.80138029
7.7250,-27.71681185
7.7300,-27.63060863
7.7350,-27.54287837
7.7400,-27.45309995
7.7450,-27.36121831
7.7500,-27.26714895
7.7550,-27.17065493
7.7600,-27.0714016
7.7650,-26.9692387
7.7700,-26.86393585
7.7750,-26.75588302
7.7800,-26.6448992
7.7850,-26.53115263
7.7900,-26.41453209
7.7950,-26.2945849
7.8000,-26.17118895
7.8050,-26.04375149
7.8100,-25.91175876
7.8150,-25.77550688
7.8200,-25.63456368
7.8250,-25.48921303
7.8300,-25.33917227
7.8350,-25.18463321
7.8400,-25.02579468
7.8450,-24.86244422
7.8500,-24.6948621
7.8550,-24.52284099
7.8600,-24.34663108
7.8650,-24.16593075
7.8700,-23.98098661
7.8750,-23.79187875
7.8800,-23.59843882
7.8850,-23.40088035
7.8900,-23.19930847
7.8950,-22.99393713
7.9000,-22.78492672
7.9050,-22.57273344
7.9100,-22.3573402
7.9150,-22.1386935
7.9200,-21.91703461
7.9250,-21.69265057
7.9300,-21.46533008
7.9350,-21.23500198
7.9400,-21.00213632
7.9450,-20.76625294
7.9500,-20.52739479
7.9550,-20.28574985
7.9600,-20.04106858
7.9650,-19.79329627
7.9700,-19.5423658
7.9750,-19.28850371
7.9800,-19.0318112
7.9850,-18.77246916
7.9900,-18.51033579
7.9950,-18.24558276
8.0000,-17.97864219
8.0050,-17.70938226
8.0100,-17.43773631
8.0150,-17.16366239
8.0200,-16.88745084
8.0250,-16.60913036
8.0300,-16.32852477
8.0350,-16.04581966
8.0400,-15.76097786
8.0450,-15.47392542
8.0500,-15.18459678
8.0550,-14.89323527
8.0600,-14.59959202
8.0650,-14.30362325
8.0700,-14.00535771
8.0750,-13.70451801
8.0800,-13.40099002
8.0850,-13.09479321
8.0900,-12.7856819
8.0950,-12.47368125
8.1000,-12.1586465
8.1050,-11.84063857
8.1100,-11.52013217
8.1150,-11.19667655
8.1200,-10.87049142
8.1250,-10.54136137
8.1300,-10.20924015
8.1350,-9.874272744
8.1400,-9.536691374
8.1450,-9.196451429
8.1500,-8.853203965
8.1550,-8.507244424
8.1600,-8.158521618
8.1650,-7.806999551
8.1700,-7.452897586
8.1750,-7.095773179
8.1800,-6.735976183
8.1850,-6.373345528
8.1900,-6.007791821
8.1950,-5.639121856
8.2000,-5.267274395
8.2050,-4.891895287
8.2100,-4.513225711
8.2150,-4.131144677
8.2200,-3.745355127
8.2250,-3.35557765
8.2300,-2.962057969
8.2350,-2.565111373
8.2400,-2.164363441
8.2450,-1.760134634
8.2500,-1.352221317
8.2550,-0.9404246093
8.2600,-0.5249389461
8.2650,-0.1059686141
8.2700,0.3164295376
8.2750,0.7421283498
8.2800,1.171262398
8.2850,1.603773591
8.2900,2.039581457
8.2950,2.478561794
8.3000,2.920833716
8.3050,3.366071288
8.3100,3.813988047
8.3150,4.264866976
8.3200,4.718608684
8.3250,5.175084888
8.3300,5.634023743
8.3350,6.095751722
8.3400,6.559903414
8.3450,7.026167346
8.3500,7.494654381
8.3550,7.965439039
8.3600,8.437897646
8.3650,8.912191294
8.3700,9.388099297
8.3750,9.865495152
8.3800,10.34403387
8.3850,10.8237879
8.3900,11.30465506
8.3950,11.78622904
8.4000,12.26866499
8.4050,12.75185719
8.4100,13.23562747
8.4150,13.72001937
8.4200,14.20492736
8.4250,14.69045988
8.4300,15.17598664
8.4350,15.66165521
8.4400,16.14789561
8.4450,16.63411074
8.4500,17.12031368
8.4550,17.60633381
8.4600,18.09207412
8.4650,18.57734532
8.4700,19.06231482
8.4750,19.54651809
8.4800,20.03029542
8.4850,20.51352265
8.4900,20.99582206
8.4950,21.47706117
8.5000,21.95727855
8.5050,22.43626356
8.5100,22.91391956
8.5150,23.39000962
8.5200,23.86436433
8.5250,24.33686941
8.5300,24.80731911
8.5350,25.27603822
8.5400,25.74302686
8.5450,26.20849338
8.5500,26.67186239
8.5550,27.13306891
8.5600,27.59251817
8.5650,28.05006975
8.5700,28.50555944
8.5750,28.95905489
8.5800,29.40988434
8.5850,29.85785758
8.5900,30.30322232
8.5950,30.74598004
8.6000,31.18579951
8.6050,31.62282553
8.6100,32.05681247
8.6150,32.4877098
8.6200,32.91518988
8.6250,33.33951985
8.6300,33.76108617
8.6350,34.1793731
8.6400,34.59414041
8.6450,35.00546233
8.6500,35.41325057
8.6550,35.81780416
8.6600,36.21922586
8.6650,36.61718279
8.6700,37.01181599
8.6750,37.40344229
8.6800,37.79242106
8.6850,38.17900685
8.6900,38.56321851
8.6950,38.94528683
8.7000,39.32547448
8.7050,39.70333665
8.7100,40.07939411
8.7150,40.45372302
8.7200,40.8260616
8.7250,41.19608234
8.7300,41.56372637
8.7350,41.92839079
8.7400,42.29001173
8.7450,42.64879593
8.7500,43.00443885
8.7550,43.35747247
8.7600,43.70778496
8.7650,44.05531043
8.7700,44.39993127
8.7750,44.74182918
8.7800,45.08083289
8.7850,45.41689827
8.7900,45.74985576
8.7950,46.0800568
8.8000,46.40772356
8.8050,46.73258027
8.8100,47.05530266
8.8150,47.37590722
8.8200,47.69469831
8.8250,48.01189733
8.8300,48.32790535
8.8350,48.64278251
8.8400,48.95629166
8.8450,49.26810277
8.8500,49.57791578
8.8550,49.88539133
8.8600,50.19014655
8.8650,50.49191782
8.8700,50.79042118
8.8750,51.08546455
8.8800,51.37695038
8.8850,51.66491
8.8900,51.94878128
8.8950,52.22781411
8.9000,52.50242074
8.9050,52.77201522
8.9100,53.03709549
8.9150,53.29661997
8.9200,53.55052395
8.9250,53.79839822
8.9300,54.04109105
8.9350,54.27907711
8.9400,54.51305723
8.9450,54.7441324
8.9500,54.97237823
8.9550,55.19801705
8.9600,55.421386
8.9650,55.64250758
8.9700,55.86143039
8.9750,56.0782026
8.9800,56.2926223
8.9850,56.50433544
8.9900,56.71347485
8.9950,56.91995017
9.0000,57.12377779
9.0050,57.32544279
9.0100,57.52496786
9.0150,57.72248383
9.0200,57.91831719
9.0250,58.11257443
9.0300,58.30553215
9.0350,58.49759508
9.0400,58.68820422
9.0450,58.87757243
9.0500,59.06584564
9.0550,59.25288011
9.0600,59.43863764
9.0650,59.62300769
9.0700,59.80624908
9.0750,59.98868681
9.0800,60.17011928
9.0850,60.35055337
9.0900,60.52965234
9.0950,60.70661945
9.1000,60.880727
9.1050,61.05203701
9.1100,61.22006648
9.1150,61.38447255
9.1200,61.54520394
9.1250,61.70224588
9.1300,61.85544654
9.1350,62.00484358
9.1400,62.15033991
9.1450,62.29211428
9.1500,62.43080326
9.1550,62.56685109
9.1600,62.70012548
9.1650,62.83132861
9.1700,62.96071013
9.1750,63.0882332
9.1800,63.21394416
9.1850,63.33735578
9.1900,63.45847426
9.1950,63.57787466
9.2000,63.69552821
9.2050,63.81192773
9.2100,63.92688106
9.2150,64.04128912
9.2200,64.15544743
9.2250,64.26970211
9.2300,64.38355646
9.2350,64.49674313
9.2400,64.60907309
9.2450,64.71997413
9.2500,64.82964471
9.2550,64.93783554
9.2600,65.04431989
9.2650,65.14968835
9.2700,65.25413817
9.2750,65.35805069
9.2800,65.46160831
9.2850,65.56487774
9.2900,65.66766222
9.2950,65.77013772
9.3000,65.87212691
9.3050,65.97336339
9.3100,66.07377541
9.3150,66.17270499
9.3200,66.27005637
9.3250,66.36590808
9.3300,66.46047436
9.3350,66.55364015
9.3400,66.64535526
9.3450,66.73548249
9.3500,66.82363516
9.3550,66.90976381
9.3600,66.99422867
9.3650,67.07714822
9.3700,67.15854059
9.3750,67.23811612
9.3800,67.31563536
9.3850,67.39102884
9.3900,67.4641821
9.3950,67.53574126
9.4000,67.60557481
9.4050,67.67378447
9.4100,67.74031657
9.4150,67.80557581
9.4200,67.8696981
9.4250,67.93253806
9.4300,67.99416971
9.4350,68.05451414
9.4400,68.113968
9.4450,68.17254897
9.4500,68.22992049
9.4550,68.2862159
9.4600,68.34162592
9.4650,68.39610513
9.4700,68.44956197
9.4750,68.50189973
9.4800,68.55323554
9.4850,68.60421553
9.4900,68.65516222
9.4950,68.70603922
9.5000,68.75675589
9.5050,68.80705317
9.5100,68.8569421
9.5150,68.90609143
9.5200,68.95449334
9.5250,69.00180711
9.5300,69.04768017
9.5350,69.09203141
9.5400,69.13471732
9.5450,69.17592005
9.5500,69.21564411
9.5550,69.25413816
9.5600,69.29184634
9.5650,69.32840241
9.5700,69.36392025
9.5750,69.39842969
9.5800,69.43163143
9.5850,69.46370299
9.5900,69.4946668
9.5950,69.52444117
9.6000,69.55323827
9.6050,69.58107035
9.6100,69.60785355
9.6150,69.63392062
9.6200,69.65893947
9.6250,69.68291166
9.6300,69.70589211
9.6350,69.72805076
9.6400,69.75000416
9.6450,69.77164396
9.6500,69.79328627
9.6550,69.81489067
9.6600,69.83631812
9.6650,69.85763587
9.6700,69.87879744
9.6750,69.89961914
9.6800,69.9201671
9.6850,69.94060611
9.6900,69.9609336
9.6950,69.9809796
9.7000,70.0012589
9.7050,70.02126379
9.7100,70.04101363
9.7150,70.06042624
9.7200,70.0791649
9.7250,70.09747135
9.7300,70.11534735
9.7350,70.13290938
9.7400,70.15017456
9.7450,70.16711966
9.7500,70.1839376
9.7550,70.20054299
9.7600,70.21693511
9.7650,70.23340957
9.7700,70.24990281
9.7750,70.26688397
9.7800,70.28421915
9.7850,70.30196601
9.7900,70.32016926
9.7950,70.33862041
9.8000,70.35728361
9.8050,70.37627351
9.8100,70.39554376
9.8150,70.41528664
9.8200,70.4353196
9.8250,70.45576418
9.8300,70.47682986
9.8350,70.49850309
9.8400,70.52056257
9.8450,70.54291582
9.8500,70.56522797
9.8550,70.58737501
9.8600,70.60924915
9.8650,70.63087411
9.8700,70.65199562
9.8750,70.67237291
9.8800,70.69213815
9.8850,70.71113698
9.8900,70.72944238
9.8950,70.74683772
9.9000,70.76309559
9.9050,70.77799577
9.9100,70.79166683
9.9150,70.80394028
9.9200,70.81503408
9.9250,70.82458967
9.9300,70.83237953
9.9350,70.8381455
9.9400,70.8417486
9.9450,70.8432936
9.9500,70.84268014
9.9550,70.83985544
9.9600,70.83473543
9.9650,70.82731712
9.9700,70.81724831
9.9750,70.80501348
9.9800,70.79053823
9.9850,70.77386903
9.9900,70.75526053
9.9950,70.73452245
10.0000,70.71167474
10.0050,70.68699882
10.0100,70.66020129
10.0150,70.63136968
10.0200,70.60058702
10.0250,70.56788049
10.0300,70.53323008
10.0350,70.49679548
10.0400,70.458766
10.0450,70.41947931
10.0500,70.3793964
10.0550,70.33844538
10.0600,70.29678957
10.0650,70.25429585
10.0700,70.21090714
10.0750,70.16625408
10.0800,70.120564
10.0850,70.07394791
10.0900,70.02624909
10.0950,69.97753121
10.1000,69.9279677
10.1050,69.87777544
10.1100,69.82705666
10.1150,69.77578866
10.1200,69.72391074
10.1250,69.67165527
10.1300,69.61878395
10.1350,69.56512037
10.1400,69.51077993
10.1450,69.45552451
10.1500,69.39958831
10.1550,69.34267194
10.1600,69.28464336
10.1650,69.22553698
10.1700,69.16555994
10.1750,69.10467338
10.1800,69.04271616
10.1850,68.97984743
10.1900,68.91615378
10.1950,68.85175538
10.2000,68.7866201
10.2050,68.7207495
10.2100,68.65390238
10.2150,68.58645035
10.2200,68.51840729
10.2250,68.44969368
10.2300,68.38047709
10.2350,68.31069297
10.2400,68.24028222
10.2450,68.1690901
10.2500,68.097347
10.2550,68.02489486
10.2600,67.95171338
10.2650,67.87752446
10.2700,67.80281556
10.2750,67.72754642
10.2800,67.65146738
10.2850,67.57465162
10.2900,67.49678208
10.2950,67.41762276
10.3000,67.33706261
10.3050,67.25524945
10.3100,67.1726633
10.3150,67.089342
10.3200,67.00518618
10.3250,66.92028261
10.3300,66.83460538
10.3350,66.74802296
10.3400,66.66049497
10.3450,66.57171898
10.3500,66.4814622
10.3550,66.389728
10.3600,66.29676154
10.3650,66.20201983
10.3700,66.10592348
10.3750,66.00864045
10.3800,65.91006131
10.3850,65.80991206
10.3900,65.70818769
10.3950,65.60520862
10.4000,65.50103778
10.4050,65.39560153
10.4100,65.28914917
10.4150,65.18141224
10.4200,65.07264424
10.4250,64.96261061
10.4300,64.85114011
10.4350,64.73802567
10.4400,64.62321937
10.4450,64.5065948
10.4500,64.38806869
10.4550,64.26756841
10.4600,64.14509968
10.4650,64.02046553
10.4700,63.89354136
10.4750,63.76417979
10.4800,63.63245912
10.4850,63.4985937
10.4900,63.36219504
10.4950,63.22297796
10.5000,63.08082617
10.5050,62.9355767
10.5100,62.78721137
10.5150,62.63506646
10.5200,62.47920817
10.5250,62.31966563
10.5300,62.15608897
10.5350,61.98829326
10.5400,61.81643034
10.5450,61.64056529
10.5500,61.46059519
10.5550,61.27659184
10.5600,61.08831366
10.5650,60.89592764
10.5700,60.6990133
10.5750,60.49741564
10.5800,60.29141367
10.5850,60.08080562
10.5900,59.8657986
10.5950,59.64662121
10.6000,59.42347277
10.6050,59.19619015
10.6100,58.96491009
10.6150,58.72958225
10.6200,58.49067657
10.6250,58.24824193
10.6300,58.00249998
10.6350,57.75369601
10.6400,57.50141517
10.6450,57.2456342
10.6500,56.98612773
10.6550,56.72345682
10.6600,56.45744291
10.6650,56.18850075
10.6700,55.91627837
10.6750,55.64083539
10.6800,55.36235444
10.6850,55.0808702
10.6900,54.79658062
10.6950,54.50947668
10.7000,54.21904209
10.7050,53.925315
10.7100,53.62821668
10.7150,53.32821023
10.7200,53.02474546
10.7250,52.71768473
10.7300,52.40705372
10.7350,52.09307927
10.7400,51.77533694
10.7450,51.45372813
10.7500,51.12769326
10.7550,50.79729306
10.7600,50.46197394
10.7650,50.12199895
10.7700,49.7773426
10.7750,49.42818931
10.7800,49.0743287
10.7850,48.71519092
10.7900,48.35054101
10.7950,47.98055737
10.8000,47.60470254
10.8050,47.22292281
10.8100,46.83488898
10.8150,46.44034079
10.8200,46.03885564
10.8250,45.6310422
10.8300,45.21688215
10.8350,44.7967831
10.8400,44.37023632
10.8450,43.93729906
10.8500,43.49790077
10.8550,43.05200346
10.8600,42.59951351
10.8650,42.14040507
10.8700,41.67489632
10.8750,41.20241347
10.8800,40.72340774
10.8850,40.2373514
10.8900,39.74479764
10.8950,39.24565473
10.9000,38.73973221
10.9050,38.22771182
10.9100,37.70945882
10.9150,37.18550943
10.9200,36.65546454
10.9250,36.11928708
10.9300,35.57707189
10.9350,35.02855146
10.9400,34.47398304
10.9450,33.91355935
10.9500,33.34814383
10.9550,32.77717522
10.9600,32.20059532
10.9650,31.61874518
10.9700,31.03173309
10.9750,30.43962092
10.9800,29.84204989
10.9850,29.2396009
10.9900,28.63214279
10.9950,28.0197836
11.0000,27.40279904
11.0050,26.78108152
11.0100,26.15442937
11.0150,25.52302784
11.0200,24.88698545
11.0250,24.24614957
11.0300,23.60110886
11.0350,22.95208286
11.0400,22.29919458
11.0450,21.6425555
11.0500,20.98215357
11.0550,20.31833114
11.0600,19.65139877
11.0650,18.98121287
11.0700,18.30789221
11.0750,17.63155899
11.0800,16.95277922
11.0850,16.27149555
11.0900,15.58835032
11.0950,14.90323754
11.1000,14.21661367
11.1050,13.52881655
11.1100,12.84029001
11.1150,12.15159289
11.1200,11.46279416
11.1250,10.77403667
11.1300,10.08557193
11.1350,9.397981794
11.1400,8.711507597
11.1450,8.026087833
11.1500,7.342245914
11.1550,6.660403168
11.1600,5.980644429
11.1650,5.303255194
11.1700,4.627819925
11.1750,3.955157176
11.1800,3.284655618
11.1850,2.616609994
11.1900,1.951465929
11.1950,1.289337173
11.2000,0.6308659536
11.2050,-0.0239750861
11.2100,-0.6745579412
11.2150,-1.320746454
11.2200,-1.961837686
11.2250,-2.597485941
11.2300,-3.227473127
11.2350,-3.85164565
11.2400,-4.469266047
11.2450,-5.079822463
11.2500,-5.683008512
11.2550,-6.278235302
11.2600,-6.864949276
11.2650,-7.44293396
11.2700,-8.011240654
11.2750,-8.569556821
11.2800,-9.117601326
11.2850,-9.655050213
11.2900,-10.18171798
11.2950,-10.69753095
11.3000,-11.20280788
11.3050,-11.6972548
11.3100,-12.18077771
11.3150,-12.65328164
11.3200,-13.11424172
11.3250,-13.56360384
11.3300,-14.00162102
11.3350,-14.42782003
11.3400,-14.84246181
11.3450,-15.24543722
11.3500,-15.63755705
11.3550,-16.01950474
11.3600,-16.39158634
11.3650,-16.75402446
11.3700,-17.1071974
11.3750,-17.45125974
11.3800,-17.78672203
11.3850,-18.1133216
11.3900,-18.43124403
11.3950,-18.74074343
11.4000,-19.04159949
11.4050,-19.33401669
11.4100,-19.61841161
11.4150,-19.89499317
11.4200,-20.16372662
11.4250,-20.42521965
11.4300,-20.67995263
11.4350,-20.92830303
11.4400,-21.17080012
11.4450,-21.40753537
11.4500,-21.6391767
11.4550,-21.86610276
11.4600,-22.08880828
11.4650,-22.30753438
11.4700,-22.52200127
11.4750,-22.73236874
11.4800,-22.93803217
11.4850,-23.13909473
11.4900,-23.33575307
11.4950,-23.5283362
11.5000,-23.71724157
11.5050,-23.90270359
11.5100,-24.08502441
11.5150,-24.26420598
11.5200,-24.44033334
11.5250,-24.61319527
11.5300,-24.78290089
11.5350,-24.94918345
11.5400,-25.11234725
11.5450,-25.27258086
11.5500,-25.42988114
11.5550,-25.58453484
11.5600,-25.73679133
11.5650,-25.8864716
11.5700,-26.03402321
11.5750,-26.17974132
11.5800,-26.32355782
11.5850,-26.46574411
11.5900,-26.60621885
11.5950,-26.74487069
11.6000,-26.88153193
11.6050,-27.01649496
11.6100,-27.14985664
11.6150,-27.28189637
11.6200,-27.41317271
11.6250,-27.54387258
11.6300,-27.67407727
11.6350,-27.80408876
11.6400,-27.9337765
11.6450,-28.0633499
11.6500,-28.1925496
11.6550,-28.32159873
11.6600,-28.45010577
11.6650,-28.57807582
11.6700,-28.70528269
11.6750,-28.83190243
11.6800,-28.95736405
11.6850,-29.08197241
11.6900,-29.20514167
11.6950,-29.326705
11.7000,-29.44662327
11.7050,-29.56459505
11.7100,-29.68041372
11.7150,-29.79361551
11.7200,-29.90427612
11.7250,-30.01206458
11.7300,-30.11690236
11.7350,-30.21860145
11.7400,-30.31718973
11.7450,-30.41297618
11.7500,-30.50605596
11.7550,-30.59653125
11.7600,-30.68426934
11.7650,-30.76963262
11.7700,-30.85255943
11.7750,-30.93294011
11.7800,-31.01107417
11.7850,-31.08711495
11.7900,-31.16160856
11.7950,-31.23456312
11.8000,-31.30585424
11.8050,-31.37563479
11.8100,-31.44406091
11.8150,-31.51138085
11.8200,-31.57816397
11.8250,-31.64483013
11.8300,-31.71151353
11.8350,-31.77864594
11.8400,-31.84628893
11.8450,-31.91446656
11.8500,-31.98331699
11.8550,-32.05272147
11.8600,-32.12282942
11.8650,-32.19360545
11.8700,-32.26517588
11.8750,-32.337341
11.8800,-32.41017263
11.8850,-32.4839004
11.8900,-32.55836358
11.8950,-32.63377736
11.9000,-32.71004575
11.9050,-32.78701581
11.9100,-32.86449104
11.9150,-32.94190533
11.9200,-33.01889815
11.9250,-33.09547581
11.9300,-33.17124983
11.9350,-33.24633611
11.9400,-33.32065613
11.9450,-33.39426185
11.9500,-33.46726685
11.9550,-33.53904585
11.9600,-33.60987358
11.9650,-33.67934123
11.9700,-33.74718265
11.9750,-33.81314442
11.9800,-33.87706119
11.9850,-33.93861482
11.9900,-33.99782735
11.9950,-34.05473178
12.0000,-34.10933323
12.0050,-34.16184884
12.0100,-34.21222143
12.0150,-34.26061614
12.0200,-34.30684341
12.0250,-34.35090776
12.0300,-34.39267441
12.0350,-34.43224594
12.0400,-34.46948949
12.0450,-34.50431531
12.0500,-34.5366659
12.0550,-34.5668074
12.0600,-34.59470798
12.0650,-34.62031971
12.0700,-34.64385503
12.0750,-34.66542519
12.0800,-34.68526574
12.0850,-34.70359268
12.0900,-34.71996426
12.0950,-34.73463415
12.1000,-34.74749684
12.1050,-34.75850282
12.1100,-34.76755659
12.1150,-34.77463776
12.1200,-34.77947806
12.1250,-34.78190159
12.1300,-34.78187387
12.1350,-34.77943278
12.1400,-34.77469866
12.1450,-34.76778182
12.1500,-34.75868745
12.1550,-34.74751073
12.1600,-34.73410766
12.1650,-34.71877887
12.1700,-34.70124107
12.1750,-34.68177475
12.1800,-34.66008386
12.1850,-34.63643893
12.1900,-34.61090086
12.1950,-34.58359302
12.2000,-34.55481859
12.2050,-34.5249913
12.2100,-34.49426445
12.2150,-34.46307018
12.2200,-34.43168999
12.2250,-34.39979539
12.2300,-34.36775301
12.2350,-34.33543448
12.2400,-34.30275251
12.2450,-34.26952771
12.2500,-34.23568596
12.2550,-34.20154352
12.2600,-34.16684316
12.2650,-34.13185418
12.2700,-34.09658978
12.2750,-34.06125505
12.2800,-34.02581385
12.2850,-33.99023733
12.2900,-33.95446699
12.2950,-33.91830254
12.3000,-33.8818132
12.3050,-33.8447746
12.3100,-33.80715181
12.3150,-33.76912081
12.3200,-33.73095346
12.3250,-33.69285847
12.3300,-33.65529728
12.3350,-33.61864281
12.3400,-33.58304296
12.3450,-33.54871923
12.3500,-33.51596733
12.3550,-33.48475263
12.3600,-33.45509099
12.3650,-33.42673528
12.3700,-33.39964926
12.3750,-33.37379234
12.3800,-33.34887855
12.3850,-33.32475636
12.3900,-33.30143974
12.3950,-33.27849165
12.4000,-33.25595426
12.4050,-33.23365228
12.4100,-33.2114052
12.4150,-33.18887009
12.4200,-33.16569285
12.4250,-33.14197035
12.4300,-33.11734779
12.4350,-33.09163051
12.4400,-33.06477237
12.4450,-33.03645267
12.4500,-33.00672709
12.4550,-32.97558234
12.4600,-32.94322907
12.4650,-32.90960256
12.4700,-32.8750557
12.4750,-32.8395019
12.4800,-32.80328327
12.4850,-32.76648828
12.4900,-32.72935283
12.4950,-32.69183295
12.5000,-32.65415572
12.5050,-32.61596233
12.5100,-32.57742411
12.5150,-32.53853349
12.5200,-32.49932682
12.5250,-32.46010573
12.5300,-32.42118742
12.5350,-32.3826583
12.5400,-32.34495122
12.5450,-32.30817034
12.5500,-32.27265854
12.5550,-32.23829619
12.5600,-32.20552431
12.5650,-32.17427361
12.5700,-32.14478766
12.5750,-32.11692908
12.5800,-32.09101322
12.5850,-32.06717757
12.5900,-32.04576809
12.5950,-32.02688269
12.6000,-32.01067411
12.6050,-31.9973284
12.6100,-31.98682132
12.6150,-31.9790735
12.6200,-31.97399512
12.6250,-31.97155994
12.6300,-31.97141382
12.6350,-31.97348061
12.6400,-31.9779809
12.6450,-31.98482392
12.6500,-31.99389564
12.6550,-32.00511098
12.6600,-32.01852838
12.6650,-32.03413664
12.6700,-32.05191572
12.6750,-32.07170729
12.6800,-32.09337535
12.6850,-32.11654041
12.6900,-32.14104532
12.6950,-32.16681715
12.7000,-32.19357911
12.7050,-32.22108929
12.7100,-32.24918055
12.7150,-32.27774925
12.7200,-32.30657459
12.7250,-32.33506376
12.7300,-32.36320846
12.7350,-32.39046204
12.7400,-32.4165043
12.7450,-32.44139756
12.7500,-32.46514999
12.7550,-32.48763439
12.7600,-32.50912461
12.7650,-32.52988936
12.7700,-32.5499631
12.7750,-32.56949352
12.7800,-32.58871239
12.7850,-32.60752294
12.7900,-32.62567524
12.7950,-32.64321453
12.8000,-32.65977872
12.8050,-32.67562863
12.8100,-32.69054641
12.8150,-32.70447728
12.8200,-32.71727154
12.8250,-32.72896098
12.8300,-32.7390048
12.8350,-32.74748964
12.8400,-32.75431921
12.8450,-32.75961594
12.8500,-32.7630068
12.8550,-32.76480007
12.8600,-32.76459623
12.8650,-32.7627
12.8700,-32.75904629
12.8750,-32.75386034
12.8800,-32.74747298
12.8850,-32.74003164
12.8900,-32.73170305
12.8950,-32.72296622
12.9000,-32.71422252
12.9050,-32.70561167
12.9100,-32.69776317
12.9150,-32.69081967
12.9200,-32.68484095
12.9250,-32.68003388
12.9300,-32.67662675
12.9350,-32.67448523
12.9400,-32.673263
12.9450,-32.67301568
12.9500,-32.67368226
12.9550,-32.67533449
12.9600,-32.6779587
12.9650,-32.68161666
12.9700,-32.68640325
12.9750,-32.6924395
12.9800,-32.69975811
12.9850,-32.70840153
12.9900,-32.71832925
12.9950,-32.72913169
13.0000,-32.7408488
13.0050,-32.75311089
13.0100,-32.76576375
13.0150,-32.77852034
13.0200,-32.79140136
13.0250,-32.80422101
13.0300,-32.8168287
13.0350,-32.82930035
13.0400,-32.84154239
13.0450,-32.85312541
13.0500,-32.86379482
13.0550,-32.87351218
13.0600,-32.88172809
13.0650,-32.88813972
13.0700,-32.89268645
13.0750,-32.89506058
13.0800,-32.8951513
13.0850,-32.89280702
13.0900,-32.88831851
13.0950,-32.8814888
13.1000,-32.87241703
13.1050,-32.86096478
13.1100,-32.84728179
13.1150,-32.83122484
13.1200,-32.81274106
13.1250,-32.79162634
13.1300,-32.76792456
13.1350,-32.74143718
13.1400,-32.7120766
13.1450,-32.67962894
13.1500,-32.64419631
13.1550,-32.60563361
13.1600,-32.56427095
13.1650,-32.52000147
13.1700,-32.47286708
13.1750,-32.42309346
13.1800,-32.37064003
13.1850,-32.31575206
13.1900,-32.25849923
13.1950,-32.19899571
13.2000,-32.13710892
13.2050,-32.07313866
13.2100,-32.00723191
13.2150,-31.93944162
13.2200,-31.87011639
13.2250,-31.7990133
13.2300,-31.72631236
13.2350,-31.65223695
13.2400,-31.57706226
13.2450,-31.50090557
13.2500,-31.42369589
13.2550,-31.34547323
13.2600,-31.26617311
13.2650,-31.18584857
13.2700,-31.10422254
13.2750,-31.02125952
13.2800,-30.93681341
13.2850,-30.85095033
13.2900,-30.76357211
13.2950,-30.67502878
13.3000,-30.58504169
13.3050,-30.49380703
13.3100,-30.4012095
13.3150,-30.30728283
13.3200,-30.21204792
13.3250,-30.11567058
13.3300,-30.01828632
13.3350,-29.92013454
13.3400,-29.8210163
13.3450,-29.72115744
13.3500,-29.62019691
13.3550,-29.51783835
13.3600,-29.4143773
13.3650,-29.30982138
13.3700,-29.20432067
13.3750,-29.09816661
13.3800,-28.99137913
13.3850,-28.88427561
13.3900,-28.7769702
13.3950,-28.67003464
13.4000,-28.56357928
13.4050,-28.45763189
13.4100,-28.35212629
13.4150,-28.24704784
13.4200,-28.14231424
13.4250,-28.03781224
13.4300,-27.93364305
13.4350,-27.82986656
13.4400,-27.72631395
13.4450,-27.6229282
13.4500,-27.51939031
13.4550,-27.41570735
13.4600,-27.31168357
13.4650,-27.20697417
13.4700,-27.10161808
13.4750,-26.99532438
13.4800,-26.8878442
13.4850,-26.77896472
13.4900,-26.66872257
13.4950,-26.55674175
13.5000,-26.44320793
13.5050,-26.32793304
13.5100,-26.21057465
13.5150,-26.09138093
13.5200,-25.97022839
13.5250,-25.84737096
13.5300,-25.72266236
13.5350,-25.59597464
13.5400,-25.46735644
13.5450,-25.33649152
13.5500,-25.20361104
13.5550,-25.06839887
13.5600,-24.93092251
13.5650,-24.79119383
13.5700,-24.64920905
13.5750,-24.50461161
13.5800,-24.35766023
13.5850,-24.2083263
13.5900,-24.05662843
13.5950,-23.90239955
13.6000,-23.74577075
13.6050,-23.58663503
13.6100,-23.4251945
13.6150,-23.26156773
13.6200,-23.09556324
13.6250,-22.92742694
13.6300,-22.75704283
13.6350,-22.58423882
13.6400,-22.4091423
13.6450,-22.23177154
13.6500,-22.05225442
13.6550,-21.87077122
13.6600,-21.68720626
13.6650,-21.5017357
13.6700,-21.31404316
13.6750,-21.12433229
13.6800,-20.93291718
13.6850,-20.73970643
13.6900,-20.5446732
13.6950,-20.34762667
13.7000,-20.14830084
13.7050,-19.94698835
13.7100,-19.74336052
13.7150,-19.53785998
13.7200,-19.33028302
13.7250,-19.12074477
13.7300,-18.90916628
13.7350,-18.69558387
13.7400,-18.48001974
13.7450,-18.26240348
13.7500,-18.04275111
13.7550,-17.82065129
13.7600,-17.59600648
13.7650,-17.36876814
13.7700,-17.1386403
13.7750,-16.90573763
13.7800,-16.6698106
13.7850,-16.43112842
13.7900,-16.18926283
13.7950,-15.94443368
13.8000,-15.69608786
13.8050,-15.4442913
13.8100,-15.18921402
13.8150,-14.93044986
13.8200,-14.66829659
13.8250,-14.40294254
13.8300,-14.13418068
13.8350,-13.862322
13.8400,-13.58709362
13.8450,-13.30861725
13.8500,-13.02669769
13.8550,-12.7415517
13.8600,-12.45307813
13.8650,-12.16099241
13.8700,-11.86525888
13.8750,-11.56612926
13.8800,-11.26335071
13.8850,-10.95715986
13.8900,-10.64740516
13.8950,-10.33420958
13.9000,-10.01753328
13.9050,-9.697039498
13.9100,-9.372610292
13.9150,-9.043944751
13.9200,-8.711176584
13.9250,-8.37423004
13.9300,-8.032989604
13.9350,-7.687282593
13.9400,-7.336826794
13.9450,-6.981982376
13.9500,-6.622599245
13.9550,-6.258749304
13.9600,-5.890515757
13.9650,-5.517691641
13.9700,-5.140383304
13.9750,-4.758439983
13.9800,-4.371210011
13.9850,-3.978844687
13.9900,-3.581539938
13.9950,-3.179096678
14.0000,-2.771889043
14.0050,-2.359792528
14.0100,-1.94302226
14.0150,-1.521167656
14.0200,-1.094512345
14.0250,-0.6631136923
14.0300,-0.2270342236
14.0350,0.2137022726
14.0400,0.6593179138
14.0450,1.109677749
14.0500,1.564537556
14.0550,2.023763397
14.0600,2.487088299
14.0650,2.954597592
14.0700,3.425819232
14.0750,3.901095457
14.0800,4.379964431
14.0850,4.862812483
14.0900,5.349535678
14.0950,5.840231081
14.1000,6.334333646
14.1050,6.831726374
14.1100,7.332313271
14.1150,7.835759188
14.1200,8.342162872
14.1250,8.851575868
14.1300,9.363464085
14.1350,9.87794932
14.1400,10.39466668
14.1450,10.91329194
14.1500,11.43370316
14.1550,11.95559381
14.1600,12.4790507
14.1650,13.00381918
14.1700,13.52982448
14.1750,14.05652133
14.1800,14.58373759
14.1850,15.1116683
14.1900,15.63996028
14.1950,16.16831255
14.2000,16.6963231
14.2050,17.22368078
14.2100,17.75028293
14.2150,18.27576389
14.2200,18.80028891
14.2250,19.32401742
14.2300,19.84661057
14.2350,20.36770613
14.2400,20.88707557
14.2450,21.40478296
14.2500,21.9200508
14.2550,22.43302386
14.2600,22.94302798
14.2650,23.44971579
14.2700,23.95298129
14.2750,24.4523518
14.2800,24.94777101
14.2850,25.43887202
14.2900,25.92559103
14.2950,26.40761036
14.3000,26.88495285
14.3050,27.35756574
14.3100,27.8252955
14.3150,28.28829603
14.3200,28.74644175
14.3250,29.19962813
14.3300,29.6482649
14.3350,30.0926875
14.3400,30.53276315
14.3450,30.96897823
14.3500,31.40159287
14.3550,31.83090435
14.3600,32.25731603
14.3650,32.6808288
14.3700,33.1017202
14.3750,33.52019126
14.3800,33.93669471
14.3850,34.35116664
14.3900,34.76349523
14.3950,35.17365509
14.4000,35.58094801
14.4050,35.9855163
14.4100,36.38734198
14.4150,36.78603853
14.4200,37.18148253
14.4250,37.57368622
14.4300,37.9622844
14.4350,38.34693591
14.4400,38.72772771
14.4450,39.10438198
14.4500,39.47711474
14.4550,39.84602598
14.4600,40.21083283
14.4650,40.57135927
14.4700,40.9274154
14.4750,41.27997284
14.4800,41.62897474
14.4850,41.9745924
14.4900,42.31700429
14.4950,42.65707888
14.5000,42.9948622
14.5050,43.33060447
14.5100,43.66431394
14.5150,43.99583101
14.5200,44.32498199
14.5250,44.65153477
14.5300,44.97512858
14.5350,45.29602592
14.5400,45.61370783
14.5450,45.92823526
14.5500,46.23923852
14.5550,46.54673637
14.5600,46.8508411
14.5650,47.15191418
14.5700,47.44982319
14.5750,47.74510051
14.5800,48.0373318
14.5850,48.32692362
14.5900,48.61322395
14.5950,48.89653542
14.6000,49.17703936
14.6050,49.45491135
14.6100,49.73026199
14.6150,50.00322307
14.6200,50.27397329
14.6250,50.54284477
14.6300,50.80992586
14.6350,51.07499499
14.6400,51.33816588
14.6450,51.59929222
14.6500,51.85876821
14.6550,52.11684244
14.6600,52.37364374
14.6650,52.62921916
14.6700,52.88360227
14.6750,53.13671587
14.6800,53.38824941
14.6850,53.63805188
14.6900,53.88583935
14.6950,54.13127634
14.7000,54.37436957
14.7050,54.61535231
14.7100,54.8539244
14.7150,55.09023131
14.7200,55.32390743
14.7250,55.55514801
14.7300,55.78388811
14.7350,56.01013155
14.7400,56.23384225
14.7450,56.45512489
14.7500,56.67414857
14.7550,56.89155133
14.7600,57.10809753
14.7650,57.32405509
14.7700,57.53939852
14.7750,57.75359726
14.7800,57.96698488
14.7850,58.17930844
14.7900,58.3903862
14.7950,58.59972414
14.8000,58.80754425
14.8050,59.01324107
14.8100,59.21682034
14.8150,59.4184789
14.8200,59.61797935
14.8250,59.81472221
14.8300,60.00852832
14.8350,60.19912925
14.8400,60.38660718
14.8450,60.57090551
14.8500,60.75215651
14.8550,60.93050482
14.8600,61.1064297
14.8650,61.27996602
14.8700,61.450931
14.8750,61.61881041
14.8800,61.78364789
14.8850,61.94510908
14.8900,62.1037697
14.8950,62.259814
14.9000,62.41320691
14.9050,62.56395491
14.9100,62.71244093
14.9150,62.85879286
14.9200,63.00293934
14.9250,63.14448917
14.9300,63.28323406
14.9350,63.41970795
14.9400,63.55375052
14.9450,63.68564452
14.9500,63.81500057
14.9550,63.9416192
14.9600,64.06525743
14.9650,64.18595383
14.9700,64.30360806
14.9750,64.41840702
14.9800,64.53038386
14.9850,64.63993989
14.9900,64.74713642
14.9950,64.8524642
15.0000,64.95611288
15.0050,65.0577997
15.0100,65.15772905
15.0150,65.25588576
15.0200,65.35211383
15.0250,65.44608438
15.0300,65.53810282
15.0350,65.62845643
15.0400,65.71724747
15.0450,65.80459235
15.0500,65.89026849
15.0550,65.9736152
15.0600,66.05416481
15.0650,66.13198308
15.0700,66.20728683
15.0750,66.28051055
15.0800,66.35159733
15.0850,66.42079255
15.0900,66.48824667
15.0950,66.55420418
15.1000,66.61890789
15.1050,66.68271462
15.1100,66.74544781
15.1150,66.80697804
15.1200,66.86770225
15.1250,66.92819449
15.1300,66.98882628
15.1350,67.04952914
15.1400,67.11012193
15.1450,67.1704765
15.1500,67.23078447
15.1550,67.29101039
15.1600,67.35088984
15.1650,67.41024577
15.1700,67.46919369
15.1750,67.52811856
15.1800,67.58698127
15.1850,67.64600259
15.1900,67.70506615
15.1950,67.76389943
15.2000,67.82231388
15.2050,67.88035262
15.2100,67.9380068
15.2150,67.99489828
15.2200,68.05109896
15.2250,68.10683401
15.2300,68.16220618
15.2350,68.21671493
15.2400,68.27036767
15.2450,68.32316684
15.2500,68.37500303
15.2550,68.42586331
15.2600,68.47565402
15.2650,68.52438198
15.2700,68.57216239
15.2750,68.61927101
15.2800,68.6658375
15.2850,68.71167363
15.2900,68.756663
15.2950,68.80012847
15.3000,68.84235242
15.3050,68.88329199
15.3100,68.92318609
15.3150,68.96211761
15.3200,68.99997255
15.3250,69.03677871
15.3300,69.07227125
15.3350,69.10622612
15.3400,69.13875262
15.3450,69.17020861
15.3500,69.20048676
15.3550,69.22996655
15.3600,69.25884549
15.3650,69.28707373
15.3700,69.31474869
15.3750,69.34159754
15.3800,69.36750878
15.3850,69.39276856
15.3900,69.41762113
15.3950,69.44203267
15.4000,69.46592495
15.4050,69.48921175
15.4100,69.51211534
15.4150,69.53449248
15.4200,69.55628949
15.4250,69.57698489
15.4300,69.59690997
15.4350,69.61610452
15.4400,69.63490703
15.4450,69.65341196
15.4500,69.67156744
15.4550,69.68940908
15.4600,69.70696969
15.4650,69.72423611
15.4700,69.74128112
15.4750,69.75785105
15.4800,69.77398357
15.4850,69.78958038
15.4900,69.80439034
15.4950,69.81867621
15.5000,69.83255067
15.5050,69.84612199
15.5100,69.85921921
15.5150,69.87211721
15.5200,69.88504291
15.5250,69.89772016
15.5300,69.91013003
15.5350,69.92244732
15.5400,69.93464052
15.5450,69.94658789
15.5500,69.958466
15.5550,69.97031733
15.5600,69.98244135
15.5650,69.994651
15.5700,70.00696676
15.5750,70.01926801
15.5800,70.03177651
15.5850,70.04454404
15.5900,70.05761993
15.5950,70.07136363
15.6000,70.08532815
15.6050,70.0995466
15.6100,70.11370358
15.6150,70.12746768
15.6200,70.14116423
15.6250,70.15472495
15.6300,70.16823084
15.6350,70.1817307
15.6400,70.19497059
15.6450,70.20759358
15.6500,70.22002599
15.6550,70.23230738
15.6600,70.24442804
15.6650,70.25639075
15.6700,70.26826726
15.6750,70.280039
15.6800,70.29161934
15.6850,70.30276898
15.6900,70.31328975
15.6950,70.32283168
15.7000,70.33146525
15.7050,70.33916963
15.7100,70.3457947
15.7150,70.35115603
15.7200,70.35529939
15.7250,70.35853323
15.7300,70.36034338
15.7350,70.36065725
15.7400,70.3595386
15.7450,70.35702285
15.7500,70.3530373
15.7550,70.34752269
15.7600,70.34069649
15.7650,70.33250807
15.7700,70.32318282
15.7750,70.31279475
15.7800,70.30173247
15.7850,70.28990736
15.7900,70.27781971
15.7950,70.26557213
15.8000,70.2531599
15.8050,70.24054485
15.8100,70.22812821
15.8150,70.21573998
15.8200,70.20319862
15.8250,70.19072425
15.8300,70.17847368
15.8350,70.16670853
15.8400,70.15545041
15.8450,70.14463987
15.8500,70.13416826
15.8550,70.12403396
15.8600,70.11414434
15.8650,70.10474494
15.8700,70.09579508
15.8750,70.08727678
15.8800,70.07911594
15.8850,70.07155751
15.8900,70.06468984
15.8950,70.0583423
15.9000,70.0527104
15.9050,70.04782813
15.9100,70.04376911
15.9150,70.04061531
15.9200,70.03804526
15.9250,70.0360845
15.9300,70.03447275
15.9350,70.03310128
15.9400,70.03214914
15.9450,70.03160675
15.9500,70.03118714
15.9550,70.03085717
15.9600,70.03044328
15.9650,70.03008649
15.9700,70.02953196
15.9750,70.02876607
15.9800,70.02778669
15.9850,70.02637895
15.9900,70.02452096
15.9950,70.02265481
16.0000,70.02040209
16.0050,70.01794949
16.0100,70.01524986
16.0150,70.01240323
16.0200,70.00947254
16.0250,70.00625559
16.0300,70.0026692
16.0350,69.9987323
16.0400,69.99422745
16.0450,69.98945216
16.0500,69.98427334
16.0550,69.97890193
16.0600,69.97301217
16.0650,69.96671248
16.0700,69.96012407
16.0750,69.95342634
16.0800,69.94656625
16.0850,69.93979314
16.0900,69.93306979
16.0950,69.92633786
16.1000,69.91961208
16.1050,69.91286161
16.1100,69.90594607
16.1150,69.8992785
16.1200,69.89299091
16.1250,69.88713654
16.1300,69.88143246
16.1350,69.87566489
16.1400,69.86971735
16.1450,69.86392985
16.1500,69.8584036
16.1550,69.8528586
16.1600,69.84743757
16.1650,69.84185334
16.1700,69.83636692
16.1750,69.83075511
16.1800,69.82500404
16.1850,69.8188554
16.1900,69.81252397
16.1950,69.80609144
16.2000,69.79941875
16.2050,69.79242251
16.2100,69.78504911
16.2150,69.77718214
16.2200,69.76880917
16.2250,69.75980612
16.2300,69.7503529
16.2350,69.74021854
16.2400,69.72954492
16.2450,69.7182688
16.2500,69.70649948
16.2550,69.69391213
16.2600,69.68051654
16.2650,69.66613253
16.2700,69.65068355
16.2750,69.63413465
16.2800,69.61651127
16.2850,69.59798676
16.2900,69.57849003
16.2950,69.55786051
16.3000,69.53654101
16.3050,69.51423497
16.3100,69.49101237
16.3150,69.46709481
16.3200,69.44203186
16.3250,69.41576344
16.3300,69.38847811
16.3350,69.36026544
16.3400,69.33105971
16.3450,69.30060014
16.3500,69.26926127
16.3550,69.23700966
16.3600,69.20412347
16.3650,69.17066962
16.3700,69.13642205
16.3750,69.1013953
16.3800,69.06570522
16.3850,69.02936867
16.3900,68.99219437
16.3950,68.95409661
16.4000,68.91502894
16.4050,68.87514082
16.4100,68.83428297
16.4150,68.79229047
16.4200,68.74918878
16.4250,68.70495293
16.4300,68.65973198
16.4350,68.6134536
16.4400,68.56651184
16.4450,68.51841635
16.4500,68.46895844
16.4550,68.41803747
16.4600,68.36539661
16.4650,68.31105859
16.4700,68.25476655
16.4750,68.1965332
16.4800,68.13613643
16.4850,68.07327731
16.4900,68.00781077
16.4950,67.9397529
16.5000,67.86946083
16.5050,67.79688619
16.5100,67.72207495
16.5150,67.64488604
16.5200,67.56528488
16.5250,67.4833567
16.5300,67.39899464
16.5350,67.31223105
16.5400,67.22284204
16.5450,67.1306283
16.5500,67.03529913
16.5550,66.93718357
16.5600,66.83621908
16.5650,66.73223165
16.5700,66.62507553
16.5750,66.51493486
16.5800,66.4016121
16.5850,66.2847696
16.5900,66.16448411
16.5950,66.04038516
16.6000,65.91229848
16.6050,65.78040664
16.6100,65.64476248
16.6150,65.50543673
16.6200,65.36292252
16.6250,65.21744065
16.6300,65.06923411
16.6350,64.91860152
16.6400,64.76581538
16.6450,64.61089659
16.6500,64.453838
16.6550,64.29436694
16.6600,64.13259049
16.6650,63.96822692
16.6700,63.80135871
16.6750,63.63208112
16.6800,63.46040176
16.6850,63.28634719
16.6900,63.11023766
16.6950,62.93205701
16.7000,62.75197132
16.7050,62.56971532
16.7100,62.38524274
16.7150,62.19833536
16.7200,62.00862387
16.7250,61.81596847
16.7300,61.61990899
16.7350,61.42021338
16.7400,61.21652367
16.7450,61.00903592
16.7500,60.79794569
16.7550,60.58366502
16.7600,60.36630707
16.7650,60.14556617
16.7700,59.921786
16.7750,59.69494833
16.7800,59.46514582
16.7850,59.23268319
16.7900,58.99730403
16.7950,58.75882811
16.8000,58.51670578
16.8050,58.27097143
16.8100,58.02151374
16.8150,57.76850172
16.8200,57.51192217
16.8250,57.25187678
16.8300,56.988052
16.8350,56.72043399
16.8400,56.44880889
16.8450,56.17301214
16.8500,55.89279743
16.8550,55.60747492
16.8600,55.3170197
16.8650,55.02167101
16.8700,54.72156038
16.8750,54.4163893
16.8800,54.10578909
16.8850,53.78972224
16.8900,53.46802215
16.8950,53.14058065
16.9000,52.80741335
16.9050,52.46831878
16.9100,52.12331098
16.9150,51.77261309
16.9200,51.41609965
16.9250,51.05397815
16.9300,50.68564346
16.9350,50.31072418
16.9400,49.92926641
16.9450,49.54115714
16.9500,49.14622521
16.9550,48.74465471
16.9600,48.33607351
16.9650,47.92041302
16.9700,47.49801058
16.9750,47.06843489
16.9800,46.63153838
16.9850,46.18708251
16.9900,45.73469303
16.9950,45.27442784
17.0000,44.80641128
17.0050,44.33089159
17.0100,43.84766548
17.0150,43.35656716
17.0200,42.85757799
17.0250,42.3506277
17.0300,41.83588539
17.0350,41.31344297
17.0400,40.78344714
17.0450,40.24583759
17.0500,39.70084695
17.0550,39.14807371
17.0600,38.58722049
17.0650,38.01871606
17.0700,37.44249722
17.0750,36.85858213
17.0800,36.26710431
17.0850,35.66817536
17.0900,35.06178497
17.0950,34.44826454
17.1000,33.82813625
17.1050,33.2012759
17.1100,32.56827471
17.1150,31.92934941
17.1200,31.28490843
17.1250,30.63496715
17.1300,29.98043733
17.1350,29.32171862
17.1400,28.65921541
17.1450,27.99347956
17.1500,27.32489453
17.1550,26.65394832
17.1600,25.98046177
17.1650,25.30489928
17.1700,24.62767084
17.1750,23.94946691
17.1800,23.27086251
17.1850,22.59228389
17.1900,21.91380471
17.1950,21.2361642
17.2000,20.55896261
17.2050,19.88284992
17.2100,19.2084193
17.2150,18.53592273
17.2200,17.86617111
17.2250,17.19912257
17.2300,16.53573124
17.2350,15.87642338
17.2400,15.22153836
17.2450,14.57146828
17.2500,13.92654828
17.2550,13.28709141
17.2600,12.6536617
17.2650,12.02662296
17.2700,11.4062519
17.2750,10.79259091
17.2800,10.18568594
17.2850,9.585770115
17.2900,8.993255907
17.2950,8.408743889
17.3000,7.831977781
17.3050,7.263540676
17.3100,6.703497021
17.3150,6.151846138
17.3200,5.608455671
17.3250,5.073177105
17.3300,4.545439865
17.3350,4.025504353
17.3400,3.513060464
17.3450,3.008229389
17.3500,2.510928051
17.3550,2.021292987
17.3600,1.539097562
17.3650,1.064105952
17.3700,0.5956702355
17.3750,0.1336524556
17.3800,-0.3225269912
17.3850,-0.7728013625
17.3900,-1.217092189
17.3950,-1.65629319
17.4000,-2.090559471
17.4050,-2.519673601
17.4100,-2.943755773
17.4150,-3.362576722
17.4200,-3.776097674
17.4250,-4.18401145
17.4300,-4.586258269
17.4350,-4.982879342
17.4400,-5.373905421
17.4450,-5.759752825
17.4500,-6.140810117
17.4550,-6.51751169
17.4600,-6.889869508
17.4650,-7.258306038
17.4700,-7.623149403
17.4750,-7.984849407
17.4800,-8.343185932
17.4850,-8.698139541
17.4900,-9.049783667
17.4950,-9.397906425
17.5000,-9.742639364
17.5050,-10.08427055
17.5100,-10.42311553
17.5150,-10.75901296
17.5200,-11.09219228
17.5250,-11.42211033
17.5300,-11.74893866
17.5350,-12.07235939
17.5400,-12.39247367
17.5450,-12.70925136
17.5500,-13.02292671
17.5550,-13.33341079
17.5600,-13.64088863
17.5650,-13.94515898
17.5700,-14.24643283
17.5750,-14.54415098
17.5800,-14.83841966
17.5850,-15.12924715
17.5900,-15.41686582
17.5950,-15.70202999
17.6000,-15.98429286
17.6050,-16.26391744
17.6100,-16.5410037
17.6150,-16.81517007
17.6200,-17.08612382
17.6250,-17.35347263
17.6300,-17.6166365
17.6350,-17.87545863
17.6400,-18.12953662
17.6450,-18.3788599
17.6500,-18.62350186
17.6550,-18.86336171
17.6600,-19.09834646
17.6650,-19.32853333
17.6700,-19.55368676
17.6750,-19.77390196
17.6800,-19.98908308
17.6850,-20.19949576
17.6900,-20.40515653
17.6950,-20.60614104
17.7000,-20.80242645
17.7050,-20.99449319
17.7100,-21.18243346
17.7150,-21.36648742
17.7200,-21.54671512
17.7250,-21.72348966
17.7300,-21.89688227
17.7350,-22.06724243
17.7400,-22.23442494
17.7450,-22.39841169
17.7500,-22.55890534
17.7550,-22.7158617
17.7600,-22.86947063
17.7650,-23.01952988
17.7700,-23.16574276
17.7750,-23.30782447
17.7800,-23.44613099
17.7850,-23.58079282
17.7900,-23.7118393
17.7950,-23.83945568
17.8000,-23.96372668
17.8050,-24.08476256
17.8100,-24.20261982
17.8150,-24.31783658
17.8200,-24.43055177
17.8250,-24.54135595
17.8300,-24.6502391
17.8350,-24.75680847
17.8400,-24.86122813
17.8450,-24.9631132
17.8500,-25.06223036
17.8550,-25.15861191
17.8600,-25.25204225
17.8650,-25.34275522
17.8700,-25.43085639
17.8750,-25.51653751
17.8800,-25.59978033
17.8850,-25.6806401
17.8900,-25.75911838
17.8950,-25.83506968
17.9000,-25.9088893
17.9050,-25.98055649
17.9100,-26.04984088
17.9150,-26.11687365
17.9200,-26.18160227
17.9250,-26.24417692
17.9300,-26.30493061
17.9350,-26.36413266
17.9400,-26.4220034
17.9450,-26.47873298
17.9500,-26.53447614
17.9550,-26.58945394
17.9600,-26.64335212
17.9650,-26.6962313
17.9700,-26.74785112
17.9750,-26.79799139
17.9800,-26.84653779
17.9850,-26.89356844
17.9900,-26.93920467
17.9950,-26.98353961
18.0000,-27.02673612
18.0050,-27.06895159
18.0100,-27.11013724
18.0150,-27.15015299
18.0200,-27.18898895
18.0250,-27.22640533
18.0300,-27.26229216
18.0350,-27.29600923
18.0400,-27.32766789
18.0450,-27.35716631
18.0500,-27.38456445
18.0550,-27.40987336
18.0600,-27.43290265
18.0650,-27.45371235
18.0700,-27.47229696
18.0750,-27.48865195
18.0800,-27.50273149
18.0850,-27.51449021
18.0900,-27.52381269
18.0950,-27.53061589
18.1000,-27.53469816
18.1050,-27.53593625
18.1100,-27.53406115
18.1150,-27.52874896
18.1200,-27.51982958
18.1250,-27.50731142
18.1300,-27.49116344
18.1350,-27.47172894
18.1400,-27.44903465
18.1450,-27.42333983
18.1500,-27.39462643
18.1550,-27.36294215
18.1600,-27.32834356
18.1650,-27.29088928
18.1700,-27.25028011
18.1750,-27.20667069
18.1800,-27.16045167
18.1850,-27.11156011
18.1900,-27.06029786
18.1950,-27.00697363
18.2000,-26.95172789
18.2050,-26.89495294
18.2100,-26.83692099
18.2150,-26.77785612
18.2200,-26.71824847
18.2250,-26.65836185
18.2300,-26.59837447
18.2350,-26.53854997
18.2400,-26.47898906
18.2450,-26.41981254
18.2500,-26.36111285
18.2550,-26.30303538
18.2600,-26.24576811
18.2650,-26.18940348
18.2700,-26.1341331
18.2750,-26.07982449
18.2800,-26.0265201
18.2850,-25.97381192
18.2900,-25.9216567
18.2950,-25.8696592
18.3000,-25.81751364
18.3050,-25.76482841
18.3100,-25.7115292
18.3150,-25.65742458
18.3200,-25.60251521
18.3250,-25.54662327
18.3300,-25.49003382
18.3350,-25.43285097
18.3400,-25.37490971
18.3450,-25.31632867
18.3500,-25.25689503
18.3550,-25.19653354
18.3600,-25.13526383
18.3650,-25.07321921
18.3700,-25.0106483
18.3750,-24.94767591
18.3800,-24.88433972
18.3850,-24.82077558
18.3900,-24.75751502
18.3950,-24.69471969
18.4000,-24.63271857
18.4050,-24.57157792
18.4100,-24.51156665
18.4150,-24.45298012
18.4200,-24.39610863
18.4250,-24.34072635
18.4300,-24.28705953
18.4350,-24.23510444
18.4400,-24.18467119
18.4450,-24.1359382
18.4500,-24.08901249
18.4550,-24.04382355
18.4600,-24.00055499
18.4650,-23.95919506
18.4700,-23.92005252
18.4750,-23.88310569
18.4800,-23.84824315
18.4850,-23.81551981
18.4900,-23.78495581
18.4950,-23.75648028
18.5000,-23.73024555
18.5050,-23.70609851
18.5100,-23.68412643
18.5150,-23.66431119
18.5200,-23.64648157
18.5250,-23.63053439
18.5300,-23.61643592
18.5350,-23.60404844
18.5400,-23.59332467
18.5450,-23.58404697
18.5500,-23.57607112
18.5550,-23.56912574
18.5600,-23.56309934
18.5650,-23.55776752
18.5700,-23.5531872
18.5750,-23.54950185
18.5800,-23.54635523
18.5850,-23.54363157
18.5900,-23.54101445
18.5950,-23.53828739
18.6000,-23.53523608
18.6050,-23.53171302
18.6100,-23.52727926
18.6150,-23.52165117
18.6200,-23.51452036
18.6250,-23.50567355
18.6300,-23.49478413
18.6350,-23.4816003
18.6400,-23.46615827
18.6450,-23.44806142
18.6500,-23.42738038
18.6550,-23.40399863
18.6600,-23.37795662
18.6650,-23.3493414
18.6700,-23.31791179
18.6750,-23.28383428
18.6800,-23.24724357
18.6850,-23.2082315
18.6900,-23.16685835
18.6950,-23.12379433
18.7000,-23.07934075
18.7050,-23.03424555
18.7100,-22.98899619
18.7150,-22.94439642
18.7200,-22.90081791
18.7250,-22.8589456
18.7300,-22.81888573
18.7350,-22.78106278
18.7400,-22.74580461
18.7450,-22.71330123
18.7500,-22.68366757
18.7550,-22.65723316
18.7600,-22.63404074
18.7650,-22.61428153
18.7700,-22.59816445
18.7750,-22.58556853
18.7800,-22.57656157
18.7850,-22.57087876
18.7900,-22.56834913
18.7950,-22.56860439
18.8000,-22.57125807
18.8050,-22.57610207
18.8100,-22.582705
18.8150,-22.59067099
18.8200,-22.5995902
18.8250,-22.60924868
18.8300,-22.61925842
18.8350,-22.62909709
18.8400,-22.63856887
18.8450,-22.64752409
18.8500,-22.65590442
18.8550,-22.66356667
18.8600,-22.67030516
18.8650,-22.67617153
18.8700,-22.68063717
18.8750,-22.68362128
18.8800,-22.68503073
18.8850,-22.68476195
18.8900,-22.68289092
18.8950,-22.67935421
18.9000,-22.67428945
18.9050,-22.66774246
18.9100,-22.66007369
18.9150,-22.651477
18.9200,-22.64205581
18.9250,-22.63228186
18.9300,-22.62209446
18.9350,-22.6117635
18.9400,-22.60117988
18.9450,-22.59069364
18.9500,-22.58023589
18.9550,-22.56995725
18.9600,-22.55963917
18.9650,-22.54924594
18.9700,-22.5388479
18.9750,-22.52874033
18.9800,-22.51886845
18.9850,-22.50956728
18.9900,-22.50105991
18.9950,-22.49305078
19.0000,-22.48554055
19.0050,-22.47839239
19.0100,-22.47159769
19.0150,-22.46503246
19.0200,-22.45857589
19.0250,-22.45254224
19.0300,-22.44747195
19.0350,-22.44351293
19.0400,-22.4409607
19.0450,-22.44015131
19.0500,-22.44121598
19.0550,-22.44428064
19.0600,-22.44952754
19.0650,-22.45691412
19.0700,-22.46664878
19.0750,-22.47876547
19.0800,-22.49331089
19.0850,-22.51042683
19.0900,-22.53018605
19.0950,-22.55240254
19.1000,-22.57713984
19.1050,-22.60416649
19.1100,-22.63317507
19.1150,-22.66408529
19.1200,-22.69660824
19.1250,-22.73046067
19.1300,-22.76547685
19.1350,-22.80142797
19.1400,-22.83818572
19.1450,-22.87552391
19.1500,-22.91320719
19.1550,-22.95102419
19.1600,-22.98891139
19.1650,-23.02642392
19.1700,-23.06344018
19.1750,-23.09971697
19.1800,-23.13509524
19.1850,-23.16932912
19.1900,-23.20193681
19.1950,-23.23281926
19.2000,-23.26187822
19.2050,-23.28887592
19.2100,-23.31353144
19.2150,-23.33596053
19.2200,-23.35582928
19.2250,-23.3728798
19.2300,-23.38726789
19.2350,-23.39905445
19.2400,-23.40803985
19.2450,-23.41382191
19.2500,-23.41625402
19.2550,-23.41527059
19.2600,-23.41084136
19.2650,-23.40310113
19.2700,-23.39223088
19.2750,-23.37807431
19.2800,-23.36086921
19.2850,-23.34091429
19.2900,-23.31816975
19.2950,-23.29287329
19.3000,-23.26537788
19.3050,-23.23577067
19.3100,-23.20434523
19.3150,-23.17120693
19.3200,-23.13652712
19.3250,-23.10013651
19.3300,-23.06200087
19.3350,-23.02231593
19.3400,-22.98114825
19.3450,-22.9384738
19.3500,-22.8946244
19.3550,-22.84999851
19.3600,-22.80494853
19.3650,-22.75994699
19.3700,-22.71501406
19.3750,-22.67076243
19.3800,-22.62722099
19.3850,-22.58440425
19.3900,-22.54262433
19.3950,-22.50199294
19.4000,-22.46253571
19.4050,-22.42435434
19.4100,-22.38784119
19.4150,-22.35296129
19.4200,-22.31993521
19.4250,-22.2887521
19.4300,-22.2595531
19.4350,-22.23247049
19.4400,-22.20696765
19.4450,-22.18288212
19.4500,-22.15962441
19.4550,-22.13684995
19.4600,-22.11416888
19.4650,-22.09097992
19.4700,-22.06704867
19.4750,-22.04187465
19.4800,-22.01510761
19.4850,-21.98626764
19.4900,-21.95546904
19.4950,-21.92250392
19.5000,-21.88712076
19.5050,-21.84937957
19.5100,-21.80935383
19.5150,-21.76700552
19.5200,-21.72252602
19.5250,-21.67576352
19.5300,-21.62651804
19.5350,-21.57491322
19.5400,-21.52110954
19.5450,-21.46553364
19.5500,-21.40847752
19.5550,-21.34996264
19.5600,-21.29051056
19.5650,-21.2300461
19.5700,-21.16874209
19.5750,-21.10672456
19.5800,-21.04381976
19.5850,-20.97968542
19.5900,-20.9143968
19.5950,-20.84777605
19.6000,-20.77964968
19.6050,-20.70996515
19.6100,-20.63875161
19.6150,-20.56587133
19.6200,-20.49133343
19.6250,-20.41485802
19.6300,-20.33677114
19.6350,-20.25692087
19.6400,-20.17527061
19.6450,-20.09230869
19.6500,-20.00770675
19.6550,-19.92150823
19.6600,-19.8337853
19.6650,-19.74425976
19.6700,-19.65273072
19.6750,-19.5589388
19.6800,-19.46314182
19.6850,-19.36542233
19.6900,-19.26540415
19.6950,-19.16349701
19.7000,-19.05964533
19.7050,-18.95406039
19.7100,-18.84656023
19.7150,-18.73727869
19.7200,-18.62607768
19.7250,-18.5130171
19.7300,-18.3980344
19.7350,-18.28093767
19.7400,-18.1619022
19.7450,-18.04074984
19.7500,-17.91771403
19.7550,-17.79275058
19.7600,-17.66585006
19.7650,-17.53706054
19.7700,-17.40626566
19.7750,-17.27330762
19.7800,-17.13827815
19.7850,-17.00153274
19.7900,-16.86313879
19.7950,-16.72340908
19.8000,-16.5823154
19.8050,-16.4397845
19.8100,-16.29587311
19.8150,-16.15045449
19.8200,-16.0033422
19.8250,-15.85494619
19.8300,-15.70529039
19.8350,-15.55431707
19.8400,-15.40214189
19.8450,-15.24860016
19.8500,-15.09385246
19.8550,-14.93793667
19.8600,-14.78087242
19.8650,-14.62255072
19.8700,-14.46291798
19.8750,-14.30166897
19.8800,-14.13909443
19.8850,-13.9751594
19.8900,-13.80928237
19.8950,-13.64153972
19.9000,-13.47183845
19.9050,-13.29983768
19.9100,-13.12533069
19.9150,-12.9482391
19.9200,-12.76833894
19.9250,-12.58595346
19.9300,-12.40056531
19.9350,-12.21228841
19.9400,-12.0209745
19.9450,-11.8265707
19.9500,-11.62925213
19.9550,-11.42852453
19.9600,-11.22441492
19.9650,-11.01703847
19.9700,-10.80660209
19.9750,-10.59304664
19.9800,-10.37574885
19.9850,-10.15499135
19.9900,-9.930570303
19.9950,-9.70245018
20.0000,-9.470597774
20.0050,-9.235059525
20.0100,-8.995373337
20.0150,-8.751641362
20.0200,-8.503849911
20.0250,-8.251944217
20.0300,-7.995657241
20.0350,-7.734853178
20.0400,-7.469840666
20.0450,-7.200440926
20.0500,-6.92669514
20.0550,-6.648486277
20.0600,-6.365819857
20.0650,-6.078828569
20.0700,-5.787633475
20.0750,-5.492075138
20.0800,-5.192170985
20.0850,-4.887732265
20.0900,-4.578919143
20.0950,-4.265077064
20.1000,-3.946652683
20.1050,-3.623589394
20.1100,-3.295830598
20.1150,-2.96342488
20.1200,-2.626772377
20.1250,-2.285428581
20.1300,-1.939839889
20.1350,-1.589877082
20.1400,-1.235748367
20.1450,-0.8775474179
20.1500,-0.5152524801
20.1550,-0.1490587935
20.1600,0.2211824106
20.1650,0.5954693196
20.1700,0.9740316766
20.1750,1.35642537
20.1800,1.742840457
20.1850,2.133473474
20.1900,2.528029615
20.1950,2.926528419
20.2000,3.328996225
20.2050,3.734842797
20.2100,4.144599946
20.2150,4.558077645
20.2200,4.975199753
20.2250,5.39570055
20.2300,5.819520158
20.2350,6.246807155
20.2400,6.677123745
20.2450,7.110854323
20.2500,7.547774116
20.2550,7.98762021
20.2600,8.430608078
20.2650,8.876714452
20.2700,9.325897363
20.2750,9.778341441
20.2800,10.23339256
20.2850,10.69122525
20.2900,11.15162371
20.2950,11.61477922
20.3000,12.08067558
20.3050,12.54949499
20.3100,13.02059433
20.3150,13.49431788
20.3200,13.97039752
20.3250,14.44900894
20.3300,14.92984947
20.3350,15.41261721
20.3400,15.8976165
20.3450,16.38456537
20.3500,16.87356756
20.3550,17.36427957
20.3600,17.8565398
20.3650,18.35025788
20.3700,18.84553442
20.3750,19.34172785
20.3800,19.83894739
20.3850,20.33680527
20.3900,20.83548399
20.3950,21.33441173
20.4000,21.83406074
20.4050,22.3339157
20.4100,22.8335209
20.4150,23.33312567
20.4200,23.83244737
20.4250,24.33121553
20.4300,24.8293896
20.4350,25.32637783
20.4400,25.82196043
20.4450,26.31567083
20.4500,26.80737576
20.4550,27.29663683
20.4600,27.78358965
20.4650,28.26820346
20.4700,28.75049607
20.4750,29.23044721
20.4800,29.70801651
20.4850,30.18307513
20.4900,30.65521201
20.4950,31.12480809
20.5000,31.59193804
20.5050,32.05674182
20.5100,32.51856517
20.5150,32.9776351
20.5200,33.43408065
20.5250,33.88730407
20.5300,34.3372556
20.5350,34.78382419
20.5400,35.22715459
20.5450,35.66750078
20.5500,36.10479596
20.5550,36.53935942
20.5600,36.97108897
20.5650,37.39987215
20.5700,37.82556244
20.5750,38.24756186
20.5800,38.66619055
20.5850,39.08123731
20.5900,39.49261643
20.5950,39.90055485
20.6000,40.30513321
20.6050,40.7063303
20.6100,41.10418948
20.6150,41.49855856
20.6200,41.88961224
20.6250,42.27700201
20.6300,42.66110283
20.6350,43.0418808
20.6400,43.4195646
20.6450,43.79396531
20.6500,44.16532663
20.6550,44.53392798
20.6600,44.89991482
20.6650,45.2633344
20.6700,45.62421091
20.6750,45.982077
20.6800,46.33685526
20.6850,46.68783907
20.6900,47.03539008
20.6950,47.3792006
20.7000,47.71889438
20.7050,48.05461429
20.7100,48.38647637
20.7150,48.71422519
20.7200,49.03810939
20.7250,49.35797786
20.7300,49.67406127
20.7350,49.9868097
20.7400,50.29681674
20.7450,50.60340193
20.7500,50.90657984
20.7550,51.20576591
20.7600,51.50087115
20.7650,51.79164049
20.7700,52.07758321
20.7750,52.3587897
20.7800,52.63500606
20.7850,52.90621527
20.7900,53.17320224
20.7950,53.43592357
20.8000,53.69456234
20.8050,53.94933554
20.8100,54.20071813
20.8150,54.44883451
20.8200,54.69342476
20.8250,54.93458908
20.8300,55.17226418
20.8350,55.4062447
20.8400,55.63629439
20.8450,55.86218195
20.8500,56.08402004
20.8550,56.30157218
20.8600,56.51490617
20.8650,56.72456842
20.8700,56.93098046
20.8750,57.13467906
20.8800,57.33533099
20.8850,57.53339778
20.8900,57.72915959
20.8950,57.92301088
20.9000,58.11511355
20.9050,58.30569118
20.9100,58.49480292
20.9150,58.68258159
20.9200,58.86907568
20.9250,59.053979
20.9300,59.2372904
20.9350,59.41913579
20.9400,59.5993563
20.9450,59.77802993
20.9500,59.95511091
20.9550,60.13027835
20.9600,60.30308032
20.9650,60.47335022
20.9700,60.64081468
20.9750,60.80549185
20.9800,60.96755299
20.9850,61.12695909
20.9900,61.28372295
20.9950,61.43836331
21.0000,61.59091715
21.0050,61.7415538
21.0100,61.8909568
21.0150,62.03926212
21.0200,62.18622383
21.0250,62.33182602
21.0300,62.47639548
21.0350,62.61978896
21.0400,62.76180138
21.0450,62.90284591
21.0500,63.04328954
21.0550,63.18374243
21.0600,63.3238578
21.0650,63.46362505
21.0700,63.60293005
21.0750,63.74154707
21.0800,63.87970373
21.0850,64.01766971
21.0900,64.15459297
21.0950,64.28994847
21.1000,64.42375029
21.1050,64.5556918
21.1100,64.68528679
21.1150,64.81269186
21.1200,64.93780783
21.1250,65.06098982
21.1300,65.18236328
21.1350,65.30242683
21.1400,65.42155177
21.1450,65.53984139
21.1500,65.65711169
21.1550,65.77345888
21.1600,65.88920944
21.1650,66.00447693
21.1700,66.11889509
21.1750,66.2326832
21.1800,66.3457876
21.1850,66.45800207
21.1900,66.56957507
21.1950,66.68040188
21.2000,66.79069516
21.2050,66.90033982
21.2100,67.00960807
21.2150,67.11868468
21.2200,67.22768301
21.2250,67.33702155
21.2300,67.4466405
21.2350,67.5564831
21.2400,67.66682056
21.2450,67.7774864
21.2500,67.88850847
21.2550,67.99970316
21.2600,68.11107984
21.2650,68.2226803
21.2700,68.33499382
21.2750,68.44831643
21.2800,68.56268141
21.2850,68.67833322
21.2900,68.79524959
21.2950,68.91333378
21.3000,69.03272273
21.3050,69.15337174
21.3100,69.27446266
21.3150,69.39595297
21.3200,69.51828797
21.3250,69.64144312
21.3300,69.76505325
21.3350,69.88915639
21.3400,70.01366792
21.3450,70.1381475
21.3500,70.26210799
21.3550,70.38498702
21.3600,70.50656787
21.3650,70.62658488
21.3700,70.74472123
21.3750,70.86057303
21.3800,70.97377972
21.3850,71.08405924
21.3900,71.19151319
21.3950,71.29610743
21.4000,71.39771107
21.4050,71.49609332
21.4100,71.59130061
21.4150,71.68285461
21.4200,71.77084605
21.4250,71.85541747
21.4300,71.93681635
21.4350,72.01525723
21.4400,72.09074053
21.4450,72.16338037
21.4500,72.23355752
21.4550,72.30158946
21.4600,72.36729767
21.4650,72.43052895
21.4700,72.49169715
21.4750,72.55043078
21.4800,72.60726839
21.4850,72.66223166
21.4900,72.7152903
21.4950,72.76630625
21.5000,72.8149078
21.5050,72.86114293
21.5100,72.90487212
21.5150,72.94662737
21.5200,72.98659298
21.5250,73.0250668
21.5300,73.06240107
21.5350,73.09853679
21.5400,73.1333568
21.5450,73.16740565
21.5500,73.20088347
21.5550,73.23418936
21.5600,73.26783111
21.5650,73.30205063
21.5700,73.33663095
21.5750,73.37141719
21.5800,73.40642579
21.5850,73.44195295
21.5900,73.47797255
21.5950,73.51460281
21.6000,73.55145167
21.6050,73.5884117
21.6100,73.62572033
21.6150,73.66326069
21.6200,73.7009772
21.6250,73.73864217
21.6300,73.77608829
21.6350,73.81307211
21.6400,73.84971503
21.6450,73.88587983
21.6500,73.92151808
21.6550,73.95663555
21.6600,73.9909394
21.6650,74.02442571
21.6700,74.05729796
21.6750,74.0895982
21.6800,74.1212372
21.6850,74.15159367
21.6900,74.1804877
21.6950,74.20763949
21.7000,74.23307851
21.7050,74.25724482
21.7100,74.28036223
21.7150,74.30239039
21.7200,74.32313156
21.7250,74.34241919
21.7300,74.36015799
21.7350,74.37595709
21.7400,74.38976075
21.7450,74.4015286
21.7500,74.4112892
21.7550,74.41890503
21.7600,74.42465476
21.7650,74.42863281
21.7700,74.43106092
21.7750,74.43235475
21.7800,74.43254554
21.7850,74.43183669
21.7900,74.43000287
21.7950,74.42706649
21.8000,74.42346127
21.8050,74.41928117
21.8100,74.4149469
21.8150,74.41041225
21.8200,74.40603676
21.8250,74.40148485
21.8300,74.39705801
21.8350,74.39311945
21.8400,74.39004337
21.8450,74.38774173
21.8500,74.38626574
21.8550,74.38576389
21.8600,74.38602452
21.8650,74.38688536
21.8700,74.38830941
21.8750,74.39044638
21.8800,74.39323629
21.8850,74.39633227
21.8900,74.3995468
21.8950,74.40277831
21.9000,74.40624491
21.9050,74.40999217
21.9100,74.41381412
21.9150,74.41764664
21.9200,74.42119184
21.9250,74.42433442
21.9300,74.42714825
21.9350,74.42959241
21.9400,74.43136073
21.9450,74.43277829
21.9500,74.43377883
21.9550,74.43456276
21.9600,74.43527113
21.9650,74.43576328
21.9700,74.43573839
21.9750,74.43523255
21.9800,74.43411106
21.9850,74.43273354
21.9900,74.4311497
21.9950,74.4295188
22.0000,74.42770201
22.0050,74.42525006
22.0100,74.42193638
22.0150,74.41783166
22.0200,74.41309066
22.0250,74.40760997
22.0300,74.4016098
22.0350,74.39508037
22.0400,74.38810327
22.0450,74.38063123
22.0500,74.37260637
22.0550,74.36436049
22.0600,74.35569159
22.0650,74.34688355
22.0700,74.33793253
22.0750,74.32862304
22.0800,74.31880635
22.0850,74.30838839
22.0900,74.29757536
22.0950,74.2866109
22.1000,74.27532847
22.1050,74.26409058
22.1100,74.25263653
22.1150,74.24097154
22.1200,74.22885706
22.1250,74.21645756
22.1300,74.2036833
22.1350,74.19051038
22.1400,74.17695375
22.1450,74.16291469
22.1500,74.14827775
22.1550,74.13302585
22.1600,74.11727887
22.1650,74.10101188
22.1700,74.08400026
22.1750,74.06641525
22.1800,74.04814562
22.1850,74.0293606
22.1900,74.01025033
22.1950,73.99031028
22.2000,73.96963519
22.2050,73.94806935
22.2100,73.92581398
22.2150,73.90307461
22.2200,73.87952972
22.2250,73.85536099
22.2300,73.83055048
22.2350,73.80504362
22.2400,73.77902437
22.2450,73.75255965
22.2500,73.72568963
22.2550,73.69819855
22.2600,73.67006611
22.2650,73.64111265
22.2700,73.61148894
22.2750,73.58135419
22.2800,73.55074148
22.2850,73.51981657
22.2900,73.48855157
22.2950,73.45685604
22.3000,73.4247733
22.3050,73.39235206
22.3100,73.35929711
22.3150,73.3254938
22.3200,73.29069542
22.3250,73.25489114
22.3300,73.21768288
22.3350,73.17926497
22.3400,73.13954004
22.3450,73.09856593
22.3500,73.05636192
22.3550,73.01289033
22.3600,72.96842866
22.3650,72.92265507
22.3700,72.87550097
22.3750,72.82701268
22.3800,72.77726604
22.3850,72.72626482
22.3900,72.67373506
22.3950,72.61965708
22.4000,72.56412105
22.4050,72.50696011
22.4100,72.44835264
22.4150,72.3881882
22.4200,72.32648631
22.4250,72.26335635
22.4300,72.19873037
22.4350,72.13268318
22.4400,72.06506726
22.4450,71.99598037
22.4500,71.92541524
22.4550,71.85296897
22.4600,71.77840904
22.4650,71.70141712
22.4700,71.62208649
22.4750,71.54011656
22.4800,71.45538468
22.4850,71.36796348
22.4900,71.27785008
22.4950,71.18552122
22.5000,71.09088583
22.5050,70.99423552
22.5100,70.89553665
22.5150,70.79438728
22.5200,70.69138724
22.5250,70.58651732
22.5300,70.47985563
22.5350,70.37134985
22.5400,70.2609478
22.5450,70.14843751
22.5500,70.03405023
22.5550,69.91793404
22.5600,69.80019062
22.5650,69.68095037
22.5700,69.5601396
22.5750,69.43736548
22.5800,69.31255588
22.5850,69.18549002
22.5900,69.05595877
22.5950,68.92390982
22.6000,68.78910064
22.6050,68.65145918
22.6100,68.51133233
22.6150,68.36858252
22.6200,68.22349294
22.6250,68.07596586
22.6300,67.92611155
22.6350,67.77373213
22.6400,67.61908432
22.6450,67.46225893
22.6500,67.303335
22.6550,67.14192648
22.6600,66.97801081
22.6650,66.81172605
22.6700,66.64306895
22.6750,66.47233136
22.6800,66.29967952
22.6850,66.12524512
22.6900,65.949114
22.6950,65.77106314
22.7000,65.59097991
22.7050,65.40865851
22.7100,65.22414214
22.7150,65.03736746
22.7200,64.84861254
22.7250,64.65751328
22.7300,64.46403673
22.7350,64.2680601
22.7400,64.06964143
22.7450,63.86867261
22.7500,63.66517725
22.7550,63.45940122
22.7600,63.2514434
22.7650,63.04131965
22.7700,62.82925813
22.7750,62.6153286
22.7800,62.39952947
22.7850,62.18165353
22.7900,61.96186737
22.7950,61.73987374
22.8000,61.51566028
22.8050,61.28891778
22.8100,61.05973123
22.8150,60.82814811
22.8200,60.59372399
22.8250,60.35634502
22.8300,60.11591923
22.8350,59.87254342
22.8400,59.6260601
22.8450,59.37655655
22.8500,59.12360223
22.8550,58.86709904
22.8600,58.6072699
22.8650,58.34420973
22.8700,58.07752743
22.8750,57.80759867
22.8800,57.53471468
22.8850,57.25869787
22.8900,56.97958682
22.8950,56.69728066
22.9000,56.4115339
22.9050,56.12222039
22.9100,55.8291614
22.9150,55.53232926
22.9200,55.23126283
22.9250,54.92662082
22.9300,54.61825896
22.9350,54.30677971
22.9400,53.99201707
22.9450,53.67403977
22.9500,53.35276619
22.9550,53.02847339
22.9600,52.70089519
22.9650,52.36994092
22.9700,52.03557622
22.9750,51.69740781
22.9800,51.35513842
22.9850,51.00849865
22.9900,50.6575862
22.9950,50.30258658
23.0000,49.94380634
23.0050,49.58155875
23.0100,49.21570247
23.0150,48.84634864
23.0200,48.47302734
23.0250,48.09631013
23.0300,47.71625137
23.0350,47.33276931
23.0400,46.9454461
23.0450,46.55456535
23.0500,46.15978543
23.0550,45.76138381
23.0600,45.35928349
23.0650,44.95389287
23.0700,44.54488515
23.0750,44.1319979
23.0800,43.71541744
23.0850,43.29495914
23.0900,42.87050879
23.0950,42.44206637
23.1000,42.00956569
23.1050,41.57297789
23.1100,41.13207555
23.1150,40.68702387
23.1200,40.2377247
23.1250,39.78420961
23.1300,39.32661591
23.1350,38.86458873
23.1400,38.39859888
23.1450,37.92837686
23.1500,37.45441595
23.1550,36.97677554
23.1600,36.49551129
23.1650,36.01096199
23.1700,35.5235412
23.1750,35.03341826
23.1800,34.54031607
23.1850,34.04415293
23.1900,33.54505629
23.1950,33.0431987
23.2000,32.53914261
23.2050,32.03294179
23.2100,31.52435696
23.2150,31.01375288
23.2200,30.50155779
23.2250,29.98753329
23.2300,29.47219578
23.2350,28.95552205
23.2400,28.4373992
23.2450,27.91811842
23.2500,27.39750364
23.2550,26.875884
23.2600,26.35359436
23.2650,25.83107123
23.2700,25.3080493
23.2750,24.78519151
23.2800,24.26269569
23.2850,23.74079822
23.2900,23.21973243
23.2950,22.69965536
23.3000,22.18060126
23.3050,21.66253143
23.3100,21.14577724
23.3150,20.63037073
23.3200,20.11631815
23.3250,19.60337719
23.3300,19.09190851
23.3350,18.58161585
23.3400,18.07290094
23.3450,17.56559378
23.3500,17.05941666
23.3550,16.55452964
23.3600,16.05085471
23.3650,15.54847938
23.3700,15.04741541
23.3750,14.54803743
23.3800,14.04989897
23.3850,13.55290763
23.3900,13.05708187
23.3950,12.56244053
23.4000,12.06925811
23.4050,11.57732735
23.4100,11.08693116
23.4150,10.59772098
23.4200,10.1101783
23.4250,9.624170465
23.4300,9.139524324
23.4350,8.656727406
23.4400,8.175664575
23.4450,7.696843588
23.4500,7.219937988
23.4550,6.745443161
23.4600,6.273158317
23.4650,5.803225241
23.4700,5.335837607
23.4750,4.870780679
23.4800,4.408407007
23.4850,3.949096155
23.4900,3.492988942
23.4950,3.040207783
23.5000,2.590372099
23.5050,2.143703621
23.5100,1.700611157
23.5150,1.261076661
23.5200,0.8249512957
23.5250,0.3921875596
23.5300,-0.03710161651
23.5350,-0.4628707
23.5400,-0.8847076047
23.5450,-1.302715268
23.5500,-1.716283534
23.5550,-2.125823428
23.5600,-2.531018685
23.5650,-2.931737385
23.5700,-3.32799467
23.5750,-3.719749736
23.5800,-4.107240691
23.5850,-4.490097971
23.5900,-4.86860172
23.5950,-5.242669168
23.6000,-5.6122085
23.6050,-5.977502542
23.6100,-6.338435675
23.6150,-6.694899258
23.6200,-7.046574434
23.6250,-7.39326173
23.6300,-7.735095835
23.6350,-8.071260449
23.6400,-8.402083162
23.6450,-8.727002672
23.6500,-9.045804681
23.6550,-9.358609162
23.6600,-9.665136734
23.6650,-9.965357277
23.6700,-10.2595667
23.6750,-10.54744603
23.6800,-10.8286209
23.6850,-11.10332131
23.6900,-11.37173529
23.6950,-11.63417789
23.7000,-11.89079701
23.7050,-12.14184823
23.7100,-12.38758994
23.7150,-12.62809036
23.7200,-12.86393612
23.7250,-13.09549929
23.7300,-13.32318819
23.7350,-13.54750057
23.7400,-13.76900182
23.7450,-13.98799378
23.7500,-14.20456313
23.7550,-14.41885044
23.7600,-14.63055519
23.7650,-14.83988881
23.7700,-15.04660522
23.7750,-15.25048916
23.7800,-15.45185424
23.7850,-15.6505275
23.7900,-15.84677813
23.7950,-16.04045637
23.8000,-16.23159395
23.8050,-16.41979422
23.8100,-16.60528687
23.8150,-16.78802822
23.8200,-16.96812908
23.8250,-17.14524286
23.8300,-17.31962637
23.8350,-17.49116814
23.8400,-17.6600664
23.8450,-17.82654164
23.8500,-17.99041734
23.8550,-18.15151409
23.8600,-18.30997818
23.8650,-18.46592298
23.8700,-18.61913321
23.8750,-18.76983523
23.8800,-18.9181415
23.8850,-19.06430014
23.8900,-19.20825047
23.8950,-19.34994201
23.9000,-19.48945231
23.9050,-19.62663932
23.9100,-19.7616275
23.9150,-19.89458146
23.9200,-20.02546161
23.9250,-20.15450564
23.9300,-20.28190974
23.9350,-20.40785468
23.9400,-20.53241616
23.9450,-20.65563755
23.9500,-20.77764448
23.9550,-20.89814055
23.9600,-21.01728382
23.9650,-21.13526922
23.9700,-21.25193117
23.9750,-21.36777456
23.9800,-21.48270276
23.9850,-21.59668069
23.9900,-21.70949126
23.9950,-21.82122025
24.0000,-21.93193581
24.0050,-22.04179403
24.0100,-22.15089719
24.0150,-22.25927543
24.0200,-22.36675151
24.0250,-22.47355328
24.0300,-22.57980894
24.0350,-22.68555057
24.0400,-22.79072792
24.0450,-22.89542646
24.0500,-22.99961542
24.0550,-23.10361694
24.0600,-23.20743523
24.0650,-23.31084812
24.0700,-23.41411722
24.0750,-23.51701431
24.0800,-23.61937867
24.0850,-23.72126489
24.0900,-23.82245024
24.0950,-23.92290255
24.1000,-24.02229296
24.1050,-24.12080652
24.1100,-24.21832768
24.1150,-24.31493053
24.1200,-24.41054661
24.1250,-24.50524031
24.1300,-24.59910098
24.1350,-24.69190927
24.1400,-24.78384061
24.1450,-24.87470339
24.1500,-24.9646012
24.1550,-25.0536528
24.1600,-25.14173803
24.1650,-25.22884994
24.1700,-25.31516956
24.1750,-25.40072892
24.1800,-25.48552178
24.1850,-25.56964602
24.1900,-25.65262054
24.1950,-25.73472606
24.2000,-25.81580837
24.2050,-25.8956973
24.2100,-25.97446652
24.2150,-26.05197191
24.2200,-26.12799015
24.2250,-26.20228909
24.2300,-26.27457725
24.2350,-26.34495403
24.2400,-26.41316585
24.2450,-26.47946976
24.2500,-26.5438408
24.2550,-26.60651748
24.2600,-26.66760238
24.2650,-26.72698064
24.2700,-26.78466711
24.2750,-26.84050266
24.2800,-26.89467194
24.2850,-26.9469241
24.2900,-26.99761046
24.2950,-27.0465527
24.3000,-27.09374764
24.3050,-27.13902204
24.3100,-27.18236279
24.3150,-27.22385638
24.3200,-27.26358111
24.3250,-27.30129296
24.3300,-27.33701573
24.3350,-27.37061332
24.3400,-27.40181971
24.3450,-27.43051395
24.3500,-27.45643502
24.3550,-27.47921911
24.3600,-27.49894566
24.3650,-27.51532539
24.3700,-27.52799195
24.3750,-27.53680972
24.3800,-27.54174392
24.3850,-27.54289808
24.3900,-27.54029809
24.3950,-27.53405819
24.4000,-27.5244251
24.4050,-27.51154364
24.4100,-27.49539406
24.4150,-27.47598268
24.4200,-27.45344398
24.4250,-27.42801452
24.4300,-27.39975302
24.4350,-27.36888532
24.4400,-27.33547916
24.4450,-27.29983842
24.4500,-27.26210017
24.4550,-27.22257294
24.4600,-27.18161106
24.4650,-27.1393063
24.4700,-27.0958817
24.4750,-27.05146327
24.4800,-27.00619344
24.4850,-26.95999204
24.4900,-26.91344683
24.4950,-26.86634494
24.5000,-26.81890989
24.5050,-26.77124417
24.5100,-26.72319732
24.5150,-26.67510789
24.5200,-26.62715017
24.5250,-26.57949065
24.5300,-26.53237921
24.5350,-26.48563895
24.5400,-26.43944396
24.5450,-26.39382073
24.5500,-26.34858305
24.5550,-26.30367553
24.5600,-26.25925541
24.5650,-26.21547084
24.5700,-26.17216921
24.5750,-26.12932348
24.5800,-26.08704035
24.5850,-26.04543615
24.5900,-26.00457224
24.5950,-25.96452143
24.6000,-25.92539966
24.6050,-25.88738144
24.6100,-25.85037254
24.6150,-25.81457478
24.6200,-25.77972523
24.6250,-25.74596278
24.6300,-25.71298555
24.6350,-25.68083524
24.6400,-25.64941646
24.6450,-25.61860199
24.6500,-25.5883157
24.6550,-25.55876801
24.6600,-25.52965946
24.6650,-25.50119349
24.6700,-25.47337909
24.6750,-25.44655811
24.6800,-25.42054443
24.6850,-25.39549368
24.6900,-25.37139099
24.6950,-25.34833569
24.7000,-25.32622628
24.7050,-25.30507124
24.7100,-25.28516781
24.7150,-25.2665834
24.7200,-25.24923763
24.7250,-25.23334569
24.7300,-25.21892115
24.7350,-25.20605471
24.7400,-25.19482282
24.7450,-25.18520201
24.7500,-25.17732738
24.7550,-25.17091064
24.7600,-25.16580278
24.7650,-25.16207487
24.7700,-25.15962932
24.7750,-25.15836151
24.7800,-25.15811993
24.7850,-25.15900086
24.7900,-25.16077532
24.7950,-25.16366372
24.8000,-25.16740282
24.8050,-25.17224713
24.8100,-25.17806665
24.8150,-25.18461992
24.8200,-25.19182785
24.8250,-25.19954978
24.8300,-25.20748897
24.8350,-25.21560815
24.8400,-25.22367302
24.8450,-25.23137732
24.8500,-25.23870476
24.8550,-25.24557147
24.8600,-25.25169638
24.8650,-25.25674267
24.8700,-25.26048407
24.8750,-25.26272355
24.8800,-25.26323946
24.8850,-25.26180983
24.8900,-25.25805578
24.8950,-25.25800664
24.9000,-25.25522343
24.9050,-25.24970139
24.9100,-25.24149732
24.9150,-25.23072731
24.9200,-25.21756244
24.9250,-25.20222277
24.9300,-25.18496974
24.9350,-25.16609717
24.9400,-25.14592174
24.9450,-25.12477414
24.9500,-25.10299125
24.9550,-25.08090956
24.9600,-25.05886008
24.9650,-25.03716388
24.9700,-25.01612798
24.9750,-24.99604125
24.9800,-24.9771691
24.9850,-24.95974623
24.9900,-24.94396833
24.9950,-24.92998423
25.0000,-24.9178895
25.0050,-24.90772254
25.0100,-24.89946404
25.0150,-24.8930386
25.0200,-24.88831645
25.0250,-24.88511477
25.0300,-24.88320004
25.0350,-24.8822918
