type,name,time_units,begin_time,frequency,count,units
signal,"Noraxon MyoMotion-Segments-Upper arm RT-Roll","s",0.0000,200,5008,"deg"

time,value
0.0000,11.23661078
0.0050,11.23498375
0.0100,11.23335658
0.0150,11.23172927
0.0200,11.23000596
0.0250,11.22820207
0.0300,11.22633575
0.0350,11.2244274
0.0400,11.2224983
0.0450,11.22056918
0.0500,11.21865951
0.0550,11.21678778
0.0600,11.21497194
0.0650,11.21322923
0.0700,11.2115751
0.0750,11.21002221
0.0800,11.20858031
0.0850,11.207257
0.0900,11.2060582
0.0950,11.20498818
0.1000,11.20404983
0.1050,11.2032451
0.1100,11.202575
0.1150,11.20203935
0.1200,11.2016372
0.1250,11.20136744
0.1300,11.20122865
0.1350,11.20121885
0.1400,11.20133525
0.1450,11.20157296
0.1500,11.20192266
0.1550,11.2004635
0.1600,11.19906626
0.1650,11.19769924
0.1700,11.19630808
0.1750,11.19466008
0.1800,11.19299745
0.1850,11.19127939
0.1900,11.1894701
0.1950,11.1875796
0.2000,11.18550358
0.2050,11.18323674
0.2100,11.18096419
0.2150,11.17851205
0.2200,11.17605223
0.2250,11.17328411
0.2300,11.17038752
0.2350,11.1673915
0.2400,11.16439337
0.2450,11.16132785
0.2500,11.15812931
0.2550,11.15483128
0.2600,11.15167759
0.2650,11.14852372
0.2700,11.14529013
0.2750,11.1421165
0.2800,11.13895635
0.2850,11.13575151
0.2900,11.13258729
0.2950,11.12974924
0.3000,11.12697295
0.3050,11.12437512
0.3100,11.12185641
0.3150,11.11951138
0.3200,11.11716567
0.3250,11.11469802
0.3300,11.11217101
0.3350,11.1098132
0.3400,11.10755747
0.3450,11.1055386
0.3500,11.10354025
0.3550,11.10158604
0.3600,11.09977515
0.3650,11.09798973
0.3700,11.09633433
0.3750,11.09489355
0.3800,11.09365877
0.3850,11.09254141
0.3900,11.09145872
0.3950,11.09055923
0.4000,11.08970624
0.4050,11.08894885
0.4100,11.08818906
0.4150,11.08743376
0.4200,11.0866345
0.4250,11.08601988
0.4300,11.08539734
0.4350,11.08473508
0.4400,11.08422191
0.4450,11.08376029
0.4500,11.08316775
0.4550,11.08256987
0.4600,11.08193825
0.4650,11.08150108
0.4700,11.0809416
0.4750,11.08051124
0.4800,11.08002849
0.4850,11.079542
0.4900,11.07893519
0.4950,11.07829838
0.5000,11.0774731
0.5050,11.07636145
0.5100,11.07482553
0.5150,11.07300774
0.5200,11.07084578
0.5250,11.06844131
0.5300,11.06559814
0.5350,11.06223486
0.5400,11.05832764
0.5450,11.05381377
0.5500,11.04890509
0.5550,11.04350081
0.5600,11.03757714
0.5650,11.03112372
0.5700,11.02414726
0.5750,11.01686016
0.5800,11.00921416
0.5850,11.00124632
0.5900,10.99307003
0.5950,10.98449445
0.6000,10.97565678
0.6050,10.96660959
0.6100,10.95731986
0.6150,10.94781186
0.6200,10.93833023
0.6250,10.92889316
0.6300,10.9194965
0.6350,10.91013467
0.6400,10.90096036
0.6450,10.89193526
0.6500,10.88329817
0.6550,10.87509188
0.6600,10.86747559
0.6650,10.86053587
0.6700,10.8541445
0.6750,10.84833193
0.6800,10.84342662
0.6850,10.83939308
0.6900,10.8362153
0.6950,10.83392937
0.7000,10.832711
0.7050,10.83249177
0.7100,10.83321999
0.7150,10.83501074
0.7200,10.83776209
0.7250,10.84133717
0.7300,10.84587957
0.7350,10.85137017
0.7400,10.85770266
0.7450,10.86478696
0.7500,10.87271964
0.7550,10.88122649
0.7600,10.89030098
0.7650,10.89973145
0.7700,10.90963681
0.7750,10.91981075
0.7800,10.93020007
0.7850,10.94066582
0.7900,10.95130716
0.7950,10.96192387
0.8000,10.972569
0.8050,10.9831731
0.8100,10.99380309
0.8150,11.00415682
0.8200,11.01437355
0.8250,11.02424681
0.8300,11.03391801
0.8350,11.04327388
0.8400,11.05242828
0.8450,11.06130863
0.8500,11.06974045
0.8550,11.07781205
0.8600,11.08540842
0.8650,11.09250131
0.8700,11.09923441
0.8750,11.10532974
0.8800,11.11073034
0.8850,11.1154522
0.8900,11.11942043
0.8950,11.1226351
0.9000,11.12509549
0.9050,11.12667663
0.9100,11.12727133
0.9150,11.12693799
0.9200,11.12567218
0.9250,11.12351755
0.9300,11.120508
0.9350,11.11666602
0.9400,11.11221862
0.9450,11.10712256
0.9500,11.10153482
0.9550,11.09555083
0.9600,11.08936401
0.9650,11.08313589
0.9700,11.07695235
0.9750,11.0711324
0.9800,11.06556971
0.9850,11.06049787
0.9900,11.05617225
0.9950,11.05260435
1.0000,11.04964903
1.0050,11.04751494
1.0100,11.04625915
1.0150,11.04568785
1.0200,11.04597242
1.0250,11.0470765
1.0300,11.04900449
1.0350,11.05149997
1.0400,11.05466978
1.0450,11.05850081
1.0500,11.06290944
1.0550,11.06817692
1.0600,11.07418047
1.0650,11.08102681
1.0700,11.08856121
1.0750,11.09695283
1.0800,11.10608696
1.0850,11.1160404
1.0900,11.12668986
1.0950,11.13798288
1.1000,11.14997848
1.1050,11.16243146
1.1100,11.17508827
1.1150,11.18789575
1.1200,11.20057764
1.1250,11.21297119
1.1300,11.22472609
1.1350,11.23580146
1.1400,11.24588572
1.1450,11.25491599
1.1500,11.26277539
1.1550,11.26943305
1.1600,11.27453679
1.1650,11.27822264
1.1700,11.28028797
1.1750,11.28083931
1.1800,11.27977405
1.1850,11.27696603
1.1900,11.27218418
1.1950,11.26536364
1.2000,11.25634153
1.2050,11.24504091
1.2100,11.23170006
1.2150,11.21584844
1.2200,11.19746344
1.2250,11.1763877
1.2300,11.15255662
1.2350,11.12587381
1.2400,11.09608133
1.2450,11.06328804
1.2500,11.02757867
1.2550,10.98890824
1.2600,10.9471942
1.2650,10.90273533
1.2700,10.8558631
1.2750,10.80675826
1.2800,10.75560815
1.2850,10.70291295
1.2900,10.64896495
1.2950,10.5943705
1.3000,10.53963652
1.3050,10.48506329
1.3100,10.4310478
1.3150,10.37807231
1.3200,10.32630388
1.3250,10.276119
1.3300,10.22771321
1.3350,10.1814823
1.3400,10.13746024
1.3450,10.09573972
1.3500,10.05648166
1.3550,10.01960548
1.3600,9.985040423
1.3650,9.95298777
1.3700,9.923525633
1.3750,9.896627319
1.3800,9.872262277
1.3850,9.850644097
1.3900,9.831564256
1.3950,9.815106399
1.4000,9.80126458
1.4050,9.790217331
1.4100,9.781993905
1.4150,9.776963163
1.4200,9.774884473
1.4250,9.776009414
1.4300,9.780313122
1.4350,9.7876756
1.4400,9.79807132
1.4450,9.811352467
1.4500,9.827476841
1.4550,9.846167191
1.4600,9.867362969
1.4650,9.890673074
1.4700,9.915902396
1.4750,9.942749108
1.4800,9.970970542
1.4850,10.00036392
1.4900,10.03058999
1.4950,10.06145057
1.5000,10.09267594
1.5050,10.12406021
1.5100,10.15527479
1.5150,10.18625786
1.5200,10.21672426
1.5250,10.24655762
1.5300,10.27549956
1.5350,10.3035424
1.5400,10.33051393
1.5450,10.3562912
1.5500,10.38068618
1.5550,10.4036663
1.5600,10.42534001
1.5650,10.4455805
1.5700,10.46455139
1.5750,10.4821032
1.5800,10.49835252
1.5850,10.51314331
1.5900,10.52665069
1.5950,10.53860196
1.6000,10.54884867
1.6050,10.55744817
1.6100,10.56457868
1.6150,10.57008778
1.6200,10.57389978
1.6250,10.57604944
1.6300,10.57638114
1.6350,10.57503055
1.6400,10.57205759
1.6450,10.56750915
1.6500,10.56146319
1.6550,10.55397934
1.6600,10.54532551
1.6650,10.53532679
1.6700,10.52435818
1.6750,10.51231703
1.6800,10.49949403
1.6850,10.48578911
1.6900,10.47132957
1.6950,10.45629358
1.7000,10.44062398
1.7050,10.42427737
1.7100,10.40747955
1.7150,10.38998235
1.7200,10.3720196
1.7250,10.35353954
1.7300,10.33459803
1.7350,10.31512525
1.7400,10.29513517
1.7450,10.27463007
1.7500,10.25355798
1.7550,10.23202826
1.7600,10.21010254
1.7650,10.18795865
1.7700,10.1657489
1.7750,10.14346307
1.7800,10.12143605
1.7850,10.09990916
1.7900,10.07915919
1.7950,10.05930088
1.8000,10.04054554
1.8050,10.02294403
1.8100,10.00648341
1.8150,9.991182874
1.8200,9.977152926
1.8250,9.964192755
1.8300,9.952288143
1.8350,9.94127856
1.8400,9.931139557
1.8450,9.921708545
1.8500,9.91290825
1.8550,9.904613992
1.8600,9.896688279
1.8650,9.88894726
1.8700,9.880929314
1.8750,9.872693191
1.8800,9.864086533
1.8850,9.855030493
1.8900,9.845382455
1.8950,9.83521351
1.9000,9.824787509
1.9050,9.81390325
1.9100,9.802464505
1.9150,9.790582925
1.9200,9.778480393
1.9250,9.766039415
1.9300,9.753135833
1.9350,9.739829145
1.9400,9.726051919
1.9450,9.711838141
1.9500,9.697130339
1.9550,9.681947972
1.9600,9.665971599
1.9650,9.649358352
1.9700,9.631796769
1.9750,9.613450235
1.9800,9.594204649
1.9850,9.573952799
1.9900,9.553044621
1.9950,9.531422191
2.0000,9.509038848
2.0050,9.486151248
2.0100,9.462756181
2.0150,9.438615081
2.0200,9.414010786
2.0250,9.388835478
2.0300,9.363166619
2.0350,9.337334172
2.0400,9.311216549
2.0450,9.284967146
2.0500,9.258761935
2.0550,9.232367981
2.0600,9.205901584
2.0650,9.179259886
2.0700,9.152371235
2.0750,9.125522107
2.0800,9.098539814
2.0850,9.071671722
2.0900,9.044918909
2.0950,9.018459932
2.1000,8.9921984
2.1050,8.966505455
2.1100,8.941443319
2.1150,8.917355798
2.1200,8.894329585
2.1250,8.872685292
2.1300,8.852636588
2.1350,8.834236771
2.1400,8.81754449
2.1450,8.802463538
2.1500,8.789056388
2.1550,8.777338848
2.1600,8.767173724
2.1650,8.758631495
2.1700,8.751891565
2.1750,8.74680986
2.1800,8.743382092
2.1850,8.741602934
2.1900,8.741262402
2.1950,8.742260596
2.2000,8.744485333
2.2050,8.747795059
2.2100,8.752169997
2.2150,8.757508375
2.2200,8.76364713
2.2250,8.770516214
2.2300,8.778276552
2.2350,8.786669613
2.2400,8.795649838
2.2450,8.805207497
2.2500,8.815104716
2.2550,8.825448676
2.2600,8.836359603
2.2650,8.847653999
2.2700,8.859212077
2.2750,8.870946711
2.2800,8.882736018
2.2850,8.894586388
2.2900,8.906291064
2.2950,8.917820749
2.3000,8.929309756
2.3050,8.94091738
2.3100,8.952525385
2.3150,8.964553042
2.3200,8.976834905
2.3250,8.98955653
2.3300,9.002607539
2.3350,9.015871105
2.3400,9.029564939
2.3450,9.0436557
2.3500,9.058095433
2.3550,9.073011816
2.3600,9.088652351
2.3650,9.105332088
2.3700,9.123051623
2.3750,9.141889636
2.3800,9.162241318
2.3850,9.184051151
2.3900,9.207377782
2.3950,9.232170537
2.4000,9.258756098
2.4050,9.287103748
2.4100,9.317330559
2.4150,9.349208678
2.4200,9.382700429
2.4250,9.417845791
2.4300,9.45469462
2.4350,9.493399485
2.4400,9.534046565
2.4450,9.576973137
2.4500,9.622232725
2.4550,9.669862312
2.4600,9.719770705
2.4650,9.771906185
2.4700,9.826006871
2.4750,9.881894718
2.4800,9.939333103
2.4850,9.99828874
2.4900,10.05873224
2.4950,10.1206424
2.5000,10.18389176
2.5050,10.24867611
2.5100,10.31507371
2.5150,10.3831079
2.5200,10.45274876
2.5250,10.52412311
2.5300,10.59703054
2.5350,10.67130902
2.5400,10.74692762
2.5450,10.82393177
2.5500,10.9025784
2.5550,10.98233889
2.5600,11.06313784
2.5650,11.14485213
2.5700,11.2275802
2.5750,11.31102988
2.5800,11.39530708
2.5850,11.48027752
2.5900,11.56598681
2.5950,11.65220209
2.6000,11.738715
2.6050,11.82509748
2.6100,11.91137022
2.6150,11.99734784
2.6200,12.08302333
2.6250,12.16826144
2.6300,12.25316281
2.6350,12.33771999
2.6400,12.42171138
2.6450,12.50540043
2.6500,12.58857783
2.6550,12.67162283
2.6600,12.75417366
2.6650,12.83628408
2.6700,12.91801618
2.6750,12.99904652
2.6800,13.07934946
2.6850,13.15881643
2.6900,13.23760504
2.6950,13.31576961
2.7000,13.39329844
2.7050,13.47017361
2.7100,13.54642576
2.7150,13.62222283
2.7200,13.69754539
2.7250,13.77231106
2.7300,13.84629192
2.7350,13.91954862
2.7400,13.99199705
2.7450,14.06346293
2.7500,14.13412918
2.7550,14.20384584
2.7600,14.27263383
2.7650,14.34054869
2.7700,14.40769864
2.7750,14.47415062
2.7800,14.54027162
2.7850,14.60601396
2.7900,14.67144605
2.7950,14.73688085
2.8000,14.80225621
2.8050,14.86762357
2.8100,14.93273209
2.8150,14.99760956
2.8200,15.06243694
2.8250,15.12718104
2.8300,15.19189165
2.8350,15.25673128
2.8400,15.32173451
2.8450,15.38653608
2.8500,15.4512461
2.8550,15.51608862
2.8600,15.58126122
2.8650,15.6468606
2.8700,15.71265105
2.8750,15.77891096
2.8800,15.84555701
2.8850,15.9127362
2.8900,15.98028879
2.8950,16.04821664
2.9000,16.11662358
2.9050,16.18562028
2.9100,16.25522889
2.9150,16.32572696
2.9200,16.39671378
2.9250,16.46825756
2.9300,16.54029238
2.9350,16.61299736
2.9400,16.68643879
2.9450,16.76038849
2.9500,16.83492762
2.9550,16.90989377
2.9600,16.98537205
2.9650,17.06134392
2.9700,17.13756931
2.9750,17.21441133
2.9800,17.29164265
2.9850,17.36920884
2.9900,17.44703748
2.9950,17.5250912
3.0000,17.60313266
3.0050,17.68130115
3.0100,17.7595787
3.0150,17.83808982
3.0200,17.91687449
3.0250,17.99599921
3.0300,18.07566386
3.0350,18.15563402
3.0400,18.23576591
3.0450,18.31602186
3.0500,18.39612154
3.0550,18.47599506
3.0600,18.55582297
3.0650,18.63534576
3.0700,18.714566
3.0750,18.79338921
3.0800,18.87164123
3.0850,18.9491486
3.0900,19.0258741
3.0950,19.10161234
3.1000,19.17639003
3.1050,19.24998289
3.1100,19.32249733
3.1150,19.3940468
3.1200,19.46441732
3.1250,19.53354813
3.1300,19.60163224
3.1350,19.66845706
3.1400,19.73410632
3.1450,19.79877324
3.1500,19.86224807
3.1550,19.9245405
3.1600,19.98563339
3.1650,20.04555334
3.1700,20.10446424
3.1750,20.16222251
3.1800,20.21889472
3.1850,20.27437513
3.1900,20.32889916
3.1950,20.38259305
3.2000,20.43548149
3.2050,20.48745202
3.2100,20.53853821
3.2150,20.58864194
3.2200,20.63800436
3.2250,20.68689243
3.2300,20.73542709
3.2350,20.7834263
3.2400,20.83113811
3.2450,20.87848318
3.2500,20.9255844
3.2550,20.97239887
3.2600,21.01886639
3.2650,21.06499233
3.2700,21.11110223
3.2750,21.15703061
3.2800,21.20292343
3.2850,21.24901113
3.2900,21.2954213
3.2950,21.34234752
3.3000,21.38982896
3.3050,21.4378819
3.3100,21.48645787
3.3150,21.53534678
3.3200,21.58452349
3.3250,21.63381213
3.3300,21.68320622
3.3350,21.73284413
3.3400,21.78283262
3.3450,21.83303103
3.3500,21.88334607
3.3550,21.93376723
3.3600,21.98394075
3.3650,22.03386665
3.3700,22.08335341
3.3750,22.13241898
3.3800,22.18090198
3.3850,22.22870255
3.3900,22.27584037
3.3950,22.32216087
3.4000,22.36752849
3.4050,22.41215091
3.4100,22.45597333
3.4150,22.49892626
3.4200,22.54100723
3.4250,22.58244009
3.4300,22.62320166
3.4350,22.66357827
3.4400,22.70343966
3.4450,22.74268582
3.4500,22.78121904
3.4550,22.81910026
3.4600,22.85635143
3.4650,22.89281945
3.4700,22.92858745
3.4750,22.96381656
3.4800,22.99833895
3.4850,23.03215993
3.4900,23.06503042
3.4950,23.09707499
3.5000,23.12813771
3.5050,23.15848259
3.5100,23.18800615
3.5150,23.21675205
3.5200,23.24492321
3.5250,23.27227152
3.5300,23.29877681
3.5350,23.32457084
3.5400,23.34968709
3.5450,23.37430135
3.5500,23.39847937
3.5550,23.42237159
3.5600,23.44619795
3.5650,23.46988474
3.5700,23.49353278
3.5750,23.51719417
3.5800,23.54098771
3.5850,23.56485051
3.5900,23.58899001
3.5950,23.6132721
3.6000,23.63810406
3.6050,23.66338296
3.6100,23.6891536
3.6150,23.71574271
3.6200,23.74311385
3.6250,23.77147413
3.6300,23.80078007
3.6350,23.8310914
3.6400,23.8622592
3.6450,23.89448297
3.6500,23.92767749
3.6550,23.96220363
3.6600,23.99808804
3.6650,24.03530548
3.6700,24.07404962
3.6750,24.11425244
3.6800,24.15585254
3.6850,24.19891819
3.6900,24.24328953
3.6950,24.28873411
3.7000,24.33549862
3.7050,24.38323618
3.7100,24.43203551
3.7150,24.48160436
3.7200,24.53212597
3.7250,24.58315836
3.7300,24.63455476
3.7350,24.6861334
3.7400,24.73776026
3.7450,24.78928149
3.7500,24.84079656
3.7550,24.89180975
3.7600,24.942199
3.7650,24.99192593
3.7700,25.0409816
3.7750,25.08922363
3.7800,25.13665642
3.7850,25.18319049
3.7900,25.22884042
3.7950,25.27352599
3.8000,25.31725649
3.8050,25.36003149
3.8100,25.40187059
3.8150,25.44278395
3.8200,25.48289949
3.8250,25.52206861
3.8300,25.56048106
3.8350,25.59807062
3.8400,25.63471134
3.8450,25.67042799
3.8500,25.70520354
3.8550,25.73899096
3.8600,25.77187955
3.8650,25.80394494
3.8700,25.83520411
3.8750,25.86567882
3.8800,25.89554619
3.8850,25.9249516
3.8900,25.95363032
3.8950,25.981855
3.9000,26.00969273
3.9050,26.03728715
3.9100,26.06488669
3.9150,26.09241631
3.9200,26.11992055
3.9250,26.14749885
3.9300,26.17504342
3.9350,26.20258293
3.9400,26.2301821
3.9450,26.25794539
3.9500,26.28590084
3.9550,26.31359535
3.9600,26.34111784
3.9650,26.36843569
3.9700,26.395126
3.9750,26.42106585
3.9800,26.44630172
3.9850,26.47065915
3.9900,26.49410486
3.9950,26.51682947
4.0000,26.53850436
4.0050,26.55925821
4.0100,26.57891593
4.0150,26.59748851
4.0200,26.61483398
4.0250,26.63119352
4.0300,26.64650808
4.0350,26.66070126
4.0400,26.67384536
4.0450,26.68591943
4.0500,26.69695381
4.0550,26.7070722
4.0600,26.71631783
4.0650,26.72450684
4.0700,26.73167485
4.0750,26.73773439
4.0800,26.74274779
4.0850,26.74670061
4.0900,26.74981178
4.0950,26.75196894
4.1000,26.75336215
4.1050,26.75395122
4.1100,26.75379413
4.1150,26.75282606
4.1200,26.75093825
4.1250,26.74838213
4.1300,26.74519842
4.1350,26.74151079
4.1400,26.73733349
4.1450,26.73286745
4.1500,26.72814247
4.1550,26.72303727
4.1600,26.71751464
4.1650,26.7116553
4.1700,26.70524027
4.1750,26.69845107
4.1800,26.69115272
4.1850,26.68315972
4.1900,26.67483067
4.1950,26.66588691
4.2000,26.65630847
4.2050,26.64600489
4.2100,26.6347648
4.2150,26.62274709
4.2200,26.61004785
4.2250,26.59647061
4.2300,26.58219152
4.2350,26.56726444
4.2400,26.5517869
4.2450,26.535553
4.2500,26.51864644
4.2550,26.50121975
4.2600,26.48322281
4.2650,26.4646467
4.2700,26.44576832
4.2750,26.42663392
4.2800,26.40721916
4.2850,26.38774297
4.2900,26.36802925
4.2950,26.34799736
4.3000,26.32763616
4.3050,26.3070856
4.3100,26.28619969
4.3150,26.26509753
4.3200,26.24389071
4.3250,26.22245957
4.3300,26.20097525
4.3350,26.17940101
4.3400,26.15788783
4.3450,26.13641825
4.3500,26.1148017
4.3550,26.09330611
4.3600,26.07163833
4.3650,26.05008046
4.3700,26.02839872
4.3750,26.0067661
4.3800,25.98515517
4.3850,25.96362299
4.3900,25.94206849
4.3950,25.92059486
4.4000,25.89910221
4.4050,25.87766832
4.4100,25.85623362
4.4150,25.83448672
4.4200,25.81253435
4.4250,25.79041739
4.4300,25.76797247
4.4350,25.74517121
4.4400,25.72198219
4.4450,25.69833488
4.4500,25.67415891
4.4550,25.64957962
4.4600,25.62467989
4.4650,25.59904948
4.4700,25.57302418
4.4750,25.54650136
4.4800,25.51920162
4.4850,25.49129697
4.4900,25.46259308
4.4950,25.4333502
4.5000,25.40345031
4.5050,25.37292095
4.5100,25.34183761
4.5150,25.31011928
4.5200,25.27778547
4.5250,25.24492264
4.5300,25.21146496
4.5350,25.17746557
4.5400,25.14288118
4.5450,25.10797285
4.5500,25.07246859
4.5550,25.03661032
4.5600,25.00037756
4.5650,24.96368214
4.5700,24.92649997
4.5750,24.88882679
4.5800,24.85071335
4.5850,24.81205379
4.5900,24.77302217
4.5950,24.73381728
4.6000,24.69444127
4.6050,24.65481419
4.6100,24.61523306
4.6150,24.57563387
4.6200,24.5359319
4.6250,24.49608428
4.6300,24.45610514
4.6350,24.41609442
4.6400,24.3760054
4.6450,24.33593805
4.6500,24.29594078
4.6550,24.25598607
4.6600,24.21607541
4.6650,24.17605443
4.6700,24.13595152
4.6750,24.09556572
4.6800,24.0550931
4.6850,24.01456721
4.6900,23.97397647
4.6950,23.93330878
4.7000,23.89243871
4.7050,23.85152619
4.7100,23.81053357
4.7150,23.76988288
4.7200,23.72942636
4.7250,23.68903287
4.7300,23.64862863
4.7350,23.60824284
4.7400,23.56782513
4.7450,23.52704899
4.7500,23.48599972
4.7550,23.44454821
4.7600,23.4026587
4.7650,23.36043409
4.7700,23.31770656
4.7750,23.27438897
4.7800,23.23049489
4.7850,23.18580569
4.7900,23.14011693
4.7950,23.09338885
4.8000,23.04567309
4.8050,22.9968557
4.8100,22.94698032
4.8150,22.89600095
4.8200,22.8439832
4.8250,22.79109237
4.8300,22.73748269
4.8350,22.68313204
4.8400,22.62794943
4.8450,22.57187706
4.8500,22.51525353
4.8550,22.45777961
4.8600,22.39956693
4.8650,22.34070668
4.8700,22.28095236
4.8750,22.22040929
4.8800,22.1590183
4.8850,22.09687299
4.8900,22.03389765
4.8950,21.97003457
4.9000,21.90565942
4.9050,21.84052362
4.9100,21.77466161
4.9150,21.70825525
4.9200,21.64135053
4.9250,21.57407283
4.9300,21.50652971
4.9350,21.43883604
4.9400,21.3710208
4.9450,21.30321762
4.9500,21.23554156
4.9550,21.16796281
4.9600,21.10075225
4.9650,21.03427807
4.9700,20.96855421
4.9750,20.90385126
4.9800,20.84011775
4.9850,20.77739074
4.9900,20.7157052
4.9950,20.65501028
5.0000,20.59549837
5.0050,20.53694346
5.0100,20.47919356
5.0150,20.42209923
5.0200,20.36541047
5.0250,20.30928372
5.0300,20.25356132
5.0350,20.19817062
5.0400,20.14319704
5.0450,20.08874679
5.0500,20.03494235
5.0550,19.98162925
5.0600,19.9284926
5.0650,19.87554228
5.0700,19.82245857
5.0750,19.76920229
5.0800,19.7156929
5.0850,19.66197997
5.0900,19.60822742
5.0950,19.55433883
5.1000,19.50002319
5.1050,19.44544469
5.1100,19.39060601
5.1150,19.33560696
5.1200,19.28042382
5.1250,19.22481987
5.1300,19.1688083
5.1350,19.11222508
5.1400,19.05511728
5.1450,18.99756822
5.1500,18.93911083
5.1550,18.88004105
5.1600,18.82045311
5.1650,18.76042383
5.1700,18.7001147
5.1750,18.63953471
5.1800,18.57872719
5.1850,18.51753966
5.1900,18.45604335
5.1950,18.39409113
5.2000,18.33159372
5.2050,18.26854907
5.2100,18.20499486
5.2150,18.14074664
5.2200,18.07596571
5.2250,18.01078426
5.2300,17.94508417
5.2350,17.87893801
5.2400,17.81237367
5.2450,17.74555766
5.2500,17.67839897
