type,name,time_units,begin_time,frequency,count,units
signal,"Noraxon MyoMotion-Segments-Upper arm RT-Course","s",0.0000,200,5008,"deg"

time,value
0.0000,-14.50717362
0.0050,-14.50264463
0.0100,-14.49811561
0.0150,-14.49358655
0.0200,-14.4887754
0.0250,-14.48372176
0.0300,-14.47846748
0.0350,-14.47305479
0.0400,-14.46752506
0.0450,-14.46191798
0.0500,-14.45627114
0.0550,-14.45061936
0.0600,-14.44499329
0.0650,-14.43941795
0.0700,-14.43391234
0.0750,-14.42849017
0.0800,-14.42316132
0.0850,-14.41793354
0.0900,-14.41281352
0.0950,-14.40780709
0.1000,-14.40291993
0.1050,-14.3981588
0.1100,-14.39353159
0.1150,-14.38904635
0.1200,-14.38471151
0.1250,-14.38053709
0.1300,-14.37653545
0.1350,-14.37272159
0.1400,-14.36911329
0.1450,-14.36573094
0.1500,-14.36259764
0.1550,-14.35737318
0.1600,-14.35261321
0.1650,-14.34834383
0.1700,-14.34466159
0.1750,-14.34149189
0.1800,-14.33894801
0.1850,-14.33694898
0.1900,-14.33566321
0.1950,-14.33493751
0.2000,-14.33475505
0.2050,-14.33509055
0.2100,-14.33591194
0.2150,-14.33717546
0.2200,-14.33872815
0.2250,-14.34064017
0.2300,-14.3427544
0.2350,-14.34511075
0.2400,-14.34773225
0.2450,-14.35066086
0.2500,-14.35368431
0.2550,-14.35669075
0.2600,-14.35995333
0.2650,-14.36320133
0.2700,-14.36640737
0.2750,-14.36949802
0.2800,-14.3724998
0.2850,-14.37542813
0.2900,-14.37836093
0.2950,-14.38131427
0.3000,-14.38404453
0.3050,-14.38684686
0.3100,-14.38981582
0.3150,-14.3928853
0.3200,-14.39607718
0.3250,-14.39937366
0.3300,-14.40294454
0.3350,-14.40677801
0.3400,-14.41074936
0.3450,-14.41493901
0.3500,-14.41925765
0.3550,-14.42386193
0.3600,-14.42880019
0.3650,-14.43382796
0.3700,-14.43898781
0.3750,-14.44455631
0.3800,-14.45036955
0.3850,-14.45643801
0.3900,-14.46285647
0.3950,-14.46941275
0.4000,-14.47623586
0.4050,-14.48327679
0.4100,-14.49061328
0.4150,-14.49825201
0.4200,-14.50605846
0.4250,-14.51408847
0.4300,-14.52224276
0.4350,-14.53058907
0.4400,-14.53914408
0.4450,-14.54782611
0.4500,-14.55672996
0.4550,-14.56580552
0.4600,-14.57502965
0.4650,-14.58436031
0.4700,-14.59373547
0.4750,-14.60320521
0.4800,-14.61265709
0.4850,-14.62194049
0.4900,-14.63100216
0.4950,-14.639807
0.5000,-14.6484335
0.5050,-14.65692119
0.5100,-14.66510525
0.5150,-14.67300418
0.5200,-14.68070647
0.5250,-14.6880319
0.5300,-14.69494266
0.5350,-14.70160909
0.5400,-14.70773684
0.5450,-14.71334849
0.5500,-14.71830014
0.5550,-14.72266492
0.5600,-14.72598816
0.5650,-14.72835041
0.5700,-14.72959521
0.5750,-14.72995268
0.5800,-14.72931665
0.5850,-14.72767174
0.5900,-14.72534441
0.5950,-14.72212355
0.6000,-14.71853971
0.6050,-14.71453048
0.6100,-14.71012761
0.6150,-14.70567874
0.6200,-14.70113179
0.6250,-14.69664886
0.6300,-14.69218223
0.6350,-14.6879288
0.6400,-14.68387582
0.6450,-14.68015087
0.6500,-14.67677223
0.6550,-14.67361824
0.6600,-14.6707434
0.6650,-14.66844714
0.6700,-14.66654595
0.6750,-14.66498059
0.6800,-14.66362784
0.6850,-14.66253174
0.6900,-14.66159029
0.6950,-14.66060541
0.7000,-14.65954978
0.7050,-14.65828932
0.7100,-14.65657643
0.7150,-14.65429142
0.7200,-14.65157078
0.7250,-14.64855388
0.7300,-14.64542154
0.7350,-14.64228576
0.7400,-14.63927826
0.7450,-14.63661775
0.7500,-14.63427184
0.7550,-14.63244797
0.7600,-14.63098436
0.7650,-14.62994601
0.7700,-14.62936292
0.7750,-14.62920003
0.7800,-14.62956419
0.7850,-14.63046159
0.7900,-14.6320456
0.7950,-14.63434127
0.8000,-14.63725958
0.8050,-14.64092826
0.8100,-14.645494
0.8150,-14.65073135
0.8200,-14.65638589
0.8250,-14.66254401
0.8300,-14.66892419
0.8350,-14.67490691
0.8400,-14.68069575
0.8450,-14.68596945
0.8500,-14.69058206
0.8550,-14.69466668
0.8600,-14.69834911
0.8650,-14.70159722
0.8700,-14.70464845
0.8750,-14.70743431
0.8800,-14.71011462
0.8850,-14.71267154
0.8900,-14.7150905
0.8950,-14.71759573
0.9000,-14.72016604
0.9050,-14.72265867
0.9100,-14.72528973
0.9150,-14.72783234
0.9200,-14.73050398
0.9250,-14.73312285
0.9300,-14.73599699
0.9350,-14.73897335
0.9400,-14.74232446
0.9450,-14.745939
0.9500,-14.74987543
0.9550,-14.75419122
0.9600,-14.75875623
0.9650,-14.76339539
0.9700,-14.76811807
0.9750,-14.77275278
0.9800,-14.77733361
0.9850,-14.78190714
0.9900,-14.78658122
0.9950,-14.79151533
1.0000,-14.79691724
1.0050,-14.80285287
1.0100,-14.80977157
1.0150,-14.81780482
1.0200,-14.82701404
1.0250,-14.83742371
1.0300,-14.84900662
1.0350,-14.86172823
1.0400,-14.87554275
1.0450,-14.89027504
1.0500,-14.90609309
1.0550,-14.92272905
1.0600,-14.9405553
1.0650,-14.95938442
1.0700,-14.97920776
1.0750,-15.00008267
1.0800,-15.02179116
1.0850,-15.04466818
1.0900,-15.06833542
1.0950,-15.09301838
1.1000,-15.11810814
1.1050,-15.14391078
1.1100,-15.17031208
1.1150,-15.19730703
1.1200,-15.22511433
1.1250,-15.25345774
1.1300,-15.28248146
1.1350,-15.31245052
1.1400,-15.34291919
1.1450,-15.37385324
1.1500,-15.4051504
1.1550,-15.43661031
1.1600,-15.46831354
1.1650,-15.50004458
1.1700,-15.53169939
1.1750,-15.56331963
1.1800,-15.59475974
1.1850,-15.62596513
1.1900,-15.65689802
1.1950,-15.68736312
1.2000,-15.71726943
1.2050,-15.74654726
1.2100,-15.77511353
1.2150,-15.80306203
1.2200,-15.83050883
1.2250,-15.85768628
1.2300,-15.8846511
1.2350,-15.91149845
1.2400,-15.93822895
1.2450,-15.96506557
1.2500,-15.99191797
1.2550,-16.01884205
1.2600,-16.04580368
1.2650,-16.07298348
1.2700,-16.10027765
1.2750,-16.12764284
1.2800,-16.15534239
1.2850,-16.18316368
1.2900,-16.21109633
1.2950,-16.23911324
1.3000,-16.26717212
1.3050,-16.29538842
1.3100,-16.32364092
1.3150,-16.35191026
1.3200,-16.38038432
1.3250,-16.4090472
1.3300,-16.43796851
1.3350,-16.46718029
1.3400,-16.49654838
1.3450,-16.52610245
1.3500,-16.55587813
1.3550,-16.58577922
1.3600,-16.61575296
1.3650,-16.64585053
1.3700,-16.67628583
1.3750,-16.70708156
1.3800,-16.73835191
1.3850,-16.76967622
1.3900,-16.80124974
1.3950,-16.83295716
1.4000,-16.86537644
1.4050,-16.89792095
1.4100,-16.93052886
1.4150,-16.9632312
1.4200,-16.99589527
1.4250,-17.02872576
1.4300,-17.06157773
1.4350,-17.09439525
1.4400,-17.12743138
1.4450,-17.16083274
1.4500,-17.19479379
1.4550,-17.22947178
1.4600,-17.26484767
1.4650,-17.30092479
1.4700,-17.33776284
1.4750,-17.3750486
1.4800,-17.41280821
1.4850,-17.45103397
1.4900,-17.48965134
1.4950,-17.52864809
1.5000,-17.56816296
1.5050,-17.60830629
1.5100,-17.64904746
1.5150,-17.69058446
1.5200,-17.73293148
1.5250,-17.77617366
1.5300,-17.82013132
1.5350,-17.86483768
1.5400,-17.91039595
1.5450,-17.95668671
1.5500,-18.00373094
1.5550,-18.05144174
1.5600,-18.0998413
1.5650,-18.14846112
1.5700,-18.19742387
1.5750,-18.24645043
1.5800,-18.29525146
1.5850,-18.34386046
1.5900,-18.39202114
1.5950,-18.4397985
1.6000,-18.48696758
1.6050,-18.53348195
1.6100,-18.57911082
1.6150,-18.62390662
1.6200,-18.66776498
1.6250,-18.71065774
1.6300,-18.75246804
1.6350,-18.79306703
1.6400,-18.83272236
1.6450,-18.87144157
1.6500,-18.90929694
1.6550,-18.94670656
1.6600,-18.9834937
1.6650,-19.0199323
1.6700,-19.05610786
1.6750,-19.09195705
1.6800,-19.12744023
1.6850,-19.16280098
1.6900,-19.19795534
1.6950,-19.23284956
1.7000,-19.26734966
1.7050,-19.30158552
1.7100,-19.33536366
1.7150,-19.36855812
1.7200,-19.40116706
1.7250,-19.43292456
1.7300,-19.46393835
1.7350,-19.49420062
1.7400,-19.52344295
1.7450,-19.55154574
1.7500,-19.57851324
1.7550,-19.60421252
1.7600,-19.6285526
1.7650,-19.65173953
1.7700,-19.67364455
1.7750,-19.69477199
1.7800,-19.71520693
1.7850,-19.73527818
1.7900,-19.7551723
1.7950,-19.77503759
1.8000,-19.79496091
1.8050,-19.81513518
1.8100,-19.83569345
1.8150,-19.85639023
1.8200,-19.87726621
1.8250,-19.89814559
1.8300,-19.91915779
1.8350,-19.94018873
1.8400,-19.96094121
1.8450,-19.98149269
1.8500,-20.00160062
1.8550,-20.02121081
1.8600,-20.04004262
1.8650,-20.05835196
1.8700,-20.07597546
1.8750,-20.09307549
1.8800,-20.10963019
1.8850,-20.12574171
1.8900,-20.14141139
1.8950,-20.15664559
1.9000,-20.1715637
1.9050,-20.18610475
1.9100,-20.20062225
1.9150,-20.21515276
1.9200,-20.22957379
1.9250,-20.24408118
1.9300,-20.25880309
1.9350,-20.27409494
1.9400,-20.28961918
1.9450,-20.30569408
1.9500,-20.32207833
1.9550,-20.33867024
1.9600,-20.3557268
1.9650,-20.37290861
1.9700,-20.39000666
1.9750,-20.40683229
1.9800,-20.42344159
1.9850,-20.43977842
1.9900,-20.45572576
1.9950,-20.47113454
2.0000,-20.48585381
2.0050,-20.49972026
2.0100,-20.51284425
2.0150,-20.52528356
2.0200,-20.53675608
2.0250,-20.54739461
2.0300,-20.5571864
2.0350,-20.5660163
2.0400,-20.57404412
2.0450,-20.58154373
2.0500,-20.58828651
2.0550,-20.59463532
2.0600,-20.60065463
2.0650,-20.60646769
2.0700,-20.61203984
2.0750,-20.61733153
2.0800,-20.62244079
2.0850,-20.62730827
2.0900,-20.63182786
2.0950,-20.63602169
2.1000,-20.63988784
2.1050,-20.64350371
2.1100,-20.64690928
2.1150,-20.6502048
2.1200,-20.65346037
2.1250,-20.65659248
2.1300,-20.65942104
2.1350,-20.66180538
2.1400,-20.66398306
2.1450,-20.66588322
2.1500,-20.66759872
2.1550,-20.66895926
2.1600,-20.67042441
2.1650,-20.67173786
2.1700,-20.67305727
2.1750,-20.67450676
2.1800,-20.67614764
2.1850,-20.67774139
2.1900,-20.67939399
2.1950,-20.68107265
2.2000,-20.6827997
2.2050,-20.68472394
2.2100,-20.6865055
2.2150,-20.68813013
2.2200,-20.68968384
2.2250,-20.69126039
2.2300,-20.69289211
2.2350,-20.6942982
2.2400,-20.69575957
2.2450,-20.69712855
2.2500,-20.69838541
2.2550,-20.69950937
2.2600,-20.70030094
2.2650,-20.70079051
2.2700,-20.70100088
2.2750,-20.70088668
2.2800,-20.70035746
2.2850,-20.69918133
2.2900,-20.69751276
2.2950,-20.69519621
2.3000,-20.6921452
2.3050,-20.6883472
2.3100,-20.68370243
2.3150,-20.67815366
2.3200,-20.67191443
2.3250,-20.66488596
2.3300,-20.65695756
2.3350,-20.64832232
2.3400,-20.63905151
2.3450,-20.62905101
2.3500,-20.61861225
2.3550,-20.60756679
2.3600,-20.59588738
2.3650,-20.58358022
2.3700,-20.57082857
2.3750,-20.55778087
2.3800,-20.5443888
2.3850,-20.53064691
2.3900,-20.5167115
2.3950,-20.50261512
2.4000,-20.48831429
2.4050,-20.47377048
2.4100,-20.45901072
2.4150,-20.44401183
2.4200,-20.42879694
2.4250,-20.41324724
2.4300,-20.39733136
2.4350,-20.38106313
2.4400,-20.36409017
2.4450,-20.34637423
2.4500,-20.32788728
2.4550,-20.30880144
2.4600,-20.28907942
2.4650,-20.26894013
2.4700,-20.24837498
2.4750,-20.2276416
2.4800,-20.20667706
2.4850,-20.18559579
2.4900,-20.16447719
2.4950,-20.14329547
2.5000,-20.12191042
2.5050,-20.10023153
2.5100,-20.07871282
2.5150,-20.05744599
2.5200,-20.03651625
2.5250,-20.01559789
2.5300,-19.99469663
2.5350,-19.97376285
2.5400,-19.9527
2.5450,-19.9311808
2.5500,-19.90946427
2.5550,-19.88751444
2.5600,-19.86544928
2.5650,-19.84342839
2.5700,-19.82115835
2.5750,-19.79893544
2.5800,-19.77680461
2.5850,-19.75481658
2.5900,-19.73302838
2.5950,-19.71155367
2.6000,-19.69064497
2.6050,-19.67022288
2.6100,-19.65025106
2.6150,-19.63066585
2.6200,-19.61141521
2.6250,-19.59240126
2.6300,-19.57371713
2.6350,-19.55522488
2.6400,-19.5370628
2.6450,-19.51927365
2.6500,-19.50183482
2.6550,-19.48464465
2.6600,-19.46794593
2.6650,-19.45183536
2.6700,-19.43640325
2.6750,-19.42149215
2.6800,-19.40715503
2.6850,-19.39335059
2.6900,-19.38003259
2.6950,-19.36733962
2.7000,-19.35541637
2.7050,-19.3440128
2.7100,-19.33305199
2.7150,-19.32247455
2.7200,-19.3120146
2.7250,-19.30188487
2.7300,-19.29214173
2.7350,-19.28281394
2.7400,-19.27397555
2.7450,-19.26542351
2.7500,-19.25710398
2.7550,-19.2488534
2.7600,-19.24030287
2.7650,-19.23161194
2.7700,-19.2226237
2.7750,-19.21314494
2.7800,-19.20309121
2.7850,-19.19235768
2.7900,-19.18075976
2.7950,-19.16843072
2.8000,-19.15524149
2.8050,-19.14127292
2.8100,-19.12629474
2.8150,-19.11016324
2.8200,-19.09268744
2.8250,-19.07387349
2.8300,-19.05393047
2.8350,-19.03301377
2.8400,-19.01137159
2.8450,-18.98929611
2.8500,-18.96677876
2.8550,-18.94392714
2.8600,-18.92064699
2.8650,-18.89684915
2.8700,-18.87269312
2.8750,-18.84803291
2.8800,-18.82294124
2.8850,-18.79748067
2.8900,-18.77141123
2.8950,-18.74472711
2.9000,-18.71729692
2.9050,-18.68909681
2.9100,-18.66018422
2.9150,-18.63055428
2.9200,-18.60024113
2.9250,-18.56942865
2.9300,-18.53798115
2.9350,-18.50572938
2.9400,-18.47272531
2.9450,-18.43896466
2.9500,-18.40445717
2.9550,-18.3692094
2.9600,-18.33335894
2.9650,-18.29675918
2.9700,-18.2596365
2.9750,-18.22197553
2.9800,-18.18377593
2.9850,-18.14515915
2.9900,-18.1061162
2.9950,-18.06662922
3.0000,-18.02667992
3.0050,-17.98620899
3.0100,-17.94520861
3.0150,-17.90353046
3.0200,-17.86115453
3.0250,-17.81800666
3.0300,-17.77406393
3.0350,-17.72931717
3.0400,-17.68367638
3.0450,-17.6373845
3.0500,-17.59049349
3.0550,-17.54306893
3.0600,-17.49523667
3.0650,-17.44670954
3.0700,-17.39764031
3.0750,-17.34808088
3.0800,-17.29819955
3.0850,-17.24813799
3.0900,-17.19815445
3.0950,-17.14820681
3.1000,-17.09859236
3.1050,-17.04923677
3.1100,-17.0001672
3.1150,-16.95140884
3.1200,-16.90306656
3.1250,-16.85528551
3.1300,-16.8076595
3.1350,-16.76026964
3.1400,-16.71291081
3.1450,-16.66545937
3.1500,-16.61780661
3.1550,-16.56999007
3.1600,-16.52219673
3.1650,-16.47438952
3.1700,-16.42665457
3.1750,-16.37920256
3.1800,-16.3318985
3.1850,-16.28495682
3.1900,-16.23849763
3.1950,-16.19262617
3.2000,-16.14724702
3.2050,-16.1025122
3.2100,-16.05843704
3.2150,-16.01509277
3.2200,-15.97225342
3.2250,-15.92969712
3.2300,-15.88756949
3.2350,-15.84599689
3.2400,-15.80491328
3.2450,-15.76411468
3.2500,-15.72371463
3.2550,-15.68384044
3.2600,-15.64439313
3.2650,-15.60534438
3.2700,-15.56655252
3.2750,-15.52816153
3.2800,-15.48994789
3.2850,-15.45184947
3.2900,-15.41373043
3.2950,-15.3753837
3.3000,-15.33676358
3.3050,-15.29793226
3.3100,-15.25878139
3.3150,-15.21947614
3.3200,-15.18001525
3.3250,-15.14033559
3.3300,-15.10039267
3.3350,-15.05997924
3.3400,-15.01950091
3.3450,-14.97886889
3.3500,-14.93804068
3.3550,-14.89718068
3.3600,-14.85637364
3.3650,-14.81593014
3.3700,-14.77602016
3.3750,-14.73655263
3.3800,-14.69767236
3.3850,-14.65945185
3.3900,-14.62198087
3.3950,-14.58519596
3.4000,-14.54911075
3.4050,-14.51372662
3.4100,-14.47886616
3.4150,-14.44458444
3.4200,-14.41100228
3.4250,-14.37806332
3.4300,-14.34565348
3.4350,-14.3137125
3.4400,-14.28207095
3.4450,-14.25103306
3.4500,-14.22063261
3.4550,-14.19091288
3.4600,-14.16165271
3.4650,-14.13303302
3.4700,-14.10505831
3.4750,-14.0775714
3.4800,-14.05069223
3.4850,-14.02422664
3.4900,-13.99838769
3.4950,-13.97302128
3.5000,-13.94834643
3.5050,-13.92433676
3.5100,-13.90098164
3.5150,-13.87835319
3.5200,-13.85623135
3.5250,-13.83477844
3.5300,-13.8138728
3.5350,-13.79351815
3.5400,-13.77349424
3.5450,-13.75384121
3.5500,-13.73426115
3.5550,-13.71463916
3.5600,-13.69464821
3.5650,-13.6744356
3.5700,-13.65391971
3.5750,-13.63311475
3.5800,-13.61206937
3.5850,-13.59066655
3.5900,-13.56878738
3.5950,-13.54667838
3.6000,-13.52389641
3.6050,-13.50057719
3.6100,-13.47670253
3.6150,-13.45198795
3.6200,-13.42640844
3.6250,-13.3998794
3.6300,-13.37238395
3.6350,-13.34403135
3.6400,-13.31465552
3.6450,-13.28408647
3.6500,-13.25261747
3.6550,-13.22005837
3.6600,-13.18636588
3.6650,-13.15161051
3.6700,-13.11567535
3.6750,-13.07845185
3.6800,-13.04013068
3.6850,-13.00086795
3.6900,-12.96051137
3.6950,-12.91950785
3.7000,-12.87772171
3.7050,-12.83520939
3.7100,-12.79210307
3.7150,-12.74846658
3.7200,-12.70426236
3.7250,-12.6596637
3.7300,-12.61499735
3.7350,-12.57037587
3.7400,-12.52609792
3.7450,-12.48206946
3.7500,-12.43837861
3.7550,-12.39528504
3.7600,-12.35274936
3.7650,-12.31069223
3.7700,-12.26923717
3.7750,-12.22828212
3.7800,-12.1879463
3.7850,-12.14830865
3.7900,-12.10913358
3.7950,-12.07040046
3.8000,-12.03238179
3.8050,-11.99481747
3.8100,-11.95780999
3.8150,-11.9210769
3.8200,-11.88489378
3.8250,-11.84921788
3.8300,-11.81403375
3.8350,-11.7791445
3.8400,-11.74470414
3.8450,-11.71068009
3.8500,-11.67738766
3.8550,-11.64496575
3.8600,-11.61350183
3.8650,-11.58282707
3.8700,-11.5529625
3.8750,-11.52373606
3.8800,-11.4951593
3.8850,-11.46721941
3.8900,-11.43996874
3.8950,-11.41320796
3.9000,-11.38698699
3.9050,-11.36104209
3.9100,-11.33513384
3.9150,-11.3093275
3.9200,-11.28365278
3.9250,-11.25802088
3.9300,-11.23228521
3.9350,-11.20635717
3.9400,-11.18010381
3.9450,-11.15365243
3.9500,-11.12688509
3.9550,-11.099893
3.9600,-11.07284408
3.9650,-11.04562
3.9700,-11.01837465
3.9750,-10.99146663
3.9800,-10.96472785
3.9850,-10.9382364
3.9900,-10.91202474
3.9950,-10.8858697
4.0000,-10.85998132
4.0050,-10.83456548
4.0100,-10.8097347
4.0150,-10.78538584
4.0200,-10.76152385
4.0250,-10.73801077
4.0300,-10.71501435
4.0350,-10.69243248
4.0400,-10.67034063
4.0450,-10.64887256
4.0500,-10.62800342
4.0550,-10.60755612
4.0600,-10.5877265
4.0650,-10.56881002
4.0700,-10.55088071
4.0750,-10.53423125
4.0800,-10.51876562
4.0850,-10.50464849
4.0900,-10.49178834
4.0950,-10.48051046
4.1000,-10.47035351
4.1050,-10.46162818
4.1100,-10.45424924
4.1150,-10.44824571
4.1200,-10.4435975
4.1250,-10.44012988
4.1300,-10.43773464
4.1350,-10.4365833
4.1400,-10.43658124
4.1450,-10.43757677
4.1500,-10.43936361
4.1550,-10.44178492
4.1600,-10.44496485
4.1650,-10.44876219
4.1700,-10.45321049
4.1750,-10.45823975
4.1800,-10.46397944
4.1850,-10.47051798
4.1900,-10.47789157
4.1950,-10.48593715
4.2000,-10.49478154
4.2050,-10.50457482
4.2100,-10.51538181
4.2150,-10.52711382
4.2200,-10.53986837
4.2250,-10.55347769
4.2300,-10.56799524
4.2350,-10.58352402
4.2400,-10.59976039
4.2450,-10.61683567
4.2500,-10.63432105
4.2550,-10.65244018
4.2600,-10.67095116
4.2650,-10.68976636
4.2700,-10.70895391
4.2750,-10.72820366
4.2800,-10.74751565
4.2850,-10.76687547
4.2900,-10.78644834
4.2950,-10.80636182
4.3000,-10.8265446
4.3050,-10.84682139
4.3100,-10.86736195
4.3150,-10.88823824
4.3200,-10.90934864
4.3250,-10.93069866
4.3300,-10.95233682
4.3350,-10.9743513
4.3400,-10.99674792
4.3450,-11.01940157
4.3500,-11.04262091
4.3550,-11.06625085
4.3600,-11.0904239
4.3650,-11.11507947
4.3700,-11.14009756
4.3750,-11.1654205
4.3800,-11.19087767
4.3850,-11.21641953
4.3900,-11.24210457
4.3950,-11.26764554
4.4000,-11.29335205
4.4050,-11.31904211
4.4100,-11.34493051
4.4150,-11.37109404
4.4200,-11.39757763
4.4250,-11.42431117
4.4300,-11.45144987
4.4350,-11.47878085
4.4400,-11.50637283
4.4450,-11.53411703
4.4500,-11.56218702
4.4550,-11.59044217
4.4600,-11.61887768
4.4650,-11.64754933
4.4700,-11.67643682
4.4750,-11.70565695
4.4800,-11.73534183
4.4850,-11.76538018
4.4900,-11.79596155
4.4950,-11.82717502
4.5000,-11.85905366
4.5050,-11.89159406
4.5100,-11.92502167
4.5150,-11.9593294
4.5200,-11.99429128
4.5250,-12.03018781
4.5300,-12.06703233
4.5350,-12.10460689
4.5400,-12.14319423
4.5450,-12.18248198
4.5500,-12.22295635
4.5550,-12.26432191
4.5600,-12.30670362
4.5650,-12.35019595
4.5700,-12.39463735
4.5750,-12.44017809
4.5800,-12.48669263
4.5850,-12.53420457
4.5900,-12.58250758
4.5950,-12.6314036
4.6000,-12.68094755
4.6050,-12.73100503
4.6100,-12.78137132
4.6150,-12.83212859
4.6200,-12.88323644
4.6250,-12.93487058
4.6300,-12.98656836
4.6350,-13.03830032
4.6400,-13.0898226
4.6450,-13.14123331
4.6500,-13.19212878
4.6550,-13.24268649
4.6600,-13.29278425
4.6650,-13.34238871
4.6700,-13.39133608
4.6750,-13.4397183
4.6800,-13.48754936
4.6850,-13.53476168
4.6900,-13.58133501
4.6950,-13.62740016
4.7000,-13.67271664
4.7050,-13.71731717
4.7100,-13.76104704
4.7150,-13.80379496
4.7200,-13.84554302
4.7250,-13.88637256
4.7300,-13.92630215
4.7350,-13.96536157
4.7400,-14.00335233
4.7450,-14.04056058
4.7500,-14.07671368
4.7550,-14.11193121
4.7600,-14.14621431
4.7650,-14.17975571
4.7700,-14.2125059
4.7750,-14.24435418
4.7800,-14.27538675
4.7850,-14.30586288
4.7900,-14.33574123
4.7950,-14.36506745
4.8000,-14.39384212
4.8050,-14.42202543
4.8100,-14.44960684
4.8150,-14.47655699
4.8200,-14.50296859
4.8250,-14.52875519
4.8300,-14.55389074
4.8350,-14.57867495
4.8400,-14.60312598
4.8450,-14.62744505
4.8500,-14.65160929
4.8550,-14.67588168
4.8600,-14.70039008
4.8650,-14.72521493
4.8700,-14.75051951
4.8750,-14.77635889
4.8800,-14.80282604
4.8850,-14.8299207
4.8900,-14.85770459
4.8950,-14.88642055
4.9000,-14.91600672
4.9050,-14.94668412
4.9100,-14.97843446
4.9150,-15.01124522
4.9200,-15.04519938
4.9250,-15.08045927
4.9300,-15.11701321
4.9350,-15.1548253
4.9400,-15.19402744
4.9450,-15.23426432
4.9500,-15.27565399
4.9550,-15.31813226
4.9600,-15.36160137
4.9650,-15.40594643
4.9700,-15.45123266
4.9750,-15.49720409
4.9800,-15.54382744
4.9850,-15.59095906
4.9900,-15.63857976
4.9950,-15.68676537
5.0000,-15.73531816
5.0050,-15.78434773
5.0100,-15.83362446
5.0150,-15.88322858
5.0200,-15.93290216
5.0250,-15.98271955
5.0300,-16.03246989
5.0350,-16.08214225
5.0400,-16.13161601
5.0450,-16.18062738
5.0500,-16.22914903
5.0550,-16.27712421
5.0600,-16.32446585
5.0650,-16.37117327
5.0700,-16.41746416
5.0750,-16.46332347
5.0800,-16.50866604
5.0850,-16.55355648
5.0900,-16.59797071
5.0950,-16.641884
5.1000,-16.68548708
5.1050,-16.72869359
5.1100,-16.77145296
5.1150,-16.81380773
5.1200,-16.8559798
5.1250,-16.89791744
5.1300,-16.93967693
5.1350,-16.98136553
5.1400,-17.02309977
5.1450,-17.06490913
5.1500,-17.10688408
5.1550,-17.14897366
5.1600,-17.19099461
5.1650,-17.23292744
5.1700,-17.27470237
5.1750,-17.31630279
5.1800,-17.35808845
5.1850,-17.39978356
5.1900,-17.44179914
5.1950,-17.48389123
5.2000,-17.52616614
5.2050,-17.56882851
5.2100,-17.61183976
5.2150,-17.65502176
5.2200,-17.69843293
5.2250,-17.74167718
5.2300,-17.78506682
5.2350,-17.82851897
5.2400,-17.8719923
5.2450,-17.91566713
5.2500,-17.95929298
5.2550,-18.0028116
5.2600,-18.0461041
5.2650,-18.08915457
5.2700,-18.13202298
5.2750,-18.1746409
5.2800,-18.21721881
5.2850,-18.25990999
5.2900,-18.30254082
5.2950,-18.34489719
5.3000,-18.38706175
5.3050,-18.42881514
5.3100,-18.47024815
5.3150,-18.51132083
5.3200,-18.55216163
5.3250,-18.59253977
5.3300,-18.63248034
5.3350,-18.67209372
5.3400,-18.71148536
5.3450,-18.7508105
5.3500,-18.79030739
5.3550,-18.83012053
5.3600,-18.87027795
5.3650,-18.91071733
5.3700,-18.95124138
5.3750,-18.99186365
5.3800,-19.03236028
5.3850,-19.07251069
5.3900,-19.11234186
5.3950,-19.15178491
5.4000,-19.19057051
5.4050,-19.22895822
5.4100,-19.26697728
5.4150,-19.3047826
5.4200,-19.34215883
5.4250,-19.379469
5.4300,-19.41707235
5.4350,-19.45496925
5.4400,-19.49335083
5.4450,-19.53252265
5.4500,-19.57250087
5.4550,-19.61338775
5.4600,-19.65535827
5.4650,-19.69855595
5.4700,-19.74293893
5.4750,-19.78855957
5.4800,-19.83518302
5.4850,-19.88290737
5.4900,-19.93152284
5.4950,-19.98108134
5.5000,-20.03137099
5.5050,-20.08219454
5.5100,-20.13360803
5.5150,-20.18547104
5.5200,-20.23774285
5.5250,-20.29042703
5.5300,-20.34328946
5.5350,-20.39628675
5.5400,-20.44940026
5.5450,-20.50254367
5.5500,-20.55599193
5.5550,-20.60951946
5.5600,-20.66325091
5.5650,-20.71710671
5.5700,-20.77100989
5.5750,-20.82510179
5.5800,-20.87925821
5.5850,-20.9331423
5.5900,-20.9869097
5.5950,-21.04030425
5.6000,-21.09340743
5.6050,-21.14575902
5.6100,-21.1973347
5.6150,-21.24778141
5.6200,-21.29698776
5.6250,-21.34486714
5.6300,-21.39125579
5.6350,-21.4360992
5.6400,-21.47933477
5.6450,-21.52101431
5.6500,-21.56093812
5.6550,-21.59910854
5.6600,-21.63564257
5.6650,-21.6705896
5.6700,-21.70394678
5.6750,-21.73609118
5.6800,-21.76706101
5.6850,-21.79697
5.6900,-21.82592964
5.6950,-21.85405745
5.7000,-21.88151396
5.7050,-21.90820484
5.7100,-21.93420792
5.7150,-21.95952128
5.7200,-21.98442494
5.7250,-22.00875323
5.7300,-22.03246891
5.7350,-22.05566692
5.7400,-22.07823117
5.7450,-22.0999167
5.7500,-22.12063987
5.7550,-22.14044763
5.7600,-22.15943961
5.7650,-22.17775505
5.7700,-22.19546244
5.7750,-22.21279932
5.7800,-22.22993065
5.7850,-22.24692782
5.7900,-22.26373205
5.7950,-22.28034828
5.8000,-22.296917
5.8050,-22.31371667
5.8100,-22.33072727
5.8150,-22.34803463
5.8200,-22.36553945
5.8250,-22.38317265
5.8300,-22.40063766
5.8350,-22.4178052
5.8400,-22.43432666
5.8450,-22.44996909
5.8500,-22.46447631
5.8550,-22.47789776
5.8600,-22.49028329
5.8650,-22.50193218
5.8700,-22.51298026
5.8750,-22.52355006
5.8800,-22.53346733
5.8850,-22.54292452
5.8900,-22.55180291
5.8950,-22.56042063
5.9000,-22.56872738
5.9050,-22.57691727
5.9100,-22.58469751
5.9150,-22.59223963
5.9200,-22.59919802
5.9250,-22.60568064
5.9300,-22.61165266
5.9350,-22.61722066
5.9400,-22.62236067
5.9450,-22.62728926
5.9500,-22.63205466
5.9550,-22.63677925
5.9600,-22.64136206
5.9650,-22.64565949
5.9700,-22.6498123
5.9750,-22.65323936
5.9800,-22.65608788
5.9850,-22.65816896
5.9900,-22.65933181
5.9950,-22.65972447
6.0000,-22.65948654
6.0050,-22.65883937
6.0100,-22.65788953
6.0150,-22.65700449
6.0200,-22.65617677
6.0250,-22.65573421
6.0300,-22.65568172
6.0350,-22.65600726
6.0400,-22.65683965
6.0450,-22.65844188
6.0500,-22.66074308
6.0550,-22.66352203
6.0600,-22.66653467
6.0650,-22.66938495
6.0700,-22.67215284
6.0750,-22.67451237
6.0800,-22.67624405
6.0850,-22.67727281
6.0900,-22.67771256
6.0950,-22.67730293
6.1000,-22.67614856
6.1050,-22.67386909
6.1100,-22.67021849
6.1150,-22.66537543
6.1200,-22.65900514
6.1250,-22.65093355
6.1300,-22.64136427
6.1350,-22.6303143
6.1400,-22.61808315
6.1450,-22.60504544
6.1500,-22.59159728
6.1550,-22.57792895
6.1600,-22.56395827
6.1650,-22.5495489
6.1700,-22.53452267
6.1750,-22.51855462
6.1800,-22.50171923
6.1850,-22.48377613
6.1900,-22.46460595
6.1950,-22.44399345
6.2000,-22.42153944
6.2050,-22.39756221
6.2100,-22.37207334
6.2150,-22.34513018
6.2200,-22.31692606
6.2250,-22.28745645
6.2300,-22.25666117
6.2350,-22.22446627
6.2400,-22.19082904
6.2450,-22.15546793
6.2500,-22.118136
6.2550,-22.07853534
6.2600,-22.03669219
6.2650,-21.99252455
6.2700,-21.94573325
6.2750,-21.89659719
6.2800,-21.8452655
6.2850,-21.792035
6.2900,-21.73721323
6.2950,-21.68082004
6.3000,-21.62300601
6.3050,-21.5640522
6.3100,-21.50405503
6.3150,-21.44307022
6.3200,-21.38120106
6.3250,-21.31853994
6.3300,-21.25540637
6.3350,-21.19189486
6.3400,-21.12800347
6.3450,-21.06383473
6.3500,-20.99970589
6.3550,-20.93588729
6.3600,-20.8728053
6.3650,-20.81072416
6.3700,-20.74971216
6.3750,-20.69003874
6.3800,-20.6318534
6.3850,-20.57537182
6.3900,-20.52046046
6.3950,-20.4674111
6.4000,-20.41610412
6.4050,-20.36652451
6.4100,-20.31882007
6.4150,-20.27286842
6.4200,-20.22871065
6.4250,-20.18656099
6.4300,-20.14635333
6.4350,-20.10806083
6.4400,-20.07173583
6.4450,-20.03708028
6.4500,-20.00372449
6.4550,-19.97157675
6.4600,-19.94053703
6.4650,-19.91041839
6.4700,-19.88120664
6.4750,-19.85285558
6.4800,-19.82542784
6.4850,-19.79872614
6.4900,-19.77280108
6.4950,-19.74735709
6.5000,-19.72244227
6.5050,-19.6979071
6.5100,-19.67388211
6.5150,-19.65029106
6.5200,-19.62733647
6.5250,-19.60494143
6.5300,-19.58341446
6.5350,-19.56252632
6.5400,-19.54253213
6.5450,-19.52322095
6.5500,-19.50477853
6.5550,-19.4870938
6.5600,-19.4700348
6.5650,-19.45356864
6.5700,-19.43775408
6.5750,-19.42262707
6.5800,-19.40790967
6.5850,-19.39345184
6.5900,-19.37903013
6.5950,-19.36481323
6.6000,-19.35068959
6.6050,-19.33659135
6.6100,-19.3222913
6.6150,-19.30759237
6.6200,-19.29247576
6.6250,-19.27683546
6.6300,-19.26043339
6.6350,-19.24342836
6.6400,-19.22591683
6.6450,-19.20796255
6.6500,-19.18963137
6.6550,-19.17097436
6.6600,-19.15195074
6.6650,-19.13267718
6.6700,-19.11302624
6.6750,-19.09297464
6.6800,-19.07255445
6.6850,-19.05155072
6.6900,-19.0300704
6.6950,-19.00813365
6.7000,-18.98569399
6.7050,-18.9627702
6.7100,-18.93924751
6.7150,-18.91511199
6.7200,-18.89068662
6.7250,-18.86605245
6.7300,-18.84155932
6.7350,-18.81736931
6.7400,-18.79365601
6.7450,-18.77064567
6.7500,-18.74851919
6.7550,-18.72726826
6.7600,-18.70724393
6.7650,-18.68858405
6.7700,-18.6713822
6.7750,-18.65572669
6.7800,-18.64151618
6.7850,-18.6287519
6.7900,-18.6172938
6.7950,-18.60743746
6.8000,-18.59923122
6.8050,-18.59249329
6.8100,-18.58704182
6.8150,-18.58268228
6.8200,-18.57911212
6.8250,-18.57648221
6.8300,-18.57449193
6.8350,-18.57329785
6.8400,-18.57256026
6.8450,-18.57244179
6.8500,-18.57284937
6.8550,-18.57369753
6.8600,-18.57509008
6.8650,-18.57690403
6.8700,-18.57919906
6.8750,-18.58164115
6.8800,-18.58449926
6.8850,-18.58766252
6.8900,-18.59111877
6.8950,-18.59469916
6.9000,-18.59838211
6.9050,-18.60196708
6.9100,-18.60589913
6.9150,-18.61017157
6.9200,-18.61472296
6.9250,-18.61951385
6.9300,-18.62452913
6.9350,-18.6295773
6.9400,-18.63458992
6.9450,-18.63970357
6.9500,-18.64478872
6.9550,-18.64993706
6.9600,-18.65515819
6.9650,-18.66050894
6.9700,-18.66605462
6.9750,-18.67199151
6.9800,-18.67833236
6.9850,-18.68526348
6.9900,-18.69272342
6.9950,-18.70081054
7.0000,-18.70957456
7.0050,-18.71909616
7.0100,-18.72940988
7.0150,-18.74059299
7.0200,-18.75259563
7.0250,-18.76538797
7.0300,-18.77869102
7.0350,-18.79284328
7.0400,-18.80741632
7.0450,-18.82246041
7.0500,-18.83801565
7.0550,-18.85406413
7.0600,-18.87031252
7.0650,-18.88669849
7.0700,-18.90306044
7.0750,-18.91918799
7.0800,-18.93508153
7.0850,-18.95079814
7.0900,-18.96645208
7.0950,-18.98173402
7.1000,-18.99658125
7.1050,-19.01098205
7.1100,-19.02494985
7.1150,-19.03849015
7.1200,-19.05165135
7.1250,-19.06429325
7.1300,-19.0763719
7.1350,-19.08772923
7.1400,-19.09831089
7.1450,-19.10808076
7.1500,-19.11698335
7.1550,-19.12515916
7.1600,-19.13238986
7.1650,-19.13872458
7.1700,-19.14405281
7.1750,-19.1485405
7.1800,-19.15206265
7.1850,-19.15469291
7.1900,-19.15642803
7.1950,-19.15717292
7.2000,-19.15699011
7.2050,-19.15590564
7.2100,-19.15359548
7.2150,-19.15033391
7.2200,-19.14624473
7.2250,-19.14152211
7.2300,-19.13644336
7.2350,-19.13125928
7.2400,-19.12611387
7.2450,-19.12094887
7.2500,-19.11583059
7.2550,-19.11078404
7.2600,-19.10579503
7.2650,-19.10087674
7.2700,-19.09609221
7.2750,-19.09131313
7.2800,-19.08669795
7.2850,-19.08238274
7.2900,-19.07853348
7.2950,-19.07509291
7.3000,-19.07195973
7.3050,-19.06924596
7.3100,-19.06716994
7.3150,-19.06566177
7.3200,-19.06472122
7.3250,-19.06416777
7.3300,-19.06413995
7.3350,-19.0641891
7.3400,-19.06465553
7.3450,-19.06520198
7.3500,-19.06593933
7.3550,-19.06674323
7.3600,-19.06773058
7.3650,-19.06868957
7.3700,-19.06976613
7.3750,-19.07108472
7.3800,-19.07247642
7.3850,-19.07407044
7.3900,-19.07570907
7.3950,-19.0774766
7.4000,-19.07936884
7.4050,-19.08142576
7.4100,-19.08379929
7.4150,-19.08662815
7.4200,-19.09006521
7.4250,-19.09426576
7.4300,-19.09924264
7.4350,-19.10527369
7.4400,-19.11245469
7.4450,-19.12051973
7.4500,-19.12972927
7.4550,-19.13989752
7.4600,-19.15122246
7.4650,-19.16376509
7.4700,-19.17756012
7.4750,-19.19263955
7.4800,-19.20892718
7.4850,-19.22645121
7.4900,-19.24527471
7.4950,-19.26536779
7.5000,-19.28669339
7.5050,-19.30942037
7.5100,-19.33375387
7.5150,-19.35968113
7.5200,-19.38715648
7.5250,-19.41622581
7.5300,-19.44669503
7.5350,-19.47853728
7.5400,-19.51170195
7.5450,-19.54619711
7.5500,-19.58190474
7.5550,-19.61892596
7.5600,-19.65730104
7.5650,-19.6970349
7.5700,-19.73811371
7.5750,-19.78050201
7.5800,-19.82382338
7.5850,-19.8680007
7.5900,-19.91256314
7.5950,-19.95752756
7.6000,-20.00286622
7.6050,-20.04827115
7.6100,-20.09345862
7.6150,-20.13839948
7.6200,-20.18289074
7.6250,-20.22675633
7.6300,-20.26974979
7.6350,-20.31185261
7.6400,-20.35262652
7.6450,-20.39235532
7.6500,-20.43082679
7.6550,-20.4681307
7.6600,-20.5042717
7.6650,-20.5395041
7.6700,-20.57370814
7.6750,-20.60716458
7.6800,-20.63989324
7.6850,-20.67185514
7.6900,-20.70314394
7.6950,-20.73382202
7.7000,-20.76377351
7.7050,-20.79308439
7.7100,-20.82173786
7.7150,-20.849603
7.7200,-20.87680252
7.7250,-20.90319818
7.7300,-20.92921703
7.7350,-20.95489643
7.7400,-20.98035563
7.7450,-21.00581682
7.7500,-21.03112138
7.7550,-21.05646131
7.7600,-21.08163524
7.7650,-21.10674841
7.7700,-21.13161619
7.7750,-21.15621791
7.7800,-21.18052116
7.7850,-21.20447011
7.7900,-21.22781532
7.7950,-21.25073182
7.8000,-21.27310857
7.8050,-21.29492928
7.8100,-21.31609291
7.8150,-21.33654358
7.8200,-21.35609735
7.8250,-21.37463494
7.8300,-21.39208443
7.8350,-21.40841073
7.8400,-21.42362775
7.8450,-21.43750917
7.8500,-21.45025111
7.8550,-21.46184108
7.8600,-21.4724484
7.8650,-21.48209673
7.8700,-21.49117782
7.8750,-21.49975508
7.8800,-21.50809118
7.8850,-21.51626677
7.8900,-21.52467705
7.8950,-21.53330269
7.9000,-21.54240217
7.9050,-21.55203345
7.9100,-21.5624039
7.9150,-21.57355847
7.9200,-21.58536823
7.9250,-21.5980728
7.9300,-21.61158041
7.9350,-21.62561487
7.9400,-21.64036954
7.9450,-21.65559543
7.9500,-21.67109117
7.9550,-21.68685197
7.9600,-21.70265361
7.9650,-21.71839532
7.9700,-21.73392211
7.9750,-21.74891492
7.9800,-21.76337636
7.9850,-21.77710421
7.9900,-21.7899747
7.9950,-21.80179211
8.0000,-21.81277995
8.0050,-21.82291169
8.0100,-21.83229904
8.0150,-21.84099238
8.0200,-21.84891642
8.0250,-21.85622352
8.0300,-21.86264585
8.0350,-21.86831607
8.0400,-21.87327392
8.0450,-21.87760998
8.0500,-21.8812521
8.0550,-21.88431743
8.0600,-21.88692507
8.0650,-21.88901844
8.0700,-21.89074957
8.0750,-21.89215737
8.0800,-21.89321478
8.0850,-21.893884
8.0900,-21.8941923
8.0950,-21.89415052
8.1000,-21.89390253
8.1050,-21.89317066
8.1100,-21.89187281
8.1150,-21.88984571
8.1200,-21.88703056
8.1250,-21.88316923
8.1300,-21.87827898
8.1350,-21.87209232
8.1400,-21.86466238
8.1450,-21.85602551
8.1500,-21.84604089
8.1550,-21.83489672
8.1600,-21.82242499
8.1650,-21.8088166
8.1700,-21.79376141
8.1750,-21.7775813
8.1800,-21.76036248
8.1850,-21.74242253
8.1900,-21.72376756
8.1950,-21.70464396
8.2000,-21.6849744
8.2050,-21.66488241
8.2100,-21.6442382
8.2150,-21.62315264
8.2200,-21.60162002
8.2250,-21.57950257
8.2300,-21.55672792
8.2350,-21.53345885
8.2400,-21.50956352
8.2450,-21.48494818
8.2500,-21.45947301
8.2550,-21.43322123
8.2600,-21.40604254
8.2650,-21.37788291
8.2700,-21.34841693
8.2750,-21.3177395
8.2800,-21.28555289
8.2850,-21.25199331
8.2900,-21.21700402
8.2950,-21.18063956
8.3000,-21.1430515
8.3050,-21.10424444
8.3100,-21.06444434
8.3150,-21.0240056
8.3200,-20.98332729
8.3250,-20.94256253
8.3300,-20.90207961
8.3350,-20.86196255
8.3400,-20.82236117
8.3450,-20.7834365
8.3500,-20.74542444
8.3550,-20.70821367
8.3600,-20.67183974
8.3650,-20.63633355
8.3700,-20.60157695
8.3750,-20.56743743
8.3800,-20.533748
8.3850,-20.50047613
8.3900,-20.46788404
8.3950,-20.43555009
8.4000,-20.40360778
8.4050,-20.37191708
8.4100,-20.34056446
8.4150,-20.30939476
8.4200,-20.27851461
8.4250,-20.24802508
8.4300,-20.21768142
8.4350,-20.18760377
8.4400,-20.15770881
8.4450,-20.1278533
8.4500,-20.09820709
8.4550,-20.0685469
8.4600,-20.03910784
8.4650,-20.00989564
8.4700,-19.98097273
8.4750,-19.95201879
8.4800,-19.92296857
8.4850,-19.89322139
8.4900,-19.86292948
8.4950,-19.83177253
8.5000,-19.79959823
8.5050,-19.76635171
8.5100,-19.73182687
8.5150,-19.69579562
8.5200,-19.65830921
8.5250,-19.61911297
8.5300,-19.57818649
8.5350,-19.53552464
8.5400,-19.4912747
8.5450,-19.44532248
8.5500,-19.39795029
8.5550,-19.34888425
8.5600,-19.29812919
8.5650,-19.24559315
8.5700,-19.19164275
8.5750,-19.13632749
8.5800,-19.07992504
8.5850,-19.02259069
8.5900,-18.96458983
8.5950,-18.90617565
8.6000,-18.84746712
8.6050,-18.78860692
8.6100,-18.7295062
8.6150,-18.67009611
8.6200,-18.61034065
8.6250,-18.55029138
8.6300,-18.4899336
8.6350,-18.42918365
8.6400,-18.3683728
8.6450,-18.30780953
8.6500,-18.24747061
8.6550,-18.1876114
8.6600,-18.12815713
8.6650,-18.06905981
8.6700,-18.01049132
8.6750,-17.95248408
8.6800,-17.89522979
8.6850,-17.83870211
8.6900,-17.78282295
8.6950,-17.72787038
8.7000,-17.67362128
8.7050,-17.62020833
8.7100,-17.56754912
8.7150,-17.51564573
8.7200,-17.46443334
8.7250,-17.41362151
8.7300,-17.36354161
8.7350,-17.31381469
8.7400,-17.26434994
8.7450,-17.21520977
8.7500,-17.16652118
8.7550,-17.11810253
8.7600,-17.069797
8.7650,-17.02141293
8.7700,-16.97301258
8.7750,-16.92485215
8.7800,-16.87691654
8.7850,-16.82945832
8.7900,-16.78239538
8.7950,-16.73581651
8.8000,-16.68981278
8.8050,-16.64402515
8.8100,-16.598678
8.8150,-16.5535616
8.8200,-16.50891662
8.8250,-16.46494718
8.8300,-16.42177213
8.8350,-16.37937725
8.8400,-16.33763966
8.8450,-16.29662559
8.8500,-16.25616709
8.8550,-16.21606889
8.8600,-16.17646612
8.8650,-16.13729262
8.8700,-16.09832761
8.8750,-16.05934164
8.8800,-16.02024787
8.8850,-15.98094192
8.8900,-15.94133021
8.8950,-15.90141381
8.9000,-15.86112354
8.9050,-15.82050283
8.9100,-15.7795522
8.9150,-15.73819738
8.9200,-15.69662402
8.9250,-15.65488679
8.9300,-15.61288216
8.9350,-15.5707258
8.9400,-15.52815714
8.9450,-15.4849396
8.9500,-15.44147203
8.9550,-15.39785644
8.9600,-15.35431835
8.9650,-15.31089716
8.9700,-15.26743422
8.9750,-15.22411397
8.9800,-15.18100212
8.9850,-15.13806153
8.9900,-15.0951133
8.9950,-15.05238951
9.0000,-15.00967647
9.0050,-14.96720445
9.0100,-14.92478335
9.0150,-14.88280956
9.0200,-14.84152095
9.0250,-14.80116146
9.0300,-14.76169869
9.0350,-14.72352684
9.0400,-14.68679103
9.0450,-14.65172404
9.0500,-14.61815218
9.0550,-14.58612188
9.0600,-14.55574214
9.0650,-14.52710855
9.0700,-14.50012638
9.0750,-14.47465048
9.0800,-14.45056848
9.0850,-14.42776809
9.0900,-14.40595122
9.0950,-14.38488208
9.1000,-14.36429216
9.1050,-14.34417975
9.1100,-14.32417574
9.1150,-14.30425266
9.1200,-14.2840185
9.1250,-14.26318518
9.1300,-14.24156368
9.1350,-14.21887706
9.1400,-14.1949227
9.1450,-14.16982805
9.1500,-14.14337183
9.1550,-14.11557503
9.1600,-14.08638325
9.1650,-14.05573861
9.1700,-14.02370011
9.1750,-13.99009426
9.1800,-13.95480535
9.1850,-13.91779934
9.1900,-13.87898232
9.1950,-13.83833334
9.2000,-13.79589071
9.2050,-13.75147678
9.2100,-13.7050737
9.2150,-13.65710641
9.2200,-13.60750064
9.2250,-13.55632436
9.2300,-13.50372979
9.2350,-13.44981955
9.2400,-13.39488891
9.2450,-13.33882449
9.2500,-13.28126409
9.2550,-13.22214468
9.2600,-13.16137554
9.2650,-13.0990363
9.2700,-13.03541703
9.2750,-12.97042244
9.2800,-12.90379916
9.2850,-12.83587298
9.2900,-12.76687721
9.2950,-12.69670009
9.3000,-12.6257445
9.3050,-12.55369
9.3100,-12.48083888
9.3150,-12.40711628
9.3200,-12.33255775
9.3250,-12.25710618
9.3300,-12.18083399
9.3350,-12.10393984
9.3400,-12.02651092
9.3450,-11.94839752
9.3500,-11.86969084
9.3550,-11.79078459
9.3600,-11.71168114
9.3650,-11.63257322
9.3700,-11.5536023
9.3750,-11.4747902
9.3800,-11.39628444
9.3850,-11.31820254
9.3900,-11.24059076
9.3950,-11.16337017
9.4000,-11.08680776
9.4050,-11.01104824
9.4100,-10.93598933
9.4150,-10.86163567
9.4200,-10.78802705
9.4250,-10.71522167
9.4300,-10.6434101
9.4350,-10.57278387
9.4400,-10.50351936
9.4450,-10.43568225
9.4500,-10.36952352
9.4550,-10.30531943
9.4600,-10.2431034
9.4650,-10.18279992
9.4700,-10.12434242
9.4750,-10.06792264
9.4800,-10.0135049
9.4850,-9.960898267
9.4900,-9.910250012
9.4950,-9.861597139
9.5000,-9.81448877
9.5050,-9.769077392
9.5100,-9.725198495
9.5150,-9.682350235
9.5200,-9.640569003
9.5250,-9.599521707
9.5300,-9.559255054
9.5350,-9.519427974
9.5400,-9.479925417
9.5450,-9.440748061
9.5500,-9.402002779
9.5550,-9.3636486
9.5600,-9.325581841
9.5650,-9.287850256
9.5700,-9.250345844
9.5750,-9.213003696
9.5800,-9.176280971
9.5850,-9.139796722
9.5900,-9.103565856
9.5950,-9.067684718
9.6000,-9.032031828
9.6050,-8.996761366
9.6100,-8.961919655
9.6150,-8.927116326
9.6200,-8.892370526
9.6250,-8.85779906
9.6300,-8.82339977
9.6350,-8.789144061
9.6400,-8.75501291
9.6450,-8.721323247
9.6500,-8.687919673
9.6550,-8.65473255
9.6600,-8.621828272
9.6650,-8.589287448
9.6700,-8.557078379
9.6750,-8.525047494
9.6800,-8.493173534
9.6850,-8.461408342
9.6900,-8.429718282
9.6950,-8.398210481
9.7000,-8.366655562
9.7050,-8.334884393
9.7100,-8.303226418
9.7150,-8.271626853
9.7200,-8.240161756
9.7250,-8.208993276
9.7300,-8.177994233
9.7350,-8.147218152
9.7400,-8.116617367
9.7450,-8.086103322
9.7500,-8.055585906
9.7550,-8.024906901
9.7600,-7.993878185
9.7650,-7.962929641
9.7700,-7.932078498
9.7750,-7.900946955
9.7800,-7.869913384
9.7850,-7.839038125
9.7900,-7.808109657
9.7950,-7.777210205
9.8000,-7.746601859
9.8050,-7.716373529
9.8100,-7.686688932
9.8150,-7.657670335
9.8200,-7.629062261
9.8250,-7.601082245
9.8300,-7.573619689
9.8350,-7.546715633
9.8400,-7.520307964
9.8450,-7.494516018
9.8500,-7.469322637
9.8550,-7.444669407
9.8600,-7.420933133
9.8650,-7.397989896
9.8700,-7.375974584
9.8750,-7.355150256
9.8800,-7.335548814
9.8850,-7.317378353
9.8900,-7.300692393
9.8950,-7.285430382
9.9000,-7.27161602
9.9050,-7.259330911
9.9100,-7.248336718
9.9150,-7.2391749
9.9200,-7.231567062
9.9250,-7.225603162
9.9300,-7.221345878
9.9350,-7.218823246
9.9400,-7.218202763
9.9450,-7.219381053
9.9500,-7.222579564
9.9550,-7.227642171
9.9600,-7.23453093
9.9650,-7.242990264
9.9700,-7.252889315
9.9750,-7.264391777
9.9800,-7.27725936
9.9850,-7.291282679
9.9900,-7.306668989
9.9950,-7.323397513
10.0000,-7.341287876
10.0050,-7.360521525
10.0100,-7.380813572
10.0150,-7.402062324
10.0200,-7.424294718
10.0250,-7.447237184
10.0300,-7.470950563
10.0350,-7.495431008
10.0400,-7.520633691
10.0450,-7.546427011
10.0500,-7.572912853
10.0550,-7.600059537
10.0600,-7.628055473
10.0650,-7.656384249
10.0700,-7.685082878
10.0750,-7.714464853
10.0800,-7.744254292
10.0850,-7.774721285
10.0900,-7.805963887
10.0950,-7.837630242
10.1000,-7.869704614
10.1050,-7.902081496
10.1100,-7.934659414
10.1150,-7.96734567
10.1200,-8.000331018
10.1250,-8.033434588
10.1300,-8.066836289
10.1350,-8.100575481
10.1400,-8.134610945
10.1450,-8.168803143
10.1500,-8.203139709
10.1550,-8.237539433
10.1600,-8.271926497
10.1650,-8.306248211
10.1700,-8.340516771
10.1750,-8.37452773
10.1800,-8.408390943
10.1850,-8.442129883
10.1900,-8.475994033
10.1950,-8.510037366
10.2000,-8.544301943
10.2050,-8.578881751
10.2100,-8.614019397
10.2150,-8.649430621
10.2200,-8.685475449
10.2250,-8.721970095
10.2300,-8.758848223
10.2350,-8.796063223
10.2400,-8.833290145
10.2450,-8.870723696
10.2500,-8.908320161
10.2550,-8.946217982
10.2600,-8.984476706
10.2650,-9.023138797
10.2700,-9.062173565
10.2750,-9.101582213
10.2800,-9.141556674
10.2850,-9.182000812
10.2900,-9.222737509
10.2950,-9.263862556
10.3000,-9.305420617
10.3050,-9.347581794
10.3100,-9.390319619
10.3150,-9.43389747
10.3200,-9.478035509
10.3250,-9.523138797
10.3300,-9.569208807
10.3350,-9.616210857
10.3400,-9.664015102
10.3450,-9.712844174
10.3500,-9.76234066
10.3550,-9.812650311
10.3600,-9.863553425
10.3650,-9.9151847
10.3700,-9.967665197
10.3750,-10.02095371
10.3800,-10.07490664
10.3850,-10.12926477
10.3900,-10.18419979
10.3950,-10.23972532
10.4000,-10.29599426
10.4050,-10.35314447
10.4100,-10.4110964
10.4150,-10.46996915
10.4200,-10.52949679
10.4250,-10.58978553
10.4300,-10.65051292
10.4350,-10.71165508
10.4400,-10.77312896
10.4450,-10.83492655
10.4500,-10.89699057
10.4550,-10.95953209
10.4600,-11.02225153
10.4650,-11.08525477
10.4700,-11.14861512
10.4750,-11.21251773
10.4800,-11.27691518
10.4850,-11.3418472
10.4900,-11.40732581
10.4950,-11.47313125
10.5000,-11.53951096
10.5050,-11.60648899
10.5100,-11.67411694
10.5150,-11.74241441
10.5200,-11.81130444
10.5250,-11.88069902
10.5300,-11.95044738
10.5350,-12.02067517
10.5400,-12.09125672
10.5450,-12.16207977
10.5500,-12.23296858
10.5550,-12.30389668
10.5600,-12.37473652
10.5650,-12.4453814
10.5700,-12.51577111
10.5750,-12.58581373
10.5800,-12.65528615
10.5850,-12.72428469
10.5900,-12.79267672
10.5950,-12.86026553
10.6000,-12.92724603
10.6050,-12.99346078
10.6100,-13.05909427
10.6150,-13.12410487
10.6200,-13.18896029
10.6250,-13.25348588
10.6300,-13.31797221
10.6350,-13.38233852
10.6400,-13.44681912
10.6450,-13.51114463
10.6500,-13.5757185
10.6550,-13.64035436
10.6600,-13.70518674
10.6650,-13.77023612
10.6700,-13.83534154
10.6750,-13.90052581
10.6800,-13.96588598
10.6850,-14.03124596
10.6900,-14.09642792
10.6950,-14.16135491
10.7000,-14.22592894
10.7050,-14.28993638
10.7100,-14.35362011
10.7150,-14.4169541
10.7200,-14.48000393
10.7250,-14.54292685
10.7300,-14.60611072
10.7350,-14.66957956
10.7400,-14.73330236
10.7450,-14.79767277
10.7500,-14.86277021
10.7550,-14.92861838
10.7600,-14.99540577
10.7650,-15.06325247
10.7700,-15.13198151
10.7750,-15.20156248
10.7800,-15.27185612
10.7850,-15.34280171
10.7900,-15.41416633
10.7950,-15.48609591
10.8000,-15.55837933
10.8050,-15.63092003
10.8100,-15.70355486
10.8150,-15.77624218
10.8200,-15.84867143
10.8250,-15.92097828
10.8300,-15.99307569
10.8350,-16.06472383
10.8400,-16.13604932
10.8450,-16.20693326
10.8500,-16.2773632
10.8550,-16.34728901
10.8600,-16.41676101
10.8650,-16.48584643
10.8700,-16.55476468
10.8750,-16.62355407
10.8800,-16.69265135
10.8850,-16.76219039
10.8900,-16.83245048
10.8950,-16.90357918
10.9000,-16.97545182
10.9050,-17.04799755
10.9100,-17.12124213
10.9150,-17.19496968
10.9200,-17.26909947
10.9250,-17.34354346
10.9300,-17.41785494
10.9350,-17.49216063
10.9400,-17.56630995
10.9450,-17.64045486
10.9500,-17.71438873
10.9550,-17.7881791
10.9600,-17.86177665
10.9650,-17.93502223
10.9700,-18.00799875
10.9750,-18.08064004
10.9800,-18.15265228
10.9850,-18.22421402
10.9900,-18.29501077
10.9950,-18.36528
11.0000,-18.43460118
11.0050,-18.50296916
11.0100,-18.56992656
11.0150,-18.63552543
11.0200,-18.69954256
11.0250,-18.76166975
11.0300,-18.82162459
11.0350,-18.87965457
11.0400,-18.93614095
11.0450,-18.99095809
11.0500,-19.04411982
11.0550,-19.09561635
11.0600,-19.14542098
11.0650,-19.1932964
11.0700,-19.23941889
11.0750,-19.2834726
11.0800,-19.3250352
11.0850,-19.36372455
11.0900,-19.39887982
11.0950,-19.42982485
11.1000,-19.4557813
11.1050,-19.47638779
11.1100,-19.4912561
11.1150,-19.49990085
11.1200,-19.50209193
11.1250,-19.49772085
11.1300,-19.48678895
11.1350,-19.46940154
11.1400,-19.44595204
11.1450,-19.41671014
11.1500,-19.38242595
11.1550,-19.3436233
11.1600,-19.3009196
11.1650,-19.25519338
11.1700,-19.20745112
11.1750,-19.15890487
11.1800,-19.11054359
11.1850,-19.06361526
11.1900,-19.01921232
11.1950,-18.97839368
11.2000,-18.9423157
11.2050,-18.9118242
11.2100,-18.88743087
11.2150,-18.86990031
11.2200,-18.85924199
11.2250,-18.85559829
11.2300,-18.8588847
11.2350,-18.86852837
11.2400,-18.88389808
11.2450,-18.90414064
11.2500,-18.92847162
11.2550,-18.95605251
11.2600,-18.98609835
11.2650,-19.01788713
11.2700,-19.05065242
11.2750,-19.0838288
11.2800,-19.11695879
11.2850,-19.14935148
11.2900,-19.18074078
11.2950,-19.21096013
11.3000,-19.2400812
11.3050,-19.26834705
11.3100,-19.29626756
11.3150,-19.32394365
11.3200,-19.35167485
11.3250,-19.37991704
11.3300,-19.40904912
11.3350,-19.43896415
11.3400,-19.46958085
11.3450,-19.50089147
11.3500,-19.53273601
11.3550,-19.56495715
11.3600,-19.59724131
11.3650,-19.62960505
11.3700,-19.66130801
11.3750,-19.69224059
11.3800,-19.7221172
11.3850,-19.75078277
11.3900,-19.77816135
11.3950,-19.80417632
11.4000,-19.82856232
11.4050,-19.85082706
11.4100,-19.87042531
11.4150,-19.88701119
11.4200,-19.9006255
11.4250,-19.91100031
11.4300,-19.91811588
11.4350,-19.92192632
11.4400,-19.92244646
11.4450,-19.92017541
11.4500,-19.91514183
11.4550,-19.9080028
11.4600,-19.89929261
11.4650,-19.88964551
11.4700,-19.87962624
11.4750,-19.86928239
11.4800,-19.85889167
11.4850,-19.84856128
11.4900,-19.83821349
11.4950,-19.82777591
11.5000,-19.81692027
11.5050,-19.80542881
11.5100,-19.79300788
11.5150,-19.779297
11.5200,-19.7639071
11.5250,-19.74631769
11.5300,-19.72625427
11.5350,-19.70357939
11.5400,-19.678298
11.5450,-19.65060783
11.5500,-19.6207004
11.5550,-19.58865748
11.5600,-19.55479725
11.5650,-19.51915588
11.5700,-19.48166757
11.5750,-19.44237259
11.5800,-19.40151236
11.5850,-19.35929735
11.5900,-19.31605146
11.5950,-19.27152955
11.6000,-19.22578968
11.6050,-19.17864228
11.6100,-19.12973353
11.6150,-19.07884951
11.6200,-19.02593521
11.6250,-18.97044071
11.6300,-18.91214679
11.6350,-18.85099454
11.6400,-18.78673676
11.6450,-18.71940051
11.6500,-18.64908306
11.6550,-18.5757742
11.6600,-18.49984929
11.6650,-18.4216088
11.6700,-18.34160264
11.6750,-18.26040201
11.6800,-18.17872425
11.6850,-18.0972292
11.6900,-18.01650736
11.6950,-17.93726397
11.7000,-17.86025404
11.7050,-17.78615137
11.7100,-17.71568679
11.7150,-17.64964556
11.7200,-17.58829998
11.7250,-17.5319735
11.7300,-17.48072808
11.7350,-17.43464223
11.7400,-17.39383574
11.7450,-17.35788847
11.7500,-17.32669132
11.7550,-17.29945781
11.7600,-17.27563018
11.7650,-17.25409495
11.7700,-17.23413898
11.7750,-17.21539986
11.7800,-17.19743479
11.7850,-17.17976599
11.7900,-17.16219688
11.7950,-17.14459447
11.8000,-17.12699442
11.8050,-17.1095814
11.8100,-17.09242925
11.8150,-17.07549979
11.8200,-17.05902136
11.8250,-17.04345445
11.8300,-17.02903107
11.8350,-17.01602673
11.8400,-17.00452559
11.8450,-16.99444593
11.8500,-16.98554117
11.8550,-16.97773754
11.8600,-16.97051907
11.8650,-16.96406449
11.8700,-16.95837997
11.8750,-16.95349588
11.8800,-16.94916292
11.8850,-16.94551177
11.8900,-16.94221623
11.8950,-16.93926353
11.9000,-16.93644063
11.9050,-16.93371564
11.9100,-16.93107876
11.9150,-16.9286855
11.9200,-16.92657746
11.9250,-16.92514078
11.9300,-16.92444237
11.9350,-16.92446928
11.9400,-16.92551931
11.9450,-16.9275756
11.9500,-16.93075662
11.9550,-16.93538452
11.9600,-16.94125291
11.9650,-16.94844189
11.9700,-16.95702973
11.9750,-16.96676189
11.9800,-16.97765222
11.9850,-16.98940073
11.9900,-17.00200131
11.9950,-17.01519923
12.0000,-17.02901118
12.0050,-17.04320498
12.0100,-17.05775849
12.0150,-17.07218369
12.0200,-17.08635028
12.0250,-17.09985219
12.0300,-17.11269084
12.0350,-17.12463737
12.0400,-17.13534578
12.0450,-17.14460346
12.0500,-17.15240822
12.0550,-17.15910322
12.0600,-17.16464107
12.0650,-17.1696543
12.0700,-17.17436246
12.0750,-17.17906775
12.0800,-17.18384253
12.0850,-17.18878657
12.0900,-17.1940128
12.0950,-17.19954975
12.1000,-17.20543562
12.1050,-17.21131952
12.1100,-17.21715933
12.1150,-17.22287665
12.1200,-17.22841191
12.1250,-17.23358966
12.1300,-17.23806838
12.1350,-17.24177728
12.1400,-17.24451113
12.1450,-17.24631928
12.1500,-17.24708032
12.1550,-17.24693622
12.1600,-17.24598326
12.1650,-17.24402926
12.1700,-17.24100361
12.1750,-17.23678995
12.1800,-17.23149484
12.1850,-17.22506664
12.1900,-17.2177092
12.1950,-17.20951538
12.2000,-17.20090974
12.2050,-17.19197137
12.2100,-17.18278012
12.2150,-17.17329352
12.2200,-17.16355336
12.2250,-17.15347023
12.2300,-17.14292229
12.2350,-17.13193294
12.2400,-17.12029958
12.2450,-17.1077199
12.2500,-17.09410796
12.2550,-17.07907496
12.2600,-17.06262866
12.2650,-17.04464165
12.2700,-17.02507789
12.2750,-17.00388139
12.2800,-16.98097705
12.2850,-16.95661724
12.2900,-16.9307768
12.2950,-16.90361901
12.3000,-16.87514011
12.3050,-16.84546225
12.3100,-16.81465266
12.3150,-16.78280652
12.3200,-16.75023241
12.3250,-16.71731476
12.3300,-16.68413842
12.3350,-16.65115547
12.3400,-16.61876302
12.3450,-16.5871535
12.3500,-16.55675091
12.3550,-16.5275039
12.3600,-16.49980102
12.3650,-16.47367357
12.3700,-16.44909974
12.3750,-16.42594874
12.3800,-16.40423065
12.3850,-16.38414948
12.3900,-16.36567536
12.3950,-16.34885891
12.4000,-16.33354806
12.4050,-16.31984617
12.4100,-16.30797426
12.4150,-16.29785542
12.4200,-16.28936888
12.4250,-16.28235051
12.4300,-16.276862
12.4350,-16.2726142
12.4400,-16.26948252
12.4450,-16.26712016
12.4500,-16.26539419
12.4550,-16.26384669
12.4600,-16.26233966
12.4650,-16.26063196
12.4700,-16.25870626
12.4750,-16.25632457
12.4800,-16.25337752
12.4850,-16.2499425
12.4900,-16.24595771
12.4950,-16.24153422
12.5000,-16.23638815
12.5050,-16.23045829
12.5100,-16.22377099
12.5150,-16.21639713
12.5200,-16.20824122
12.5250,-16.19923749
12.5300,-16.1895193
12.5350,-16.17916586
12.5400,-16.16815076
12.5450,-16.15685906
12.5500,-16.14517401
12.5550,-16.13334878
12.5600,-16.12137725
12.5650,-16.10907436
12.5700,-16.09637254
12.5750,-16.0834218
12.5800,-16.07024023
12.5850,-16.05668004
12.5900,-16.04276249
12.5950,-16.02848371
12.6000,-16.0138783
12.6050,-15.99906697
12.6100,-15.98423159
12.6150,-15.96958463
12.6200,-15.95518351
12.6250,-15.94105883
12.6300,-15.92751179
12.6350,-15.91451802
12.6400,-15.90209048
12.6450,-15.89057657
12.6500,-15.87972882
12.6550,-15.86990299
12.6600,-15.86110214
12.6650,-15.85344454
12.6700,-15.8470204
12.6750,-15.8417061
12.6800,-15.83758399
12.6850,-15.8343845
12.6900,-15.83210374
12.6950,-15.83038851
12.7000,-15.82922062
12.7050,-15.82832631
12.7100,-15.82748414
12.7150,-15.82668472
12.7200,-15.82570105
12.7250,-15.82437297
12.7300,-15.82253059
12.7350,-15.82002446
12.7400,-15.81691096
12.7450,-15.81301302
12.7500,-15.80838993
12.7550,-15.80353183
12.7600,-15.79856464
12.7650,-15.79391015
12.7700,-15.78977935
12.7750,-15.78653432
12.7800,-15.78460071
12.7850,-15.7840224
12.7900,-15.78503788
12.7950,-15.78764479
12.8000,-15.79201232
12.8050,-15.79805758
12.8100,-15.80580069
12.8150,-15.81510545
12.8200,-15.82588909
12.8250,-15.83806515
12.8300,-15.85136997
12.8350,-15.86569491
12.8400,-15.88094653
12.8450,-15.89696931
12.8500,-15.91371692
12.8550,-15.93110699
12.8600,-15.94908813
12.8650,-15.96759736
12.8700,-15.98679476
12.8750,-16.00666504
12.8800,-16.02716573
12.8850,-16.04845767
12.8900,-16.07054468
12.8950,-16.09346252
12.9000,-16.11723603
12.9050,-16.14187621
12.9100,-16.16720045
12.9150,-16.19312095
12.9200,-16.21948837
12.9250,-16.24616858
12.9300,-16.27276923
12.9350,-16.29906672
12.9400,-16.32477289
12.9450,-16.34961204
12.9500,-16.37350812
12.9550,-16.39606164
12.9600,-16.41718326
12.9650,-16.43682886
12.9700,-16.4550048
12.9750,-16.47188426
12.9800,-16.48748554
12.9850,-16.50192874
12.9900,-16.51519906
12.9950,-16.52753206
13.0000,-16.5389388
13.0050,-16.54989192
13.0100,-16.56035398
13.0150,-16.57042933
13.0200,-16.58023107
13.0250,-16.58974067
13.0300,-16.59915169
13.0350,-16.60853016
13.0400,-16.61781688
13.0450,-16.62706158
13.0500,-16.63655303
13.0550,-16.64586461
13.0600,-16.65520392
13.0650,-16.6645963
13.0700,-16.67413244
13.0750,-16.68402613
13.0800,-16.69441585
13.0850,-16.70543773
13.0900,-16.7172513
13.0950,-16.73006178
13.1000,-16.74397703
13.1050,-16.75898194
13.1100,-16.77507383
13.1150,-16.79235442
13.1200,-16.81083227
13.1250,-16.83065078
13.1300,-16.85168652
13.1350,-16.87375925
13.1400,-16.89686697
13.1450,-16.92071977
13.1500,-16.94530433
13.1550,-16.97062443
13.1600,-16.99659992
13.1650,-17.02330886
13.1700,-17.05057396
13.1750,-17.07812236
13.1800,-17.10589823
13.1850,-17.13374144
13.1900,-17.16167388
13.1950,-17.18993029
13.2000,-17.21839438
13.2050,-17.24702795
13.2100,-17.27597332
13.2150,-17.305304
13.2200,-17.33483692
13.2250,-17.36476004
13.2300,-17.39527528
13.2350,-17.42629661
13.2400,-17.45798795
13.2450,-17.49023032
13.2500,-17.52301813
13.2550,-17.55645464
13.2600,-17.59055807
13.2650,-17.62527569
13.2700,-17.6604675
13.2750,-17.69611701
13.2800,-17.73234275
13.2850,-17.76905928
13.2900,-17.80635909
13.2950,-17.84432924
13.3000,-17.88270296
13.3050,-17.92148211
13.3100,-17.96054601
13.3150,-18.00001027
13.3200,-18.03995598
13.3250,-18.08049962
13.3300,-18.12156423
13.3350,-18.1632277
13.3400,-18.20550154
13.3450,-18.24844985
13.3500,-18.29185588
13.3550,-18.33600311
13.3600,-18.38070683
13.3650,-18.4260109
13.3700,-18.47190676
13.3750,-18.5182705
13.3800,-18.56506847
13.3850,-18.61234551
13.3900,-18.66009361
13.3950,-18.70820843
13.4000,-18.75666764
13.4050,-18.80548954
13.4100,-18.85463673
13.4150,-18.90408076
13.4200,-18.95359545
13.4250,-19.0030315
13.4300,-19.05235014
13.4350,-19.10141216
13.4400,-19.14993079
13.4450,-19.1978864
13.4500,-19.24504648
13.4550,-19.2911173
13.4600,-19.33613193
13.4650,-19.37984208
13.4700,-19.42222552
13.4750,-19.46330821
13.4800,-19.50315348
13.4850,-19.54184819
13.4900,-19.57953013
13.4950,-19.61607604
13.5000,-19.65175714
13.5050,-19.68679073
13.5100,-19.72111437
13.5150,-19.75506736
13.5200,-19.78870265
13.5250,-19.8220904
13.5300,-19.85518638
13.5350,-19.88798477
13.5400,-19.92045565
13.5450,-19.9527087
13.5500,-19.98479941
13.5550,-20.01672401
13.5600,-20.04845981
13.5650,-20.07993002
13.5700,-20.11108711
13.5750,-20.14194092
13.5800,-20.17235835
13.5850,-20.20248981
13.5900,-20.23235358
13.5950,-20.26196227
13.6000,-20.29163153
13.6050,-20.32106562
13.6100,-20.35028209
13.6150,-20.37910523
13.6200,-20.40738829
13.6250,-20.43524864
13.6300,-20.46267709
13.6350,-20.48955252
13.6400,-20.51587052
13.6450,-20.54176014
13.6500,-20.56729447
13.6550,-20.59224859
13.6600,-20.61666804
13.6650,-20.64043507
13.6700,-20.66337341
13.6750,-20.68562551
13.6800,-20.70739613
13.6850,-20.72872258
13.6900,-20.7495811
13.6950,-20.77020372
13.7000,-20.79054104
13.7050,-20.81096322
13.7100,-20.83147487
13.7150,-20.85212593
13.7200,-20.87288422
13.7250,-20.89372372
13.7300,-20.9144682
13.7350,-20.93505783
13.7400,-20.95539714
13.7450,-20.97567734
13.7500,-20.99596622
13.7550,-21.0163089
13.7600,-21.03659076
13.7650,-21.05690869
13.7700,-21.077059
13.7750,-21.09703477
13.7800,-21.11681297
13.7850,-21.13645042
13.7900,-21.1558809
13.7950,-21.17521442
13.8000,-21.19425146
13.8050,-21.21297109
13.8100,-21.2313038
13.8150,-21.24921664
13.8200,-21.26685359
13.8250,-21.28434576
13.8300,-21.30172272
13.8350,-21.31941093
13.8400,-21.3373779
13.8450,-21.35578293
13.8500,-21.37450748
13.8550,-21.39358224
13.8600,-21.41284738
13.8650,-21.43224439
13.8700,-21.45160334
13.8750,-21.47097596
13.8800,-21.49030056
13.8850,-21.50950103
13.8900,-21.52837597
13.8950,-21.54672338
13.9000,-21.56430501
13.9050,-21.58134585
13.9100,-21.59771638
13.9150,-21.61305922
13.9200,-21.62741139
13.9250,-21.64046368
13.9300,-21.65209801
13.9350,-21.66218627
13.9400,-21.67067707
13.9450,-21.67734643
13.9500,-21.68218446
13.9550,-21.68524268
13.9600,-21.68645856
13.9650,-21.68582627
13.9700,-21.68352518
13.9750,-21.67954756
13.9800,-21.67386048
13.9850,-21.66625709
13.9900,-21.6569725
13.9950,-21.6460036
14.0000,-21.63358018
14.0050,-21.61970359
14.0100,-21.60475582
14.0150,-21.58875154
14.0200,-21.57206523
14.0250,-21.55476448
14.0300,-21.53726284
14.0350,-21.51965134
14.0400,-21.50209354
14.0450,-21.48433018
14.0500,-21.466467
14.0550,-21.44838082
14.0600,-21.4301282
14.0650,-21.41162516
14.0700,-21.39286148
14.0750,-21.37375324
14.0800,-21.35431825
14.0850,-21.33438545
14.0900,-21.31399161
14.0950,-21.29301031
14.1000,-21.27149194
14.1050,-21.24936353
14.1100,-21.22689051
14.1150,-21.20395635
14.1200,-21.18052423
14.1250,-21.15656849
14.1300,-21.13206356
14.1350,-21.1068873
14.1400,-21.08107842
14.1450,-21.05461239
14.1500,-21.02765921
14.1550,-21.00027776
14.1600,-20.97264549
14.1650,-20.94482317
14.1700,-20.91685712
14.1750,-20.88849196
14.1800,-20.85940509
14.1850,-20.82922757
14.1900,-20.7976782
14.1950,-20.76465527
14.2000,-20.72989187
14.2050,-20.69306632
14.2100,-20.65438784
14.2150,-20.61368087
14.2200,-20.57100079
14.2250,-20.52619921
14.2300,-20.4791113
14.2350,-20.42967705
14.2400,-20.37791482
14.2450,-20.32384695
14.2500,-20.26741665
14.2550,-20.20847063
14.2600,-20.14695868
14.2650,-20.08264991
14.2700,-20.01536256
14.2750,-19.94501416
14.2800,-19.87125077
14.2850,-19.79433573
14.2900,-19.71386832
14.2950,-19.62980407
14.3000,-19.54204998
14.3050,-19.45039904
14.3100,-19.35489407
14.3150,-19.25538583
14.3200,-19.15196634
14.3250,-19.04487819
14.3300,-18.93448218
14.3350,-18.82133545
14.3400,-18.7060124
14.3450,-18.58934539
14.3500,-18.47178464
14.3550,-18.35421578
14.3600,-18.23766264
14.3650,-18.12293246
14.3700,-18.01085415
14.3750,-17.90214577
14.3800,-17.79720589
14.3850,-17.69661526
14.3900,-17.60045346
14.3950,-17.5087832
14.4000,-17.42176901
14.4050,-17.33968151
14.4100,-17.26233437
14.4150,-17.18953459
14.4200,-17.121067
14.4250,-17.05666166
14.4300,-16.99599521
14.4350,-16.9386706
14.4400,-16.88452129
14.4450,-16.83324603
14.4500,-16.78431369
14.4550,-16.73753678
14.4600,-16.69263009
14.4650,-16.64941053
14.4700,-16.60782967
14.4750,-16.56793871
14.4800,-16.52998791
14.4850,-16.4941279
14.4900,-16.46056614
14.4950,-16.42929803
14.5000,-16.40054825
14.5050,-16.37406786
14.5100,-16.34946982
14.5150,-16.32688787
14.5200,-16.30573347
14.5250,-16.28561555
14.5300,-16.26607603
14.5350,-16.24694573
14.5400,-16.22753603
14.5450,-16.20757963
14.5500,-16.18666305
14.5550,-16.16445006
14.5600,-16.14077196
14.5650,-16.11529714
14.5700,-16.08809301
14.5750,-16.05885045
14.5800,-16.02747366
14.5850,-15.99379085
14.5900,-15.95791866
14.5950,-15.91985233
14.6000,-15.87966227
14.6050,-15.83744286
14.6100,-15.79314534
14.6150,-15.74733596
14.6200,-15.70023727
14.6250,-15.65212346
14.6300,-15.60295419
14.6350,-15.55276464
14.6400,-15.50161979
14.6450,-15.44957743
14.6500,-15.39688092
14.6550,-15.34338923
14.6600,-15.28885093
14.6650,-15.23319195
14.6700,-15.17635323
14.6750,-15.11856129
14.6800,-15.05999245
14.6850,-15.00088835
14.6900,-14.94141935
14.6950,-14.88178335
14.7000,-14.82210627
14.7050,-14.76215032
14.7100,-14.70181415
14.7150,-14.64106437
14.7200,-14.57992358
14.7250,-14.51832198
14.7300,-14.45648298
14.7350,-14.39458194
14.7400,-14.33242689
14.7450,-14.26997545
14.7500,-14.20759971
14.7550,-14.14498007
14.7600,-14.08226663
14.7650,-14.01937219
14.7700,-13.9566312
14.7750,-13.89405754
14.7800,-13.83165628
14.7850,-13.76951323
14.7900,-13.70759374
14.7950,-13.64570774
14.8000,-13.58372441
14.8050,-13.52169013
14.8100,-13.45955963
14.8150,-13.3973095
14.8200,-13.33516232
14.8250,-13.27341389
14.8300,-13.21229421
14.8350,-13.15181762
14.8400,-13.09220129
14.8450,-13.03353243
14.8500,-12.97591396
14.8550,-12.91937503
14.8600,-12.86378511
14.8650,-12.80930703
14.8700,-12.75561648
14.8750,-12.70281892
14.8800,-12.65090847
14.8850,-12.59979287
14.8900,-12.54941941
14.8950,-12.49943412
14.9000,-12.44998474
14.9050,-12.40094896
14.9100,-12.35226806
14.9150,-12.30359286
14.9200,-12.25503529
14.9250,-12.20645384
14.9300,-12.15798642
14.9350,-12.10949761
14.9400,-12.06098553
14.9450,-12.01219114
14.9500,-11.96319073
14.9550,-11.91408178
14.9600,-11.86506143
14.9650,-11.81624411
14.9700,-11.76777323
14.9750,-11.71960271
14.9800,-11.67145728
14.9850,-11.62328936
14.9900,-11.57526436
14.9950,-11.52742503
15.0000,-11.47973542
15.0050,-11.43216564
15.0100,-11.38469519
15.0150,-11.33758134
15.0200,-11.29081866
15.0250,-11.24434842
15.0300,-11.19819178
15.0350,-11.15214622
15.0400,-11.10646395
15.0450,-11.06106087
15.0500,-11.01592509
15.0550,-10.97105882
15.0600,-10.92631268
15.0650,-10.88208584
15.0700,-10.83788057
15.0750,-10.79393018
15.0800,-10.75013842
15.0850,-10.70633274
15.0900,-10.66258441
15.0950,-10.61905834
15.1000,-10.57571296
15.1050,-10.53258816
15.1100,-10.48989035
15.1150,-10.4477259
15.1200,-10.40601267
15.1250,-10.36466369
15.1300,-10.32350181
15.1350,-10.28251821
15.1400,-10.24174893
15.1450,-10.20093874
15.1500,-10.1598957
15.1550,-10.11856021
15.1600,-10.07669876
15.1650,-10.03426506
15.1700,-9.991433823
15.1750,-9.948092221
15.1800,-9.90411535
15.1850,-9.85971097
15.1900,-9.81467906
15.1950,-9.769562566
15.2000,-9.724213411
15.2050,-9.67881473
15.2100,-9.633561539
15.2150,-9.588281557
15.2200,-9.54278969
15.2250,-9.497209739
15.2300,-9.451479255
15.2350,-9.405410723
15.2400,-9.359014456
15.2450,-9.312574447
15.2500,-9.265976674
15.2550,-9.219143532
15.2600,-9.171929802
15.2650,-9.124589711
15.2700,-9.07687726
15.2750,-9.028863859
15.2800,-8.980934023
15.2850,-8.932860918
15.2900,-8.884924086
15.2950,-8.836960046
15.3000,-8.789085735
15.3050,-8.74128296
15.3100,-8.693654356
15.3150,-8.646133066
15.3200,-8.598929877
15.3250,-8.552012017
15.3300,-8.505270904
15.3350,-8.458940791
15.3400,-8.412834403
15.3450,-8.367000686
15.3500,-8.321566136
15.3550,-8.276688316
15.3600,-8.232529402
15.3650,-8.188683939
15.3700,-8.14538541
15.3750,-8.102516317
15.3800,-8.0599769
15.3850,-8.018014113
15.3900,-7.976622379
15.3950,-7.93556007
15.4000,-7.895232415
15.4050,-7.855409671
15.4100,-7.81598768
15.4150,-7.776777158
15.4200,-7.737798454
15.4250,-7.699102685
15.4300,-7.66075455
15.4350,-7.622686699
15.4400,-7.584800803
15.4450,-7.547170677
15.4500,-7.509699357
15.4550,-7.472239077
15.4600,-7.434825478
15.4650,-7.397442496
15.4700,-7.360141223
15.4750,-7.322752316
15.4800,-7.285378473
15.4850,-7.247909149
15.4900,-7.210265578
15.4950,-7.172340624
15.5000,-7.13427292
15.5050,-7.095935847
15.5100,-7.057101217
15.5150,-7.018052771
15.5200,-6.978719121
15.5250,-6.939004315
15.5300,-6.898791281
15.5350,-6.858558544
15.5400,-6.818224027
15.5450,-6.777753799
15.5500,-6.737100353
15.5550,-6.696547784
15.5600,-6.655994724
15.5650,-6.615622253
15.5700,-6.575703686
15.5750,-6.536309011
15.5800,-6.497395211
15.5850,-6.459035608
15.5900,-6.421156349
15.5950,-6.383743147
15.6000,-6.346711132
15.6050,-6.310184571
15.6100,-6.27430482
15.6150,-6.238761786
15.6200,-6.203494713
15.6250,-6.168509663
15.6300,-6.133828367
15.6350,-6.099324337
15.6400,-6.064996656
15.6450,-6.031113081
15.6500,-5.997374338
15.6550,-5.963988225
15.6600,-5.93074698
15.6650,-5.897729318
15.6700,-5.865078747
15.6750,-5.83248652
15.6800,-5.799988295
15.6850,-5.767674809
15.6900,-5.735041018
15.6950,-5.702738684
15.7000,-5.670512072
15.7050,-5.638425652
15.7100,-5.606775548
15.7150,-5.575669493
15.7200,-5.544804658
15.7250,-5.51440751
15.7300,-5.484557988
15.7350,-5.455589377
15.7400,-5.427493769
15.7450,-5.40003378
15.7500,-5.373439096
15.7550,-5.347732682
15.7600,-5.323116416
15.7650,-5.299374028
15.7700,-5.276503158
15.7750,-5.254514474
15.7800,-5.23357397
15.7850,-5.21363297
15.7900,-5.195206915
15.7950,-5.17790276
15.8000,-5.161790375
15.8050,-5.146910105
15.8100,-5.133224416
15.8150,-5.120647248
15.8200,-5.109148163
15.8250,-5.098362055
15.8300,-5.088400228
15.8350,-5.078886235
15.8400,-5.069922774
15.8450,-5.061270374
15.8500,-5.052968233
15.8550,-5.044947994
15.8600,-5.036965574
15.8650,-5.029002522
15.8700,-5.020896359
15.8750,-5.012761951
15.8800,-5.004465954
15.8850,-4.996176484
15.8900,-4.987401209
15.8950,-4.97840136
15.9000,-4.968957512
15.9050,-4.959164933
15.9100,-4.948705833
15.9150,-4.937942336
15.9200,-4.926617235
15.9250,-4.915146275
15.9300,-4.903566608
15.9350,-4.89167948
15.9400,-4.879870627
15.9450,-4.867633177
15.9500,-4.855320416
15.9550,-4.842662909
15.9600,-4.82993778
15.9650,-4.817147208
15.9700,-4.804108521
15.9750,-4.790955285
15.9800,-4.777686256
15.9850,-4.764227399
15.9900,-4.751084908
15.9950,-4.737981927
16.0000,-4.724914152
16.0050,-4.71190417
16.0100,-4.699030927
16.0150,-4.686328595
16.0200,-4.673927853
16.0250,-4.661604831
16.0300,-4.649738975
16.0350,-4.638090034
16.0400,-4.626760357
16.0450,-4.615923246
16.0500,-4.605337659
16.0550,-4.594957764
16.0600,-4.584818247
16.0650,-4.574985026
16.0700,-4.56535435
16.0750,-4.556055173
16.0800,-4.546956095
16.0850,-4.53792833
16.0900,-4.528710501
16.0950,-4.519469197
16.1000,-4.509985043
16.1050,-4.500255815
16.1100,-4.490365677
16.1150,-4.480228559
16.1200,-4.469891573
16.1250,-4.459487159
16.1300,-4.448838264
16.1350,-4.438233745
16.1400,-4.427547027
16.1450,-4.417067396
16.1500,-4.406686473
16.1550,-4.396494034
16.1600,-4.386820535
16.1650,-4.377537703
16.1700,-4.368849544
16.1750,-4.360603709
16.1800,-4.353098144
16.1850,-4.346258543
16.1900,-4.340374007
16.1950,-4.33538802
16.2000,-4.331493793
16.2050,-4.328407935
16.2100,-4.326554639
16.2150,-4.325794892
16.2200,-4.326518022
16.2250,-4.32841354
16.2300,-4.331450915
16.2350,-4.335789606
16.2400,-4.341214333
16.2450,-4.347918413
16.2500,-4.355701451
16.2550,-4.364551188
16.2600,-4.374339475
16.2650,-4.385057507
16.2700,-4.396794825
16.2750,-4.40966281
16.2800,-4.423780541
16.2850,-4.439095206
16.2900,-4.455728706
16.2950,-4.473617906
16.3000,-4.492701573
16.3050,-4.513480817
16.3100,-4.535674119
16.3150,-4.559321254
16.3200,-4.584548455
16.3250,-4.611295671
16.3300,-4.639341644
16.3350,-4.66842863
16.3400,-4.698653184
16.3450,-4.729946174
16.3500,-4.762184253
16.3550,-4.7956081
16.3600,-4.829851087
16.3650,-4.865112051
16.3700,-4.901341912
16.3750,-4.93857022
16.3800,-4.976674061
16.3850,-5.015658942
16.3900,-5.055455201
16.3950,-5.096032971
16.4000,-5.137470172
16.4050,-5.179662117
16.4100,-5.222449139
16.4150,-5.265849158
16.4200,-5.309855343
16.4250,-5.354671403
16.4300,-5.400295821
16.4350,-5.446519384
16.4400,-5.493564933
16.4450,-5.541281877
16.4500,-5.589970253
16.4550,-5.639396992
16.4600,-5.689490829
16.4650,-5.74024779
16.4700,-5.7914837
16.4750,-5.843326609
16.4800,-5.895504413
16.4850,-5.947828141
16.4900,-6.00028278
16.4950,-6.052791268
16.5000,-6.105276355
16.5050,-6.157828466
16.5100,-6.210214845
16.5150,-6.262533658
16.5200,-6.314746462
16.5250,-6.366989902
16.5300,-6.419442206
16.5350,-6.472275531
16.5400,-6.525557512
16.5450,-6.579620168
16.5500,-6.634511784
16.5550,-6.690305006
16.5600,-6.746888902
16.5650,-6.804033974
16.5700,-6.861536384
16.5750,-6.919200804
16.5800,-6.976975909
16.5850,-7.034605741
16.5900,-7.091914772
16.5950,-7.148865048
16.6000,-7.205761719
16.6050,-7.262356516
16.6100,-7.318963893
16.6150,-7.375754198
16.6200,-7.432999286
16.6250,-7.491166814
16.6300,-7.550509865
16.6350,-7.611219152
16.6400,-7.673269971
16.6450,-7.736878939
16.6500,-7.802368071
16.6550,-7.869762589
16.6600,-7.939431718
16.6650,-8.011317114
16.6700,-8.085507794
16.6750,-8.161677905
16.6800,-8.240110677
16.6850,-8.320447285
16.6900,-8.402644806
16.6950,-8.486191844
16.7000,-8.570695717
16.7050,-8.655854078
16.7100,-8.741459047
16.7150,-8.827166931
16.7200,-8.912405655
16.7250,-8.997099234
16.7300,-9.080855873
16.7350,-9.163730733
16.7400,-9.245565078
16.7450,-9.326374663
16.7500,-9.40603605
16.7550,-9.484743275
16.7600,-9.56275829
16.7650,-9.639954733
16.7700,-9.716581545
16.7750,-9.792721543
16.7800,-9.868609527
16.7850,-9.944366518
16.7900,-10.02008111
16.7950,-10.0957782
16.8000,-10.17150128
16.8050,-10.24710784
16.8100,-10.32267411
16.8150,-10.39782862
16.8200,-10.47243033
16.8250,-10.54642148
16.8300,-10.61977531
16.8350,-10.69244295
16.8400,-10.76442242
16.8450,-10.83551866
16.8500,-10.90561376
16.8550,-10.97470113
16.8600,-11.04292527
16.8650,-11.11070761
16.8700,-11.17832252
16.8750,-11.24612019
16.8800,-11.31430241
16.8850,-11.38338255
16.8900,-11.45351211
16.8950,-11.52496775
16.9000,-11.59763594
16.9050,-11.6717505
16.9100,-11.74730421
16.9150,-11.82414262
16.9200,-11.9020493
16.9250,-11.98059866
16.9300,-12.0593742
16.9350,-12.13825515
16.9400,-12.21721872
16.9450,-12.29605642
16.9500,-12.37489619
16.9550,-12.45385911
16.9600,-12.53300759
16.9650,-12.6126768
16.9700,-12.69255785
16.9750,-12.77303231
16.9800,-12.85378833
16.9850,-12.93526765
16.9900,-13.01727748
16.9950,-13.10007137
17.0000,-13.1834368
17.0050,-13.26720468
17.0100,-13.35126492
17.0150,-13.4355665
17.0200,-13.52014647
17.0250,-13.60466027
17.0300,-13.68915649
17.0350,-13.77341182
17.0400,-13.85718606
17.0450,-13.94029765
17.0500,-14.02268003
17.0550,-14.10411457
17.0600,-14.18445339
17.0650,-14.26374592
17.0700,-14.34230673
17.0750,-14.41975729
17.0800,-14.4962192
17.0850,-14.57183846
17.0900,-14.64662125
17.0950,-14.72038515
17.1000,-14.79308035
17.1050,-14.86476914
17.1100,-14.93520979
17.1150,-15.00468808
17.1200,-15.07291644
17.1250,-15.13973561
17.1300,-15.20464567
17.1350,-15.26756699
17.1400,-15.32820902
17.1450,-15.3864287
17.1500,-15.44219674
17.1550,-15.49545688
17.1600,-15.54645334
17.1650,-15.59481323
17.1700,-15.64080269
17.1750,-15.68427425
17.1800,-15.72538791
17.1850,-15.76397161
17.1900,-15.80017838
17.1950,-15.83422369
17.2000,-15.86608204
17.2050,-15.89616124
17.2100,-15.92460662
17.2150,-15.95164109
17.2200,-15.9777948
17.2250,-16.00328845
17.2300,-16.02841696
17.2350,-16.05346665
17.2400,-16.07845018
17.2450,-16.10340752
17.2500,-16.12809821
17.2550,-16.15247938
17.2600,-16.17662142
17.2650,-16.20010659
17.2700,-16.22302948
17.2750,-16.24530002
17.2800,-16.26679109
17.2850,-16.28746835
17.2900,-16.30731224
17.2950,-16.32645842
17.3000,-16.34517024
17.3050,-16.36369927
17.3100,-16.38200997
17.3150,-16.40029852
17.3200,-16.41884233
17.3250,-16.43770199
17.3300,-16.45688827
17.3350,-16.47646819
17.3400,-16.49645356
17.3450,-16.51677279
17.3500,-16.5371561
17.3550,-16.55749209
17.3600,-16.5776974
17.3650,-16.59718717
17.3700,-16.61549715
17.3750,-16.63249333
17.3800,-16.6476236
17.3850,-16.6608258
17.3900,-16.67192803
17.3950,-16.68123229
17.4000,-16.68891239
17.4050,-16.69496899
17.4100,-16.6994795
17.4150,-16.70238411
17.4200,-16.70374229
17.4250,-16.70348632
17.4300,-16.70185791
17.4350,-16.69853722
17.4400,-16.69347609
17.4450,-16.68632168
17.4500,-16.67698861
17.4550,-16.6653192
17.4600,-16.65085125
17.4650,-16.63346254
17.4700,-16.6126855
17.4750,-16.58847678
17.4800,-16.56071314
17.4850,-16.52961586
17.4900,-16.49543304
17.4950,-16.4580562
17.5000,-16.41802789
17.5050,-16.37519539
17.5100,-16.32969652
17.5150,-16.28184803
17.5200,-16.23182689
17.5250,-16.17997013
17.5300,-16.12660534
17.5350,-16.07168658
17.5400,-16.01539154
17.5450,-15.95795388
17.5500,-15.89979564
17.5550,-15.84109028
17.5600,-15.78194664
17.5650,-15.72264527
17.5700,-15.66320091
17.5750,-15.60368612
17.5800,-15.54422731
17.5850,-15.48441805
17.5900,-15.42457739
17.5950,-15.36450084
17.6000,-15.30421852
17.6050,-15.24378316
17.6100,-15.1831798
17.6150,-15.12203924
17.6200,-15.06000555
17.6250,-14.99698903
17.6300,-14.93302155
17.6350,-14.86825558
17.6400,-14.80287414
17.6450,-14.73704364
17.6500,-14.67124422
17.6550,-14.60576588
17.6600,-14.54092988
17.6650,-14.47737915
17.6700,-14.41516573
17.6750,-14.35453669
17.6800,-14.29567047
17.6850,-14.23844854
17.6900,-14.18303954
17.6950,-14.1290644
17.7000,-14.07651419
17.7050,-14.02544064
17.7100,-13.97564436
17.7150,-13.92687036
17.7200,-13.8791002
17.7250,-13.83209221
17.7300,-13.78566432
17.7350,-13.74000854
17.7400,-13.69495054
17.7450,-13.65049052
17.7500,-13.60633184
17.7550,-13.56237749
17.7600,-13.51835558
17.7650,-13.47448799
17.7700,-13.43067471
17.7750,-13.38703583
17.7800,-13.34355509
17.7850,-13.30012645
17.7900,-13.25650699
17.7950,-13.21282611
17.8000,-13.16894985
17.8050,-13.12478427
17.8100,-13.08035889
17.8150,-13.03529853
17.8200,-12.98958232
17.8250,-12.94323352
17.8300,-12.89626096
17.8350,-12.84891349
17.8400,-12.80138781
17.8450,-12.75354829
17.8500,-12.70535525
17.8550,-12.6565458
17.8600,-12.60687569
17.8650,-12.55618046
17.8700,-12.5044486
17.8750,-12.45163753
17.8800,-12.39767035
17.8850,-12.34262747
17.8900,-12.28621013
17.8950,-12.22826165
17.9000,-12.16859071
17.9050,-12.10697393
17.9100,-12.04345341
17.9150,-11.97829855
17.9200,-11.911826
17.9250,-11.84402999
17.9300,-11.77529099
17.9350,-11.70560417
17.9400,-11.63495824
17.9450,-11.56360546
17.9500,-11.49172315
17.9550,-11.41944167
17.9600,-11.3469926
17.9650,-11.27440454
17.9700,-11.20205192
17.9750,-11.13004916
17.9800,-11.0585757
17.9850,-10.98787427
17.9900,-10.91798718
17.9950,-10.84927885
18.0000,-10.7816834
18.0050,-10.71544513
18.0100,-10.65070101
18.0150,-10.58770027
18.0200,-10.52655522
18.0250,-10.46732521
18.0300,-10.41000797
18.0350,-10.35435956
18.0400,-10.30014542
18.0450,-10.24722849
18.0500,-10.19546526
18.0550,-10.14465573
18.0600,-10.09474886
18.0650,-10.04542809
18.0700,-9.99657134
18.0750,-9.947971789
18.0800,-9.899389446
18.0850,-9.850626987
18.0900,-9.801565947
18.0950,-9.75221908
18.1000,-9.702586205
18.1050,-9.652636598
18.1100,-9.602472851
18.1150,-9.552376978
18.1200,-9.502215429
18.1250,-9.452032828
18.1300,-9.401736499
18.1350,-9.351523132
18.1400,-9.301284926
18.1450,-9.251538923
18.1500,-9.202074773
18.1550,-9.153272422
18.1600,-9.105023142
18.1650,-9.057323081
18.1700,-9.010051997
18.1750,-8.963012259
18.1800,-8.916052043
18.1850,-8.869118316
18.1900,-8.821980154
18.1950,-8.774543432
18.2000,-8.726548323
18.2050,-8.677731579
18.2100,-8.627974058
18.2150,-8.577144488
18.2200,-8.525143823
18.2250,-8.472085642
18.2300,-8.417951491
18.2350,-8.362818188
18.2400,-8.307028925
18.2450,-8.250797747
18.2500,-8.194085599
18.2550,-8.13726311
18.2600,-8.080397126
18.2650,-8.023751335
18.2700,-7.967523534
18.2750,-7.911900461
18.2800,-7.857109504
18.2850,-7.803178871
18.2900,-7.750214339
18.2950,-7.698136803
18.3000,-7.646821892
18.3050,-7.595991989
18.3100,-7.545392431
18.3150,-7.494710749
18.3200,-7.44374865
18.3250,-7.392191308
18.3300,-7.339756584
18.3350,-7.286365908
18.3400,-7.23212083
18.3450,-7.176818679
18.3500,-7.12063653
18.3550,-7.063409629
18.3600,-7.005312595
18.3650,-6.946481546
18.3700,-6.886933741
18.3750,-6.826935142
18.3800,-6.766622737
18.3850,-6.706316422
18.3900,-6.646199047
18.3950,-6.586306246
18.4000,-6.526672556
18.4050,-6.4677628
18.4100,-6.409577599
18.4150,-6.352315493
18.4200,-6.29634274
18.4250,-6.241643328
18.4300,-6.188412851
18.4350,-6.136640202
18.4400,-6.086389769
18.4450,-6.037472582
18.4500,-5.989874533
18.4550,-5.943415048
18.4600,-5.898296845
18.4650,-5.854545565
18.4700,-5.812215403
18.4750,-5.771276938
18.4800,-5.731723759
18.4850,-5.693581158
18.4900,-5.656610559
18.4950,-5.620774659
18.5000,-5.586076335
18.5050,-5.552530632
18.5100,-5.520146975
18.5150,-5.488771342
18.5200,-5.45851033
18.5250,-5.429334077
18.5300,-5.401102675
18.5350,-5.373809989
18.5400,-5.347357462
18.5450,-5.321589967
18.5500,-5.296731505
18.5550,-5.272565711
18.5600,-5.24925324
18.5650,-5.226820168
18.5700,-5.205016057
18.5750,-5.183812459
18.5800,-5.163162882
18.5850,-5.142994221
18.5900,-5.123045137
18.5950,-5.10336158
18.6000,-5.083884147
18.6050,-5.064470359
18.6100,-5.045037619
18.6150,-5.025571791
18.6200,-5.005659338
18.6250,-4.985462836
18.6300,-4.96493564
18.6350,-4.94392545
18.6400,-4.922256462
18.6450,-4.900004216
18.6500,-4.876888746
18.6550,-4.853050267
18.6600,-4.828491203
18.6650,-4.803072032
18.6700,-4.776953504
18.6750,-4.750065578
18.6800,-4.722511204
18.6850,-4.694407225
18.6900,-4.665850708
18.6950,-4.63708855
18.7000,-4.608578013
18.7050,-4.580349053
18.7100,-4.55281273
18.7150,-4.526307653
18.7200,-4.500913265
18.7250,-4.47696313
18.7300,-4.454792084
18.7350,-4.434487714
18.7400,-4.416284997
18.7450,-4.400221768
18.7500,-4.386458625
18.7550,-4.375102345
18.7600,-4.365995628
18.7650,-4.359169449
18.7700,-4.354567779
18.7750,-4.352093653
18.7800,-4.351686243
18.7850,-4.353124685
18.7900,-4.356447915
18.7950,-4.361603603
18.8000,-4.368546118
18.8050,-4.377147583
18.8100,-4.387178472
18.8150,-4.398696329
18.8200,-4.411337728
18.8250,-4.425072662
18.8300,-4.439563464
18.8350,-4.454739557
18.8400,-4.470334628
18.8450,-4.48620997
18.8500,-4.502157803
18.8550,-4.518317591
18.8600,-4.534140655
18.8650,-4.549533668
18.8700,-4.564597131
18.8750,-4.579218642
18.8800,-4.593344489
18.8850,-4.606946485
18.8900,-4.619921276
18.8950,-4.63202941
18.9000,-4.643250544
18.9050,-4.653552874
18.9100,-4.662952459
18.9150,-4.671246657
18.9200,-4.678835294
18.9250,-4.685741549
18.9300,-4.692027545
18.9350,-4.697808665
18.9400,-4.703000153
18.9450,-4.707753578
18.9500,-4.712296964
18.9550,-4.716509838
18.9600,-4.720515317
18.9650,-4.724468706
18.9700,-4.728387258
18.9750,-4.732157821
18.9800,-4.73588628
18.9850,-4.739544115
18.9900,-4.743433434
18.9950,-4.74776595
19.0000,-4.752567617
19.0050,-4.758017463
19.0100,-4.764174641
19.0150,-4.771077009
19.0200,-4.778884672
19.0250,-4.787882036
19.0300,-4.798204573
19.0350,-4.810155063
19.0400,-4.823788601
19.0450,-4.839560717
19.0500,-4.857668078
19.0550,-4.878332405
19.0600,-4.901852742
19.0650,-4.928316628
19.0700,-4.957801388
19.0750,-4.990640128
19.0800,-5.026503804
19.0850,-5.065542136
19.0900,-5.107694705
19.0950,-5.152791156
19.1000,-5.200400345
19.1050,-5.250320397
19.1100,-5.30235025
19.1150,-5.35616567
19.1200,-5.411545339
19.1250,-5.468272999
19.1300,-5.526395169
19.1350,-5.585691889
19.1400,-5.646354937
19.1450,-5.708189525
19.1500,-5.771256391
19.1550,-5.835275599
19.1600,-5.90040526
19.1650,-5.966594459
19.1700,-6.033705537
19.1750,-6.101614865
19.1800,-6.170234715
19.1850,-6.239389441
19.1900,-6.308895714
19.1950,-6.378642896
19.2000,-6.448415968
19.2050,-6.517968254
19.2100,-6.587304216
19.2150,-6.65638719
19.2200,-6.724814263
19.2250,-6.792614715
19.2300,-6.859511471
19.2350,-6.925489807
19.2400,-6.990534034
19.2450,-7.05466333
19.2500,-7.117664005
19.2550,-7.179601009
19.2600,-7.240400129
19.2650,-7.300154881
19.2700,-7.358742225
19.2750,-7.416629142
19.2800,-7.473972928
19.2850,-7.53099501
19.2900,-7.587952543
19.2950,-7.644928817
19.3000,-7.702121103
19.3050,-7.759869061
19.3100,-7.818342398
19.3150,-7.877740243
19.3200,-7.938282236
19.3250,-8.000173188
19.3300,-8.063444702
19.3350,-8.128028336
19.3400,-8.194430527
19.3450,-8.26235189
19.3500,-8.332175802
19.3550,-8.403980454
19.3600,-8.478031983
19.3650,-8.554449792
19.3700,-8.633356873
19.3750,-8.714585009
19.3800,-8.798288261
19.3850,-8.884367092
19.3900,-8.972932815
19.3950,-9.063826021
19.4000,-9.157020613
19.4050,-9.252569397
19.4100,-9.350370407
19.4150,-9.450416042
19.4200,-9.552587715
19.4250,-9.656731593
19.4300,-9.762734719
19.4350,-9.870612435
19.4400,-9.980117905
19.4450,-10.09118812
19.4500,-10.20344873
19.4550,-10.31671954
19.4600,-10.43054007
19.4650,-10.54460818
19.4700,-10.65836957
19.4750,-10.77172832
19.4800,-10.88407267
19.4850,-10.99510089
19.4900,-11.10460763
19.4950,-11.21234689
19.5000,-11.31820862
19.5050,-11.42211876
19.5100,-11.52396434
19.5150,-11.62379132
19.5200,-11.72158322
19.5250,-11.81711454
19.5300,-11.9104301
19.5350,-12.00139773
19.5400,-12.09027875
19.5450,-12.17704293
19.5500,-12.26188647
19.5550,-12.34489054
19.5600,-12.4261823
19.5650,-12.50586539
19.5700,-12.584349
19.5750,-12.66155785
19.5800,-12.73776916
19.5850,-12.81307656
19.5900,-12.88750662
19.5950,-12.96097388
19.6000,-13.03358276
19.6050,-13.10504954
19.6100,-13.17528955
19.6150,-13.24409757
19.6200,-13.31145277
19.6250,-13.37704137
19.6300,-13.44103232
19.6350,-13.50337427
19.6400,-13.56403222
19.6450,-13.6231441
19.6500,-13.68061288
19.6550,-13.73635412
19.6600,-13.79028219
19.6650,-13.84247346
19.6700,-13.89306421
19.6750,-13.9422785
19.6800,-13.99049516
19.6850,-14.03765875
19.6900,-14.08391166
19.6950,-14.12944221
19.7000,-14.1747544
19.7050,-14.21977702
19.7100,-14.26482017
19.7150,-14.30985147
19.7200,-14.35515082
19.7250,-14.4008191
19.7300,-14.44682367
19.7350,-14.49304613
19.7400,-14.53928123
19.7450,-14.58548849
19.7500,-14.63135336
19.7550,-14.67679719
19.7600,-14.72178914
19.7650,-14.76632588
19.7700,-14.81047795
19.7750,-14.85396691
19.7800,-14.89711415
19.7850,-14.93988681
19.7900,-14.98239411
19.7950,-15.02467616
19.8000,-15.06675889
19.8050,-15.1087308
19.8100,-15.15063882
19.8150,-15.19247757
19.8200,-15.23415164
19.8250,-15.27569744
19.8300,-15.31707612
19.8350,-15.35827413
19.8400,-15.39907324
19.8450,-15.43938061
19.8500,-15.47908531
19.8550,-15.51823674
19.8600,-15.55666727
19.8650,-15.59414534
19.8700,-15.63047686
19.8750,-15.66553448
19.8800,-15.69893494
19.8850,-15.73055757
19.8900,-15.76027671
19.8950,-15.78807654
19.9000,-15.81377513
19.9050,-15.83764273
19.9100,-15.8596461
19.9150,-15.88026537
19.9200,-15.89966304
19.9250,-15.9181918
19.9300,-15.93604994
19.9350,-15.95364097
19.9400,-15.97108118
19.9450,-15.98868785
19.9500,-16.00651642
19.9550,-16.02485242
19.9600,-16.04413069
19.9650,-16.06437105
19.9700,-16.08567896
19.9750,-16.10804297
19.9800,-16.13127955
19.9850,-16.1554206
19.9900,-16.18003843
19.9950,-16.20488509
20.0000,-16.22954283
20.0050,-16.2540429
20.0100,-16.27790096
20.0150,-16.30129227
20.0200,-16.32374821
20.0250,-16.34496908
20.0300,-16.3648967
20.0350,-16.38332469
20.0400,-16.40026015
20.0450,-16.41586435
20.0500,-16.43021078
20.0550,-16.44324848
20.0600,-16.45513949
20.0650,-16.46579035
20.0700,-16.47513378
20.0750,-16.48323373
20.0800,-16.48991575
20.0850,-16.49529943
20.0900,-16.49938916
20.0950,-16.50218132
20.1000,-16.50386663
20.1050,-16.50420118
20.1100,-16.50311403
20.1150,-16.50049607
20.1200,-16.49660694
20.1250,-16.49126529
20.1300,-16.48459047
20.1350,-16.47671628
20.1400,-16.46772377
20.1450,-16.45782499
20.1500,-16.44698941
20.1550,-16.43553405
20.1600,-16.42348689
20.1650,-16.41119166
20.1700,-16.39855395
20.1750,-16.38558606
20.1800,-16.37246105
20.1850,-16.35909204
20.1900,-16.34559591
20.1950,-16.33219143
20.2000,-16.31908735
20.2050,-16.30615305
20.2100,-16.29334067
20.2150,-16.28033511
20.2200,-16.26707491
20.2250,-16.25328341
20.2300,-16.23876721
20.2350,-16.22344358
20.2400,-16.20727283
20.2450,-16.19028789
20.2500,-16.17272015
20.2550,-16.15456744
20.2600,-16.13567859
20.2650,-16.11606439
20.2700,-16.09578687
20.2750,-16.07461434
20.2800,-16.05270427
20.2850,-16.03019758
20.2900,-16.00725123
20.2950,-15.98412485
20.3000,-15.96093058
20.3050,-15.9377623
20.3100,-15.91482003
20.3150,-15.89177621
20.3200,-15.86888976
20.3250,-15.84614633
20.3300,-15.8237221
20.3350,-15.8016587
20.3400,-15.77983985
20.3450,-15.75814432
20.3500,-15.73658461
20.3550,-15.71543844
20.3600,-15.69447341
20.3650,-15.6735517
20.3700,-15.6526725
20.3750,-15.63174557
20.3800,-15.61081144
20.3850,-15.58987456
20.3900,-15.56898863
20.3950,-15.54821018
20.4000,-15.52741821
20.4050,-15.50689543
20.4100,-15.4865349
20.4150,-15.46621275
20.4200,-15.44573215
20.4250,-15.42486222
20.4300,-15.40369027
20.4350,-15.38175848
20.4400,-15.35889492
20.4450,-15.33500791
20.4500,-15.31037667
20.4550,-15.28476821
20.4600,-15.25819147
20.4650,-15.23050681
20.4700,-15.20179027
20.4750,-15.1723526
20.4800,-15.14219322
20.4850,-15.11167406
20.4900,-15.0806502
20.4950,-15.04895622
20.5000,-15.01618145
20.5050,-14.98247218
20.5100,-14.94789179
20.5150,-14.91256364
20.5200,-14.87654904
20.5250,-14.83998816
20.5300,-14.80282351
20.5350,-14.76532854
20.5400,-14.72762104
20.5450,-14.68994784
20.5500,-14.65233654
20.5550,-14.61492995
20.5600,-14.57804287
20.5650,-14.5420984
20.5700,-14.50720871
20.5750,-14.47363588
20.5800,-14.44168592
20.5850,-14.41128941
20.5900,-14.38263302
20.5950,-14.3555764
20.6000,-14.33006136
20.6050,-14.30573157
20.6100,-14.28254282
20.6150,-14.26032602
20.6200,-14.23882637
20.6250,-14.21771298
20.6300,-14.19655684
20.6350,-14.1753675
20.6400,-14.15392566
20.6450,-14.13202971
20.6500,-14.10969188
20.6550,-14.0865368
20.6600,-14.06284527
20.6650,-14.0387072
20.6700,-14.01425527
20.6750,-13.98961916
20.6800,-13.96494029
20.6850,-13.93990108
20.6900,-13.91469361
20.6950,-13.88928694
20.7000,-13.86366742
20.7050,-13.83758065
20.7100,-13.81098538
20.7150,-13.7839592
20.7200,-13.75661417
20.7250,-13.72923162
20.7300,-13.70141066
20.7350,-13.67326164
20.7400,-13.64434484
20.7450,-13.61434105
20.7500,-13.58281205
20.7550,-13.54953773
20.7600,-13.51418236
20.7650,-13.47637789
20.7700,-13.43632566
20.7750,-13.39368827
20.7800,-13.34854581
20.7850,-13.30098495
20.7900,-13.25128012
20.7950,-13.1997498
20.8000,-13.14677247
20.8050,-13.09231392
20.8100,-13.03668656
20.8150,-12.98023414
20.8200,-12.92281734
20.8250,-12.86480901
20.8300,-12.80663835
20.8350,-12.74841651
20.8400,-12.6902137
20.8450,-12.63194413
20.8500,-12.57342701
20.8550,-12.51461916
20.8600,-12.45499461
20.8650,-12.39411319
20.8700,-12.33209557
20.8750,-12.26893128
20.8800,-12.20457711
20.8850,-12.13931646
20.8900,-12.073285
20.8950,-12.00689551
20.9000,-11.94046445
20.9050,-11.87446567
20.9100,-11.80920885
20.9150,-11.74491164
20.9200,-11.68198327
20.9250,-11.62080031
20.9300,-11.56140891
20.9350,-11.50346219
20.9400,-11.446973
20.9450,-11.39176197
20.9500,-11.33770219
20.9550,-11.2846545
20.9600,-11.23224416
20.9650,-11.18058054
20.9700,-11.12953018
20.9750,-11.07910377
20.9800,-11.02930895
20.9850,-10.98053524
20.9900,-10.93285192
20.9950,-10.8862899
21.0000,-10.84109857
21.0050,-10.79757828
21.0100,-10.75588856
21.0150,-10.7159172
21.0200,-10.67757058
21.0250,-10.64078507
21.0300,-10.60570123
21.0350,-10.57198746
21.0400,-10.53984353
21.0450,-10.5091009
21.0500,-10.47958676
21.0550,-10.4509922
21.0600,-10.42321282
21.0650,-10.39612892
21.0700,-10.36947542
21.0750,-10.34296514
21.0800,-10.31628559
21.0850,-10.28913662
21.0900,-10.26089643
21.0950,-10.23110093
21.1000,-10.19977127
21.1050,-10.1666917
21.1100,-10.13170993
21.1150,-10.09440407
21.1200,-10.05489623
21.1250,-10.01326319
21.1300,-9.969387376
21.1350,-9.923449514
21.1400,-9.875321529
21.1450,-9.82513582
21.1500,-9.772793508
21.1550,-9.718382538
21.1600,-9.662075117
21.1650,-9.604293038
21.1700,-9.544917537
21.1750,-9.483952601
21.1800,-9.421538882
21.1850,-9.35769004
21.1900,-9.292438135
21.1950,-9.225756641
21.2000,-9.157400547
21.2050,-9.087376577
21.2100,-9.015386984
21.2150,-8.941888193
21.2200,-8.866790173
21.2250,-8.790275096
21.2300,-8.71250683
21.2350,-8.633895303
21.2400,-8.554674761
21.2450,-8.475108549
21.2500,-8.395068791
21.2550,-8.314540636
21.2600,-8.234132167
21.2650,-8.153516578
21.2700,-8.072982445
21.2750,-7.992385429
21.2800,-7.911465129
21.2850,-7.830249087
21.2900,-7.748503923
21.2950,-7.666338732
21.3000,-7.583647842
21.3050,-7.500526538
21.3100,-7.416953457
21.3150,-7.333376394
21.3200,-7.2496679
21.3250,-7.166206772
21.3300,-7.083059612
21.3350,-7.000412736
21.3400,-6.918321164
21.3450,-6.836691163
21.3500,-6.75561031
21.3550,-6.675201219
21.3600,-6.595373869
21.3650,-6.516205016
21.3700,-6.437176319
21.3750,-6.358460733
21.3800,-6.280079396
21.3850,-6.201903159
21.3900,-6.124339849
21.3950,-6.047499654
21.4000,-5.971255758
21.4050,-5.895780031
21.4100,-5.821147556
21.4150,-5.747453672
21.4200,-5.674622466
21.4250,-5.602410209
21.4300,-5.530878262
21.4350,-5.459705857
21.4400,-5.389173482
21.4450,-5.318794164
21.4500,-5.248928298
21.4550,-5.179766094
21.4600,-5.111243886
21.4650,-5.043132173
21.4700,-4.975535576
21.4750,-4.908674847
21.4800,-4.842616317
21.4850,-4.777138578
21.4900,-4.712259839
21.4950,-4.64801593
21.5000,-4.584621228
21.5050,-4.522347433
21.5100,-4.4614214
21.5150,-4.401566907
21.5200,-4.342610559
21.5250,-4.28459048
21.5300,-4.227427192
21.5350,-4.170868355
21.5400,-4.114884162
21.5450,-4.059346052
21.5500,-4.004188042
21.5550,-3.949279955
21.5600,-3.894271745
21.5650,-3.838985014
21.5700,-3.782997508
21.5750,-3.726245913
21.5800,-3.668866348
21.5850,-3.610485647
21.5900,-3.551316476
21.5950,-3.491527915
21.6000,-3.430924494
21.6050,-3.369690625
21.6100,-3.307944669
21.6150,-3.245775887
21.6200,-3.183260456
21.6250,-3.120175443
21.6300,-3.056823306
21.6350,-2.993312762
21.6400,-2.92997149
21.6450,-2.867000161
21.6500,-2.804638449
21.6550,-2.742624547
21.6600,-2.681280643
21.6650,-2.620800915
21.6700,-2.561322056
21.6750,-2.502518408
21.6800,-2.444506921
21.6850,-2.387385769
21.6900,-2.330938759
21.6950,-2.27552261
21.7000,-2.221127547
21.7050,-2.167556356
21.7100,-2.114996769
21.7150,-2.063277674
21.7200,-2.012637113
21.7250,-1.963254559
21.7300,-1.915079206
21.7350,-1.868107382
21.7400,-1.822031097
21.7450,-1.777513818
21.7500,-1.734332674
21.7550,-1.692609516
21.7600,-1.652403279
21.7650,-1.613968132
21.7700,-1.577230276
21.7750,-1.541962342
21.7800,-1.507924717
21.7850,-1.47511016
21.7900,-1.443740838
21.7950,-1.413565493
21.8000,-1.384381296
21.8050,-1.355961249
21.8100,-1.328254442
21.8150,-1.301286391
21.8200,-1.275124592
21.8250,-1.249617905
21.8300,-1.224741615
21.8350,-1.200467659
21.8400,-1.176835248
21.8450,-1.153488113
21.8500,-1.130803137
21.8550,-1.108464599
21.8600,-1.086298552
21.8650,-1.064271075
21.8700,-1.042359424
21.8750,-1.020724229
21.8800,-0.9991804852
21.8850,-0.9779952095
21.8900,-0.9568732076
21.8950,-0.9356320712
21.9000,-0.9145280308
21.9050,-0.8935961615
21.9100,-0.8726591656
21.9150,-0.8519178928
21.9200,-0.831488254
21.9250,-0.8116277778
21.9300,-0.7921253313
21.9350,-0.7731133116
21.9400,-0.7542845166
21.9450,-0.7358666086
21.9500,-0.7178390009
21.9550,-0.7002604529
21.9600,-0.6834155274
21.9650,-0.6668800916
21.9700,-0.6510166226
21.9750,-0.6361134697
21.9800,-0.6221030625
21.9850,-0.6090929065
21.9900,-0.5968454745
21.9950,-0.5851797746
22.0000,-0.574104292
22.0050,-0.5638569566
22.0100,-0.5539689093
22.0150,-0.5447934996
22.0200,-0.5363170883
22.0250,-0.5282978882
22.0300,-0.5207896798
22.0350,-0.5139909752
22.0400,-0.507986543
22.0450,-0.5026148
22.0500,-0.4980503415
22.0550,-0.4940778603
22.0600,-0.4907920256
22.0650,-0.4880235719
22.0700,-0.4857325903
22.0750,-0.4840379699
22.0800,-0.4827965244
22.0850,-0.4823923205
22.0900,-0.4823655477
22.0950,-0.4831849526
22.1000,-0.4848358255
22.1050,-0.4872709496
22.1100,-0.4905762534
22.1150,-0.4945791051
22.1200,-0.4994277906
22.1250,-0.5049582979
22.1300,-0.5111062923
22.1350,-0.5180520562
22.1400,-0.5253662887
22.1450,-0.5332609449
22.1500,-0.5413671511
22.1550,-0.550032104
22.1600,-0.5590597199
22.1650,-0.5686547108
22.1700,-0.5788570443
22.1750,-0.5897498055
22.1800,-0.601331781
22.1850,-0.61357219
22.1900,-0.6266745639
22.1950,-0.6405693873
22.2000,-0.65528029
22.2050,-0.6708376002
22.2100,-0.6876005877
22.2150,-0.7052492538
22.2200,-0.7241017152
22.2250,-0.7438910669
22.2300,-0.7646913996
22.2350,-0.7866055359
22.2400,-0.8096274766
22.2450,-0.8336239276
22.2500,-0.8583568542
22.2550,-0.8839467389
22.2600,-0.9099254263
22.2650,-0.936596033
22.2700,-0.9636580196
22.2750,-0.9912413705
22.2800,-1.019141186
22.2850,-1.047413097
22.2900,-1.076409832
22.2950,-1.106108955
22.3000,-1.136587119
22.3050,-1.167873841
22.3100,-1.199952074
22.3150,-1.23282329
22.3200,-1.266395194
22.3250,-1.301021729
22.3300,-1.336517171
22.3350,-1.372997087
22.3400,-1.410580408
22.3450,-1.449458691
22.3500,-1.489541235
22.3550,-1.530857869
22.3600,-1.573585063
22.3650,-1.617851288
22.3700,-1.66370646
22.3750,-1.711293004
22.3800,-1.76058703
22.3850,-1.811236959
22.3900,-1.863335483
22.3950,-1.916482754
22.4000,-1.970796092
22.4050,-2.026402186
22.4100,-2.08325311
22.4150,-2.141444338
22.4200,-2.200821534
22.4250,-2.261664824
22.4300,-2.323905159
22.4350,-2.387406575
22.4400,-2.452641544
22.4450,-2.519486025
22.4500,-2.587957844
22.4550,-2.658067334
22.4600,-2.729697565
22.4650,-2.802869016
22.4700,-2.877444389
22.4750,-2.953332483
22.4800,-3.03052335
22.4850,-3.108942689
22.4900,-3.188641923
22.4950,-3.269661487
22.5000,-3.351897283
22.5050,-3.435214767
22.5100,-3.519505214
22.5150,-3.60473188
22.5200,-3.690753136
22.5250,-3.777757625
22.5300,-3.8657916
22.5350,-3.954705834
22.5400,-4.044756565
22.5450,-4.135798392
22.5500,-4.227802473
22.5550,-4.320788179
22.5600,-4.414541146
22.5650,-4.508871589
22.5700,-4.603598775
22.5750,-4.698358403
22.5800,-4.793091298
22.5850,-4.887503021
22.5900,-4.981385113
22.5950,-5.074511209
22.6000,-5.166792217
22.6050,-5.258298014
22.6100,-5.349248083
22.6150,-5.439416762
22.6200,-5.529165251
22.6250,-5.618285743
22.6300,-5.706959365
22.6350,-5.795104365
22.6400,-5.88289374
22.6450,-5.970094178
22.6500,-6.0570117
22.6550,-6.143704376
22.6600,-6.230089663
22.6650,-6.315996037
22.6700,-6.401454259
22.6750,-6.486265158
22.6800,-6.570587137
22.6850,-6.654587755
22.6900,-6.738285753
22.6950,-6.821809523
22.7000,-6.905090133
22.7050,-6.98796252
22.7100,-7.070381217
22.7150,-7.152150853
22.7200,-7.233421483
22.7250,-7.314009217
22.7300,-7.39408507
22.7350,-7.473724794
22.7400,-7.5527211
22.7450,-7.630959901
22.7500,-7.708596113
22.7550,-7.785402796
22.7600,-7.861682022
22.7650,-7.937291474
22.7700,-8.012431122
22.7750,-8.087049106
22.7800,-8.161402863
22.7850,-8.235578295
22.7900,-8.309514293
22.7950,-8.38338668
22.8000,-8.457112328
22.8050,-8.530616643
22.8100,-8.60386483
22.8150,-8.67682095
22.8200,-8.749370133
22.8250,-8.821452345
22.8300,-8.892744462
22.8350,-8.96331223
22.8400,-9.032995645
22.8450,-9.101904551
22.8500,-9.169941054
22.8550,-9.237329129
22.8600,-9.304293651
22.8650,-9.370914805
22.8700,-9.437618311
22.8750,-9.504444881
22.8800,-9.571621417
22.8850,-9.639166773
22.8900,-9.707070122
22.8950,-9.7751651
22.9000,-9.843626769
22.9050,-9.912112188
22.9100,-9.980600348
22.9150,-10.04919161
22.9200,-10.11754844
22.9250,-10.18577182
22.9300,-10.25385676
22.9350,-10.32203581
22.9400,-10.39032202
22.9450,-10.45885334
22.9500,-10.52761035
22.9550,-10.59661156
22.9600,-10.66601976
22.9650,-10.73589351
22.9700,-10.80602254
22.9750,-10.87650498
22.9800,-10.94722352
22.9850,-11.01793117
22.9900,-11.08867136
22.9950,-11.15935659
23.0000,-11.22975312
23.0050,-11.29959499
23.0100,-11.36884575
23.0150,-11.43760958
23.0200,-11.50563897
23.0250,-11.57298797
23.0300,-11.63952113
23.0350,-11.70507243
23.0400,-11.76955744
23.0450,-11.83296182
23.0500,-11.894973
23.0550,-11.95571816
23.0600,-12.0148965
23.0650,-12.07278261
23.0700,-12.12936256
23.0750,-12.18456375
23.0800,-12.23827224
23.0850,-12.29042542
23.0900,-12.34112229
23.0950,-12.39041181
23.1000,-12.43823613
23.1050,-12.48470578
23.1100,-12.52990773
23.1150,-12.57375667
23.1200,-12.61633076
23.1250,-12.65753589
23.1300,-12.69760959
23.1350,-12.73659185
23.1400,-12.77458545
23.1450,-12.81151606
23.1500,-12.8475745
23.1550,-12.88272975
23.1600,-12.91678292
23.1650,-12.94963654
23.1700,-12.98089633
23.1750,-13.01055395
23.1800,-13.03852912
23.1850,-13.06491349
23.1900,-13.08997903
23.1950,-13.11412334
23.2000,-13.13737802
23.2050,-13.16000769
23.2100,-13.18240565
23.2150,-13.20454977
23.2200,-13.2267331
23.2250,-13.24898003
23.2300,-13.27142226
23.2350,-13.29391231
23.2400,-13.31646291
23.2450,-13.33911778
23.2500,-13.36212421
23.2550,-13.3854735
23.2600,-13.40905822
23.2650,-13.43295949
23.2700,-13.4573836
23.2750,-13.48226909
23.2800,-13.50758108
23.2850,-13.53349454
23.2900,-13.55991586
23.2950,-13.58667654
23.3000,-13.61385394
23.3050,-13.64149425
23.3100,-13.66939651
23.3150,-13.69747727
23.3200,-13.72561919
23.3250,-13.75380103
23.3300,-13.78198004
23.3350,-13.81036193
23.3400,-13.83908226
23.3450,-13.86844713
23.3500,-13.8988024
23.3550,-13.93019449
23.3600,-13.96283269
23.3650,-13.99657718
23.3700,-14.03130652
23.3750,-14.06688556
23.3800,-14.10311449
23.3850,-14.13982744
23.3900,-14.17668361
23.3950,-14.21330606
23.4000,-14.24977834
23.4050,-14.28572009
23.4100,-14.32103568
23.4150,-14.35582154
23.4200,-14.39016878
23.4250,-14.42413649
23.4300,-14.45764029
23.4350,-14.49046772
23.4400,-14.52239365
23.4450,-14.55342826
23.4500,-14.58322376
23.4550,-14.61153237
23.4600,-14.63826331
23.4650,-14.66330033
23.4700,-14.6867441
23.4750,-14.70864291
23.4800,-14.72904037
23.4850,-14.74786266
23.4900,-14.7651168
23.4950,-14.78073404
23.5000,-14.79474569
23.5050,-14.80730493
23.5100,-14.81833488
23.5150,-14.82799414
23.5200,-14.83627801
23.5250,-14.84320554
23.5300,-14.84866019
23.5350,-14.85267714
23.5400,-14.85502794
23.5450,-14.8556102
23.5500,-14.85411301
23.5550,-14.85034678
23.5600,-14.84446862
23.5650,-14.83658505
23.5700,-14.82684811
23.5750,-14.815352
23.5800,-14.80235514
23.5850,-14.78774025
23.5900,-14.77139713
23.5950,-14.75328448
23.6000,-14.7333725
23.6050,-14.71153998
23.6100,-14.68782633
23.6150,-14.66222697
23.6200,-14.63470958
23.6250,-14.60517101
23.6300,-14.57361199
23.6350,-14.53968748
23.6400,-14.5033499
23.6450,-14.46437215
23.6500,-14.42242152
23.6550,-14.37746733
23.6600,-14.32938634
23.6650,-14.27821014
23.6700,-14.22431986
23.6750,-14.1680279
23.6800,-14.10985433
23.6850,-14.05036739
23.6900,-13.99030304
23.6950,-13.93044452
23.7000,-13.87134291
23.7050,-13.81376152
23.7100,-13.75827374
23.7150,-13.7053583
23.7200,-13.65552914
23.7250,-13.60915742
23.7300,-13.56662965
23.7350,-13.52840672
23.7400,-13.49477472
23.7450,-13.46575223
23.7500,-13.44160945
23.7550,-13.42217202
23.7600,-13.4072803
23.7650,-13.39682278
23.7700,-13.39064362
23.7750,-13.38833295
23.7800,-13.38961841
23.7850,-13.39415119
23.7900,-13.40138852
23.7950,-13.41088382
23.8000,-13.42223444
23.8050,-13.43478675
23.8100,-13.44797755
23.8150,-13.46157493
23.8200,-13.47507977
23.8250,-13.48852709
23.8300,-13.50186295
23.8350,-13.51502763
23.8400,-13.5282073
23.8450,-13.54154858
23.8500,-13.55504386
23.8550,-13.56897548
23.8600,-13.58304628
23.8650,-13.59698062
23.8700,-13.61043368
23.8750,-13.62299907
23.8800,-13.63411462
23.8850,-13.64329739
23.8900,-13.65024142
23.8950,-13.6544637
23.9000,-13.65589301
23.9050,-13.65418733
23.9100,-13.64910038
23.9150,-13.64047913
23.9200,-13.6282015
23.9250,-13.61216505
23.9300,-13.59219824
23.9350,-13.56854297
23.9400,-13.54114913
23.9450,-13.51028946
23.9500,-13.4763013
23.9550,-13.43937819
23.9600,-13.39976215
23.9650,-13.35776557
23.9700,-13.31333832
23.9750,-13.26680789
23.9800,-13.21855714
23.9850,-13.16887039
23.9900,-13.11798857
23.9950,-13.06615363
24.0000,-13.01355571
24.0050,-12.96039646
24.0100,-12.9068829
24.0150,-12.85317292
24.0200,-12.79913479
24.0250,-12.74472851
24.0300,-12.6897628
24.0350,-12.63402663
24.0400,-12.57743656
24.0450,-12.51997484
24.0500,-12.46161806
24.0550,-12.40247527
24.0600,-12.34291076
24.0650,-12.28298225
24.0700,-12.22263574
24.0750,-12.16208967
24.0800,-12.10143388
24.0850,-12.04070555
24.0900,-11.98006908
24.0950,-11.91944307
24.1000,-11.85888512
24.1050,-11.79853568
24.1100,-11.73847109
24.1150,-11.67869789
24.1200,-11.61951503
24.1250,-11.56096294
24.1300,-11.50315176
24.1350,-11.44604813
24.1400,-11.38974876
24.1450,-11.33409606
24.1500,-11.27915756
24.1550,-11.22486731
24.1600,-11.17119306
24.1650,-11.11808781
24.1700,-11.06555969
24.1750,-11.01372476
24.1800,-10.96269589
24.1850,-10.91259584
24.1900,-10.86351253
24.1950,-10.81565155
24.2000,-10.76869197
24.2050,-10.72282823
24.2100,-10.67798827
24.2150,-10.63406808
24.2200,-10.5911171
24.2250,-10.54913956
24.2300,-10.50825082
24.2350,-10.46841257
24.2400,-10.42954513
24.2450,-10.39142293
24.2500,-10.35392746
24.2550,-10.31703278
24.2600,-10.28063849
24.2650,-10.24475365
24.2700,-10.20942271
24.2750,-10.17479862
24.2800,-10.14078421
24.2850,-10.10733038
24.2900,-10.07435843
24.2950,-10.04190119
24.3000,-10.01000965
24.3050,-9.978538475
24.3100,-9.94758007
24.3150,-9.916952709
24.3200,-9.886688053
24.3250,-9.856749512
24.3300,-9.827316594
24.3350,-9.798390026
24.3400,-9.769784593
24.3450,-9.741659266
24.3500,-9.713706391
24.3550,-9.68581394
24.3600,-9.657725187
24.3650,-9.629353445
24.3700,-9.600576163
24.3750,-9.571099027
24.3800,-9.54068288
24.3850,-9.509248623
24.3900,-9.476605761
24.3950,-9.443116577
24.4000,-9.408673217
24.4050,-9.373435679
24.4100,-9.337439581
24.4150,-9.300683067
24.4200,-9.263239476
24.4250,-9.225148674
24.4300,-9.186364582
24.4350,-9.147110964
24.4400,-9.107232221
24.4450,-9.066994411
24.4500,-9.026425463
24.4550,-8.985481445
24.4600,-8.94424679
24.4650,-8.90295323
24.4700,-8.861512645
24.4750,-8.819895995
24.4800,-8.778152186
24.4850,-8.736217882
24.4900,-8.694175972
24.4950,-8.651938365
24.5000,-8.609649804
24.5050,-8.567269705
24.5100,-8.5249873
24.5150,-8.482669328
24.5200,-8.440237731
24.5250,-8.397729528
24.5300,-8.355201776
24.5350,-8.312594108
24.5400,-8.269842309
24.5450,-8.227010661
24.5500,-8.184117176
24.5550,-8.141020019
24.5600,-8.097784841
24.5650,-8.054335834
24.5700,-8.010723859
24.5750,-7.966808873
24.5800,-7.92264894
24.5850,-7.878315468
24.5900,-7.83398475
24.5950,-7.789702906
24.6000,-7.745459652
24.6050,-7.701442865
24.6100,-7.657655709
24.6150,-7.6142415
24.6200,-7.571324765
24.6250,-7.528877248
24.6300,-7.486840573
24.6350,-7.445043138
24.6400,-7.403773888
24.6450,-7.362593206
24.6500,-7.321634234
24.6550,-7.280902231
24.6600,-7.24031636
24.6650,-7.199740996
24.6700,-7.159269281
24.6750,-7.119035945
24.6800,-7.079012571
24.6850,-7.039138946
24.6900,-6.999524496
24.6950,-6.959922068
24.7000,-6.920369149
24.7050,-6.880849385
24.7100,-6.841465211
24.7150,-6.802477095
24.7200,-6.763821628
24.7250,-6.725710728
24.7300,-6.688515208
24.7350,-6.652199577
24.7400,-6.617017272
24.7450,-6.583046671
24.7500,-6.550414984
24.7550,-6.519281373
24.7600,-6.489699308
24.7650,-6.46146397
24.7700,-6.434802399
24.7750,-6.409656952
24.7800,-6.38597534
24.7850,-6.363788479
24.7900,-6.34292626
24.7950,-6.323460243
24.8000,-6.305472041
24.8050,-6.2889254
24.8100,-6.273604301
24.8150,-6.259623645
24.8200,-6.247017397
24.8250,-6.235694791
24.8300,-6.225653801
24.8350,-6.216903288
24.8400,-6.209469681
24.8450,-6.203227219
24.8500,-6.198357001
24.8550,-6.194768037
24.8600,-6.192464238
24.8650,-6.191427868
24.8700,-6.191547713
24.8750,-6.192951483
24.8800,-6.195577203
24.8850,-6.199284595
24.8900,-6.203937923
24.8950,-6.211291654
24.9000,-6.218475436
24.9050,-6.225448842
24.9100,-6.232186519
24.9150,-6.23867974
24.9200,-6.244936162
24.9250,-6.250978398
24.9300,-6.256841576
24.9350,-6.262569421
24.9400,-6.268208836
24.9450,-6.273803848
24.9500,-6.27939047
24.9550,-6.284993457
24.9600,-6.290624413
24.9650,-6.296280217
24.9700,-6.30194135
24.9750,-6.307570558
24.9800,-6.313113047
24.9850,-6.318498991
24.9900,-6.323647634
24.9950,-6.328471966
25.0000,-6.332884467
25.0050,-6.336804152
25.0100,-6.340163392
25.0150,-6.342913777
25.0200,-6.345031824
25.0250,-6.346525607
25.0300,-6.347443284
25.0350,-6.347883397
