type,name,time_units,begin_time,frequency,count,units
signal,"Noraxon Ultium-RT BRACHIORAD.","s",0.00000,2000,50080,"uV"

time,value
0.00000,2.149325134
0.00050,2.149325134
0.00100,0.3181586879
0.00150,-2.733785389
0.00200,-7.006507097
0.00250,-11.2792288
0.00300,-14.02597847
0.00350,-14.02597847
0.00400,-11.88961762
0.00450,-10.05845117
0.00500,-10.36364558
0.00550,-11.88961762
0.00600,-11.58442321
0.00650,-8.532479135
0.00700,-5.175340651
0.00750,-10.05845117
0.00800,-27.45453241
0.00850,-49.42852977
0.00900,-59.49994522
0.00950,-54.31164029
0.01000,-46.37658569
0.01050,-47.59736332
0.01100,-54.00644588
0.01150,-54.00644588
0.01200,-46.37658569
0.01250,-36.91555905
0.01300,-25.31817156
0.01350,-6.396118282
0.01400,16.18826789
0.01450,33.88954354
0.01500,45.18173662
0.01550,57.69470734
0.01600,72.95442772
0.01650,80.88948232
0.01700,76.61676061
0.01750,67.46092838
0.01800,61.96742904
0.01850,58.91548497
0.01900,52.81159681
0.01950,43.96095899
0.02000,35.72070998
0.02050,27.78565538
0.02100,18.93501756
0.02150,13.13632381
0.02200,12.525935
0.02250,14.66229585
0.02300,13.13632381
0.02350,8.558407696
0.02400,4.896074803
0.02450,3.675297173
0.02500,3.370102765
0.02550,3.370102765
0.02600,5.201269211
0.02650,8.253213288
0.02700,10.69476855
0.02750,10.69476855
0.02800,9.168796511
0.02850,7.337630065
0.02900,5.201269211
0.02950,3.064908357
0.03000,1.844130726
0.03050,1.233741911
0.03100,0.3181586879
0.03150,-0.5974245352
0.03200,-0.2922301275
0.03250,1.233741911
0.03300,2.149325134
0.03350,0.9285475033
0.03400,-1.207813351
0.03450,-2.123396574
0.03500,-1.513007758
0.03550,-1.818202166
0.03600,-4.564951835
0.03650,-7.92209032
0.03700,-9.142867951
0.03750,-8.227284728
0.03800,-6.396118282
0.03850,-4.564951835
0.03900,-2.428590981
0.03950,0.3181586879
0.04000,2.75971395
0.04050,2.75971395
0.04100,1.233741911
0.04150,-1.513007758
0.04200,-5.785729466
0.04250,-11.58442321
0.04300,-16.46753374
0.04350,-20.12986663
0.04400,-22.57142189
0.04450,-25.01297715
0.04500,-26.23375478
0.04550,-23.79219952
0.04600,-18.60389459
0.04650,-14.02597847
0.04700,-11.58442321
0.04750,-9.753256766
0.04800,-8.532479135
0.04850,-9.448062359
0.04900,-12.50000644
0.04950,-14.63636729
0.05000,-12.19481203
0.05050,-7.311701505
0.05100,-4.564951835
0.05150,-4.870146243
0.05200,-3.344174205
0.05250,3.064908357
0.05300,12.525935
0.05350,19.85060078
0.05400,23.81812808
0.05450,26.87007216
0.05500,29.31162742
0.05550,29.31162742
0.05600,24.4285169
0.05650,15.88307348
0.05700,7.032435657
0.05750,0.3181586879
0.05800,-3.95456302
0.05850,-5.480535058
0.05900,-3.038979797
0.05950,1.233741911
0.06000,4.285685988
0.06050,2.75971395
0.06100,0.01296428019
0.06150,0.01296428019
0.06200,4.896074803
0.06250,10.99996296
0.06300,13.74671263
0.06350,13.13632381
0.06400,11.61035177
0.06450,9.779185327
0.06500,7.94801888
0.06550,7.337630065
0.06600,7.94801888
0.06650,7.642824473
0.06700,4.285685988
0.06750,-1.207813351
0.06800,-5.785729466
0.06850,-8.532479135
0.06900,-10.36364558
0.06950,-12.19481203
0.07000,-13.41558966
0.07050,-13.11039525
0.07100,-12.19481203
0.07150,-10.9740344
0.07200,-8.532479135
0.07250,-4.259757428
0.07300,0.3181586879
0.07350,2.75971395
0.07400,2.149325134
0.07450,-0.9026189429
0.07500,-4.564951835
0.07550,-6.701312689
0.07600,-7.006507097
0.07650,-8.837673543
0.07700,-13.41558966
0.07750,-18.60389459
0.07800,-21.04544985
0.07850,-19.82467222
0.07900,-16.77272814
0.07950,-12.50000644
0.08000,-6.396118282
0.08050,0.3181586879
0.08100,4.590880396
0.08150,5.201269211
0.08200,4.285685988
0.08250,5.201269211
0.08300,8.253213288
0.08350,10.99996296
0.08400,11.61035177
0.08450,9.779185327
0.08500,6.116852434
0.08550,0.3181586879
0.08600,-8.227284728
0.08650,-19.51947781
0.08700,-31.11686531
0.08750,-40.57789194
0.08800,-46.07139128
0.08850,-46.6817801
0.08900,-43.32464161
0.08950,-36.30517024
0.09000,-25.92856037
0.09050,-14.33117288
0.09100,-4.870146243
0.09150,-0.9026189429
0.09200,-0.9026189429
0.09250,0.3181586879
0.09300,6.72724125
0.09350,17.71423993
0.09400,29.61682183
0.09450,38.46745965
0.09500,40.90901491
0.09550,35.41551557
0.09600,23.51293367
0.09650,10.99996296
0.09700,3.370102765
0.09750,2.454519542
0.09800,4.285685988
0.09850,6.72724125
0.09900,8.863602104
0.09950,8.863602104
0.10000,5.506463619
0.10050,0.01296428019
0.10100,-4.870146243
0.10150,-7.006507097
0.10200,-8.837673543
0.10250,-12.50000644
0.10300,-15.2467561
0.10350,-14.33117288
0.10400,-12.50000644
0.10450,-12.50000644
0.10500,-12.50000644
0.10550,-8.227284728
0.10600,-0.2922301275
0.10650,6.72724125
0.10700,10.08437973
0.10750,8.558407696
0.10800,3.064908357
0.10850,-4.259757428
0.10900,-10.36364558
0.10950,-12.80520084
0.11000,-14.33117288
0.11050,-18.29870018
0.11100,-24.70778274
0.11150,-29.28569886
0.11200,-30.20128208
0.11250,-28.37011564
0.11300,-25.01297715
0.11350,-20.43506104
0.11400,-14.33117288
0.11450,-6.701312689
0.11500,2.149325134
0.11550,11.30515737
0.11600,17.10385111
0.11650,18.32462874
0.11700,17.71423993
0.11750,18.93501756
0.11800,21.37657282
0.11850,22.90254486
0.11900,22.59735045
0.11950,21.37657282
0.12000,20.4609896
0.12050,18.93501756
0.12100,16.18826789
0.12150,12.525935
0.12200,8.558407696
0.12250,6.422046842
0.12300,7.032435657
0.12350,10.08437973
0.12400,12.8311294
0.12450,12.22074059
0.12500,8.863602104
0.12550,5.201269211
0.12600,4.285685988
0.12650,4.896074803
0.12700,3.064908357
0.12750,-3.649368612
0.12800,-14.33117288
0.12850,-23.48700511
0.12900,-26.53894919
0.12950,-24.70778274
0.13000,-20.43506104
0.13050,-15.2467561
0.13100,-10.66883999
0.13150,-7.92209032
0.13200,-7.311701505
0.13250,-5.175340651
0.13300,0.01296428019
0.13350,7.337630065
0.13400,14.05190703
0.13450,20.4609896
0.13500,28.09084979
0.13550,34.49993235
0.13600,34.49993235
0.13650,27.17526657
0.13700,17.71423993
0.13750,11.61035177
0.13800,9.473990919
0.13850,9.473990919
0.13900,8.863602104
0.13950,6.422046842
0.14000,1.844130726
0.14050,-0.9026189429
0.14100,-0.2922301275
0.14150,2.454519542
0.14200,2.454519542
0.14250,-1.207813351
0.14300,-3.649368612
0.14350,-1.818202166
0.14400,1.538936319
0.14450,3.064908357
0.14500,3.675297173
0.14550,4.896074803
0.14600,7.032435657
0.14650,9.168796511
0.14700,12.8311294
0.14750,17.71423993
0.14800,19.54540637
0.14850,12.525935
0.14900,-0.2922301275
0.14950,-12.19481203
0.15000,-18.909089
0.15050,-22.26622748
0.15100,-25.01297715
0.15150,-26.23375478
0.15200,-24.40258834
0.15250,-18.29870018
0.15300,-10.66883999
0.15350,-4.259757428
0.15400,-0.9026189429
0.15450,1.538936319
0.15500,6.72724125
0.15550,14.66229585
0.15600,21.37657282
0.15650,24.12332249
0.15700,24.12332249
0.15750,22.59735045
0.15800,18.01943433
0.15850,11.91554618
0.15900,7.642824473
0.15950,5.811658027
0.16000,1.844130726
0.16050,-6.701312689
0.16100,-16.16233933
0.16150,-18.60389459
0.16200,-14.63636729
0.16250,-8.837673543
0.16300,-3.344174205
0.16350,0.6233530956
0.16400,3.064908357
0.16450,2.454519542
0.16500,2.149325134
0.16550,5.201269211
0.16600,9.473990919
0.16650,9.779185327
0.16700,6.72724125
0.16750,4.285685988
0.16800,3.064908357
0.16850,2.454519542
0.16900,2.149325134
0.16950,3.370102765
0.17000,2.454519542
0.17050,-3.038979797
0.17100,-11.58442321
0.17150,-17.99350577
0.17200,-20.12986663
0.17250,-21.04544985
0.17300,-20.43506104
0.17350,-15.2467561
0.17400,-6.701312689
0.17450,-1.207813351
0.17500,-2.123396574
0.17550,-4.564951835
0.17600,-0.2922301275
0.17650,9.473990919
0.17700,17.40904552
0.17750,16.18826789
0.17800,6.72724125
0.17850,-2.733785389
0.17900,-6.701312689
0.17950,-5.785729466
0.18000,-5.785729466
0.18050,-10.05845117
0.18100,-16.77272814
0.18150,-23.18181071
0.18200,-28.06492123
0.18250,-31.11686531
0.18300,-32.33764294
0.18350,-31.11686531
0.18400,-26.8441436
0.18450,-21.04544985
0.18500,-14.9415617
0.18550,-11.2792288
0.18600,-10.66883999
0.18650,-8.227284728
0.18700,-0.9026189429
0.18750,8.253213288
0.18800,12.22074059
0.18850,8.558407696
0.18900,2.454519542
0.18950,0.9285475033
0.19000,3.675297173
0.19050,7.94801888
0.19100,13.13632381
0.19150,20.4609896
0.19200,27.48046097
0.19250,28.09084979
0.19300,18.93501756
0.19350,5.201269211
0.19400,-4.870146243
0.19450,-7.616895912
0.19500,-4.870146243
0.19550,-3.344174205
0.19600,-7.006507097
0.19650,-14.33117288
0.19700,-20.43506104
0.19750,-22.26622748
0.19800,-20.12986663
0.19850,-14.9415617
0.19900,-7.006507097
0.19950,3.370102765
0.20000,15.57787907
0.20050,26.56487775
0.20100,32.97396031
0.20150,33.58434913
0.20200,30.53240505
0.20250,29.31162742
0.20300,33.58434913
0.20350,40.6038205
0.20400,43.96095899
0.20450,39.99343169
0.20500,32.05837709
0.20550,25.03890571
0.20600,19.85060078
0.20650,14.96749026
0.20700,10.08437973
0.20750,6.422046842
0.20800,5.201269211
0.20850,5.506463619
0.20900,4.285685988
0.20950,0.01296428019
0.21000,-6.396118282
0.21050,-11.58442321
0.21100,-12.19481203
0.21150,-8.837673543
0.21200,-5.175340651
0.21250,-3.95456302
0.21300,-4.259757428
0.21350,-3.038979797
0.21400,0.01296428019
0.21450,1.844130726
0.21500,1.538936319
0.21550,1.233741911
0.21600,3.370102765
0.21650,6.72724125
0.21700,8.863602104
0.21750,8.863602104
0.21800,7.94801888
0.21850,4.285685988
0.21900,-1.818202166
0.21950,-7.616895912
0.22000,-7.311701505
0.22050,0.01296428019
0.22100,10.69476855
0.22150,19.24021197
0.22200,22.59735045
0.22250,20.766184
0.22300,15.27268467
0.22350,9.168796511
0.22400,3.675297173
0.22450,-2.733785389
0.22500,-10.05845117
0.22550,-12.80520084
0.22600,-8.532479135
0.22650,-1.513007758
0.22700,0.3181586879
0.22750,-3.95456302
0.22800,-7.311701505
0.22850,-5.175340651
0.22900,0.9285475033
0.22950,7.94801888
0.23000,13.44151822
0.23050,16.7986567
0.23100,17.10385111
0.23150,14.05190703
0.23200,7.94801888
0.23250,0.3181586879
0.23300,-5.785729466
0.23350,-8.837673543
0.23400,-8.532479135
0.23450,-6.396118282
0.23500,-5.785729466
0.23550,-6.701312689
0.23600,-8.532479135
0.23650,-9.753256766
0.23700,-7.616895912
0.23750,-1.513007758
0.23800,6.116852434
0.23850,10.38957414
0.23900,8.253213288
0.23950,3.675297173
0.24000,0.01296428019
0.24050,-4.564951835
0.24100,-11.58442321
0.24150,-18.29870018
0.24200,-21.35064426
0.24250,-21.65583867
0.24300,-23.48700511
0.24350,-26.23375478
0.24400,-25.92856037
0.24450,-20.74025544
0.24500,-13.41558966
0.24550,-7.92209032
0.24600,-6.090923874
0.24650,-5.480535058
0.24700,-2.733785389
0.24750,3.98049158
0.24800,12.8311294
0.24850,18.01943433
0.24900,15.88307348
0.24950,10.99996296
0.25000,9.168796511
0.25050,11.30515737
0.25100,13.13632381
0.25150,10.08437973
0.25200,3.064908357
0.25250,-3.95456302
0.25300,-8.227284728
0.25350,-9.753256766
0.25400,-13.11039525
0.25450,-21.65583867
0.25500,-35.08439261
0.25550,-46.37658569
0.25600,-47.29216891
0.25650,-38.44153109
0.25700,-26.53894919
0.25750,-17.38311696
0.25800,-10.66883999
0.25850,-2.123396574
0.25900,6.72724125
0.25950,12.8311294
0.26000,15.88307348
0.26050,20.15579519
0.26100,28.3960442
0.26150,37.24668202
0.26200,42.12979254
0.26250,40.90901491
0.26300,35.11032117
0.26350,26.25968334
0.26400,17.10385111
0.26450,11.91554618
0.26500,11.30515737
0.26550,11.30515737
0.26600,9.473990919
0.26650,7.337630065
0.26700,7.337630065
0.26750,7.94801888
0.26800,6.422046842
0.26850,3.675297173
0.26900,2.454519542
0.26950,2.454519542
0.27000,2.149325134
0.27050,0.6233530956
0.27100,-2.123396574
0.27150,-7.311701505
0.27200,-12.80520084
0.27250,-13.72078407
0.27300,-8.532479135
0.27350,-3.649368612
0.27400,-5.480535058
0.27450,-10.9740344
0.27500,-13.11039525
0.27550,-9.448062359
0.27600,-5.785729466
0.27650,-5.785729466
0.27700,-7.616895912
0.27750,-9.448062359
0.27800,-12.19481203
0.27850,-17.07792255
0.27900,-22.26622748
0.27950,-25.62336597
0.28000,-27.75972682
0.28050,-31.11686531
0.28100,-34.7791982
0.28150,-34.7791982
0.28200,-29.89608767
0.28250,-23.18181071
0.28300,-17.07792255
0.28350,-11.58442321
0.28400,-4.870146243
0.28450,3.675297173
0.28500,13.74671263
0.28550,24.12332249
0.28600,32.97396031
0.28650,35.72070998
0.28700,30.53240505
0.28750,21.98696163
0.28800,18.01943433
0.28850,21.07137841
0.28900,24.4285169
0.28950,22.59735045
0.29000,16.7986567
0.29050,12.525935
0.29100,10.38957414
0.29150,7.94801888
0.29200,4.590880396
0.29250,1.844130726
0.29300,-0.5974245352
0.29350,-4.564951835
0.29400,-9.448062359
0.29450,-11.88961762
0.29500,-10.9740344
0.29550,-8.532479135
0.29600,-4.870146243
0.29650,-0.2922301275
0.29700,3.370102765
0.29750,4.896074803
0.29800,7.032435657
0.29850,11.91554618
0.29900,18.01943433
0.29950,20.15579519
0.30000,16.4934623
0.30050,11.30515737
0.30100,6.422046842
0.30150,0.01296428019
0.30200,-9.448062359
0.30250,-17.68831137
0.30300,-21.35064426
0.30350,-21.96103307
0.30400,-23.48700511
0.30450,-26.53894919
0.30500,-29.28569886
0.30550,-29.89608767
0.30600,-28.67531004
0.30650,-25.92856037
0.30700,-21.65583867
0.30750,-16.46753374
0.30800,-9.753256766
0.30850,-3.038979797
0.30900,2.454519542
0.30950,3.370102765
0.31000,0.01296428019
0.31050,-4.259757428
0.31100,-3.95456302
0.31150,0.9285475033
0.31200,7.032435657
0.31250,9.779185327
0.31300,9.168796511
0.31350,8.863602104
0.31400,10.99996296
0.31450,14.66229585
0.31500,16.7986567
0.31550,15.27268467
0.31600,11.30515737
0.31650,7.94801888
0.31700,6.422046842
0.31750,6.422046842
0.31800,5.201269211
0.31850,2.149325134
0.31900,-0.9026189429
0.31950,-3.038979797
0.32000,-3.649368612
0.32050,-3.649368612
0.32100,-4.259757428
0.32150,-4.564951835
0.32200,-3.95456302
0.32250,-3.649368612
0.32300,-4.259757428
0.32350,-6.396118282
0.32400,-9.142867951
0.32450,-12.19481203
0.32500,-14.33117288
0.32550,-14.63636729
0.32600,-13.11039525
0.32650,-12.50000644
0.32700,-16.46753374
0.32750,-24.70778274
0.32800,-31.72725412
0.32850,-33.25322616
0.32900,-31.11686531
0.32950,-29.89608767
0.33000,-30.50647649
0.33050,-28.98050445
0.33100,-23.79219952
0.33150,-18.60389459
0.33200,-17.68831137
0.33250,-17.99350577
0.33300,-13.72078407
0.33350,-4.564951835
0.33400,3.675297173
0.33450,7.94801888
0.33500,10.69476855
0.33550,13.13632381
0.33600,13.74671263
0.33650,11.30515737
0.33700,9.168796511
0.33750,10.38957414
0.33800,14.05190703
0.33850,16.18826789
0.33900,16.18826789
0.33950,15.57787907
0.34000,15.27268467
0.34050,14.35710144
0.34100,13.74671263
0.34150,12.8311294
0.34200,9.168796511
0.34250,0.9285475033
0.34300,-10.36364558
0.34350,-18.60389459
0.34400,-20.12986663
0.34450,-17.38311696
0.34500,-16.46753374
0.34550,-20.74025544
0.34600,-27.75972682
0.34650,-34.47400379
0.34700,-39.96750313
0.34750,-43.93503043
0.34800,-43.62983602
0.34850,-35.69478142
0.34900,-20.43506104
0.34950,-2.733785389
0.35000,10.08437973
0.35050,14.96749026
0.35100,13.44151822
0.35150,10.99996296
0.35200,13.74671263
0.35250,23.51293367
0.35300,35.11032117
0.35350,41.21420932
0.35400,38.46745965
0.35450,29.00643301
0.35500,17.71423993
0.35550,10.38957414
0.35600,11.30515737
0.35650,20.4609896
0.35700,32.05837709
0.35750,38.16226524
0.35800,36.6362932
0.35850,31.75318268
0.35900,25.03890571
0.35950,16.7986567
0.36000,9.473990919
0.36050,6.72724125
0.36100,8.253213288
0.36150,10.08437973
0.36200,10.38957414
0.36250,12.8311294
0.36300,18.32462874
0.36350,20.4609896
0.36400,15.88307348
0.36450,7.94801888
0.36500,0.6233530956
0.36550,-7.006507097
0.36600,-17.07792255
0.36650,-25.62336597
0.36700,-27.75972682
0.36750,-25.92856037
0.36800,-26.23375478
0.36850,-28.67531004
0.36900,-28.67531004
0.36950,-22.8766163
0.37000,-12.50000644
0.37050,1.844130726
0.37100,18.32462874
0.37150,29.92201623
0.37200,32.3635715
0.37250,26.25968334
0.37300,18.62982315
0.37350,13.74671263
0.37400,10.69476855
0.37450,7.337630065
0.37500,4.896074803
0.37550,5.201269211
0.37600,8.558407696
0.37650,11.91554618
0.37700,12.8311294
0.37750,9.779185327
0.37800,5.201269211
0.37850,2.75971395
0.37900,3.370102765
0.37950,4.590880396
0.38000,3.064908357
0.38050,0.3181586879
0.38100,0.3181586879
0.38150,2.149325134
0.38200,3.064908357
0.38250,0.6233530956
0.38300,-2.428590981
0.38350,-3.038979797
0.38400,-0.5974245352
0.38450,1.233741911
0.38500,1.233741911
0.38550,-0.5974245352
0.38600,-3.649368612
0.38650,-7.92209032
0.38700,-13.41558966
0.38750,-18.29870018
0.38800,-20.43506104
0.38850,-20.12986663
0.38900,-19.82467222
0.38950,-19.21428341
0.39000,-16.16233933
0.39050,-12.50000644
0.39100,-11.2792288
0.39150,-12.50000644
0.39200,-11.88961762
0.39250,-7.311701505
0.39300,-3.038979797
0.39350,-2.733785389
0.39400,-5.175340651
0.39450,-7.616895912
0.39500,-11.2792288
0.39550,-17.07792255
0.39600,-21.65583867
0.39650,-21.65583867
0.39700,-19.51947781
0.39750,-17.38311696
0.39800,-13.41558966
0.39850,-5.175340651
0.39900,1.538936319
0.39950,0.6233530956
0.40000,-7.006507097
0.40050,-13.41558966
0.40100,-13.11039525
0.40150,-10.36364558
0.40200,-9.448062359
0.40250,-10.36364558
0.40300,-11.88961762
0.40350,-14.02597847
0.40400,-14.9415617
0.40450,-9.753256766
0.40500,3.675297173
0.40550,24.4285169
0.40600,47.01290307
0.40650,66.54534516
0.40700,77.22714943
0.40750,74.17520535
0.40800,60.1362626
0.40850,44.5713478
0.40900,33.58434913
0.40950,25.34410012
0.41000,15.57787907
0.41050,6.422046842
0.41100,1.538936319
0.41150,0.3181586879
0.41200,-1.207813351
0.41250,-3.95456302
0.41300,-4.870146243
0.41350,-5.480535058
0.41400,-9.142867951
0.41450,-15.2467561
0.41500,-17.99350577
0.41550,-13.72078407
0.41600,-7.616895912
0.41650,-4.870146243
0.41700,-3.649368612
0.41750,1.844130726
0.41800,12.525935
0.41850,21.68176723
0.41900,22.59735045
0.41950,18.62982315
0.42000,17.40904552
0.42050,21.07137841
0.42100,25.03890571
0.42150,23.20773927
0.42200,17.71423993
0.42250,13.74671263
0.42300,13.13632381
0.42350,10.38957414
0.42400,3.98049158
0.42450,-1.207813351
0.42500,0.9285475033
0.42550,8.863602104
0.42600,12.22074059
0.42650,3.98049158
0.42700,-11.58442321
0.42750,-24.09739393
0.42800,-27.14933801
0.42850,-25.31817156
0.42900,-25.62336597
0.42950,-29.59089327
0.43000,-31.11686531
0.43050,-25.01297715
0.43100,-12.50000644
0.43150,-1.513007758
0.43200,2.75971395
0.43250,3.98049158
0.43300,8.863602104
0.43350,20.4609896
0.43400,31.75318268
0.43450,35.72070998
0.43500,29.92201623
0.43550,19.54540637
0.43600,10.69476855
0.43650,6.116852434
0.43700,5.201269211
0.43750,7.032435657
0.43800,8.863602104
0.43850,10.08437973
0.43900,9.779185327
0.43950,9.168796511
0.44000,8.863602104
0.44050,8.863602104
0.44100,8.558407696
0.44150,6.72724125
0.44200,2.75971395
0.44250,-1.513007758
0.44300,-3.95456302
0.44350,-4.259757428
0.44400,-3.038979797
0.44450,-3.038979797
0.44500,-3.038979797
0.44550,-2.428590981
0.44600,-0.2922301275
0.44650,0.9285475033
0.44700,-0.2922301275
0.44750,-4.870146243
0.44800,-10.66883999
0.44850,-14.33117288
0.44900,-14.9415617
0.44950,-13.41558966
0.45000,-11.2792288
0.45050,-9.142867951
0.45100,-8.837673543
0.45150,-12.19481203
0.45200,-15.85714492
0.45250,-16.16233933
0.45300,-11.88961762
0.45350,-7.006507097
0.45400,-3.649368612
0.45450,0.01296428019
0.45500,2.75971395
0.45550,-0.9026189429
0.45600,-17.07792255
0.45650,-37.52594787
0.45700,-48.20775214
0.45750,-42.40905839
0.45800,-28.67531004
0.45850,-19.21428341
0.45900,-16.46753374
0.45950,-14.9415617
0.46000,-10.05845117
0.46050,-3.649368612
0.46100,1.233741911
0.46150,8.253213288
0.46200,23.51293367
0.46250,45.48693103
0.46300,63.18820667
0.46350,66.54534516
0.46400,57.38951293
0.46450,43.96095899
0.46500,31.75318268
0.46550,18.01943433
0.46600,1.844130726
0.46650,-10.66883999
0.46700,-14.63636729
0.46750,-10.9740344
0.46800,-4.259757428
0.46850,0.3181586879
0.46900,1.538936319
0.46950,0.3181586879
0.47000,1.844130726
0.47050,10.99996296
0.47100,25.03890571
0.47150,35.11032117
0.47200,37.55187643
0.47250,35.41551557
0.47300,32.05837709
0.47350,25.95448893
0.47400,17.40904552
0.47450,10.38957414
0.47500,7.032435657
0.47550,4.285685988
0.47600,-0.2922301275
0.47650,-4.870146243
0.47700,-6.701312689
0.47750,-7.92209032
0.47800,-10.9740344
0.47850,-12.19481203
0.47900,-7.92209032
0.47950,-1.207813351
0.48000,2.454519542
0.48050,3.370102765
0.48100,5.811658027
0.48150,10.08437973
0.48200,14.05190703
0.48250,17.10385111
0.48300,19.54540637
0.48350,17.71423993
0.48400,7.032435657
0.48450,-9.142867951
0.48500,-22.26622748
0.48550,-26.53894919
0.48600,-26.8441436
0.48650,-29.59089327
0.48700,-32.94803175
0.48750,-29.89608767
0.48800,-20.43506104
0.48850,-11.88961762
0.48900,-9.753256766
0.48950,-11.2792288
0.49000,-8.532479135
0.49050,1.233741911
0.49100,16.18826789
0.49150,30.53240505
0.49200,37.85707084
0.49250,35.72070998
0.49300,26.25968334
0.49350,16.4934623
0.49400,10.38957414
0.49450,7.642824473
0.49500,5.201269211
0.49550,2.149325134
0.49600,0.6233530956
0.49650,0.9285475033
0.49700,2.149325134
0.49750,2.75971395
0.49800,2.149325134
0.49850,1.538936319
0.49900,0.9285475033
0.49950,0.01296428019
0.50000,-1.207813351
0.50050,-1.207813351
0.50100,-0.2922301275
0.50150,0.01296428019
0.50200,-0.9026189429
0.50250,-2.733785389
0.50300,-3.95456302
0.50350,-5.175340651
0.50400,-7.92209032
0.50450,-11.2792288
0.50500,-13.72078407
0.50550,-13.72078407
0.50600,-12.80520084
0.50650,-12.80520084
0.50700,-14.02597847
0.50750,-15.2467561
0.50800,-15.85714492
0.50850,-15.55195051
0.50900,-14.63636729
0.50950,-13.11039525
0.51000,-12.19481203
0.51050,-13.11039525
0.51100,-16.77272814
0.51150,-24.09739393
0.51200,-31.42205971
0.51250,-34.47400379
0.51300,-33.86361497
0.51350,-36.30517024
0.51400,-43.93503043
0.51450,-50.34411299
0.51500,-48.81814095
0.51550,-43.32464161
0.51600,-43.32464161
0.51650,-50.34411299
0.51700,-54.6168347
0.51750,-48.51294654
0.51800,-35.69478142
0.51850,-23.18181071
0.51900,-12.80520084
0.51950,-3.038979797
0.52000,3.675297173
0.52050,7.337630065
0.52100,9.779185327
0.52150,14.96749026
0.52200,23.20773927
0.52250,32.05837709
0.52300,41.82459814
0.52350,51.89601359
0.52400,56.77912411
0.52450,53.11679122
0.52500,43.04537577
0.52550,33.58434913
0.52600,28.3960442
0.52650,27.48046097
0.52700,29.61682183
0.52750,33.88954354
0.52800,36.6362932
0.52850,33.27915472
0.52900,25.34410012
0.52950,17.40904552
0.53000,14.35710144
0.53050,14.35710144
0.53100,14.05190703
0.53150,10.99996296
0.53200,5.201269211
0.53250,-0.2922301275
0.53300,-3.649368612
0.53350,-4.259757428
0.53400,-4.564951835
0.53450,-6.396118282
0.53500,-8.837673543
0.53550,-10.05845117
0.53600,-12.19481203
0.53650,-17.99350577
0.53700,-23.18181071
0.53750,-18.29870018
0.53800,-2.428590981
0.53850,14.05190703
0.53900,21.37657282
0.53950,19.85060078
0.54000,18.32462874
0.54050,19.54540637
0.54100,21.37657282
0.54150,20.4609896
0.54200,16.7986567
0.54250,10.38957414
0.54300,0.9285475033
0.54350,-8.227284728
0.54400,-13.41558966
0.54450,-14.02597847
0.54500,-13.11039525
0.54550,-12.80520084
0.54600,-12.80520084
0.54650,-14.02597847
0.54700,-16.77272814
0.54750,-18.29870018
0.54800,-16.16233933
0.54850,-13.11039525
0.54900,-13.41558966
0.54950,-17.38311696
0.55000,-18.29870018
0.55050,-12.19481203
0.55100,-3.95456302
0.55150,0.3181586879
0.55200,1.233741911
0.55250,4.590880396
0.55300,11.61035177
0.55350,17.40904552
0.55400,17.71423993
0.55450,12.8311294
0.55500,7.642824473
0.55550,3.675297173
0.55600,0.01296428019
0.55650,-4.564951835
0.55700,-7.92209032
0.55750,-10.9740344
0.55800,-14.9415617
0.55850,-20.43506104
0.55900,-24.40258834
0.55950,-24.40258834
0.56000,-23.18181071
0.56050,-22.8766163
0.56100,-20.74025544
0.56150,-12.50000644
0.56200,-0.9026189429
0.56250,4.896074803
0.56300,0.6233530956
0.56350,-10.05845117
0.56400,-22.26622748
0.56450,-33.55842057
0.56500,-42.40905839
0.56550,-47.29216891
0.56600,-49.73372418
0.56650,-53.09086266
0.56700,-57.97397318
0.56750,-59.80513963
0.56800,-56.44800114
0.56850,-51.25969621
0.56900,-45.46100247
0.56950,-32.03244853
0.57000,-6.090923874
0.57050,24.12332249
0.57100,43.96095899
0.57150,48.5388751
0.57200,44.87654221
0.57250,40.2986261
0.57300,35.11032117
0.57350,27.48046097
0.57400,22.29215604
0.57450,23.51293367
0.57500,26.87007216
0.57550,25.34410012
0.57600,19.85060078
0.57650,18.01943433
0.57700,22.90254486
0.57750,27.78565538
0.57800,27.17526657
0.57850,25.64929453
0.57900,30.22721064
0.57950,39.38304287
0.58000,43.65576458
0.58050,37.85707084
0.58100,27.17526657
0.58150,19.24021197
0.58200,16.4934623
0.58250,17.10385111
0.58300,18.93501756
0.58350,20.15579519
0.58400,20.15579519
0.58450,20.766184
0.58500,25.03890571
0.58550,30.83759946
0.58600,31.75318268
0.58650,24.4285169
0.58700,15.27268467
0.58750,10.08437973
0.58800,7.94801888
0.58850,3.064908357
0.58900,-3.95456302
0.58950,-7.311701505
0.59000,-5.175340651
0.59050,-3.344174205
0.59100,-5.785729466
0.59150,-8.532479135
0.59200,-4.259757428
0.59250,5.811658027
0.59300,14.96749026
0.59350,15.88307348
0.59400,9.473990919
0.59450,1.538936319
0.59500,-3.038979797
0.59550,-5.175340651
0.59600,-6.701312689
0.59650,-9.142867951
0.59700,-13.11039525
0.59750,-16.77272814
0.59800,-18.60389459
0.59850,-17.38311696
0.59900,-14.63636729
0.59950,-11.2792288
0.60000,-7.311701505
0.60050,-2.123396574
0.60100,3.370102765
0.60150,8.253213288
0.60200,11.61035177
0.60250,11.61035177
0.60300,6.116852434
0.60350,-5.480535058
0.60400,-18.909089
0.60450,-26.23375478
0.60500,-27.45453241
0.60550,-29.89608767
0.60600,-37.52594787
0.60650,-43.32464161
0.60700,-38.7467255
0.60750,-26.53894919
0.60800,-15.2467561
0.60850,-8.837673543
0.60900,-0.9026189429
0.60950,11.61035177
0.61000,24.4285169
0.61050,30.22721064
0.61100,30.22721064
0.61150,30.53240505
0.61200,34.19473794
0.61250,37.55187643
0.61300,35.41551557
0.61350,28.09084979
0.61400,19.24021197
0.61450,11.91554618
0.61500,6.422046842
0.61550,0.9285475033
0.61600,-4.259757428
0.61650,-8.837673543
0.61700,-10.9740344
0.61750,-10.05845117
0.61800,-5.785729466
0.61850,1.538936319
0.61900,10.38957414
0.61950,14.66229585
0.62000,9.168796511
0.62050,-5.175340651
0.62100,-21.35064426
0.62150,-30.20128208
0.62200,-30.50647649
0.62250,-26.53894919
0.62300,-23.79219952
0.62350,-21.04544985
0.62400,-16.77272814
0.62450,-12.19481203
0.62500,-11.88961762
0.62550,-15.85714492
0.62600,-17.38311696
0.62650,-8.227284728
0.62700,12.525935
0.62750,36.94148761
0.62800,54.03237444
0.62850,58.61029056
0.62900,52.81159681
0.62950,41.21420932
0.63000,26.56487775
0.63050,13.44151822
0.63100,7.337630065
0.63150,12.22074059
0.63200,23.20773927
0.63250,30.22721064
0.63300,25.95448893
0.63350,15.57787907
0.63400,8.253213288
0.63450,9.779185327
0.63500,17.10385111
0.63550,24.4285169
0.63600,27.78565538
0.63650,26.25968334
0.63700,22.29215604
0.63750,19.85060078
0.63800,20.4609896
0.63850,21.98696163
0.63900,20.4609896
0.63950,16.18826789
0.64000,9.779185327
0.64050,0.9285475033
0.64100,-10.36364558
0.64150,-21.65583867
0.64200,-26.53894919
0.64250,-23.79219952
0.64300,-18.60389459
0.64350,-15.2467561
0.64400,-14.63636729
0.64450,-16.46753374
0.64500,-22.26622748
0.64550,-32.33764294
0.64600,-43.32464161
0.64650,-48.51294654
0.64700,-45.76619688
0.64750,-37.52594787
0.64800,-29.28569886
0.64850,-23.48700511
0.64900,-17.38311696
0.64950,-8.532479135
0.65000,1.538936319
0.65050,10.99996296
0.65100,19.54540637
0.65150,29.00643301
0.65200,38.77265406
0.65250,44.2661534
0.65300,41.82459814
0.65350,33.58434913
0.65400,23.81812808
0.65450,14.66229585
0.65500,6.116852434
0.65550,-0.2922301275
0.65600,-4.564951835
0.65650,-6.396118282
0.65700,-8.532479135
0.65750,-10.9740344
0.65800,-11.88961762
0.65850,-8.227284728
0.65900,0.9285475033
0.65950,13.13632381
0.66000,23.20773927
0.66050,27.78565538
0.66100,28.09084979
0.66150,28.7012386
0.66200,31.75318268
0.66250,35.72070998
0.66300,35.41551557
0.66350,29.00643301
0.66400,19.85060078
0.66450,10.38957414
0.66500,0.6233530956
0.66550,-10.66883999
0.66600,-21.65583867
0.66650,-23.48700511
0.66700,-13.72078407
0.66750,-0.5974245352
0.66800,3.98049158
0.66850,-2.428590981
0.66900,-13.41558966
0.66950,-19.51947781
0.67000,-16.46753374
0.67050,-3.649368612
0.67100,16.7986567
0.67150,37.55187643
0.67200,50.06484714
0.67250,52.201208
0.67300,48.5388751
0.67350,40.6038205
0.67400,26.56487775
0.67450,8.558407696
0.67500,-3.95456302
0.67550,-8.532479135
0.67600,-12.50000644
0.67650,-21.04544985
0.67700,-25.31817156
0.67750,-16.16233933
0.67800,0.6233530956
0.67850,9.473990919
0.67900,3.675297173
0.67950,-6.090923874
0.68000,-11.58442321
0.68050,-11.58442321
0.68100,-10.9740344
0.68150,-8.532479135
0.68200,-2.123396574
0.68250,5.506463619
0.68300,10.99996296
0.68350,11.91554618
0.68400,9.473990919
0.68450,4.285685988
0.68500,-1.513007758
0.68550,-5.785729466
0.68600,-5.175340651
0.68650,-0.5974245352
0.68700,4.285685988
0.68750,7.642824473
0.68800,7.337630065
0.68850,4.590880396
0.68900,1.844130726
0.68950,1.538936319
0.69000,1.844130726
0.69050,0.3181586879
0.69100,-3.344174205
0.69150,-6.090923874
0.69200,-6.090923874
0.69250,-5.480535058
0.69300,-7.006507097
0.69350,-9.448062359
0.69400,-10.36364558
0.69450,-8.837673543
0.69500,-7.616895912
0.69550,-6.396118282
0.69600,-5.785729466
0.69650,-7.006507097
0.69700,-11.58442321
0.69750,-17.07792255
0.69800,-17.68831137
0.69850,-12.80520084
0.69900,-7.616895912
0.69950,-6.090923874
0.70000,-7.006507097
0.70050,-7.311701505
0.70100,-9.448062359
0.70150,-17.99350577
0.70200,-28.06492123
0.70250,-29.89608767
0.70300,-19.21428341
0.70350,-5.785729466
0.70400,-0.2922301275
0.70450,-2.428590981
0.70500,-3.038979797
0.70550,2.454519542
0.70600,8.863602104
0.70650,11.61035177
0.70700,12.525935
0.70750,16.7986567
0.70800,23.51293367
0.70850,29.31162742
0.70900,32.05837709
0.70950,31.44798827
0.71000,26.87007216
0.71050,18.32462874
0.71100,8.253213288
0.71150,0.3181586879
0.71200,-4.564951835
0.71250,-5.785729466
0.71300,-3.344174205
0.71350,1.538936319
0.71400,4.590880396
0.71450,1.538936319
0.71500,-5.175340651
0.71550,-10.36364558
0.71600,-10.05845117
0.71650,-7.616895912
0.71700,-7.311701505
0.71750,-11.88961762
0.71800,-20.74025544
0.71850,-29.59089327
0.71900,-35.69478142
0.71950,-37.52594787
0.72000,-37.22075346
0.72050,-38.44153109
0.72100,-40.88308635
0.72150,-41.18828076
0.72200,-35.69478142
0.72250,-24.70778274
0.72300,-11.2792288
0.72350,0.6233530956
0.72400,11.61035177
0.72450,21.07137841
0.72500,24.7337113
0.72550,17.40904552
0.72600,0.3181586879
0.72650,-16.16233933
0.72700,-21.65583867
0.72750,-16.77272814
0.72800,-10.36364558
0.72850,-6.701312689
0.72900,-1.818202166
0.72950,5.811658027
0.73000,12.525935
0.73050,14.35710144
0.73100,16.4934623
0.73150,25.34410012
0.73200,41.51940373
0.73250,60.1362626
0.73300,74.78559417
0.73350,80.58428791
0.73400,74.78559417
0.73450,59.52587378
0.73500,42.43498695
0.73550,25.64929453
0.73600,6.116852434
0.73650,-14.63636729
0.73700,-28.98050445
0.73750,-31.42205971
0.73800,-29.59089327
0.73850,-32.03244853
0.73900,-37.83114227
0.73950,-39.66230872
0.74000,-35.08439261
0.74050,-28.06492123
0.74100,-23.18181071
0.74150,-19.51947781
0.74200,-15.55195051
0.74250,-9.448062359
0.74300,-0.5974245352
0.74350,9.779185327
0.74400,16.4934623
0.74450,15.27268467
0.74500,7.94801888
0.74550,0.6233530956
0.74600,-3.344174205
0.74650,-5.175340651
0.74700,-5.480535058
0.74750,-4.564951835
0.74800,-3.344174205
0.74850,-3.344174205
0.74900,-4.870146243
0.74950,-7.92209032
0.75000,-12.19481203
0.75050,-14.33117288
0.75100,-11.2792288
0.75150,-5.785729466
0.75200,-2.733785389
0.75250,-3.649368612
0.75300,-5.480535058
0.75350,-7.006507097
0.75400,-11.58442321
0.75450,-19.82467222
0.75500,-27.75972682
0.75550,-31.11686531
0.75600,-31.42205971
0.75650,-30.8116709
0.75700,-28.37011564
0.75750,-23.18181071
0.75800,-18.60389459
0.75850,-16.46753374
0.75900,-15.2467561
0.75950,-11.88961762
0.76000,-10.36364558
0.76050,-14.9415617
0.76100,-23.18181071
0.76150,-27.75972682
0.76200,-27.45453241
0.76250,-27.75972682
0.76300,-32.33764294
0.76350,-37.22075346
0.76400,-38.13633668
0.76450,-35.69478142
0.76500,-32.94803175
0.76550,-28.98050445
0.76600,-21.04544985
0.76650,-10.05845117
0.76700,0.6233530956
0.76750,10.38957414
0.76800,19.54540637
0.76850,26.56487775
0.76900,26.25968334
0.76950,18.32462874
0.77000,8.558407696
0.77050,1.538936319
0.77100,-2.428590981
0.77150,-6.396118282
0.77200,-8.837673543
0.77250,-8.837673543
0.77300,-7.616895912
0.77350,-7.311701505
0.77400,-6.701312689
0.77450,-2.123396574
0.77500,6.72724125
0.77550,15.57787907
0.77600,18.32462874
0.77650,13.74671263
0.77700,6.116852434
0.77750,-1.207813351
0.77800,-7.311701505
0.77850,-13.41558966
0.77900,-19.51947781
0.77950,-24.40258834
0.78000,-29.28569886
0.78050,-38.13633668
0.78100,-52.48047384
0.78150,-68.04538864
0.78200,-76.89602646
0.78250,-73.53888798
0.78300,-63.46747252
0.78350,-55.83761233
0.78400,-55.22722351
0.78450,-57.36358437
0.78500,-56.44800114
0.78550,-51.56489062
0.78600,-44.85061365
0.78650,-36.91555905
0.78700,-25.01297715
0.78750,-9.753256766
0.78800,3.370102765
0.78850,9.473990919
0.78900,8.863602104
0.78950,8.558407696
0.79000,13.74671263
0.79050,23.81812808
0.79100,34.80512676
0.79150,43.65576458
0.79200,52.201208
0.79250,61.66223464
0.79300,67.46092838
0.79350,62.27262345
0.79400,45.18173662
0.79450,25.34410012
0.79500,13.44151822
0.79550,10.08437973
0.79600,7.94801888
0.79650,5.201269211
0.79700,7.337630065
0.79750,18.62982315
0.79800,32.05837709
0.79850,36.6362932
0.79900,30.53240505
0.79950,21.07137841
0.80000,15.27268467
0.80050,12.8311294
0.80100,11.30515737
0.80150,9.779185327
0.80200,8.253213288
0.80250,5.811658027
0.80300,0.9285475033
0.80350,-4.564951835
0.80400,-8.532479135
0.80450,-11.2792288
0.80500,-15.85714492
0.80550,-21.65583867
0.80600,-25.92856037
0.80650,-27.75972682
0.80700,-28.06492123
0.80750,-25.62336597
0.80800,-17.99350577
0.80850,-8.837673543
0.80900,-7.311701505
0.80950,-15.55195051
0.81000,-23.48700511
0.81050,-21.04544985
0.81100,-12.80520084
0.81150,-13.11039525
0.81200,-25.62336597
0.81250,-38.44153109
0.81300,-40.88308635
0.81350,-37.22075346
0.81400,-36.91555905
0.81450,-39.66230872
0.81500,-37.52594787
0.81550,-29.28569886
0.81600,-19.82467222
0.81650,-11.88961762
0.81700,-5.175340651
0.81750,-1.513007758
0.81800,-6.396118282
0.81850,-20.74025544
0.81900,-37.22075346
0.81950,-46.07139128
0.82000,-45.76619688
0.82050,-37.52594787
0.82100,-24.40258834
0.82150,-8.227284728
0.82200,5.201269211
0.82250,12.525935
0.82300,15.88307348
0.82350,22.29215604
0.82400,32.6687659
0.82450,43.35057017
0.82500,51.59081918
0.82550,58.61029056
0.82600,64.1037899
0.82650,62.57781786
0.82700,49.45445833
0.82750,29.00643301
0.82800,11.91554618
0.82850,3.98049158
0.82900,3.370102765
0.82950,5.811658027
0.83000,10.38957414
0.83050,15.27268467
0.83100,18.01943433
0.83150,17.71423993
0.83200,16.18826789
0.83250,14.35710144
0.83300,9.779185327
0.83350,2.149325134
0.83400,-3.649368612
0.83450,-4.259757428
0.83500,-2.428590981
0.83550,-1.818202166
0.83600,0.01296428019
0.83650,6.116852434
0.83700,12.525935
0.83750,10.69476855
0.83800,1.844130726
0.83850,-4.259757428
0.83900,-2.123396574
0.83950,3.064908357
0.84000,3.370102765
0.84050,-1.818202166
0.84100,-9.753256766
0.84150,-19.21428341
0.84200,-28.37011564
0.84250,-33.55842057
0.84300,-30.50647649
0.84350,-22.57142189
0.84400,-17.99350577
0.84450,-18.909089
0.84500,-22.26622748
0.84550,-24.40258834
0.84600,-26.23375478
0.84650,-28.06492123
0.84700,-27.14933801
0.84750,-23.18181071
0.84800,-19.82467222
0.84850,-18.29870018
0.84900,-14.63636729
0.84950,-7.616895912
0.85000,-2.428590981
0.85050,-3.95456302
0.85100,-9.142867951
0.85150,-10.9740344
0.85200,-9.753256766
0.85250,-9.753256766
0.85300,-10.05845117
0.85350,-6.396118282
0.85400,0.3181586879
0.85450,3.064908357
0.85500,-1.207813351
0.85550,-8.532479135
0.85600,-14.02597847
0.85650,-17.07792255
0.85700,-16.16233933
0.85750,-8.227284728
0.85800,4.285685988
0.85850,12.525935
0.85900,10.69476855
0.85950,4.285685988
0.86000,1.233741911
0.86050,2.454519542
0.86100,2.75971395
0.86150,1.538936319
0.86200,0.9285475033
0.86250,1.233741911
0.86300,0.6233530956
0.86350,0.3181586879
0.86400,3.064908357
0.86450,7.94801888
0.86500,10.38957414
0.86550,7.337630065
0.86600,3.370102765
0.86650,3.675297173
0.86700,7.94801888
0.86750,11.30515737
0.86800,10.99996296
0.86850,8.558407696
0.86900,8.253213288
0.86950,10.38957414
0.87000,11.91554618
0.87050,10.08437973
0.87100,7.032435657
0.87150,5.811658027
0.87200,6.116852434
0.87250,4.896074803
0.87300,1.538936319
0.87350,-2.733785389
0.87400,-8.532479135
0.87450,-16.46753374
0.87500,-23.18181071
0.87550,-23.18181071
0.87600,-16.16233933
0.87650,-6.396118282
0.87700,-0.9026189429
0.87750,-2.733785389
0.87800,-10.05845117
0.87850,-14.9415617
0.87900,-10.36364558
0.87950,1.233741911
0.88000,9.779185327
0.88050,7.642824473
0.88100,0.9285475033
0.88150,-0.9026189429
0.88200,-0.9026189429
0.88250,-7.311701505
0.88300,-19.21428341
0.88350,-24.09739393
0.88400,-13.41558966
0.88450,5.811658027
0.88500,21.37657282
0.88550,26.25968334
0.88600,20.766184
0.88650,11.30515737
0.88700,7.337630065
0.88750,15.27268467
0.88800,31.44798827
0.88850,43.96095899
0.88900,44.87654221
0.88950,38.46745965
0.89000,34.80512676
0.89050,40.2986261
0.89100,53.11679122
0.89150,68.37651161
0.89200,81.19467673
0.89250,87.29856488
0.89300,85.16220403
0.89350,79.36351028
0.89400,74.17520535
0.89450,72.34403891
0.89500,71.42845568
0.89550,66.85053957
0.89600,57.08431852
0.89650,45.79212544
0.89700,37.85707084
0.89750,35.11032117
0.89800,33.58434913
0.89850,30.22721064
0.89900,26.25968334
0.89950,24.7337113
0.90000,24.4285169
0.90050,21.68176723
0.90100,17.71423993
0.90150,15.57787907
0.90200,15.27268467
0.90250,14.66229585
0.90300,12.22074059
0.90350,10.38957414
0.90400,8.253213288
0.90450,3.98049158
0.90500,-2.428590981
0.90550,-7.006507097
0.90600,-6.090923874
0.90650,-0.2922301275
0.90700,5.201269211
0.90750,7.94801888
0.90800,9.168796511
0.90850,10.38957414
0.90900,10.38957414
0.90950,8.863602104
0.91000,7.337630065
0.91050,9.168796511
0.91100,15.57787907
0.91150,23.51293367
0.91200,28.09084979
0.91250,26.87007216
0.91300,22.29215604
0.91350,19.24021197
0.91400,19.85060078
0.91450,21.98696163
0.91500,21.98696163
0.91550,18.93501756
0.91600,16.18826789
0.91650,17.40904552
0.91700,21.37657282
0.91750,21.37657282
0.91800,12.8311294
0.91850,0.01296428019
0.91900,-6.701312689
0.91950,-0.9026189429
0.92000,11.61035177
0.92050,20.766184
0.92100,20.15579519
0.92150,14.05190703
0.92200,8.253213288
0.92250,4.896074803
0.92300,2.75971395
0.92350,1.844130726
0.92400,0.6233530956
0.92450,-2.733785389
0.92500,-10.05845117
0.92550,-16.77272814
0.92600,-18.60389459
0.92650,-17.99350577
0.92700,-21.35064426
0.92750,-31.42205971
0.92800,-42.10386398
0.92850,-46.6817801
0.92900,-43.62983602
0.92950,-36.61036464
0.93000,-25.31817156
0.93050,-7.616895912
0.93100,16.18826789
0.93150,41.51940373
0.93200,61.66223464
0.93250,72.95442772
0.93300,74.78559417
0.93350,68.37651161
0.93400,55.86354089
0.93450,41.82459814
0.93500,29.31162742
0.93550,20.766184
0.93600,16.4934623
0.93650,16.7986567
0.93700,21.07137841
0.93750,25.64929453
0.93800,26.87007216
0.93850,26.56487775
0.93900,34.80512676
0.93950,57.08431852
0.94000,85.16220403
0.94050,100.7271188
0.94100,95.53881389
0.94150,78.44792706
0.94200,61.96742904
0.94250,50.06484714
0.94300,37.55187643
0.94350,23.51293367
0.94400,10.69476855
0.94450,-0.5974245352
0.94500,-13.41558966
0.94550,-27.14933801
0.94600,-36.30517024
0.94650,-39.35711431
0.94700,-38.13633668
0.94750,-33.55842057
0.94800,-23.79219952
0.94850,-10.66883999
0.94900,-1.818202166
0.94950,-2.123396574
0.95000,-7.616895912
0.95050,-10.9740344
0.95100,-10.36364558
0.95150,-9.448062359
0.95200,-9.753256766
0.95250,-9.753256766
0.95300,-7.616895912
0.95350,-5.785729466
0.95400,-7.311701505
0.95450,-12.50000644
0.95500,-19.21428341
0.95550,-27.14933801
0.95600,-36.30517024
0.95650,-44.54541924
0.95700,-45.76619688
0.95750,-37.52594787
0.95800,-25.01297715
0.95850,-16.77272814
0.95900,-13.11039525
0.95950,-7.006507097
0.96000,7.032435657
0.96050,26.56487775
0.96100,40.90901491
0.96150,43.65576458
0.96200,35.72070998
0.96250,24.12332249
0.96300,15.88307348
0.96350,14.05190703
0.96400,14.05190703
0.96450,8.253213288
0.96500,-5.480535058
0.96550,-25.62336597
0.96600,-48.51294654
0.96650,-69.87655508
0.96700,-85.13627547
0.96750,-89.10380277
0.96800,-82.99991461
0.96850,-75.06486001
0.96900,-69.87655508
0.96950,-64.99344456
0.97000,-56.44800114
0.97050,-43.62983602
0.97100,-30.20128208
0.97150,-18.60389459
0.97200,-10.66883999
0.97250,-7.92209032
0.97300,-9.448062359
0.97350,-9.142867951
0.97400,-5.175340651
0.97450,-1.818202166
0.97500,-4.259757428
0.97550,-10.36364558
0.97600,-13.41558966
0.97650,-11.58442321
0.97700,-9.448062359
0.97750,-10.66883999
0.97800,-11.88961762
0.97850,-9.448062359
0.97900,-4.870146243
0.97950,-2.428590981
0.98000,-3.038979797
0.98050,-3.038979797
0.98100,-0.5974245352
0.98150,1.538936319
0.98200,0.9285475033
0.98250,-3.038979797
0.98300,-6.090923874
0.98350,-4.259757428
0.98400,1.538936319
0.98450,7.94801888
0.98500,10.69476855
0.98550,10.08437973
0.98600,7.642824473
0.98650,4.590880396
0.98700,2.149325134
0.98750,0.3181586879
0.98800,0.9285475033
0.98850,1.844130726
0.98900,0.9285475033
0.98950,-0.5974245352
0.99000,-0.5974245352
0.99050,1.233741911
0.99100,1.844130726
0.99150,0.3181586879
0.99200,-1.513007758
0.99250,-0.2922301275
0.99300,2.454519542
0.99350,3.675297173
0.99400,2.75971395
0.99450,0.3181586879
0.99500,-3.95456302
0.99550,-9.753256766
0.99600,-13.41558966
0.99650,-13.11039525
0.99700,-13.11039525
0.99750,-17.68831137
0.99800,-26.23375478
0.99850,-34.16880938
0.99900,-40.88308635
0.99950,-47.29216891
1.00000,-50.34411299
1.00050,-45.15580806
1.00100,-35.08439261
1.00150,-29.59089327
1.00200,-32.33764294
1.00250,-36.30517024
1.00300,-35.99997583
1.00350,-32.33764294
1.00400,-27.45453241
1.00450,-17.99350577
1.00500,-0.5974245352
1.00550,21.37657282
1.00600,42.43498695
1.00650,58.30509615
1.00700,67.76612279
1.00750,68.0713172
1.00800,61.66223464
1.00850,57.99990174
1.00900,62.57781786
1.00950,69.29209483
1.01000,67.15573397
1.01050,55.25315207
1.01100,42.43498695
1.01150,34.19473794
1.01200,27.78565538
1.01250,21.68176723
1.01300,18.93501756
1.01350,20.15579519
1.01400,17.10385111
1.01450,5.201269211
1.01500,-9.753256766
1.01550,-17.99350577
1.01600,-17.68831137
1.01650,-14.9415617
1.01700,-14.63636729
1.01750,-14.63636729
1.01800,-10.9740344
1.01850,-4.564951835
1.01900,0.9285475033
1.01950,7.032435657
1.02000,18.93501756
1.02050,39.38304287
1.02100,62.27262345
1.02150,76.31156621
1.02200,76.31156621
1.02250,67.46092838
1.02300,56.4739297
1.02350,41.51940373
1.02400,20.766184
1.02450,1.844130726
1.02500,-4.870146243
1.02550,-1.513007758
1.02600,1.844130726
1.02650,2.75971395
1.02700,8.558407696
1.02750,21.98696163
1.02800,35.11032117
1.02850,40.90901491
1.02900,45.18173662
1.02950,53.42198563
1.03000,62.27262345
1.03050,65.32456753
1.03100,63.79859549
1.03150,61.05184582
1.03200,54.03237444
1.03250,37.24668202
1.03300,13.13632381
1.03350,-7.92209032
1.03400,-19.82467222
1.03450,-23.79219952
1.03500,-23.79219952
1.03550,-22.57142189
1.03600,-22.57142189
1.03650,-23.79219952
1.03700,-23.48700511
1.03750,-20.43506104
1.03800,-16.46753374
1.03850,-13.11039525
1.03900,-8.532479135
1.03950,-3.649368612
1.04000,-4.870146243
1.04050,-15.55195051
1.04100,-28.06492123
1.04150,-33.86361497
1.04200,-34.7791982
1.04250,-40.88308635
1.04300,-53.39605707
1.04350,-63.77266693
1.04400,-65.90902778
1.04450,-63.46747252
1.04500,-61.63630608
1.04550,-59.19475081
1.04600,-52.48047384
1.04650,-45.46100247
1.04700,-43.32464161
1.04750,-46.37658569
1.04800,-49.42852977
1.04850,-48.51294654
1.04900,-45.46100247
1.04950,-43.01944721
1.05000,-40.57789194
1.05050,-35.38958701
1.05100,-25.62336597
1.05150,-13.11039525
1.05200,-2.123396574
1.05250,3.064908357
1.05300,3.064908357
1.05350,1.538936319
1.05400,0.9285475033
1.05450,0.01296428019
1.05500,-3.649368612
1.05550,-9.448062359
1.05600,-13.72078407
1.05650,-15.2467561
1.05700,-15.55195051
1.05750,-17.68831137
1.05800,-21.65583867
1.05850,-24.70778274
1.05900,-25.92856037
1.05950,-25.62336597
1.06000,-24.70778274
1.06050,-23.79219952
1.06100,-21.35064426
1.06150,-15.85714492
1.06200,-7.006507097
1.06250,1.844130726
1.06300,8.558407696
1.06350,11.91554618
1.06400,12.525935
1.06450,11.61035177
1.06500,7.642824473
1.06550,1.538936319
1.06600,-3.649368612
1.06650,-7.92209032
1.06700,-10.66883999
1.06750,-12.19481203
1.06800,-11.88961762
1.06850,-9.753256766
1.06900,-6.701312689
1.06950,-3.649368612
1.07000,-1.818202166
1.07050,-1.207813351
1.07100,-2.123396574
1.07150,-0.9026189429
1.07200,4.285685988
1.07250,11.91554618
1.07300,16.4934623
1.07350,15.88307348
1.07400,11.91554618
1.07450,7.94801888
1.07500,3.98049158
1.07550,-0.2922301275
1.07600,-4.259757428
1.07650,-6.396118282
1.07700,-5.175340651
1.07750,0.01296428019
1.07800,5.811658027
1.07850,7.032435657
1.07900,2.454519542
1.07950,-1.207813351
1.08000,0.3181586879
1.08050,6.116852434
1.08100,9.779185327
1.08150,10.08437973
1.08200,10.38957414
1.08250,10.99996296
1.08300,9.473990919
1.08350,6.116852434
1.08400,4.896074803
1.08450,5.506463619
1.08500,3.98049158
1.08550,0.3181586879
1.08600,-0.9026189429
1.08650,0.3181586879
1.08700,0.6233530956
1.08750,-1.818202166
1.08800,-4.870146243
1.08850,-5.480535058
1.08900,-4.870146243
1.08950,-4.870146243
1.09000,-7.006507097
1.09050,-12.80520084
1.09100,-21.96103307
1.09150,-30.20128208
1.09200,-31.42205971
1.09250,-27.75972682
1.09300,-25.92856037
1.09350,-27.75972682
1.09400,-28.37011564
1.09450,-22.8766163
1.09500,-14.33117288
1.09550,-6.396118282
1.09600,-0.2922301275
1.09650,4.285685988
1.09700,7.032435657
1.09750,7.337630065
1.09800,7.032435657
1.09850,7.337630065
1.09900,7.337630065
1.09950,6.72724125
1.10000,7.337630065
1.10050,8.558407696
1.10100,7.642824473
1.10150,2.149325134
1.10200,-2.428590981
1.10250,1.538936319
1.10300,17.10385111
1.10350,34.80512676
1.10400,40.6038205
1.10450,30.53240505
1.10500,10.99996296
1.10550,-7.616895912
1.10600,-21.04544985
1.10650,-28.06492123
1.10700,-29.59089327
1.10750,-28.06492123
1.10800,-28.98050445
1.10850,-34.16880938
1.10900,-35.99997583
1.10950,-25.92856037
1.11000,-4.564951835
1.11050,18.62982315
1.11100,37.24668202
1.11150,49.45445833
1.11200,54.64276326
1.11250,52.5064024
1.11300,45.79212544
1.11350,41.82459814
1.11400,42.74018136
1.11450,43.04537577
1.11500,38.77265406
1.11550,31.14279387
1.11600,23.51293367
1.11650,16.18826789
1.11700,9.473990919
1.11750,5.201269211
1.11800,3.064908357
1.11850,-0.5974245352
1.11900,-7.311701505
1.11950,-10.66883999
1.12000,-4.564951835
1.12050,5.506463619
1.12100,10.08437973
1.12150,6.116852434
1.12200,0.3181586879
1.12250,-1.207813351
1.12300,0.3181586879
1.12350,2.75971395
1.12400,4.285685988
1.12450,4.896074803
1.12500,5.201269211
1.12550,7.032435657
1.12600,11.30515737
1.12650,16.18826789
1.12700,18.93501756
1.12750,18.93501756
1.12800,18.32462874
1.12850,17.71423993
1.12900,15.27268467
1.12950,8.863602104
1.13000,0.3181586879
1.13050,-6.090923874
1.13100,-6.090923874
1.13150,-1.207813351
1.13200,4.896074803
1.13250,10.99996296
1.13300,20.15579519
1.13350,34.19473794
1.13400,48.5388751
1.13450,54.33756885
1.13500,48.5388751
1.13550,34.49993235
1.13600,20.15579519
1.13650,8.863602104
1.13700,0.3181586879
1.13750,-6.090923874
1.13800,-11.58442321
1.13850,-14.63636729
1.13900,-17.38311696
1.13950,-21.04544985
1.14000,-22.8766163
1.14050,-16.77272814
1.14100,-1.818202166
1.14150,15.27268467
1.14200,28.09084979
1.14250,38.16226524
1.14300,47.31809747
1.14350,52.201208
1.14400,46.70770866
1.14450,32.6687659
1.14500,18.01943433
1.14550,5.506463619
1.14600,-7.92209032
1.14650,-22.26622748
1.14700,-34.47400379
1.14750,-47.29216891
1.14800,-66.5194166
1.14850,-88.49341395
1.14900,-101.3115791
1.14950,-102.5323567
1.15000,-102.2271623
1.15050,-107.4154672
1.15100,-111.3829945
1.15150,-105.2791064
1.15200,-89.10380277
1.15250,-68.65577745
1.15300,-48.81814095
1.15350,-31.42205971
1.15400,-17.38311696
1.15450,-4.259757428
1.15500,9.473990919
1.15550,21.37657282
1.15600,24.12332249
1.15650,19.24021197
1.15700,13.44151822
1.15750,8.558407696
1.15800,0.9285475033
1.15850,-7.311701505
1.15900,-10.9740344
1.15950,-10.66883999
1.16000,-17.07792255
1.16050,-32.94803175
1.16100,-46.07139128
1.16150,-45.76619688
1.16200,-38.44153109
1.16250,-35.99997583
1.16300,-40.88308635
1.16350,-45.15580806
1.16400,-44.54541924
1.16450,-42.40905839
1.16500,-39.66230872
1.16550,-31.72725412
1.16600,-14.9415617
1.16650,6.422046842
1.16700,23.20773927
1.16750,29.31162742
1.16800,25.03890571
1.16850,14.96749026
1.16900,3.064908357
1.16950,-7.92209032
1.17000,-16.46753374
1.17050,-19.82467222
1.17100,-19.51947781
1.17150,-16.77272814
1.17200,-10.36364558
1.17250,0.3181586879
1.17300,13.44151822
1.17350,23.20773927
1.17400,27.48046097
1.17450,29.61682183
1.17500,33.27915472
1.17550,37.85707084
1.17600,42.12979254
1.17650,46.70770866
1.17700,51.28562477
1.17750,54.33756885
1.17800,54.33756885
1.17850,50.98043037
1.17900,46.40251425
1.17950,40.90901491
1.18000,35.72070998
1.18050,31.14279387
1.18100,26.25968334
1.18150,20.4609896
1.18200,14.05190703
1.18250,7.032435657
1.18300,-0.5974245352
1.18350,-10.05845117
1.18400,-20.74025544
1.18450,-31.11686531
1.18500,-40.27269754
1.18550,-45.46100247
1.18600,-46.6817801
1.18650,-47.59736332
1.18700,-54.31164029
1.18750,-68.04538864
1.18800,-81.77913698
1.18850,-88.79860836
1.18900,-85.74666428
1.18950,-76.28563765
1.19000,-64.07786134
1.19050,-52.48047384
1.19100,-44.54541924
1.19150,-40.27269754
1.19200,-35.99997583
1.19250,-24.40258834
1.19300,-3.649368612
1.19350,20.4609896
1.19400,40.6038205
1.19450,52.81159681
1.19500,59.22067937
1.19550,62.27262345
1.19600,59.83106819
1.19650,49.75965274
1.19700,33.27915472
1.19750,19.54540637
1.19800,15.57787907
1.19850,19.85060078
1.19900,24.7337113
1.19950,24.7337113
1.20000,18.93501756
1.20050,10.38957414
1.20100,1.538936319
1.20150,-3.649368612
1.20200,-3.95456302
1.20250,0.3181586879
1.20300,4.285685988
1.20350,6.116852434
1.20400,7.032435657
1.20450,8.863602104
1.20500,12.525935
1.20550,16.18826789
1.20600,19.54540637
1.20650,20.766184
1.20700,16.7986567
1.20750,7.642824473
1.20800,-1.207813351
1.20850,-6.701312689
1.20900,-13.11039525
1.20950,-24.70778274
1.21000,-36.91555905
1.21050,-40.57789194
1.21100,-35.99997583
1.21150,-35.08439261
1.21200,-43.62983602
1.21250,-53.39605707
1.21300,-55.53241792
1.21350,-51.87008503
1.21400,-48.81814095
1.21450,-43.32464161
1.21500,-30.20128208
1.21550,-14.63636729
1.21600,-7.006507097
1.21650,-7.311701505
1.21700,-7.311701505
1.21750,-4.259757428
1.21800,-1.818202166
1.21850,0.3181586879
1.21900,6.116852434
1.21950,15.88307348
1.22000,20.4609896
1.22050,15.88307348
1.22100,7.642824473
1.22150,2.454519542
1.22200,-0.2922301275
1.22250,-5.785729466
1.22300,-13.72078407
1.22350,-20.12986663
1.22400,-21.65583867
1.22450,-16.16233933
1.22500,-3.344174205
1.22550,11.61035177
1.22600,22.29215604
1.22650,26.25968334
1.22700,29.00643301
1.22750,36.6362932
1.22800,49.14926392
1.22850,61.35704023
1.22900,69.59728924
1.22950,73.87001094
1.23000,78.44792706
1.23050,84.55181521
1.23100,88.82453692
1.23150,88.51934251
1.23200,86.68817607
1.23250,88.21414811
1.23300,93.09725863
1.23350,95.8440083
1.23400,91.57128659
1.23450,83.33103758
1.23500,76.31156621
1.23550,72.0388445
1.23600,71.12326127
1.23650,71.73365009
1.23700,69.29209483
1.23750,58.91548497
1.23800,41.21420932
1.23850,24.4285169
1.23900,14.66229585
1.23950,10.69476855
1.24000,6.72724125
1.24050,-3.344174205
1.24100,-23.18181071
1.24150,-53.70125148
1.24200,-90.01938599
1.24250,-122.980382
1.24300,-144.0387962
1.24350,-150.1426843
1.24400,-143.7336017
1.24450,-130.9154366
1.24500,-119.6232435
1.24550,-111.6881889
1.24600,-102.8375511
1.24650,-85.13627547
1.24700,-57.36358437
1.24750,-26.23375478
1.24800,0.3181586879
1.24850,20.766184
1.24900,36.6362932
1.24950,51.28562477
1.25000,67.46092838
1.25050,84.85700962
1.25100,101.0323132
1.25150,116.597228
1.25200,133.3829204
1.25250,149.2530296
1.25300,157.4932787
1.25350,155.6621122
1.25400,148.3374464
1.25450,138.8764198
1.25500,124.837477
1.25550,104.3894517
1.25600,82.72064877
1.25650,61.96742904
1.25700,36.02590439
1.25750,-0.5974245352
1.25800,-39.05191991
1.25850,-65.29863897
1.25900,-79.03238731
1.25950,-93.07133007
1.26000,-111.3829945
1.26050,-124.5063541
1.26100,-123.2855764
1.26150,-110.1622169
1.26200,-94.90249651
1.26250,-83.61030343
1.26300,-78.72719291
1.26350,-80.86355376
1.26400,-88.18821955
1.26450,-95.20769092
1.26500,-98.259635
1.26550,-95.51288533
1.26600,-85.13627547
1.26650,-70.4869439
1.26700,-60.72072285
1.26750,-62.85708371
1.26800,-73.23369357
1.26850,-81.16874817
1.26900,-82.99991461
1.26950,-82.69472021
1.27000,-79.03238731
1.27050,-64.68825015
1.27100,-38.7467255
1.27150,-11.88961762
1.27200,4.590880396
1.27250,14.35710144
1.27300,29.92201623
1.27350,56.4739297
1.27400,86.68817607
1.27450,110.1881455
1.27500,122.3959218
1.27550,123.9218938
1.27600,117.2076168
1.27650,104.3894517
1.27700,88.82453692
1.27750,76.0063718
1.27800,67.15573397
1.27850,59.52587378
1.27900,49.75965274
1.27950,39.38304287
1.28000,33.27915472
1.28050,31.75318268
1.28100,32.05837709
1.28150,32.97396031
1.28200,37.24668202
1.28250,43.65576458
1.28300,46.09731984
1.28350,39.68823728
1.28400,27.17526657
1.28450,12.8311294
1.28500,-3.95456302
1.28550,-26.23375478
1.28600,-49.12333536
1.28650,-62.85708371
1.28700,-61.94150048
1.28750,-50.34411299
1.28800,-35.38958701
1.28850,-21.65583867
1.28900,-8.532479135
1.28950,4.896074803
1.29000,19.24021197
1.29050,32.97396031
1.29100,43.35057017
1.29150,47.31809747
1.29200,47.31809747
1.29250,44.87654221
1.29300,38.16226524
1.29350,21.98696163
1.29400,-2.123396574
1.29450,-26.23375478
1.29500,-40.88308635
1.29550,-46.98697451
1.29600,-49.73372418
1.29650,-50.03891858
1.29700,-45.46100247
1.29750,-37.22075346
1.29800,-31.42205971
1.29850,-32.64283734
1.29900,-39.66230872
1.29950,-46.37658569
1.30000,-46.6817801
1.30050,-37.83114227
1.30100,-24.09739393
1.30150,-14.63636729
1.30200,-17.68831137
1.30250,-33.25322616
1.30300,-52.17527944
1.30350,-65.90902778
1.30400,-70.79213831
1.30450,-68.65577745
1.30500,-63.46747252
1.30550,-57.36358437
1.30600,-48.20775214
1.30650,-32.03244853
1.30700,-7.311701505
1.30750,18.01943433
1.30800,35.72070998
1.30850,45.79212544
1.30900,58.61029056
1.30950,78.75312147
1.31000,100.4219244
1.31050,113.8504784
1.31100,119.3439777
1.31150,123.0063106
1.31200,122.0907274
1.31250,109.2725622
1.31300,85.77259284
1.31350,64.1037899
1.31400,51.59081918
1.31450,40.90901491
1.31500,21.98696163
1.31550,0.01296428019
1.31600,-14.63636729
1.31650,-19.82467222
1.31700,-23.79219952
1.31750,-31.11686531
1.31800,-38.7467255
1.31850,-48.20775214
1.31900,-64.99344456
1.31950,-82.3895258
1.32000,-83.61030343
1.32050,-62.5518893
1.32100,-38.7467255
1.32150,-36.30517024
1.32200,-54.00644588
1.32250,-69.26616627
1.32300,-69.26616627
1.32350,-61.02591726
1.32400,-54.6168347
1.32450,-48.81814095
1.32500,-35.69478142
1.32550,-15.2467561
1.32600,3.370102765
1.32650,12.22074059
1.32700,9.473990919
1.32750,0.3181586879
1.32800,-7.311701505
1.32850,-13.11039525
1.32900,-23.48700511
1.32950,-41.18828076
1.33000,-56.75319555
1.33050,-57.66877878
1.33100,-46.6817801
1.33150,-37.22075346
1.33200,-34.7791982
1.33250,-27.75972682
1.33300,-6.396118282
1.33350,22.59735045
1.33400,45.18173662
1.33450,57.99990174
1.33500,67.15573397
1.33550,76.92195502
1.33600,85.77259284
1.33650,90.35050896
1.33700,87.9089537
1.33750,76.0063718
1.33800,56.77912411
1.33850,39.99343169
1.33900,31.14279387
1.33950,26.87007216
1.34000,20.4609896
1.34050,12.525935
1.34100,8.253213288
1.34150,9.168796511
1.34200,11.30515737
1.34250,14.96749026
1.34300,20.4609896
1.34350,21.98696163
1.34400,12.525935
1.34450,-4.259757428
1.34500,-17.99350577
1.34550,-23.48700511
1.34600,-25.31817156
1.34650,-27.14933801
1.34700,-24.09739393
1.34750,-12.19481203
1.34800,3.064908357
1.34850,14.96749026
1.34900,22.59735045
1.34950,29.31162742
1.35000,36.94148761
1.35050,46.09731984
1.35100,58.91548497
1.35150,74.78559417
1.35200,88.21414811
1.35250,94.31803626
1.35300,98.28556356
1.35350,107.1362014
1.35400,121.1751441
1.35450,132.1621428
1.35500,135.2140869
1.35550,132.1621428
1.35600,125.1426714
1.35650,112.6297007
1.35700,94.31803626
1.35750,75.39598298
1.35800,63.79859549
1.35850,62.57781786
1.35900,68.0713172
1.35950,74.78559417
1.36000,79.66870469
1.36050,81.80506554
1.36100,80.58428791
1.36150,72.34403891
1.36200,54.64276326
1.36250,29.61682183
1.36300,3.064908357
1.36350,-23.18181071
1.36400,-50.34411299
1.36450,-76.28563765
1.36500,-96.42846855
1.36550,-110.1622169
1.36600,-121.1492156
1.36650,-129.694659
1.36700,-128.168687
1.36750,-113.8245498
1.36800,-92.15574685
1.36850,-72.31811035
1.36900,-55.83761233
1.36950,-40.57789194
1.37000,-26.8441436
1.37050,-15.55195051
1.37100,-4.259757428
1.37150,9.168796511
1.37200,22.29215604
1.37250,32.3635715
1.37300,42.12979254
1.37350,55.86354089
1.37400,70.20767805
1.37450,78.44792706
1.37500,81.19467673
1.37550,83.9414264
1.37600,88.21414811
1.37650,88.82453692
1.37700,83.33103758
1.37750,73.56481654
1.37800,62.57781786
1.37850,49.45445833
1.37900,34.80512676
1.37950,23.81812808
1.38000,20.4609896
1.38050,25.03890571
1.38100,35.72070998
1.38150,48.5388751
1.38200,57.69470734
1.38250,57.99990174
1.38300,49.14926392
1.38350,34.49993235
1.38400,16.4934623
1.38450,-4.259757428
1.38500,-26.53894919
1.38550,-48.51294654
1.38600,-72.31811035
1.38650,-100.0908014
1.38700,-127.2531037
1.38750,-147.0907402
1.38800,-159.6037109
1.38850,-170.2855152
1.38900,-177.9153754
1.38950,-171.8114873
1.39000,-147.701129
1.39050,-115.3505218
1.39100,-89.40899718
1.39150,-71.70772153
1.39200,-51.87008503
1.39250,-22.8766163
1.39300,12.8311294
1.39350,47.31809747
1.39400,69.29209483
1.39450,74.78559417
1.39500,67.76612279
1.39550,58.91548497
1.39600,52.81159681
1.39650,47.62329188
1.39700,42.12979254
1.39750,41.21420932
1.39800,47.01290307
1.39850,51.28562477
1.39900,45.18173662
1.39950,33.88954354
1.40000,31.14279387
1.40050,42.74018136
1.40100,58.61029056
1.40150,65.01937312
1.40200,56.77912411
1.40250,36.94148761
1.40300,14.35710144
1.40350,-2.733785389
1.40400,-11.88961762
1.40450,-16.77272814
1.40500,-21.96103307
1.40550,-27.14933801
1.40600,-28.67531004
1.40650,-25.62336597
1.40700,-20.74025544
1.40750,-17.07792255
1.40800,-14.63636729
1.40850,-10.9740344
1.40900,-6.090923874
1.40950,-2.428590981
1.41000,-3.344174205
1.41050,-6.396118282
1.41100,-3.038979797
1.41150,12.22074059
1.41200,32.05837709
1.41250,39.38304287
1.41300,28.7012386
1.41350,10.38957414
1.41400,-4.259757428
1.41450,-19.51947781
1.41500,-43.01944721
1.41550,-66.82461101
1.41600,-75.98044324
1.41650,-68.65577745
1.41700,-59.49994522
1.41750,-59.80513963
1.41800,-65.29863897
1.41850,-68.35058304
1.41900,-70.4869439
1.41950,-77.50641528
1.42000,-88.18821955
1.42050,-94.2921077
1.42100,-91.85055244
1.42150,-84.22069225
1.42200,-76.28563765
1.42250,-68.04538864
1.42300,-58.88955641
1.42350,-50.6493074
1.42400,-47.59736332
1.42450,-51.87008503
1.42500,-64.07786134
1.42550,-83.30510902
1.42600,-106.499884
1.42650,-126.3375205
1.42700,-135.4933527
1.42750,-129.9998534
1.42800,-112.2985778
1.42850,-90.93496921
1.42900,-72.92849916
1.42950,-59.80513963
1.43000,-49.42852977
1.43050,-37.83114227
1.43100,-21.35064426
1.43150,-1.207813351
1.43200,15.57787907
1.43250,20.15579519
1.43300,8.863602104
1.43350,-11.88961762
1.43400,-31.72725412
1.43450,-45.76619688
1.43500,-55.22722351
1.43550,-60.11033404
1.43600,-56.75319555
1.43650,-42.7142528
1.43700,-21.35064426
1.43750,0.6233530956
1.43800,18.62982315
1.43850,30.83759946
1.43900,37.24668202
1.43950,40.6038205
1.44000,43.35057017
1.44050,47.31809747
1.44100,50.06484714
1.44150,49.75965274
1.44200,46.70770866
1.44250,46.09731984
1.44300,50.06484714
1.44350,57.69470734
1.44400,63.18820667
1.44450,61.96742904
1.44500,55.25315207
1.44550,49.14926392
1.44600,50.37004155
1.44650,59.22067937
1.44700,68.98690042
1.44750,74.17520535
1.44800,77.22714943
1.44850,83.02584317
1.44900,90.04531455
1.44950,91.26609218
1.45000,80.27909351
1.45050,59.83106819
1.45100,35.72070998
1.45150,11.61035177
1.45200,-12.19481203
1.45250,-34.7791982
1.45300,-53.39605707
1.45350,-68.04538864
1.45400,-82.69472021
1.45450,-97.95444059
1.45500,-109.5518281
1.45550,-109.5518281
1.45600,-97.34405178
1.45650,-81.16874817
1.45700,-70.18174949
1.45750,-66.82461101
1.45800,-68.35058304
1.45850,-72.31811035
1.45900,-79.94797054
1.45950,-89.71419158
1.46000,-96.42846855
1.46050,-95.20769092
1.46100,-87.88302514
1.46150,-78.4219985
1.46200,-69.87655508
1.46250,-59.80513963
1.46300,-44.85061365
1.46350,-28.06492123
1.46400,-18.60389459
1.46450,-20.74025544
1.46500,-26.8441436
1.46550,-23.18181071
1.46600,-8.532479135
1.46650,4.896074803
1.46700,9.779185327
1.46750,13.13632381
1.46800,24.7337113
1.46850,40.6038205
1.46900,47.31809747
1.46950,43.04537577
1.47000,38.46745965
1.47050,41.51940373
1.47100,44.5713478
1.47150,38.16226524
1.47200,22.90254486
1.47250,7.94801888
1.47300,-2.428590981
1.47350,-12.50000644
1.47400,-25.92856037
1.47450,-39.96750313
1.47500,-48.20775214
1.47550,-46.98697451
1.47600,-39.66230872
1.47650,-30.50647649
1.47700,-20.12986663
1.47750,-7.006507097
1.47800,6.422046842
1.47850,14.05190703
1.47900,12.8311294
1.47950,9.473990919
1.48000,11.61035177
1.48050,16.7986567
1.48100,16.18826789
1.48150,7.94801888
1.48200,0.3181586879
1.48250,0.3181586879
1.48300,4.590880396
1.48350,4.896074803
1.48400,-0.5974245352
1.48450,-8.532479135
1.48500,-15.2467561
1.48550,-18.60389459
1.48600,-18.29870018
1.48650,-17.68831137
1.48700,-22.26622748
1.48750,-35.69478142
1.48800,-53.09086266
1.48850,-65.29863897
1.48900,-68.04538864
1.48950,-64.99344456
1.49000,-61.33111167
1.49050,-60.72072285
1.49100,-64.99344456
1.49150,-74.14927679
1.49200,-86.66224751
1.49250,-97.95444059
1.49300,-100.7011903
1.49350,-85.74666428
1.49400,-50.6493074
1.49450,-6.701312689
1.49500,28.7012386
1.49550,49.45445833
1.49600,66.85053957
1.49650,90.04531455
1.49700,113.5452839
1.49750,126.3634491
1.49800,129.1101987
1.49850,133.6881149
1.49900,141.6231695
1.49950,141.6231695
1.50000,124.837477
1.50050,98.28556356
1.50100,72.95442772
1.50150,53.42198563
1.50200,38.46745965
1.50250,27.17526657
1.50300,17.40904552
1.50350,2.75971395
1.50400,-19.82467222
1.50450,-44.24022484
1.50500,-61.63630608
1.50550,-72.92849916
1.50600,-87.57783073
1.50650,-111.3829945
1.50700,-138.2401024
1.50750,-161.4348774
1.50800,-176.9997922
1.50850,-185.5452356
1.50900,-185.2400412
1.50950,-177.3049866
1.51000,-166.0127935
1.51050,-155.3309892
1.51100,-145.2595738
1.51150,-133.3569919
1.51200,-120.2336324
1.51250,-111.0778001
1.51300,-108.3310505
1.51350,-108.6362449
1.51400,-102.8375511
1.51450,-86.3570531
1.51500,-64.68825015
1.51550,-46.07139128
1.51600,-32.64283734
1.51650,-17.68831137
1.51700,4.590880396
1.51750,31.44798827
1.51800,54.33756885
1.51850,72.64923331
1.51900,90.96089778
1.51950,105.3050349
1.52000,104.9998405
1.52050,87.9089537
1.52100,67.76612279
1.52150,57.99990174
1.52200,56.1687353
1.52250,49.45445833
1.52300,36.3310988
1.52350,28.09084979
1.52400,28.7012386
1.52450,28.7012386
1.52500,17.71423993
1.52550,1.233741911
1.52600,-8.532479135
1.52650,-7.311701505
1.52700,-1.513007758
1.52750,2.454519542
1.52800,4.285685988
1.52850,7.94801888
1.52900,16.7986567
1.52950,29.61682183
1.53000,42.43498695
1.53050,47.62329188
1.53100,41.82459814
1.53150,25.03890571
1.53200,1.844130726
1.53250,-23.48700511
1.53300,-49.42852977
1.53350,-74.75966561
1.53400,-98.259635
1.53450,-114.1297442
1.53500,-115.6557162
1.53550,-104.0583287
1.53600,-89.40899718
1.53650,-82.99991461
1.53700,-84.52588665
1.53750,-85.44146988
1.53800,-80.55835935
1.53850,-70.4869439
1.53900,-58.584362
1.53950,-42.7142528
1.54000,-22.26622748
1.54050,-0.5974245352
1.54100,16.7986567
1.54150,30.22721064
1.54200,40.90901491
1.54250,48.84406951
1.54300,51.28562477
1.54350,45.48693103
1.54400,33.27915472
1.54450,18.93501756
1.54500,6.72724125
1.54550,-0.5974245352
1.54600,-1.818202166
1.54650,3.370102765
1.54700,14.96749026
1.54750,29.92201623
1.54800,46.09731984
1.54850,60.74665141
1.54900,68.98690042
1.54950,67.76612279
1.55000,59.22067937
1.55050,51.89601359
1.55100,50.98043037
1.55150,52.201208
1.55200,50.06484714
1.55250,46.70770866
1.55300,50.37004155
1.55350,61.96742904
1.55400,72.95442772
1.55450,77.53234384
1.55500,79.66870469
1.55550,82.11025995
1.55600,79.66870469
1.55650,68.0713172
1.55700,55.86354089
1.55750,54.03237444
1.55800,59.83106819
1.55850,60.1362626
1.55900,50.98043037
1.55950,40.90901491
1.56000,37.24668202
1.56050,36.6362932
1.56100,31.14279387
1.56150,20.766184
1.56200,10.69476855
1.56250,3.370102765
1.56300,-0.5974245352
1.56350,-0.9026189429
1.56400,3.675297173
1.56450,10.99996296
1.56500,15.88307348
1.56550,14.96749026
1.56600,10.69476855
1.56650,8.558407696
1.56700,10.08437973
1.56750,13.74671263
1.56800,17.10385111
1.56850,20.15579519
1.56900,24.7337113
1.56950,31.75318268
1.57000,39.38304287
1.57050,46.09731984
1.57100,51.28562477
1.57150,52.201208
1.57200,47.62329188
1.57250,40.90901491
1.57300,38.46745965
1.57350,44.87654221
1.57400,57.08431852
1.57450,70.20767805
1.57500,79.05831587
1.57550,79.36351028
1.57600,69.29209483
1.57650,56.1687353
1.57700,51.89601359
1.57750,61.35704023
1.57800,79.05831587
1.57850,96.45439711
1.57900,109.5777566
1.57950,114.7660616
1.58000,107.4413958
1.58050,90.04531455
1.58100,73.87001094
1.58150,66.85053957
1.58200,64.71417871
1.58250,61.05184582
1.58300,57.08431852
1.58350,57.69470734
1.58400,63.18820667
1.58450,72.64923331
1.58500,88.51934251
1.58550,110.1881455
1.58600,126.0582547
1.58650,124.837477
1.58700,108.0517846
1.58750,90.04531455
1.58800,78.75312147
1.58850,69.90248364
1.58900,56.77912411
1.58950,40.2986261
1.59000,26.25968334
1.59050,17.40904552
1.59100,14.66229585
1.59150,17.71423993
1.59200,21.68176723
1.59250,18.93501756
1.59300,4.590880396
1.59350,-18.29870018
1.59400,-44.24022484
1.59450,-69.57136068
1.59500,-93.68171888
1.59550,-113.8245498
1.59600,-123.5907708
1.59650,-120.5388268
1.59700,-107.4154672
1.59750,-86.05185869
1.59800,-54.00644588
1.59850,-10.9740344
1.59900,31.75318268
1.59950,60.74665141
1.60000,74.48039976
1.60050,85.16220403
1.60100,100.7271188
1.60150,114.7660616
1.60200,118.7335889
1.60250,111.4089231
1.60300,98.28556356
1.60350,81.49987114
1.60400,62.88301227
1.60450,46.09731984
1.60500,33.58434913
1.60550,22.29215604
1.60600,9.779185327
1.60650,0.3181586879
1.60700,-2.428590981
1.60750,-5.785729466
1.60800,-19.51947781
1.60850,-38.44153109
1.60900,-48.20775214
1.60950,-44.24022484
1.61000,-36.91555905
1.61050,-30.8116709
1.61100,-14.02597847
1.61150,20.4609896
1.61200,58.61029056
1.61250,80.27909351
1.61300,83.33103758
1.61350,83.9414264
1.61400,90.04531455
1.61450,92.18167541
1.61500,81.49987114
1.61550,63.49340108
1.61600,50.37004155
1.61650,49.75965274
1.61700,59.22067937
1.61750,72.95442772
1.61800,83.9414264
1.61850,88.21414811
1.61900,86.68817607
1.61950,85.46739844
1.62000,88.82453692
1.62050,93.40245304
1.62100,93.09725863
1.62150,82.11025995
1.62200,59.22067937
1.62250,29.92201623
1.62300,0.9285475033
1.62350,-24.09739393
1.62400,-47.59736332
1.62450,-69.87655508
1.62500,-84.52588665
1.62550,-85.74666428
1.62600,-78.72719291
1.62650,-75.37005442
1.62700,-79.64277613
1.62750,-84.22069225
1.62800,-83.30510902
1.62850,-76.89602646
1.62900,-67.12980541
1.62950,-55.22722351
1.63000,-43.32464161
1.63050,-34.16880938
1.63100,-25.92856037
1.63150,-13.41558966
1.63200,2.454519542
1.63250,14.66229585
1.63300,18.32462874
1.63350,17.40904552
1.63400,16.7986567
1.63450,15.88307348
1.63500,12.8311294
1.63550,7.94801888
1.63600,2.149325134
1.63650,-7.311701505
1.63700,-18.29870018
1.63750,-20.74025544
1.63800,-8.532479135
1.63850,11.91554618
1.63900,29.61682183
1.63950,39.07784847
1.64000,43.04537577
1.64050,44.2661534
1.64100,42.12979254
1.64150,36.02590439
1.64200,28.09084979
1.64250,20.766184
1.64300,18.01943433
1.64350,21.98696163
1.64400,31.75318268
1.64450,40.6038205
1.64500,43.35057017
1.64550,41.82459814
1.64600,42.12979254
1.64650,45.48693103
1.64700,47.31809747
1.64750,45.79212544
1.64800,43.65576458
1.64850,43.65576458
1.64900,45.48693103
1.64950,46.40251425
1.65000,46.40251425
1.65050,46.40251425
1.65100,45.18173662
1.65150,41.51940373
1.65200,38.77265406
1.65250,40.2986261
1.65300,45.79212544
1.65350,53.11679122
1.65400,61.05184582
1.65450,71.42845568
1.65500,83.9414264
1.65550,91.876481
1.65600,86.68817607
1.65650,65.32456753
1.65700,32.6687659
1.65750,0.01296428019
1.65800,-22.8766163
1.65850,-31.42205971
1.65900,-28.06492123
1.65950,-16.77272814
1.66000,-0.9026189429
1.66050,15.27268467
1.66100,31.14279387
1.66150,50.06484714
1.66200,77.22714943
1.66250,108.0517846
1.66300,126.9738379
1.66350,119.6491721
1.66400,88.51934251
1.66450,50.06484714
1.66500,19.85060078
1.66550,4.590880396
1.66600,3.064908357
1.66650,7.642824473
1.66700,6.116852434
1.66750,-8.227284728
1.66800,-30.50647649
1.66850,-48.51294654
1.66900,-58.584362
1.66950,-66.21422219
1.67000,-72.62330475
1.67050,-73.84408238
1.67100,-69.26616627
1.67150,-64.07786134
1.67200,-56.44800114
1.67250,-37.83114227
1.67300,-8.837673543
1.67350,15.27268467
1.67400,25.34410012
1.67450,30.53240505
1.67500,42.12979254
1.67550,54.33756885
1.67600,53.72718004
1.67650,44.2661534
1.67700,39.07784847
1.67750,39.68823728
1.67800,33.88954354
1.67850,15.27268467
1.67900,-8.532479135
1.67950,-34.47400379
1.68000,-68.65577745
1.68050,-110.1622169
1.68100,-141.5972409
1.68150,-147.701129
1.68200,-136.1037416
1.68250,-124.5063541
1.68300,-119.3180491
1.68350,-111.0778001
1.68400,-91.85055244
1.68450,-66.21422219
1.68500,-43.93503043
1.68550,-28.98050445
1.68600,-15.2467561
1.68650,2.75971395
1.68700,22.29215604
1.68750,33.88954354
1.68800,36.6362932
1.68850,40.90901491
1.68900,56.4739297
1.68950,75.09078857
1.69000,82.11025995
1.69050,77.83753824
1.69100,78.14273265
1.69150,88.21414811
1.69200,92.48686981
1.69250,72.64923331
1.69300,31.75318268
1.69350,-12.19481203
1.69400,-46.37658569
1.69450,-69.87655508
1.69500,-86.3570531
1.69550,-96.42846855
1.69600,-100.0908014
1.69650,-99.48041263
1.69700,-98.87002382
1.69750,-100.3959959
1.69800,-100.3959959
1.69850,-92.46094125
1.69900,-76.59083205
1.69950,-61.94150048
1.70000,-55.83761233
1.70050,-49.73372418
1.70100,-28.67531004
1.70150,5.811658027
1.70200,35.72070998
1.70250,47.31809747
1.70300,46.40251425
1.70350,42.12979254
1.70400,35.11032117
1.70450,23.20773927
1.70500,13.13632381
1.70550,10.08437973
1.70600,6.422046842
1.70650,-5.785729466
1.70700,-24.09739393
1.70750,-38.13633668
1.70800,-46.37658569
1.70850,-54.6168347
1.70900,-66.21422219
1.70950,-81.16874817
1.71000,-102.5323567
1.71050,-129.0842702
1.71100,-152.2790452
1.71150,-162.0452662
1.71200,-159.2985165
1.71250,-148.9219067
1.71300,-130.9154366
1.71350,-103.4479399
1.71400,-71.40252712
1.71450,-41.79866957
1.71500,-13.72078407
1.71550,14.66229585
1.71600,37.85707084
1.71650,48.5388751
1.71700,49.14926392
1.71750,49.14926392
1.71800,46.70770866
1.71850,33.58434913
1.71900,11.30515737
1.71950,-10.66883999
1.72000,-28.98050445
1.72050,-49.12333536
1.72100,-70.18174949
1.72150,-79.64277613
1.72200,-71.09733271
1.72250,-54.00644588
1.72300,-38.7467255
1.72350,-21.35064426
1.72400,7.032435657
1.72450,43.04537577
1.72500,71.42845568
1.72550,85.46739844
1.72600,93.70764744
1.72650,106.2206182
1.72700,119.3439777
1.72750,123.0063106
1.72800,116.597228
1.72850,108.6621734
1.72900,106.5258126
1.72950,105.3050349
1.73000,97.67517474
1.73050,81.49987114
1.73100,60.1362626
1.73150,34.80512676
1.73200,7.94801888
1.73250,-15.55195051
1.73300,-34.7791982
1.73350,-56.44800114
1.73400,-84.83108106
1.73450,-112.6037722
1.73500,-125.7271317
1.73550,-124.5063541
1.73600,-121.45441
1.73650,-123.5907708
1.73700,-124.5063541
1.73750,-118.7076603
1.73800,-109.8570225
1.73850,-100.0908014
1.73900,-82.69472021
1.73950,-54.6168347
1.74000,-29.59089327
1.74050,-24.09739393
1.74100,-38.13633668
1.74150,-56.75319555
1.74200,-68.35058304
1.74250,-72.62330475
1.74300,-71.09733271
1.74350,-64.07786134
1.74400,-54.92202911
1.74450,-50.03891858
1.74500,-46.6817801
1.74550,-34.47400379
1.74600,-10.36364558
1.74650,15.57787907
1.74700,33.27915472
1.74750,41.82459814
1.74800,45.79212544
1.74850,45.79212544
1.74900,41.51940373
1.74950,37.55187643
1.75000,38.77265406
1.75050,43.65576458
1.75100,45.48693103
1.75150,43.96095899
1.75200,46.40251425
1.75250,56.77912411
1.75300,67.46092838
1.75350,66.54534516
1.75400,50.67523596
1.75450,27.78565538
1.75500,4.896074803
1.75550,-19.51947781
1.75600,-48.81814095
1.75650,-77.50641528
1.75700,-97.03885737
1.75750,-103.1427455
1.75800,-100.7011903
1.75850,-94.59730211
1.75900,-85.74666428
1.75950,-73.53888798
1.76000,-60.72072285
1.76050,-48.20775214
1.76100,-36.30517024
1.76150,-25.92856037
1.76200,-18.60389459
1.76250,-11.2792288
1.76300,2.75971395
1.76350,23.20773927
1.76400,38.77265406
1.76450,39.07784847
1.76500,25.03890571
1.76550,3.064908357
1.76600,-20.74025544
1.76650,-38.44153109
1.76700,-36.91555905
1.76750,-12.80520084
1.76800,17.10385111
1.76850,29.00643301
1.76900,18.01943433
1.76950,-1.513007758
1.77000,-15.85714492
1.77050,-24.70778274
1.77100,-31.11686531
1.77150,-31.72725412
1.77200,-23.18181071
1.77250,-8.532479135
1.77300,5.506463619
1.77350,14.66229585
1.77400,16.7986567
1.77450,10.99996296
1.77500,2.149325134
1.77550,-1.207813351
1.77600,2.149325134
1.77650,5.506463619
1.77700,1.844130726
1.77750,-5.480535058
1.77800,-12.50000644
1.77850,-19.51947781
1.77900,-29.59089327
1.77950,-37.52594787
1.78000,-32.64283734
1.78050,-10.9740344
1.78100,17.71423993
1.78150,38.77265406
1.78200,44.5713478
1.78250,37.24668202
1.78300,27.17526657
1.78350,20.4609896
1.78400,20.766184
1.78450,29.92201623
1.78500,47.92848629
1.78550,68.0713172
1.78600,74.17520535
1.78650,55.55834648
1.78700,19.24021197
1.78750,-13.72078407
1.78800,-33.25322616
1.78850,-45.76619688
1.78900,-61.94150048
1.78950,-82.99991461
1.79000,-101.9219679
1.79050,-112.6037722
1.79100,-114.1297442
1.79150,-108.9414393
1.79200,-97.64924618
1.79250,-80.25316495
1.79300,-59.19475081
1.79350,-41.79866957
1.79400,-35.69478142
1.79450,-39.05191991
1.79500,-41.18828076
1.79550,-32.94803175
1.79600,-18.60389459
1.79650,-10.66883999
1.79700,-14.9415617
1.79750,-26.53894919
1.79800,-35.99997583
1.79850,-35.08439261
1.79900,-20.12986663
1.79950,2.454519542
1.80000,18.93501756
1.80050,20.766184
1.80100,13.44151822
1.80150,8.558407696
1.80200,7.337630065
1.80250,2.75971395
1.80300,-6.396118282
1.80350,-13.11039525
1.80400,-11.2792288
1.80450,-5.785729466
1.80500,-2.733785389
1.80550,-2.733785389
1.80600,-3.038979797
1.80650,-2.428590981
1.80700,0.3181586879
1.80750,3.98049158
1.80800,5.811658027
1.80850,0.9285475033
1.80900,-7.311701505
1.80950,-11.2792288
1.81000,-7.616895912
1.81050,0.3181586879
1.81100,9.779185327
1.81150,19.85060078
1.81200,27.48046097
1.81250,27.78565538
1.81300,21.07137841
1.81350,17.10385111
1.81400,22.59735045
1.81450,34.19473794
1.81500,45.18173662
1.81550,49.75965274
1.81600,44.87654221
1.81650,32.3635715
1.81700,22.90254486
1.81750,28.7012386
1.81800,44.2661534
1.81850,50.37004155
1.81900,40.6038205
1.81950,32.05837709
1.82000,37.24668202
1.82050,42.43498695
1.82100,25.95448893
1.82150,-8.532479135
1.82200,-37.83114227
1.82250,-48.20775214
1.82300,-45.15580806
1.82350,-32.33764294
1.82400,-7.311701505
1.82450,23.20773927
1.82500,46.40251425
1.82550,56.4739297
1.82600,64.1037899
1.82650,76.31156621
1.82700,86.68817607
1.82750,85.16220403
1.82800,69.29209483
1.82850,42.12979254
1.82900,10.08437973
1.82950,-15.2467561
1.83000,-26.8441436
1.83050,-32.33764294
1.83100,-46.37658569
1.83150,-71.09733271
1.83200,-94.2921077
1.83250,-107.4154672
1.83300,-116.5712995
1.83350,-125.4219373
1.83400,-129.9998534
1.83450,-128.7790758
1.83500,-128.7790758
1.83550,-132.4414087
1.83600,-129.9998534
1.83650,-114.1297442
1.83700,-92.76613566
1.83750,-75.98044324
1.83800,-62.24669489
1.83850,-43.62983602
1.83900,-25.62336597
1.83950,-17.68831137
1.84000,-14.63636729
1.84050,0.01296428019
1.84100,27.78565538
1.84150,49.75965274
1.84200,48.84406951
1.84250,32.6687659
1.84300,19.85060078
1.84350,15.88307348
1.84400,15.27268467
1.84450,19.54540637
1.84500,35.72070998
1.84550,60.44145701
1.84600,79.9738991
1.84650,86.99337048
1.84700,81.80506554
1.84750,63.79859549
1.84800,31.75318268
1.84850,-0.2922301275
1.84900,-10.36364558
1.84950,5.201269211
1.85000,24.4285169
1.85050,25.95448893
1.85100,10.99996296
1.85150,-7.006507097
1.85200,-22.8766163
1.85250,-35.38958701
1.85300,-37.83114227
1.85350,-28.98050445
1.85400,-18.909089
1.85450,-17.07792255
1.85500,-21.35064426
1.85550,-27.14933801
1.85600,-34.16880938
1.85650,-37.83114227
1.85700,-29.89608767
1.85750,-12.19481203
1.85800,-0.5974245352
1.85850,-0.5974245352
1.85900,3.675297173
1.85950,22.29215604
1.86000,37.85707084
1.86050,31.44798827
1.86100,10.38957414
1.86150,-5.785729466
1.86200,-13.41558966
1.86250,-17.38311696
1.86300,-10.05845117
1.86350,16.18826789
1.86400,47.62329188
1.86450,58.30509615
1.86500,45.79212544
1.86550,31.14279387
1.86600,27.48046097
1.86650,27.48046097
1.86700,20.15579519
1.86750,6.72724125
1.86800,-8.227284728
1.86850,-20.74025544
1.86900,-24.40258834
1.86950,-16.77272814
1.87000,-5.785729466
1.87050,-1.513007758
1.87100,-2.428590981
1.87150,-1.513007758
1.87200,-0.5974245352
1.87250,-8.227284728
1.87300,-22.8766163
1.87350,-32.94803175
1.87400,-35.38958701
1.87450,-41.49347517
1.87500,-61.33111167
1.87550,-90.93496921
1.87600,-119.9284379
1.87650,-140.9868521
1.87700,-151.0582675
1.87750,-147.3959346
1.87800,-126.3375205
1.87850,-87.88302514
1.87900,-35.38958701
1.87950,23.20773927
1.88000,76.31156621
1.88050,112.9348951
1.88100,127.5842267
1.88150,121.785533
1.88200,105.6102293
1.88250,91.57128659
1.88300,84.24662081
1.88350,77.22714943
1.88400,64.40898431
1.88450,50.37004155
1.88500,44.5713478
1.88550,47.92848629
1.88600,52.201208
1.88650,53.11679122
1.88700,50.98043037
1.88750,42.43498695
1.88800,23.81812808
1.88850,2.149325134
1.88900,-10.36364558
1.88950,-15.55195051
1.89000,-23.18181071
1.89050,-32.33764294
1.89100,-31.72725412
1.89150,-22.8766163
1.89200,-21.96103307
1.89250,-30.8116709
1.89300,-31.72725412
1.89350,-17.07792255
1.89400,-4.564951835
1.89450,-8.532479135
1.89500,-17.38311696
1.89550,-15.85714492
1.89600,-9.753256766
1.89650,-11.58442321
1.89700,-15.55195051
1.89750,-10.05845117
1.89800,0.3181586879
1.89850,2.75971395
1.89900,-5.480535058
1.89950,-19.82467222
1.90000,-40.57789194
1.90050,-65.90902778
1.90100,-83.30510902
1.90150,-83.61030343
1.90200,-74.75966561
1.90250,-64.68825015
1.90300,-42.7142528
1.90350,-0.2922301275
1.90400,45.18173662
1.90450,68.68170601
1.90500,71.12326127
1.90550,71.73365009
1.90600,76.0063718
1.90650,72.34403891
1.90700,63.49340108
1.90750,67.15573397
1.90800,87.60375929
1.90850,104.6946461
1.90900,102.2530909
1.90950,85.16220403
1.91000,68.0713172
1.91050,57.69470734
1.91100,55.55834648
1.91150,60.74665141
1.91200,67.46092838
1.91250,64.71417871
1.91300,49.75965274
1.91350,33.88954354
1.91400,28.3960442
1.91450,34.49993235
1.91500,48.5388751
1.91550,67.15573397
1.91600,82.72064877
1.91650,84.55181521
1.91700,67.76612279
1.91750,39.07784847
1.91800,10.99996296
1.91850,-8.532479135
1.91900,-19.21428341
1.91950,-25.31817156
1.92000,-33.86361497
1.92050,-46.98697451
1.92100,-61.63630608
1.92150,-72.31811035
1.92200,-79.03238731
1.92250,-81.16874817
1.92300,-75.37005442
1.92350,-60.41552844
1.92400,-39.96750313
1.92450,-16.16233933
1.92500,14.96749026
1.92550,54.03237444
1.92600,86.38298166
1.92650,95.8440083
1.92700,82.72064877
1.92750,58.30509615
1.92800,28.7012386
1.92850,-2.123396574
1.92900,-25.31817156
1.92950,-30.50647649
1.93000,-26.23375478
1.93050,-28.67531004
1.93100,-33.55842057
1.93150,-20.12986663
1.93200,13.74671263
1.93250,38.46745965
1.93300,27.17526657
1.93350,-9.753256766
1.93400,-41.18828076
1.93450,-50.6493074
1.93500,-46.98697451
1.93550,-42.10386398
1.93600,-38.13633668
1.93650,-32.33764294
1.93700,-22.8766163
1.93750,-10.66883999
1.93800,2.149325134
1.93850,12.8311294
1.93900,16.7986567
1.93950,14.35710144
1.94000,10.38957414
1.94050,10.08437973
1.94100,17.71423993
1.94150,31.75318268
1.94200,42.43498695
1.94250,40.2986261
1.94300,25.03890571
1.94350,9.168796511
1.94400,4.896074803
1.94450,12.8311294
1.94500,24.7337113
1.94550,31.44798827
1.94600,27.78565538
1.94650,14.35710144
1.94700,-2.123396574
1.94750,-16.77272814
1.94800,-30.8116709
1.94850,-48.51294654
1.94900,-67.74019423
1.94950,-79.94797054
1.95000,-80.55835935
1.95050,-72.01291594
1.95100,-57.66877878
1.95150,-40.27269754
1.95200,-26.53894919
1.95250,-19.51947781
1.95300,-8.837673543
1.95350,14.05190703
1.95400,35.11032117
1.95450,29.61682183
1.95500,-0.2922301275
1.95550,-21.65583867
1.95600,-11.58442321
1.95650,12.525935
1.95700,21.98696163
1.95750,12.8311294
1.95800,1.844130726
1.95850,-3.038979797
1.95900,-3.344174205
1.95950,3.064908357
1.96000,18.62982315
1.96050,30.53240505
1.96100,21.98696163
1.96150,-3.038979797
1.96200,-25.62336597
1.96250,-34.7791982
1.96300,-32.64283734
1.96350,-20.74025544
1.96400,0.3181586879
1.96450,21.68176723
1.96500,30.83759946
1.96550,32.6687659
1.96600,43.04537577
1.96650,62.88301227
1.96700,75.39598298
1.96750,71.73365009
1.96800,60.74665141
1.96850,51.89601359
1.96900,40.90901491
1.96950,21.68176723
1.97000,0.3181586879
1.97050,-13.72078407
1.97100,-22.26622748
1.97150,-33.25322616
1.97200,-46.37658569
1.97250,-50.03891858
1.97300,-37.52594787
1.97350,-17.38311696
1.97400,-6.701312689
1.97450,-12.50000644
1.97500,-24.70778274
1.97550,-29.28569886
1.97600,-23.18181071
1.97650,-17.38311696
1.97700,-21.65583867
1.97750,-34.47400379
1.97800,-48.81814095
1.97850,-55.22722351
1.97900,-45.15580806
1.97950,-16.16233933
1.98000,18.93501756
1.98050,39.68823728
1.98100,37.85707084
1.98150,26.25968334
1.98200,18.62982315
1.98250,14.66229585
1.98300,7.94801888
1.98350,3.675297173
1.98400,9.779185327
1.98450,19.54540637
1.98500,16.4934623
1.98550,0.3181586879
1.98600,-13.72078407
1.98650,-14.63636729
1.98700,-10.36364558
1.98750,-11.2792288
1.98800,-13.11039525
1.98850,-6.396118282
1.98900,8.558407696
1.98950,22.59735045
1.99000,29.92201623
1.99050,33.58434913
1.99100,35.72070998
1.99150,37.24668202
1.99200,41.51940373
1.99250,49.14926392
1.99300,54.94795767
1.99350,49.75965274
1.99400,34.49993235
1.99450,16.7986567
1.99500,-0.2922301275
1.99550,-21.96103307
1.99600,-45.76619688
1.99650,-59.19475081
1.99700,-52.78566825
1.99750,-35.99997583
1.99800,-25.92856037
1.99850,-29.59089327
1.99900,-38.13633668
1.99950,-40.88308635
2.00000,-32.64283734
2.00050,-15.2467561
2.00100,7.032435657
2.00150,28.3960442
2.00200,41.82459814
2.00250,43.96095899
2.00300,35.11032117
2.00350,19.24021197
2.00400,2.75971395
2.00450,-7.006507097
2.00500,-7.616895912
2.00550,-1.513007758
2.00600,6.116852434
2.00650,13.74671263
2.00700,23.81812808
2.00750,38.46745965
2.00800,53.72718004
2.00850,62.27262345
2.00900,56.1687353
2.00950,36.94148761
2.01000,14.66229585
2.01050,-2.123396574
2.01100,-13.41558966
2.01150,-23.48700511
2.01200,-32.94803175
2.01250,-39.96750313
2.01300,-46.07139128
2.01350,-54.31164029
2.01400,-61.02591726
2.01450,-57.05838996
2.01500,-42.10386398
2.01550,-27.75972682
2.01600,-23.79219952
2.01650,-22.8766163
2.01700,-13.11039525
2.01750,6.422046842
2.01800,23.81812808
2.01850,32.05837709
2.01900,37.55187643
2.01950,46.09731984
2.02000,49.14926392
2.02050,31.44798827
2.02100,-9.448062359
2.02150,-60.72072285
2.02200,-104.6687176
2.02250,-132.4414087
2.02300,-144.3439906
2.02350,-144.3439906
2.02400,-135.1881583
2.02450,-117.7920771
2.02500,-93.37652448
2.02550,-63.16227811
2.02600,-32.33764294
2.02650,-6.701312689
2.02700,14.66229585
2.02750,39.99343169
2.02800,73.56481654
2.02850,107.1362014
2.02900,126.0582547
2.02950,123.9218938
2.03000,111.1037287
2.03050,101.3375076
2.03100,98.59075797
2.03150,95.53881389
2.03200,83.02584317
2.03250,60.1362626
2.03300,32.05837709
2.03350,6.72724125
2.03400,-5.175340651
2.03450,1.233741911
2.03500,18.93501756
2.03550,29.92201623
2.03600,24.12332249
2.03650,6.422046842
2.03700,-10.9740344
2.03750,-27.45453241
2.03800,-47.59736332
2.03850,-71.40252712
2.03900,-91.85055244
2.03950,-103.7531343
2.04000,-107.1102728
2.04050,-99.78560704
2.04100,-81.16874817
2.04150,-58.88955641
2.04200,-44.85061365
2.04250,-40.57789194
2.04300,-35.69478142
2.04350,-20.74025544
2.04400,-0.5974245352
2.04450,13.13632381
2.04500,11.30515737
2.04550,-5.175340651
2.04600,-25.31817156
2.04650,-29.89608767
2.04700,-9.142867951
2.04750,23.51293367
2.04800,44.5713478
2.04850,43.96095899
2.04900,29.92201623
2.04950,16.7986567
2.05000,13.74671263
2.05050,24.4285169
2.05100,45.79212544
2.05150,62.88301227
2.05200,57.99990174
2.05250,33.88954354
2.05300,12.22074059
2.05350,8.863602104
2.05400,20.15579519
2.05450,32.05837709
2.05500,36.6362932
2.05550,31.14279387
2.05600,15.57787907
2.05650,-1.818202166
2.05700,-8.837673543
2.05750,-2.428590981
2.05800,1.844130726
2.05850,-11.88961762
2.05900,-45.46100247
2.05950,-82.3895258
2.06000,-106.499884
2.06050,-114.1297442
2.06100,-110.4674113
2.06150,-101.3115791
2.06200,-87.57783073
2.06250,-66.21422219
2.06300,-38.44153109
2.06350,-13.41558966
2.06400,-1.818202166
2.06450,-1.207813351
2.06500,3.370102765
2.06550,21.68176723
2.06600,46.70770866
2.06650,63.79859549
2.06700,68.37651161
2.06750,64.71417871
2.06800,56.77912411
2.06850,45.48693103
2.06900,34.19473794
2.06950,28.3960442
2.07000,27.48046097
2.07050,29.00643301
2.07100,34.19473794
2.07150,45.18173662
2.07200,55.86354089
2.07250,54.94795767
2.07300,40.6038205
2.07350,21.37657282
2.07400,4.285685988
2.07450,-9.753256766
2.07500,-18.29870018
2.07550,-14.02597847
2.07600,0.9285475033
2.07650,14.35710144
2.07700,21.68176723
2.07750,36.6362932
2.07800,65.01937312
2.07850,89.74012014
2.07900,94.01284185
2.07950,88.51934251
2.08000,95.23361948
2.08050,111.7141175
2.08100,117.2076168
2.08150,109.8829511
2.08200,106.5258126
2.08250,112.6297007
2.08300,109.2725622
2.08350,85.77259284
2.08400,56.4739297
2.08450,37.55187643
2.08500,24.7337113
2.08550,5.811658027
2.08600,-22.57142189
2.08650,-57.36358437
2.08700,-92.76613566
2.08750,-116.2661051
2.08800,-111.9933833
2.08850,-80.86355376
2.08900,-47.29216891
2.08950,-33.86361497
2.09000,-34.7791982
2.09050,-27.45453241
2.09100,-4.870146243
2.09150,19.54540637
2.09200,33.27915472
2.09250,37.85707084
2.09300,42.74018136
2.09350,50.98043037
2.09400,58.30509615
2.09450,63.49340108
2.09500,71.42845568
2.09550,86.68817607
2.09600,108.0517846
2.09650,128.1946155
2.09700,141.0127806
2.09750,142.2335583
2.09800,126.9738379
2.09850,91.57128659
2.09900,43.35057017
2.09950,-3.038979797
2.10000,-37.83114227
2.10050,-63.77266693
2.10100,-89.10380277
2.10150,-112.2985778
2.10200,-127.8634925
2.10250,-135.1881583
2.10300,-139.7660744
2.10350,-139.7660744
2.10400,-125.7271317
2.10450,-92.46094125
2.10500,-48.20775214
2.10550,-6.090923874
2.10600,28.09084979
2.10650,55.55834648
2.10700,78.75312147
2.10750,98.28556356
2.10800,112.0193119
2.10850,114.7660616
2.10900,104.9998405
2.10950,91.876481
2.11000,87.60375929
2.11050,93.09725863
2.11100,94.01284185
2.11150,80.27909351
2.11200,56.77912411
2.11250,33.27915472
2.11300,12.22074059
2.11350,-7.006507097
2.11400,-21.04544985
2.11450,-31.72725412
2.11500,-49.42852977
2.11550,-76.59083205
2.11600,-93.37652448
2.11650,-83.91549784
2.11700,-60.41552844
2.11750,-50.95450181
2.11800,-60.41552844
2.11850,-66.82461101
2.11900,-52.78566825
2.11950,-25.31817156
2.12000,0.3181586879
2.12050,16.18826789
2.12100,20.15579519
2.12150,10.99996296
2.12200,-2.428590981
2.12250,-5.480535058
2.12300,4.590880396
2.12350,16.4934623
2.12400,19.54540637
2.12450,20.4609896
2.12500,31.44798827
2.12550,51.59081918
2.12600,68.68170601
2.12650,72.95442772
2.12700,67.15573397
2.12750,59.52587378
2.12800,54.33756885
2.12850,49.14926392
2.12900,43.35057017
2.12950,44.5713478
2.13000,57.69470734
2.13050,68.98690042
2.13100,54.64276326
2.13150,9.168796511
2.13200,-46.07139128
2.13250,-87.27263632
2.13300,-108.025856
2.13350,-115.0453274
2.13400,-116.2661051
2.13450,-117.7920771
2.13500,-119.3180491
2.13550,-104.6687176
2.13600,-54.31164029
2.13650,19.54540637
2.13700,76.0063718
2.13750,89.43492574
2.13800,78.14273265
2.13850,69.90248364
2.13900,65.01937312
2.13950,53.72718004
2.14000,49.75965274
2.14050,70.81806687
2.14100,102.5582853
2.14150,110.1881455
2.14200,87.60375929
2.14250,63.49340108
2.14300,57.69470734
2.14350,59.52587378
2.14400,57.08431852
2.14450,56.4739297
2.14500,65.01937312
2.14550,72.34403891
2.14600,62.27262345
2.14650,36.94148761
2.14700,9.168796511
2.14750,-14.02597847
2.14800,-32.64283734
2.14850,-43.32464161
2.14900,-43.62983602
2.14950,-40.57789194
2.15000,-43.93503043
2.15050,-52.78566825
2.15100,-55.83761233
2.15150,-48.81814095
2.15200,-40.57789194
2.15250,-38.44153109
2.15300,-41.49347517
2.15350,-48.20775214
2.15400,-62.5518893
2.15450,-85.74666428
2.15500,-106.8050784
2.15550,-113.214161
2.15600,-104.0583287
2.15650,-89.40899718
2.15700,-75.37005442
2.15750,-60.11033404
2.15800,-43.62983602
2.15850,-26.8441436
2.15900,-9.142867951
2.15950,13.13632381
2.16000,37.55187643
2.16050,57.38951293
2.16100,68.98690042
2.16150,75.70117739
2.16200,81.19467673
2.16250,86.99337048
2.16300,94.01284185
2.16350,97.06478593
2.16400,82.72064877
2.16450,47.01290307
2.16500,8.253213288
2.16550,-7.92209032
2.16600,-2.428590981
2.16650,3.675297173
2.16700,1.844130726
2.16750,7.337630065
2.16800,25.03890571
2.16850,35.72070998
2.16900,22.90254486
2.16950,0.01296428019
2.17000,-10.05845117
2.17050,-10.66883999
2.17100,-22.26622748
2.17150,-47.59736332
2.17200,-65.60383338
2.17250,-60.72072285
2.17300,-42.40905839
2.17350,-30.8116709
2.17400,-35.99997583
2.17450,-52.17527944
2.17500,-68.65577745
2.17550,-80.86355376
2.17600,-93.98691329
2.17650,-115.3505218
2.17700,-140.6816577
2.17750,-154.415406
2.17800,-146.175157
2.17850,-121.7596044
2.17900,-96.12327415
2.17950,-75.37005442
2.18000,-51.25969621
2.18050,-15.2467561
2.18100,28.3960442
2.18150,64.40898431
2.18200,78.75312147
2.18250,74.48039976
2.18300,65.93495634
2.18350,63.79859549
2.18400,63.49340108
2.18450,57.38951293
2.18500,44.87654221
2.18550,26.25968334
2.18600,-1.207813351
2.18650,-32.64283734
2.18700,-43.01944721
2.18750,-13.72078407
2.18800,38.46745965
2.18850,74.78559417
2.18900,81.80506554
2.18950,82.72064877
2.19000,95.23361948
2.19050,106.5258126
2.19100,101.642702
2.19150,91.26609218
2.19200,94.01284185
2.19250,104.3894517
2.19300,102.2530909
2.19350,83.63623199
2.19400,59.52587378
2.19450,31.75318268
2.19500,-8.532479135
2.19550,-55.83761233
2.19600,-88.18821955
2.19650,-97.64924618
2.19700,-99.78560704
2.19750,-112.2985778
2.19800,-133.6621863
2.19850,-152.5842396
2.19900,-165.4024047
2.19950,-172.7270705
2.20000,-169.6751264
2.20050,-152.5842396
2.20100,-126.9479093
2.20150,-104.0583287
2.20200,-86.66224751
2.20250,-69.57136068
2.20300,-51.25969621
2.20350,-40.27269754
2.20400,-44.24022484
2.20450,-59.80513963
2.20500,-69.57136068
2.20550,-58.27916759
2.20600,-27.75972682
2.20650,7.337630065
2.20700,36.6362932
2.20750,62.27262345
2.20800,89.12973133
2.20850,115.6816448
2.20900,134.9088925
2.20950,141.9283639
2.21000,132.7725316
2.21050,104.0842573
2.21100,62.88301227
2.21150,29.00643301
2.21200,14.66229585
2.21250,11.91554618
2.21300,4.590880396
2.21350,-4.870146243
2.21400,-4.870146243
2.21450,4.590880396
2.21500,10.08437973
2.21550,7.337630065
2.21600,8.558407696
2.21650,18.93501756
2.21700,27.17526657
2.21750,22.29215604
2.21800,8.253213288
2.21850,-5.175340651
2.21900,-15.85714492
2.21950,-21.35064426
2.22000,-16.77272814
2.22050,-3.038979797
2.22100,9.168796511
2.22150,12.8311294
2.22200,10.08437973
2.22250,7.032435657
2.22300,1.538936319
2.22350,-7.92209032
2.22400,-18.60389459
2.22450,-28.06492123
2.22500,-38.7467255
2.22550,-46.98697451
2.22600,-40.27269754
2.22650,-14.33117288
2.22700,13.74671263
2.22750,21.37657282
2.22800,4.285685988
2.22850,-22.57142189
2.22900,-44.24022484
2.22950,-53.70125148
2.23000,-52.78566825
2.23050,-47.90255773
2.23100,-45.76619688
2.23150,-44.54541924
2.23200,-35.08439261
2.23250,-12.19481203
2.23300,15.57787907
2.23350,38.16226524
2.23400,54.64276326
2.23450,68.98690042
2.23500,79.66870469
2.23550,85.46739844
2.23600,90.65570337
2.23650,96.75959152
2.23700,96.45439711
2.23750,87.60375929
2.23800,80.27909351
2.23850,83.33103758
2.23900,85.77259284
2.23950,71.73365009
2.24000,43.96095899
2.24050,18.01943433
2.24100,-4.259757428
2.24150,-32.64283734
2.24200,-63.77266693
2.24250,-81.16874817
2.24300,-77.20122087
2.24350,-61.94150048
2.24400,-42.10386398
2.24450,-17.38311696
2.24500,5.506463619
2.24550,6.422046842
2.24600,-21.04544985
2.24650,-56.14280674
2.24700,-74.14927679
2.24750,-76.59083205
2.24800,-84.22069225
2.24850,-104.0583287
2.24900,-119.9284379
2.24950,-116.5712995
2.25000,-98.56482941
2.25050,-81.77913698
2.25100,-74.75966561
2.25150,-70.18174949
2.25200,-56.44800114
2.25250,-34.16880938
2.25300,-14.63636729
2.25350,-6.701312689
2.25400,-7.616895912
2.25450,-10.9740344
2.25500,-16.77272814
2.25550,-25.31817156
2.25600,-29.59089327
2.25650,-22.26622748
2.25700,-7.006507097
2.25750,9.473990919
2.25800,33.27915472
2.25850,71.73365009
2.25900,112.3245063
2.25950,128.1946155
2.26000,108.0517846
2.26050,69.59728924
2.26100,35.41551557
2.26150,12.8311294
2.26200,0.9285475033
2.26250,2.75971395
2.26300,14.35710144
2.26350,20.766184
2.26400,13.44151822
2.26450,3.064908357
2.26500,2.454519542
2.26550,7.337630065
2.26600,7.94801888
2.26650,7.642824473
2.26700,14.35710144
2.26750,21.98696163
2.26800,17.10385111
2.26850,2.75971395
2.26900,-5.480535058
2.26950,-4.870146243
2.27000,-6.090923874
2.27050,-16.16233933
2.27100,-27.14933801
2.27150,-32.64283734
2.27200,-35.08439261
2.27250,-39.96750313
2.27300,-47.29216891
2.27350,-54.00644588
2.27400,-58.584362
2.27450,-59.19475081
2.27500,-54.31164029
2.27550,-50.95450181
2.27600,-54.6168347
2.27650,-60.11033404
2.27700,-55.83761233
2.27750,-42.40905839
2.27800,-28.37011564
2.27850,-15.85714492
2.27900,-0.9026189429
2.27950,11.91554618
2.28000,11.61035177
2.28050,0.3181586879
2.28100,-5.175340651
2.28150,6.72724125
2.28200,26.25968334
2.28250,36.6362932
2.28300,33.88954354
2.28350,25.64929453
2.28400,18.32462874
2.28450,12.8311294
2.28500,8.558407696
2.28550,4.590880396
2.28600,-0.9026189429
2.28650,-7.616895912
2.28700,-11.58442321
2.28750,-10.66883999
2.28800,-4.870146243
2.28850,3.064908357
2.28900,7.642824473
2.28950,2.454519542
2.29000,-11.2792288
2.29050,-25.92856037
2.29100,-35.08439261
2.29150,-40.57789194
2.29200,-43.01944721
2.29250,-40.88308635
2.29300,-33.86361497
2.29350,-25.92856037
2.29400,-16.46753374
2.29450,0.01296428019
2.29500,17.71423993
2.29550,22.59735045
2.29600,10.69476855
2.29650,-0.9026189429
2.29700,0.3181586879
2.29750,10.08437973
2.29800,18.01943433
2.29850,26.56487775
2.29900,39.68823728
2.29950,47.01290307
2.30000,36.6362932
2.30050,15.57787907
2.30100,3.98049158
2.30150,13.13632381
2.30200,38.77265406
2.30250,68.98690042
2.30300,87.60375929
2.30350,83.9414264
2.30400,71.12326127
2.30450,79.36351028
2.30500,118.4283945
2.30550,150.7790017
2.30600,129.1101987
2.30650,53.11679122
2.30700,-27.45453241
2.30750,-72.62330475
2.30800,-89.10380277
2.30850,-109.8570225
2.30900,-143.7336017
2.30950,-166.6231823
2.31000,-156.2465725
2.31050,-118.7076603
2.31100,-79.64277613
2.31150,-54.00644588
2.31200,-40.57789194
2.31250,-32.33764294
2.31300,-27.75972682
2.31350,-22.8766163
2.31400,-13.41558966
2.31450,-3.344174205
2.31500,-1.818202166
2.31550,-3.95456302
2.31600,9.168796511
2.31650,46.70770866
2.31700,89.43492574
2.31750,108.6621734
2.31800,97.06478593
2.31850,71.12326127
2.31900,50.37004155
2.31950,42.74018136
2.32000,44.87654221
2.32050,45.48693103
2.32100,35.72070998
2.32150,22.29215604
2.32200,19.54540637
2.32250,27.48046097
2.32300,27.17526657
2.32350,8.558407696
2.32400,-10.66883999
2.32450,-6.396118282
2.32500,21.68176723
2.32550,50.37004155
2.32600,61.05184582
2.32650,55.86354089
2.32700,42.74018136
2.32750,21.68176723
2.32800,-9.753256766
2.32850,-43.62983602
2.32900,-62.85708371
2.32950,-60.11033404
2.33000,-52.17527944
2.33050,-62.5518893
2.33100,-93.98691329
2.33150,-122.3699932
2.33200,-127.5582981
2.33250,-118.0972715
2.33300,-114.740133
2.33350,-124.5063541
2.33400,-135.7985471
2.33450,-139.46088
2.33500,-134.8829639
2.33550,-125.4219373
2.33600,-117.4868827
2.33650,-121.7596044
2.33700,-139.1556856
2.33750,-151.3634619
2.33800,-141.2920465
2.33850,-118.4024659
2.33900,-107.1102728
2.33950,-107.7206616
2.34000,-94.2921077
2.34050,-51.56489062
2.34100,0.3181586879
2.34150,31.75318268
2.34200,40.2986261
2.34250,45.48693103
2.34300,60.44145701
2.34350,79.36351028
2.34400,89.43492574
2.34450,84.24662081
2.34500,66.54534516
2.34550,45.48693103
2.34600,31.75318268
2.34650,26.87007216
2.34700,19.85060078
2.34750,-0.2922301275
2.34800,-29.89608767
2.34850,-52.17527944
2.34900,-56.44800114
2.34950,-48.51294654
2.35000,-39.96750313
2.35050,-30.8116709
2.35100,-12.19481203
2.35150,22.59735045
2.35200,66.85053957
2.35250,101.3375076
2.35300,111.7141175
2.35350,100.4219244
2.35400,84.85700962
2.35450,77.53234384
2.35500,73.56481654
2.35550,60.1362626
2.35600,37.85707084
2.35650,20.766184
2.35700,15.27268467
2.35750,13.74671263
2.35800,9.473990919
2.35850,4.285685988
2.35900,-0.5974245352
2.35950,-13.41558966
2.36000,-34.7791982
2.36050,-49.12333536
2.36100,-39.35711431
2.36150,-10.9740344
2.36200,15.27268467
2.36250,27.78565538
2.36300,29.61682183
2.36350,26.87007216
2.36400,19.24021197
2.36450,7.032435657
2.36500,-5.785729466
2.36550,-18.60389459
2.36600,-32.33764294
2.36650,-44.85061365
2.36700,-47.59736332
2.36750,-35.38958701
2.36800,-12.50000644
2.36850,11.91554618
2.36900,29.00643301
2.36950,31.14279387
2.37000,16.18826789
2.37050,-4.564951835
2.37100,-15.55195051
2.37150,-12.80520084
2.37200,-10.36364558
2.37250,-17.38311696
2.37300,-20.12986663
2.37350,-1.513007758
2.37400,32.05837709
2.37450,58.91548497
2.37500,75.70117739
2.37550,103.7790629
2.37600,151.9997793
2.37650,196.8633572
2.37700,213.6490497
2.37750,208.7659391
2.37800,203.5776342
2.37850,196.8633572
2.37900,174.8893599
2.37950,142.8439471
2.38000,121.1751441
2.38050,112.3245063
2.38100,98.59075797
2.38150,74.17520535
2.38200,52.81159681
2.38250,40.90901491
2.38300,25.95448893
2.38350,5.506463619
2.38400,-6.090923874
2.38450,-4.564951835
2.38500,-6.701312689
2.38550,-23.79219952
2.38600,-42.40905839
2.38650,-49.42852977
2.38700,-51.25969621
2.38750,-56.14280674
2.38800,-54.6168347
2.38850,-39.05191991
2.38900,-28.98050445
2.38950,-43.01944721
2.39000,-61.63630608
2.39050,-43.62983602
2.39100,16.18826789
2.39150,75.39598298
2.39200,95.23361948
2.39250,82.41545436
2.39300,68.98690042
2.39350,64.1037899
2.39400,46.70770866
2.39450,3.675297173
2.39500,-46.07139128
2.39550,-72.92849916
2.39600,-70.79213831
2.39650,-61.94150048
2.39700,-64.68825015
2.39750,-68.65577745
2.39800,-49.73372418
2.39850,-0.9026189429
2.39900,61.35704023
2.39950,115.3764504
2.40000,149.5582241
2.40050,160.5452227
2.40100,148.9478352
2.40150,121.785533
2.40200,92.18167541
2.40250,65.62976194
2.40300,36.02590439
2.40350,-1.818202166
2.40400,-41.49347517
2.40450,-69.87655508
2.40500,-84.22069225
2.40550,-95.20769092
2.40600,-114.4349386
2.40650,-139.1556856
2.40700,-157.7725445
2.40750,-164.7920159
2.40800,-166.6231823
2.40850,-171.8114873
2.40900,-178.2205698
2.40950,-177.3049866
2.41000,-169.0647376
2.41050,-161.129683
2.41100,-153.4998228
2.41150,-134.2725751
2.41200,-100.0908014
2.41250,-65.60383338
2.41300,-41.18828076
2.41350,-19.21428341
2.41400,7.94801888
2.41450,29.61682183
2.41500,34.49993235
2.41550,36.94148761
2.41600,59.22067937
2.41650,93.70764744
2.41700,107.4413958
2.41750,88.82453692
2.41800,62.88301227
2.41850,55.86354089
2.41900,68.0713172
2.41950,83.33103758
2.42000,85.46739844
2.42050,61.66223464
2.42100,9.473990919
2.42150,-47.29216891
2.42200,-73.23369357
2.42250,-60.41552844
2.42300,-39.35711431
2.42350,-37.22075346
2.42400,-45.46100247
2.42450,-43.01944721
2.42500,-30.50647649
2.42550,-21.96103307
2.42600,-20.74025544
2.42650,-19.21428341
2.42700,-17.07792255
2.42750,-18.909089
2.42800,-17.99350577
2.42850,-3.038979797
2.42900,22.90254486
2.42950,44.5713478
2.43000,51.28562477
2.43050,43.65576458
2.43100,26.25968334
2.43150,0.3181586879
2.43200,-28.06492123
2.43250,-51.87008503
2.43300,-67.43499982
2.43350,-75.06486001
2.43400,-72.31811035
2.43450,-57.66877878
2.43500,-38.7467255
2.43550,-27.75972682
2.43600,-26.23375478
2.43650,-20.43506104
2.43700,-3.95456302
2.43750,8.863602104
2.43800,0.6233530956
2.43850,-22.57142189
2.43900,-32.64283734
2.43950,-11.88961762
2.44000,26.56487775
2.44050,55.25315207
2.44100,63.79859549
2.44150,63.18820667
2.44200,65.01937312
2.44250,66.85053957
2.44300,61.66223464
2.44350,48.5388751
2.44400,33.88954354
2.44450,17.10385111
2.44500,-7.616895912
2.44550,-42.7142528
2.44600,-77.50641528
2.44650,-96.12327415
2.44700,-92.46094125
2.44750,-75.98044324
2.44800,-59.80513963
2.44850,-48.51294654
2.44900,-35.08439261
2.44950,-11.88961762
2.45000,18.01943433
2.45050,45.79212544
2.45100,62.27262345
2.45150,66.85053957
2.45200,67.46092838
2.45250,74.78559417
2.45300,92.79206422
2.45350,115.071256
2.45400,132.1621428
2.45450,139.792003
2.45500,136.4348645
2.45550,124.2270882
2.45600,107.4413958
2.45650,91.57128659
2.45700,72.64923331
2.45750,44.87654221
2.45800,15.57787907
2.45850,6.72724125
2.45900,27.78565538
2.45950,59.22067937
2.46000,75.09078857
2.46050,71.42845568
2.46100,61.35704023
2.46150,51.89601359
2.46200,39.38304287
2.46250,25.95448893
2.46300,17.10385111
2.46350,7.94801888
2.46400,-9.448062359
2.46450,-29.89608767
2.46500,-36.91555905
2.46550,-25.62336597
2.46600,-1.818202166
2.46650,32.6687659
2.46700,75.39598298
2.46750,106.831007
2.46800,105.9154238
2.46850,83.33103758
2.46900,68.98690042
2.46950,70.51287246
2.47000,66.54534516
2.47050,43.65576458
2.47100,16.4934623
2.47150,-0.5974245352
2.47200,-11.58442321
2.47250,-17.38311696
2.47300,-6.701312689
2.47350,16.7986567
2.47400,23.20773927
2.47450,-6.701312689
2.47500,-54.31164029
2.47550,-87.27263632
2.47600,-100.3959959
2.47650,-107.7206616
2.47700,-110.4674113
2.47750,-99.78560704
2.47800,-79.94797054
2.47850,-68.04538864
2.47900,-71.40252712
2.47950,-80.25316495
2.48000,-82.69472021
2.48050,-76.28563765
2.48100,-68.04538864
2.48150,-65.60383338
2.48200,-65.60383338
2.48250,-52.78566825
2.48300,-20.12986663
2.48350,9.473990919
2.48400,5.811658027
2.48450,-28.06492123
2.48500,-52.48047384
2.48550,-39.35711431
2.48600,-6.396118282
2.48650,13.13632381
2.48700,18.93501756
2.48750,33.27915472
2.48800,63.49340108
2.48850,93.70764744
2.48900,110.4933399
2.48950,118.1232001
2.49000,124.2270882
2.49050,125.1426714
2.49100,111.1037287
2.49150,81.19467673
2.49200,54.64276326
2.49250,56.77912411
2.49300,92.18167541
2.49350,133.077726
2.49400,145.5906968
2.49450,127.5842267
2.49500,109.2725622
2.49550,113.8504784
2.49600,130.025782
2.49650,130.3309764
2.49700,103.4738685
2.49750,61.96742904
2.49800,25.64929453
2.49850,3.370102765
2.49900,-11.88961762
2.49950,-30.8116709
2.50000,-49.42852977
2.50050,-51.87008503
2.50100,-32.03244853
2.50150,-8.837673543
2.50200,-3.344174205
2.50250,-10.66883999
2.50300,-8.837673543
2.50350,8.863602104
2.50400,29.92201623
2.50450,42.12979254
2.50500,47.31809747
2.50550,50.98043037
2.50600,58.91548497
2.50650,77.83753824
2.50700,104.9998405
2.50750,119.0387833
2.50800,101.3375076
2.50850,64.71417871
2.50900,38.46745965
2.50950,30.83759946
2.51000,23.51293367
2.51050,4.590880396
2.51100,-15.55195051
2.51150,-26.8441436
2.51200,-31.42205971
2.51250,-33.86361497
2.51300,-32.64283734
2.51350,-29.28569886
2.51400,-29.59089327
2.51450,-29.28569886
2.51500,-18.909089
2.51550,-2.123396574
2.51600,7.032435657
2.51650,5.201269211
2.51700,1.233741911
2.51750,-5.175340651
2.51800,-26.8441436
2.51850,-61.02591726
2.51900,-85.44146988
2.51950,-87.88302514
2.52000,-82.08433139
2.52050,-80.86355376
2.52100,-74.4544712
2.52150,-48.51294654
2.52200,-6.396118282
2.52250,39.07784847
2.52300,86.38298166
2.52350,134.6036981
2.52400,171.8374158
2.52450,184.9607753
2.52500,177.6361096
2.52550,163.5971668
2.52600,146.50628
2.52650,119.0387833
2.52700,77.53234384
2.52750,25.34410012
2.52800,-30.20128208
2.52850,-78.11680409
2.52900,-101.0063847
2.52950,-91.54535803
2.53000,-64.99344456
2.53050,-45.46100247
2.53100,-39.96750313
2.53150,-37.83114227
2.53200,-33.86361497
2.53250,-32.33764294
2.53300,-35.99997583
2.53350,-36.91555905
2.53400,-31.72725412
2.53450,-28.06492123
2.53500,-29.89608767
2.53550,-26.8441436
2.53600,-8.227284728
2.53650,18.01943433
2.53700,34.49993235
2.53750,37.24668202
2.53800,39.07784847
2.53850,50.98043037
2.53900,70.51287246
2.53950,89.12973133
2.54000,102.2530909
2.54050,106.5258126
2.54100,102.2530909
2.54150,96.45439711
2.54200,95.23361948
2.54250,92.48686981
2.54300,77.53234384
2.54350,51.28562477
2.54400,21.98696163
2.54450,-11.58442321
2.54500,-60.72072285
2.54550,-117.7920771
2.54600,-156.5517669
2.54650,-163.2660438
2.54700,-153.1946284
2.54750,-148.0063235
2.54800,-149.2271011
2.54850,-146.4803514
2.54900,-138.5452968
2.54950,-129.9998534
2.55000,-117.1816883
2.55050,-91.85055244
2.55100,-54.00644588
2.55150,-9.142867951
2.55200,39.38304287
2.55250,84.55181521
2.55300,109.8829511
2.55350,104.6946461
2.55400,80.88948232
2.55450,61.35704023
2.55500,55.86354089
2.55550,57.38951293
2.55600,56.4739297
2.55650,47.92848629
2.55700,30.22721064
2.55750,3.98049158
2.55800,-23.48700511
2.55850,-46.07139128
2.55900,-63.46747252
2.55950,-78.11680409
2.56000,-85.74666428
2.56050,-82.99991461
2.56100,-76.89602646
2.56150,-78.72719291
2.56200,-83.91549784
2.56250,-73.84408238
2.56300,-43.93503043
2.56350,-13.72078407
2.56400,-3.649368612
2.56450,-11.88961762
2.56500,-25.01297715
2.56550,-40.88308635
2.56600,-65.29863897
2.56650,-91.85055244
2.56700,-104.973912
2.56750,-102.8375511
2.56800,-98.87002382
2.56850,-101.0063847
2.56900,-99.78560704
2.56950,-86.3570531
2.57000,-70.79213831
2.57050,-68.04538864
2.57100,-80.25316495
2.57150,-95.81807974
2.57200,-104.0583287
2.57250,-99.78560704
2.57300,-85.44146988
2.57350,-69.57136068
2.57400,-61.02591726
2.57450,-58.88955641
2.57500,-55.22722351
2.57550,-43.93503043
2.57600,-26.53894919
2.57650,-5.785729466
2.57700,15.88307348
2.57750,34.19473794
2.57800,44.5713478
2.57850,54.33756885
2.57900,73.56481654
2.57950,96.45439711
2.58000,106.5258126
2.58050,98.28556356
2.58100,85.77259284
2.58150,81.49987114
2.58200,84.55181521
2.58250,89.74012014
2.58300,94.01284185
2.58350,90.35050896
2.58400,69.59728924
2.58450,35.41551557
2.58500,3.064908357
2.58550,-23.48700511
2.58600,-52.17527944
2.58650,-78.4219985
2.58700,-83.30510902
2.58750,-61.94150048
2.58800,-36.91555905
2.58850,-32.03244853
2.58900,-47.29216891
2.58950,-70.18174949
2.59000,-92.46094125
2.59050,-108.025856
2.59100,-111.6881889
2.59150,-110.4674113
2.59200,-118.0972715
2.59250,-131.8310198
2.59300,-132.1362143
2.59350,-115.9609106
2.59400,-105.2791064
2.59450,-110.7726057
2.59500,-108.6362449
2.59550,-76.59083205
2.59600,-30.50647649
2.59650,-3.649368612
2.59700,-0.9026189429
2.59750,-1.818202166
2.59800,3.064908357
2.59850,4.896074803
2.59900,-2.123396574
2.59950,-10.9740344
2.60000,-16.46753374
2.60050,-23.18181071
2.60100,-33.86361497
2.60150,-44.54541924
2.60200,-53.70125148
2.60250,-64.07786134
2.60300,-75.37005442
2.60350,-86.66224751
2.60400,-103.4479399
2.60450,-126.3375205
2.60500,-140.3764633
2.60550,-128.7790758
2.60600,-95.81807974
2.60650,-61.63630608
2.60700,-35.69478142
2.60750,-7.92209032
2.60800,26.56487775
2.60850,52.5064024
2.60900,54.03237444
2.60950,38.46745965
2.61000,28.7012386
2.61050,32.05837709
2.61100,32.97396031
2.61150,18.62982315
2.61200,2.149325134
2.61250,7.94801888
2.61300,32.6687659
2.61350,43.04537577
2.61400,15.57787907
2.61450,-28.67531004
2.61500,-51.56489062
2.61550,-41.79866957
2.61600,-21.65583867
2.61650,-5.480535058
2.61700,18.32462874
2.61750,57.08431852
2.61800,87.29856488
2.61850,82.72064877
2.61900,51.59081918
2.61950,27.48046097
2.62000,23.81812808
2.62050,24.4285169
2.62100,15.27268467
2.62150,5.201269211
2.62200,10.69476855
2.62250,29.92201623
2.62300,48.5388751
2.62350,57.99990174
2.62400,55.86354089
2.62450,39.99343169
2.62500,14.05190703
2.62550,-8.227284728
2.62600,-16.46753374
2.62650,-13.11039525
2.62700,-8.532479135
2.62750,-6.090923874
2.62800,-2.733785389
2.62850,0.3181586879
2.62900,1.844130726
2.62950,7.337630065
2.63000,19.85060078
2.63050,29.61682183
2.63100,20.766184
2.63150,-5.175340651
2.63200,-32.94803175
2.63250,-54.31164029
2.63300,-75.67524883
2.63350,-98.259635
2.63400,-111.6881889
2.63450,-107.7206616
2.63500,-94.90249651
2.63550,-86.3570531
2.63600,-82.3895258
2.63650,-71.70772153
2.63700,-48.81814095
2.63750,-24.70778274
2.63800,-18.29870018
2.63850,-36.91555905
2.63900,-64.68825015
2.63950,-78.11680409
2.64000,-74.14927679
2.64050,-74.14927679
2.64100,-90.62977481
2.64150,-107.1102728
2.64200,-103.7531343
2.64250,-90.01938599
2.64300,-90.93496921
2.64350,-104.0583287
2.64400,-100.7011903
2.64450,-68.35058304
2.64500,-25.31817156
2.64550,7.337630065
2.64600,31.75318268
2.64650,57.08431852
2.64700,81.80506554
2.64750,102.8634797
2.64800,124.837477
2.64850,146.50628
2.64900,154.746529
2.64950,139.792003
2.65000,112.6297007
2.65050,86.99337048
2.65100,62.57781786
2.65150,31.75318268
2.65200,0.3181586879
2.65250,-20.74025544
2.65300,-28.98050445
2.65350,-32.03244853
2.65400,-30.50647649
2.65450,-17.68831137
2.65500,10.38957414
2.65550,47.31809747
2.65600,83.9414264
2.65650,115.071256
2.65700,141.6231695
2.65750,167.8698885
2.65800,191.9802467
2.65850,196.5581628
2.65900,162.0711948
2.65950,93.40245304
2.66000,24.12332249
2.66050,-18.29870018
2.66100,-43.93503043
2.66150,-79.64277613
2.66200,-125.1167429
2.66250,-149.5322955
2.66300,-135.4933527
2.66350,-104.6687176
2.66400,-90.3245804
2.66450,-95.81807974
2.66500,-102.2271623
2.66550,-96.12327415
2.66600,-78.11680409
2.66650,-49.42852977
2.66700,-11.58442321
2.66750,21.37657282
2.66800,36.3310988
2.66850,41.51940373
2.66900,57.38951293
2.66950,81.80506554
2.67000,83.9414264
2.67050,46.70770866
2.67100,-7.311701505
2.67150,-49.73372418
2.67200,-82.08433139
2.67250,-122.6751876
2.67300,-168.4543488
2.67350,-189.8179573
2.67400,-169.369932
2.67450,-120.2336324
2.67500,-71.09733271
2.67550,-38.44153109
2.67600,-19.82467222
2.67650,-0.5974245352
2.67700,29.31162742
2.67750,63.18820667
2.67800,85.77259284
2.67850,91.26609218
2.67900,90.96089778
2.67950,90.96089778
2.68000,80.58428791
2.68050,53.72718004
2.68100,25.64929453
2.68150,13.44151822
2.68200,10.38957414
2.68250,0.9285475033
2.68300,-12.19481203
2.68350,-12.50000644
2.68400,3.98049158
2.68450,25.34410012
2.68500,48.84406951
2.68550,84.24662081
2.68600,126.6686435
2.68650,147.7270576
2.68700,129.4153931
2.68750,89.43492574
2.68800,57.69470734
2.68850,39.07784847
2.68900,16.18826789
2.68950,-15.55195051
2.69000,-40.57789194
2.69050,-46.07139128
2.69100,-42.10386398
2.69150,-41.49347517
2.69200,-35.99997583
2.69250,-9.753256766
2.69300,31.44798827
2.69350,63.79859549
2.69400,78.44792706
2.69450,93.70764744
2.69500,124.837477
2.69550,159.0192507
2.69600,173.0581934
2.69650,163.5971668
2.69700,146.2010856
2.69750,132.7725316
2.69800,119.6491721
2.69850,96.45439711
2.69900,55.86354089
2.69950,4.896074803
2.70000,-30.8116709
2.70050,-28.37011564
2.70100,0.3181586879
2.70150,12.22074059
2.70200,-18.60389459
2.70250,-71.09733271
2.70300,-107.7206616
2.70350,-117.1816883
2.70400,-110.4674113
2.70450,-89.71419158
2.70500,-50.03891858
2.70550,-1.207813351
2.70600,38.16226524
2.70650,63.18820667
2.70700,78.44792706
2.70750,85.46739844
2.70800,82.11025995
2.70850,74.17520535
2.70900,64.71417871
2.70950,47.01290307
2.71000,20.15579519
2.71050,3.064908357
2.71100,10.69476855
2.71150,27.17526657
2.71200,27.78565538
2.71250,15.27268467
2.71300,10.08437973
2.71350,8.253213288
2.71400,-10.05845117
2.71450,-39.66230872
2.71500,-48.20775214
2.71550,-24.40258834
2.71600,3.98049158
2.71650,15.57787907
2.71700,21.37657282
2.71750,42.12979254
2.71800,73.25962213
2.71850,96.45439711
2.71900,103.7790629
2.71950,97.36998034
2.72000,77.83753824
2.72050,47.62329188
2.72100,18.01943433
2.72150,-0.9026189429
2.72200,-8.837673543
2.72250,-10.36364558
2.72300,-6.396118282
2.72350,0.6233530956
2.72400,7.032435657
2.72450,12.525935
2.72500,22.90254486
2.72550,40.6038205
2.72600,60.44145701
2.72650,78.14273265
2.72700,96.45439711
2.72750,115.071256
2.72800,126.6686435
2.72850,126.9738379
2.72900,123.6166994
2.72950,127.8894211
2.73000,139.792003
2.73050,149.5582241
2.73100,147.1166688
2.73150,130.6361708
2.73200,102.5582853
2.73250,67.76612279
2.73300,28.7012386
2.73350,-10.66883999
2.73400,-43.32464161
2.73450,-60.41552844
2.73500,-61.94150048
2.73550,-56.75319555
2.73600,-49.12333536
2.73650,-36.91555905
2.73700,-25.01297715
2.73750,-27.45453241
2.73800,-47.90255773
2.73850,-66.5194166
2.73900,-61.33111167
2.73950,-35.38958701
2.74000,-8.837673543
2.74050,6.422046842
2.74100,11.61035177
2.74150,7.337630065
2.74200,-1.513007758
2.74250,-1.818202166
2.74300,10.08437973
2.74350,14.66229585
2.74400,-7.311701505
2.74450,-40.57789194
2.74500,-47.59736332
2.74550,-20.12986663
2.74600,12.525935
2.74650,28.3960442
2.74700,34.19473794
2.74750,43.04537577
2.74800,47.31809747
2.74850,33.58434913
2.74900,3.370102765
2.74950,-31.42205971
2.75000,-65.60383338
2.75050,-95.81807974
2.75100,-116.2661051
2.75150,-122.0647988
2.75200,-117.1816883
2.75250,-106.499884
2.75300,-89.40899718
2.75350,-66.21422219
2.75400,-43.32464161
2.75450,-28.67531004
2.75500,-23.18181071
2.75550,-19.21428341
2.75600,-7.006507097
2.75650,18.32462874
2.75700,51.28562477
2.75750,78.75312147
2.75800,96.14920271
2.75850,110.4933399
2.75900,120.5647553
2.75950,108.0517846
2.76000,62.57781786
2.76050,7.032435657
2.76100,-23.79219952
2.76150,-23.79219952
2.76200,-12.19481203
2.76250,0.3181586879
2.76300,22.29215604
2.76350,52.5064024
2.76400,69.29209483
2.76450,62.88301227
2.76500,55.25315207
2.76550,63.18820667
2.76600,67.15573397
2.76650,38.16226524
2.76700,-14.63636729
2.76750,-49.42852977
2.76800,-43.93503043
2.76850,-25.01297715
2.76900,-34.47400379
2.76950,-79.94797054
2.77000,-132.4414087
2.77050,-162.655655
2.77100,-168.4543488
2.77150,-164.7920159
2.77200,-158.6881277
2.77250,-140.0712689
2.77300,-99.17521822
2.77350,-44.24022484
2.77400,6.72724125
2.77450,44.87654221
2.77500,71.12326127
2.77550,84.55181521
2.77600,76.92195502
2.77650,47.31809747
2.77700,10.38957414
2.77750,-17.99350577
2.77800,-38.44153109
2.77850,-59.80513963
2.77900,-81.77913698
2.77950,-96.42846855
2.78000,-99.78560704
2.78050,-94.59730211
2.78100,-83.91549784
2.78150,-65.60383338
2.78200,-43.62983602
2.78250,-26.23375478
2.78300,-21.04544985
2.78350,-28.37011564
2.78400,-43.62983602
2.78450,-61.33111167
2.78500,-71.09733271
2.78550,-64.07786134
2.78600,-40.88308635
2.78650,-13.11039525
2.78700,7.642824473
2.78750,20.15579519
2.78800,28.3960442
2.78850,34.49993235
2.78900,39.38304287
2.78950,45.48693103
2.79000,52.5064024
2.79050,57.69470734
2.79100,56.4739297
2.79150,46.09731984
2.79200,31.14279387
2.79250,18.93501756
2.79300,12.22074059
2.79350,3.064908357
2.79400,-18.60389459
2.79450,-53.39605707
2.79500,-87.57783073
2.79550,-112.6037722
2.79600,-133.0517975
2.79650,-155.6361836
2.79700,-172.1166817
2.79750,-166.6231823
2.79800,-135.7985471
2.79850,-89.40899718
2.79900,-38.44153109
2.79950,8.863602104
2.80000,43.96095899
2.80050,63.18820667
2.80100,76.61676061
2.80150,94.01284185
2.80200,107.7465902
2.80250,102.2530909
2.80300,85.16220403
2.80350,83.33103758
2.80400,101.642702
2.80450,108.0517846
2.80500,77.22714943
2.80550,25.64929453
2.80600,-10.36364558
2.80650,-21.04544985
2.80700,-26.23375478
2.80750,-39.66230872
2.80800,-53.09086266
2.80850,-58.88955641
2.80900,-63.46747252
2.80950,-73.53888798
2.81000,-82.69472021
2.81050,-83.61030343
2.81100,-80.55835935
2.81150,-82.08433139
2.81200,-83.61030343
2.81250,-74.14927679
2.81300,-53.70125148
2.81350,-34.7791982
2.81400,-23.18181071
2.81450,-8.227284728
2.81500,19.85060078
2.81550,56.77912411
2.81600,83.9414264
2.81650,89.74012014
2.81700,79.66870469
2.81750,68.37651161
2.81800,66.85053957
2.81850,74.48039976
2.81900,83.63623199
2.81950,85.16220403
2.82000,76.61676061
2.82050,62.57781786
2.82100,47.31809747
2.82150,26.87007216
2.82200,-6.090923874
2.82250,-51.87008503
2.82300,-98.259635
2.82350,-130.6102422
2.82400,-144.649185
2.82450,-146.7855458
2.82500,-141.5972409
2.82550,-124.5063541
2.82600,-91.54535803
2.82650,-50.34411299
2.82700,-18.29870018
2.82750,-8.532479135
2.82800,-18.60389459
2.82850,-34.47400379
2.82900,-39.66230872
2.82950,-28.06492123
2.83000,-4.259757428
2.83050,21.98696163
2.83100,40.90901491
2.83150,46.40251425
2.83200,36.94148761
2.83250,17.10385111
2.83300,-3.95456302
2.83350,-21.04544985
2.83400,-35.38958701
2.83450,-51.25969621
2.83500,-62.24669489
2.83550,-50.03891858
2.83600,-4.259757428
2.83650,56.4739297
2.83700,92.48686981
2.83750,76.92195502
2.83800,23.20773927
2.83850,-29.89608767
2.83900,-54.92202911
2.83950,-52.17527944
2.84000,-35.38958701
2.84050,-10.9740344
2.84100,19.24021197
2.84150,46.70770866
2.84200,57.38951293
2.84250,54.03237444
2.84300,55.55834648
2.84350,71.42845568
2.84400,90.04531455
2.84450,99.8115356
2.84500,114.1556728
2.84550,152.6101681
2.84600,200.8308845
2.84650,217.9217714
2.84700,185.5711642
2.84750,127.5842267
2.84800,72.95442772
2.84850,24.7337113
2.84900,-21.65583867
2.84950,-51.87008503
2.85000,-50.6493074
2.85050,-30.8116709
2.85100,-19.51947781
2.85150,-19.82467222
2.85200,-16.16233933
2.85250,-4.259757428
2.85300,7.337630065
2.85350,18.93501756
2.85400,37.55187643
2.85450,54.03237444
2.85500,50.67523596
2.85550,30.53240505
2.85600,16.7986567
2.85650,18.01943433
2.85700,19.85060078
2.85750,16.7986567
2.85800,21.98696163
2.85850,40.2986261
2.85900,53.72718004
2.85950,46.09731984
2.86000,30.22721064
2.86050,30.22721064
2.86100,50.37004155
2.86150,69.90248364
2.86200,66.85053957
2.86250,33.27915472
2.86300,-19.82467222
2.86350,-72.31811035
2.86400,-107.7206616
2.86450,-124.8115485
2.86500,-130.3050478
2.86550,-124.2011597
2.86600,-103.4479399
2.86650,-71.70772153
2.86700,-40.27269754
2.86750,-14.9415617
2.86800,8.253213288
2.86850,32.6687659
2.86900,56.4739297
2.86950,75.39598298
2.87000,86.07778725
2.87050,88.21414811
2.87100,83.33103758
2.87150,76.0063718
2.87200,66.24015075
2.87250,51.59081918
2.87300,35.41551557
2.87350,26.87007216
2.87400,27.48046097
2.87450,26.87007216
2.87500,17.10385111
2.87550,4.896074803
2.87600,0.01296428019
2.87650,-1.207813351
2.87700,-3.038979797
2.87750,-1.513007758
2.87800,9.473990919
2.87850,23.81812808
2.87900,27.78565538
2.87950,20.4609896
2.88000,14.66229585
2.88050,22.29215604
2.88100,40.6038205
2.88150,55.86354089
2.88200,59.22067937
2.88250,57.99990174
2.88300,69.29209483
2.88350,100.11673
2.88400,132.1621428
2.88450,137.0452533
2.88500,112.6297007
2.88550,83.9414264
2.88600,70.51287246
2.88650,62.27262345
2.88700,42.43498695
2.88750,19.85060078
2.88800,16.18826789
2.88850,30.53240505
2.88900,34.80512676
2.88950,11.61035177
2.89000,-22.8766163
2.89050,-42.7142528
2.89100,-48.51294654
2.89150,-64.68825015
2.89200,-103.7531343
2.89250,-146.7855458
2.89300,-164.7920159
2.89350,-147.701129
2.89400,-110.1622169
2.89450,-70.18174949
2.89500,-35.08439261
2.89550,-4.259757428
2.89600,18.93501756
2.89650,28.09084979
2.89700,23.81812808
2.89750,18.32462874
2.89800,23.51293367
2.89850,37.85707084
2.89900,51.28562477
2.89950,61.05184582
2.90000,73.87001094
2.90050,91.26609218
2.90100,99.50634119
2.90150,83.9414264
2.90200,51.59081918
2.90250,24.7337113
2.90300,17.71423993
2.90350,25.34410012
2.90400,39.38304287
2.90450,58.61029056
2.90500,79.9738991
2.90550,89.43492574
2.90600,76.92195502
2.90650,55.86354089
2.90700,48.5388751
2.90750,52.5064024
2.90800,43.65576458
2.90850,14.96749026
2.90900,-5.785729466
2.90950,6.116852434
2.91000,34.19473794
2.91050,37.55187643
2.91100,3.98049158
2.91150,-39.96750313
2.91200,-68.35058304
2.91250,-83.91549784
2.91300,-100.0908014
2.91350,-115.9609106
2.91400,-123.8959652
2.91450,-125.7271317
2.91500,-128.168687
2.91550,-131.5258254
2.91600,-133.3569919
2.91650,-136.7141304
2.91700,-137.934908
2.91750,-119.0128547
2.91800,-68.04538864
2.91850,-1.513007758
2.91900,52.201208
2.91950,83.02584317
2.92000,97.98036915
2.92050,100.4219244
2.92100,88.82453692
2.92150,74.78559417
2.92200,77.83753824
2.92250,98.59075797
2.92300,114.7660616
2.92350,110.4933399
2.92400,95.23361948
2.92450,82.41545436
2.92500,72.64923331
2.92550,59.83106819
2.92600,42.74018136
2.92650,20.15579519
2.92700,-8.837673543
2.92750,-35.38958701
2.92800,-42.40905839
2.92850,-29.89608767
2.92900,-21.96103307
2.92950,-35.08439261
2.93000,-56.44800114
2.93050,-63.46747252
2.93100,-57.05838996
2.93150,-51.25969621
2.93200,-46.37658569
2.93250,-29.59089327
2.93300,-4.259757428
2.93350,6.116852434
2.93400,-8.532479135
2.93450,-28.06492123
2.93500,-26.8441436
2.93550,-7.006507097
