type,name,time_units,begin_time,frequency,count,units
signal,"Noraxon MyoMotion-Segments-Forearm RT-Pitch","s",0.0000,200,5008,"deg"

time,value
0.0000,9.964862104
0.0050,9.963015207
0.0100,9.961168401
0.0150,9.959321687
0.0200,9.957379448
0.0250,9.955356476
0.0300,9.953267404
0.0350,9.951126854
0.0400,9.948949921
0.0450,9.946752642
0.0500,9.944551539
0.0550,9.942362511
0.0600,9.940200221
0.0650,9.938078278
0.0700,9.936009307
0.0750,9.934004434
0.0800,9.932073216
0.0850,9.930224322
0.0900,9.928466026
0.0950,9.926806068
0.1000,9.925251447
0.1050,9.92380857
0.1100,9.922483366
0.1150,9.921280846
0.1200,9.92020426
0.1250,9.91925409
0.1300,9.918427285
0.1350,9.917716951
0.1400,9.917112679
0.1450,9.916601267
0.1500,9.916166964
0.1550,9.91480173
0.1600,9.913620793
0.1650,9.912627841
0.1700,9.911760279
0.1750,9.910769867
0.1800,9.909957789
0.1850,9.909063099
0.1900,9.90819848
0.1950,9.907438598
0.2000,9.906867282
0.2050,9.906322092
0.2100,9.905951722
0.2150,9.905443261
0.2200,9.905061802
0.2250,9.904823267
0.2300,9.904593217
0.2350,9.904398745
0.2400,9.904337953
0.2450,9.904462338
0.2500,9.90484948
0.2550,9.905217553
0.2600,9.905897061
0.2650,9.906812053
0.2700,9.908077792
0.2750,9.909605541
0.2800,9.91141415
0.2850,9.913563771
0.2900,9.915936028
0.2950,9.918674042
0.3000,9.921829157
0.3050,9.925364649
0.3100,9.92927113
0.3150,9.93340438
0.3200,9.93792317
0.3250,9.942767574
0.3300,9.947900767
0.3350,9.95323473
0.3400,9.958900112
0.3450,9.964760009
0.3500,9.970706063
0.3550,9.976738582
0.3600,9.982764201
0.3650,9.988786197
0.3700,9.994754959
0.3750,10.00060678
0.3800,10.00645728
0.3850,10.01219024
0.3900,10.01786041
0.3950,10.0232575
0.4000,10.02839738
0.4050,10.03325596
0.4100,10.03785235
0.4150,10.04216423
0.4200,10.04615493
0.4250,10.04976617
0.4300,10.05324035
0.4350,10.05630858
0.4400,10.05917942
0.4450,10.0616403
0.4500,10.06386668
0.4550,10.06569232
0.4600,10.06715929
0.4650,10.06843836
0.4700,10.06948119
0.4750,10.07046028
0.4800,10.07126673
0.4850,10.07198192
0.4900,10.07276218
0.4950,10.07349911
0.5000,10.07442633
0.5050,10.07559125
0.5100,10.0770256
0.5150,10.07900991
0.5200,10.08153186
0.5250,10.08455203
0.5300,10.0883285
0.5350,10.09294968
0.5400,10.09848859
0.5450,10.10479301
0.5500,10.1120425
0.5550,10.12044394
0.5600,10.13003435
0.5650,10.14073217
0.5700,10.15277167
0.5750,10.1661895
0.5800,10.18092457
0.5850,10.19702634
0.5900,10.21444658
0.5950,10.23322999
0.6000,10.25313917
0.6050,10.27425095
0.6100,10.29653003
0.6150,10.32003244
0.6200,10.34450734
0.6250,10.37012737
0.6300,10.39666886
0.6350,10.42400701
0.6400,10.45209253
0.6450,10.48075936
0.6500,10.51008731
0.6550,10.54000253
0.6600,10.57028385
0.6650,10.60082842
0.6700,10.63162031
0.6750,10.66252069
0.6800,10.69326517
0.6850,10.72387575
0.6900,10.75428304
0.6950,10.78435291
0.7000,10.81405817
0.7050,10.84343701
0.7100,10.87231987
0.7150,10.90063999
0.7200,10.92839345
0.7250,10.95562208
0.7300,10.98205265
0.7350,11.00787326
0.7400,11.03296923
0.7450,11.05746541
0.7500,11.08154911
0.7550,11.1050902
0.7600,11.12826375
0.7650,11.15117877
0.7700,11.17381747
0.7750,11.19623203
0.7800,11.21863418
0.7850,11.2408528
0.7900,11.26296112
0.7950,11.28482379
0.8000,11.30638707
0.8050,11.32762154
0.8100,11.34870692
0.8150,11.369463
0.8200,11.3900499
0.8250,11.4104308
0.8300,11.43049195
0.8350,11.45025865
0.8400,11.46989627
0.8450,11.48957095
0.8500,11.50908375
0.8550,11.52866382
0.8600,11.54830342
0.8650,11.56815653
0.8700,11.58815745
0.8750,11.60825769
0.8800,11.62866382
0.8850,11.64941598
0.8900,11.67065581
0.8950,11.69219648
0.9000,11.7143115
0.9050,11.73687202
0.9100,11.75987891
0.9150,11.78338548
0.9200,11.80726908
0.9250,11.8314961
0.9300,11.85608954
0.9350,11.88121151
0.9400,11.90663906
0.9450,11.93239828
0.9500,11.9585564
0.9550,11.9848353
0.9600,12.01147928
0.9650,12.03851844
0.9700,12.06580455
0.9750,12.09347463
0.9800,12.12160398
0.9850,12.15031102
0.9900,12.17947449
0.9950,12.20916257
1.0000,12.23963015
1.0050,12.27072876
1.0100,12.30249523
1.0150,12.33501071
1.0200,12.36806306
1.0250,12.40165203
1.0300,12.43575352
1.0350,12.47033795
1.0400,12.50530204
1.0450,12.54058958
1.0500,12.57602985
1.0550,12.61179204
1.0600,12.64773205
1.0650,12.68381872
1.0700,12.720206
1.0750,12.75683782
1.0800,12.79374465
1.0850,12.83109872
1.0900,12.86897918
1.0950,12.90751648
1.1000,12.94685264
1.1050,12.98694362
1.1100,13.02777987
1.1150,13.06959063
1.1200,13.11237566
1.1250,13.15629888
1.1300,13.20148485
1.1350,13.24801803
1.1400,13.29593765
1.1450,13.34548214
1.1500,13.39701179
1.1550,13.45040969
1.1600,13.50602772
1.1650,13.56384234
1.1700,13.62415802
1.1750,13.68719255
1.1800,13.75325846
1.1850,13.82249566
1.1900,13.89522634
1.1950,13.97162996
1.2000,14.05209884
1.2050,14.13671321
1.2100,14.22585659
1.2150,14.31954941
1.2200,14.41794405
1.2250,14.52113358
1.2300,14.62934716
1.2350,14.74257093
1.2400,14.86076524
1.2450,14.98429696
1.2500,15.11306567
1.2550,15.24705925
1.2600,15.38632573
1.2650,15.53068762
1.2700,15.68033612
1.2750,15.83509742
1.2800,15.99480578
1.2850,16.15946755
1.2900,16.32893897
1.2950,16.50313128
1.3000,16.6817358
1.3050,16.86471196
1.3100,17.05179313
1.3150,17.24277875
1.3200,17.43774411
1.3250,17.63660988
1.3300,17.83921168
1.3350,18.04546284
1.3400,18.25547474
1.3450,18.46883224
1.3500,18.68557332
1.3550,18.90558408
1.3600,19.12877286
1.3650,19.3549195
1.3700,19.58389606
1.3750,19.81558358
1.3800,20.04980946
1.3850,20.28639836
1.3900,20.52537403
1.3950,20.76656471
1.4000,21.00988958
1.4050,21.25535066
1.4100,21.50273023
1.4150,21.75210866
1.4200,22.00335016
1.4250,22.25624978
1.4300,22.51079282
1.4350,22.76694698
1.4400,23.02469058
1.4450,23.28372067
1.4500,23.54395798
1.4550,23.80549603
1.4600,24.06799779
1.4650,24.33170174
1.4700,24.59637225
1.4750,24.86207284
1.4800,25.12848026
1.4850,25.39553364
1.4900,25.6630825
1.4950,25.93111825
1.5000,26.19950774
1.5050,26.46830194
1.5100,26.7374843
1.5150,27.0067219
1.5200,27.27634538
1.5250,27.54616292
1.5300,27.81602212
1.5350,28.08587806
1.5400,28.35584026
1.5450,28.62562798
1.5500,28.89516985
1.5550,29.16460181
1.5600,29.43379618
1.5650,29.70272905
1.5700,29.97129539
1.5750,30.23957189
1.5800,30.50753326
1.5850,30.77505868
1.5900,31.04211489
1.5950,31.30872809
1.6000,31.5747674
1.6050,31.84040926
1.6100,32.10567276
1.6150,32.37057299
1.6200,32.63498772
1.6250,32.89892043
1.6300,33.16245717
1.6350,33.42550194
1.6400,33.68780521
1.6450,33.94956269
1.6500,34.21079604
1.6550,34.47151519
1.6600,34.73152597
1.6650,34.99117663
1.6700,35.25023142
1.6750,35.50869532
1.6800,35.76647649
1.6850,36.02355038
1.6900,36.27976143
1.6950,36.53531296
1.7000,36.79004212
1.7050,37.04385194
1.7100,37.29678801
1.7150,37.54854467
1.7200,37.79909134
1.7250,38.04837612
1.7300,38.29636724
1.7350,38.54302851
1.7400,38.78844875
1.7450,39.03271612
1.7500,39.27574943
1.7550,39.51754305
1.7600,39.75805213
1.7650,39.99704141
1.7700,40.23441551
1.7750,40.47010891
1.7800,40.70406106
1.7850,40.93634616
1.7900,41.16678339
1.7950,41.39548288
1.8000,41.62219836
1.8050,41.84688118
1.8100,42.06936139
1.8150,42.28979814
1.8200,42.50813481
1.8250,42.72428519
1.8300,42.93840978
1.8350,43.15030975
1.8400,43.36018639
1.8450,43.56800256
1.8500,43.77377731
1.8550,43.97762449
1.8600,44.17951471
1.8650,44.37967531
1.8700,44.57816935
1.8750,44.77497868
1.8800,44.97015372
1.8850,45.16384773
1.8900,45.35604793
1.8950,45.54689356
1.9000,45.73675434
1.9050,45.92536457
1.9100,46.11271273
1.9150,46.29894922
1.9200,46.48404644
1.9250,46.66789149
1.9300,46.85037905
1.9350,47.0314343
1.9400,47.21117478
1.9450,47.3896831
1.9500,47.56687377
1.9550,47.74274568
1.9600,47.9174276
1.9650,48.09071166
1.9700,48.26289608
1.9750,48.4339154
1.9800,48.60379713
1.9850,48.77264081
1.9900,48.94047381
1.9950,49.10699837
2.0000,49.27241239
2.0050,49.43684944
2.0100,49.60021762
2.0150,49.76263697
2.0200,49.92423062
2.0250,50.08501656
2.0300,50.24478083
2.0350,50.40372371
2.0400,50.56136534
2.0450,50.71782203
2.0500,50.87299375
2.0550,51.02684046
2.0600,51.17950398
2.0650,51.33105991
2.0700,51.4817853
2.0750,51.63162772
2.0800,51.78052045
2.0850,51.92840794
2.0900,52.07518382
2.0950,52.22079223
2.1000,52.36526784
2.1050,52.50856492
2.1100,52.65089025
2.1150,52.79212033
2.1200,52.93200501
2.1250,53.07049258
2.1300,53.20730402
2.1350,53.34260664
2.1400,53.47618457
2.1450,53.60826004
2.1500,53.7387787
2.1550,53.8678841
2.1600,53.99552045
2.1650,54.12153407
2.1700,54.24591366
2.1750,54.36871201
2.1800,54.4897369
2.1850,54.60880746
2.1900,54.72586848
2.1950,54.84094015
2.2000,54.95395441
2.2050,55.06484721
2.2100,55.17381641
2.2150,55.28069746
2.2200,55.38565303
2.2250,55.48867027
2.2300,55.58997014
2.2350,55.68966311
2.2400,55.78765954
2.2450,55.88387194
2.2500,55.97824215
2.2550,56.07075093
2.2600,56.16126937
2.2650,56.24995502
2.2700,56.33657609
2.2750,56.42123578
2.2800,56.50391794
2.2850,56.58480225
2.2900,56.66370092
2.2950,56.74074381
2.3000,56.81587494
2.3050,56.8888303
2.3100,56.95938138
2.3150,57.02733215
2.3200,57.09276498
2.3250,57.15560646
2.3300,57.21607192
2.3350,57.27406004
2.3400,57.32984149
2.3450,57.38358389
2.3500,57.4353265
2.3550,57.48509045
2.3600,57.53272458
2.3650,57.57815986
2.3700,57.62102357
2.3750,57.66112679
2.3800,57.69864415
2.3850,57.73361543
2.3900,57.76595879
2.3950,57.79570797
2.4000,57.82286932
2.4050,57.84748679
2.4100,57.86929358
2.4150,57.8884878
2.4200,57.90505554
2.4250,57.91900635
2.4300,57.93018532
2.4350,57.93862938
2.4400,57.94425028
2.4450,57.94696152
2.4500,57.9468434
2.4550,57.9437137
2.4600,57.93779955
2.4650,57.92901338
2.4700,57.91738703
2.4750,57.90296413
2.4800,57.88620001
2.4850,57.86722896
2.4900,57.84633118
2.4950,57.82347249
2.5000,57.79862248
2.5050,57.77179501
2.5100,57.74275072
2.5150,57.71134767
2.5200,57.67725871
2.5250,57.64050408
2.5300,57.60104478
2.5350,57.55893613
2.5400,57.51440375
2.5450,57.4673837
2.5500,57.41803859
2.5550,57.36643351
2.5600,57.31278675
2.5650,57.25713214
2.5700,57.1997092
2.5750,57.14074092
2.5800,57.08014546
2.5850,57.01787324
2.5900,56.95390211
2.5950,56.88833638
2.6000,56.8210275
2.6050,56.75211044
2.6100,56.68182348
2.6150,56.61032767
2.6200,56.53722388
2.6250,56.46258679
2.6300,56.38639778
2.6350,56.30856784
2.6400,56.22906997
2.6450,56.14772959
2.6500,56.06476635
2.6550,55.98005502
2.6600,55.89369103
2.6650,55.80570098
2.6700,55.71640898
2.6750,55.62579422
2.6800,55.53413707
2.6850,55.4414895
2.6900,55.3477299
2.6950,55.25281028
2.7000,55.15678143
2.7050,55.05936044
2.7100,54.96050358
2.7150,54.86016279
2.7200,54.75842818
2.7250,54.65520242
2.7300,54.5508806
2.7350,54.44544847
2.7400,54.33892537
2.7450,54.2313045
2.7500,54.12277111
2.7550,54.01333074
2.7600,53.90268973
2.7650,53.7911251
2.7700,53.67841132
2.7750,53.56480784
2.7800,53.45016549
2.7850,53.33465919
2.7900,53.21840079
2.7950,53.10120949
2.8000,52.98312864
2.8050,52.86415617
2.8100,52.74446493
2.8150,52.62392493
2.8200,52.50299665
2.8250,52.38160107
2.8300,52.25978877
2.8350,52.13794423
2.8400,52.01552002
2.8450,51.89269096
2.8500,51.76937003
2.8550,51.64539325
2.8600,51.52059519
2.8650,51.39482768
2.8700,51.26835905
2.8750,51.14082966
2.8800,51.01248136
2.8850,50.88324274
2.8900,50.75322712
2.8950,50.62220542
2.9000,50.49054775
2.9050,50.35820876
2.9100,50.22510663
2.9150,50.09103949
2.9200,49.95615849
2.9250,49.82071037
2.9300,49.68477061
2.9350,49.5483447
2.9400,49.41146196
2.9450,49.27402692
2.9500,49.13619193
2.9550,48.99784028
2.9600,48.85922944
2.9650,48.72042351
2.9700,48.58154019
2.9750,48.44273799
2.9800,48.30394051
2.9850,48.16534043
2.9900,48.0269766
2.9950,47.88900615
3.0000,47.75116252
3.0050,47.61377461
3.0100,47.47685012
3.0150,47.34028661
3.0200,47.20416331
3.0250,47.06839798
3.0300,46.93284803
3.0350,46.79746937
3.0400,46.6625329
3.0450,46.52808292
3.0500,46.39394219
3.0550,46.2603192
3.0600,46.12726676
3.0650,45.99492366
3.0700,45.86357809
3.0750,45.73305611
3.0800,45.60357768
3.0850,45.47501826
3.0900,45.34745151
3.0950,45.22104583
3.1000,45.09564323
3.1050,44.97137596
3.1100,44.84823711
3.1150,44.72635925
3.1200,44.60557874
3.1250,44.48579636
3.1300,44.36711251
3.1350,44.24912583
3.1400,44.1320116
3.1450,44.01575513
3.1500,43.90031139
3.1550,43.78581817
3.1600,43.67232956
3.1650,43.55983459
3.1700,43.44798262
3.1750,43.3369022
3.1800,43.22642837
3.1850,43.11651638
3.1900,43.00710937
3.1950,42.89832124
3.2000,42.78983669
3.2050,42.68162602
3.2100,42.57369203
3.2150,42.46608031
3.2200,42.35862747
3.2250,42.25138585
3.2300,42.14401312
3.2350,42.03656572
3.2400,41.92917989
3.2450,41.82198997
3.2500,41.71483703
3.2550,41.6079189
3.2600,41.50106199
3.2650,41.39438443
3.2700,41.28768712
3.2750,41.18080202
3.2800,41.07392497
3.2850,40.96703282
3.2900,40.86012752
3.2950,40.75316148
3.3000,40.64643225
3.3050,40.53975418
3.3100,40.43318713
3.3150,40.32687798
3.3200,40.22089806
3.3250,40.11527818
3.3300,40.01018164
3.3350,39.90573199
3.3400,39.80177405
3.3450,39.69837861
3.3500,39.5957398
3.3550,39.49371131
3.3600,39.39260056
3.3650,39.29231646
3.3700,39.19276597
3.3750,39.09429644
3.3800,38.99683922
3.3850,38.90065775
3.3900,38.80556751
3.3950,38.71169011
3.4000,38.61904814
3.4050,38.52770023
3.4100,38.43746716
3.4150,38.34848088
3.4200,38.26070124
3.4250,38.17413553
3.4300,38.08856292
3.4350,38.00411914
3.4400,37.92076128
3.4450,37.83828019
3.4500,37.75669968
3.4550,37.67591543
3.4600,37.5958679
3.4650,37.51652476
3.4700,37.43773464
3.4750,37.35955899
3.4800,37.28203126
3.4850,37.20512074
3.4900,37.12883551
3.4950,37.05305401
3.5000,36.9778492
3.5050,36.90310479
3.5100,36.82869402
3.5150,36.75461262
3.5200,36.68083604
3.5250,36.6072134
3.5300,36.53385856
3.5350,36.46060423
3.5400,36.38731355
3.5450,36.31379933
3.5500,36.23999025
3.5550,36.16585154
3.5600,36.09119349
3.5650,36.01612565
3.5700,35.94056409
3.5750,35.86457019
3.5800,35.78798515
3.5850,35.7105331
3.5900,35.63235928
3.5950,35.55313909
3.6000,35.47290819
3.6050,35.39181813
3.6100,35.3098966
3.6150,35.22707184
3.6200,35.14333972
3.6250,35.05896055
3.6300,34.9736931
3.6350,34.88771304
3.6400,34.80120428
3.6450,34.71419351
3.6500,34.6266496
3.6550,34.53870379
3.6600,34.45031649
3.6650,34.36151411
3.6700,34.27257797
3.6750,34.18320968
3.6800,34.09369264
3.6850,34.00389431
3.6900,33.914133
3.6950,33.82416849
3.7000,33.73431275
3.7050,33.64459555
3.7100,33.55518286
3.7150,33.46617249
3.7200,33.37758308
3.7250,33.28955462
3.7300,33.20212086
3.7350,33.11533328
3.7400,33.02946705
3.7450,32.94455691
3.7500,32.86076158
3.7550,32.77826686
3.7600,32.69713812
3.7650,32.61749363
3.7700,32.53955036
3.7750,32.46328748
3.7800,32.3886096
3.7850,32.31574096
3.7900,32.24454829
3.7950,32.17512403
3.8000,32.10734749
3.8050,32.04133309
3.8100,31.97696346
3.8150,31.91431311
3.8200,31.85324337
3.8250,31.7937145
3.8300,31.73567098
3.8350,31.67930511
3.8400,31.62438246
3.8450,31.57091546
3.8500,31.51875638
3.8550,31.46799534
3.8600,31.41874492
3.8650,31.37089169
3.8700,31.32432285
3.8750,31.27911667
3.8800,31.23523397
3.8850,31.1927296
3.8900,31.15150681
3.8950,31.11173918
3.9000,31.07344448
3.9050,31.03637353
3.9100,31.00057991
3.9150,30.96599214
3.9200,30.93269052
3.9250,30.90049605
3.9300,30.86970263
3.9350,30.84021477
3.9400,30.81202245
3.9450,30.78504851
3.9500,30.75942179
3.9550,30.7350359
3.9600,30.71199772
3.9650,30.69047084
3.9700,30.67045611
3.9750,30.65212765
3.9800,30.63551591
3.9850,30.62055145
3.9900,30.60735549
3.9950,30.59604039
4.0000,30.58661262
4.0050,30.5789171
4.0100,30.57310176
4.0150,30.56916219
4.0200,30.56707372
4.0250,30.56678722
4.0300,30.5683764
4.0350,30.57179648
4.0400,30.57699066
4.0450,30.58390658
4.0500,30.59255246
4.0550,30.60278041
4.0600,30.61456788
4.0650,30.62785315
4.0700,30.64266605
4.0750,30.65892003
4.0800,30.67671689
4.0850,30.69589103
4.0900,30.7164132
4.0950,30.73805393
4.1000,30.76094835
4.1050,30.78493552
4.1100,30.81023484
4.1150,30.83662337
4.1200,30.86422208
4.1250,30.89286552
4.1300,30.92246451
4.1350,30.95282435
4.1400,30.98420669
4.1450,31.01640256
4.1500,31.04958531
4.1550,31.0835638
4.1600,31.11830492
4.1650,31.15366296
4.1700,31.18976699
4.1750,31.22669654
4.1800,31.26446697
4.1850,31.30313365
4.1900,31.34265662
4.1950,31.38320255
4.2000,31.4246155
4.2050,31.46701029
4.2100,31.51036949
4.2150,31.55486353
4.2200,31.60031647
4.2250,31.64696542
4.2300,31.69468181
4.2350,31.74331627
4.2400,31.79304815
4.2450,31.84384452
4.2500,31.89570339
4.2550,31.94870726
4.2600,32.00278721
4.2650,32.05787857
4.2700,32.11383576
4.2750,32.17087103
4.2800,32.22875209
4.2850,32.2877056
4.2900,32.34746759
4.2950,32.40810653
4.3000,32.46957548
4.3050,32.53191731
4.3100,32.59502944
4.3150,32.65887904
4.3200,32.72346089
4.3250,32.78887734
4.3300,32.85506103
4.3350,32.92205374
4.3400,32.98985408
4.3450,33.05836695
4.3500,33.12768094
4.3550,33.19766692
4.3600,33.26836657
4.3650,33.33958676
4.3700,33.41136133
4.3750,33.4837333
4.3800,33.5565974
4.3850,33.62988326
4.3900,33.70365958
4.3950,33.77811391
4.4000,33.85306688
4.4050,33.92854358
4.4100,34.00449896
4.4150,34.08082585
4.4200,34.15765917
4.4250,34.23483071
4.4300,34.31254579
4.4350,34.39074002
4.4400,34.46939754
4.4450,34.54860593
4.4500,34.62831553
4.4550,34.70862977
4.4600,34.78954341
4.4650,34.87116501
4.4700,34.95344537
4.4750,35.03627306
4.4800,35.11976397
4.4850,35.20377771
4.4900,35.28840488
4.4950,35.37340001
4.5000,35.45877333
4.5050,35.54469241
4.5100,35.63122838
4.5150,35.71809976
4.5200,35.8054944
4.5250,35.8932854
4.5300,35.98144316
4.5350,36.07009417
4.5400,36.15897563
4.5450,36.24822822
4.5500,36.33770577
4.5550,36.42763685
4.5600,36.51793516
4.5650,36.6087866
4.5700,36.70002297
4.5750,36.7915837
4.5800,36.88350462
4.5850,36.97565021
4.5900,37.06818186
4.5950,37.16128937
4.6000,37.25474912
4.6050,37.34850914
4.6100,37.44282712
4.6150,37.53749507
4.6200,37.6324614
4.6250,37.7278513
4.6300,37.82367903
4.6350,37.91983189
4.6400,38.01631673
4.6450,38.11315563
4.6500,38.21030893
4.6550,38.30797497
4.6600,38.40614519
4.6650,38.50494466
4.6700,38.60439202
4.6750,38.7045593
4.6800,38.80547365
4.6850,38.90715828
4.6900,39.00952134
4.6950,39.11255879
4.7000,39.21626922
4.7050,39.32071031
4.7100,39.4258412
4.7150,39.53186743
4.7200,39.63855817
4.7250,39.74621336
4.7300,39.85475237
4.7350,39.96426868
4.7400,40.07462048
4.7450,40.18593626
4.7500,40.2979521
4.7550,40.41086285
4.7600,40.52456279
4.7650,40.63903085
4.7700,40.75436071
4.7750,40.8706206
4.7800,40.9876931
4.7850,41.10587049
4.7900,41.22510731
4.7950,41.34555528
4.8000,41.46724824
4.8050,41.59007069
4.8100,41.71395045
4.8150,41.83895786
4.8200,41.96502305
4.8250,42.09192801
4.8300,42.21955956
4.8350,42.34796533
4.8400,42.47721557
4.8450,42.60714558
4.8500,42.73780553
4.8550,42.86886043
4.8600,43.00047437
4.8650,43.13249599
4.8700,43.26510083
4.8750,43.3984141
4.8800,43.53239671
4.8850,43.66721718
4.8900,43.80256072
4.8950,43.93811246
4.9000,44.07388211
4.9050,44.20987237
4.9100,44.3457245
4.9150,44.48164151
4.9200,44.61767107
4.9250,44.75372681
4.9300,44.88983828
4.9350,45.02624032
4.9400,45.16275456
4.9450,45.29963996
4.9500,45.43670784
4.9550,45.57382579
4.9600,45.71099476
4.9650,45.84815738
4.9700,45.9852921
4.9750,46.12221683
4.9800,46.25901561
4.9850,46.39573164
4.9900,46.53247941
4.9950,46.66937654
5.0000,46.8064233
5.0050,46.9436892
5.0100,47.08116488
5.0150,47.21891976
5.0200,47.35713475
5.0250,47.49545279
5.0300,47.63380291
5.0350,47.77211486
5.0400,47.9101884
5.0450,48.04790242
5.0500,48.18546137
5.0550,48.32259606
5.0600,48.45953839
5.0650,48.59622094
5.0700,48.73263045
5.0750,48.86889137
5.0800,49.00520108
5.0850,49.14127482
5.0900,49.27725388
5.0950,49.41310008
5.1000,49.54882773
5.1050,49.68445384
5.1100,49.8196986
5.1150,49.95469137
5.1200,50.08944178
5.1250,50.22411867
5.1300,50.35876889
5.1350,50.49303152
5.1400,50.62702368
5.1450,50.76083943
5.1500,50.89444446
5.1550,51.02779705
5.1600,51.16089538
5.1650,51.29349198
5.1700,51.42556042
5.1750,51.55680455
5.1800,51.68736593
5.1850,51.81701768
5.1900,51.94595073
5.1950,52.07434379
5.2000,52.20229232
5.2050,52.32995246
5.2100,52.45733342
5.2150,52.58462631
5.2200,52.71163926
5.2250,52.83843405
5.2300,52.96505486
5.2350,53.09113395
5.2400,53.21666261
5.2450,53.3415055
