type,name,time_units,begin_time,frequency,count,units
signal_3d,"Noraxon MyoMotion-Segments-Upper arm RT-Sensor Acceleration","s",0.0000,200,5008,"mG"

time,x,y,z
0.0000,965.8203125,-105.46875,-260.2539063
0.0050,968.75,-109.8632813,-265.1367188
0.0100,968.75,-98.6328125,-258.7890625
0.0150,968.75,-105.9570313,-254.8828125
0.0200,964.84375,-104.0039063,-259.2773438
0.0250,975.0976563,-96.19140625,-258.3007813
0.0300,957.03125,-104.9804688,-246.5820313
0.0350,960.9375,-103.0273438,-259.765625
0.0400,965.3320313,-96.6796875,-255.3710938
0.0450,955.5664063,-102.5390625,-252.9296875
0.0500,964.84375,-86.9140625,-250.9765625
0.0550,959.4726563,-99.12109375,-251.4648438
0.0600,958.984375,-100.5859375,-251.953125
0.0650,954.1015625,-99.609375,-260.7421875
0.0700,964.84375,-88.37890625,-244.6289063
0.0750,958.0078125,-100.0976563,-257.8125
0.0800,964.3554688,-90.33203125,-241.6992188
0.0850,959.9609375,-92.7734375,-253.90625
0.0900,962.890625,-88.8671875,-251.4648438
0.0950,966.3085938,-92.7734375,-246.09375
0.1000,961.4257813,-95.21484375,-252.9296875
0.1050,972.65625,-92.28515625,-240.7226563
0.1100,962.890625,-98.6328125,-258.7890625
0.1150,969.7265625,-96.19140625,-257.3242188
0.1200,963.3789063,-99.12109375,-242.1875
0.1250,972.65625,-94.7265625,-252.9296875
0.1300,958.984375,-103.0273438,-240.234375
0.1350,971.6796875,-89.84375,-247.0703125
0.1400,957.03125,-95.703125,-246.09375
0.1450,972.1679688,-83.0078125,-262.2070313
0.1500,966.796875,-80.56640625,-233.3984375
0.1550,957.03125,-96.6796875,-256.3476563
0.1600,966.3085938,-85.44921875,-245.1171875
0.1650,964.84375,-91.30859375,-257.8125
0.1700,969.2382813,-92.28515625,-254.8828125
0.1750,970.2148438,-91.796875,-263.671875
0.1800,976.0742188,-97.65625,-260.2539063
0.1850,978.0273438,-102.0507813,-263.1835938
0.1900,972.1679688,-104.0039063,-259.765625
0.1950,969.2382813,-114.7460938,-262.6953125
0.2000,977.0507813,-104.0039063,-255.3710938
0.2050,961.9140625,-111.8164063,-250
0.2100,966.796875,-101.5625,-255.859375
0.2150,966.796875,-99.12109375,-257.3242188
0.2200,967.7734375,-89.84375,-258.7890625
0.2250,963.8671875,-88.37890625,-247.0703125
0.2300,961.4257813,-88.8671875,-250.9765625
0.2350,965.8203125,-86.42578125,-255.859375
0.2400,959.9609375,-87.890625,-242.1875
0.2450,960.9375,-90.33203125,-252.9296875
0.2500,971.1914063,-88.37890625,-242.6757813
0.2550,953.125,-100.0976563,-243.1640625
0.2600,974.1210938,-81.0546875,-239.7460938
0.2650,964.84375,-92.7734375,-255.859375
0.2700,965.3320313,-88.37890625,-244.140625
0.2750,971.1914063,-93.75,-237.7929688
0.2800,968.75,-95.21484375,-248.046875
0.2850,977.0507813,-89.35546875,-238.7695313
0.2900,966.796875,-105.46875,-242.6757813
0.2950,972.1679688,-96.6796875,-251.953125
0.3000,969.2382813,-99.12109375,-244.6289063
0.3050,968.2617188,-96.19140625,-254.3945313
0.3100,965.8203125,-91.30859375,-233.3984375
0.3150,958.4960938,-102.5390625,-249.0234375
0.3200,967.7734375,-91.796875,-245.1171875
0.3250,967.2851563,-93.75,-244.140625
0.3300,969.7265625,-83.984375,-242.1875
0.3350,974.1210938,-79.58984375,-231.9335938
0.3400,975.0976563,-74.70703125,-239.7460938
0.3450,970.703125,-79.1015625,-248.046875
0.3500,971.6796875,-85.44921875,-244.6289063
0.3550,980.46875,-87.890625,-252.4414063
0.3600,960.4492188,-102.5390625,-239.2578125
0.3650,969.7265625,-99.12109375,-247.5585938
0.3700,964.84375,-92.28515625,-249.0234375
0.3750,969.2382813,-100.0976563,-243.1640625
0.3800,970.703125,-85.44921875,-250.4882813
0.3850,966.796875,-96.6796875,-250.4882813
0.3900,971.1914063,-88.37890625,-243.6523438
0.3950,965.8203125,-94.23828125,-237.3046875
0.4000,968.2617188,-90.8203125,-246.09375
0.4050,958.984375,-93.26171875,-250.9765625
0.4100,961.9140625,-93.75,-256.3476563
0.4150,958.984375,-97.65625,-250.4882813
0.4200,963.3789063,-95.21484375,-249.0234375
0.4250,959.4726563,-99.12109375,-257.3242188
0.4300,955.5664063,-98.6328125,-245.1171875
0.4350,953.6132813,-102.0507813,-257.8125
0.4400,955.078125,-91.796875,-247.0703125
0.4450,953.125,-99.12109375,-248.046875
0.4500,963.3789063,-91.30859375,-252.9296875
0.4550,953.125,-107.9101563,-257.8125
0.4600,966.796875,-99.609375,-255.859375
0.4650,963.3789063,-101.5625,-236.328125
0.4700,972.65625,-90.33203125,-249.0234375
0.4750,959.9609375,-109.8632813,-253.4179688
0.4800,958.4960938,-106.4453125,-240.234375
0.4850,965.8203125,-98.14453125,-249.5117188
0.4900,955.078125,-108.3984375,-245.6054688
0.4950,960.9375,-96.6796875,-244.140625
0.5000,956.5429688,-94.7265625,-231.9335938
0.5050,961.4257813,-92.7734375,-253.4179688
0.5100,958.4960938,-94.7265625,-244.140625
0.5150,973.1445313,-81.0546875,-247.0703125
0.5200,973.1445313,-77.63671875,-244.6289063
0.5250,968.2617188,-85.44921875,-234.8632813
0.5300,974.1210938,-76.66015625,-232.421875
0.5350,971.6796875,-89.35546875,-242.1875
0.5400,975.0976563,-89.84375,-235.8398438
0.5450,977.0507813,-95.21484375,-219.7265625
0.5500,981.9335938,-84.47265625,-240.7226563
0.5550,981.9335938,-96.19140625,-229.9804688
0.5600,985.3515625,-90.8203125,-223.1445313
0.5650,989.7460938,-87.40234375,-230.9570313
0.5700,996.09375,-70.3125,-221.1914063
0.5750,991.6992188,-74.70703125,-229.9804688
0.5800,984.8632813,-78.125,-230.46875
0.5850,981.9335938,-77.63671875,-229.9804688
0.5900,984.375,-84.47265625,-240.7226563
0.5950,991.2109375,-87.890625,-239.2578125
0.6000,984.375,-89.84375,-229.4921875
0.6050,990.234375,-89.84375,-233.3984375
0.6100,984.375,-89.84375,-239.2578125
0.6150,982.9101563,-99.12109375,-241.2109375
0.6200,990.234375,-88.37890625,-232.421875
0.6250,990.234375,-86.9140625,-246.5820313
0.6300,978.515625,-88.37890625,-238.28125
0.6350,981.4453125,-83.0078125,-229.4921875
0.6400,974.609375,-93.26171875,-222.1679688
0.6450,978.515625,-89.84375,-241.6992188
0.6500,959.9609375,-106.9335938,-225.0976563
0.6550,956.5429688,-105.9570313,-247.5585938
0.6600,946.2890625,-102.5390625,-238.7695313
0.6650,947.7539063,-97.65625,-243.6523438
0.6700,946.7773438,-96.19140625,-244.140625
0.6750,947.265625,-97.16796875,-251.953125
0.6800,938.9648438,-94.7265625,-257.3242188
0.6850,946.2890625,-84.9609375,-250.9765625
0.6900,944.3359375,-72.75390625,-229.9804688
0.6950,952.6367188,-69.3359375,-230.9570313
0.7000,941.8945313,-78.125,-232.421875
0.7050,952.6367188,-73.73046875,-230.46875
0.7100,947.7539063,-82.51953125,-228.515625
0.7150,948.7304688,-101.5625,-239.2578125
0.7200,950.1953125,-108.8867188,-248.5351563
0.7250,956.5429688,-115.234375,-253.4179688
0.7300,952.6367188,-123.046875,-261.71875
0.7350,955.5664063,-130.859375,-254.3945313
0.7400,953.125,-125.4882813,-267.0898438
0.7450,949.7070313,-122.5585938,-257.8125
0.7500,946.2890625,-110.8398438,-241.6992188
0.7550,949.7070313,-109.375,-257.8125
0.7600,951.6601563,-92.7734375,-233.8867188
0.7650,955.078125,-83.0078125,-243.1640625
0.7700,946.7773438,-85.9375,-240.7226563
0.7750,949.7070313,-79.1015625,-241.6992188
0.7800,949.21875,-81.54296875,-238.28125
0.7850,956.0546875,-70.80078125,-244.140625
0.7900,951.6601563,-71.77734375,-221.1914063
0.7950,952.1484375,-77.1484375,-224.609375
0.8000,954.5898438,-80.56640625,-226.5625
0.8050,967.7734375,-79.1015625,-237.7929688
0.8100,963.3789063,-89.84375,-230.9570313
0.8150,980.9570313,-81.54296875,-240.7226563
0.8200,978.515625,-89.35546875,-246.5820313
0.8250,979.4921875,-89.35546875,-239.7460938
0.8300,978.0273438,-92.7734375,-247.0703125
0.8350,975.0976563,-101.5625,-241.2109375
0.8400,985.8398438,-93.75,-236.8164063
0.8450,980.46875,-104.4921875,-245.1171875
0.8500,981.9335938,-99.12109375,-237.7929688
0.8550,985.3515625,-105.46875,-237.3046875
0.8600,979.9804688,-102.0507813,-252.4414063
0.8650,971.6796875,-111.8164063,-256.8359375
0.8700,972.1679688,-101.5625,-256.3476563
0.8750,969.7265625,-102.0507813,-252.9296875
0.8800,962.890625,-99.609375,-250.9765625
0.8850,965.3320313,-97.16796875,-252.4414063
0.8900,961.4257813,-94.7265625,-245.6054688
0.8950,972.65625,-84.47265625,-237.7929688
0.9000,972.65625,-83.0078125,-207.03125
0.9050,972.65625,-79.58984375,-218.75
0.9100,983.8867188,-70.3125,-206.5429688
0.9150,976.0742188,-72.75390625,-223.1445313
0.9200,967.2851563,-76.171875,-220.2148438
0.9250,972.65625,-80.078125,-243.6523438
0.9300,970.2148438,-89.35546875,-240.234375
0.9350,973.6328125,-87.40234375,-240.234375
0.9400,976.5625,-96.19140625,-263.671875
0.9450,977.5390625,-99.12109375,-248.046875
0.9500,979.9804688,-100.5859375,-251.4648438
0.9550,986.8164063,-99.12109375,-257.8125
0.9600,988.7695313,-91.796875,-251.953125
0.9650,983.8867188,-98.14453125,-253.4179688
0.9700,983.8867188,-93.75,-256.8359375
0.9750,979.4921875,-87.890625,-251.4648438
0.9800,958.4960938,-98.6328125,-252.4414063
0.9850,961.9140625,-90.8203125,-239.2578125
0.9900,952.1484375,-88.8671875,-246.5820313
0.9950,951.171875,-85.9375,-261.71875
1.0000,956.0546875,-72.75390625,-251.4648438
1.0050,946.2890625,-76.66015625,-245.6054688
1.0100,948.7304688,-69.3359375,-236.8164063
1.0150,953.6132813,-74.21875,-243.6523438
1.0200,955.5664063,-73.73046875,-242.6757813
1.0250,960.9375,-81.0546875,-245.6054688
1.0300,958.4960938,-88.8671875,-250
1.0350,964.3554688,-85.9375,-249.0234375
1.0400,964.84375,-93.26171875,-251.953125
1.0450,965.3320313,-92.7734375,-248.5351563
1.0500,963.3789063,-97.65625,-243.1640625
1.0550,969.7265625,-93.75,-247.5585938
1.0600,957.03125,-97.65625,-246.09375
1.0650,969.2382813,-86.42578125,-249.0234375
1.0700,962.4023438,-86.42578125,-250.9765625
1.0750,964.3554688,-83.49609375,-244.140625
1.0800,952.1484375,-86.9140625,-245.6054688
1.0850,952.1484375,-81.54296875,-256.8359375
1.0900,954.1015625,-86.9140625,-256.8359375
1.0950,943.8476563,-93.26171875,-255.859375
1.1000,950.1953125,-79.58984375,-245.6054688
1.1050,953.125,-76.66015625,-247.0703125
1.1100,958.0078125,-68.84765625,-230.9570313
1.1150,961.4257813,-69.82421875,-230.9570313
1.1200,973.6328125,-68.84765625,-237.7929688
1.1250,977.0507813,-69.3359375,-231.9335938
1.1300,981.9335938,-74.21875,-231.4453125
1.1350,993.1640625,-73.2421875,-240.7226563
1.1400,996.09375,-65.4296875,-221.1914063
1.1450,994.140625,-84.47265625,-233.3984375
1.1500,1002.929688,-77.63671875,-225.5859375
1.1550,1002.929688,-79.58984375,-235.3515625
1.1600,1003.90625,-78.61328125,-210.9375
1.1650,999.5117188,-79.58984375,-210.9375
1.1700,997.0703125,-74.70703125,-216.3085938
1.1750,998.046875,-70.3125,-226.0742188
1.1800,995.1171875,-64.94140625,-222.65625
1.1850,995.6054688,-53.7109375,-237.3046875
1.1900,980.46875,-55.17578125,-223.1445313
1.1950,981.4453125,-48.33984375,-235.8398438
1.2000,973.6328125,-52.734375,-225.5859375
1.2050,978.515625,-45.8984375,-221.6796875
1.2100,967.7734375,-53.22265625,-194.8242188
1.2150,962.4023438,-44.43359375,-183.1054688
1.2200,965.3320313,-37.109375,-173.828125
1.2250,968.2617188,-38.0859375,-179.6875
1.2300,989.2578125,-39.0625,-165.0390625
1.2350,1007.8125,-44.43359375,-175.78125
1.2400,989.2578125,-35.15625,-142.578125
1.2450,1020.996094,-52.734375,-151.8554688
1.2500,987.7929688,-62.98828125,-188.9648438
1.2550,1008.789063,-33.69140625,-166.015625
1.2600,1009.277344,-43.9453125,-173.828125
1.2650,1014.648438,-26.85546875,-161.1328125
1.2700,1018.554688,-12.6953125,-164.0625
1.2750,1016.601563,-25.390625,-149.4140625
1.2800,1013.671875,-14.16015625,-166.5039063
1.2850,1015.625,-30.2734375,-161.1328125
1.2900,1012.207031,-37.109375,-186.0351563
1.2950,994.6289063,-42.96875,-199.21875
1.3000,988.7695313,-50.29296875,-213.3789063
1.3050,986.328125,-68.359375,-230.46875
1.3100,971.1914063,-64.94140625,-226.5625
1.3150,973.1445313,-69.3359375,-252.4414063
1.3200,980.46875,-72.265625,-257.3242188
1.3250,979.0039063,-73.73046875,-278.8085938
1.3300,977.0507813,-67.87109375,-271.484375
1.3350,963.3789063,-67.3828125,-261.71875
1.3400,977.5390625,-65.91796875,-274.9023438
1.3450,957.03125,-52.734375,-254.8828125
1.3500,945.8007813,-66.89453125,-252.9296875
1.3550,957.5195313,-64.94140625,-251.953125
1.3600,947.265625,-64.94140625,-250
1.3650,951.171875,-64.94140625,-250
1.3700,943.359375,-63.4765625,-243.6523438
1.3750,941.40625,-63.4765625,-236.328125
1.3800,938.4765625,-66.40625,-235.8398438
1.3850,937.5,-54.19921875,-233.8867188
1.3900,950.1953125,-44.43359375,-224.609375
1.3950,953.6132813,-52.734375,-246.5820313
1.4000,960.9375,-61.03515625,-235.3515625
1.4050,948.7304688,-78.61328125,-249.5117188
1.4100,950.1953125,-63.96484375,-255.3710938
1.4150,951.6601563,-75.1953125,-255.3710938
1.4200,950.6835938,-77.63671875,-260.7421875
1.4250,948.7304688,-72.75390625,-275.390625
1.4300,938.4765625,-69.82421875,-271.9726563
1.4350,944.3359375,-71.77734375,-273.9257813
1.4400,934.0820313,-83.0078125,-277.34375
1.4450,939.453125,-76.66015625,-287.5976563
1.4500,940.9179688,-68.84765625,-291.5039063
1.4550,941.8945313,-73.73046875,-288.0859375
1.4600,942.3828125,-72.265625,-284.6679688
1.4650,940.9179688,-72.265625,-300.78125
1.4700,945.8007813,-69.82421875,-278.8085938
1.4750,957.03125,-79.1015625,-278.8085938
1.4800,955.078125,-83.0078125,-257.8125
1.4850,964.84375,-80.56640625,-262.6953125
1.4900,958.4960938,-92.28515625,-261.71875
1.4950,970.703125,-84.47265625,-258.7890625
1.5000,970.2148438,-95.21484375,-271.9726563
1.5050,976.0742188,-102.0507813,-265.1367188
1.5100,975.0976563,-104.0039063,-269.53125
1.5150,969.7265625,-108.3984375,-274.4140625
1.5200,980.9570313,-98.14453125,-270.9960938
1.5250,978.515625,-98.14453125,-261.71875
1.5300,979.9804688,-90.33203125,-264.6484375
1.5350,983.3984375,-87.890625,-270.5078125
1.5400,964.84375,-86.9140625,-253.4179688
1.5450,966.796875,-87.40234375,-257.3242188
1.5500,966.796875,-79.1015625,-268.5546875
1.5550,967.2851563,-94.7265625,-264.6484375
1.5600,968.75,-91.30859375,-249.0234375
1.5650,964.84375,-100.5859375,-279.296875
1.5700,969.7265625,-90.8203125,-261.71875
1.5750,963.3789063,-79.1015625,-247.0703125
1.5800,966.796875,-70.3125,-269.53125
1.5850,966.3085938,-60.546875,-247.5585938
1.5900,967.7734375,-55.17578125,-255.3710938
1.5950,962.4023438,-70.80078125,-251.953125
1.6000,969.7265625,-64.453125,-261.2304688
1.6050,977.5390625,-58.10546875,-247.0703125
1.6100,981.4453125,-63.96484375,-238.7695313
1.6150,982.9101563,-66.89453125,-229.4921875
1.6200,988.28125,-61.03515625,-225.0976563
1.6250,981.4453125,-68.359375,-223.6328125
1.6300,989.2578125,-70.80078125,-208.4960938
1.6350,990.234375,-81.54296875,-227.0507813
1.6400,992.6757813,-77.1484375,-222.1679688
1.6450,984.375,-84.9609375,-227.0507813
1.6500,987.7929688,-86.9140625,-225.0976563
1.6550,988.28125,-96.19140625,-233.3984375
1.6600,990.7226563,-98.6328125,-238.7695313
1.6650,982.9101563,-103.0273438,-228.515625
1.6700,983.8867188,-98.14453125,-227.5390625
1.6750,988.7695313,-90.33203125,-231.4453125
1.6800,981.4453125,-84.47265625,-235.3515625
1.6850,974.609375,-74.21875,-227.0507813
1.6900,971.6796875,-78.61328125,-241.2109375
1.6950,967.2851563,-67.87109375,-226.0742188
1.7000,972.65625,-50.29296875,-209.4726563
1.7050,962.4023438,-60.546875,-206.5429688
1.7100,973.1445313,-54.19921875,-196.7773438
1.7150,975.5859375,-70.3125,-209.4726563
1.7200,979.4921875,-67.87109375,-216.3085938
1.7250,972.65625,-70.80078125,-208.0078125
1.7300,983.3984375,-78.125,-207.5195313
1.7350,991.6992188,-89.84375,-226.0742188
1.7400,984.8632813,-94.23828125,-224.1210938
1.7450,987.3046875,-103.515625,-221.1914063
1.7500,992.1875,-99.12109375,-229.9804688
1.7550,987.7929688,-99.609375,-224.609375
1.7600,981.4453125,-101.0742188,-213.3789063
1.7650,977.5390625,-78.61328125,-221.1914063
1.7700,967.2851563,-71.77734375,-220.703125
1.7750,965.3320313,-74.21875,-221.1914063
1.7800,965.8203125,-78.125,-236.328125
1.7850,978.515625,-73.2421875,-230.9570313
1.7900,957.03125,-80.56640625,-229.9804688
1.7950,954.5898438,-74.70703125,-240.234375
1.8000,952.1484375,-61.5234375,-225.5859375
1.8050,946.7773438,-68.359375,-242.6757813
1.8100,949.7070313,-72.75390625,-234.375
1.8150,962.4023438,-79.58984375,-238.7695313
1.8200,958.0078125,-85.9375,-234.8632813
1.8250,969.2382813,-79.1015625,-238.7695313
1.8300,974.1210938,-75.1953125,-226.0742188
1.8350,983.3984375,-83.49609375,-224.1210938
1.8400,980.9570313,-83.984375,-232.9101563
1.8450,979.4921875,-90.8203125,-230.9570313
1.8500,964.84375,-95.21484375,-219.2382813
1.8550,962.890625,-98.6328125,-219.2382813
1.8600,963.8671875,-96.19140625,-222.1679688
1.8650,966.3085938,-102.0507813,-221.1914063
1.8700,963.3789063,-104.9804688,-225.0976563
1.8750,964.3554688,-103.0273438,-222.1679688
1.8800,963.8671875,-97.16796875,-227.0507813
1.8850,961.4257813,-100.5859375,-214.3554688
1.8900,958.4960938,-109.375,-221.1914063
1.8950,957.5195313,-110.8398438,-224.1210938
1.9000,953.125,-112.7929688,-220.703125
1.9050,958.0078125,-116.6992188,-227.5390625
1.9100,958.984375,-123.5351563,-236.328125
1.9150,960.9375,-122.0703125,-228.515625
1.9200,960.9375,-116.6992188,-238.28125
1.9250,970.2148438,-108.3984375,-245.1171875
1.9300,959.9609375,-103.0273438,-247.5585938
1.9350,968.75,-99.12109375,-240.234375
1.9400,967.2851563,-103.515625,-242.1875
1.9450,972.65625,-107.9101563,-246.5820313
1.9500,976.0742188,-109.8632813,-238.7695313
1.9550,985.8398438,-103.515625,-245.1171875
1.9600,966.3085938,-117.6757813,-229.0039063
1.9650,976.0742188,-114.7460938,-236.328125
1.9700,975.5859375,-112.3046875,-229.4921875
1.9750,971.1914063,-117.1875,-225.0976563
1.9800,959.9609375,-117.6757813,-207.5195313
1.9850,957.03125,-118.6523438,-206.0546875
1.9900,957.03125,-101.0742188,-205.5664063
1.9950,958.984375,-100.0976563,-202.1484375
2.0000,957.5195313,-103.515625,-223.6328125
2.0050,962.890625,-101.5625,-201.171875
2.0100,957.5195313,-96.19140625,-220.2148438
2.0150,966.3085938,-88.8671875,-225.5859375
2.0200,964.84375,-78.125,-214.84375
2.0250,971.1914063,-77.1484375,-227.0507813
2.0300,966.3085938,-91.30859375,-220.703125
2.0350,978.515625,-86.9140625,-207.5195313
2.0400,980.9570313,-85.44921875,-199.21875
2.0450,983.3984375,-99.12109375,-209.9609375
2.0500,979.0039063,-112.7929688,-208.4960938
2.0550,982.9101563,-123.046875,-209.9609375
2.0600,981.9335938,-134.2773438,-202.1484375
2.0650,979.4921875,-136.2304688,-199.7070313
2.0700,968.75,-142.578125,-197.7539063
2.0750,966.796875,-144.53125,-192.3828125
2.0800,958.984375,-150.8789063,-192.3828125
2.0850,968.2617188,-144.0429688,-202.1484375
2.0900,963.3789063,-150.8789063,-204.1015625
2.0950,971.1914063,-140.1367188,-212.890625
2.1000,973.1445313,-136.2304688,-215.8203125
2.1050,978.0273438,-131.3476563,-235.3515625
2.1100,974.1210938,-116.6992188,-240.234375
2.1150,967.7734375,-114.7460938,-227.5390625
2.1200,962.890625,-104.0039063,-224.609375
2.1250,953.6132813,-100.5859375,-227.0507813
2.1300,946.7773438,-108.8867188,-223.1445313
2.1350,953.125,-104.9804688,-230.9570313
2.1400,952.1484375,-108.8867188,-224.1210938
2.1450,954.1015625,-113.28125,-211.4257813
2.1500,952.6367188,-112.3046875,-223.6328125
2.1550,943.8476563,-131.3476563,-210.9375
2.1600,937.0117188,-131.3476563,-218.2617188
2.1650,933.1054688,-127.9296875,-205.5664063
2.1700,942.3828125,-115.234375,-201.6601563
2.1750,948.2421875,-121.5820313,-203.6132813
2.1800,954.1015625,-132.3242188,-209.4726563
2.1850,961.4257813,-136.2304688,-218.75
2.1900,964.84375,-134.2773438,-211.4257813
2.1950,975.5859375,-146.484375,-230.9570313
2.2000,979.0039063,-145.9960938,-223.1445313
2.2050,983.3984375,-149.9023438,-214.3554688
2.2100,983.3984375,-141.1132813,-222.65625
2.2150,970.2148438,-153.3203125,-214.84375
2.2200,966.3085938,-137.2070313,-223.1445313
2.2250,960.9375,-141.6015625,-194.3359375
2.2300,960.4492188,-142.578125,-205.5664063
2.2350,966.3085938,-142.578125,-215.8203125
2.2400,970.2148438,-132.8125,-208.984375
2.2450,974.1210938,-134.765625,-212.890625
2.2500,966.796875,-141.1132813,-207.5195313
2.2550,965.3320313,-136.71875,-211.9140625
2.2600,958.984375,-139.6484375,-206.0546875
2.2650,965.8203125,-135.7421875,-210.4492188
2.2700,964.84375,-138.671875,-194.8242188
2.2750,969.7265625,-144.0429688,-194.3359375
2.2800,978.515625,-129.3945313,-212.4023438
2.2850,973.6328125,-125.9765625,-228.515625
2.2900,967.2851563,-137.2070313,-217.7734375
2.2950,970.2148438,-148.9257813,-211.4257813
2.3000,966.796875,-162.109375,-198.2421875
2.3050,959.4726563,-188.9648438,-200.1953125
2.3100,972.1679688,-168.9453125,-184.5703125
2.3150,973.1445313,-174.8046875,-186.5234375
2.3200,976.5625,-166.9921875,-197.265625
2.3250,973.1445313,-172.3632813,-191.40625
2.3300,982.421875,-163.5742188,-188.9648438
2.3350,974.1210938,-163.0859375,-198.2421875
2.3400,963.8671875,-162.109375,-199.7070313
2.3450,964.84375,-163.5742188,-217.7734375
2.3500,961.4257813,-176.7578125,-220.703125
2.3550,978.515625,-182.1289063,-209.4726563
2.3600,976.5625,-188.9648438,-215.3320313
2.3650,987.3046875,-182.6171875,-230.46875
2.3700,967.2851563,-195.3125,-235.3515625
2.3750,974.1210938,-190.9179688,-233.8867188
2.3800,977.0507813,-193.359375,-229.4921875
2.3850,965.3320313,-187.9882813,-228.0273438
2.3900,963.8671875,-181.1523438,-234.375
2.3950,954.5898438,-176.7578125,-224.609375
2.4000,943.359375,-185.546875,-229.9804688
2.4050,938.4765625,-185.546875,-243.1640625
2.4100,936.0351563,-179.6875,-239.2578125
2.4150,936.0351563,-171.875,-236.8164063
2.4200,926.7578125,-170.8984375,-248.046875
2.4250,934.5703125,-173.828125,-231.9335938
2.4300,932.6171875,-180.6640625,-242.1875
2.4350,938.9648438,-182.1289063,-237.3046875
2.4400,929.6875,-191.8945313,-236.8164063
2.4450,938.4765625,-200.6835938,-229.0039063
2.4500,946.7773438,-198.2421875,-221.6796875
2.4550,947.265625,-206.5429688,-237.7929688
2.4600,941.8945313,-204.1015625,-235.8398438
2.4650,944.3359375,-204.5898438,-249.5117188
2.4700,950.6835938,-193.8476563,-246.5820313
2.4750,950.1953125,-202.6367188,-245.6054688
2.4800,946.7773438,-211.4257813,-252.4414063
2.4850,955.078125,-211.4257813,-250
2.4900,957.03125,-219.2382813,-243.6523438
2.4950,953.125,-231.4453125,-238.7695313
2.5000,948.2421875,-226.5625,-249.0234375
2.5050,946.2890625,-227.0507813,-232.9101563
2.5100,939.453125,-224.609375,-227.0507813
2.5150,941.40625,-220.703125,-235.8398438
2.5200,937.5,-212.890625,-244.140625
2.5250,953.125,-210.9375,-256.3476563
2.5300,956.0546875,-208.4960938,-254.8828125
2.5350,950.6835938,-211.4257813,-264.6484375
2.5400,970.2148438,-198.7304688,-255.3710938
2.5450,965.8203125,-211.9140625,-264.6484375
2.5500,964.84375,-222.65625,-266.1132813
2.5550,960.9375,-231.4453125,-255.3710938
2.5600,953.6132813,-220.703125,-259.765625
2.5650,940.4296875,-225.5859375,-254.8828125
2.5700,937.9882813,-216.3085938,-248.046875
2.5750,932.1289063,-223.6328125,-246.09375
2.5800,922.8515625,-230.46875,-237.3046875
2.5850,917.96875,-235.8398438,-241.6992188
2.5900,924.8046875,-235.3515625,-226.0742188
2.5950,927.2460938,-250.9765625,-241.6992188
2.6000,921.875,-263.1835938,-256.3476563
2.6050,937.5,-263.1835938,-273.4375
2.6100,944.3359375,-257.3242188,-280.7617188
2.6150,956.5429688,-245.6054688,-283.6914063
2.6200,958.4960938,-233.3984375,-293.9453125
2.6250,952.6367188,-229.9804688,-306.640625
2.6300,936.5234375,-226.0742188,-279.296875
2.6350,930.1757813,-231.4453125,-247.0703125
2.6400,916.5039063,-236.328125,-258.7890625
2.6450,924.3164063,-233.8867188,-270.5078125
2.6500,920.8984375,-232.421875,-261.71875
2.6550,929.1992188,-236.328125,-256.3476563
2.6600,921.875,-241.6992188,-264.6484375
2.6650,921.3867188,-243.6523438,-252.4414063
2.6700,919.4335938,-251.4648438,-264.1601563
2.6750,931.640625,-252.9296875,-272.4609375
2.6800,923.828125,-267.578125,-264.6484375
2.6850,921.3867188,-277.8320313,-263.671875
2.6900,928.7109375,-269.53125,-254.8828125
2.6950,931.640625,-277.34375,-264.1601563
2.7000,940.9179688,-271.484375,-276.3671875
2.7050,946.2890625,-264.1601563,-294.4335938
2.7100,935.546875,-264.6484375,-287.109375
2.7150,934.0820313,-258.3007813,-297.8515625
2.7200,943.8476563,-244.140625,-290.5273438
2.7250,926.7578125,-261.2304688,-301.7578125
2.7300,926.2695313,-257.3242188,-275.8789063
2.7350,914.5507813,-253.90625,-272.9492188
2.7400,913.5742188,-240.7226563,-282.2265625
2.7450,910.15625,-248.046875,-291.9921875
2.7500,907.2265625,-256.3476563,-277.34375
2.7550,907.2265625,-259.765625,-261.71875
2.7600,902.34375,-261.71875,-265.625
2.7650,903.8085938,-262.6953125,-281.7382813
2.7700,914.0625,-277.8320313,-277.8320313
2.7750,918.4570313,-292.96875,-281.25
2.7800,921.3867188,-297.3632813,-281.25
2.7850,918.4570313,-308.59375,-285.15625
2.7900,929.1992188,-295.4101563,-278.8085938
2.7950,922.8515625,-292.96875,-280.7617188
2.8000,917.96875,-287.5976563,-275.8789063
2.8050,922.8515625,-292.4804688,-290.5273438
2.8100,929.6875,-293.9453125,-300.2929688
2.8150,915.0390625,-291.9921875,-313.9648438
2.8200,925.78125,-277.8320313,-312.0117188
2.8250,913.5742188,-282.7148438,-293.4570313
2.8300,906.7382813,-272.4609375,-302.2460938
2.8350,905.2734375,-277.34375,-297.8515625
2.8400,900.8789063,-269.0429688,-291.015625
2.8450,896.9726563,-266.6015625,-289.0625
2.8500,902.34375,-271.484375,-308.1054688
2.8550,902.8320313,-288.5742188,-328.125
2.8600,897.4609375,-301.2695313,-325.1953125
2.8650,917.4804688,-291.5039063,-322.7539063
2.8700,913.0859375,-298.3398438,-330.5664063
2.8750,911.6210938,-310.546875,-339.84375
2.8800,895.9960938,-308.59375,-304.6875
2.8850,883.7890625,-306.640625,-312.5
2.8900,878.90625,-301.2695313,-300.2929688
2.8950,879.8828125,-296.875,-308.59375
2.9000,876.953125,-308.59375,-323.7304688
2.9050,878.90625,-312.9882813,-335.9375
2.9100,887.6953125,-300.78125,-353.0273438
2.9150,890.1367188,-302.734375,-336.9140625
2.9200,898.9257813,-283.203125,-335.4492188
2.9250,911.1328125,-271.484375,-329.5898438
2.9300,912.109375,-268.0664063,-320.8007813
2.9350,905.7617188,-280.2734375,-325.6835938
2.9400,892.578125,-287.109375,-323.7304688
2.9450,890.1367188,-287.5976563,-342.7734375
2.9500,891.6015625,-282.2265625,-330.5664063
2.9550,892.0898438,-300.78125,-331.5429688
2.9600,902.34375,-313.4765625,-322.265625
2.9650,903.3203125,-340.8203125,-320.3125
2.9700,910.6445313,-350.0976563,-333.4960938
2.9750,898.9257813,-352.0507813,-328.6132813
2.9800,895.0195313,-353.515625,-329.1015625
2.9850,896.9726563,-339.84375,-346.1914063
2.9900,893.0664063,-331.5429688,-342.2851563
2.9950,884.765625,-317.3828125,-332.5195313
3.0000,889.6484375,-294.921875,-330.5664063
3.0050,900.8789063,-282.2265625,-352.5390625
3.0100,890.625,-284.6679688,-353.515625
3.0150,888.671875,-284.1796875,-373.5351563
3.0200,880.859375,-286.1328125,-357.9101563
3.0250,886.2304688,-290.5273438,-353.0273438
3.0300,892.0898438,-290.5273438,-369.6289063
3.0350,888.671875,-294.4335938,-358.8867188
3.0400,884.2773438,-313.4765625,-349.1210938
3.0450,872.5585938,-341.796875,-336.9140625
3.0500,870.1171875,-336.9140625,-313.9648438
3.0550,859.8632813,-351.5625,-339.3554688
3.0600,881.8359375,-342.7734375,-332.03125
3.0650,896.9726563,-348.6328125,-357.9101563
3.0700,895.5078125,-360.8398438,-368.1640625
3.0750,886.2304688,-356.9335938,-346.6796875
3.0800,884.2773438,-343.2617188,-365.7226563
3.0850,891.6015625,-324.21875,-372.5585938
3.0900,889.1601563,-317.3828125,-379.8828125
3.0950,883.7890625,-311.5234375,-381.3476563
3.1000,866.2109375,-305.1757813,-373.5351563
3.1050,880.3710938,-295.4101563,-376.4648438
3.1100,876.953125,-304.6875,-377.9296875
3.1150,883.7890625,-315.4296875,-366.6992188
3.1200,880.3710938,-320.3125,-369.140625
3.1250,872.0703125,-331.5429688,-370.6054688
3.1300,870.1171875,-340.3320313,-362.3046875
3.1350,868.1640625,-351.0742188,-359.8632813
3.1400,856.9335938,-360.3515625,-355.46875
3.1450,865.7226563,-344.2382813,-342.7734375
3.1500,870.6054688,-336.4257813,-362.7929688
3.1550,868.1640625,-335.9375,-347.1679688
3.1600,866.2109375,-337.890625,-365.234375
3.1650,874.5117188,-334.4726563,-344.2382813
3.1700,881.3476563,-326.171875,-384.2773438
3.1750,884.2773438,-320.8007813,-404.7851563
3.1800,880.859375,-314.453125,-399.4140625
3.1850,870.1171875,-325.1953125,-393.5546875
3.1900,871.09375,-319.3359375,-378.4179688
3.1950,866.2109375,-322.7539063,-383.3007813
3.2000,863.7695313,-323.7304688,-367.1875
3.2050,854.4921875,-336.4257813,-372.5585938
3.2100,853.0273438,-345.703125,-370.1171875
3.2150,854.0039063,-346.6796875,-379.8828125
3.2200,850.5859375,-368.6523438,-366.2109375
3.2250,859.375,-366.6992188,-370.1171875
3.2300,852.5390625,-358.8867188,-385.2539063
3.2350,853.515625,-337.4023438,-359.8632813
3.2400,854.4921875,-324.21875,-384.2773438
3.2450,859.375,-314.453125,-396.484375
3.2500,844.2382813,-314.9414063,-383.7890625
3.2550,845.703125,-308.1054688,-394.53125
3.2600,852.0507813,-301.2695313,-395.9960938
3.2650,863.28125,-317.8710938,-395.0195313
3.2700,867.6757813,-328.125,-402.8320313
3.2750,858.3984375,-343.75,-399.4140625
3.2800,856.4453125,-341.796875,-389.6484375
3.2850,846.6796875,-348.1445313,-385.7421875
3.2900,836.4257813,-359.8632813,-365.234375
3.2950,843.75,-369.140625,-368.1640625
3.3000,840.3320313,-359.8632813,-363.28125
3.3050,834.9609375,-355.9570313,-368.1640625
3.3100,843.75,-345.703125,-386.71875
3.3150,840.3320313,-348.6328125,-387.2070313
3.3200,849.1210938,-342.7734375,-400.8789063
3.3250,845.703125,-334.4726563,-395.5078125
3.3300,842.7734375,-317.8710938,-408.203125
3.3350,844.7265625,-318.359375,-397.4609375
3.3400,843.75,-325.1953125,-397.9492188
3.3450,849.1210938,-338.3789063,-406.25
3.3500,844.2382813,-342.2851563,-395.5078125
3.3550,840.3320313,-357.9101563,-390.625
3.3600,841.3085938,-364.2578125,-372.5585938
3.3650,847.65625,-376.953125,-372.5585938
3.3700,849.1210938,-388.1835938,-375
3.3750,842.7734375,-397.4609375,-381.8359375
3.3800,854.0039063,-383.7890625,-385.2539063
3.3850,860.8398438,-378.90625,-401.3671875
3.3900,861.8164063,-377.4414063,-422.3632813
3.3950,863.7695313,-364.7460938,-418.4570313
3.4000,861.8164063,-359.375,-425.78125
3.4050,865.234375,-342.2851563,-417.4804688
3.4100,854.9804688,-341.796875,-421.3867188
3.4150,852.0507813,-331.0546875,-418.9453125
3.4200,842.7734375,-324.21875,-412.109375
3.4250,843.75,-325.6835938,-408.203125
3.4300,833.0078125,-338.3789063,-389.1601563
3.4350,837.890625,-343.2617188,-404.296875
3.4400,840.3320313,-356.4453125,-385.2539063
3.4450,833.0078125,-366.2109375,-395.5078125
3.4500,829.1015625,-377.4414063,-389.1601563
3.4550,823.7304688,-380.859375,-392.578125
3.4600,839.84375,-368.6523438,-407.7148438
3.4650,843.75,-365.234375,-416.5039063
3.4700,845.2148438,-354.0039063,-404.296875
3.4750,850.5859375,-345.703125,-406.25
3.4800,847.1679688,-334.9609375,-419.921875
3.4850,846.1914063,-329.5898438,-434.5703125
3.4900,832.5195313,-335.4492188,-423.828125
3.4950,834.9609375,-326.6601563,-418.4570313
3.5000,821.7773438,-339.3554688,-431.640625
3.5050,828.6132813,-341.3085938,-425.2929688
3.5100,835.9375,-342.7734375,-433.59375
3.5150,832.5195313,-365.7226563,-404.7851563
3.5200,833.0078125,-368.1640625,-414.5507813
3.5250,836.4257813,-372.5585938,-415.5273438
3.5300,837.4023438,-370.1171875,-421.3867188
3.5350,820.3125,-371.5820313,-424.3164063
3.5400,822.7539063,-366.2109375,-410.15625
3.5450,836.4257813,-361.8164063,-426.7578125
3.5500,838.3789063,-356.9335938,-428.7109375
3.5550,833.0078125,-347.1679688,-430.6640625
3.5600,834.4726563,-338.8671875,-434.5703125
3.5650,833.984375,-337.4023438,-434.5703125
3.5700,822.265625,-344.7265625,-443.8476563
3.5750,828.6132813,-344.7265625,-437.9882813
3.5800,823.7304688,-347.65625,-426.7578125
3.5850,831.0546875,-354.4921875,-436.5234375
3.5900,823.7304688,-365.234375,-426.7578125
3.5950,831.0546875,-371.09375,-426.7578125
3.6000,813.4765625,-373.5351563,-433.1054688
3.6050,814.453125,-377.4414063,-414.5507813
3.6100,816.40625,-368.1640625,-404.7851563
3.6150,819.8242188,-369.140625,-416.5039063
3.6200,826.6601563,-374.0234375,-424.3164063
3.6250,832.03125,-372.0703125,-417.96875
3.6300,828.6132813,-368.6523438,-437.9882813
3.6350,822.265625,-362.7929688,-431.640625
3.6400,829.1015625,-345.2148438,-432.6171875
3.6450,832.5195313,-351.0742188,-416.5039063
3.6500,826.171875,-345.703125,-429.1992188
3.6550,834.9609375,-350.0976563,-414.5507813
3.6600,824.21875,-355.46875,-431.640625
3.6650,828.125,-360.8398438,-422.8515625
3.6700,832.03125,-363.7695313,-429.6875
3.6750,833.0078125,-378.4179688,-422.3632813
3.6800,819.3359375,-374.5117188,-416.5039063
3.6850,822.7539063,-356.4453125,-420.4101563
3.6900,826.171875,-360.3515625,-421.3867188
3.6950,836.9140625,-363.28125,-425.78125
3.7000,831.0546875,-370.1171875,-424.8046875
3.7050,834.4726563,-353.515625,-429.1992188
3.7100,821.7773438,-357.421875,-427.2460938
3.7150,833.0078125,-354.9804688,-437.0117188
3.7200,825.6835938,-350.5859375,-451.6601563
3.7250,816.8945313,-338.8671875,-436.0351563
3.7300,811.0351563,-350.0976563,-414.5507813
3.7350,824.7070313,-367.6757813,-444.8242188
3.7400,826.171875,-373.5351563,-438.4765625
3.7450,837.890625,-386.71875,-426.2695313
3.7500,829.5898438,-395.5078125,-424.3164063
3.7550,836.4257813,-395.0195313,-425.78125
3.7600,834.9609375,-391.1132813,-427.2460938
3.7650,826.6601563,-397.4609375,-427.734375
3.7700,840.8203125,-383.7890625,-418.9453125
3.7750,847.65625,-386.2304688,-439.9414063
3.7800,830.5664063,-387.6953125,-457.03125
3.7850,836.9140625,-377.4414063,-428.2226563
3.7900,827.6367188,-366.2109375,-442.3828125
3.7950,818.8476563,-361.8164063,-436.0351563
3.8000,821.7773438,-351.0742188,-437.0117188
3.8050,822.265625,-354.4921875,-437.0117188
3.8100,825.6835938,-352.0507813,-442.3828125
3.8150,829.5898438,-348.1445313,-437.5
3.8200,823.2421875,-360.3515625,-447.7539063
3.8250,819.3359375,-375.4882813,-452.6367188
3.8300,809.5703125,-387.6953125,-450.6835938
3.8350,808.59375,-382.8125,-420.4101563
3.8400,818.359375,-371.09375,-434.0820313
3.8450,828.125,-371.09375,-435.546875
3.8500,818.8476563,-377.4414063,-438.9648438
3.8550,821.2890625,-367.6757813,-454.1015625
3.8600,824.21875,-358.8867188,-452.6367188
3.8650,823.2421875,-361.328125,-457.5195313
3.8700,831.0546875,-358.3984375,-452.6367188
3.8750,831.0546875,-364.2578125,-455.5664063
3.8800,831.0546875,-356.4453125,-473.1445313
3.8850,812.0117188,-362.7929688,-469.7265625
3.8900,808.1054688,-373.5351563,-460.9375
3.8950,818.359375,-374.5117188,-459.4726563
3.9000,817.8710938,-377.9296875,-447.265625
3.9050,797.8515625,-390.1367188,-451.6601563
3.9100,788.0859375,-391.1132813,-438.9648438
3.9150,797.3632813,-382.8125,-445.8007813
3.9200,814.453125,-380.3710938,-461.4257813
3.9250,829.1015625,-378.90625,-464.3554688
3.9300,824.7070313,-372.0703125,-479.9804688
3.9350,821.2890625,-363.7695313,-483.3984375
3.9400,823.7304688,-347.65625,-482.9101563
3.9450,818.359375,-341.796875,-465.3320313
3.9500,809.5703125,-343.2617188,-455.078125
3.9550,809.0820313,-348.1445313,-463.8671875
3.9600,807.6171875,-349.1210938,-467.2851563
3.9650,810.0585938,-365.7226563,-466.3085938
3.9700,811.5234375,-373.5351563,-455.078125
3.9750,817.8710938,-385.2539063,-475.0976563
3.9800,824.21875,-397.9492188,-466.3085938
3.9850,812.0117188,-419.4335938,-466.796875
3.9900,800.2929688,-419.921875,-444.3359375
3.9950,790.0390625,-407.7148438,-453.6132813
4.0000,803.7109375,-386.71875,-449.7070313
4.0050,819.8242188,-378.4179688,-462.4023438
4.0100,822.265625,-379.3945313,-449.21875
4.0150,812.0117188,-377.9296875,-485.3515625
4.0200,811.0351563,-365.7226563,-485.8398438
4.0250,812.0117188,-354.9804688,-480.46875
4.0300,826.171875,-346.1914063,-476.5625
4.0350,821.2890625,-358.8867188,-491.2109375
4.0400,806.640625,-359.375,-465.8203125
4.0450,801.7578125,-362.3046875,-465.3320313
4.0500,811.0351563,-367.1875,-456.0546875
4.0550,816.40625,-374.0234375,-466.796875
4.0600,811.0351563,-379.8828125,-463.3789063
4.0650,817.3828125,-376.4648438,-461.9140625
4.0700,818.359375,-382.8125,-475.0976563
4.0750,813.4765625,-385.7421875,-472.65625
4.0800,803.7109375,-386.2304688,-466.796875
4.0850,804.6875,-363.28125,-472.65625
4.0900,789.5507813,-372.0703125,-463.3789063
4.0950,805.1757813,-365.234375,-481.4453125
4.1000,799.8046875,-370.1171875,-468.75
4.1050,805.1757813,-368.6523438,-471.1914063
4.1100,806.640625,-369.140625,-475.0976563
4.1150,800.2929688,-372.5585938,-483.8867188
4.1200,797.3632813,-362.7929688,-473.6328125
4.1250,795.4101563,-360.3515625,-473.1445313
4.1300,801.2695313,-368.1640625,-475.5859375
4.1350,796.3867188,-369.6289063,-470.703125
4.1400,795.8984375,-363.7695313,-466.3085938
4.1450,789.5507813,-377.9296875,-468.75
4.1500,788.0859375,-375.4882813,-456.0546875
4.1550,799.8046875,-377.4414063,-464.3554688
4.1600,791.015625,-372.5585938,-465.8203125
4.1650,795.8984375,-356.4453125,-463.8671875
4.1700,795.4101563,-356.4453125,-475.5859375
4.1750,810.546875,-357.421875,-484.375
4.1800,813.4765625,-355.46875,-472.65625
4.1850,803.7109375,-363.28125,-485.3515625
4.1900,802.734375,-359.8632813,-461.4257813
4.1950,807.1289063,-365.7226563,-469.2382813
4.2000,805.1757813,-366.2109375,-470.703125
4.2050,802.2460938,-378.4179688,-468.2617188
4.2100,802.2460938,-379.3945313,-458.4960938
4.2150,815.4296875,-373.5351563,-470.703125
4.2200,808.59375,-386.2304688,-468.75
4.2250,803.7109375,-386.2304688,-470.2148438
4.2300,806.640625,-379.3945313,-483.3984375
4.2350,803.7109375,-377.4414063,-466.3085938
4.2400,794.921875,-380.3710938,-459.4726563
4.2450,806.640625,-371.09375,-472.65625
4.2500,802.734375,-367.6757813,-469.2382813
4.2550,811.5234375,-370.6054688,-459.4726563
4.2600,806.1523438,-370.6054688,-465.3320313
4.2650,802.734375,-377.4414063,-471.1914063
4.2700,803.2226563,-381.3476563,-458.4960938
4.2750,804.1992188,-382.8125,-454.5898438
4.2800,806.640625,-375.9765625,-459.9609375
4.2850,808.1054688,-378.4179688,-465.8203125
4.2900,805.6640625,-369.6289063,-455.078125
4.2950,811.5234375,-368.1640625,-459.4726563
4.3000,803.2226563,-372.5585938,-480.46875
4.3050,804.1992188,-381.8359375,-479.0039063
4.3100,808.1054688,-365.234375,-463.8671875
4.3150,812.5,-365.234375,-470.703125
4.3200,825.1953125,-356.9335938,-469.7265625
4.3250,824.21875,-353.515625,-468.75
4.3300,813.9648438,-354.9804688,-480.46875
4.3350,800.78125,-370.1171875,-483.8867188
4.3400,799.8046875,-378.4179688,-470.703125
4.3450,811.5234375,-380.859375,-477.5390625
4.3500,799.3164063,-380.859375,-457.03125
4.3550,804.6875,-390.1367188,-462.890625
4.3600,823.2421875,-379.3945313,-462.890625
4.3650,814.453125,-384.2773438,-463.8671875
4.3700,807.1289063,-379.8828125,-458.0078125
4.3750,807.6171875,-372.5585938,-457.03125
4.3800,807.6171875,-366.6992188,-471.6796875
4.3850,807.6171875,-375.4882813,-460.9375
4.3900,813.4765625,-371.09375,-466.796875
4.3950,808.59375,-371.5820313,-464.3554688
4.4000,813.4765625,-358.3984375,-462.4023438
4.4050,814.453125,-353.515625,-459.9609375
4.4100,810.546875,-361.8164063,-464.3554688
4.4150,818.8476563,-359.8632813,-465.3320313
4.4200,814.9414063,-354.0039063,-460.4492188
4.4250,812.9882813,-359.375,-473.1445313
4.4300,811.5234375,-352.0507813,-456.0546875
4.4350,812.5,-348.1445313,-467.7734375
4.4400,810.546875,-359.8632813,-460.9375
4.4450,822.265625,-355.9570313,-466.796875
4.4500,815.9179688,-355.46875,-454.5898438
4.4550,814.9414063,-354.9804688,-443.8476563
4.4600,813.4765625,-350.5859375,-442.3828125
4.4650,820.3125,-354.4921875,-446.2890625
4.4700,820.8007813,-356.9335938,-446.2890625
4.4750,825.1953125,-358.8867188,-443.8476563
4.4800,827.1484375,-355.9570313,-469.2382813
4.4850,829.1015625,-351.5625,-448.7304688
4.4900,818.359375,-354.0039063,-458.984375
4.4950,820.3125,-344.2382813,-448.2421875
4.5000,813.4765625,-333.0078125,-441.8945313
4.5050,814.453125,-335.9375,-450.1953125
4.5100,812.9882813,-334.9609375,-454.1015625
4.5150,819.3359375,-341.3085938,-429.6875
4.5200,817.8710938,-340.3320313,-443.359375
4.5250,817.8710938,-344.7265625,-445.8007813
4.5300,821.2890625,-350.0976563,-443.8476563
4.5350,828.6132813,-351.0742188,-432.1289063
4.5400,828.125,-346.6796875,-453.125
4.5450,820.3125,-359.8632813,-446.2890625
4.5500,819.8242188,-355.9570313,-442.8710938
4.5550,825.1953125,-344.7265625,-445.8007813
4.5600,804.6875,-350.0976563,-452.1484375
4.5650,810.546875,-334.4726563,-435.546875
4.5700,809.0820313,-339.3554688,-437.0117188
4.5750,805.1757813,-344.7265625,-442.8710938
4.5800,809.0820313,-342.7734375,-432.6171875
4.5850,806.1523438,-354.4921875,-429.1992188
4.5900,807.6171875,-346.6796875,-441.40625
4.5950,808.1054688,-361.328125,-435.546875
4.6000,815.4296875,-343.75,-437.0117188
4.6050,821.2890625,-342.7734375,-439.9414063
4.6100,831.0546875,-338.8671875,-444.8242188
4.6150,823.2421875,-347.65625,-441.40625
4.6200,828.125,-342.7734375,-459.9609375
4.6250,828.6132813,-335.9375,-443.8476563
4.6300,822.7539063,-331.5429688,-441.8945313
4.6350,817.8710938,-336.4257813,-440.4296875
4.6400,820.3125,-331.5429688,-435.0585938
4.6450,825.1953125,-331.0546875,-451.6601563
4.6500,816.40625,-338.8671875,-449.21875
4.6550,829.1015625,-336.9140625,-448.7304688
4.6600,824.21875,-344.7265625,-447.265625
4.6650,834.4726563,-336.4257813,-429.6875
4.6700,826.171875,-346.1914063,-437.0117188
4.6750,817.3828125,-351.0742188,-428.7109375
4.6800,826.6601563,-338.8671875,-410.6445313
4.6850,826.171875,-345.703125,-416.9921875
4.6900,827.1484375,-339.3554688,-427.734375
4.6950,833.4960938,-344.7265625,-431.1523438
4.7000,843.2617188,-334.4726563,-433.59375
4.7050,835.4492188,-348.6328125,-426.7578125
4.7100,835.9375,-336.4257813,-437.5
4.7150,840.3320313,-333.0078125,-446.7773438
4.7200,843.75,-325.1953125,-436.5234375
4.7250,838.3789063,-332.5195313,-431.640625
4.7300,833.4960938,-323.7304688,-437.0117188
4.7350,829.5898438,-319.8242188,-422.3632813
4.7400,830.078125,-322.265625,-422.3632813
4.7450,826.6601563,-323.7304688,-424.3164063
4.7500,831.5429688,-325.1953125,-422.8515625
4.7550,828.125,-337.4023438,-428.2226563
4.7600,836.9140625,-333.0078125,-408.6914063
4.7650,854.4921875,-326.6601563,-422.8515625
4.7700,848.1445313,-332.03125,-419.921875
4.7750,852.0507813,-327.1484375,-419.4335938
4.7800,846.1914063,-320.3125,-416.5039063
4.7850,851.5625,-323.2421875,-409.6679688
4.7900,853.0273438,-325.6835938,-394.53125
4.7950,865.234375,-316.40625,-412.5976563
4.8000,860.3515625,-330.5664063,-404.7851563
4.8050,874.5117188,-328.6132813,-405.7617188
4.8100,858.8867188,-330.078125,-411.6210938
4.8150,865.7226563,-327.6367188,-418.4570313
4.8200,853.0273438,-326.6601563,-401.8554688
4.8250,854.0039063,-323.7304688,-398.4375
4.8300,852.0507813,-321.2890625,-392.0898438
4.8350,853.515625,-313.4765625,-395.5078125
4.8400,843.2617188,-308.59375,-394.0429688
4.8450,837.4023438,-307.1289063,-391.6015625
4.8500,848.6328125,-300.2929688,-406.25
4.8550,853.515625,-299.3164063,-394.53125
4.8600,867.1875,-298.828125,-399.9023438
4.8650,865.234375,-307.6171875,-409.6679688
4.8700,869.140625,-308.59375,-413.0859375
4.8750,868.6523438,-315.9179688,-406.25
4.8800,869.6289063,-313.9648438,-414.0625
4.8850,869.140625,-310.546875,-401.3671875
4.8900,867.1875,-312.5,-393.0664063
4.8950,866.6992188,-315.9179688,-397.9492188
4.9000,862.3046875,-312.9882813,-382.3242188
4.9050,865.7226563,-315.9179688,-398.4375
4.9100,870.1171875,-322.7539063,-391.6015625
4.9150,869.140625,-323.7304688,-414.0625
4.9200,874.5117188,-314.9414063,-398.4375
4.9250,864.2578125,-313.4765625,-420.4101563
4.9300,864.7460938,-304.1992188,-402.34375
4.9350,867.6757813,-297.8515625,-412.109375
4.9400,868.1640625,-298.828125,-412.109375
4.9450,860.8398438,-301.2695313,-402.8320313
4.9500,851.0742188,-300.78125,-401.8554688
4.9550,849.1210938,-293.9453125,-402.34375
4.9600,841.3085938,-298.3398438,-401.8554688
4.9650,846.6796875,-298.3398438,-409.1796875
4.9700,848.1445313,-301.7578125,-390.1367188
4.9750,858.8867188,-303.7109375,-395.9960938
4.9800,853.515625,-304.1992188,-395.5078125
4.9850,856.9335938,-305.6640625,-403.3203125
4.9900,861.328125,-295.4101563,-399.9023438
4.9950,872.5585938,-300.78125,-405.7617188
5.0000,876.953125,-304.1992188,-401.3671875
5.0050,874.5117188,-313.4765625,-421.875
5.0100,878.90625,-305.6640625,-415.0390625
5.0150,869.140625,-305.6640625,-407.2265625
5.0200,858.3984375,-292.4804688,-413.5742188
5.0250,846.6796875,-291.9921875,-392.0898438
5.0300,843.2617188,-284.1796875,-390.625
5.0350,843.75,-291.5039063,-387.6953125
5.0400,843.75,-299.8046875,-384.765625
5.0450,863.28125,-303.2226563,-384.2773438
5.0500,864.7460938,-313.9648438,-383.3007813
5.0550,877.4414063,-308.59375,-394.53125
5.0600,883.3007813,-307.1289063,-381.3476563
5.0650,886.71875,-310.0585938,-394.0429688
5.0700,892.0898438,-309.0820313,-388.1835938
5.0750,896.484375,-311.0351563,-393.0664063
5.0800,900.390625,-302.734375,-382.8125
5.0850,889.1601563,-298.828125,-378.90625
5.0900,888.1835938,-280.7617188,-371.5820313
5.0950,877.9296875,-283.6914063,-397.9492188
5.1000,878.4179688,-280.7617188,-390.625
5.1050,886.2304688,-287.109375,-381.3476563
5.1100,874.5117188,-295.4101563,-370.6054688
5.1150,888.1835938,-289.0625,-373.5351563
5.1200,881.8359375,-286.1328125,-380.3710938
5.1250,888.671875,-280.7617188,-375
5.1300,888.1835938,-286.1328125,-382.8125
5.1350,887.6953125,-279.296875,-376.953125
5.1400,896.9726563,-272.9492188,-373.046875
5.1450,897.4609375,-279.296875,-381.3476563
5.1500,881.8359375,-285.6445313,-381.3476563
5.1550,886.71875,-283.6914063,-389.1601563
5.1600,876.953125,-285.6445313,-374.5117188
5.1650,870.6054688,-286.6210938,-380.3710938
5.1700,883.3007813,-269.53125,-381.3476563
5.1750,880.3710938,-280.7617188,-374.0234375
5.1800,878.90625,-263.1835938,-362.3046875
5.1850,879.8828125,-267.578125,-356.4453125
5.1900,892.0898438,-259.765625,-356.4453125
5.1950,903.3203125,-265.1367188,-362.7929688
5.2000,907.2265625,-276.3671875,-356.4453125
5.2050,912.109375,-279.296875,-368.6523438
5.2100,918.9453125,-276.8554688,-374.5117188
5.2150,913.0859375,-277.34375,-381.8359375
5.2200,911.1328125,-277.34375,-381.8359375
5.2250,905.2734375,-280.7617188,-364.2578125
5.2300,913.5742188,-274.4140625,-351.0742188
5.2350,911.1328125,-266.6015625,-359.375
5.2400,904.296875,-262.6953125,-346.6796875
5.2450,898.4375,-265.1367188,-342.2851563
5.2500,888.1835938,-257.8125,-325.6835938
5.2550,892.0898438,-259.765625,-341.796875
5.2600,897.4609375,-249.0234375,-347.1679688
5.2650,888.671875,-252.4414063,-341.3085938
5.2700,895.5078125,-247.5585938,-358.8867188
5.2750,901.3671875,-250,-352.5390625
5.2800,902.8320313,-251.953125,-344.7265625
5.2850,909.1796875,-250,-344.2382813
5.2900,906.7382813,-252.9296875,-345.703125
5.2950,906.7382813,-259.765625,-332.03125
5.3000,909.6679688,-254.8828125,-337.4023438
5.3050,911.1328125,-261.2304688,-329.5898438
5.3100,916.015625,-255.859375,-338.8671875
5.3150,919.4335938,-257.3242188,-343.75
5.3200,917.96875,-259.765625,-341.796875
5.3250,913.0859375,-264.1601563,-332.5195313
5.3300,913.5742188,-251.4648438,-353.0273438
5.3350,911.6210938,-249.0234375,-345.2148438
5.3400,906.7382813,-242.6757813,-337.4023438
5.3450,908.203125,-240.7226563,-324.21875
5.3500,905.2734375,-251.953125,-309.0820313
5.3550,911.1328125,-257.3242188,-303.7109375
5.3600,916.9921875,-248.046875,-306.640625
5.3650,915.0390625,-245.1171875,-311.0351563
5.3700,914.0625,-249.0234375,-324.21875
5.3750,922.3632813,-248.046875,-329.1015625
5.3800,922.3632813,-243.1640625,-340.8203125
5.3850,922.3632813,-248.046875,-331.5429688
5.3900,920.4101563,-239.7460938,-328.125
5.3950,919.921875,-233.8867188,-326.171875
5.4000,920.8984375,-231.9335938,-336.4257813
5.4050,922.3632813,-229.9804688,-313.4765625
5.4100,919.921875,-238.7695313,-331.0546875
5.4150,921.3867188,-235.3515625,-325.6835938
5.4200,913.0859375,-237.7929688,-316.40625
5.4250,911.1328125,-238.7695313,-321.2890625
5.4300,913.5742188,-243.1640625,-304.6875
5.4350,915.5273438,-249.0234375,-296.3867188
5.4400,922.8515625,-241.2109375,-292.96875
5.4450,922.8515625,-250.9765625,-296.875
5.4500,928.7109375,-267.0898438,-289.0625
5.4550,944.3359375,-270.9960938,-274.4140625
5.4600,947.265625,-279.296875,-273.4375
5.4650,956.5429688,-283.6914063,-287.109375
5.4700,956.5429688,-280.7617188,-286.1328125
5.4750,953.125,-286.6210938,-291.5039063
5.4800,947.265625,-273.9257813,-291.9921875
5.4850,957.03125,-258.7890625,-296.875
5.4900,953.6132813,-231.9335938,-317.8710938
5.4950,937.5,-238.28125,-318.8476563
5.5000,960.4492188,-207.5195313,-298.3398438
5.5050,947.265625,-208.4960938,-311.5234375
5.5100,949.7070313,-200.1953125,-281.7382813
5.5150,945.3125,-187.0117188,-270.5078125
5.5200,942.3828125,-166.015625,-283.203125
5.5250,937.5,-181.640625,-271.9726563
5.5300,933.59375,-196.7773438,-291.015625
5.5350,936.5234375,-205.078125,-275.390625
5.5400,935.546875,-209.9609375,-291.9921875
5.5450,935.0585938,-213.3789063,-271.484375
5.5500,935.546875,-212.890625,-271.484375
5.5550,935.546875,-224.1210938,-283.203125
5.5600,939.9414063,-227.5390625,-262.2070313
5.5650,949.7070313,-221.1914063,-277.34375
5.5700,948.2421875,-223.1445313,-273.4375
5.5750,949.21875,-222.1679688,-290.5273438
5.5800,948.7304688,-218.75,-279.7851563
5.5850,957.03125,-214.3554688,-269.53125
5.5900,949.7070313,-209.4726563,-268.5546875
5.5950,954.1015625,-200.1953125,-274.9023438
5.6000,944.8242188,-199.21875,-267.0898438
5.6050,945.8007813,-193.359375,-263.1835938
5.6100,936.5234375,-189.9414063,-270.0195313
5.6150,931.1523438,-193.8476563,-270.0195313
5.6200,933.1054688,-187.5,-282.7148438
5.6250,925.2929688,-188.4765625,-279.296875
5.6300,922.3632813,-186.5234375,-268.0664063
5.6350,922.3632813,-188.9648438,-261.2304688
5.6400,919.921875,-174.8046875,-265.1367188
5.6450,919.921875,-167.96875,-267.578125
5.6500,921.875,-171.3867188,-241.6992188
5.6550,914.0625,-182.1289063,-249.0234375
5.6600,918.9453125,-189.453125,-255.3710938
5.6650,928.7109375,-187.0117188,-253.4179688
5.6700,941.40625,-186.0351563,-250.4882813
5.6750,937.9882813,-196.2890625,-241.2109375
5.6800,950.1953125,-185.0585938,-242.6757813
5.6850,946.7773438,-177.2460938,-256.8359375
5.6900,941.8945313,-178.2226563,-271.484375
5.6950,947.7539063,-172.3632813,-259.765625
5.7000,940.9179688,-168.4570313,-259.2773438
5.7050,939.453125,-169.4335938,-241.6992188
5.7100,929.6875,-173.3398438,-260.2539063
5.7150,929.1992188,-164.5507813,-242.1875
5.7200,926.2695313,-163.5742188,-230.46875
5.7250,939.453125,-168.4570313,-227.5390625
5.7300,944.3359375,-180.1757813,-229.0039063
5.7350,943.359375,-195.8007813,-223.1445313
5.7400,952.6367188,-186.0351563,-237.7929688
5.7450,954.5898438,-190.9179688,-240.234375
5.7500,959.4726563,-190.4296875,-233.3984375
5.7550,964.84375,-186.0351563,-245.1171875
5.7600,955.078125,-187.5,-251.953125
5.7650,949.7070313,-185.0585938,-252.4414063
5.7700,945.3125,-185.0585938,-247.5585938
5.7750,958.4960938,-175.78125,-252.4414063
5.7800,948.7304688,-171.3867188,-246.09375
5.7850,943.8476563,-174.8046875,-245.6054688
5.7900,938.4765625,-171.3867188,-250.9765625
5.7950,953.125,-166.5039063,-225.0976563
5.8000,959.4726563,-168.9453125,-221.1914063
5.8050,957.03125,-185.546875,-225.0976563
5.8100,947.7539063,-187.0117188,-229.9804688
5.8150,959.9609375,-183.59375,-234.8632813
5.8200,967.7734375,-178.2226563,-216.3085938
5.8250,961.9140625,-180.6640625,-230.46875
5.8300,955.5664063,-171.3867188,-226.5625
5.8350,945.3125,-177.734375,-242.1875
5.8400,954.1015625,-168.4570313,-231.9335938
5.8450,959.4726563,-170.4101563,-221.6796875
5.8500,953.125,-171.3867188,-233.8867188
5.8550,961.4257813,-161.1328125,-248.5351563
5.8600,955.5664063,-150.8789063,-255.3710938
5.8650,946.2890625,-155.7617188,-246.09375
5.8700,949.21875,-152.8320313,-237.3046875
5.8750,945.8007813,-149.4140625,-241.6992188
5.8800,934.0820313,-142.578125,-212.890625
5.8850,930.1757813,-136.71875,-211.4257813
5.8900,925.78125,-127.4414063,-206.0546875
5.8950,940.9179688,-139.1601563,-206.0546875
5.9000,961.9140625,-130.859375,-189.9414063
5.9050,968.75,-147.4609375,-209.4726563
5.9100,987.3046875,-141.1132813,-214.84375
5.9150,974.609375,-152.34375,-230.9570313
5.9200,974.1210938,-151.8554688,-245.1171875
5.9250,966.3085938,-159.1796875,-242.1875
5.9300,978.515625,-154.7851563,-229.0039063
5.9350,970.703125,-169.4335938,-231.4453125
5.9400,975.5859375,-163.5742188,-230.9570313
5.9450,957.5195313,-163.0859375,-208.984375
5.9500,947.7539063,-157.2265625,-208.4960938
5.9550,937.5,-149.4140625,-197.265625
5.9600,937.0117188,-134.765625,-173.828125
5.9650,948.7304688,-126.953125,-166.5039063
5.9700,966.3085938,-126.953125,-155.2734375
5.9750,979.9804688,-123.5351563,-158.203125
5.9800,989.2578125,-134.765625,-183.1054688
5.9850,1000.976563,-130.859375,-212.890625
5.9900,1008.789063,-132.8125,-213.3789063
5.9950,1015.625,-133.7890625,-238.28125
6.0000,1008.789063,-146.484375,-252.9296875
6.0050,1000.488281,-158.203125,-260.2539063
6.0100,980.9570313,-172.3632813,-275.390625
6.0150,970.703125,-165.5273438,-242.6757813
6.0200,945.3125,-163.5742188,-219.2382813
6.0250,932.6171875,-161.1328125,-189.453125
6.0300,926.7578125,-148.9257813,-187.0117188
6.0350,937.5,-141.1132813,-187.0117188
6.0400,939.453125,-138.671875,-192.3828125
6.0450,949.21875,-144.0429688,-198.2421875
6.0500,953.6132813,-138.671875,-195.3125
6.0550,964.3554688,-134.765625,-205.078125
6.0600,970.2148438,-143.0664063,-194.8242188
6.0650,985.8398438,-149.4140625,-214.84375
6.0700,993.6523438,-159.1796875,-229.0039063
6.0750,1000,-154.7851563,-231.4453125
6.0800,989.2578125,-154.7851563,-246.09375
6.0850,975.0976563,-154.296875,-251.953125
6.0900,958.0078125,-160.6445313,-225.0976563
6.0950,953.6132813,-163.5742188,-219.2382813
6.1000,945.3125,-157.7148438,-189.9414063
6.1050,946.7773438,-147.4609375,-183.1054688
6.1100,947.7539063,-124.0234375,-179.6875
6.1150,938.4765625,-111.8164063,-176.2695313
6.1200,954.1015625,-87.890625,-173.3398438
6.1250,974.1210938,-85.44921875,-187.0117188
6.1300,982.421875,-90.8203125,-204.5898438
6.1350,997.0703125,-92.7734375,-223.1445313
6.1400,995.6054688,-107.421875,-240.7226563
6.1450,992.6757813,-113.7695313,-260.2539063
6.1500,992.1875,-119.6289063,-262.6953125
6.1550,990.234375,-132.3242188,-266.1132813
6.1600,978.0273438,-146.9726563,-252.9296875
6.1650,965.8203125,-154.7851563,-242.1875
6.1700,957.5195313,-165.5273438,-246.5820313
6.1750,947.7539063,-174.8046875,-206.5429688
6.1800,945.3125,-161.1328125,-188.9648438
6.1850,934.0820313,-147.9492188,-166.5039063
6.1900,937.0117188,-108.8867188,-170.4101563
6.1950,945.3125,-98.14453125,-168.9453125
6.2000,959.9609375,-93.75,-153.8085938
6.2050,973.6328125,-101.0742188,-157.7148438
6.2100,976.5625,-112.3046875,-171.875
6.2150,983.3984375,-114.2578125,-197.7539063
6.2200,983.3984375,-120.1171875,-215.8203125
6.2250,987.7929688,-125.4882813,-225.5859375
6.2300,992.6757813,-135.7421875,-223.6328125
6.2350,998.046875,-145.0195313,-259.2773438
6.2400,988.28125,-146.484375,-243.1640625
6.2450,981.4453125,-154.7851563,-256.3476563
6.2500,982.421875,-136.2304688,-252.4414063
6.2550,964.3554688,-131.3476563,-249.5117188
6.2600,962.890625,-121.5820313,-221.6796875
6.2650,957.5195313,-109.375,-207.5195313
6.2700,953.125,-97.16796875,-182.6171875
6.2750,959.9609375,-97.65625,-183.59375
6.2800,953.125,-97.65625,-172.3632813
6.2850,955.078125,-89.35546875,-187.5
6.2900,957.5195313,-87.890625,-202.6367188
6.2950,960.9375,-97.16796875,-202.6367188
6.3000,969.2382813,-109.375,-207.03125
6.3050,974.609375,-111.328125,-208.984375
6.3100,981.4453125,-113.28125,-217.7734375
6.3150,987.3046875,-117.1875,-224.609375
6.3200,987.7929688,-120.1171875,-213.8671875
6.3250,989.2578125,-114.7460938,-212.4023438
6.3300,979.9804688,-121.09375,-212.4023438
6.3350,987.3046875,-118.6523438,-215.8203125
6.3400,974.1210938,-133.3007813,-208.984375
6.3450,978.0273438,-139.6484375,-198.2421875
6.3500,979.0039063,-141.1132813,-213.3789063
6.3550,983.3984375,-145.5078125,-219.2382813
6.3600,984.375,-134.2773438,-218.2617188
6.3650,975.5859375,-126.4648438,-200.6835938
6.3700,967.7734375,-115.234375,-208.984375
6.3750,968.2617188,-118.1640625,-214.3554688
6.3800,977.0507813,-102.5390625,-218.2617188
6.3850,973.6328125,-107.421875,-216.3085938
6.3900,974.1210938,-109.8632813,-227.5390625
6.3950,970.703125,-109.375,-220.703125
6.4000,975.0976563,-102.5390625,-224.609375
6.4050,979.0039063,-97.16796875,-208.4960938
6.4100,969.7265625,-100.0976563,-214.84375
6.4150,981.4453125,-99.609375,-200.1953125
6.4200,974.609375,-109.8632813,-203.6132813
6.4250,973.1445313,-118.6523438,-197.265625
6.4300,972.65625,-128.90625,-192.8710938
6.4350,990.7226563,-117.1875,-194.3359375
6.4400,979.4921875,-129.8828125,-194.3359375
6.4450,980.9570313,-127.9296875,-215.3320313
6.4500,971.1914063,-128.90625,-220.703125
6.4550,978.0273438,-121.09375,-228.0273438
6.4600,968.2617188,-121.09375,-236.8164063
6.4650,965.8203125,-117.1875,-254.8828125
6.4700,958.0078125,-107.9101563,-245.1171875
6.4750,951.6601563,-104.4921875,-245.6054688
6.4800,953.125,-89.84375,-240.7226563
6.4850,944.8242188,-87.40234375,-224.1210938
6.4900,952.1484375,-77.1484375,-209.9609375
6.4950,955.078125,-73.73046875,-215.8203125
6.5000,960.4492188,-68.84765625,-206.0546875
6.5050,960.4492188,-90.8203125,-218.2617188
6.5100,968.2617188,-89.35546875,-212.4023438
6.5150,973.6328125,-109.375,-214.84375
6.5200,978.0273438,-118.6523438,-221.1914063
6.5250,979.9804688,-134.2773438,-213.8671875
6.5300,986.8164063,-133.3007813,-230.9570313
6.5350,979.4921875,-144.0429688,-241.6992188
6.5400,977.5390625,-146.484375,-250.9765625
6.5450,969.2382813,-156.25,-269.53125
6.5500,964.84375,-153.3203125,-258.3007813
6.5550,958.4960938,-145.5078125,-262.2070313
6.5600,959.4726563,-130.859375,-254.8828125
6.5650,956.0546875,-117.6757813,-230.9570313
6.5700,960.4492188,-100.0976563,-225.5859375
6.5750,963.3789063,-83.984375,-223.1445313
6.5800,964.84375,-72.75390625,-224.609375
6.5850,962.890625,-68.84765625,-215.8203125
6.5900,957.03125,-69.82421875,-219.7265625
6.5950,958.984375,-75.68359375,-234.8632813
6.6000,956.5429688,-85.44921875,-231.9335938
6.6050,961.4257813,-86.9140625,-228.0273438
6.6100,971.6796875,-74.21875,-237.7929688
6.6150,969.7265625,-98.6328125,-239.2578125
6.6200,975.5859375,-99.609375,-224.1210938
6.6250,980.9570313,-101.0742188,-234.375
6.6300,988.28125,-113.7695313,-228.515625
6.6350,990.234375,-122.5585938,-216.796875
6.6400,994.6289063,-115.234375,-198.7304688
6.6450,987.3046875,-119.140625,-205.5664063
6.6500,994.6289063,-105.9570313,-181.1523438
6.6550,992.6757813,-101.0742188,-187.0117188
6.6600,998.046875,-84.47265625,-182.1289063
6.6650,998.5351563,-77.1484375,-183.1054688
6.6700,986.328125,-74.70703125,-172.8515625
6.6750,999.5117188,-62.5,-191.40625
6.6800,986.328125,-59.08203125,-183.59375
6.6850,994.140625,-48.33984375,-201.171875
6.6900,996.09375,-47.36328125,-215.8203125
6.6950,990.7226563,-56.15234375,-226.5625
6.7000,987.3046875,-58.59375,-230.9570313
6.7050,984.8632813,-64.94140625,-247.0703125
6.7100,975.5859375,-77.63671875,-247.5585938
6.7150,974.609375,-88.37890625,-247.0703125
6.7200,982.9101563,-89.84375,-244.6289063
6.7250,979.0039063,-94.23828125,-246.5820313
6.7300,983.3984375,-95.703125,-233.3984375
6.7350,986.328125,-96.6796875,-234.375
6.7400,972.65625,-88.8671875,-241.6992188
6.7450,963.3789063,-90.33203125,-246.09375
6.7500,959.4726563,-89.84375,-230.46875
6.7550,962.890625,-86.9140625,-238.7695313
6.7600,961.9140625,-81.54296875,-241.6992188
6.7650,970.2148438,-81.0546875,-254.3945313
6.7700,966.3085938,-80.56640625,-264.1601563
6.7750,960.4492188,-91.796875,-257.8125
6.7800,960.9375,-87.890625,-270.9960938
6.7850,959.4726563,-91.30859375,-259.2773438
6.7900,963.8671875,-87.890625,-261.2304688
6.7950,959.9609375,-101.5625,-263.671875
6.8000,962.4023438,-96.6796875,-242.1875
6.8050,958.984375,-98.14453125,-265.625
6.8100,967.2851563,-85.44921875,-248.046875
6.8150,956.0546875,-88.37890625,-245.6054688
6.8200,950.1953125,-85.44921875,-256.8359375
6.8250,950.6835938,-74.70703125,-249.5117188
6.8300,943.8476563,-72.75390625,-254.3945313
6.8350,948.7304688,-73.2421875,-237.3046875
6.8400,943.8476563,-68.84765625,-248.5351563
6.8450,950.6835938,-58.59375,-252.4414063
6.8500,959.4726563,-55.6640625,-233.3984375
6.8550,962.4023438,-58.10546875,-231.9335938
6.8600,973.1445313,-54.6875,-228.0273438
6.8650,966.796875,-68.84765625,-230.46875
6.8700,977.5390625,-62.5,-236.8164063
6.8750,969.7265625,-84.47265625,-245.1171875
6.8800,971.6796875,-77.63671875,-247.5585938
6.8850,973.1445313,-86.9140625,-248.5351563
6.8900,970.2148438,-86.9140625,-254.3945313
6.8950,973.6328125,-81.0546875,-260.2539063
6.9000,968.75,-89.35546875,-251.4648438
6.9050,957.03125,-97.65625,-277.34375
6.9100,961.9140625,-92.7734375,-272.9492188
6.9150,968.2617188,-85.44921875,-250.4882813
6.9200,962.4023438,-83.984375,-249.0234375
6.9250,962.890625,-82.51953125,-225.5859375
6.9300,967.2851563,-71.77734375,-240.234375
6.9350,960.4492188,-85.44921875,-228.515625
6.9400,961.4257813,-77.1484375,-234.8632813
6.9450,961.9140625,-71.77734375,-231.4453125
6.9500,962.890625,-63.96484375,-225.5859375
6.9550,966.3085938,-66.40625,-221.1914063
6.9600,970.2148438,-59.5703125,-228.515625
6.9650,970.703125,-64.453125,-229.0039063
6.9700,962.4023438,-64.453125,-230.46875
6.9750,969.7265625,-74.21875,-252.4414063
6.9800,972.1679688,-73.73046875,-243.6523438
6.9850,974.609375,-78.61328125,-243.6523438
6.9900,987.3046875,-70.3125,-253.4179688
6.9950,981.9335938,-84.47265625,-248.5351563
7.0000,985.8398438,-86.9140625,-254.8828125
7.0050,994.6289063,-86.9140625,-256.8359375
7.0100,989.7460938,-95.21484375,-243.6523438
7.0150,999.0234375,-85.9375,-244.6289063
7.0200,999.0234375,-74.70703125,-254.8828125
7.0250,989.7460938,-73.73046875,-242.6757813
7.0300,982.9101563,-65.91796875,-243.1640625
7.0350,972.1679688,-61.03515625,-260.7421875
7.0400,972.1679688,-50.29296875,-260.2539063
7.0450,963.8671875,-46.38671875,-250.9765625
7.0500,967.2851563,-46.38671875,-259.2773438
7.0550,958.0078125,-57.6171875,-270.5078125
7.0600,955.078125,-59.5703125,-252.9296875
7.0650,959.4726563,-62.01171875,-256.3476563
7.0700,958.0078125,-67.3828125,-248.046875
7.0750,962.4023438,-75.68359375,-246.5820313
7.0800,959.9609375,-77.63671875,-247.0703125
7.0850,969.7265625,-69.82421875,-245.1171875
7.0900,962.890625,-76.66015625,-235.3515625
7.0950,964.84375,-70.3125,-237.7929688
7.1000,955.5664063,-64.94140625,-235.8398438
7.1050,965.3320313,-56.640625,-236.328125
7.1100,955.078125,-55.6640625,-244.140625
7.1150,966.796875,-48.33984375,-244.140625
7.1200,960.4492188,-56.640625,-236.8164063
7.1250,953.6132813,-66.89453125,-245.1171875
7.1300,962.4023438,-54.6875,-248.046875
7.1350,966.796875,-58.10546875,-254.8828125
7.1400,961.9140625,-59.08203125,-246.09375
7.1450,969.7265625,-55.6640625,-239.2578125
7.1500,967.2851563,-55.6640625,-234.375
7.1550,967.7734375,-61.03515625,-231.9335938
7.1600,975.5859375,-57.6171875,-240.7226563
7.1650,982.9101563,-51.26953125,-229.9804688
7.1700,976.0742188,-49.8046875,-229.0039063
7.1750,983.8867188,-47.36328125,-237.3046875
7.1800,984.375,-48.828125,-240.7226563
7.1850,983.8867188,-49.8046875,-215.8203125
7.1900,978.0273438,-53.7109375,-219.7265625
7.1950,988.7695313,-48.33984375,-234.8632813
7.2000,980.9570313,-53.22265625,-211.9140625
7.2050,984.375,-51.7578125,-219.2382813
7.2100,989.2578125,-54.19921875,-202.6367188
7.2150,988.7695313,-57.12890625,-228.515625
7.2200,982.9101563,-62.5,-229.0039063
7.2250,974.609375,-62.98828125,-226.5625
7.2300,980.9570313,-53.7109375,-248.046875
7.2350,979.0039063,-53.7109375,-235.3515625
7.2400,977.5390625,-48.828125,-245.6054688
7.2450,981.9335938,-57.6171875,-243.6523438
7.2500,978.515625,-69.3359375,-229.0039063
7.2550,982.9101563,-62.98828125,-218.2617188
7.2600,986.8164063,-62.5,-221.1914063
7.2650,992.1875,-56.640625,-227.5390625
7.2700,989.7460938,-41.015625,-207.5195313
7.2750,988.28125,-44.43359375,-218.2617188
7.2800,975.5859375,-54.19921875,-217.2851563
7.2850,976.0742188,-51.26953125,-222.65625
7.2900,970.703125,-57.6171875,-219.2382813
7.2950,972.1679688,-67.3828125,-218.75
7.3000,968.2617188,-54.19921875,-223.1445313
7.3050,985.3515625,-41.50390625,-204.5898438
7.3100,986.328125,-38.0859375,-205.5664063
7.3150,985.3515625,-44.921875,-219.7265625
7.3200,987.3046875,-39.55078125,-210.4492188
7.3250,987.3046875,-40.0390625,-204.5898438
7.3300,975.5859375,-44.43359375,-206.0546875
7.3350,983.3984375,-41.50390625,-211.9140625
7.3400,981.4453125,-34.1796875,-189.453125
7.3450,973.1445313,-37.109375,-197.265625
7.3500,972.65625,-37.109375,-207.03125
7.3550,967.2851563,-47.8515625,-212.890625
7.3600,953.6132813,-61.03515625,-235.3515625
7.3650,964.84375,-56.640625,-248.046875
7.3700,949.7070313,-61.03515625,-260.2539063
7.3750,967.7734375,-38.57421875,-253.4179688
7.3800,964.3554688,-44.43359375,-254.3945313
7.3850,957.5195313,-48.33984375,-253.90625
7.3900,963.3789063,-41.015625,-241.6992188
7.3950,962.890625,-50.29296875,-238.7695313
7.4000,955.078125,-41.50390625,-228.515625
7.4050,959.9609375,-40.0390625,-245.6054688
7.4100,968.2617188,-45.8984375,-244.140625
7.4150,968.2617188,-62.98828125,-247.0703125
7.4200,965.3320313,-71.77734375,-255.859375
7.4250,965.8203125,-80.56640625,-239.2578125
7.4300,967.2851563,-77.1484375,-244.6289063
7.4350,971.6796875,-81.0546875,-240.234375
7.4400,978.515625,-84.47265625,-249.5117188
7.4450,972.1679688,-94.23828125,-257.8125
7.4500,976.0742188,-99.609375,-247.0703125
7.4550,975.0976563,-100.5859375,-250.9765625
7.4600,970.703125,-97.16796875,-251.4648438
7.4650,969.2382813,-82.51953125,-243.6523438
7.4700,972.1679688,-77.63671875,-230.46875
7.4750,970.2148438,-65.4296875,-241.2109375
7.4800,964.84375,-66.40625,-232.9101563
7.4850,958.0078125,-62.01171875,-238.28125
7.4900,960.4492188,-59.5703125,-247.0703125
7.4950,966.796875,-54.19921875,-244.140625
7.5000,961.4257813,-59.08203125,-242.1875
7.5050,965.8203125,-68.359375,-247.0703125
7.5100,960.9375,-74.70703125,-240.7226563
7.5150,954.1015625,-85.44921875,-260.7421875
7.5200,958.4960938,-82.03125,-245.6054688
7.5250,958.4960938,-93.75,-248.046875
7.5300,965.3320313,-87.890625,-259.765625
7.5350,958.984375,-96.6796875,-251.4648438
7.5400,964.3554688,-82.03125,-258.3007813
7.5450,959.4726563,-85.9375,-264.6484375
7.5500,960.4492188,-80.56640625,-265.1367188
7.5550,962.890625,-85.9375,-271.484375
7.5600,962.4023438,-80.078125,-286.6210938
7.5650,968.2617188,-84.47265625,-269.0429688
7.5700,968.75,-83.984375,-265.1367188
7.5750,972.1679688,-84.9609375,-267.578125
7.5800,963.8671875,-96.6796875,-259.2773438
7.5850,971.6796875,-104.9804688,-240.7226563
7.5900,965.3320313,-117.1875,-248.046875
7.5950,975.5859375,-114.7460938,-246.5820313
7.6000,970.2148438,-118.1640625,-251.4648438
7.6050,966.796875,-123.046875,-249.0234375
7.6100,968.75,-112.7929688,-252.9296875
7.6150,964.3554688,-118.6523438,-254.3945313
7.6200,969.2382813,-107.9101563,-261.2304688
7.6250,959.4726563,-105.9570313,-245.1171875
7.6300,958.4960938,-92.7734375,-220.2148438
7.6350,958.4960938,-82.51953125,-204.1015625
7.6400,958.984375,-76.171875,-201.171875
7.6450,946.2890625,-76.171875,-195.8007813
7.6500,963.8671875,-52.24609375,-222.65625
7.6550,968.2617188,-58.59375,-222.65625
7.6600,966.796875,-77.63671875,-229.0039063
7.6650,966.3085938,-87.890625,-237.3046875
7.6700,968.75,-96.19140625,-236.8164063
7.6750,981.4453125,-89.84375,-241.6992188
7.6800,982.421875,-113.7695313,-233.3984375
7.6850,984.375,-116.2109375,-227.0507813
7.6900,982.421875,-118.1640625,-229.4921875
7.6950,994.140625,-106.9335938,-226.0742188
7.7000,988.7695313,-112.7929688,-250.4882813
7.7050,995.1171875,-107.9101563,-251.953125
7.7100,994.6289063,-108.8867188,-253.90625
7.7150,993.6523438,-116.2109375,-263.671875
7.7200,999.0234375,-106.4453125,-257.8125
7.7250,993.6523438,-96.19140625,-250
7.7300,983.8867188,-104.9804688,-252.4414063
7.7350,989.2578125,-101.5625,-246.5820313
7.7400,987.3046875,-100.5859375,-229.9804688
7.7450,981.4453125,-103.515625,-224.609375
7.7500,962.4023438,-108.3984375,-230.46875
7.7550,960.4492188,-104.4921875,-235.3515625
7.7600,957.03125,-105.46875,-220.2148438
7.7650,963.3789063,-102.5390625,-218.2617188
7.7700,963.3789063,-108.8867188,-217.2851563
7.7750,967.7734375,-105.46875,-222.1679688
7.7800,967.2851563,-102.5390625,-213.8671875
7.7850,974.609375,-110.3515625,-225.5859375
7.7900,974.1210938,-109.375,-218.75
7.7950,977.0507813,-111.328125,-215.3320313
7.8000,958.984375,-117.1875,-236.8164063
7.8050,963.8671875,-114.2578125,-213.3789063
7.8100,954.1015625,-112.7929688,-198.2421875
7.8150,946.7773438,-105.9570313,-196.7773438
7.8200,950.1953125,-96.6796875,-206.0546875
7.8250,944.3359375,-95.21484375,-208.0078125
7.8300,956.0546875,-82.03125,-194.8242188
7.8350,949.7070313,-87.40234375,-194.8242188
7.8400,943.359375,-81.54296875,-201.6601563
7.8450,940.4296875,-77.63671875,-210.4492188
7.8500,952.6367188,-72.265625,-201.6601563
7.8550,959.4726563,-78.125,-203.125
7.8600,945.8007813,-95.21484375,-218.2617188
7.8650,952.6367188,-103.0273438,-237.3046875
7.8700,955.5664063,-103.0273438,-211.4257813
7.8750,952.1484375,-116.2109375,-215.3320313
7.8800,958.0078125,-115.7226563,-213.8671875
7.8850,959.9609375,-118.6523438,-221.6796875
7.8900,954.1015625,-113.7695313,-207.5195313
7.8950,969.2382813,-114.7460938,-217.2851563
7.9000,966.796875,-127.9296875,-231.4453125
7.9050,961.9140625,-142.578125,-225.0976563
7.9100,960.4492188,-139.1601563,-226.5625
7.9150,969.2382813,-135.2539063,-222.65625
7.9200,965.3320313,-137.2070313,-227.5390625
7.9250,980.9570313,-128.90625,-234.8632813
7.9300,982.9101563,-129.3945313,-222.65625
7.9350,976.0742188,-143.5546875,-225.0976563
7.9400,982.421875,-132.8125,-227.5390625
7.9450,985.3515625,-137.6953125,-226.0742188
7.9500,986.8164063,-129.8828125,-240.234375
7.9550,976.0742188,-142.0898438,-238.7695313
7.9600,967.7734375,-143.0664063,-234.375
7.9650,976.5625,-132.8125,-230.9570313
7.9700,982.9101563,-139.1601563,-228.515625
7.9750,991.6992188,-137.6953125,-226.5625
7.9800,973.1445313,-145.0195313,-228.515625
7.9850,980.9570313,-128.90625,-220.703125
7.9900,972.1679688,-120.6054688,-223.1445313
7.9950,964.84375,-133.3007813,-245.6054688
8.0000,975.5859375,-131.3476563,-235.8398438
8.0050,976.5625,-135.7421875,-227.5390625
8.0100,963.8671875,-138.1835938,-239.7460938
8.0150,965.8203125,-130.3710938,-227.0507813
8.0200,961.9140625,-134.765625,-215.3320313
8.0250,958.984375,-144.0429688,-216.796875
8.0300,959.9609375,-155.2734375,-215.3320313
8.0350,971.1914063,-160.6445313,-215.8203125
8.0400,960.9375,-174.3164063,-222.65625
8.0450,960.4492188,-172.8515625,-212.4023438
8.0500,967.2851563,-161.6210938,-214.84375
8.0550,968.2617188,-162.109375,-233.8867188
8.0600,968.2617188,-154.7851563,-228.0273438
8.0650,969.7265625,-156.25,-224.609375
8.0700,967.7734375,-147.4609375,-236.328125
8.0750,975.5859375,-146.9726563,-220.703125
8.0800,961.4257813,-152.34375,-227.0507813
8.0850,972.1679688,-149.4140625,-242.1875
8.0900,960.9375,-159.6679688,-229.4921875
8.0950,961.4257813,-157.2265625,-239.7460938
8.1000,952.1484375,-168.4570313,-228.515625
8.1050,953.125,-170.4101563,-236.8164063
8.1100,949.21875,-176.7578125,-225.0976563
8.1150,942.8710938,-166.015625,-238.7695313
8.1200,950.6835938,-156.7382813,-230.46875
8.1250,946.7773438,-165.5273438,-225.5859375
8.1300,960.9375,-176.7578125,-223.1445313
8.1350,978.0273438,-184.0820313,-214.3554688
8.1400,974.1210938,-187.5,-219.7265625
8.1450,972.65625,-180.6640625,-225.0976563
8.1500,964.84375,-186.0351563,-223.1445313
8.1550,966.796875,-185.546875,-235.3515625
8.1600,966.796875,-184.5703125,-216.3085938
8.1650,969.2382813,-174.3164063,-230.9570313
8.1700,960.4492188,-178.2226563,-230.46875
8.1750,958.0078125,-176.2695313,-235.8398438
8.1800,945.8007813,-184.5703125,-220.2148438
8.1850,952.6367188,-177.734375,-226.0742188
8.1900,958.4960938,-172.8515625,-227.0507813
8.1950,952.6367188,-180.1757813,-218.2617188
8.2000,951.171875,-175.2929688,-216.796875
8.2050,940.4296875,-194.3359375,-230.9570313
8.2100,952.6367188,-190.9179688,-230.9570313
8.2150,947.265625,-205.078125,-221.6796875
8.2200,953.125,-207.03125,-219.7265625
8.2250,963.3789063,-204.5898438,-214.84375
8.2300,965.3320313,-194.8242188,-219.7265625
8.2350,971.6796875,-180.6640625,-229.4921875
8.2400,958.0078125,-194.8242188,-221.6796875
8.2450,961.4257813,-194.8242188,-218.2617188
8.2500,957.5195313,-190.9179688,-229.4921875
8.2550,949.21875,-187.9882813,-224.1210938
8.2600,945.8007813,-188.9648438,-212.4023438
8.2650,950.6835938,-185.0585938,-222.1679688
8.2700,953.125,-181.1523438,-218.2617188
8.2750,946.2890625,-195.8007813,-228.515625
8.2800,954.5898438,-184.5703125,-243.1640625
8.2850,946.7773438,-201.171875,-244.140625
8.2900,960.9375,-202.1484375,-228.515625
8.2950,959.4726563,-211.4257813,-227.5390625
8.3000,959.9609375,-217.7734375,-221.6796875
8.3050,951.171875,-208.984375,-224.1210938
8.3100,953.6132813,-203.6132813,-240.234375
8.3150,955.078125,-199.21875,-232.421875
8.3200,948.7304688,-203.6132813,-242.1875
8.3250,958.0078125,-206.5429688,-250.4882813
8.3300,934.5703125,-227.5390625,-249.5117188
8.3350,935.0585938,-229.0039063,-243.1640625
8.3400,926.2695313,-233.8867188,-223.1445313
8.3450,931.640625,-234.8632813,-209.4726563
8.3500,948.2421875,-220.2148438,-227.5390625
8.3550,951.171875,-218.2617188,-232.9101563
8.3600,953.6132813,-222.65625,-245.6054688
8.3650,953.125,-231.9335938,-260.7421875
8.3700,945.3125,-221.6796875,-232.9101563
8.3750,950.6835938,-213.8671875,-244.140625
8.3800,938.4765625,-221.6796875,-247.0703125
8.3850,937.9882813,-244.140625,-233.3984375
8.3900,940.9179688,-246.09375,-249.0234375
8.3950,943.8476563,-241.6992188,-253.4179688
8.4000,939.9414063,-233.8867188,-265.625
8.4050,936.0351563,-235.8398438,-242.6757813
8.4100,933.1054688,-234.375,-238.28125
8.4150,938.4765625,-228.0273438,-245.6054688
8.4200,930.6640625,-222.1679688,-235.8398438
8.4250,930.6640625,-220.703125,-236.8164063
8.4300,930.1757813,-225.5859375,-239.2578125
8.4350,926.2695313,-236.8164063,-238.28125
8.4400,938.9648438,-231.4453125,-248.5351563
8.4450,939.453125,-252.9296875,-256.8359375
8.4500,946.2890625,-243.1640625,-259.765625
8.4550,956.5429688,-253.4179688,-270.5078125
8.4600,942.3828125,-267.578125,-285.6445313
8.4650,939.9414063,-276.3671875,-279.296875
8.4700,939.9414063,-265.625,-267.578125
8.4750,941.8945313,-261.2304688,-255.3710938
8.4800,917.96875,-266.1132813,-250.4882813
8.4850,920.8984375,-252.4414063,-253.4179688
8.4900,913.5742188,-258.7890625,-260.2539063
8.4950,916.9921875,-259.765625,-261.2304688
8.5000,915.5273438,-265.625,-261.2304688
8.5050,918.9453125,-264.1601563,-259.2773438
8.5100,911.6210938,-265.625,-260.2539063
8.5150,917.4804688,-264.6484375,-264.6484375
8.5200,927.734375,-265.625,-247.0703125
8.5250,931.640625,-268.5546875,-268.0664063
8.5300,928.7109375,-272.9492188,-272.9492188
8.5350,931.1523438,-275.8789063,-269.53125
8.5400,931.640625,-279.296875,-275.8789063
8.5450,933.59375,-270.0195313,-283.203125
8.5500,924.8046875,-266.6015625,-272.9492188
8.5550,930.6640625,-269.53125,-279.7851563
8.5600,909.1796875,-278.3203125,-283.203125
8.5650,907.7148438,-287.109375,-277.8320313
8.5700,909.6679688,-290.0390625,-285.15625
8.5750,914.5507813,-289.0625,-280.2734375
8.5800,918.9453125,-285.6445313,-260.7421875
8.5850,904.7851563,-288.5742188,-280.7617188
8.5900,906.7382813,-286.1328125,-283.203125
8.5950,903.8085938,-297.3632813,-285.15625
8.6000,912.109375,-291.015625,-289.5507813
8.6050,921.3867188,-282.2265625,-294.4335938
8.6100,926.2695313,-269.53125,-298.3398438
8.6150,921.3867188,-272.9492188,-311.0351563
8.6200,917.4804688,-281.25,-284.6679688
8.6250,909.1796875,-297.8515625,-292.96875
8.6300,900.390625,-308.59375,-300.78125
8.6350,908.203125,-298.3398438,-300.78125
8.6400,901.8554688,-299.3164063,-304.1992188
8.6450,884.2773438,-327.1484375,-299.3164063
8.6500,877.9296875,-321.2890625,-298.3398438
8.6550,882.8125,-322.7539063,-288.0859375
8.6600,882.8125,-320.8007813,-276.8554688
8.6650,892.0898438,-320.8007813,-283.203125
8.6700,898.4375,-315.4296875,-293.4570313
8.6750,908.6914063,-315.4296875,-305.1757813
8.6800,907.7148438,-326.6601563,-311.0351563
8.6850,933.59375,-331.0546875,-300.78125
8.6900,949.7070313,-330.5664063,-307.6171875
8.6950,960.9375,-317.8710938,-338.3789063
8.7000,957.03125,-306.1523438,-327.6367188
8.7050,955.078125,-299.3164063,-326.171875
8.7100,917.96875,-314.9414063,-324.21875
8.7150,900.390625,-334.4726563,-333.4960938
8.7200,899.4140625,-329.5898438,-305.6640625
8.7250,881.3476563,-338.8671875,-306.640625
8.7300,880.859375,-336.9140625,-287.109375
8.7350,890.625,-323.2421875,-288.0859375
8.7400,884.2773438,-332.03125,-281.7382813
8.7450,892.0898438,-327.1484375,-294.921875
8.7500,897.4609375,-316.8945313,-299.8046875
8.7550,904.296875,-325.6835938,-304.6875
8.7600,916.015625,-323.2421875,-302.2460938
8.7650,915.0390625,-324.21875,-319.3359375
8.7700,899.4140625,-341.796875,-326.171875
8.7750,892.0898438,-337.4023438,-317.8710938
8.7800,883.7890625,-319.3359375,-321.7773438
8.7850,878.90625,-325.1953125,-323.7304688
8.7900,875,-336.9140625,-321.7773438
8.7950,880.3710938,-328.6132813,-322.7539063
8.8000,863.28125,-328.6132813,-326.6601563
8.8050,863.7695313,-312.9882813,-316.40625
8.8100,859.375,-320.3125,-318.8476563
8.8150,859.375,-334.9609375,-318.8476563
8.8200,876.4648438,-334.9609375,-314.9414063
8.8250,868.1640625,-337.4023438,-330.078125
8.8300,862.3046875,-338.8671875,-328.125
8.8350,874.0234375,-346.6796875,-328.6132813
8.8400,875.4882813,-355.46875,-345.703125
8.8450,884.765625,-349.609375,-341.3085938
8.8500,889.1601563,-342.7734375,-349.1210938
8.8550,887.2070313,-346.6796875,-347.65625
8.8600,878.90625,-349.1210938,-335.4492188
8.8650,871.09375,-354.9804688,-326.171875
8.8700,855.46875,-352.0507813,-305.1757813
8.8750,861.328125,-341.3085938,-315.4296875
8.8800,852.0507813,-351.0742188,-318.8476563
8.8850,855.46875,-356.4453125,-309.0820313
8.8900,864.7460938,-360.8398438,-314.9414063
8.8950,862.7929688,-360.3515625,-320.3125
8.9000,865.7226563,-345.703125,-331.0546875
8.9050,865.7226563,-351.5625,-327.6367188
8.9100,861.8164063,-360.8398438,-334.9609375
8.9150,865.7226563,-355.46875,-336.4257813
8.9200,865.7226563,-343.2617188,-334.9609375
8.9250,855.46875,-345.703125,-333.4960938
8.9300,867.1875,-343.2617188,-344.2382813
8.9350,865.234375,-351.0742188,-348.1445313
8.9400,856.4453125,-352.0507813,-362.7929688
8.9450,852.5390625,-364.2578125,-359.8632813
8.9500,846.6796875,-360.3515625,-365.7226563
8.9550,854.9804688,-360.3515625,-357.421875
8.9600,855.46875,-362.3046875,-374.5117188
8.9650,861.328125,-366.2109375,-364.7460938
8.9700,855.46875,-387.2070313,-377.9296875
8.9750,861.328125,-397.9492188,-360.8398438
8.9800,852.5390625,-403.8085938,-364.2578125
8.9850,861.8164063,-394.53125,-369.6289063
8.9900,852.5390625,-395.9960938,-366.6992188
8.9950,857.9101563,-386.2304688,-377.9296875
9.0000,836.9140625,-394.53125,-374.0234375
9.0050,845.2148438,-377.4414063,-359.8632813
9.0100,844.2382813,-364.2578125,-368.1640625
9.0150,858.8867188,-368.6523438,-369.140625
9.0200,860.3515625,-379.3945313,-364.7460938
9.0250,855.46875,-390.625,-372.0703125
9.0300,854.4921875,-396.9726563,-370.1171875
9.0350,865.7226563,-402.34375,-375.9765625
9.0400,861.328125,-405.7617188,-402.34375
9.0450,853.0273438,-399.9023438,-413.5742188
9.0500,851.0742188,-372.0703125,-371.5820313
9.0550,846.1914063,-376.953125,-386.2304688
9.0600,837.890625,-384.765625,-389.1601563
9.0650,860.3515625,-394.53125,-388.671875
9.0700,861.328125,-394.0429688,-379.8828125
9.0750,856.9335938,-393.5546875,-378.4179688
9.0800,850.0976563,-405.7617188,-395.5078125
9.0850,850.5859375,-419.4335938,-400.390625
9.0900,854.0039063,-410.15625,-381.3476563
9.0950,855.46875,-405.2734375,-398.9257813
9.1000,841.796875,-397.4609375,-387.6953125
9.1050,837.890625,-379.3945313,-370.6054688
9.1100,822.265625,-375.9765625,-365.7226563
9.1150,815.9179688,-371.09375,-365.7226563
9.1200,812.9882813,-357.421875,-361.328125
9.1250,805.6640625,-370.6054688,-353.515625
9.1300,798.3398438,-378.90625,-362.3046875
9.1350,800.2929688,-381.8359375,-356.4453125
9.1400,822.7539063,-367.1875,-374.0234375
9.1450,823.7304688,-375.4882813,-379.8828125
9.1500,809.5703125,-392.578125,-383.7890625
9.1550,813.4765625,-398.9257813,-395.5078125
9.1600,821.2890625,-388.1835938,-375
9.1650,825.6835938,-383.7890625,-404.7851563
9.1700,822.7539063,-380.859375,-405.7617188
9.1750,816.40625,-387.6953125,-388.671875
9.1800,807.6171875,-380.859375,-399.9023438
9.1850,817.8710938,-371.5820313,-407.2265625
9.1900,820.3125,-375.4882813,-406.25
9.1950,810.546875,-387.6953125,-403.3203125
9.2000,812.5,-387.2070313,-406.7382813
9.2050,827.6367188,-394.0429688,-403.3203125
9.2100,832.5195313,-396.9726563,-375.9765625
9.2150,847.1679688,-396.9726563,-410.6445313
9.2200,856.4453125,-408.203125,-419.921875
9.2250,842.2851563,-421.3867188,-423.3398438
9.2300,828.6132813,-421.3867188,-395.0195313
9.2350,831.0546875,-423.3398438,-392.0898438
9.2400,845.703125,-421.875,-400.390625
9.2450,828.125,-431.1523438,-392.578125
9.2500,825.1953125,-434.0820313,-373.5351563
9.2550,849.609375,-437.5,-381.8359375
9.2600,864.2578125,-439.9414063,-403.8085938
9.2650,847.1679688,-440.4296875,-417.96875
9.2700,828.6132813,-434.0820313,-398.4375
9.2750,821.7773438,-431.1523438,-391.6015625
9.2800,834.4726563,-427.2460938,-400.390625
9.2850,841.3085938,-427.734375,-405.2734375
9.2900,836.9140625,-431.1523438,-414.0625
9.2950,840.8203125,-423.3398438,-392.578125
9.3000,833.984375,-412.109375,-414.0625
9.3050,818.359375,-410.15625,-429.1992188
9.3100,793.9453125,-408.6914063,-418.9453125
9.3150,794.921875,-389.6484375,-405.2734375
9.3200,779.296875,-385.2539063,-406.25
9.3250,789.5507813,-361.8164063,-405.7617188
9.3300,798.828125,-364.7460938,-430.6640625
9.3350,790.5273438,-385.2539063,-447.265625
9.3400,785.6445313,-396.484375,-454.1015625
9.3450,788.5742188,-406.7382813,-437.5
9.3500,802.2460938,-406.25,-416.5039063
9.3550,791.9921875,-418.9453125,-439.9414063
9.3600,801.2695313,-412.5976563,-445.8007813
9.3650,792.4804688,-419.4335938,-439.453125
9.3700,782.7148438,-414.5507813,-434.5703125
9.3750,797.3632813,-406.7382813,-435.0585938
9.3800,796.875,-412.5976563,-455.078125
9.3850,797.3632813,-416.5039063,-447.7539063
9.3900,800.78125,-415.0390625,-439.9414063
9.3950,799.3164063,-404.296875,-430.6640625
9.4000,791.015625,-403.3203125,-431.1523438
9.4050,802.2460938,-394.0429688,-424.3164063
9.4100,787.5976563,-388.1835938,-437.9882813
9.4150,788.5742188,-403.8085938,-432.6171875
9.4200,785.6445313,-404.7851563,-429.1992188
9.4250,798.3398438,-408.6914063,-444.8242188
9.4300,802.2460938,-419.4335938,-443.359375
9.4350,812.9882813,-424.3164063,-465.3320313
9.4400,813.9648438,-416.9921875,-473.6328125
9.4450,801.2695313,-430.6640625,-465.8203125
9.4500,789.0625,-437.0117188,-459.4726563
9.4550,781.7382813,-433.59375,-450.1953125
9.4600,788.0859375,-422.3632813,-449.7070313
9.4650,773.9257813,-424.8046875,-441.40625
9.4700,779.296875,-425.2929688,-450.6835938
9.4750,773.4375,-423.828125,-459.9609375
9.4800,772.4609375,-424.3164063,-453.6132813
9.4850,778.3203125,-411.6210938,-447.265625
9.4900,773.9257813,-418.4570313,-433.1054688
9.4950,777.8320313,-418.9453125,-454.1015625
9.5000,781.25,-421.875,-452.6367188
9.5050,781.7382813,-426.7578125,-465.3320313
9.5100,789.0625,-419.921875,-451.6601563
9.5150,783.6914063,-424.3164063,-464.3554688
9.5200,784.6679688,-409.6679688,-455.5664063
9.5250,780.2734375,-420.4101563,-457.5195313
9.5300,781.25,-407.7148438,-463.3789063
9.5350,773.9257813,-414.5507813,-468.2617188
9.5400,783.203125,-414.0625,-481.9335938
9.5450,769.0429688,-426.2695313,-458.4960938
9.5500,762.6953125,-428.7109375,-461.4257813
9.5550,769.53125,-420.8984375,-447.7539063
9.5600,757.3242188,-415.5273438,-454.5898438
9.5650,756.3476563,-415.5273438,-448.2421875
9.5700,764.6484375,-416.015625,-449.7070313
9.5750,765.625,-421.3867188,-436.5234375
9.5800,771.9726563,-425.2929688,-453.6132813
9.5850,773.9257813,-427.734375,-483.3984375
9.5900,780.2734375,-431.640625,-477.5390625
9.5950,774.9023438,-440.4296875,-489.7460938
9.6000,769.0429688,-434.5703125,-478.515625
9.6050,767.578125,-431.1523438,-464.3554688
9.6100,769.53125,-427.734375,-461.4257813
9.6150,768.5546875,-433.1054688,-470.2148438
9.6200,760.7421875,-433.1054688,-456.5429688
9.6250,755.859375,-443.359375,-456.0546875
9.6300,761.71875,-441.8945313,-478.515625
9.6350,767.0898438,-443.359375,-465.3320313
9.6400,770.0195313,-440.9179688,-483.3984375
9.6450,765.1367188,-440.4296875,-455.078125
9.6500,750.9765625,-450.1953125,-464.3554688
9.6550,749.0234375,-444.8242188,-466.3085938
9.6600,749.5117188,-435.546875,-468.2617188
9.6650,759.2773438,-437.0117188,-488.7695313
9.6700,760.7421875,-440.4296875,-485.8398438
9.6750,773.4375,-440.9179688,-503.90625
9.6800,776.3671875,-440.9179688,-495.1171875
9.6850,757.3242188,-451.6601563,-485.8398438
9.6900,756.8359375,-443.8476563,-474.609375
9.6950,755.859375,-443.359375,-482.9101563
9.7000,766.6015625,-424.3164063,-473.1445313
9.7050,771.9726563,-434.5703125,-482.9101563
9.7100,766.1132813,-446.7773438,-492.6757813
9.7150,754.3945313,-444.8242188,-482.421875
9.7200,736.8164063,-445.3125,-473.1445313
9.7250,752.4414063,-434.5703125,-459.9609375
9.7300,751.4648438,-452.1484375,-455.078125
9.7350,758.7890625,-458.4960938,-486.328125
9.7400,752.9296875,-458.0078125,-484.8632813
9.7450,761.2304688,-443.359375,-483.3984375
9.7500,763.671875,-439.453125,-478.0273438
9.7550,779.296875,-439.453125,-494.140625
9.7600,777.8320313,-443.359375,-490.7226563
9.7650,768.5546875,-444.8242188,-497.5585938
9.7700,770.5078125,-435.0585938,-492.1875
9.7750,757.3242188,-441.8945313,-501.953125
9.7800,762.6953125,-432.1289063,-497.0703125
9.7850,773.9257813,-426.2695313,-487.3046875
9.7900,761.2304688,-436.5234375,-485.3515625
9.7950,763.1835938,-433.1054688,-503.90625
9.8000,758.3007813,-443.359375,-498.5351563
9.8050,769.0429688,-441.40625,-498.046875
9.8100,765.1367188,-452.1484375,-489.7460938
9.8150,761.71875,-459.9609375,-501.953125
9.8200,762.6953125,-447.7539063,-475.5859375
9.8250,764.1601563,-461.9140625,-487.3046875
9.8300,786.1328125,-453.6132813,-472.1679688
9.8350,791.5039063,-449.21875,-489.7460938
9.8400,786.1328125,-448.7304688,-478.515625
9.8450,777.34375,-448.2421875,-487.3046875
9.8500,781.7382813,-434.0820313,-477.5390625
9.8550,780.2734375,-423.828125,-462.890625
9.8600,778.3203125,-421.3867188,-487.3046875
9.8650,773.4375,-434.0820313,-488.7695313
9.8700,767.0898438,-435.546875,-488.28125
9.8750,768.5546875,-431.640625,-482.9101563
9.8800,767.0898438,-421.875,-489.7460938
9.8850,771.484375,-426.7578125,-483.3984375
9.8900,761.71875,-426.2695313,-499.0234375
9.8950,769.53125,-428.2226563,-491.2109375
9.9000,767.0898438,-437.0117188,-490.234375
9.9050,762.6953125,-431.1523438,-490.7226563
9.9100,754.3945313,-428.7109375,-488.7695313
9.9150,756.8359375,-439.453125,-466.796875
9.9200,767.578125,-424.8046875,-473.1445313
9.9250,759.2773438,-430.1757813,-486.8164063
9.9300,762.2070313,-431.1523438,-462.890625
9.9350,763.1835938,-436.0351563,-488.7695313
9.9400,773.9257813,-436.5234375,-476.5625
9.9450,774.9023438,-438.4765625,-481.9335938
9.9500,772.9492188,-434.5703125,-485.8398438
9.9550,777.8320313,-429.1992188,-491.2109375
9.9600,769.53125,-426.7578125,-490.234375
9.9650,759.765625,-417.96875,-484.375
9.9700,762.6953125,-409.1796875,-484.8632813
9.9750,763.1835938,-410.6445313,-486.328125
9.9800,756.8359375,-413.0859375,-489.2578125
9.9850,764.1601563,-405.7617188,-490.7226563
9.9900,754.3945313,-414.0625,-487.7929688
9.9950,757.3242188,-420.8984375,-487.7929688
10.0000,753.90625,-425.2929688,-484.375
10.0050,752.4414063,-420.8984375,-494.140625
10.0100,749.0234375,-420.8984375,-489.2578125
10.0150,749.0234375,-428.2226563,-486.328125
10.0200,746.5820313,-443.8476563,-486.328125
10.0250,760.7421875,-433.1054688,-481.4453125
10.0300,761.71875,-432.6171875,-478.0273438
10.0350,766.6015625,-429.6875,-478.515625
10.0400,763.1835938,-416.9921875,-493.1640625
10.0450,765.625,-418.9453125,-490.7226563
10.0500,761.71875,-423.828125,-479.0039063
10.0550,765.625,-417.96875,-494.140625
10.0600,761.71875,-422.8515625,-475.5859375
10.0650,768.5546875,-415.5273438,-483.3984375
10.0700,758.7890625,-424.8046875,-476.0742188
10.0750,770.9960938,-429.6875,-497.0703125
10.0800,776.8554688,-427.734375,-498.5351563
10.0850,771.484375,-429.1992188,-506.8359375
10.0900,773.4375,-423.828125,-489.7460938
10.0950,757.3242188,-433.1054688,-482.9101563
10.1000,761.2304688,-420.4101563,-500
10.1050,757.8125,-415.5273438,-476.5625
10.1100,764.1601563,-417.96875,-479.0039063
10.1150,754.3945313,-428.7109375,-483.3984375
10.1200,763.671875,-425.78125,-484.375
10.1250,765.1367188,-427.2460938,-471.1914063
10.1300,764.1601563,-429.6875,-480.46875
10.1350,769.0429688,-437.0117188,-477.5390625
10.1400,783.203125,-427.2460938,-482.421875
10.1450,773.4375,-427.2460938,-489.2578125
10.1500,769.53125,-420.4101563,-482.421875
10.1550,764.6484375,-409.6679688,-486.8164063
10.1600,754.8828125,-398.4375,-478.0273438
10.1650,752.4414063,-403.8085938,-487.3046875
10.1700,750.9765625,-406.25,-480.9570313
10.1750,755.3710938,-415.5273438,-481.4453125
10.1800,758.7890625,-423.828125,-492.1875
10.1850,770.5078125,-426.2695313,-489.7460938
10.1900,775.390625,-426.2695313,-473.6328125
10.1950,765.1367188,-436.0351563,-473.1445313
10.2000,769.53125,-423.828125,-471.6796875
10.2050,764.1601563,-420.8984375,-459.9609375
10.2100,764.6484375,-415.0390625,-448.7304688
10.2150,766.6015625,-421.875,-468.75
10.2200,767.578125,-418.9453125,-463.3789063
10.2250,777.34375,-415.0390625,-460.9375
10.2300,782.7148438,-405.2734375,-460.4492188
10.2350,796.875,-398.4375,-462.4023438
10.2400,797.8515625,-391.1132813,-466.3085938
10.2450,797.3632813,-388.671875,-471.1914063
10.2500,801.2695313,-391.1132813,-474.1210938
10.2550,800.2929688,-400.390625,-457.5195313
10.2600,796.3867188,-403.8085938,-460.4492188
10.2650,796.875,-405.7617188,-468.75
10.2700,795.4101563,-406.7382813,-457.5195313
10.2750,799.3164063,-408.6914063,-458.4960938
10.2800,783.203125,-409.1796875,-449.7070313
10.2850,781.7382813,-402.8320313,-431.640625
10.2900,771.9726563,-406.25,-436.0351563
10.2950,772.4609375,-395.0195313,-430.6640625
10.3000,770.9960938,-401.3671875,-432.1289063
10.3050,778.8085938,-400.8789063,-420.4101563
10.3100,785.15625,-402.8320313,-422.8515625
10.3150,800.2929688,-392.578125,-431.1523438
10.3200,804.1992188,-400.390625,-437.9882813
10.3250,816.8945313,-402.8320313,-457.03125
10.3300,831.0546875,-401.3671875,-445.3125
10.3350,822.7539063,-410.6445313,-458.0078125
10.3400,820.8007813,-403.3203125,-451.6601563
10.3450,814.453125,-393.0664063,-445.3125
10.3500,805.6640625,-386.71875,-455.5664063
10.3550,797.8515625,-380.3710938,-435.0585938
10.3600,786.1328125,-384.765625,-424.3164063
10.3650,788.5742188,-377.9296875,-426.7578125
10.3700,789.0625,-369.140625,-422.8515625
10.3750,803.7109375,-364.7460938,-424.3164063
10.3800,811.5234375,-372.0703125,-436.5234375
10.3850,830.078125,-376.4648438,-439.453125
10.3900,829.5898438,-389.1601563,-444.3359375
10.3950,829.1015625,-394.0429688,-445.3125
10.4000,822.265625,-394.53125,-433.59375
10.4050,823.7304688,-391.1132813,-434.0820313
10.4100,819.3359375,-396.9726563,-422.8515625
10.4150,808.1054688,-401.3671875,-416.9921875
10.4200,805.1757813,-395.0195313,-425.2929688
10.4250,802.2460938,-393.0664063,-412.5976563
10.4300,798.828125,-400.390625,-413.5742188
10.4350,809.5703125,-389.6484375,-409.1796875
10.4400,805.6640625,-398.4375,-424.8046875
10.4450,808.1054688,-391.1132813,-414.0625
10.4500,806.1523438,-388.1835938,-435.0585938
10.4550,812.9882813,-383.7890625,-435.0585938
10.4600,804.6875,-387.6953125,-431.1523438
10.4650,815.4296875,-377.4414063,-429.6875
10.4700,815.4296875,-368.6523438,-423.3398438
10.4750,811.0351563,-369.140625,-430.1757813
10.4800,813.9648438,-369.6289063,-420.8984375
10.4850,808.1054688,-376.4648438,-431.1523438
10.4900,809.5703125,-380.859375,-409.1796875
10.4950,817.3828125,-380.859375,-408.203125
10.5000,819.8242188,-380.859375,-421.3867188
10.5050,813.9648438,-386.71875,-417.96875
10.5100,815.4296875,-386.71875,-427.734375
10.5150,818.359375,-388.671875,-417.96875
10.5200,817.3828125,-401.8554688,-421.875
10.5250,811.5234375,-399.9023438,-419.4335938
10.5300,818.359375,-388.1835938,-423.828125
10.5350,820.3125,-388.1835938,-421.3867188
10.5400,821.7773438,-376.953125,-415.5273438
10.5450,827.1484375,-372.0703125,-437.9882813
10.5500,825.6835938,-367.6757813,-431.640625
10.5550,823.7304688,-362.7929688,-436.5234375
10.5600,819.3359375,-357.421875,-428.2226563
10.5650,818.8476563,-353.0273438,-424.8046875
10.5700,811.0351563,-346.6796875,-425.2929688
10.5750,809.0820313,-346.1914063,-420.4101563
10.5800,808.59375,-353.0273438,-406.25
10.5850,811.5234375,-350.0976563,-402.8320313
10.5900,813.9648438,-354.4921875,-404.296875
10.5950,817.8710938,-362.3046875,-401.8554688
10.6000,825.1953125,-356.4453125,-396.9726563
10.6050,832.5195313,-363.7695313,-394.0429688
10.6100,839.84375,-368.6523438,-418.9453125
10.6150,840.3320313,-379.3945313,-406.25
10.6200,870.6054688,-358.8867188,-408.6914063
10.6250,861.8164063,-366.2109375,-415.5273438
10.6300,863.28125,-367.1875,-426.7578125
10.6350,863.28125,-361.8164063,-405.2734375
10.6400,861.328125,-362.7929688,-412.109375
10.6450,858.8867188,-373.046875,-403.3203125
10.6500,866.6992188,-356.9335938,-406.25
10.6550,858.8867188,-358.8867188,-410.15625
10.6600,855.46875,-348.1445313,-386.2304688
10.6650,843.75,-353.0273438,-374.5117188
10.6700,848.1445313,-348.1445313,-375
10.6750,859.8632813,-347.65625,-376.4648438
10.6800,864.2578125,-348.1445313,-374.5117188
10.6850,867.1875,-358.8867188,-391.6015625
10.6900,868.1640625,-363.28125,-396.484375
10.6950,875.9765625,-358.8867188,-390.1367188
10.7000,873.046875,-360.3515625,-404.7851563
10.7050,879.3945313,-356.4453125,-391.6015625
10.7100,874.5117188,-358.8867188,-407.2265625
10.7150,881.8359375,-343.2617188,-384.765625
10.7200,869.140625,-338.8671875,-386.2304688
10.7250,863.28125,-333.4960938,-392.578125
10.7300,868.6523438,-328.125,-371.09375
10.7350,873.046875,-329.5898438,-368.6523438
10.7400,878.90625,-331.0546875,-371.5820313
10.7450,879.3945313,-343.75,-379.3945313
10.7500,878.4179688,-346.6796875,-387.2070313
10.7550,882.3242188,-345.2148438,-379.3945313
10.7600,890.625,-341.796875,-364.7460938
10.7650,887.2070313,-343.75,-354.0039063
10.7700,892.0898438,-335.4492188,-362.7929688
10.7750,877.4414063,-338.8671875,-368.6523438
10.7800,878.90625,-328.125,-368.1640625
10.7850,878.90625,-326.171875,-350.5859375
10.7900,885.2539063,-324.7070313,-356.4453125
10.7950,881.8359375,-314.9414063,-370.6054688
10.8000,880.3710938,-294.921875,-381.3476563
10.8050,881.3476563,-290.0390625,-384.765625
10.8100,875,-301.2695313,-383.7890625
10.8150,878.90625,-309.0820313,-375.4882813
10.8200,879.8828125,-295.4101563,-367.1875
10.8250,875.4882813,-292.96875,-359.375
10.8300,867.1875,-289.0625,-345.703125
10.8350,875.9765625,-289.5507813,-344.7265625
10.8400,885.2539063,-293.4570313,-336.9140625
10.8450,895.0195313,-311.0351563,-350.0976563
10.8500,905.2734375,-309.5703125,-353.0273438
10.8550,909.6679688,-317.8710938,-359.375
10.8600,899.4140625,-322.7539063,-356.9335938
10.8650,898.9257813,-334.9609375,-353.0273438
10.8700,900.390625,-331.5429688,-327.6367188
10.8750,890.625,-335.4492188,-321.2890625
10.8800,881.3476563,-322.265625,-320.3125
10.8850,886.2304688,-306.1523438,-306.640625
10.8900,877.4414063,-307.6171875,-324.7070313
10.8950,873.5351563,-317.8710938,-328.125
10.9000,882.8125,-320.8007813,-321.7773438
10.9050,894.0429688,-309.5703125,-316.8945313
10.9100,899.9023438,-308.59375,-325.1953125
10.9150,910.15625,-305.6640625,-321.2890625
10.9200,908.6914063,-297.8515625,-333.984375
10.9250,912.109375,-287.5976563,-337.4023438
10.9300,912.109375,-286.1328125,-336.9140625
10.9350,912.109375,-285.6445313,-333.0078125
10.9400,916.015625,-268.0664063,-327.6367188
10.9450,911.6210938,-273.4375,-341.3085938
10.9500,902.34375,-270.5078125,-345.703125
10.9550,891.1132813,-274.4140625,-326.171875
10.9600,885.7421875,-268.5546875,-311.0351563
10.9650,884.765625,-274.4140625,-313.4765625
10.9700,890.1367188,-271.9726563,-295.4101563
10.9750,894.0429688,-288.0859375,-299.3164063
10.9800,900.8789063,-289.5507813,-273.4375
10.9850,914.0625,-297.3632813,-282.7148438
10.9900,924.8046875,-291.015625,-303.7109375
10.9950,921.875,-304.1992188,-313.9648438
11.0000,933.59375,-302.2460938,-327.1484375
11.0050,934.5703125,-302.2460938,-343.2617188
11.0100,928.2226563,-296.3867188,-336.9140625
11.0150,915.0390625,-291.5039063,-339.84375
11.0200,902.8320313,-278.8085938,-331.0546875
11.0250,895.0195313,-269.53125,-326.171875
11.0300,891.1132813,-266.6015625,-309.0820313
11.0350,895.9960938,-270.9960938,-304.1992188
11.0400,890.625,-278.3203125,-285.6445313
11.0450,907.2265625,-280.7617188,-273.9257813
11.0500,915.0390625,-277.8320313,-273.4375
11.0550,922.8515625,-276.8554688,-294.921875
11.0600,915.5273438,-280.7617188,-287.5976563
11.0650,931.640625,-277.34375,-310.0585938
11.0700,937.0117188,-277.8320313,-316.40625
11.0750,941.8945313,-286.6210938,-316.40625
11.0800,951.171875,-274.9023438,-312.9882813
11.0850,932.6171875,-271.9726563,-308.1054688
11.0900,920.8984375,-253.4179688,-310.0585938
11.0950,901.8554688,-247.0703125,-306.640625
11.1000,899.9023438,-236.8164063,-313.4765625
11.1050,901.3671875,-240.7226563,-315.9179688
11.1100,900.390625,-244.140625,-298.3398438
11.1150,903.3203125,-235.3515625,-282.7148438
11.1200,907.2265625,-220.2148438,-252.4414063
11.1250,914.0625,-199.7070313,-250
11.1300,922.8515625,-185.546875,-242.1875
11.1350,928.7109375,-176.7578125,-247.0703125
11.1400,946.7773438,-158.203125,-250
11.1450,964.3554688,-162.5976563,-261.71875
11.1500,976.5625,-173.3398438,-275.390625
11.1550,964.3554688,-185.0585938,-304.6875
11.1600,954.1015625,-196.7773438,-324.7070313
11.1650,933.59375,-219.2382813,-321.7773438
11.1700,925.78125,-236.8164063,-297.8515625
11.1750,912.109375,-246.5820313,-287.109375
11.1800,893.0664063,-263.671875,-291.9921875
11.1850,872.0703125,-296.3867188,-266.1132813
11.1900,881.8359375,-309.5703125,-237.3046875
11.1950,900.390625,-341.3085938,-212.4023438
11.2000,922.8515625,-347.65625,-200.1953125
11.2050,945.3125,-355.46875,-208.984375
11.2100,963.3789063,-343.2617188,-217.2851563
11.2150,982.9101563,-323.2421875,-223.1445313
11.2200,993.1640625,-285.15625,-221.6796875
11.2250,986.8164063,-258.7890625,-234.8632813
11.2300,973.1445313,-241.6992188,-252.9296875
11.2350,972.65625,-220.703125,-280.7617188
11.2400,964.3554688,-216.3085938,-289.0625
11.2450,945.3125,-225.0976563,-317.3828125
11.2500,927.2460938,-207.03125,-317.3828125
11.2550,914.5507813,-190.9179688,-285.15625
11.2600,881.8359375,-186.0351563,-283.6914063
11.2650,873.5351563,-187.0117188,-265.625
11.2700,868.1640625,-197.265625,-247.0703125
11.2750,889.1601563,-205.078125,-233.3984375
11.2800,900.390625,-196.7773438,-215.8203125
11.2850,909.6679688,-181.1523438,-224.1210938
11.2900,917.96875,-161.6210938,-231.9335938
11.2950,936.0351563,-153.3203125,-230.46875
11.3000,953.125,-143.0664063,-245.6054688
11.3050,952.6367188,-153.3203125,-239.7460938
11.3100,956.5429688,-148.9257813,-249.5117188
11.3150,955.5664063,-164.0625,-263.1835938
11.3200,948.7304688,-175.2929688,-264.6484375
11.3250,947.7539063,-189.9414063,-276.3671875
11.3300,945.8007813,-221.1914063,-282.2265625
11.3350,942.8710938,-239.7460938,-253.4179688
11.3400,949.7070313,-242.1875,-263.671875
11.3450,940.4296875,-254.3945313,-258.7890625
11.3500,940.4296875,-252.4414063,-252.9296875
11.3550,940.4296875,-252.4414063,-237.3046875
11.3600,933.59375,-241.2109375,-250
11.3650,943.8476563,-218.2617188,-241.2109375
11.3700,948.7304688,-193.359375,-236.328125
11.3750,946.2890625,-176.2695313,-235.8398438
11.3800,943.359375,-176.7578125,-224.1210938
11.3850,937.9882813,-176.7578125,-228.0273438
11.3900,944.8242188,-164.5507813,-222.65625
11.3950,947.7539063,-154.296875,-230.9570313
11.4000,946.7773438,-158.203125,-228.0273438
11.4050,953.6132813,-163.5742188,-238.7695313
11.4100,963.3789063,-166.015625,-234.375
11.4150,963.8671875,-181.1523438,-245.6054688
11.4200,956.5429688,-198.2421875,-244.140625
11.4250,960.4492188,-197.7539063,-246.5820313
11.4300,973.6328125,-196.7773438,-261.71875
11.4350,971.6796875,-198.7304688,-250.4882813
11.4400,961.4257813,-191.40625,-254.8828125
11.4450,958.4960938,-178.7109375,-253.90625
11.4500,937.0117188,-184.0820313,-247.0703125
11.4550,939.9414063,-172.8515625,-250.4882813
11.4600,944.8242188,-169.921875,-229.9804688
11.4650,948.7304688,-174.3164063,-229.4921875
11.4700,951.6601563,-184.5703125,-232.421875
11.4750,956.5429688,-181.1523438,-207.5195313
11.4800,946.7773438,-183.59375,-218.2617188
11.4850,949.21875,-189.453125,-233.3984375
11.4900,953.6132813,-207.5195313,-224.609375
11.4950,969.7265625,-208.4960938,-233.3984375
11.5000,978.515625,-212.4023438,-246.09375
11.5050,990.234375,-205.5664063,-252.9296875
11.5100,976.0742188,-208.0078125,-268.0664063
11.5150,984.375,-197.265625,-271.484375
11.5200,978.515625,-191.40625,-263.1835938
11.5250,972.1679688,-191.8945313,-264.1601563
11.5300,959.4726563,-172.8515625,-255.859375
11.5350,947.265625,-159.1796875,-251.4648438
11.5400,937.0117188,-138.671875,-242.1875
11.5450,932.6171875,-122.0703125,-213.8671875
11.5500,933.59375,-117.1875,-216.796875
11.5550,937.0117188,-125.9765625,-215.3320313
11.5600,948.2421875,-138.1835938,-219.7265625
11.5650,952.6367188,-150.390625,-239.7460938
11.5700,959.4726563,-164.5507813,-221.6796875
11.5750,968.75,-177.2460938,-240.7226563
11.5800,969.7265625,-193.359375,-270.9960938
11.5850,976.5625,-204.5898438,-273.9257813
11.5900,982.421875,-207.5195313,-275.8789063
11.5950,977.0507813,-219.2382813,-279.296875
11.6000,976.0742188,-207.5195313,-301.2695313
11.6050,971.1914063,-201.171875,-296.875
11.6100,946.7773438,-204.5898438,-307.1289063
11.6150,953.125,-186.0351563,-303.2226563
11.6200,936.5234375,-177.2460938,-288.5742188
11.6250,929.1992188,-178.2226563,-289.0625
11.6300,934.5703125,-163.5742188,-268.5546875
11.6350,941.40625,-159.6679688,-281.25
11.6400,942.3828125,-153.3203125,-264.1601563
11.6450,944.8242188,-155.7617188,-275.8789063
11.6500,944.3359375,-163.5742188,-282.2265625
11.6550,945.8007813,-167.4804688,-289.5507813
11.6600,938.4765625,-169.4335938,-291.9921875
11.6650,937.0117188,-166.5039063,-292.96875
11.6700,943.359375,-159.6679688,-287.109375
11.6750,942.3828125,-161.1328125,-279.296875
11.6800,944.3359375,-148.4375,-256.3476563
11.6850,933.1054688,-158.6914063,-248.5351563
11.6900,919.921875,-167.96875,-238.28125
11.6950,937.5,-165.5273438,-223.1445313
11.7000,928.2226563,-178.7109375,-208.4960938
11.7050,940.9179688,-176.7578125,-204.1015625
11.7100,959.4726563,-176.7578125,-183.1054688
11.7150,968.2617188,-168.4570313,-183.59375
11.7200,977.0507813,-166.9921875,-187.5
11.7250,981.9335938,-170.8984375,-198.2421875
11.7300,991.2109375,-175.78125,-187.5
11.7350,995.1171875,-185.0585938,-214.84375
11.7400,995.6054688,-189.9414063,-210.9375
11.7450,997.5585938,-194.3359375,-219.7265625
11.7500,997.0703125,-190.4296875,-236.328125
11.7550,995.1171875,-171.875,-244.6289063
11.7600,985.3515625,-159.6679688,-250.4882813
11.7650,967.7734375,-155.7617188,-261.71875
11.7700,977.5390625,-138.671875,-266.6015625
11.7750,963.3789063,-137.6953125,-274.4140625
11.7800,954.1015625,-138.671875,-269.0429688
11.7850,945.3125,-133.3007813,-271.484375
11.7900,934.5703125,-139.1601563,-273.4375
11.7950,930.6640625,-135.7421875,-263.671875
11.8000,936.0351563,-127.9296875,-278.8085938
11.8050,940.4296875,-122.5585938,-260.2539063
11.8100,929.1992188,-139.1601563,-266.6015625
11.8150,927.2460938,-144.53125,-263.671875
11.8200,923.828125,-147.4609375,-269.0429688
11.8250,925.2929688,-143.0664063,-263.671875
11.8300,938.4765625,-146.484375,-256.8359375
11.8350,942.8710938,-155.2734375,-266.6015625
11.8400,942.8710938,-170.4101563,-265.1367188
11.8450,956.0546875,-174.8046875,-268.5546875
11.8500,960.4492188,-187.9882813,-283.203125
11.8550,952.6367188,-208.0078125,-307.1289063
11.8600,962.4023438,-205.5664063,-305.6640625
11.8650,950.6835938,-227.0507813,-322.265625
11.8700,947.265625,-219.7265625,-307.1289063
11.8750,949.21875,-212.4023438,-296.875
11.8800,944.3359375,-209.4726563,-291.5039063
11.8850,940.4296875,-200.6835938,-292.4804688
11.8900,937.5,-187.9882813,-286.1328125
11.8950,939.453125,-166.9921875,-257.3242188
11.9000,949.21875,-150.390625,-244.140625
11.9050,960.9375,-133.3007813,-233.8867188
11.9100,968.75,-125,-218.2617188
11.9150,972.65625,-119.140625,-218.75
11.9200,964.3554688,-117.6757813,-246.09375
11.9250,953.125,-128.90625,-236.328125
11.9300,954.1015625,-131.8359375,-261.71875
11.9350,946.7773438,-149.9023438,-263.671875
11.9400,956.0546875,-145.5078125,-264.6484375
11.9450,948.7304688,-158.6914063,-269.53125
11.9500,946.7773438,-163.5742188,-272.4609375
11.9550,959.9609375,-160.6445313,-248.5351563
11.9600,961.4257813,-158.6914063,-245.1171875
11.9650,959.4726563,-155.7617188,-238.7695313
11.9700,965.3320313,-145.0195313,-246.09375
11.9750,963.3789063,-151.3671875,-232.421875
11.9800,956.0546875,-144.53125,-231.9335938
11.9850,959.9609375,-138.671875,-229.0039063
11.9900,960.4492188,-128.90625,-235.3515625
11.9950,962.4023438,-116.6992188,-249.0234375
12.0000,958.4960938,-112.7929688,-243.1640625
12.0050,951.171875,-122.5585938,-266.1132813
12.0100,945.8007813,-124.0234375,-291.015625
12.0150,945.8007813,-139.1601563,-315.9179688
12.0200,933.1054688,-156.7382813,-312.9882813
12.0250,933.59375,-157.7148438,-322.265625
12.0300,933.1054688,-152.8320313,-312.0117188
12.0350,936.0351563,-155.2734375,-315.9179688
12.0400,932.6171875,-158.6914063,-300.2929688
12.0450,949.21875,-145.0195313,-302.734375
12.0500,948.7304688,-142.0898438,-289.5507813
12.0550,954.5898438,-137.2070313,-293.4570313
12.0600,944.3359375,-143.0664063,-283.6914063
12.0650,948.7304688,-141.6015625,-280.2734375
12.0700,960.9375,-129.8828125,-265.1367188
12.0750,963.3789063,-132.3242188,-257.8125
12.0800,961.9140625,-140.625,-275.390625
12.0850,970.2148438,-145.9960938,-266.1132813
12.0900,966.3085938,-153.8085938,-278.3203125
12.0950,976.0742188,-150.390625,-282.2265625
12.1000,959.4726563,-164.0625,-280.7617188
12.1050,959.4726563,-162.109375,-298.3398438
12.1100,949.7070313,-165.0390625,-290.5273438
12.1150,944.8242188,-165.0390625,-298.3398438
12.1200,934.5703125,-156.7382813,-295.8984375
12.1250,947.7539063,-141.6015625,-309.0820313
12.1300,943.359375,-135.2539063,-285.15625
12.1350,946.7773438,-123.5351563,-300.78125
12.1400,949.21875,-106.4453125,-283.6914063
12.1450,950.1953125,-106.9335938,-284.6679688
12.1500,953.6132813,-91.30859375,-274.4140625
12.1550,955.078125,-85.44921875,-270.0195313
12.1600,949.7070313,-85.9375,-257.3242188
12.1650,945.8007813,-85.9375,-273.9257813
12.1700,957.03125,-87.40234375,-275.8789063
12.1750,954.5898438,-97.65625,-271.9726563
12.1800,946.2890625,-108.3984375,-286.6210938
12.1850,950.1953125,-120.1171875,-291.9921875
12.1900,953.125,-125,-293.9453125
12.1950,954.1015625,-136.2304688,-308.59375
12.2000,951.6601563,-141.6015625,-319.3359375
12.2050,950.6835938,-151.8554688,-339.3554688
12.2100,946.7773438,-148.9257813,-330.5664063
12.2150,940.4296875,-163.5742188,-340.8203125
12.2200,943.359375,-152.8320313,-350.0976563
12.2250,943.8476563,-150.390625,-342.7734375
12.2300,947.265625,-139.6484375,-346.1914063
12.2350,950.1953125,-138.1835938,-331.5429688
12.2400,954.5898438,-130.3710938,-331.0546875
12.2450,954.1015625,-121.5820313,-305.1757813
12.2500,955.078125,-117.1875,-297.8515625
12.2550,958.984375,-102.5390625,-305.1757813
12.2600,965.8203125,-86.9140625,-289.5507813
12.2650,966.796875,-82.03125,-280.2734375
12.2700,975.5859375,-68.84765625,-257.8125
12.2750,968.2617188,-81.54296875,-257.8125
12.2800,969.2382813,-78.61328125,-238.28125
12.2850,979.0039063,-66.89453125,-250
12.2900,976.0742188,-75.1953125,-233.8867188
12.2950,988.7695313,-68.84765625,-231.4453125
12.3000,986.8164063,-68.84765625,-224.609375
12.3050,980.46875,-83.49609375,-244.6289063
12.3100,986.8164063,-79.1015625,-237.7929688
12.3150,969.7265625,-87.40234375,-249.5117188
12.3200,962.890625,-89.84375,-240.7226563
12.3250,964.84375,-88.37890625,-261.71875
12.3300,959.9609375,-92.7734375,-278.8085938
12.3350,956.0546875,-104.9804688,-278.3203125
12.3400,959.9609375,-97.65625,-282.2265625
12.3450,957.5195313,-99.609375,-286.1328125
12.3500,961.9140625,-108.8867188,-284.6679688
12.3550,973.1445313,-102.0507813,-278.3203125
12.3600,965.8203125,-104.0039063,-287.5976563
12.3650,968.75,-94.23828125,-271.9726563
12.3700,971.6796875,-80.078125,-268.0664063
12.3750,967.7734375,-82.03125,-263.1835938
12.3800,968.75,-77.1484375,-244.6289063
12.3850,979.0039063,-73.2421875,-254.3945313
12.3900,984.8632813,-72.75390625,-253.4179688
12.3950,988.7695313,-74.21875,-233.3984375
12.4000,998.046875,-68.84765625,-239.2578125
12.4050,999.0234375,-71.77734375,-228.515625
12.4100,995.6054688,-73.2421875,-235.8398438
12.4150,1000.488281,-76.66015625,-242.6757813
12.4200,991.6992188,-67.87109375,-250
12.4250,984.8632813,-78.125,-248.046875
12.4300,977.5390625,-75.1953125,-242.6757813
12.4350,983.3984375,-62.5,-260.2539063
12.4400,969.2382813,-63.96484375,-259.765625
12.4450,975.0976563,-47.36328125,-258.7890625
12.4500,978.515625,-34.66796875,-259.2773438
12.4550,965.8203125,-35.64453125,-256.8359375
12.4600,966.3085938,-35.15625,-255.859375
12.4650,960.4492188,-50.29296875,-277.34375
12.4700,949.21875,-65.91796875,-296.875
12.4750,955.078125,-66.89453125,-290.5273438
12.4800,946.7773438,-68.359375,-289.5507813
12.4850,929.6875,-83.984375,-300.2929688
12.4900,928.2226563,-78.61328125,-296.3867188
12.4950,931.1523438,-78.125,-289.5507813
12.5000,924.8046875,-79.58984375,-302.734375
12.5050,924.8046875,-79.1015625,-302.2460938
12.5100,922.8515625,-70.80078125,-302.734375
12.5150,929.6875,-66.40625,-301.2695313
12.5200,929.6875,-65.4296875,-300.2929688
12.5250,929.1992188,-62.5,-312.5
12.5300,928.2226563,-62.98828125,-305.1757813
12.5350,929.1992188,-69.3359375,-322.7539063
12.5400,936.5234375,-68.359375,-305.1757813
12.5450,939.9414063,-70.80078125,-308.1054688
12.5500,938.9648438,-75.68359375,-295.8984375
12.5550,948.7304688,-76.171875,-303.7109375
12.5600,949.7070313,-64.94140625,-298.828125
12.5650,935.0585938,-78.61328125,-317.3828125
12.5700,934.5703125,-81.0546875,-301.7578125
12.5750,934.5703125,-86.9140625,-312.5
12.5800,946.2890625,-83.49609375,-316.40625
12.5850,942.8710938,-92.7734375,-321.2890625
12.5900,954.5898438,-90.33203125,-330.078125
12.5950,962.890625,-82.51953125,-307.6171875
12.6000,955.5664063,-86.42578125,-325.6835938
12.6050,962.4023438,-76.66015625,-320.3125
12.6100,958.4960938,-83.49609375,-310.546875
12.6150,952.1484375,-87.890625,-341.796875
12.6200,945.8007813,-84.9609375,-332.03125
12.6250,936.5234375,-93.26171875,-326.171875
12.6300,932.6171875,-94.23828125,-328.6132813
12.6350,933.1054688,-101.0742188,-331.5429688
12.6400,938.4765625,-96.6796875,-326.171875
12.6450,933.1054688,-110.8398438,-319.8242188
12.6500,937.0117188,-106.4453125,-323.7304688
12.6550,956.5429688,-92.7734375,-317.8710938
12.6600,955.5664063,-95.21484375,-313.4765625
12.6650,957.5195313,-91.30859375,-324.21875
12.6700,958.0078125,-89.84375,-323.7304688
12.6750,967.7734375,-89.84375,-325.1953125
12.6800,963.3789063,-96.19140625,-321.2890625
12.6850,970.703125,-87.40234375,-306.1523438
12.6900,971.6796875,-88.8671875,-304.1992188
12.6950,987.3046875,-82.51953125,-306.640625
12.7000,982.421875,-65.4296875,-309.0820313
12.7050,981.9335938,-65.4296875,-290.0390625
12.7100,982.9101563,-57.6171875,-289.5507813
12.7150,975.5859375,-45.8984375,-277.8320313
12.7200,964.3554688,-40.52734375,-273.9257813
12.7250,969.2382813,-36.1328125,-270.9960938
12.7300,964.84375,-43.9453125,-263.1835938
12.7350,971.6796875,-41.50390625,-274.4140625
12.7400,971.6796875,-34.1796875,-278.3203125
12.7450,962.890625,-31.25,-266.1132813
12.7500,962.890625,-23.4375,-275.8789063
12.7550,949.7070313,-24.4140625,-272.9492188
12.7600,943.359375,-28.80859375,-257.3242188
12.7650,931.640625,-40.52734375,-275.390625
12.7700,939.9414063,-43.9453125,-286.6210938
12.7750,927.734375,-62.98828125,-303.2226563
12.7800,929.6875,-79.58984375,-291.9921875
12.7850,926.2695313,-90.8203125,-307.6171875
12.7900,920.4101563,-91.796875,-324.21875
12.7950,916.015625,-97.16796875,-317.8710938
12.8000,907.2265625,-99.609375,-324.7070313
12.8050,917.4804688,-102.5390625,-310.0585938
12.8100,923.828125,-101.0742188,-307.6171875
12.8150,933.59375,-98.14453125,-291.5039063
12.8200,937.5,-81.54296875,-284.6679688
12.8250,951.6601563,-76.66015625,-275.8789063
12.8300,953.125,-69.82421875,-256.8359375
12.8350,960.9375,-55.6640625,-248.046875
12.8400,960.9375,-53.22265625,-254.3945313
12.8450,970.2148438,-56.15234375,-260.2539063
12.8500,970.703125,-54.6875,-259.765625
12.8550,971.6796875,-60.05859375,-250.9765625
12.8600,974.609375,-56.640625,-258.7890625
12.8650,963.8671875,-73.2421875,-250.9765625
12.8700,969.2382813,-65.4296875,-254.3945313
12.8750,961.9140625,-76.66015625,-245.1171875
12.8800,970.2148438,-73.2421875,-249.5117188
12.8850,969.7265625,-79.1015625,-265.1367188
12.8900,966.3085938,-94.23828125,-268.5546875
12.8950,969.7265625,-96.6796875,-291.015625
12.9000,960.4492188,-105.46875,-284.1796875
12.9050,963.8671875,-102.5390625,-291.015625
12.9100,957.03125,-107.421875,-303.2226563
12.9150,975.0976563,-92.28515625,-298.3398438
12.9200,971.6796875,-92.7734375,-284.1796875
12.9250,966.796875,-74.21875,-292.96875
12.9300,953.6132813,-77.1484375,-308.59375
12.9350,959.9609375,-73.2421875,-319.8242188
12.9400,952.6367188,-64.94140625,-310.0585938
12.9450,956.0546875,-46.875,-311.5234375
12.9500,952.1484375,-39.55078125,-310.0585938
12.9550,958.0078125,-36.62109375,-304.1992188
12.9600,953.125,-32.71484375,-310.0585938
12.9650,950.1953125,-33.203125,-290.5273438
12.9700,935.0585938,-41.9921875,-294.921875
12.9750,949.7070313,-31.73828125,-303.2226563
12.9800,938.4765625,-51.26953125,-311.0351563
12.9850,940.9179688,-53.7109375,-323.7304688
12.9900,942.3828125,-58.10546875,-301.7578125
12.9950,955.078125,-64.453125,-304.6875
13.0000,942.3828125,-71.2890625,-299.3164063
13.0050,955.078125,-73.73046875,-304.6875
13.0100,947.265625,-81.54296875,-305.6640625
13.0150,948.7304688,-83.984375,-310.546875
13.0200,942.3828125,-89.35546875,-320.3125
13.0250,947.265625,-76.66015625,-311.0351563
13.0300,943.359375,-79.58984375,-321.7773438
13.0350,949.7070313,-68.84765625,-301.2695313
13.0400,959.4726563,-55.17578125,-303.7109375
13.0450,965.8203125,-47.8515625,-279.296875
13.0500,961.4257813,-46.38671875,-279.7851563
13.0550,957.5195313,-43.45703125,-278.8085938
13.0600,972.65625,-29.296875,-267.0898438
13.0650,964.84375,-41.50390625,-255.859375
13.0700,961.9140625,-37.59765625,-261.71875
13.0750,972.65625,-30.2734375,-257.8125
13.0800,975.5859375,-33.203125,-262.6953125
13.0850,971.1914063,-41.9921875,-251.4648438
13.0900,966.3085938,-54.19921875,-268.5546875
13.0950,969.7265625,-63.4765625,-270.5078125
13.1000,974.609375,-62.98828125,-280.7617188
13.1050,976.0742188,-81.54296875,-281.25
13.1100,971.6796875,-93.75,-285.6445313
13.1150,974.609375,-88.8671875,-287.109375
13.1200,981.4453125,-69.82421875,-274.9023438
13.1250,979.9804688,-67.87109375,-267.0898438
13.1300,981.9335938,-57.6171875,-266.1132813
13.1350,974.1210938,-58.10546875,-258.7890625
13.1400,964.3554688,-59.5703125,-259.765625
13.1450,965.3320313,-48.828125,-282.7148438
13.1500,953.6132813,-45.8984375,-270.9960938
13.1550,955.078125,-39.0625,-260.2539063
13.1600,950.1953125,-36.62109375,-273.9257813
13.1650,942.8710938,-30.2734375,-267.0898438
13.1700,958.984375,-25.390625,-283.6914063
13.1750,958.4960938,-36.1328125,-290.5273438
13.1800,953.6132813,-38.0859375,-282.7148438
13.1850,956.5429688,-51.7578125,-304.6875
13.1900,955.5664063,-63.4765625,-302.2460938
13.1950,946.2890625,-86.42578125,-316.8945313
13.2000,939.453125,-98.14453125,-306.640625
13.2050,937.0117188,-104.4921875,-311.5234375
13.2100,942.3828125,-99.609375,-321.2890625
13.2150,938.4765625,-108.8867188,-309.5703125
13.2200,954.1015625,-83.984375,-318.8476563
13.2250,947.265625,-83.49609375,-318.8476563
13.2300,941.8945313,-71.77734375,-299.8046875
13.2350,942.8710938,-62.01171875,-297.3632813
13.2400,934.0820313,-51.26953125,-287.109375
13.2450,943.8476563,-44.921875,-298.3398438
13.2500,949.21875,-41.015625,-279.296875
13.2550,953.6132813,-54.6875,-301.7578125
13.2600,955.078125,-63.4765625,-296.3867188
13.2650,950.1953125,-74.70703125,-295.8984375
13.2700,953.6132813,-82.51953125,-306.640625
13.2750,962.890625,-85.44921875,-298.828125
13.2800,953.6132813,-98.14453125,-303.2226563
13.2850,951.6601563,-109.375,-330.5664063
13.2900,967.2851563,-96.19140625,-314.453125
13.2950,966.3085938,-90.33203125,-316.40625
13.3000,958.984375,-88.8671875,-324.7070313
13.3050,955.078125,-85.9375,-314.453125
13.3100,956.0546875,-71.77734375,-301.2695313
13.3150,961.9140625,-66.40625,-288.5742188
13.3200,965.3320313,-48.33984375,-270.9960938
13.3250,961.9140625,-57.6171875,-271.484375
13.3300,960.9375,-55.17578125,-281.7382813
13.3350,959.4726563,-59.08203125,-266.6015625
13.3400,952.1484375,-63.4765625,-268.5546875
13.3450,957.5195313,-55.17578125,-256.3476563
13.3500,963.3789063,-53.22265625,-270.0195313
13.3550,964.84375,-60.546875,-259.2773438
13.3600,964.3554688,-65.91796875,-257.8125
13.3650,961.9140625,-81.54296875,-274.4140625
13.3700,955.078125,-84.47265625,-269.53125
13.3750,951.171875,-96.6796875,-278.8085938
13.3800,960.4492188,-97.16796875,-294.921875
13.3850,962.4023438,-97.16796875,-301.2695313
13.3900,958.984375,-114.2578125,-325.6835938
13.3950,955.078125,-116.6992188,-328.125
13.4000,939.9414063,-117.6757813,-340.8203125
13.4050,950.6835938,-104.0039063,-324.21875
13.4100,940.9179688,-104.0039063,-330.078125
13.4150,943.359375,-99.609375,-328.125
13.4200,948.2421875,-89.35546875,-315.9179688
13.4250,946.7773438,-89.35546875,-304.6875
13.4300,934.0820313,-92.28515625,-287.109375
13.4350,933.59375,-89.35546875,-279.7851563
13.4400,937.9882813,-76.171875,-274.9023438
13.4450,948.7304688,-82.51953125,-287.5976563
13.4500,942.8710938,-94.7265625,-300.2929688
13.4550,951.171875,-99.12109375,-307.6171875
13.4600,941.40625,-119.140625,-303.2226563
13.4650,937.9882813,-126.4648438,-307.6171875
13.4700,938.4765625,-125.9765625,-289.5507813
13.4750,956.5429688,-109.375,-305.1757813
13.4800,960.9375,-111.328125,-309.0820313
13.4850,978.0273438,-107.421875,-295.8984375
13.4900,968.2617188,-109.375,-302.2460938
13.4950,948.2421875,-109.8632813,-300.78125
13.5000,939.453125,-95.703125,-311.5234375
13.5050,950.1953125,-95.21484375,-310.546875
13.5100,955.078125,-90.33203125,-312.5
13.5150,960.9375,-103.0273438,-307.1289063
13.5200,973.1445313,-101.0742188,-315.9179688
13.5250,957.03125,-110.3515625,-321.7773438
13.5300,965.3320313,-97.16796875,-309.5703125
13.5350,964.3554688,-109.8632813,-308.59375
13.5400,964.3554688,-118.1640625,-302.734375
13.5450,965.8203125,-127.9296875,-301.2695313
13.5500,974.1210938,-126.4648438,-298.828125
13.5550,967.7734375,-138.671875,-301.2695313
13.5600,954.1015625,-129.3945313,-302.734375
13.5650,950.1953125,-126.953125,-291.5039063
13.5700,950.6835938,-130.859375,-286.1328125
13.5750,946.2890625,-137.6953125,-292.96875
13.5800,944.3359375,-131.3476563,-308.59375
13.5850,947.265625,-132.3242188,-312.0117188
13.5900,935.0585938,-127.9296875,-300.78125
13.5950,931.1523438,-123.5351563,-290.5273438
13.6000,936.5234375,-123.5351563,-288.0859375
13.6050,932.1289063,-107.9101563,-293.9453125
13.6100,933.1054688,-107.9101563,-296.875
13.6150,933.59375,-111.8164063,-305.1757813
13.6200,940.4296875,-102.5390625,-300.2929688
13.6250,946.2890625,-123.046875,-317.3828125
13.6300,947.7539063,-132.3242188,-308.1054688
13.6350,946.7773438,-137.2070313,-310.546875
13.6400,949.21875,-136.71875,-301.2695313
13.6450,948.2421875,-136.71875,-295.4101563
13.6500,953.125,-137.6953125,-284.1796875
13.6550,954.1015625,-147.4609375,-291.015625
13.6600,959.9609375,-135.2539063,-281.25
13.6650,959.4726563,-131.8359375,-283.6914063
13.6700,951.171875,-131.8359375,-270.0195313
13.6750,952.6367188,-137.2070313,-284.6679688
13.6800,959.4726563,-146.9726563,-273.9257813
13.6850,961.4257813,-154.296875,-270.0195313
13.6900,964.84375,-150.390625,-281.7382813
13.6950,958.4960938,-158.6914063,-292.96875
13.7000,959.4726563,-159.1796875,-286.1328125
13.7050,958.984375,-160.6445313,-293.4570313
13.7100,964.84375,-155.7617188,-283.203125
13.7150,956.0546875,-161.6210938,-270.0195313
13.7200,959.4726563,-162.109375,-291.9921875
13.7250,952.6367188,-160.6445313,-292.4804688
13.7300,947.265625,-157.2265625,-292.96875
13.7350,950.6835938,-162.109375,-292.4804688
13.7400,946.2890625,-153.8085938,-291.015625
