type,name,time_units,begin_time,frequency,count,units
signal_4d,"Noraxon MyoMotion-Segments-Forearm RT-Orientation","s",0.0000,200,5008,""

time,x,y,z,w
0.0000,0.1660805085,-0.6212046118,-0.7355352991,0.2133305387
0.0050,0.1660683692,-0.6212206338,-0.7355354155,0.2132929286
0.0100,0.1660562297,-0.6212366547,-0.7355355306,0.2132553181
0.0150,0.1660440898,-0.6212526744,-0.7355356443,0.2132177072
0.0200,0.1660312682,-0.6212695366,-0.7355357971,0.2131780289
0.0250,0.1660178766,-0.6212871089,-0.7355359636,0.2131366682
0.0300,0.1660040259,-0.6213052603,-0.7355361118,0.2130940287
0.0350,0.165989811,-0.6213238645,-0.7355362093,0.2130505175
0.0400,0.165975301,-0.6213427983,-0.7355362307,0.2130065253
0.0450,0.1659605372,-0.6213619397,-0.7355361682,0.2129624033
0.0500,0.1659455367,-0.6213811701,-0.7355360326,0.212918447
0.0550,0.1659303023,-0.6214003784,-0.7355358485,0.2128748927
0.0600,0.1659148326,-0.6214194639,-0.7355356498,0.2128319197
0.0650,0.16589912,-0.6214383343,-0.7355354795,0.2127896545
0.0700,0.1658831458,-0.6214569073,-0.7355353872,0.2127481809
0.0750,0.165866883,-0.6214751131,-0.735535421,0.2127075582
0.0800,0.1658503068,-0.6214928924,-0.7355356207,0.2126678424
0.0850,0.1658334058,-0.6215101881,-0.7355360156,0.2126291076
0.0900,0.1658161887,-0.6215269408,-0.735536625,0.2125914548
0.0950,0.1657986809,-0.6215430902,-0.73553746,0.2125550033
0.1000,0.1657809134,-0.6215585796,-0.7355385262,0.2125198752
0.1050,0.1657629145,-0.6215733571,-0.7355398283,0.212486185
0.1100,0.1657447105,-0.6215873749,-0.7355413714,0.2124540357
0.1150,0.1657263288,-0.6216005909,-0.7355431577,0.2124235212
0.1200,0.1657078051,-0.6216129733,-0.7355451817,0.2123947279
0.1250,0.1656892005,-0.6216245023,-0.7355474236,0.2123677344
0.1300,0.1656706162,-0.6216351723,-0.7355498444,0.2123426145
0.1350,0.1656522037,-0.6216449904,-0.7355523835,0.2123194396
0.1400,0.1656341714,-0.6216539732,-0.7355549622,0.2122982725
0.1450,0.1656167853,-0.6216621412,-0.7355574885,0.2122791649
0.1500,0.1656003625,-0.6216695189,-0.7355598596,0.2122621545
0.1550,0.1655763789,-0.621685346,-0.7355611201,0.2122301392
0.1600,0.1655541421,-0.6216994326,-0.7355620737,0.2122029156
0.1650,0.1655351225,-0.6217113618,-0.7355632589,0.2121786936
0.1700,0.1655170796,-0.6217221634,-0.7355639892,0.2121585864
0.1750,0.1655023449,-0.6217329329,-0.7355631755,0.2121413416
0.1800,0.1654903701,-0.6217417345,-0.7355624017,0.2121275706
0.1850,0.1654816796,-0.6217502327,-0.735560447,0.2121162197
0.1900,0.1654759392,-0.6217577377,-0.7355574232,0.212109185
0.1950,0.1654728251,-0.6217638196,-0.7355540856,0.2121053606
0.2000,0.1654709716,-0.6217682624,-0.735551213,0.2121037447
0.2050,0.165470966,-0.6217720327,-0.7355482186,0.2121030808
0.2100,0.1654727695,-0.6217741131,-0.7355452165,0.2121059861
0.2150,0.1654772653,-0.6217764316,-0.7355408351,0.2121108761
0.2200,0.1654833371,-0.6217774526,-0.7355368038,0.2121171252
0.2250,0.1654905312,-0.6217771868,-0.7355329857,0.2121255313
0.2300,0.1654990947,-0.6217764978,-0.7355289282,0.2121349384
0.2350,0.1655086141,-0.6217753084,-0.7355247835,0.2121453687
0.2400,0.1655184702,-0.621773105,-0.7355204989,0.2121589914
0.2450,0.1655290414,-0.6217694309,-0.7355166416,0.2121748835
0.2500,0.1655377968,-0.6217644236,-0.7355138483,0.2121924089
0.2550,0.1655455911,-0.6217598039,-0.7355104897,0.2122115054
0.2600,0.1655501926,-0.6217538812,-0.7355082353,0.2122330812
0.2650,0.1655538322,-0.6217465866,-0.735507113,0.2122555002
0.2700,0.1655538646,-0.6217378276,-0.7355071319,0.2122810651
0.2750,0.1655509767,-0.6217280348,-0.7355084298,0.2123075002
0.2800,0.1655444108,-0.6217172795,-0.735510922,0.2123354801
0.2850,0.1655322706,-0.6217056506,-0.7355147614,0.2123656922
0.2900,0.1655153381,-0.621693758,-0.7355196928,0.2123966232
0.2950,0.1654939531,-0.6216805215,-0.7355267516,0.2124275838
0.3000,0.1654661458,-0.6216661097,-0.7355358224,0.2124600117
0.3050,0.1654323728,-0.6216506543,-0.7355474121,0.2124914082
0.3100,0.1653915314,-0.6216345126,-0.7355614733,0.2125217473
0.3150,0.1653442264,-0.6216185195,-0.7355768938,0.2125519614
0.3200,0.1652908528,-0.6216014708,-0.7355945499,0.2125822278
0.3250,0.1652321218,-0.6215835903,-0.7356145507,0.2126109569
0.3300,0.16516723,-0.6215653445,-0.7356364307,0.2126390144
0.3350,0.1650977826,-0.6215469139,-0.7356596942,0.2126663356
0.3400,0.1650237173,-0.6215274101,-0.7356850239,0.212693199
0.3450,0.1649446154,-0.6215078892,-0.7357117591,0.2127191223
0.3500,0.1648626535,-0.6214885213,-0.7357395174,0.2127432393
0.3550,0.164777691,-0.6214693404,-0.7357676637,0.2127677525
0.3600,0.1646906421,-0.6214507488,-0.7357965525,0.2127895501
0.3650,0.1646016755,-0.6214326781,-0.7358257993,0.2128100281
0.3700,0.1645117283,-0.6214152227,-0.7358551397,0.2128290995
0.3750,0.1644200512,-0.6213990209,-0.7358841537,0.2128469306
0.3800,0.1643283376,-0.6213828247,-0.7359136756,0.2128629717
0.3850,0.1642386474,-0.6213668933,-0.7359425616,0.2128788309
0.3900,0.1641507659,-0.6213509056,-0.7359716173,0.2128928291
0.3950,0.1640670038,-0.6213357064,-0.7359995027,0.2129053553
0.4000,0.1639855022,-0.6213216782,-0.7360264636,0.2129158804
0.4050,0.1639088566,-0.6213083039,-0.7360521768,0.2129250369
0.4100,0.1638351275,-0.6212959644,-0.7360769047,0.2129323039
0.4150,0.1637667876,-0.6212841634,-0.7361003338,0.2129383153
0.4200,0.1637023164,-0.6212735567,-0.7361226012,0.2129418589
0.4250,0.1636425488,-0.6212643289,-0.7361430907,0.2129438891
0.4300,0.1635880538,-0.6212546548,-0.7361634071,0.2129437498
0.4350,0.1635395653,-0.6212462023,-0.7361819771,0.2129414549
0.4400,0.1634960064,-0.6212378139,-0.7362001022,0.2129367138
0.4450,0.1634581751,-0.6212307507,-0.7362161086,0.2129310239
0.4500,0.1634259325,-0.6212238366,-0.7362311002,0.21292411
0.4550,0.1634000976,-0.6212180069,-0.7362443725,0.2129150532
0.4600,0.1633784362,-0.6212135591,-0.7362558315,0.2129050284
0.4650,0.1633603504,-0.6212094696,-0.736266305,0.2128946191
0.4700,0.1633468056,-0.6212058195,-0.7362754567,0.2128840127
0.4750,0.1633349798,-0.6212021578,-0.7362840878,0.2128739194
0.4800,0.1633262818,-0.6211988675,-0.7362919536,0.2128629884
0.4850,0.1633171015,-0.621196335,-0.7362990326,0.2128529359
0.4900,0.1633061807,-0.62119381,-0.7363063507,0.2128433691
0.4950,0.1632909504,-0.6211927172,-0.7363138043,0.2128324579
0.5000,0.1632713992,-0.6211914438,-0.7363220823,0.2128225354
0.5050,0.1632433076,-0.6211907703,-0.7363316196,0.2128130529
0.5100,0.1632053827,-0.6211908158,-0.7363430775,0.212802363
0.5150,0.163157254,-0.6211897357,-0.7363576845,0.2127918777
0.5200,0.1630967038,-0.6211881954,-0.7363753251,0.2127817466
0.5250,0.1630241782,-0.6211863467,-0.7363955805,0.2127726229
0.5300,0.1629373119,-0.6211830212,-0.7364201372,0.2127638788
0.5350,0.1628338453,-0.621178194,-0.7364493324,0.2127561303
0.5400,0.1627111675,-0.6211720359,-0.7364838214,0.2127485808
0.5450,0.1625675894,-0.6211660305,-0.7365230078,0.2127402183
0.5500,0.16240228,-0.6211591392,-0.7365678397,0.2127313817
0.5550,0.1622109258,-0.6211510411,-0.736619534,0.2127220294
0.5600,0.1619938314,-0.6211413769,-0.736678997,0.2127097642
0.5650,0.1617473133,-0.6211316438,-0.7367455164,0.2126953966
0.5700,0.1614698834,-0.6211205743,-0.7368203352,0.2126793421
0.5750,0.1611621053,-0.6211077283,-0.7369038763,0.2126608631
0.5800,0.1608240873,-0.6210934562,-0.7369954527,0.2126410926
0.5850,0.1604580257,-0.6210768003,-0.7370951841,0.2126206003
0.5900,0.1600645838,-0.6210578749,-0.7372029418,0.2125988421
0.5950,0.1596442213,-0.6210362019,-0.737318302,0.2125781742
0.6000,0.1591993496,-0.6210127513,-0.7374399365,0.2125583915
0.6050,0.1587317625,-0.620986482,-0.7375681393,0.2125400119
0.6100,0.1582424033,-0.6209573477,-0.7377024362,0.2125239511
0.6150,0.1577337511,-0.620924281,-0.737843239,0.2125098955
0.6200,0.1572057292,-0.6208889896,-0.7379895187,0.212496333
0.6250,0.1566589294,-0.6208500822,-0.7381419847,0.2124842715
0.6300,0.1560965401,-0.6208082552,-0.7382994916,0.2124731537
0.6350,0.1555206361,-0.6207638103,-0.7384608591,0.2124645455
0.6400,0.1549307505,-0.6207171679,-0.7386262477,0.2124568808
0.6450,0.1543320316,-0.620668157,-0.7387943582,0.2124513103
0.6500,0.1537239904,-0.620616322,-0.7389651382,0.212449618
0.6550,0.1531106149,-0.6205611627,-0.7391385815,0.2124503242
0.6600,0.1524939321,-0.6205036945,-0.7393134356,0.2124533122
0.6650,0.1518773118,-0.6204437935,-0.7394888558,0.2124594395
0.6700,0.1512619955,-0.6203812674,-0.7396651885,0.2124671756
0.6750,0.1506513496,-0.620316262,-0.7398415954,0.2124766335
0.6800,0.1500465004,-0.6202503457,-0.7400169869,0.2124862715
0.6850,0.1494482299,-0.6201831943,-0.7401921259,0.2124938797
0.6900,0.1488581998,-0.6201149071,-0.7403662613,0.2125006762
0.6950,0.1482746163,-0.620046863,-0.7405389522,0.2125054967
0.7000,0.1477008008,-0.6199784765,-0.7407096539,0.2125096957
0.7050,0.1471365134,-0.6199095667,-0.7408787533,0.2125127019
0.7100,0.1465844711,-0.6198406885,-0.7410448575,0.2125159591
0.7150,0.1460462664,-0.61977196,-0.7412078435,0.2125185602
0.7200,0.1455248442,-0.6197027518,-0.7413668927,0.212523292
0.7250,0.1450222545,-0.619632336,-0.7415221183,0.2125306143
0.7300,0.1445377321,-0.6195628246,-0.7416721269,0.2125398939
0.7350,0.144072237,-0.6194927351,-0.7418172895,0.2125536418
0.7400,0.1436266339,-0.6194227017,-0.7419568851,0.2125720757
0.7450,0.1432000415,-0.6193521065,-0.7420919543,0.2125940911
0.7500,0.1427913994,-0.6192799369,-0.7422224062,0.2126237893
0.7550,0.1423994453,-0.6192074174,-0.742347627,0.2126606989
0.7600,0.1420243473,-0.6191333294,-0.7424681882,0.2127063578
0.7650,0.1416639553,-0.6190574408,-0.7425841724,0.2127626745
0.7700,0.1413165739,-0.6189802862,-0.7426955349,0.2128294474
0.7750,0.1409815189,-0.6189016816,-0.7428022995,0.2129076411
0.7800,0.1406567338,-0.6188206492,-0.7429053193,0.2129985305
0.7850,0.1403426243,-0.6187382958,-0.7430037119,0.2131017439
0.7900,0.1400390059,-0.618654172,-0.7430984555,0.213215332
0.7950,0.1397457512,-0.6185692576,-0.7431885336,0.2133401089
0.8000,0.1394615874,-0.6184842253,-0.7432739285,0.2134750476
0.8050,0.1391884616,-0.6183988525,-0.74335446,0.2136201726
0.8100,0.1389243589,-0.6183123624,-0.7434316713,0.2137737007
0.8150,0.1386683257,-0.6182262267,-0.7435050021,0.2139339615
0.8200,0.1384181627,-0.6181398397,-0.7435754199,0.2141007842
0.8250,0.1381712153,-0.6180540564,-0.7436434448,0.2142716165
0.8300,0.1379255931,-0.6179700897,-0.7437081917,0.2144472536
0.8350,0.1376816776,-0.6178876815,-0.7437701485,0.214626501
0.8400,0.1374388157,-0.6178058345,-0.743830422,0.2148088127
0.8450,0.1371960862,-0.6177236048,-0.7438896122,0.2149954113
0.8500,0.1369521028,-0.6176426769,-0.7439463097,0.2151872057
0.8550,0.1367077805,-0.6175612607,-0.7440017134,0.215384592
0.8600,0.1364629752,-0.617479441,-0.7440551723,0.2155896494
0.8650,0.1362190897,-0.6173958418,-0.7441071119,0.2158039392
0.8700,0.1359763044,-0.6173108788,-0.7441573625,0.2160267191
0.8750,0.1357337543,-0.6172250792,-0.7442049259,0.2162604401
0.8800,0.1354912463,-0.6171370546,-0.7442511721,0.2165044361
0.8850,0.1352476457,-0.6170467757,-0.7442961364,0.216759342
0.8900,0.1350019944,-0.616953469,-0.7443403211,0.217026185
0.8950,0.1347544146,-0.6168583992,-0.7443830556,0.2173035425
0.9000,0.1345054816,-0.6167595434,-0.7444256281,0.2175923374
0.9050,0.1342535208,-0.6166581564,-0.7444671341,0.2178930852
0.9100,0.1339983264,-0.6165542727,-0.7445083131,0.2182032288
0.9150,0.1337404755,-0.6164473933,-0.7445494362,0.2185228447
0.9200,0.1334806761,-0.6163382106,-0.7445894562,0.2188530579
0.9250,0.1332195485,-0.6162268207,-0.7446286424,0.2191922497
0.9300,0.1329561204,-0.6161132716,-0.7446674006,0.2195394475
0.9350,0.1326903517,-0.615996445,-0.7447073299,0.2198923442
0.9400,0.1324260123,-0.6158770719,-0.7447476098,0.2202493615
0.9450,0.1321600655,-0.6157556242,-0.7447886177,0.2206097082
0.9500,0.1318956993,-0.6156309501,-0.7448311633,0.2209719349
0.9550,0.1316317304,-0.6155052322,-0.744874323,0.2213337741
0.9600,0.1313683614,-0.6153767332,-0.7449189918,0.2216969228
0.9650,0.1311036813,-0.6152456513,-0.7449659426,0.2220593562
0.9700,0.1308385875,-0.6151128214,-0.7450141213,0.2224217614
0.9750,0.1305710702,-0.6149777185,-0.7450642135,0.2227844678
0.9800,0.1303018115,-0.614839672,-0.7451170081,0.2231462748
0.9850,0.1300296197,-0.6146981086,-0.7451723159,0.2235100734
0.9900,0.1297552776,-0.6145536999,-0.7452297905,0.2238746906
0.9950,0.1294815493,-0.6144053864,-0.7452894413,0.2242413837
1.0000,0.1292088312,-0.6142513143,-0.7453524224,0.2246111467
1.0050,0.1289406132,-0.6140917809,-0.7454173297,0.2249857941
1.0100,0.1286793655,-0.6139260157,-0.7454841901,0.2253659036
1.0150,0.128424883,-0.6137535037,-0.745552787,0.2257536888
1.0200,0.1281783077,-0.6135754847,-0.7456224331,0.2261473708
1.0250,0.1279389717,-0.6133921059,-0.7456935636,0.226545477
1.0300,0.1277074833,-0.6132034133,-0.745765569,0.226949529
1.0350,0.1274814701,-0.6130101115,-0.7458388917,0.2273574842
1.0400,0.1272613202,-0.6128128406,-0.7459128645,0.2277695706
1.0450,0.1270485934,-0.6126116718,-0.7459869254,0.2281865501
1.0500,0.1268436144,-0.6124077299,-0.7460606506,0.2286065952
1.0550,0.126645753,-0.612199974,-0.7461343813,0.229031723
1.0600,0.126456762,-0.6119890485,-0.746207632,0.2294608066
1.0650,0.1262772182,-0.6117750567,-0.7462803625,0.2298933767
1.0700,0.1261066114,-0.6115570379,-0.7463527465,0.230331695
1.0750,0.1259453491,-0.6113353028,-0.7464240528,0.2307770568
1.0800,0.1257933391,-0.6111096623,-0.7464943341,0.2312298114
1.0850,0.1256492305,-0.6108791984,-0.7465642756,0.2316908677
1.0900,0.125512322,-0.6106435054,-0.7466327592,0.2321652196
1.0950,0.125382579,-0.6104016823,-0.7467004477,0.232653039
1.1000,0.1252589912,-0.6101529459,-0.7467683019,0.2331537499
1.1050,0.1251403932,-0.6098978405,-0.7468353257,0.2336696436
1.1100,0.1250272346,-0.6096363382,-0.7469008012,0.2342027304
1.1150,0.1249165368,-0.6093674482,-0.7469659933,0.2347530123
1.1200,0.1248060441,-0.6090916293,-0.7470306724,0.2353210851
1.1250,0.1246939633,-0.6088080993,-0.7470955022,0.2359076605
1.1300,0.1245790217,-0.6085162421,-0.7471614043,0.2365119159
1.1350,0.1244576907,-0.6082161815,-0.7472282326,0.2371356748
1.1400,0.1243269338,-0.6079082539,-0.7472960909,0.2377791433
1.1450,0.1241849201,-0.6075911555,-0.7473664494,0.2384417826
1.1500,0.1240285776,-0.6072629805,-0.7474415668,0.2391227482
1.1550,0.1238551909,-0.6069250805,-0.7475200776,0.2398240437
1.1600,0.1236615161,-0.606575634,-0.7476042225,0.2405447073
1.1650,0.1234452054,-0.6062152555,-0.7476936914,0.2412850785
1.1700,0.1232024305,-0.6058425601,-0.7477902987,0.2420446707
1.1750,0.1229303187,-0.6054565657,-0.7478952018,0.2428234976
1.1800,0.1226270889,-0.6050553946,-0.7480098457,0.2436223249
1.1850,0.1222890838,-0.6046387478,-0.7481346449,0.2444420539
1.1900,0.1219157991,-0.6042043986,-0.748270731,0.2452845202
1.1950,0.1215046538,-0.6037515279,-0.7484186409,0.2461508677
1.2000,0.1210504141,-0.6032783407,-0.7485799573,0.2470426854
1.2050,0.1205536199,-0.6027840518,-0.7487551245,0.2479596239
1.2100,0.1200117462,-0.6022663476,-0.7489452552,0.2489044637
1.2150,0.1194210389,-0.6017256862,-0.7491503575,0.2498770816
1.2200,0.1187810362,-0.6011609237,-0.7493709581,0.2508780111
1.2250,0.1180906789,-0.6005714339,-0.7496072993,0.2519076046
1.2300,0.1173483221,-0.5999557285,-0.749860079,0.2529671066
1.2350,0.116554367,-0.5993136082,-0.7501290782,0.2540563807
1.2400,0.1157056488,-0.5986457315,-0.7504141954,0.2551745018
1.2450,0.1148025261,-0.597949185,-0.7507168558,0.2563227546
1.2500,0.1138403503,-0.597225285,-0.7510369013,0.2574993331
1.2550,0.1128187689,-0.59647387,-0.7513738458,0.2587048349
1.2600,0.1117377583,-0.5956942709,-0.7517287374,0.2599363661
1.2650,0.1105970075,-0.5948874455,-0.752100587,0.2611932926
1.2700,0.1093962413,-0.5940517191,-0.7524905373,0.2624747773
1.2750,0.1081361645,-0.5931877959,-0.7528984293,0.2637778684
1.2800,0.1068178948,-0.5922962368,-0.7533227097,0.2651037538
1.2850,0.1054428647,-0.5913763201,-0.7537634994,0.2664515665
1.2900,0.1040125364,-0.5904283753,-0.7542204775,0.2678193368
1.2950,0.1025287178,-0.5894522793,-0.7546930717,0.2692066863
1.3000,0.1009928168,-0.58844954,-0.7551800651,0.2706116391
1.3050,0.09940492675,-0.5874199847,-0.7556815009,0.2720328863
1.3100,0.09776791666,-0.5863645717,-0.756196232,0.2734689784
1.3150,0.09608591907,-0.5852836002,-0.7567233812,0.2749187659
1.3200,0.09435926754,-0.5841760503,-0.7572629129,0.2763829799
1.3250,0.09259304092,-0.58304124,-0.7578136342,0.2778631624
1.3300,0.09079142884,-0.5818792778,-0.7583749439,0.2793579548
1.3350,0.08895727401,-0.5806899642,-0.7589458144,0.2808683316
1.3400,0.08709340588,-0.5794717104,-0.7595262292,0.2823954368
1.3450,0.08520159743,-0.5782268738,-0.7601141251,0.2839381748
1.3500,0.08328074691,-0.5769550047,-0.7607100792,0.2854950351
1.3550,0.08133337426,-0.5756562089,-0.7613128317,0.287067211
1.3600,0.0793595869,-0.5743307926,-0.7619225697,0.2886523763
1.3650,0.07735999404,-0.5729799141,-0.762537522,0.290251575
1.3700,0.07533793317,-0.571603716,-0.7631574827,0.2918630573
1.3750,0.07329306223,-0.570202789,-0.7637829519,0.2934834049
1.3800,0.07122742034,-0.5687778053,-0.7644122535,0.2951141633
1.3850,0.06914378182,-0.5673293936,-0.7650451309,0.2967531707
1.3900,0.06704134848,-0.5658572052,-0.7656828591,0.2983971182
1.3950,0.06492400466,-0.5643617493,-0.7663238077,0.300047515
1.4000,0.06278912042,-0.5628436582,-0.7669674304,0.3017043312
1.4050,0.06063773787,-0.5613025279,-0.7676144601,0.3033654192
1.4100,0.05846948495,-0.5597397059,-0.7682638723,0.3050301681
1.4150,0.05628725688,-0.5581540419,-0.7689159758,0.3066986017
1.4200,0.05409292113,-0.5565460921,-0.7695699369,0.3083707434
1.4250,0.0518872575,-0.5549170446,-0.7702251751,0.3100451028
1.4300,0.04967278333,-0.5532665597,-0.7708806528,0.3117238324
1.4350,0.04745005785,-0.5515946293,-0.771536801,0.3134052036
1.4400,0.04522133077,-0.5499010344,-0.7721934043,0.3150892413
1.4450,0.04298810415,-0.548187703,-0.7728480246,0.3167778339
1.4500,0.04075358481,-0.5464548289,-0.7735003013,0.318470641
1.4550,0.03851983415,-0.5447014705,-0.7741513836,0.3201658411
1.4600,0.03628903364,-0.5429298635,-0.7747988376,0.321864926
1.4650,0.03406173932,-0.5411381622,-0.7754439911,0.3235674643
1.4700,0.03184059758,-0.5393278829,-0.7760857221,0.3252730592
1.4750,0.02962628172,-0.5374984963,-0.7767239682,0.3269824569
1.4800,0.02741791374,-0.5356524109,-0.7773571202,0.3286953913
1.4850,0.02521649575,-0.5337900064,-0.7779852568,0.3304108012
1.4900,0.02302132468,-0.5319124154,-0.7786073127,0.3321292724
1.4950,0.02083268662,-0.5300196743,-0.7792232679,0.3338506293
1.5000,0.01865437283,-0.5281126228,-0.7798328035,0.335573942
1.5050,0.01648460584,-0.526190973,-0.7804351943,0.3373013863
1.5100,0.01432588837,-0.5242547901,-0.7810302345,0.3390331204
1.5150,0.01218047795,-0.5223065398,-0.7816161578,0.3407692713
1.5200,0.01004872067,-0.5203438275,-0.7821946538,0.3425096321
1.5250,0.007932546137,-0.5183681249,-0.7827647395,0.3442541567
1.5300,0.005833303626,-0.5163806541,-0.7833254227,0.3460032873
1.5350,0.003750132382,-0.5143818755,-0.7838763851,0.3477571503
1.5400,0.001683718891,-0.5123710747,-0.7844177541,0.3495165718
1.5450,-0.0003664435286,-0.5103504708,-0.7849491194,0.3512792945
1.5500,-0.002400164882,-0.5083207158,-0.7854700455,0.3530454597
1.5550,-0.00441689804,-0.5062809103,-0.7859813498,0.354814668
1.5600,-0.006417079456,-0.5042321313,-0.7864821359,0.356587477
1.5650,-0.008398634355,-0.5021747127,-0.7869723558,0.3583636868
1.5700,-0.0103640059,-0.5001095417,-0.7874519374,0.3601423051
1.5750,-0.01231219195,-0.4980361801,-0.7879206371,0.3619246371
1.5800,-0.01424493333,-0.4959548962,-0.7883789385,0.3637093236
1.5850,-0.01616098354,-0.4938667538,-0.7888261208,0.3654966529
1.5900,-0.01806095513,-0.4917721082,-0.7892618254,0.3672870354
1.5950,-0.0199435711,-0.4896709298,-0.7896862921,0.3690802008
1.6000,-0.02180866074,-0.4875643564,-0.7900978931,0.370878282
1.6050,-0.02365396263,-0.485451289,-0.7904978723,0.3726803591
1.6100,-0.02548081694,-0.4833316702,-0.7908856404,0.3744878215
1.6150,-0.02729002078,-0.4812054813,-0.7912618662,0.3762993471
1.6200,-0.02907901301,-0.4790739469,-0.7916256164,0.3781156541
1.6250,-0.03085116979,-0.476936988,-0.7919767125,0.3799371023
1.6300,-0.0326059262,-0.4747941067,-0.7923154148,0.3817639234
1.6350,-0.0343430077,-0.4726461918,-0.7926414125,0.3835957851
1.6400,-0.03606141698,-0.4704953805,-0.7929539639,0.3854318128
1.6450,-0.03776281231,-0.4683401822,-0.7932537945,0.3872723347
1.6500,-0.03944470476,-0.466180769,-0.7935402778,0.3891187909
1.6550,-0.04110740194,-0.4640171944,-0.7938144189,0.3909691716
1.6600,-0.0427509663,-0.4618511138,-0.7940745841,0.3928249719
1.6650,-0.04437480981,-0.4596800354,-0.7943226626,0.3946855066
1.6700,-0.04598197734,-0.4575056431,-0.7945577644,0.3965503792
1.6750,-0.04757251677,-0.4553280194,-0.7947793253,0.3984207255
1.6800,-0.04914744005,-0.4531478971,-0.7949878543,0.4002946715
1.6850,-0.05070916004,-0.4509653135,-0.7951826388,0.402173393
1.6900,-0.05225591907,-0.4487817809,-0.7953636621,0.404055537
1.6950,-0.05379032899,-0.4465955039,-0.7955319617,0.4059408262
1.7000,-0.05531096382,-0.4444080166,-0.7956868451,0.4078292004
1.7050,-0.05681975204,-0.4422199342,-0.795828229,0.4097199964
1.7100,-0.05831677029,-0.4400309667,-0.795955908,0.4116140124
1.7150,-0.05980433595,-0.4378432895,-0.7960692244,0.4135099578
1.7200,-0.06128166906,-0.4356573147,-0.7961682065,0.4154075687
1.7250,-0.06275021592,-0.4334733151,-0.7962527303,0.4173067038
1.7300,-0.06421047528,-0.4312915237,-0.7963229573,0.4192068513
1.7350,-0.06566159154,-0.4291124092,-0.7963787123,0.4211081123
1.7400,-0.06710070814,-0.4269357748,-0.7964188642,0.4230133945
1.7450,-0.06852768326,-0.4247610337,-0.7964452608,0.4249199541
1.7500,-0.06994502973,-0.4225885111,-0.7964578264,0.4268273349
1.7550,-0.07135260277,-0.4204183408,-0.7964557691,0.4287370204
1.7600,-0.07275320909,-0.4182504605,-0.7964399539,0.4306470977
1.7650,-0.07414786113,-0.4160866118,-0.7964097567,0.4325569624
1.7700,-0.0755395926,-0.413927037,-0.7963647462,0.4344667641
1.7750,-0.07692759376,-0.4117724086,-0.7963053445,0.4363753284
1.7800,-0.07831376858,-0.4096228567,-0.7962318928,0.4382816924
1.7850,-0.07969927745,-0.4074775363,-0.7961452183,0.4401850452
1.7900,-0.08108457442,-0.4053377842,-0.7960446281,0.4420854246
1.7950,-0.08246943682,-0.4032027148,-0.7959317252,0.4439809136
1.8000,-0.08385603962,-0.4010738359,-0.7958058713,0.4458710105
1.8050,-0.08524162044,-0.3989520733,-0.7956677057,0.4477544097
1.8100,-0.08662757055,-0.3968384889,-0.7955166911,0.4496310397
1.8150,-0.0880146368,-0.3947315799,-0.7953537651,0.4515006
1.8200,-0.08940212958,-0.3926319138,-0.7951781214,0.4533643069
1.8250,-0.09078956022,-0.3905402695,-0.7949903221,0.4552207612
1.8300,-0.092176615,-0.388455369,-0.7947905548,0.4570709704
1.8350,-0.09356339527,-0.3863787894,-0.7945787775,0.4589138138
1.8400,-0.09494826803,-0.3843092433,-0.7943552395,0.4607504588
1.8450,-0.09633173847,-0.3822468951,-0.7941199604,0.4625807992
1.8500,-0.09771057436,-0.3801923958,-0.7938726031,0.4644057234
1.8550,-0.09908545728,-0.3781446469,-0.7936137091,0.4662252449
1.8600,-0.1004552382,-0.3761042097,-0.7933424007,0.4680408142
1.8650,-0.1018200529,-0.3740691808,-0.7930604933,0.4698510176
1.8700,-0.1031768739,-0.3720398884,-0.7927676631,0.4716569585
1.8750,-0.1045257833,-0.3700165207,-0.792464622,0.473457451
1.8800,-0.1058653445,-0.3679991274,-0.7921509241,0.4752537055
1.8850,-0.1071957085,-0.3659864562,-0.7918280679,0.4770443426
1.8900,-0.1085168661,-0.3639786879,-0.7914961823,0.4788291951
1.8950,-0.1098281419,-0.361974924,-0.7911567338,0.4806068624
1.9000,-0.1111281194,-0.3599725498,-0.7908111925,0.4823774065
1.9050,-0.1124175281,-0.3579736681,-0.7904590443,0.4841401158
1.9100,-0.1136958582,-0.3559786218,-0.7901013517,0.4858933285
1.9150,-0.1149627452,-0.3539863409,-0.7897383167,0.4876378049
1.9200,-0.1162194115,-0.3519967477,-0.7893705866,0.4893724707
1.9250,-0.1174643873,-0.3500113742,-0.7889983812,0.4910964367
1.9300,-0.1186995519,-0.3480305866,-0.7886220251,0.492808714
1.9350,-0.1199262623,-0.3460546384,-0.7882406566,0.4945104106
1.9400,-0.1211452482,-0.3440823238,-0.7878548999,0.4962014107
1.9450,-0.1223547972,-0.3421135871,-0.7874655756,0.4978810745
1.9500,-0.1235560457,-0.3401488247,-0.7870725076,0.4995493454
1.9550,-0.1247499144,-0.3381877627,-0.7866752452,0.5012070976
1.9600,-0.1259358809,-0.3362295184,-0.78627458,0.5028540043
1.9650,-0.1271149916,-0.3342755489,-0.785869775,0.5044901714
1.9700,-0.1282862607,-0.3323236663,-0.7854613979,0.5061165958
1.9750,-0.129449839,-0.330374422,-0.7850490075,0.5077337258
1.9800,-0.1306068469,-0.3284271673,-0.78463337,0.5093406738
1.9850,-0.1317586865,-0.3264804767,-0.7842145207,0.5109380905
1.9900,-0.132907028,-0.3245334104,-0.7837920913,0.5125268237
1.9950,-0.1340528088,-0.3225881681,-0.783365623,0.5141060386
2.0000,-0.1351965709,-0.3206427202,-0.7829350488,0.515677072
2.0050,-0.1363373853,-0.3186962056,-0.7825009836,0.5172398443
2.0100,-0.1374757131,-0.3167491811,-0.7820634303,0.5187939625
2.0150,-0.1386096861,-0.3148013275,-0.7816223628,0.5203402359
2.0200,-0.1397411599,-0.3128506684,-0.78117842,0.5218784759
2.0250,-0.1408685151,-0.3108976866,-0.7807301516,0.5234110433
2.0300,-0.1419939913,-0.3089432242,-0.7802778512,0.5249364396
2.0350,-0.1431165418,-0.3069858652,-0.7798205661,0.5264572335
2.0400,-0.1442393302,-0.3050283868,-0.7793588348,0.5279701748
2.0450,-0.1453618387,-0.3030698635,-0.7788914311,0.5294777921
2.0500,-0.1464830363,-0.3011115965,-0.7784177108,0.5309805967
2.0550,-0.1476031016,-0.2991537772,-0.7779381426,0.5324777819
2.0600,-0.1487207311,-0.2971956627,-0.7774527295,0.5339701637
2.0650,-0.1498349491,-0.2952369734,-0.7769616111,0.5354580025
2.0700,-0.1509431125,-0.2932764376,-0.7764646446,0.5369429798
2.0750,-0.1520460138,-0.2913140942,-0.7759621165,0.5384244626
2.0800,-0.1531423594,-0.2893512015,-0.7754548074,0.539901048
2.0850,-0.1542334679,-0.2873875569,-0.774940884,0.5413751525
2.0900,-0.1553190458,-0.2854242797,-0.7744220055,0.5428439296
2.0950,-0.1564004262,-0.2834611379,-0.7738983204,0.5443069719
2.1000,-0.1574769783,-0.2814981075,-0.773369588,0.5457648735
2.1050,-0.1585511569,-0.2795341916,-0.7728361002,0.5472170763
2.1100,-0.1596217632,-0.2775680148,-0.7722989396,0.5486631369
2.1150,-0.1606898065,-0.2756000815,-0.7717583378,0.550102217
2.1200,-0.1617578465,-0.2736311808,-0.7712146023,0.5515327852
2.1250,-0.1628266944,-0.2716611862,-0.7706676234,0.5529548641
2.1300,-0.1638991448,-0.2696909464,-0.7701174479,0.554367189
2.1350,-0.1649746725,-0.2677189596,-0.7695642398,0.5557704535
2.1400,-0.1660546707,-0.2657462551,-0.7690080179,0.5571637486
2.1450,-0.1671378503,-0.2637712445,-0.7684494302,0.5585473505
2.1500,-0.1682248798,-0.2617938101,-0.7678881254,0.5599216174
2.1550,-0.1693145247,-0.259813094,-0.767325054,0.5612860318
2.1600,-0.1704070896,-0.2578292172,-0.7667602632,0.5626403979
2.1650,-0.1715037291,-0.2558427018,-0.7661928425,0.5639853819
2.1700,-0.1726035233,-0.2538540293,-0.7656224732,0.5653214874
2.1750,-0.1737062741,-0.2518625673,-0.7650486728,0.5666497205
2.1800,-0.1748130983,-0.2498692402,-0.764472192,0.5679683188
2.1850,-0.1759237862,-0.2478757856,-0.7638911279,0.5692791592
2.1900,-0.1770395387,-0.2458816784,-0.7633048383,0.5705829701
2.1950,-0.1781602323,-0.2438865406,-0.7627126789,0.5718808061
2.2000,-0.1792860156,-0.241890701,-0.7621143213,0.5731729011
2.2050,-0.1804163276,-0.2398949829,-0.7615092944,0.5744596944
2.2100,-0.1815507281,-0.2378974077,-0.7608979822,0.5757416236
2.2150,-0.1826900449,-0.2358987991,-0.7602799168,0.5770186757
2.2200,-0.1838334364,-0.2338978214,-0.7596551438,0.5782915695
2.2250,-0.1849807805,-0.2318944275,-0.7590239546,0.579559938
2.2300,-0.1861307932,-0.2298870046,-0.7583850385,0.5808265028
2.2350,-0.1872831381,-0.2278743499,-0.7577397974,0.5820899469
2.2400,-0.1884385748,-0.2258564969,-0.7570876146,0.5833507437
2.2450,-0.1895978282,-0.223833463,-0.75642785,0.5846094013
2.2500,-0.1907621601,-0.221804458,-0.7557602126,0.5858660954
2.2550,-0.1919317251,-0.2197691671,-0.7550841409,0.5871215089
2.2600,-0.193108392,-0.2177269638,-0.7543986386,0.5883764206
2.2650,-0.1942897751,-0.2156777579,-0.7537030776,0.5896323082
2.2700,-0.1954782988,-0.2136215333,-0.7529975481,0.5908881178
2.2750,-0.1966738303,-0.2115567531,-0.7522821114,0.5921442135
2.2800,-0.1978760841,-0.2094833509,-0.7515548219,0.5934030086
2.2850,-0.1990831101,-0.2074005932,-0.7508169266,0.5946636461
2.2900,-0.2002947565,-0.2053103193,-0.750066152,0.5959282263
2.2950,-0.2015108836,-0.2032106788,-0.7493035162,0.5971959682
2.3000,-0.2027304331,-0.2011028945,-0.7485290134,0.5984666352
2.3050,-0.2039539469,-0.1989891152,-0.7477411021,0.5997410807
2.3100,-0.2051827437,-0.196870308,-0.7469400843,0.6010179981
2.3150,-0.2064192748,-0.1947458356,-0.7461247143,0.6022981431
2.3200,-0.2076605502,-0.192617397,-0.7452943714,0.6035825828
2.3250,-0.2089068394,-0.190485218,-0.7444497426,0.6048701471
2.3300,-0.2101561153,-0.1883484677,-0.7435903843,0.6061621914
2.3350,-0.2114077063,-0.1862088274,-0.7427179735,0.6074562257
2.3400,-0.2126604124,-0.1840639231,-0.7418314707,0.6087545403
2.3450,-0.21391227,-0.1819135578,-0.7409325623,0.610055683
2.3500,-0.2151617322,-0.1797587753,-0.7400205727,0.611360584
2.3550,-0.2164088157,-0.1775990544,-0.739096757,0.61266776
2.3600,-0.2176541438,-0.1754354006,-0.7381613611,0.6139763016
2.3650,-0.2188981045,-0.1732680341,-0.7372147648,0.6152854612
2.3700,-0.2201431011,-0.1710987291,-0.7362576752,0.6165929578
2.3750,-0.2213899637,-0.1689287851,-0.7352894633,0.6178988224
2.3800,-0.2226387131,-0.166755538,-0.734310111,0.6192037265
2.3850,-0.223888754,-0.1645789468,-0.7333215045,0.6205055738
2.3900,-0.2251403859,-0.1623994995,-0.7323245858,0.6218029513
2.3950,-0.226393206,-0.1602170194,-0.7313190919,0.6230963077
2.4000,-0.227647975,-0.1580300689,-0.7303072126,0.6243831131
2.4050,-0.2289035441,-0.1558393583,-0.7292883327,0.6256642787
2.4100,-0.2301614231,-0.1536463966,-0.7282629594,0.6269382475
2.4150,-0.2314203872,-0.1514497875,-0.7272317211,0.6282050542
2.4200,-0.2326803693,-0.1492495981,-0.7261953848,0.6294637927
2.4250,-0.2339407779,-0.1470463749,-0.7251538703,0.6307146267
2.4300,-0.2352023398,-0.1448412173,-0.7241076039,0.6319565325
2.4350,-0.2364640259,-0.1426350692,-0.7230571165,0.6331890774
2.4400,-0.2377265832,-0.1404280395,-0.7220015208,0.6344129896
2.4450,-0.2389898004,-0.1382218542,-0.7209410831,0.6356276812
2.4500,-0.2402534636,-0.1360155356,-0.7198766132,0.6368325597
2.4550,-0.2415180199,-0.1338114119,-0.7188074479,0.6380277463
2.4600,-0.2427817212,-0.1316088084,-0.7177349931,0.6392125132
2.4650,-0.2440447628,-0.1294090524,-0.7166580456,0.6403879267
2.4700,-0.245307102,-0.1272118516,-0.7155774293,0.6415532038
2.4750,-0.246568455,-0.1250171638,-0.7144930395,0.6427086449
2.4800,-0.2478256456,-0.1228230274,-0.7134047475,0.643856055
2.4850,-0.2490783453,-0.1206277602,-0.7123144444,0.64499384
2.4900,-0.2503240858,-0.1184312334,-0.7112229803,0.6461220994
2.4950,-0.2515627111,-0.1162346871,-0.7101300668,0.6472410588
2.5000,-0.2527939822,-0.114039578,-0.7090376624,0.6483484946
2.5050,-0.2540184511,-0.111844777,-0.7079454563,0.6494448423
2.5100,-0.2552377125,-0.1096519955,-0.7068531033,0.6505296614
2.5150,-0.2564527266,-0.1074624367,-0.7057605523,0.6516025372
2.5200,-0.2576653263,-0.1052793488,-0.704667098,0.6526630979
2.5250,-0.2588756674,-0.1031025494,-0.7035723387,0.6537118764
2.5300,-0.2600842368,-0.100932362,-0.7024779708,0.6547469348
2.5350,-0.2612904886,-0.09876962943,-0.7013833599,0.6557691845
2.5400,-0.2624927794,-0.0966141529,-0.7002903628,0.6567774768
2.5450,-0.2636919847,-0.0944659446,-0.6991976737,0.6577730122
2.5500,-0.2648866573,-0.09232588937,-0.6981060088,0.6587556371
2.5550,-0.2660764198,-0.09019440595,-0.6970162368,0.6597246953
2.5600,-0.2672600231,-0.08807052064,-0.6959280546,0.6606813197
2.5650,-0.2684375708,-0.08595404183,-0.6948430624,0.6616239808
2.5700,-0.2696073137,-0.08384491256,-0.6937614229,0.6625534055
2.5750,-0.270767299,-0.08174428424,-0.6926830055,0.6634705688
2.5800,-0.2719188624,-0.07965134994,-0.691608809,0.6643741792
2.5850,-0.2730623476,-0.07756765762,-0.6905378138,0.6652651656
2.5900,-0.2741984164,-0.07549289708,-0.6894708973,0.6661425769
2.5950,-0.2753260545,-0.0734288682,-0.688407754,0.6670071434
2.6000,-0.276447026,-0.07137531534,-0.687347687,0.6678590894
2.6050,-0.2775607371,-0.06933153428,-0.6862909821,0.6686986343
2.6100,-0.2786657759,-0.06729644658,-0.685238018,0.6695262746
2.6150,-0.27976084,-0.06527124155,-0.6841891488,0.6703422604
2.6200,-0.2808492908,-0.0632578992,-0.6831438221,0.6711457609
2.6250,-0.2819313352,-0.06125441187,-0.682101705,0.6719374103
2.6300,-0.2830070328,-0.05926296724,-0.6810629951,0.6727169664
2.6350,-0.2840777092,-0.0572827535,-0.6800270008,0.6734848324
2.6400,-0.2851435048,-0.05531616028,-0.6789938696,0.6742407798
2.6450,-0.2862061607,-0.05336406572,-0.6779624379,0.674985365
2.6500,-0.28726457,-0.05142463943,-0.6769338836,0.6757182035
2.6550,-0.2883200999,-0.04949836238,-0.6759064872,0.6764405758
2.6600,-0.2893721989,-0.04758605188,-0.6748807215,0.6771523535
2.6650,-0.2904211341,-0.04568715239,-0.6738568807,0.677853342
2.6700,-0.2914648994,-0.04379940386,-0.6728356892,0.678544
2.6750,-0.2925040286,-0.0419227088,-0.6718171526,0.6792242584
2.6800,-0.2935364805,-0.04005720677,-0.6708024322,0.6798940004
2.6850,-0.2945620964,-0.03820339185,-0.6697914905,0.6805534744
2.6900,-0.2955823486,-0.03636041657,-0.6687832432,0.6812033242
2.6950,-0.2965978367,-0.03452934944,-0.6677790565,0.6818420484
2.7000,-0.2976082969,-0.03271177562,-0.6667772898,0.6824714552
2.7050,-0.2986165013,-0.03090728393,-0.6657786364,0.683089842
2.7100,-0.2996231811,-0.02911562873,-0.6647816542,0.6836984582
2.7150,-0.3006289289,-0.02733834434,-0.6637865061,0.684296965
2.7200,-0.3016334039,-0.02557474546,-0.6627925182,0.6848863408
2.7250,-0.3026379032,-0.0238229431,-0.6617997324,0.6854661779
2.7300,-0.303639442,-0.02208276808,-0.6608087027,0.686037389
2.7350,-0.3046385139,-0.02035303177,-0.6598193037,0.6866000411
2.7400,-0.3056352696,-0.0186330452,-0.6588321132,0.6871536497
2.7450,-0.3066300409,-0.01692242282,-0.657846005,0.6876992681
2.7500,-0.3076215782,-0.01522022183,-0.656861586,0.6882369986
2.7550,-0.3086101149,-0.01352524011,-0.6558771005,0.6887685343
2.7600,-0.3095983123,-0.01183696299,-0.6548913829,0.6892938763
2.7650,-0.3105841091,-0.01015387594,-0.6539069942,0.6898116069
2.7700,-0.3115695012,-0.008477428744,-0.6529207937,0.6903238488
2.7750,-0.3125525198,-0.006807657502,-0.6519334303,0.690830935
2.7800,-0.3135345784,-0.005145015531,-0.6509446968,0.6913324806
2.7850,-0.3145144051,-0.003490473834,-0.6499541745,0.6918295141
2.7900,-0.3154912817,-0.001843043244,-0.6489630533,0.6923213198
2.7950,-0.3164668904,-0.000202063148,-0.6479698307,0.6928086063
2.8000,-0.317441047,0.001431597793,-0.6469736931,0.6932922708
2.8050,-0.3184139425,0.003058782735,-0.6459739915,0.6937728788
2.8100,-0.3193843119,0.004679652745,-0.6449719853,0.6942498832
2.8150,-0.3203534055,0.006293599188,-0.6439675223,0.6947229063
2.8200,-0.3213175289,0.007902940492,-0.6429632219,0.6951912575
2.8250,-0.3222774291,0.009509097796,-0.641958742,0.6956549499
2.8300,-0.3232328075,0.01111186496,-0.640955171,0.6961131714
2.8350,-0.3241805554,0.01271243148,-0.6399547373,0.6965653564
2.8400,-0.3251253012,0.01431057024,-0.6389556996,0.6970110186
2.8450,-0.3260656996,0.0159062382,-0.6379584911,0.6974504389
2.8500,-0.3270025624,0.01749949662,-0.636963184,0.6978832237
2.8550,-0.3279373056,0.01909089153,-0.635969386,0.6983091017
2.8600,-0.32887156,0.02067755379,-0.634978108,0.6987265117
2.8650,-0.3298065713,0.02226097328,-0.6339876019,0.6991364639
2.8700,-0.3307401442,0.02384228353,-0.6329991409,0.6995388411
2.8750,-0.3316752327,0.02542277622,-0.6320130975,0.6999319017
2.8800,-0.3326099162,0.02700233843,-0.6310295987,0.7003164734
2.8850,-0.3335448919,0.02858049778,-0.6300492947,0.7006916914
2.8900,-0.3344793913,0.03015621269,-0.6290723033,0.7010578984
2.8950,-0.3354151364,0.03173217924,-0.6280972534,0.7014154228
2.9000,-0.3363493709,0.03330588711,-0.627125482,0.7017645249
2.9050,-0.3372825048,0.03487778494,-0.626157783,0.7021043248
2.9100,-0.338215511,0.03644581296,-0.6251928592,0.7024356622
2.9150,-0.3391501672,0.03800988278,-0.6242289783,0.7027592729
2.9200,-0.3400853215,0.03957004379,-0.6232670381,0.7030749498
2.9250,-0.3410190878,0.04112587396,-0.6223078464,0.7033829601
2.9300,-0.3419510199,0.04267678459,-0.6213521437,0.7036829581
2.9350,-0.3428813693,0.04422132345,-0.6203988027,0.7039759703
2.9400,-0.3438099834,0.04575976317,-0.6194488547,0.7042612128
2.9450,-0.3447379461,0.04729082946,-0.6185013784,0.7045391194
2.9500,-0.3456639326,0.04881595048,-0.6175578447,0.7048090218
2.9550,-0.3465892626,0.05033346849,-0.6166181191,0.7050705782
2.9600,-0.3475117283,0.05184482251,-0.6156830346,0.7053241198
2.9650,-0.34843081,0.05335069324,-0.6147529201,0.7055696432
2.9700,-0.3493460278,0.05484860717,-0.6138294333,0.7058062127
2.9750,-0.350255777,0.05634121071,-0.6129134318,0.7060337696
2.9800,-0.3511606343,0.05782943107,-0.6120051686,0.7062518244
2.9850,-0.3520593303,0.05931186161,-0.6111056838,0.7064603133
2.9900,-0.3529512341,0.06079088123,-0.6102153941,0.7066590889
2.9950,-0.3538352779,0.06226558284,-0.60933271,0.7068502259
3.0000,-0.3547137288,0.06373606368,-0.6084582926,0.7070321003
3.0050,-0.3555841004,0.06520147716,-0.6075917314,0.7072064782
3.0100,-0.3564466413,0.06666060945,-0.6067344084,0.7073722589
3.0150,-0.3573022042,0.06811394588,-0.605885604,0.7075296885
3.0200,-0.3581506129,0.06955948478,-0.6050451767,0.7076792711
3.0250,-0.358992929,0.07099586079,-0.6042127602,0.7078210262
3.0300,-0.3598308245,0.07242124577,-0.6033871639,0.7079554162
3.0350,-0.3606645582,0.07383685075,-0.6025677356,0.7080828482
3.0400,-0.3614921189,0.07524216584,-0.6017561603,0.7082030697
3.0450,-0.3623135352,0.07663592795,-0.6009515093,0.7083171043
3.0500,-0.363130584,0.07801734766,-0.6001525505,0.7084252879
3.0550,-0.363941694,0.07938637221,-0.5993613926,0.7085267591
3.0600,-0.364746335,0.08074405806,-0.5985782531,0.7086216078
3.0650,-0.3655438007,0.08208900033,-0.5978023886,0.7087111047
3.0700,-0.3663311914,0.08342404691,-0.5970354849,0.708795116
3.0750,-0.3671095639,0.08475134055,-0.5962773275,0.7088731389
3.0800,-0.3678768837,0.08607215014,-0.5955291193,0.7089451682
3.0850,-0.3686343261,0.08738618839,-0.5947906115,0.7090109422
3.0900,-0.3693812504,0.08869389115,-0.5940601277,0.7090722461
3.0950,-0.3701161913,0.08999582113,-0.5933398559,0.7091280367
3.1000,-0.370840334,0.09129274952,-0.5926292463,0.709178156
3.1050,-0.3715526966,0.0925844301,-0.5919303084,0.7092215641
3.1100,-0.3722530439,0.09387224654,-0.5912423529,0.7092588757
3.1150,-0.3729395535,0.0951591907,-0.5905660708,0.709290162
3.1200,-0.373613602,0.09644525668,-0.5899012581,0.7093149474
3.1250,-0.3742762224,0.09772970585,-0.5892474303,0.7093332642
3.1300,-0.3749270754,0.09901074348,-0.5886032472,0.7093467264
3.1350,-0.3755698771,0.1002870974,-0.5879668464,0.7093551671
3.1400,-0.3762030944,0.101559226,-0.5873373575,0.7093601228
3.1450,-0.3768273271,0.1028255408,-0.5867158734,0.7093606682
3.1500,-0.3774423717,0.1040883465,-0.5861015549,0.7093573426
3.1550,-0.3780475419,0.1053461182,-0.585493871,0.7093512377
3.1600,-0.3786417712,0.106601214,-0.5848931146,0.7093423961
3.1650,-0.379226135,0.1078502682,-0.5842991221,0.7093309483
3.1700,-0.3798038984,0.1090922874,-0.5837090866,0.7093176819
3.1750,-0.3803742258,0.1103266812,-0.5831225213,0.7093035999
3.1800,-0.3809387819,0.1115527011,-0.5825393154,0.7092880835
3.1850,-0.3814974774,0.112772168,-0.581958929,0.7092713993
3.1900,-0.3820506978,0.1139855824,-0.5813810696,0.7092535536
3.1950,-0.3825980145,0.1151913918,-0.5808064321,0.7092345106
3.2000,-0.3831418037,0.1163906662,-0.5802339666,0.7092137302
3.2050,-0.3836822501,0.1175838086,-0.5796634219,0.7091912973
3.2100,-0.3842191951,0.1187714376,-0.5790939701,0.7091679134
3.2150,-0.3847530505,0.119951171,-0.5785266801,0.7091429243
3.2200,-0.3852849528,0.12112396,-0.5779605205,0.709116442
3.2250,-0.3858156012,0.1222864104,-0.5773948577,0.7090892285
3.2300,-0.3863474216,0.1234401717,-0.5768277338,0.7090613226
3.2350,-0.3868799976,0.1245853031,-0.5762598858,0.7090323785
3.2400,-0.3874118744,0.1257229962,-0.5756916344,0.7090027573
3.2450,-0.3879417493,0.126853982,-0.57512467,0.7089717064
3.2500,-0.3884716131,0.1279764305,-0.5745577848,0.7089394833
3.2550,-0.3889996371,0.1290910617,-0.5739910841,0.7089069159
3.2600,-0.3895275301,0.1301973049,-0.5734242797,0.7088734447
3.2650,-0.3900548003,0.1312938724,-0.5728565941,0.7088402461
3.2700,-0.3905828473,0.1323817831,-0.5722867543,0.7088074307
3.2750,-0.3911137125,0.1334593847,-0.5717138097,0.7087749829
3.2800,-0.3916461941,0.1345256159,-0.571138027,0.7087435866
3.2850,-0.3921808118,0.1355797745,-0.5705584606,0.7087138906
3.2900,-0.3927179261,0.1366210247,-0.5699749584,0.7086860186
3.2950,-0.3932575328,0.1376507779,-0.5693875096,0.7086597492
3.3000,-0.3937976325,0.1386678328,-0.5687969173,0.7086358188
3.3050,-0.3943394986,0.1396732379,-0.5682039206,0.7086127653
3.3100,-0.3948820638,0.1406687906,-0.5676072491,0.7085918838
3.3150,-0.3954248206,0.1416526374,-0.5670060173,0.7085745677
3.3200,-0.3959663895,0.1426271449,-0.5664022493,0.7085595302
3.3250,-0.3965061173,0.1435935605,-0.5657954663,0.7085473016
3.3300,-0.3970417761,0.1445543635,-0.5651875084,0.7085371863
3.3350,-0.3975731038,0.1455075205,-0.564578974,0.7085293012
3.3400,-0.3981015748,0.1464526967,-0.5639694012,0.7085232941
3.3450,-0.3986256561,0.1473925513,-0.5633591813,0.7085191987
3.3500,-0.3991434483,0.1483278774,-0.5627493798,0.7085171021
3.3550,-0.3996561291,0.1492588904,-0.5621390851,0.7085170507
3.3600,-0.4001612005,0.1501854083,-0.5615301026,0.7085190899
3.3650,-0.4006581535,0.1511108788,-0.5609213426,0.708523672
3.3700,-0.4011482922,0.1520339442,-0.5603147583,0.7085288273
3.3750,-0.4016280726,0.1529562527,-0.5597121744,0.7085347965
3.3800,-0.4020981256,0.1538776735,-0.5591129809,0.7085417656
3.3850,-0.4025558511,0.1547991953,-0.5585186108,0.7085498975
3.3900,-0.4030026416,0.1557212317,-0.5579294528,0.708558039
3.3950,-0.4034373442,0.1566440924,-0.5573467312,0.7085658465
3.4000,-0.4038597076,0.1575679097,-0.5567705274,0.708573405
3.4050,-0.4042696978,0.158491481,-0.5561999331,0.7085817499
3.4100,-0.4046693525,0.1594134654,-0.5556346914,0.7085902567
3.4150,-0.4050585368,0.1603313979,-0.5550748695,0.7085995441
3.4200,-0.405438293,0.1612435543,-0.5545209076,0.7086091093
3.4250,-0.4058088537,0.1621492643,-0.5539726748,0.7086191261
3.4300,-0.406172172,0.1630483891,-0.5534294086,0.7086291549
3.4350,-0.4065277464,0.163939405,-0.5528922867,0.7086389646
3.4400,-0.4068764338,0.164821189,-0.5523617561,0.7086480323
3.4450,-0.4072203825,0.1656929218,-0.5518367731,0.7086561872
3.4500,-0.4075608696,0.1665511075,-0.5513171906,0.7086636872
3.4550,-0.4078988111,0.167395831,-0.5508031471,0.7086699435
3.4600,-0.408235133,0.16822623,-0.5502939522,0.7086752274
3.4650,-0.4085705429,0.1690414255,-0.5497897832,0.7086792661
3.4700,-0.4089068036,0.1698404361,-0.5492903898,0.7086815363
3.4750,-0.4092428647,0.1706247164,-0.5487960961,0.708682107
3.4800,-0.4095790219,0.1713930434,-0.5483076616,0.7086805752
3.4850,-0.4099152209,0.172146336,-0.5478245933,0.7086771942
3.4900,-0.4102512799,0.1728850191,-0.5473491397,0.7086702878
3.4950,-0.4105874819,0.1736110078,-0.546880891,0.7086596
3.5000,-0.4109233032,0.1743242031,-0.5464200714,0.7086453391
3.5050,-0.4112592561,0.1750258412,-0.5459670136,0.7086266995
3.5100,-0.4115964609,0.1757159256,-0.5455208919,0.7086037139
3.5150,-0.4119337852,0.1763972922,-0.545082995,0.7085753881
3.5200,-0.4122717496,0.1770692923,-0.544653034,0.7085418426
3.5250,-0.4126106205,0.1777343646,-0.5442302322,0.708502947
3.5300,-0.4129497074,0.1783919304,-0.5438154201,0.7084586418
3.5350,-0.4132901453,0.1790427128,-0.5434084156,0.7084082557
3.5400,-0.4136333342,0.1796862229,-0.5430074867,0.7083524515
3.5450,-0.413980328,0.1803237527,-0.5426103154,0.7082920851
3.5500,-0.4143317066,0.1809554128,-0.5422164525,0.7082271487
3.5550,-0.4146874689,0.1815819295,-0.5418261583,0.7081572708
3.5600,-0.4150488359,0.1822042362,-0.5414380908,0.7080825333
3.5650,-0.4154146394,0.182822908,-0.5410531169,0.7080028152
3.5700,-0.4157851468,0.1834389855,-0.540669618,0.7079189321
3.5750,-0.4161592727,0.1840537663,-0.5402878438,0.7078309945
3.5800,-0.4165381742,0.1846676958,-0.5399069077,0.7077388802
3.5850,-0.4169231835,0.185283061,-0.5395257457,0.7076420113
3.5900,-0.417313404,0.1858990972,-0.5391432521,0.7075419438
3.5950,-0.4177119863,0.1865149243,-0.5387583673,0.7074378426
3.6000,-0.4181188468,0.187130057,-0.5383682068,0.7073320618
3.6050,-0.4185322209,0.187745565,-0.5379734283,0.7072248393
3.6100,-0.4189514751,0.1883623333,-0.5375742743,0.7071161096
3.6150,-0.4193758885,0.1889833079,-0.5371715599,0.7070048717
3.6200,-0.4198059069,0.1896075526,-0.5367638863,0.7068921466
3.6250,-0.4202394402,0.1902347763,-0.536352419,0.7067783425
3.6300,-0.4206777308,0.1908667399,-0.5359350666,0.7066638089
3.6350,-0.4211192176,0.1915035622,-0.5355132374,0.7065483442
3.6400,-0.4215619764,0.1921460032,-0.5350852997,0.7064340985
3.6450,-0.4220064218,0.1927926211,-0.5346533735,0.7063195844
3.6500,-0.4224530036,0.1934429838,-0.5342174175,0.7062046606
3.6550,-0.4228994544,0.1940995762,-0.53377914,0.7060886882
3.6600,-0.423346947,0.1947605381,-0.5333374667,0.7059722671
3.6650,-0.4237956502,0.195424987,-0.5328939995,0.7058543098
3.6700,-0.4242430984,0.1960930609,-0.5324485559,0.7057363815
3.6750,-0.424692371,0.1967635627,-0.532001305,0.7056168237
3.6800,-0.4251417944,0.1974348936,-0.5315530042,0.7054965068
3.6850,-0.425591858,0.1981084175,-0.5311044931,0.7053741155
3.6900,-0.4260406889,0.1987823356,-0.530657481,0.7052499928
3.6950,-0.4264905526,0.1994561673,-0.5302106547,0.7051238952
3.7000,-0.4269389359,0.2001296197,-0.5297661365,0.7049958304
3.7050,-0.4273856933,0.2008024669,-0.5293239188,0.7048659641
3.7100,-0.4278293057,0.2014749449,-0.5288858651,0.7047337607
3.7150,-0.4282694658,0.2021459468,-0.5284523465,0.7045994595
3.7200,-0.4287062297,0.2028150299,-0.5280211959,0.7044647962
3.7250,-0.4291395623,0.2034797732,-0.5275952562,0.7043283777
3.7300,-0.4295693011,0.204139945,-0.5271735669,0.7041911166
3.7350,-0.429995362,0.2047948348,-0.5267570844,0.7040525821
3.7400,-0.4304158091,0.2054436342,-0.5263470497,0.7039132956
3.7450,-0.4308301506,0.206086795,-0.5259435315,0.7037734123
3.7500,-0.4312369198,0.2067246,-0.5255459678,0.703634205
3.7550,-0.4316351296,0.2073558511,-0.5251565849,0.7034950087
3.7600,-0.4320244868,0.2079800456,-0.5247744524,0.703356892
3.7650,-0.4324037523,0.2085977124,-0.5244012036,0.703219288
3.7700,-0.432770574,0.2092099433,-0.5240371513,0.7030831345
3.7750,-0.4331260583,0.2098148516,-0.5236829359,0.7029478845
3.7800,-0.4334702392,0.2104140816,-0.5233377741,0.7028136597
3.7850,-0.4338012361,0.2110076132,-0.5230034348,0.7026803554
3.7900,-0.4341203667,0.2115950993,-0.522677867,0.7025488371
3.7950,-0.4344275565,0.2121751164,-0.5223615956,0.7024192349
3.8000,-0.4347235043,0.2127483741,-0.5220543352,0.7022911613
3.8050,-0.4350078232,0.2133137133,-0.5217558744,0.7021654086
3.8100,-0.4352815755,0.2138710452,-0.5214679052,0.7020401342
3.8150,-0.4355448605,0.2144189222,-0.5211880448,0.7019175324
3.8200,-0.435798198,0.2149587307,-0.520915638,0.7017973873
3.8250,-0.4360424349,0.2154894815,-0.5206507624,0.7016794582
3.8300,-0.4362774613,0.2160123953,-0.520393784,0.7015632056
3.8350,-0.436501803,0.2165271842,-0.5201440559,0.7014501519
3.8400,-0.4367176271,0.2170335388,-0.5199005919,0.7013398119
3.8450,-0.4369252745,0.2175306012,-0.5196637891,0.701231979
3.8500,-0.4371255705,0.2180192809,-0.5194319142,0.7011271748
3.8550,-0.4373179574,0.2184991974,-0.5192046558,0.7010261267
3.8600,-0.4375008979,0.2189715468,-0.5189817862,0.7009296196
3.8650,-0.4376762064,0.2194346674,-0.5187635191,0.7008369114
3.8700,-0.437844702,0.2198888803,-0.5185491574,0.7007479352
3.8750,-0.4380062176,0.2203332306,-0.518338122,0.7006635513
3.8800,-0.4381609398,0.2207680514,-0.5181302868,0.7005836597
3.8850,-0.438308946,0.2211923028,-0.5179255419,0.7005086481
3.8900,-0.4384505047,0.2216071264,-0.5177259153,0.7004365161
3.8950,-0.4385837743,0.222013276,-0.5175313013,0.7003682819
3.9000,-0.4387074476,0.2224130629,-0.5173436306,0.7003026294
3.9050,-0.4388239263,0.2228059583,-0.5171614627,0.7002393078
3.9100,-0.4389340763,0.2231893846,-0.5169851126,0.7001783834
3.9150,-0.4390380004,0.2235643701,-0.5168146834,0.700119411
3.9200,-0.4391353463,0.2239302923,-0.5166518055,0.7000616284
3.9250,-0.4392274246,0.2242876034,-0.5164948217,0.700005314
3.9300,-0.439311454,0.224636871,-0.5163476518,0.6999491589
3.9350,-0.4393880788,0.224978451,-0.5162089866,0.6998936312
3.9400,-0.4394573344,0.2253124632,-0.5160811392,0.6998369831
3.9450,-0.4395197898,0.2256391027,-0.5159627841,0.6997797905
3.9500,-0.4395755453,0.2259560565,-0.5158544748,0.6997223459
3.9550,-0.4396260212,0.2262623565,-0.5157553643,0.6996647138
3.9600,-0.4396696638,0.2265592792,-0.5156665841,0.6996066422
3.9650,-0.4397057618,0.226845522,-0.51558739,0.6995495661
3.9700,-0.4397340557,0.2271216008,-0.5155202822,0.6994916564
3.9750,-0.4397527318,0.2273881729,-0.5154655734,0.6994336254
3.9800,-0.4397618055,0.2276447265,-0.5154239935,0.6993751066
3.9850,-0.4397621854,0.2278906729,-0.5153952874,0.6993159223
3.9900,-0.4397530287,0.2281256627,-0.5153800656,0.699256279
3.9950,-0.4397342142,0.228348102,-0.5153777895,0.6991971819
4.0000,-0.4397060786,0.2285572605,-0.5153893062,0.6991380452
4.0050,-0.439670005,0.2287530503,-0.5154150506,0.699077717
4.0100,-0.4396255789,0.2289338634,-0.5154548728,0.6990171033
4.0150,-0.439572283,0.2291007897,-0.5155092952,0.6989557945
4.0200,-0.4395105563,0.2292534128,-0.5155788032,0.6988932976
4.0250,-0.4394404111,0.229392533,-0.5156619225,0.6988304319
4.0300,-0.4393621897,0.2295163053,-0.5157597219,0.6987668003
4.0350,-0.4392766415,0.2296240467,-0.515871198,0.6987028957
4.0400,-0.4391846653,0.2297149856,-0.5159953823,0.6986391204
4.0450,-0.4390857065,0.2297910538,-0.5161333452,0.6985743939
4.0500,-0.4389808964,0.2298499689,-0.5162851059,0.6985087357
4.0550,-0.4388701698,0.2298942838,-0.5164493214,0.6984423317
4.0600,-0.4387540751,0.2299233283,-0.5166262791,0.6983748366
4.0650,-0.4386320152,0.2299392562,-0.5168145493,0.6983069635
4.0700,-0.4385043878,0.2299408256,-0.5170147125,0.6982384304
4.0750,-0.4383714316,0.2299289964,-0.5172267056,0.6981688045
4.0800,-0.4382322809,0.2299037578,-0.5174502127,0.6980988522
4.0850,-0.4380892816,0.2298633402,-0.5176836643,0.6980288317
4.0900,-0.4379425475,0.2298080027,-0.5179274155,0.6979583077
4.0950,-0.4377930366,0.2297396614,-0.5181800155,0.6978871088
4.1000,-0.4376403714,0.2296568248,-0.5184410643,0.6978162444
4.1050,-0.4374853387,0.2295606144,-0.5187095454,0.6977455913
4.1100,-0.4373260635,0.2294510126,-0.5189854096,0.6976763516
4.1150,-0.4371637978,0.2293292631,-0.5192685661,0.6976073818
4.1200,-0.4369977659,0.2291948575,-0.5195590165,0.6975393166
4.1250,-0.4368295624,0.2290474461,-0.5198559294,0.697471873
4.1300,-0.4366598813,0.2288871489,-0.5201573871,0.6974059892
4.1350,-0.4364907403,0.2287132845,-0.5204629329,0.6973409514
4.1400,-0.4363197056,0.2285261996,-0.5207744989,0.6972767112
4.1450,-0.4361488357,0.2283253639,-0.5210909567,0.6972129776
4.1500,-0.4359772077,0.2281096788,-0.5214133487,0.6971498896
4.1550,-0.4358067142,0.227878632,-0.521740752,0.6970870998
4.1600,-0.4356386303,0.2276302966,-0.5220727611,0.6970247226
4.1650,-0.4354727203,0.2273674798,-0.522408398,0.6969626996
4.1700,-0.4353072853,0.2270912829,-0.5227490823,0.6969006483
4.1750,-0.4351428247,0.2267994053,-0.5230969082,0.6968374104
4.1800,-0.4349798707,0.2264905301,-0.5234503727,0.6967741809
4.1850,-0.4348176353,0.2261652101,-0.5238098771,0.6967109404
4.1900,-0.4346564776,0.2258233623,-0.5241746911,0.6966480092
4.1950,-0.4344937996,0.2254671848,-0.524546019,0.6965853577
4.2000,-0.4343319491,0.2250946782,-0.5249232887,0.6965225658
4.2050,-0.4341701848,0.2247053131,-0.5253058361,0.6964607322
4.2100,-0.4340080958,0.2243001082,-0.5256946533,0.696398999
4.2150,-0.4338443843,0.2238786842,-0.5260892497,0.6963386291
4.2200,-0.433679664,0.2234427082,-0.5264877497,0.6962800835
4.2250,-0.4335120721,0.2229917882,-0.5268931269,0.6962223629
4.2300,-0.4333423111,0.2225266346,-0.5273025267,0.6961669222
4.2350,-0.4331715205,0.2220474541,-0.5277169532,0.6961121886
4.2400,-0.4329979322,0.2215546317,-0.5281351083,0.6960600859
4.2450,-0.4328221362,0.2210474963,-0.5285573826,0.6960101264
4.2500,-0.4326423354,0.2205295335,-0.5289839095,0.6959621814
4.2550,-0.4324586266,0.2199991093,-0.5294145219,0.6959167998
4.2600,-0.432271339,0.2194566713,-0.5298487933,0.6958739219
4.2650,-0.4320801531,0.218903877,-0.5302874739,0.6958326156
4.2700,-0.4318866497,0.2183400066,-0.5307285712,0.6957936095
4.2750,-0.4316891806,0.2177646632,-0.5311713711,0.6957585626
4.2800,-0.4314886716,0.2171798887,-0.5316164149,0.695725815
4.2850,-0.4312839051,0.2165841912,-0.5320637925,0.695696487
4.2900,-0.4310760309,0.2159797152,-0.5325132043,0.6956693938
4.2950,-0.4308643483,0.2153666371,-0.5329656019,0.6956441563
4.3000,-0.4306490114,0.2147453991,-0.5334200667,0.6956212151
4.3050,-0.4304295609,0.2141161365,-0.533876955,0.6956005104
4.3100,-0.4302059933,0.2134805713,-0.5343360152,0.6955816788
4.3150,-0.4299793795,0.2128370667,-0.5347973365,0.695564465
4.3200,-0.4297486807,0.2121877641,-0.5352618465,0.6955481147
4.3250,-0.4295134768,0.2115317035,-0.5357287286,0.6955337814
4.3300,-0.4292748068,0.210867896,-0.5361982449,0.6955208932
4.3350,-0.4290309552,0.2101990615,-0.5366695322,0.6955103215
4.3400,-0.4287823846,0.2095242448,-0.5371430877,0.6955016613
4.3450,-0.4285305219,0.208842143,-0.5376171657,0.6954957471
4.3500,-0.4282737765,0.208154421,-0.5380923393,0.6954925908
4.3550,-0.4280137973,0.2074599102,-0.538568634,0.695491482
4.3600,-0.4277493135,0.2067604542,-0.5390453453,0.695493174
4.3650,-0.42748248,0.2060549638,-0.5395221419,0.6954969012
4.3700,-0.4272123863,0.2053446865,-0.5399997861,0.6955022414
4.3750,-0.4269392671,0.2046283311,-0.5404774185,0.6955100779
4.3800,-0.4266635905,0.2039067479,-0.5409562841,0.6955188836
4.3850,-0.4263863202,0.2031791309,-0.5414351067,0.6955292747
4.3900,-0.4261065311,0.2024461455,-0.5419143415,0.6955412488
4.3950,-0.4258230428,0.2017068672,-0.5423952973,0.6955547552
4.4000,-0.4255369043,0.2009622582,-0.5428784323,0.6955684881
4.4050,-0.4252486395,0.200210707,-0.5433637975,0.6955825264
4.4100,-0.4249587697,0.19945186,-0.5438516046,0.6955964575
4.4150,-0.4246678953,0.1986863185,-0.544341555,0.6956099461
4.4200,-0.4243751089,0.1979135054,-0.5448360009,0.6956218394
4.4250,-0.4240814247,0.1971342506,-0.5453355392,0.69563078
4.4300,-0.423785392,0.1963478555,-0.5458404645,0.6956375842
4.4350,-0.4234881089,0.1955530614,-0.5463509118,0.6956417922
4.4400,-0.4231897577,0.194749684,-0.5468664621,0.6956436316
4.4450,-0.4228893287,0.1939382177,-0.5473877531,0.6956430343
4.4500,-0.4225874389,0.1931181554,-0.5479149015,0.6956396302
4.4550,-0.4222823775,0.1922912385,-0.5484496723,0.6956325397
4.4600,-0.421974263,0.1914572352,-0.5489916457,0.6956220392
4.4650,-0.4216633617,0.1906134465,-0.5495418476,0.6956078501
4.4700,-0.4213504798,0.1897589077,-0.5500991803,0.6955905563
4.4750,-0.4210362898,0.1888941128,-0.550663127,0.6955699658
4.4800,-0.4207196067,0.1880193999,-0.5512349768,0.6955456262
4.4850,-0.4204019088,0.1871340137,-0.5518154417,0.6955162215
4.4900,-0.4200824598,0.1862377588,-0.5524031143,0.695483302
4.4950,-0.4197637574,0.1853295647,-0.5529963632,0.6954468799
4.5000,-0.4194446198,0.1844117757,-0.5535973253,0.6954052842
4.5050,-0.4191239583,0.1834835168,-0.5542068274,0.6953586838
4.5100,-0.4188004548,0.1825463004,-0.5548249029,0.6953073812
4.5150,-0.4184763775,0.1816002798,-0.5554511265,0.695250247
4.5200,-0.4181504991,0.1806444998,-0.5560869318,0.6951870605
4.5250,-0.4178233717,0.1796800458,-0.5567300936,0.6951189209
4.5300,-0.4174960871,0.1787048347,-0.5573798036,0.6950462962
4.5350,-0.4171670208,0.1777200197,-0.5580361726,0.6949697126
4.5400,-0.4168383495,0.1767255731,-0.5586982288,0.6948885892
4.5450,-0.416507904,0.1757236777,-0.5593660422,0.6948035592
4.5500,-0.4161774954,0.1747128514,-0.5600394118,0.6947140197
4.5550,-0.4158439806,0.173695864,-0.5607175849,0.6946217104
4.5600,-0.4155079292,0.1726730068,-0.5614009634,0.6945258467
4.5650,-0.4151677452,0.171644258,-0.5620901419,0.6944268604
4.5700,-0.4148239086,0.1706118125,-0.5627837377,0.6943249951
4.5750,-0.4144774176,0.1695744227,-0.5634819213,0.6942197849
4.5800,-0.4141277319,0.1685325948,-0.5641826917,0.6941130142
4.5850,-0.413775037,0.1674886205,-0.5648867337,0.6940034285
4.5900,-0.413418529,0.1664410833,-0.5655936788,0.6938921214
4.5950,-0.4130563567,0.165390558,-0.5663043545,0.6937793508
4.6000,-0.4126896489,0.1643388916,-0.5670180044,0.6936645912
4.6050,-0.412318263,0.1632875286,-0.5677355647,0.6935467984
4.6100,-0.4119405858,0.1622350657,-0.568456911,0.6934273412
4.6150,-0.4115580714,0.1611822398,-0.5691823415,0.6933049124
4.6200,-0.4111717765,0.1601274434,-0.5699108926,0.6931800247
4.6250,-0.4107799318,0.1590724931,-0.5706439204,0.6930521666
4.6300,-0.4103816015,0.1580195052,-0.5713810011,0.6929217335
4.6350,-0.4099785285,0.1569664327,-0.5721221139,0.692788158
4.6400,-0.4095701707,0.1559145438,-0.572866821,0.6926518142
4.6450,-0.4091562861,0.154864006,-0.5736154413,0.692512526
4.6500,-0.4087375864,0.153813833,-0.5743687141,0.692369461
4.6550,-0.4083123296,0.1527642375,-0.5751270737,0.6922232142
4.6600,-0.4078803763,0.1517157975,-0.5758909715,0.6920733374
4.6650,-0.4074407179,0.1506684255,-0.5766604719,0.6919203618
4.6700,-0.4069933579,0.1496217074,-0.5774357088,0.6917642326
4.6750,-0.4065377939,0.1485753805,-0.5782169909,0.6916050101
4.6800,-0.406073881,0.1475292262,-0.5790033726,0.6914435806
4.6850,-0.4056017983,0.1464822162,-0.5797968714,0.6912783299
4.6900,-0.4051220989,0.1454349381,-0.5805958703,0.6911101208
4.6950,-0.4046358121,0.1443845967,-0.581400209,0.6909390312
4.7000,-0.4041425514,0.1433322583,-0.5822103641,0.6907646154
4.7050,-0.4036419965,0.142277425,-0.5830262605,0.6905871795
4.7100,-0.4031346509,0.141219588,-0.5838483079,0.6904061374
4.7150,-0.4026188991,0.1401583947,-0.5846775532,0.6902215625
4.7200,-0.4020972435,0.1390921246,-0.5855119174,0.6900340443
4.7250,-0.4015671499,0.1380207592,-0.5863516366,0.6898448031
4.7300,-0.401029509,0.1369435648,-0.587197482,0.689652746
4.7350,-0.4004833139,0.1358610936,-0.5880496463,0.6894581148
4.7400,-0.3999299983,0.1347724991,-0.5889085951,0.6892597744
4.7450,-0.3993691107,0.1336757995,-0.5897731741,0.6890592841
4.7500,-0.3988024549,0.1325720268,-0.590642338,0.6888562173
4.7550,-0.3982296606,0.1314572239,-0.591516148,0.688651423
4.7600,-0.3976510523,0.1303328534,-0.5923954148,0.6884436509
4.7650,-0.3970666772,0.1291990964,-0.5932790969,0.6882336526
4.7700,-0.3964764922,0.1280534544,-0.594167685,0.688021414
4.7750,-0.3958788746,0.1268989412,-0.5950614421,0.68780699
4.7800,-0.395275194,0.1257341178,-0.5959591906,0.6875907909
4.7850,-0.3946625446,0.1245602262,-0.5968613017,0.687373852
4.7900,-0.3940409833,0.1233780734,-0.5977691406,0.6871547198
4.7950,-0.3934098502,0.1221855105,-0.5986834304,0.6869334327
4.8000,-0.3927687067,0.1209827853,-0.5996029958,0.6867111155
4.8050,-0.3921184819,0.1197697423,-0.6005276345,0.686487338
4.8100,-0.3914600466,0.118545216,-0.6014551909,0.6862635915
4.8150,-0.3907932806,0.1173073449,-0.6023860282,0.686039847
4.8200,-0.390119121,0.1160545635,-0.6033186661,0.6858170287
4.8250,-0.3894394691,0.114786147,-0.6042525915,0.6855945201
4.8300,-0.3887551222,0.1135021251,-0.6051882464,0.6853713658
4.8350,-0.3880651342,0.1122039245,-0.6061248784,0.6851484239
4.8400,-0.3873689827,0.1108908844,-0.6070639027,0.6849247411
4.8450,-0.3866681267,0.1095622052,-0.608004722,0.6847000373
4.8500,-0.3859620959,0.1082175572,-0.608945745,0.6844759313
4.8550,-0.3852534966,0.1068570226,-0.6098883845,0.6842495732
4.8600,-0.3845411078,0.1054795185,-0.610831821,0.6840224368
4.8650,-0.3838255336,0.1040868277,-0.6117753489,0.6837944241
4.8700,-0.3831050716,0.1026792892,-0.6127210158,0.6835644992
4.8750,-0.3823779915,0.1012589349,-0.6136693823,0.6833327074
4.8800,-0.3816443856,0.09982612984,-0.6146216047,0.6830977893
4.8850,-0.380902987,0.09837985,-0.6155771502,0.6828609608
4.8900,-0.3801563455,0.09691974813,-0.6165351149,0.6826215405
4.8950,-0.3794069683,0.09544560789,-0.6174946411,0.6823788219
4.9000,-0.3786553039,0.09395464439,-0.6184555862,0.6821329588
4.9050,-0.3779013801,0.09244585938,-0.6194174934,0.6818843588
4.9100,-0.37714767,0.09092044149,-0.6203791143,0.6816324984
4.9150,-0.3763919689,0.08937975211,-0.6213411573,0.6813776574
4.9200,-0.3756334667,0.08782475701,-0.6223048407,0.6811189294
4.9250,-0.3748728988,0.08625457226,-0.6232703302,0.6808557513
4.9300,-0.3741095518,0.08467040502,-0.6242380409,0.6805878592
4.9350,-0.3733409929,0.08307363714,-0.6252091847,0.6803151837
4.9400,-0.3725678928,0.08146715681,-0.6261833614,0.6800372531
4.9450,-0.3717879795,0.07985093234,-0.627162424,0.6797535001
4.9500,-0.3710021307,0.07822751422,-0.6281447868,0.6794644964
4.9550,-0.3702112808,0.07659711027,-0.6291294459,0.679170546
4.9600,-0.3694156546,0.07495800655,-0.6301174604,0.6788706486
4.9650,-0.368615251,0.07331189697,-0.6311072984,0.678565944
4.9700,-0.3678100361,0.07165925566,-0.6320989057,0.6782563688
4.9750,-0.3670009223,0.07000256148,-0.6330913192,0.6779419931
4.9800,-0.366187054,0.0683422229,-0.6340853432,0.6776224315
4.9850,-0.3653672489,0.06668231412,-0.635080491,0.6772983186
4.9900,-0.3645410237,0.06502007505,-0.6360768889,0.6769700313
4.9950,-0.3637069029,0.06335803104,-0.6370747754,0.6766378494
5.0000,-0.3628647688,0.06169665012,-0.6380726721,0.6763031481
5.0050,-0.3620139289,0.06003647209,-0.6390718875,0.6759649842
5.0100,-0.3611542324,0.0583787561,-0.6400703588,0.675625249
5.0150,-0.360284977,0.05672427346,-0.6410691391,0.6752832377
5.0200,-0.3594048606,0.05507181184,-0.6420672519,0.6749406535
5.0250,-0.3585170014,0.05342004475,-0.6430635644,0.6745969987
5.0300,-0.3576220896,0.05176799382,-0.6440570043,0.6742529875
5.0350,-0.3567208092,0.05011455867,-0.6450465835,0.6739092672
5.0400,-0.3558149786,0.04845800665,-0.6460304378,0.6735667718
5.0450,-0.3549055157,0.04679825977,-0.6470086766,0.6732249031
5.0500,-0.353990806,0.04513409757,-0.6479818157,0.6728840829
5.0550,-0.3530728691,0.0434662131,-0.648948904,0.6725440933
5.0600,-0.3521498961,0.04179295343,-0.6499099275,0.6722059847
5.0650,-0.3512223774,0.04011379674,-0.6508647716,0.6718696109
5.0700,-0.3502901142,0.03843034867,-0.6518148589,0.6715335687
5.0750,-0.3493521759,0.03674067041,-0.6527585578,0.6712000041
5.0800,-0.3484066317,0.03504644405,-0.653698306,0.6708674165
5.0850,-0.3474557946,0.0333467045,-0.6546333909,0.6705353023
5.0900,-0.3464985238,0.03163976247,-0.6555639833,0.6702041198
5.0950,-0.3455347117,0.02992863073,-0.6564909557,0.6698728724
5.1000,-0.3445642957,0.02821116932,-0.657414484,0.6695414641
5.1050,-0.3435869507,0.02648780442,-0.6583350407,0.669209517
5.1100,-0.3426048858,0.02475771803,-0.6592527633,0.6688757297
5.1150,-0.3416167171,0.02302325127,-0.6601687669,0.6685395633
5.1200,-0.3406221815,0.02128524971,-0.6610829689,0.6682011493
5.1250,-0.339619817,0.01954290113,-0.6619967588,0.6678598253
5.1300,-0.3386090643,0.01779693798,-0.6629108148,0.6675151101
5.1350,-0.3375929059,0.01604437091,-0.6638242663,0.6671663597
5.1400,-0.3365701797,0.01428581027,-0.6647376846,0.6668134975
5.1450,-0.335539878,0.01252303223,-0.6656514879,0.6664564957
5.1500,-0.3345021518,0.01075568113,-0.6665667988,0.6660940839
5.1550,-0.3334572332,0.00898227183,-0.6674837392,0.6657259574
5.1600,-0.3324049762,0.0072020818,-0.6684024097,0.6653519974
5.1650,-0.3313472498,0.005413723283,-0.6693228883,0.6649710993
5.1700,-0.3302840505,0.003617748576,-0.6702453486,0.6645829749
5.1750,-0.3292176185,0.001812427747,-0.6711679918,0.6641882275
5.1800,-0.3281465478,-2.279753149e-6,-0.6720915664,0.6637866898
5.1850,-0.3270724654,-0.001826195735,-0.673015175,0.6633783548
5.1900,-0.3259935725,-0.003657528357,-0.6739391862,0.6629636389
5.1950,-0.3249081688,-0.00549662909,-0.6748642328,0.6625426297
5.2000,-0.3238152821,-0.007341421716,-0.675791283,0.6621147245
5.2050,-0.3227134489,-0.009190963483,-0.6767204339,0.6616804443
5.2100,-0.3216023927,-0.01104557399,-0.6776527417,0.6612387299
5.2150,-0.3204803723,-0.01290430217,-0.6785873963,0.6607911588
5.2200,-0.3193487945,-0.01476698843,-0.6795239019,0.6603374518
5.2250,-0.3182070757,-0.0166314415,-0.6804629053,0.6598771755
5.2300,-0.3170547251,-0.01849719887,-0.68140409,0.6594108136
5.2350,-0.3158944945,-0.0203666132,-0.6823461859,0.6589382005
5.2400,-0.3147262961,-0.02223930676,-0.6832886389,0.6584598756
5.2450,-0.3135509657,-0.02411665206,-0.6842288052,0.6579780552
5.2500,-0.3123702238,-0.02599886811,-0.6851681256,0.657490336
5.2550,-0.3111831266,-0.02788593691,-0.6861060438,0.6569976658
5.2600,-0.3099924125,-0.02977675947,-0.6870412917,0.6565000474
5.2650,-0.3087965067,-0.03167214686,-0.6879755249,0.6559963946
5.2700,-0.3075952253,-0.03357218154,-0.6889075792,0.6554879353
5.2750,-0.3063882145,-0.03547748263,-0.689838604,0.6549735191
5.2800,-0.30517745,-0.03738675207,-0.6907662903,0.6544546485
5.2850,-0.3039639719,-0.0393029205,-0.691690676,0.653930572
5.2900,-0.3027480846,-0.04122391296,-0.692611404,0.6534015835
5.2950,-0.30152923,-0.04314956674,-0.6935278017,0.6528686136
5.3000,-0.3003086145,-0.04508034766,-0.6944399527,0.6523309363
5.3050,-0.2990846293,-0.04701569297,-0.6953482429,0.6517888694
5.3100,-0.2978557057,-0.04895715743,-0.6962533237,0.6512422626
5.3150,-0.2966244516,-0.05090684707,-0.6971540254,0.6506909347
5.3200,-0.2953903749,-0.05286181989,-0.6980513705,0.6501341697
5.3250,-0.2941511926,-0.05482247457,-0.698944951,0.6495733428
5.3300,-0.2929072368,-0.05679068166,-0.6998353563,0.6490074292
5.3350,-0.2916583286,-0.05876539261,-0.7007232258,0.648435817
5.3400,-0.2904041801,-0.06074760808,-0.7016080357,0.6478590159
5.3450,-0.2891435254,-0.06273701936,-0.7024911897,0.6472759971
5.3500,-0.2878761634,-0.06473316096,-0.7033724909,0.6466869965
5.3550,-0.2866000523,-0.06673553821,-0.7042541163,0.6460904871
5.3600,-0.2853171334,-0.06874424635,-0.7051350457,0.6454865834
5.3650,-0.2840249936,-0.0707591337,-0.7060165205,0.6448748877
5.3700,-0.2827238104,-0.07278048173,-0.7068980657,0.6442556738
5.3750,-0.2814149167,-0.07480713901,-0.7077795503,0.6436284991
5.3800,-0.2800976259,-0.07684038305,-0.7086608262,0.6429935528
5.3850,-0.2787709088,-0.0788795443,-0.7095421069,0.6423509916
5.3900,-0.2774350197,-0.08092378832,-0.7104228696,0.6417012519
5.3950,-0.2760882925,-0.08297548509,-0.7113031865,0.6410445386
5.4000,-0.2747316232,-0.08503392733,-0.7121820836,0.6403814849
5.4050,-0.2733629795,-0.08709759127,-0.7130595861,0.6397129964
5.4100,-0.2719799828,-0.08916686637,-0.7139358873,0.6390396762
5.4150,-0.2705832485,-0.09124449345,-0.7148104109,0.6383613589
5.4200,-0.2691742441,-0.09332988836,-0.715682607,0.6376779472
5.4250,-0.2677531937,-0.09542275394,-0.7165504733,0.6369914792
5.4300,-0.2663200924,-0.09752400678,-0.7174139353,0.6363017538
5.4350,-0.2648724187,-0.09963358321,-0.7182732696,0.6356093621
5.4400,-0.2634109033,-0.1017509761,-0.7191275177,0.6349149929
5.4450,-0.2619358142,-0.1038770967,-0.7199768025,0.634218087
5.4500,-0.2604464425,-0.1060120637,-0.7208216514,0.6335181448
5.4550,-0.2589429037,-0.1081566579,-0.7216602248,0.6328169008
5.4600,-0.2574263597,-0.1103092289,-0.7224927996,0.6321136749
5.4650,-0.255899226,-0.1124719839,-0.7233186396,0.63140778
5.4700,-0.2543606768,-0.114646546,-0.724137277,0.6306996271
5.4750,-0.2528119095,-0.1168323728,-0.7249487764,0.6299885766
5.4800,-0.2512535401,-0.1190302607,-0.7257521556,0.6292751896
5.4850,-0.2496860384,-0.1212392909,-0.7265482764,0.6285582858
5.4900,-0.2481086777,-0.1234596269,-0.7273370835,0.6278380138
5.4950,-0.2465220953,-0.125688419,-0.7281193589,0.6271136077
5.5000,-0.2449247969,-0.1279232049,-0.7288951477,0.6263859523
5.5050,-0.2433168011,-0.1301645876,-0.7296642973,0.625654959
5.5100,-0.2416985099,-0.1324098695,-0.7304276391,0.6249199315
5.5150,-0.2400723469,-0.1346612636,-0.7311846691,0.6241799356
5.5200,-0.2384375259,-0.1369172135,-0.7319352827,0.623435614
5.5250,-0.2367947059,-0.1391795189,-0.7326791963,0.6226865376
5.5300,-0.2351454864,-0.1414485491,-0.7334164649,0.6219318269
5.5350,-0.2334904978,-0.1437224535,-0.7341464203,0.6211723411
5.5400,-0.2318290447,-0.1460028711,-0.7348701986,0.6204065174
5.5450,-0.2301632693,-0.1482881561,-0.7355883806,0.6196331387
5.5500,-0.2284922594,-0.1505782524,-0.7362990391,0.6188547505
5.5550,-0.2268177251,-0.1528741297,-0.7370026026,0.6180698858
5.5600,-0.2251373298,-0.1551727611,-0.737699245,0.6172798562
5.5650,-0.2234524672,-0.1574748572,-0.7383881403,0.6164848891
5.5700,-0.2217643956,-0.1597808161,-0.7390697273,0.6156838327
5.5750,-0.2200749137,-0.1620898794,-0.7397428322,0.6148775858
5.5800,-0.2183841459,-0.1644037017,-0.7404076092,0.6140654362
5.5850,-0.2166925278,-0.1667221458,-0.7410632304,0.6132482067
5.5900,-0.2150008185,-0.1690443853,-0.7417097772,0.61242571
5.5950,-0.21330924,-0.1713700017,-0.7423485299,0.6115963953
5.6000,-0.2116168018,-0.1736993967,-0.7429798438,0.6107600187
5.6050,-0.2099249688,-0.176030918,-0.7436018639,0.609918758
5.6100,-0.208234734,-0.1783629294,-0.744215511,0.6090716166
5.6150,-0.2065442944,-0.1806942892,-0.744820863,0.608219459
5.6200,-0.2048546548,-0.1830254431,-0.7454174131,0.6073624436
5.6250,-0.2031668413,-0.1853544438,-0.7460062318,0.6064995193
5.6300,-0.2014823892,-0.1876807058,-0.7465851293,0.6056330938
5.6350,-0.1998026295,-0.1900024226,-0.7471551879,0.6047620307
5.6400,-0.1981258772,-0.1923183195,-0.7477165914,0.6038871581
5.6450,-0.1964522095,-0.1946259737,-0.7482692866,0.6030093983
5.6500,-0.1947835225,-0.1969268992,-0.7488133994,0.6021276182
5.6550,-0.1931208889,-0.1992208525,-0.7493482504,0.6012425249
5.6600,-0.1914647048,-0.2015077485,-0.7498737496,0.6003542736
5.6650,-0.1898172315,-0.203787847,-0.7503899154,0.5994621815
5.6700,-0.1881769508,-0.2060603022,-0.7508969741,0.5985668896
5.6750,-0.1865453634,-0.2083274009,-0.7513954699,0.5976666038
5.6800,-0.1849249723,-0.2105876127,-0.7518847645,0.5967620237
5.6850,-0.1833136505,-0.2128412095,-0.7523646772,0.5958541076
5.6900,-0.1817115639,-0.2150882207,-0.7528350778,0.5949431154
5.6950,-0.1801186932,-0.2173274586,-0.7532964429,0.5940290408
5.7000,-0.1785339956,-0.2195596869,-0.7537490707,0.5931117051
5.7050,-0.1769600709,-0.221786024,-0.7541920283,0.5921912507
5.7100,-0.1753974513,-0.2240048734,-0.7546264181,0.5912668771
5.7150,-0.1738433858,-0.2262158592,-0.7550511356,0.5903411258
5.7200,-0.1722968176,-0.2284197177,-0.7554678926,0.5894119972
5.7250,-0.1707588108,-0.230615939,-0.755877755,0.5884781532
5.7300,-0.1692304031,-0.232806322,-0.7562787936,0.58754121
5.7350,-0.167711591,-0.2349900774,-0.7566715851,0.5866008848
5.7400,-0.166202575,-0.2371656221,-0.7570555806,0.5856586203
5.7450,-0.1647003164,-0.2393323185,-0.7574318687,0.584714299
5.7500,-0.1632030144,-0.2414875948,-0.757801588,0.5837681653
5.7550,-0.1617095806,-0.2436320467,-0.7581647181,0.5828204678
5.7600,-0.1602213512,-0.2457667768,-0.7585219458,0.5818696312
5.7650,-0.1587359395,-0.2478910708,-0.7588735989,0.5809163273
5.7700,-0.1572554356,-0.2500056933,-0.7592190727,0.5799605857
5.7750,-0.1557805152,-0.2521125236,-0.7595587464,0.5790010512
5.7800,-0.1543125853,-0.2542121444,-0.759892638,0.5780371876
5.7850,-0.1528501406,-0.2563055817,-0.7602213496,0.5770682654
5.7900,-0.1513941426,-0.2583918069,-0.7605456146,0.5760936173
5.7950,-0.1499431031,-0.2604713528,-0.7608654363,0.5751134914
5.8000,-0.1484943675,-0.2625456472,-0.7611812481,0.5741274367
5.8050,-0.147048834,-0.2646129291,-0.7614933571,0.5731356778
5.8100,-0.1456047674,-0.2666747343,-0.7618014552,0.5721384279
5.8150,-0.1441627663,-0.2687285312,-0.7621056087,0.5711366864
5.8200,-0.1427213045,-0.2707755804,-0.7624069237,0.5701288425
5.8250,-0.1412827744,-0.2728157053,-0.762703916,0.5691164248
5.8300,-0.1398453995,-0.2748484214,-0.7629984217,0.5680977187
5.8350,-0.1384085124,-0.2768745124,-0.7632904252,0.5670725834
5.8400,-0.1369735096,-0.2788949093,-0.7635793035,0.5660411068
5.8450,-0.1355398894,-0.280910499,-0.7638654388,0.5650024967
5.8500,-0.1341081131,-0.2829224555,-0.7641497713,0.5639548077
5.8550,-0.1326792201,-0.2849312566,-0.7644322217,0.5628976657
5.8600,-0.1312530202,-0.2869403689,-0.7647133482,0.5618285899
5.8650,-0.129832173,-0.2889493034,-0.7649919136,0.5607488555
5.8700,-0.1284182776,-0.2909578139,-0.7652681276,0.5596579217
5.8750,-0.1270118117,-0.2929652899,-0.765541396,0.5585568096
5.8800,-0.1256117249,-0.294970584,-0.7658124805,0.5574453282
5.8850,-0.124216309,-0.2969722055,-0.7660809876,0.5563252089
5.8900,-0.1228234385,-0.2989689192,-0.7663485369,0.5551953784
5.8950,-0.1214333358,-0.300959606,-0.766614146,0.5540577692
5.9000,-0.1200470918,-0.3029444435,-0.7668768794,0.5529133853
5.9050,-0.1186646676,-0.3049251443,-0.7671365791,0.5517615626
5.9100,-0.117286548,-0.3069019124,-0.767392959,0.5506025139
5.9150,-0.1159148888,-0.308876885,-0.7676451257,0.5494358648
5.9200,-0.1145496501,-0.3108501266,-0.7678933407,0.5482612459
5.9250,-0.1131920207,-0.3128241462,-0.7681364286,0.547078648
5.9300,-0.1118400022,-0.3147965477,-0.7683762889,0.5458871918
5.9350,-0.1104929444,-0.3167697768,-0.7686107446,0.5446886643
5.9400,-0.1091529322,-0.3187418295,-0.768840496,0.5434828196
5.9450,-0.1078192915,-0.3207145103,-0.7690644034,0.5422703632
5.9500,-0.1064897528,-0.3226856171,-0.7692830928,0.5410521678
5.9550,-0.1051638411,-0.3246552851,-0.7694952433,0.5398301427
5.9600,-0.1038400837,-0.3266235654,-0.7697025128,0.5386021958
5.9650,-0.1025188444,-0.3285890494,-0.7699044531,0.5373697576
5.9700,-0.1012016552,-0.3305536497,-0.7701004726,0.5361322335
5.9750,-0.09988572607,-0.3325162729,-0.770290584,0.534890817
5.9800,-0.09857112516,-0.3344778461,-0.7704750162,0.5336445945
5.9850,-0.09726052403,-0.3364398036,-0.7706543244,0.532391361
5.9900,-0.09595157978,-0.3384021642,-0.7708290665,0.5311306994
5.9950,-0.09464660563,-0.3403653711,-0.7709979686,0.5298637245
6.0000,-0.09334399318,-0.34232885,-0.7711618251,0.5285899137
6.0050,-0.09204188287,-0.3442913743,-0.7713213727,0.5273092845
6.0100,-0.09073778785,-0.3462535916,-0.7714760963,0.5260225632
6.0150,-0.08943300137,-0.3482150158,-0.7716270692,0.5247282222
6.0200,-0.08812560074,-0.3501725057,-0.7717735213,0.5234297724
6.0250,-0.08681044048,-0.3521251282,-0.7719152292,0.5221290265
6.0300,-0.08548484349,-0.3540715969,-0.7720537521,0.5208249703
6.0350,-0.08414798344,-0.3560108131,-0.7721888188,0.5195188602
6.0400,-0.08279936613,-0.3579444395,-0.7723203214,0.5182097687
6.0450,-0.08143994892,-0.3598726455,-0.7724471463,0.5168990422
6.0500,-0.08007227821,-0.3617963077,-0.7725686827,0.5155865519
6.0550,-0.07869641413,-0.3637148037,-0.7726861008,0.5142709457
6.0600,-0.07731228039,-0.3656271817,-0.7727992495,0.5129531122
6.0650,-0.07592140858,-0.3675343617,-0.7729071151,0.5116336816
6.0700,-0.07452103179,-0.3694346826,-0.7730107454,0.5103126675
6.0750,-0.0731101014,-0.3713266663,-0.7731104136,0.5089908725
6.0800,-0.07168716726,-0.3732089484,-0.7732073262,0.5076676685
6.0850,-0.07025209966,-0.3750837078,-0.7733005715,0.5063428491
6.0900,-0.06880405131,-0.3769511502,-0.7733904958,0.5050158155
6.0950,-0.0673450462,-0.3788135071,-0.7734766693,0.5036852327
6.1000,-0.06588003531,-0.3806701088,-0.7735604119,0.5023488612
6.1050,-0.06440805001,-0.3825244306,-0.7736409726,0.501005298
6.1100,-0.06293225651,-0.3843786454,-0.7737168125,0.499654763
6.1150,-0.06145327072,-0.3862325846,-0.7737893942,0.4982949524
6.1200,-0.05997145094,-0.3880863277,-0.7738585565,0.4969259118
6.1250,-0.05848529034,-0.389938722,-0.7739254986,0.4955467551
6.1300,-0.05699501383,-0.3917916676,-0.7739883417,0.4941587847
6.1350,-0.055499727,-0.3936438362,-0.7740484794,0.4927608569
6.1400,-0.05399851121,-0.3954939079,-0.7741058503,0.4913541107
6.1450,-0.0524900371,-0.397339655,-0.7741601352,0.489940894
6.1500,-0.05097316132,-0.39918083,-0.7742118523,0.4885206336
6.1550,-0.0494455543,-0.4010172278,-0.7742599154,0.4870953741
6.1600,-0.04791075649,-0.402848642,-0.7743044921,0.4856645803
6.1650,-0.04636772119,-0.4046741787,-0.7743455224,0.4842291352
6.1700,-0.04481666942,-0.4064954773,-0.7743821511,0.4827889572
6.1750,-0.04325669163,-0.408311642,-0.7744146113,0.4813444416
6.1800,-0.04169033892,-0.4101241612,-0.7744421504,0.4798952424
6.1850,-0.04011650426,-0.4119316281,-0.7744648464,0.4784424746
6.1900,-0.03853765429,-0.4137361275,-0.7744810704,0.4769867269
6.1950,-0.03695675014,-0.4155393647,-0.7744900615,0.4755274752
6.2000,-0.03537264778,-0.4173411198,-0.7744923286,0.4740641291
6.2050,-0.03378498911,-0.4191416179,-0.7744877436,0.4725966713
6.2100,-0.03219368018,-0.4209402088,-0.774475487,0.4711269761
6.2150,-0.03059710186,-0.4227339975,-0.7744563452,0.4696564213
6.2200,-0.02899487837,-0.424524218,-0.7744293765,0.4681854614
6.2250,-0.02738463538,-0.4263086717,-0.7743954503,0.4667147788
6.2300,-0.02576722808,-0.428087634,-0.7743548632,0.4652435636
6.2350,-0.02414210477,-0.4298617402,-0.7743072262,0.4637718864
6.2400,-0.02250912473,-0.4316311959,-0.7742529595,0.4622988263
6.2450,-0.0208710307,-0.4333963526,-0.7741923732,0.460823362
6.2500,-0.01922954326,-0.4351601549,-0.7741245083,0.4593442172
6.2550,-0.01758784942,-0.4369209299,-0.7740502763,0.4578612654
6.2600,-0.01594620573,-0.4386800046,-0.7739686495,0.4563749573
6.2650,-0.01430524874,-0.4404376948,-0.7738794677,0.4548852232
6.2700,-0.01266310368,-0.44219294,-0.7737825918,0.4533933725
6.2750,-0.0110214429,-0.443945319,-0.7736795286,0.451897188
6.2800,-0.00938045662,-0.4456952564,-0.7735691177,0.4503982301
6.2850,-0.007738302836,-0.4474408593,-0.7734510536,0.448898946
6.2900,-0.00609665176,-0.4491824892,-0.7733256522,0.447398433
6.2950,-0.004454451126,-0.4509196215,-0.7731929855,0.4458971406
6.3000,-0.002812651383,-0.45265032,-0.7730531222,0.4443969477
6.3050,-0.001174062427,-0.4543769201,-0.7729052312,0.4428969854
6.3100,0.0004606860419,-0.4560974408,-0.7727497413,0.4413986289
6.3150,0.00209014,-0.4578114097,-0.7725869748,0.4399019333
6.3200,0.003714437412,-0.4595208128,-0.7724169049,0.4384050075
6.3250,0.005328409799,-0.4612269858,-0.7722386877,0.4369080966
6.3300,0.006932070792,-0.4629281404,-0.7720530783,0.4354119057
6.3350,0.008523065751,-0.4646248016,-0.7718598965,0.4339164103
6.3400,0.01010301084,-0.4663162514,-0.7716591271,0.4324225646
6.3450,0.01167103607,-0.4680031569,-0.7714504815,0.4309303733
6.3500,0.0132283445,-0.4696843424,-0.7712348675,0.4294396449
6.3550,0.01477603794,-0.4713589054,-0.7710116211,0.4279527207
6.3600,0.01631464632,-0.4730278233,-0.7707807576,0.4264686793
6.3650,0.01784506738,-0.474688408,-0.7705440112,0.4249875241
6.3700,0.01936485306,-0.4763420419,-0.770301385,0.423508014
6.3750,0.02087266316,-0.4779888525,-0.7700527996,0.4220304192
6.3800,0.02236669662,-0.4796294516,-0.7697973223,0.4205560636
6.3850,0.02384548805,-0.4812603919,-0.7695366589,0.4190860991
6.3900,0.02530998465,-0.4828822576,-0.7692710276,0.4176197028
6.3950,0.02676006362,-0.4844935413,-0.769000161,0.4161594163
6.4000,0.02819844501,-0.4860969095,-0.7687223609,0.4147054064
6.4050,0.02962379084,-0.4876893489,-0.7684398865,0.4132573904
6.4100,0.03103759488,-0.4892698485,-0.7681540995,0.411814233
6.4150,0.03244173886,-0.4908387744,-0.767864183,0.4103771772
6.4200,0.03383480779,-0.4923957767,-0.7675702447,0.4089468477
6.4250,0.03521665492,-0.4939422648,-0.767271723,0.4075229189
6.4300,0.03658721781,-0.4954763341,-0.7669705777,0.4061043102
6.4350,0.03794575067,-0.4969984961,-0.7666664775,0.4046913974
6.4400,0.03929169088,-0.4985094183,-0.7663594469,0.4032836732
6.4450,0.04062447042,-0.5000102995,-0.7660505522,0.4018779718
6.4500,0.04194109418,-0.5015013155,-0.7657388095,0.4004765297
6.4550,0.04324162357,-0.5029826122,-0.765424838,0.3990782771
6.4600,0.04452832389,-0.504452894,-0.7651085946,0.3976849817
6.4650,0.04580112999,-0.5059129304,-0.7647898437,0.3962964274
6.4700,0.04706286657,-0.5073612247,-0.7644689966,0.3949136963
6.4750,0.04831602669,-0.5087990819,-0.7641453953,0.3935363652
6.4800,0.04956273562,-0.5102257901,-0.7638192892,0.3921648529
6.4850,0.05080146471,-0.5116418095,-0.7634912404,0.3907978963
6.4900,0.0520349633,-0.5130468653,-0.763160652,0.3894368959
6.4950,0.05326551333,-0.514440219,-0.7628277698,0.3880822589
6.5000,0.05449419824,-0.5158236043,-0.7624915691,0.3867337569
6.5050,0.0557221829,-0.5171940717,-0.7621532483,0.3853929898
6.5100,0.05694894331,-0.5185522976,-0.7618123944,0.3840601623
6.5150,0.05817640319,-0.5199013023,-0.7614680542,0.3827329937
6.5200,0.05940398331,-0.5212378271,-0.7611214002,0.3814138283
6.5250,0.06063187273,-0.5225630179,-0.7607719541,0.3801022259
6.5300,0.0618604092,-0.5238767739,-0.760419256,0.3787993804
6.5350,0.06308875906,-0.5251780578,-0.7600638787,0.3775059156
6.5400,0.06431745219,-0.5264669043,-0.7597057939,0.3762219701
6.5450,0.06554557277,-0.5277433696,-0.7593447705,0.3749483073
6.5500,0.06677340015,-0.5290059545,-0.75898105,0.3736867391
6.5550,0.06800239977,-0.5302554595,-0.7586144553,0.3724364772
6.5600,0.06923177166,-0.5314889681,-0.7582462941,0.3711994019
6.5650,0.07046178597,-0.532707531,-0.7578758665,0.3699756668
6.5700,0.07169022585,-0.5339110423,-0.7575042461,0.3687639186
6.5750,0.07291600257,-0.535099879,-0.7571305741,0.3675658715
6.5800,0.07413891646,-0.5362722933,-0.7567566299,0.3663807468
6.5850,0.07535801532,-0.5374285871,-0.7563827381,0.3652079363
6.5900,0.07656970082,-0.5385693482,-0.7560077734,0.3640499754
6.5950,0.07777287627,-0.5396955047,-0.7556322036,0.3629051044
6.6000,0.07896397213,-0.540806609,-0.7552564318,0.3617742735
6.6050,0.0801438247,-0.5419012164,-0.7548811184,0.3606584758
6.6100,0.08130934239,-0.5429807712,-0.7545056522,0.3595579144
6.6150,0.08245971129,-0.5440430833,-0.7541298624,0.3584768753
6.6200,0.08359372055,-0.5450878721,-0.7537535251,0.3574170182
6.6250,0.08471158656,-0.5461124492,-0.7533782576,0.35637949
6.6300,0.08581326978,-0.5471172487,-0.7530037477,0.3553648195
6.6350,0.08689876243,-0.5481012813,-0.7526302688,0.3543744756
6.6400,0.08796559509,-0.5490648839,-0.7522586151,0.3534073901
6.6450,0.08901302093,-0.5500075931,-0.751888913,0.3524647389
6.6500,0.09003850599,-0.5509301348,-0.7515211883,0.3515465227
6.6550,0.0910398277,-0.5518341033,-0.7511559167,0.35065034
6.6600,0.09201627572,-0.5527185911,-0.7507936171,0.3497772271
6.6650,0.0929674831,-0.5535850056,-0.750434657,0.3489247973
6.6700,0.09389088294,-0.5544329531,-0.7500792626,0.3480943874
6.6750,0.09478757976,-0.5552623506,-0.7497288312,0.3472833373
6.6800,0.09565597886,-0.5560737738,-0.7493842649,0.3464897044
6.6850,0.0964959138,-0.5568704781,-0.7490437725,0.3457126497
6.6900,0.09730455149,-0.5576529627,-0.7487077829,0.3449516682
6.6950,0.09808345891,-0.5584218588,-0.7483772132,0.3442037326
6.7000,0.09883049768,-0.5591765346,-0.7480524844,0.3434699646
6.7050,0.09954734428,-0.5599186149,-0.7477327079,0.342749571
6.7100,0.1002348527,-0.5606490511,-0.7474178039,0.3420412874
6.7150,0.1008935301,-0.5613677254,-0.7471083796,0.3413441687
6.7200,0.1015249866,-0.5620775028,-0.7468031639,0.3406561204
6.7250,0.1021310341,-0.5627770738,-0.7465042664,0.3399744069
6.7300,0.1027114011,-0.5634689949,-0.7462096879,0.3392995161
6.7350,0.1032680458,-0.5641543858,-0.7459194759,0.3386291116
6.7400,0.1038024611,-0.5648339807,-0.7456337195,0.3379615062
6.7450,0.1043166188,-0.5655097056,-0.7453509472,0.3372962814
6.7500,0.1048120405,-0.5661813015,-0.7450716157,0.3366325259
6.7550,0.105291114,-0.5668497701,-0.7447952825,0.3359689072
6.7600,0.1057549105,-0.5675167155,-0.7445212715,0.3353039708
6.7650,0.106205272,-0.5681812734,-0.7442498415,0.3346380944
6.7700,0.1066435123,-0.5688437862,-0.7439808087,0.333970754
6.7750,0.1070704809,-0.5695050969,-0.743713817,0.3333010878
6.7800,0.1074892641,-0.5701642005,-0.7434479449,0.3326319223
6.7850,0.1079027535,-0.5708221111,-0.7431819249,0.3319634614
6.7900,0.1083098871,-0.5714778123,-0.7429174605,0.3312940164
6.7950,0.1087121358,-0.5721315129,-0.7426542446,0.3306234662
6.8000,0.1091093906,-0.5727825735,-0.7423922536,0.3299530364
6.8050,0.109500197,-0.5734338813,-0.7421303075,0.3292808792
6.8100,0.1098849123,-0.574083907,-0.7418700971,0.3286057408
6.8150,0.1102627489,-0.5747323868,-0.7416110781,0.327929594
6.8200,0.1106355416,-0.57538023,-0.7413529173,0.3272510043
6.8250,0.1110018029,-0.5760269653,-0.7410963477,0.3265696532
6.8300,0.1113618445,-0.5766724927,-0.7408413633,0.3258856397
6.8350,0.1117170333,-0.5773166834,-0.740587202,0.3252004731
6.8400,0.1120687464,-0.5779592207,-0.740333537,0.3245150063
6.8450,0.1124176068,-0.578599287,-0.7400802239,0.3238308339
6.8500,0.1127645857,-0.5792360784,-0.7398276234,0.3231482653
6.8550,0.1131108439,-0.5798690825,-0.7395751554,0.3224691823
6.8600,0.1134567535,-0.5804987477,-0.739321984,0.3217946129
6.8650,0.1138036454,-0.5811236142,-0.7390688465,0.3211250777
6.8700,0.114151744,-0.5817433408,-0.7388151113,0.3204626282
6.8750,0.1145016021,-0.5823574841,-0.7385609929,0.3198074476
6.8800,0.1148545701,-0.5829662447,-0.7383056837,0.3191606222
6.8850,0.1152106637,-0.5835697196,-0.7380486726,0.3185232208
6.8900,0.1155706824,-0.584166836,-0.7377903408,0.3178961121
6.8950,0.1159360644,-0.5847569683,-0.7375305296,0.3172803727
6.9000,0.116307987,-0.585339969,-0.7372690833,0.3166762884
6.9050,0.116686711,-0.5859152394,-0.7370058448,0.3160853183
6.9100,0.1170744773,-0.5864812536,-0.7367407096,0.3155097982
6.9150,0.1174720822,-0.5870392542,-0.7364727565,0.3149493656
6.9200,0.1178785732,-0.5875872798,-0.7362031525,0.3144053893
6.9250,0.118293816,-0.5881257544,-0.7359311152,0.3138790592
6.9300,0.1187173675,-0.5886529377,-0.7356570075,0.313373057
6.9350,0.1191471173,-0.5891696806,-0.7353810982,0.3128860692
6.9400,0.1195824714,-0.5896754362,-0.7351030151,0.3124203414
6.9450,0.1200223081,-0.5901696836,-0.7348241542,0.3119741216
6.9500,0.1204660443,-0.5906521204,-0.7345443231,0.3115487799
6.9550,0.1209109186,-0.5911222651,-0.7342650091,0.3111429156
6.9600,0.1213575733,-0.591579156,-0.7339863771,0.3107578476
6.9650,0.1218026317,-0.5920237642,-0.7337083545,0.3103933506
6.9700,0.1222475896,-0.5924560641,-0.7334314287,0.3100478645
6.9750,0.1226899086,-0.5928750854,-0.7331570592,0.3097209163
6.9800,0.1231312007,-0.5932820358,-0.7328835439,0.309413711
6.9850,0.1235688219,-0.593676112,-0.732613584,0.3091225595
6.9900,0.1240041411,-0.5940566942,-0.7323470069,0.3088486337
6.9950,0.1244361308,-0.5944237259,-0.73208427,0.3085914857
7.0000,0.1248643866,-0.5947772438,-0.7318265592,0.308348508
7.0050,0.1252883472,-0.5951182692,-0.7315735772,0.3081187708
7.0100,0.125707652,-0.5954456905,-0.731326397,0.3079021224
7.0150,0.1261204089,-0.5957610372,-0.7310851358,0.3076962029
7.0200,0.1265269935,-0.5960636477,-0.7308503145,0.3075010009
7.0250,0.1269262139,-0.5963547136,-0.7306218628,0.3073149612
7.0300,0.1273168358,-0.596633585,-0.7304014896,0.3071358862
7.0350,0.1276987621,-0.5969006573,-0.730188695,0.306964332
7.0400,0.1280712535,-0.5971562469,-0.729983988,0.3067988725
7.0450,0.1284329586,-0.5974003494,-0.7297875834,0.3066396594
7.0500,0.1287867008,-0.5976328136,-0.7296000474,0.3064845454
7.0550,0.1291287859,-0.597852123,-0.7294223965,0.3063357034
7.0600,0.1294608589,-0.5980577705,-0.7292539408,0.3061951648
7.0650,0.1297833693,-0.5982502759,-0.7290947681,0.306061601
7.0700,0.1300954232,-0.5984288493,-0.728945179,0.3059362992
7.0750,0.1303977361,-0.5985920206,-0.7288061461,0.3058195949
7.0800,0.1306870052,-0.5987416009,-0.7286780508,0.3057085218
7.0850,0.1309617371,-0.5988769515,-0.7285620922,0.3056021894
7.0900,0.1312226102,-0.5989978351,-0.7284573643,0.3055030089
7.0950,0.1314695806,-0.5991053964,-0.7283636524,0.3054093372
7.1000,0.1317029142,-0.5991995967,-0.7282812503,0.3053204974
7.1050,0.1319219972,-0.5992793908,-0.7282106006,0.3052378082
7.1100,0.1321263982,-0.5993459905,-0.7281511328,0.305160493
7.1150,0.1323160938,-0.5993979528,-0.728103688,0.3050894377
7.1200,0.1324911017,-0.5994356009,-0.7280674641,0.3050259598
7.1250,0.1326512483,-0.5994584086,-0.7280422854,0.3049716271
7.1300,0.132795784,-0.5994662012,-0.7280280836,0.3049273076
7.1350,0.1329245133,-0.5994589159,-0.7280254606,0.3048918016
7.1400,0.1330342803,-0.5994372521,-0.7280342201,0.3048656022
7.1450,0.133124794,-0.5994006027,-0.7280548663,0.304848845
7.1500,0.1331952407,-0.5993497518,-0.7280866052,0.3048422513
7.1550,0.1332440234,-0.5992841711,-0.7281298342,0.3048466122
7.1600,0.1332707246,-0.5992046273,-0.7281843922,0.3048609838
7.1650,0.1332744604,-0.5991104062,-0.7282500921,0.3048875903
7.1700,0.1332553643,-0.5990005229,-0.7283269939,0.3049281413
7.1750,0.1332135356,-0.5988752281,-0.7284147349,0.3049829325
7.1800,0.1331471074,-0.5987350523,-0.7285128766,0.3050527391
7.1850,0.1330561629,-0.5985786028,-0.7286218559,0.3051391565
7.1900,0.1329411746,-0.5984058128,-0.728742066,0.305241099
7.1950,0.1327990917,-0.5982171364,-0.7288726423,0.3053609837
7.2000,0.1326300503,-0.5980116735,-0.7290137366,0.3055000492
7.2050,0.1324333303,-0.5977903772,-0.7291638929,0.3056600975
7.2100,0.1322073333,-0.5975523662,-0.7293245341,0.3058400148
7.2150,0.1319534964,-0.5972965159,-0.7294961937,0.3060399488
7.2200,0.1316714607,-0.5970240167,-0.7296770586,0.3062618813
7.2250,0.1313612575,-0.5967336149,-0.7298680439,0.306505875
7.2300,0.1310229114,-0.5964250627,-0.7300686722,0.3067733285
7.2350,0.130658063,-0.5960983768,-0.7302779936,0.3070655433
7.2400,0.1302657321,-0.5957515871,-0.7304980286,0.3073817103
7.2450,0.1298446953,-0.5953858976,-0.7307280531,0.3077214657
7.2500,0.1293930791,-0.5950013795,-0.7309682325,0.3080847814
7.2550,0.1289113656,-0.5945968822,-0.7312183213,0.3084739441
7.2600,0.1283959019,-0.5941729772,-0.7314786611,0.3088882223
7.2650,0.1278476887,-0.5937285789,-0.7317501332,0.3093268265
7.2700,0.1272652564,-0.593263014,-0.7320327374,0.3097912558
7.2750,0.1266500401,-0.5927768887,-0.7323246982,0.3102835219
7.2800,0.1259982469,-0.59226839,-0.732628878,0.3108014205
7.2850,0.1253121481,-0.5917372072,-0.7329439718,0.3113471974
7.2900,0.1245894359,-0.5911828718,-0.7332706389,0.3119205905
7.2950,0.1238289684,-0.5906056723,-0.7336089358,0.3125208085
7.3000,0.1230319803,-0.5900052981,-0.7339585592,0.3131480696
7.3050,0.1221967986,-0.5893811066,-0.7343203607,0.3138016277
7.3100,0.121322959,-0.5887334136,-0.734694143,0.3144808794
7.3150,0.1204108011,-0.5880621489,-0.7350806505,0.3151834154
7.3200,0.1194586033,-0.5873663298,-0.7354806248,0.3159093023
7.3250,0.1184651366,-0.5866469098,-0.7358932547,0.3166583841
7.3300,0.1174322961,-0.5859043192,-0.7363180489,0.3174295441
7.3350,0.116359711,-0.5851382179,-0.736755356,0.3182219807
7.3400,0.1152463884,-0.584348383,-0.7372057444,0.3190343677
7.3450,0.1140924034,-0.5835342559,-0.7376698762,0.3198653615
7.3500,0.1128975191,-0.5826982037,-0.7381456319,0.3207147949
7.3550,0.1116635618,-0.5818403058,-0.7386329528,0.3215812005
7.3600,0.1103896798,-0.5809609177,-0.7391323515,0.3224622421
7.3650,0.10907715,-0.580060356,-0.7396431365,0.3233576802
7.3700,0.1077281656,-0.5791385729,-0.7401649592,0.3242668482
7.3750,0.1063431878,-0.5781967414,-0.7406966303,0.3251894163
7.3800,0.1049268803,-0.5772325575,-0.7412384607,0.3261264611
7.3850,0.10348045,-0.576246005,-0.7417899638,0.3270779536
7.3900,0.1020047349,-0.5752390918,-0.7423493974,0.3280432799
7.3950,0.1005003419,-0.5742105823,-0.7429166526,0.3290239136
7.4000,0.09896835333,-0.5731591186,-0.7434926568,0.3300190284
7.4050,0.09741248293,-0.5720859883,-0.7440755528,0.3310287025
7.4100,0.09583550093,-0.570991027,-0.7446644611,0.3320536768
7.4150,0.09423699247,-0.5698749058,-0.7452590918,0.3330928805
7.4200,0.09262025385,-0.5687377629,-0.745858751,0.3341460296
7.4250,0.09098542143,-0.5675794951,-0.7464628571,0.335213921
7.4300,0.0893348102,-0.5664000164,-0.7470706278,0.3362971754
7.4350,0.08766848047,-0.5651995389,-0.7476813986,0.3373962729
7.4400,0.08599101366,-0.5639783956,-0.7482938513,0.3385117826
7.4450,0.08430313105,-0.5627369438,-0.7489071709,0.3396441719
7.4500,0.08260401811,-0.5614746841,-0.7495215674,0.3407934494
7.4550,0.08089479055,-0.5601917851,-0.7501368388,0.3419589447
7.4600,0.07917743533,-0.5588885423,-0.7507522211,0.3431408363
7.4650,0.077451113,-0.5575665828,-0.7513669348,0.3443378575
7.4700,0.075715325,-0.5562261861,-0.7519812561,0.3455485638
7.4750,0.07396877726,-0.5548681356,-0.7525948783,0.3467721458
7.4800,0.07221189529,-0.5534921316,-0.7532076913,0.3480087301
7.4850,0.07044320673,-0.5521003447,-0.7538188932,0.3492564106
7.4900,0.0686640514,-0.5506915618,-0.7544284606,0.3505164043
7.4950,0.06687784941,-0.5492648682,-0.7550364774,0.3517888224
7.5000,0.06508534549,-0.5478207606,-0.7556417982,0.3530747582
7.5050,0.0632891058,-0.5463581415,-0.7562447733,0.3543742558
7.5100,0.06149194028,-0.5448761148,-0.7568449031,0.3556888435
7.5150,0.05969252516,-0.5433745134,-0.7574424172,0.3570181022
7.5200,0.05789207518,-0.541853959,-0.7580370712,0.358360982
7.5250,0.05608999866,-0.540316154,-0.7586278293,0.3597168085
7.5300,0.05428663399,-0.5387622715,-0.7592151579,0.3610824285
7.5350,0.05248023167,-0.5371923089,-0.7597990747,0.3624577418
7.5400,0.05067132737,-0.5356077517,-0.7603784981,0.3638424008
7.5450,0.04886203275,-0.5340081227,-0.7609524559,0.3652385337
7.5500,0.04705419573,-0.5323938747,-0.7615206177,0.366645624
7.5550,0.04525020272,-0.5307651369,-0.7620821011,0.3680647494
7.5600,0.04345381099,-0.5291201207,-0.7626378791,0.3694957775
7.5650,0.04166840656,-0.5274594855,-0.763186127,0.370940926
7.5700,0.0398947355,-0.5257836603,-0.763727405,0.3723981787
7.5750,0.03813296827,-0.5240936177,-0.764261204,0.3738670468
7.5800,0.03638747028,-0.5223901506,-0.7647858824,0.3753492197
7.5850,0.03465795724,-0.5206713739,-0.7653022106,0.3768456885
7.5900,0.03294675076,-0.5189378494,-0.7658101637,0.3783554059
7.5950,0.03125457381,-0.5171892915,-0.7663091877,0.3798797404
7.6000,0.02958208074,-0.5154244843,-0.766800101,0.3814185452
7.6050,0.02792819386,-0.5136429387,-0.7672826377,0.3829729774
7.6100,0.02629429732,-0.5118450884,-0.7677569491,0.3845419125
7.6150,0.02468100976,-0.5100299294,-0.7682221389,0.3861283002
7.6200,0.02308742999,-0.5081974253,-0.7686794284,0.387729653
7.6250,0.02151394049,-0.5063472751,-0.7691293356,0.3893451585
7.6300,0.01995874865,-0.504479768,-0.7695712094,0.3909756587
7.6350,0.01841951171,-0.5025943761,-0.7700049701,0.3926219055
7.6400,0.01689576921,-0.5006921062,-0.7704304316,0.3942827637
7.6450,0.01538817006,-0.4987737285,-0.7708469827,0.3959582065
7.6500,0.01389611024,-0.4968379947,-0.7712548427,0.397649183
7.6550,0.01241867929,-0.4948850803,-0.771654619,0.3993540819
7.6600,0.01095586339,-0.4929164012,-0.7720452257,0.4010730106
7.6650,0.009506256255,-0.4909319758,-0.7724280319,0.4028031302
7.6700,0.008067349075,-0.4889337807,-0.7728025239,0.4045428716
7.6750,0.006636899691,-0.4869229405,-0.7731683987,0.4062913102
7.6800,0.005212211648,-0.4849024261,-0.7735251209,0.4080457785
7.6850,0.003792103182,-0.4828735778,-0.7738724632,0.4098050006
7.6900,0.002375679151,-0.4808367817,-0.7742108913,0.4115675417
7.6950,0.0009627379847,-0.4787937097,-0.7745403898,0.413331394
7.7000,-0.0004477366517,-0.476745364,-0.7748600646,0.4150970221
7.7050,-0.001858640736,-0.4746927499,-0.7751698812,0.4168632797
7.7100,-0.003269568635,-0.4726368575,-0.7754697811,0.4186291073
7.7150,-0.004677971981,-0.4705778325,-0.7757592437,0.4203953092
7.7200,-0.006088258184,-0.4685152573,-0.7760394559,0.4221600995
7.7250,-0.007498315444,-0.4664503058,-0.7763103158,0.4239223763
7.7300,-0.008907737344,-0.4643843958,-0.7765717977,0.4256806645
7.7350,-0.01031629631,-0.4623165732,-0.7768236479,0.4274365218
7.7400,-0.01172640551,-0.4602458913,-0.7770677959,0.4291874317
7.7450,-0.01313888031,-0.4581737571,-0.7773031375,0.4309338818
7.7500,-0.01455370174,-0.4561003215,-0.7775301242,0.4326749269
7.7550,-0.01597329324,-0.4540256538,-0.7777480341,0.4344117344
7.7600,-0.0173996394,-0.4519499602,-0.7779571988,0.4361434201
7.7650,-0.01883359478,-0.4498716271,-0.7781583499,0.4378702974
7.7700,-0.02027675904,-0.4477927837,-0.7783505594,0.4395917226
7.7750,-0.02172615397,-0.4457114497,-0.7785343391,0.4413089176
7.7800,-0.0231826237,-0.4436285062,-0.7787096465,0.4430209938
7.7850,-0.02464576757,-0.4415418062,-0.7788761392,0.4447306818
7.7900,-0.02611582284,-0.4394534684,-0.7790333642,0.4464365916
7.7950,-0.02759505108,-0.4373625458,-0.7791825714,0.4481372973
7.8000,-0.02908417025,-0.4352711246,-0.7793229163,0.4498321367
7.8050,-0.03058651941,-0.4331810414,-0.7794545933,0.4515187562
7.8100,-0.03210631126,-0.431092128,-0.7795768915,0.4531982262
7.8150,-0.03364165234,-0.4290056189,-0.7796887262,0.4548713097
7.8200,-0.03519467185,-0.4269210211,-0.7797910318,0.4565366618
7.8250,-0.03676357931,-0.4248377043,-0.7798833384,0.4581957472
7.8300,-0.03835017639,-0.4227554548,-0.7799656013,0.4598486167
7.8350,-0.03995295751,-0.4206737852,-0.7800377058,0.4614959428
7.8400,-0.04157051584,-0.4185920654,-0.7800994247,0.4631387077
7.8450,-0.04320362433,-0.4165100635,-0.7801512664,0.4647760917
7.8500,-0.04484990739,-0.4144266343,-0.7801935918,0.4664086298
7.8550,-0.04651054936,-0.4123418625,-0.7802262929,0.468036205
7.8600,-0.0481840244,-0.4102570123,-0.78024837,0.4696594136
7.8650,-0.04987195953,-0.4081715335,-0.7802601432,0.4712779391
7.8700,-0.05157234739,-0.4060835687,-0.7802620015,0.472892839
7.8750,-0.05328517862,-0.403993108,-0.7802528682,0.474505764
7.8800,-0.05501070466,-0.4018981558,-0.7802338292,0.4761164421
7.8850,-0.05674760011,-0.3998013553,-0.7802036857,0.4777246017
7.8900,-0.05849542917,-0.397700693,-0.7801620898,0.4793324077
7.8950,-0.06025183202,-0.3955952575,-0.7801098898,0.4809393609
7.9000,-0.06201536446,-0.3934864037,-0.7800468647,0.4825447477
7.9050,-0.06378221692,-0.3913730599,-0.7799737772,0.4841485967
7.9100,-0.06555275107,-0.3892544203,-0.7798900983,0.4857522698
7.9150,-0.06732680243,-0.3871318866,-0.7797959131,0.4873544274
7.9200,-0.06910295988,-0.3850063451,-0.7796905421,0.4889555745
7.9250,-0.07087959979,-0.3828775658,-0.7795733917,0.4905570088
7.9300,-0.07265743738,-0.380745883,-0.7794450334,0.492157403
7.9350,-0.07443549619,-0.3786111202,-0.7793071285,0.4937543681
7.9400,-0.07621186014,-0.3764746063,-0.7791578163,0.4953500989
7.9450,-0.07798806275,-0.3743351386,-0.7789991195,0.4969420871
7.9500,-0.07976344555,-0.3721925622,-0.7788313431,0.4985300678
7.9550,-0.08153721019,-0.3700486538,-0.7786536272,0.500114193
7.9600,-0.08330976469,-0.367901925,-0.7784675135,0.5016931205
7.9650,-0.08508185641,-0.3657542919,-0.7782722068,0.5032665772
7.9700,-0.08685362123,-0.3636043904,-0.7780679947,0.5048351131
7.9750,-0.08862350521,-0.3614514996,-0.7778548699,0.5063995351
7.9800,-0.09039071191,-0.3592946922,-0.7776328625,0.5079606034
7.9850,-0.09215373809,-0.3571338219,-0.7774022861,0.509518211
7.9900,-0.093913316,-0.3549695448,-0.777163193,0.5110717002
7.9950,-0.09566806734,-0.3528004403,-0.776915785,0.512622018
8.0000,-0.09741496757,-0.3506259748,-0.7766603217,0.5141697137
8.0050,-0.09915398295,-0.3484448007,-0.7763977481,0.5157143059
8.0100,-0.1008854133,-0.3462570159,-0.776128,0.5172557781
8.0150,-0.1026092913,-0.3440621283,-0.7758511172,0.5187943997
8.0200,-0.1043241305,-0.3418611072,-0.7755665237,0.5203306895
8.0250,-0.1060292986,-0.3396531183,-0.7752745793,0.5218648041
8.0300,-0.1077255799,-0.3374364711,-0.7749752219,0.5233977769
8.0350,-0.1094108708,-0.3352114782,-0.7746696557,0.5249280434
8.0400,-0.111085675,-0.3329776138,-0.77435708,0.5264570202
8.0450,-0.1127495148,-0.3307351518,-0.7740386363,0.5279829503
8.0500,-0.1144024945,-0.3284841172,-0.7737144727,0.529505589
8.0550,-0.1160431855,-0.3262259894,-0.7733845722,0.5310243746
8.0600,-0.1176722278,-0.3239576949,-0.7730492756,0.5325405865
8.0650,-0.119289486,-0.3216815314,-0.7727094162,0.5340516539
8.0700,-0.12089434,-0.3193963276,-0.7723651022,0.5355583006
8.0750,-0.1224893096,-0.3171039422,-0.7720151658,0.5370605577
8.0800,-0.1240737421,-0.314803109,-0.7716610384,0.5385572865
8.0850,-0.1256477227,-0.3124957669,-0.7713026994,0.5400473973
8.0900,-0.1272125561,-0.3101811643,-0.7709398723,0.5415314618
8.0950,-0.1287676908,-0.3078591316,-0.7705728427,0.5430093286
8.1000,-0.1303142641,-0.305530778,-0.7702012532,0.5444806387
8.1050,-0.1318502011,-0.3031928343,-0.7698263332,0.5459460105
8.1100,-0.133373303,-0.300848458,-0.7694480403,0.5474043118
8.1150,-0.1348856542,-0.2984977437,-0.7690670702,0.5488540779
8.1200,-0.1363866381,-0.2961406916,-0.7686820784,0.5502974088
8.1250,-0.1378771121,-0.2937774953,-0.7682935469,0.5517333696
8.1300,-0.1393581609,-0.2914087947,-0.7679001697,0.553163219
8.1350,-0.140827661,-0.2890335491,-0.767503316,0.5545861857
8.1400,-0.1422861187,-0.2866547256,-0.7671011669,0.5560031731
8.1450,-0.1437325975,-0.2842700589,-0.7666943535,0.5574147847
8.1500,-0.1451697758,-0.2818811239,-0.7662823872,0.5588202496
8.1550,-0.1465956762,-0.2794874578,-0.76586527,0.5602203645
8.1600,-0.1480106769,-0.2770891834,-0.765442726,0.5616153997
8.1650,-0.1494130429,-0.274683663,-0.7650162097,0.5630051747
8.1700,-0.1508031331,-0.2722739128,-0.7645845575,0.5643897464
8.1750,-0.1521824026,-0.2698589865,-0.7641488198,0.5657678189
8.1800,-0.1535497066,-0.2674398986,-0.7637079688,0.5671406586
8.1850,-0.1549042772,-0.2650145474,-0.7632632502,0.5685078412
8.1900,-0.1562467106,-0.2625841675,-0.7628151211,0.569868065
8.1950,-0.1575789782,-0.2601501947,-0.7623629326,0.5712210613
8.2000,-0.1589016876,-0.2577122638,-0.7619058013,0.5725680682
8.2050,-0.1602175869,-0.2552712307,-0.7614429769,0.5739089794
8.2100,-0.1615244802,-0.2528270449,-0.7609757129,0.5752428114
8.2150,-0.1628236515,-0.2503808966,-0.7605038588,0.5765689429
8.2200,-0.1641172321,-0.247932969,-0.7600267853,0.5778875865
8.2250,-0.1654069452,-0.2454842686,-0.7595451611,0.5791969998
8.2300,-0.1666910463,-0.2430338204,-0.7590587531,0.5804984638
8.2350,-0.1679695254,-0.2405846773,-0.7585672471,0.5817911853
8.2400,-0.169243387,-0.2381362665,-0.7580723488,0.5830729874
8.2450,-0.1705133107,-0.235690371,-0.7575715568,0.5843462982
8.2500,-0.1717802278,-0.2332470787,-0.7570657311,0.5856097953
8.2550,-0.1730454131,-0.2308063819,-0.7565550224,0.5868630139
8.2600,-0.174309829,-0.2283706339,-0.7560386246,0.5881058877
8.2650,-0.1755740041,-0.2259411316,-0.7555154986,0.589339211
8.2700,-0.1768388237,-0.2235189047,-0.7549853397,0.5905628387
8.2750,-0.1781036761,-0.2211040698,-0.7544488712,0.5917761162
8.2800,-0.1793692042,-0.2186962836,-0.7539068131,0.5929781962
8.2850,-0.1806370507,-0.2162964096,-0.7533575588,0.5941704366
8.2900,-0.1819073773,-0.2139041451,-0.7528006151,0.59535364
8.2950,-0.1831800302,-0.2115198303,-0.7522363843,0.5965273339
8.3000,-0.1844560554,-0.2091431945,-0.7516649998,0.5976912379
8.3050,-0.1857349523,-0.206774696,-0.7510856253,0.5988465046
8.3100,-0.1870163581,-0.2044145723,-0.7504973642,0.5999943922
8.3150,-0.1883006612,-0.2020614451,-0.7499018891,0.6011332549
8.3200,-0.1895867648,-0.1997140694,-0.7492995548,0.6022635024
8.3250,-0.190874464,-0.1973726805,-0.7486907805,0.6033846859
8.3300,-0.1921651341,-0.195039288,-0.7480742567,0.6044974307
8.3350,-0.1934601873,-0.1927124431,-0.7474502831,0.6056014733
8.3400,-0.1947575932,-0.1903919379,-0.7468194898,0.6066968268
8.3450,-0.1960568377,-0.1880779789,-0.7461810308,0.6077847148
8.3500,-0.1973588892,-0.1857701025,-0.7455350519,0.6088648654
8.3550,-0.1986647657,-0.1834680734,-0.7448816054,0.6099370221
8.3600,-0.1999742003,-0.1811748284,-0.7442203772,0.6110008437
8.3650,-0.2012875788,-0.1788882502,-0.7435507353,0.612057684
8.3700,-0.2026048033,-0.1766093637,-0.742873593,0.6131062315
8.3750,-0.2039249129,-0.1743368664,-0.7421886791,0.6141475813
8.3800,-0.2052483852,-0.172071908,-0.7414948622,0.6151826787
8.3850,-0.2065747953,-0.1698135959,-0.7407937383,0.6162100567
8.3900,-0.2079044716,-0.1675615728,-0.7400846304,0.6172305808
8.3950,-0.2092375967,-0.1653177076,-0.7393675747,0.6182437005
8.4000,-0.2105736983,-0.1630798498,-0.738643013,0.6192496908
8.4050,-0.211914532,-0.1608484216,-0.7379093231,0.6202498265
8.4100,-0.21326059,-0.1586241951,-0.7371668305,0.6212433899
8.4150,-0.2146101366,-0.1564046841,-0.7364160537,0.6222310342
8.4200,-0.2159632532,-0.154189715,-0.7356569632,0.6232128349
8.4250,-0.2173203767,-0.1519785898,-0.7348903737,0.6241878729
8.4300,-0.218677104,-0.1497705936,-0.7341162919,0.6251578708
8.4350,-0.2200348792,-0.1475653626,-0.7333348073,0.6261223331
8.4400,-0.2213933282,-0.1453598237,-0.7325468111,0.6270810836
8.4450,-0.2227515339,-0.1431561558,-0.7317524075,0.6280338234
8.4500,-0.2241077762,-0.1409525877,-0.730952116,0.6289809828
8.4550,-0.2254629077,-0.1387504115,-0.730146414,0.6299214353
8.4600,-0.2268174797,-0.1365496259,-0.7293346503,0.6308557668
8.4650,-0.2281719866,-0.1343513008,-0.7285173598,0.6317829762
8.4700,-0.2295274882,-0.132154086,-0.7276935732,0.6327041119
8.4750,-0.2308814211,-0.129958453,-0.72686385,0.6336193759
8.4800,-0.232233479,-0.1277627678,-0.726030255,0.6345268751
8.4850,-0.2335851854,-0.125567428,-0.7251912792,0.6354277227
8.4900,-0.2349353244,-0.1233737333,-0.7243481078,0.6363207792
8.4950,-0.2362814571,-0.1211802326,-0.7235005583,0.6372074752
8.5000,-0.2376243637,-0.118987142,-0.7226494394,0.6380866004
8.5050,-0.2389615928,-0.1167944776,-0.7217964414,0.6389572008
8.5100,-0.2402964549,-0.1146035834,-0.7209400419,0.6398195749
8.5150,-0.241627041,-0.1124142734,-0.7200805262,0.6406742073
8.5200,-0.2429516849,-0.1102263117,-0.7192183559,0.6415213134
8.5250,-0.2442699869,-0.1080398837,-0.7183538619,0.6423607134
8.5300,-0.2455819588,-0.1058564514,-0.7174885453,0.6431905632
8.5350,-0.2468876333,-0.1036734612,-0.7166212982,0.6440125969
8.5400,-0.2481860231,-0.1014904,-0.7157527589,0.6448266316
8.5450,-0.2494758602,-0.09930630586,-0.7148851317,0.6456309327
8.5500,-0.250755558,-0.09712373697,-0.7140196011,0.6464245038
8.5550,-0.252025042,-0.09494270834,-0.7131559273,0.6472077593
8.5600,-0.2532850578,-0.09276142176,-0.7122943609,0.6479805102
8.5650,-0.254533387,-0.0905796424,-0.7114353707,0.648743244
8.5700,-0.2557701819,-0.08839858383,-0.7105798083,0.6494949118
8.5750,-0.2569968919,-0.08621825032,-0.7097272668,0.6502355093
8.5800,-0.2582122109,-0.08404155874,-0.7088780822,0.6509649262
8.5850,-0.2594149633,-0.08186926693,-0.7080330726,0.6516827971
8.5900,-0.2606046715,-0.07970009658,-0.7071927694,0.6523890608
8.5950,-0.2617814212,-0.07753380357,-0.7063566326,0.6530844543
8.6000,-0.2629468205,-0.07537275381,-0.7055248457,0.6537680091
8.6050,-0.2640996123,-0.07321584021,-0.7046977796,0.6544401233
8.6100,-0.2652410353,-0.0710645666,-0.7038750325,0.6551007245
8.6150,-0.2663721726,-0.06891884846,-0.7030550723,0.6557511901
8.6200,-0.2674924415,-0.06678050804,-0.7022388571,0.6563906954
8.6250,-0.2686028807,-0.06464796208,-0.701425171,0.6570204433
8.6300,-0.2697025732,-0.06251907419,-0.7006144071,0.6576407378
8.6350,-0.2707908631,-0.06039623482,-0.6998065753,0.6582517454
8.6400,-0.271869102,-0.05828085979,-0.6990011673,0.6588534746
8.6450,-0.2729388322,-0.05617290502,-0.6981979276,0.6594457161
8.6500,-0.2739990737,-0.05407209077,-0.6973959651,0.6600299876
8.6550,-0.2750476726,-0.05197702009,-0.6965969623,0.660605661
8.6600,-0.2760849311,-0.04988666354,-0.6957994548,0.6611743722
8.6650,-0.2771110738,-0.04780314487,-0.6950041955,0.6617352041
8.6700,-0.2781257533,-0.04572518472,-0.6942099794,0.6622897986
8.6750,-0.2791293672,-0.04365199489,-0.6934182883,0.6628366143
8.6800,-0.2801213156,-0.04158184816,-0.6926295268,0.6633757134
8.6850,-0.2811004874,-0.03951337326,-0.6918439271,0.663907516
8.6900,-0.2820671563,-0.0374468699,-0.6910620084,0.66443145
8.6950,-0.2830201638,-0.03538082612,-0.690283338,0.6649486426
8.7000,-0.2839601978,-0.03331447153,-0.6895085753,0.6654582456
8.7050,-0.2848863033,-0.03124977615,-0.688737242,0.6659611529
8.7100,-0.2857982573,-0.02918402274,-0.6879689587,0.6664580713
8.7150,-0.2866992287,-0.02711684859,-0.6872020869,0.6669494138
8.7200,-0.2875890134,-0.02505005421,-0.6864376129,0.6674342347
8.7250,-0.288466695,-0.02298449322,-0.6856738455,0.6679147075
8.7300,-0.289337803,-0.02092099393,-0.6849096227,0.6683896742
8.7350,-0.2902027623,-0.01886210767,-0.6841435839,0.668860325
8.7400,-0.2910616833,-0.01680849747,-0.683376453,0.6693259254
8.7450,-0.2919160849,-0.01475876491,-0.6826069399,0.6697872378
8.7500,-0.2927660942,-0.01271383074,-0.6818335938,0.6702457183
8.7550,-0.2936109741,-0.0106714126,-0.681057713,0.670700461
8.7600,-0.2944506811,-0.00863248625,-0.6802802334,0.6711505648
8.7650,-0.2952868239,-0.006596384276,-0.679498428,0.671598143
8.7700,-0.2961193054,-0.004564699608,-0.6787146133,0.6720409171
8.7750,-0.29694927,-0.002536153443,-0.6779277826,0.6724794573
8.7800,-0.2977765168,-0.0005116420333,-0.6771380787,0.6729137439
8.7850,-0.2986014123,0.001508489597,-0.6763457339,0.6733434259
8.7900,-0.2994238016,0.003523649655,-0.675550166,0.6737692069
8.7950,-0.3002456194,0.005535376276,-0.6747517191,0.6741899178
8.8000,-0.3010669931,0.007544650529,-0.6739508985,0.674605018
8.8050,-0.3018877554,0.009550845281,-0.6731460082,0.6750163081
8.8100,-0.3027061109,0.01155671739,-0.6723391862,0.6754224392
8.8150,-0.3035229098,0.01356272893,-0.6715295418,0.6758239195
8.8200,-0.3043363293,0.01556988003,-0.6707187285,0.6762199085
8.8250,-0.3051455654,0.01758017449,-0.6699050093,0.6766124443
8.8300,-0.3059514732,0.01959606842,-0.6690876219,0.6770018053
8.8350,-0.3067535808,0.02161725792,-0.6682680774,0.677386678
8.8400,-0.307553296,0.02364294915,-0.6674453104,0.6777674665
8.8450,-0.3083515849,0.02567261915,-0.6666166275,0.6781463623
8.8500,-0.309150743,0.02770581662,-0.6657795147,0.6785247554
8.8550,-0.3099525819,0.02974111049,-0.6649332438,0.6789025295
8.8600,-0.3107567461,0.03177668888,-0.6640774616,0.679280216
8.8650,-0.311566559,0.03381171096,-0.6632110502,0.6796573772
8.8700,-0.3123806015,0.03584548993,-0.662332358,0.680036255
8.8750,-0.3132002657,0.0378770861,-0.6614413471,0.6804162434
8.8800,-0.3140269292,0.03990695561,-0.6605361063,0.6807984834
8.8850,-0.3148618221,0.04193514552,-0.659617187,0.6811817989
8.8900,-0.3157049213,0.04395898889,-0.6586838773,0.6815669884
8.8950,-0.3165593113,0.04597484204,-0.6577354481,0.681953515
8.9000,-0.3174239388,0.04798540067,-0.6567711096,0.6823424023
8.9050,-0.3183022407,0.04998773341,-0.6557906062,0.6827324446
8.9100,-0.3191917573,0.05198387434,-0.6547954595,0.6831231259
8.9150,-0.3200938585,0.05396753471,-0.6537868227,0.6835131435
8.9200,-0.321008859,0.05593878877,-0.6527637795,0.6839032187
8.9250,-0.3219389467,0.05789604,-0.6517250463,0.6842936702
8.9300,-0.3228810342,0.05984280927,-0.650672883,0.6846834855
8.9350,-0.3238333435,0.06178065477,-0.6496093645,0.6850713757
8.9400,-0.3247932566,0.06371279747,-0.6485356545,0.6854571648
8.9450,-0.3257560225,0.06564350719,-0.6474551795,0.6858394377
8.9500,-0.3267212213,0.06757273372,-0.6463687627,0.686217598
8.9550,-0.3276882704,0.06950094996,-0.6452778596,0.6865904888
8.9600,-0.3286573694,0.07142970359,-0.6441832496,0.6869571107
8.9650,-0.3296262399,0.0733592011,-0.6430842286,0.6873191722
8.9700,-0.3305955303,0.07528953502,-0.6419811856,0.6876759692
8.9750,-0.3315670256,0.07722170193,-0.6408729432,0.6880276062
8.9800,-0.3325406237,0.07915487494,-0.6397586526,0.6883749747
8.9850,-0.3335175837,0.08108786709,-0.6386366376,0.6887191186
8.9900,-0.3344977963,0.08302101007,-0.637507696,0.6890592672
8.9950,-0.3354829046,0.08495484374,-0.6363699626,0.6893962329
9.0000,-0.3364720789,0.08688941144,-0.6352232709,0.6897305027
9.0050,-0.3374637847,0.08882669054,-0.634069067,0.6900611794
9.0100,-0.3384584633,0.09076708778,-0.6329068729,0.690388365
9.0150,-0.3394545203,0.0927105583,-0.6317378661,0.6907116978
9.0200,-0.3404507551,0.09465867733,-0.6305624888,0.6910310889
9.0250,-0.3414482913,0.09661255156,-0.6293801277,0.69134632
9.0300,-0.3424443935,0.09857245107,-0.6281927844,0.6916568042
9.0350,-0.3434391916,0.100541007,-0.6270002538,0.6919622167
9.0400,-0.3444335293,0.1025154736,-0.6258013208,0.6922635542
9.0450,-0.3454269769,0.1044964674,-0.6245971987,0.6925597673
9.0500,-0.3464199524,0.1064851826,-0.6233874697,0.6928507669
9.0550,-0.3474114913,0.1084803897,-0.622172416,0.693136888
9.0600,-0.348401313,0.110481916,-0.6209517598,0.6934184764
9.0650,-0.3493893372,0.1124883812,-0.6197266693,0.6936946811
9.0700,-0.350373959,0.1145011249,-0.6184971389,0.6939660441
9.0750,-0.3513528076,0.1165208613,-0.6172648859,0.6942320607
9.0800,-0.3523270486,0.1185461573,-0.6160304283,0.6944918796
9.0850,-0.3532950587,0.1205763999,-0.6147942983,0.6947459277
9.0900,-0.3542591022,0.1226104862,-0.613555087,0.6949944694
9.0950,-0.3552198166,0.1246439802,-0.6123113291,0.6952392368
9.1000,-0.3561786665,0.1266732243,-0.6110611368,0.6954818034
9.1050,-0.357137517,0.1286984599,-0.6098051793,0.6957205931
9.1100,-0.3580959017,0.1307163533,-0.6085431466,0.6959567507
9.1150,-0.3590545847,0.1327240602,-0.6072758942,0.6961897137
9.1200,-0.360015403,0.1347222324,-0.6060018821,0.6964198078
9.1250,-0.3609771832,0.1367087826,-0.6047238006,0.6966457543
9.1300,-0.3619381769,0.1386812464,-0.6034430427,0.6968678227
9.1350,-0.3628988092,0.140639245,-0.6021603648,0.6970853262
9.1400,-0.3638582934,0.1425814278,-0.6008761212,0.6972987636
9.1450,-0.3648169021,0.1445073255,-0.5995928514,0.6975060383
9.1500,-0.3657727845,0.1464189101,-0.5983135551,0.6977052835
9.1550,-0.3667230142,0.1483166743,-0.5970410844,0.6978956502
9.1600,-0.3676670688,0.1501989157,-0.5957760398,0.6980774475
9.1650,-0.3686026708,0.1520680272,-0.5945213609,0.6982490513
9.1700,-0.3695304796,0.1539249331,-0.5932782624,0.69840908
9.1750,-0.3704509261,0.1557685108,-0.5920479215,0.6985567558
9.1800,-0.3713636276,0.1575987305,-0.5908303105,0.6986925221
9.1850,-0.3722698031,0.1594129473,-0.5896240094,0.6988177398
9.1900,-0.37316961,0.1612101697,-0.5884303199,0.6989316719
9.1950,-0.3740613596,0.1629934031,-0.5872499558,0.6990341474
9.2000,-0.3749450543,0.1647615804,-0.5860838952,0.6991248069
9.2050,-0.3758166355,0.166516444,-0.5849330408,0.6992048828
9.2100,-0.3766779435,0.1682571054,-0.5837968606,0.6992742659
9.2150,-0.3775240452,0.1699884556,-0.5826756739,0.699334383
9.2200,-0.3783562392,0.1717127325,-0.5815695755,0.6993841023
9.2250,-0.3791699967,0.1734298578,-0.5804806533,0.6994243413
9.2300,-0.3799659916,0.1751366016,-0.5794081066,0.6994564046
9.2350,-0.3807463717,0.1768326175,-0.5783497933,0.6994811952
9.2400,-0.3815123798,0.1785181774,-0.5773031382,0.6995002866
9.2450,-0.3822650485,0.1801904401,-0.5762658721,0.6995158917
9.2500,-0.3830033232,0.181850855,-0.5752372253,0.6995290241
9.2550,-0.3837284685,0.1834987945,-0.5742153676,0.6995408255
9.2600,-0.3844405797,0.1851328245,-0.5731995246,0.6995524161
9.2650,-0.3851390018,0.1867568491,-0.5721899967,0.6995630324
9.2700,-0.3858216127,0.1883717221,-0.5711865869,0.6995739135
9.2750,-0.3864858126,0.1899786288,-0.5701906183,0.6995852314
9.2800,-0.3871318808,0.1915781108,-0.5692033098,0.6995958308
9.2850,-0.3877602194,0.1931710589,-0.5682239892,0.6996059264
9.2900,-0.3883724562,0.1947567276,-0.5672519213,0.6996155445
9.2950,-0.3889683941,0.1963365744,-0.5662866367,0.6996248874
9.3000,-0.3895486257,0.1979085764,-0.5653291904,0.699633454
9.3050,-0.3901164486,0.1994720281,-0.5643786911,0.6996404502
9.3100,-0.3906728944,0.2010262711,-0.5634355269,0.6996452922
9.3150,-0.3912215856,0.2025687538,-0.5624970471,0.6996489426
9.3200,-0.3917647089,0.204099427,-0.5615629132,0.699650578
9.3250,-0.3923024727,0.205618235,-0.56063403,0.6996494807
9.3300,-0.3928358677,0.2071277737,-0.5597092464,0.6996453572
9.3350,-0.3933641659,0.208626368,-0.5587892007,0.699638693
9.3400,-0.3938892368,0.2101145158,-0.5578731735,0.69962896
9.3450,-0.394411693,0.2115915129,-0.5569606534,0.6996165226
9.3500,-0.394931957,0.2130532904,-0.5560531028,0.6996013091
9.3550,-0.3954504631,0.2145000398,-0.5551495842,0.6995838787
9.3600,-0.3959677415,0.2159337642,-0.5542514763,0.6995623333
9.3650,-0.3964825611,0.2173541484,-0.5533599164,0.6995366723
9.3700,-0.3969940013,0.2187611799,-0.5524745008,0.699507852
9.3750,-0.3975034872,0.2201526757,-0.5515954249,0.6994757067
9.3800,-0.398011371,0.221526586,-0.550722767,0.6994407438
9.3850,-0.3985179647,0.2228823825,-0.5498563647,0.6994032125
9.3900,-0.3990229849,0.2242188753,-0.5489962078,0.6993637947
9.3950,-0.3995240559,0.2255386779,-0.5481449232,0.6993210826
9.4000,-0.4000216384,0.2268405723,-0.5473026976,0.6992751968
9.4050,-0.4005152255,0.2281239062,-0.5464712583,0.6992254296
9.4100,-0.4010052654,0.2293886676,-0.5456499395,0.6991721961
9.4150,-0.4014899076,0.2306372872,-0.5448389975,0.6991157004
9.4200,-0.4019673103,0.2318683811,-0.5440410391,0.6990555651
9.4250,-0.4024384626,0.2330817654,-0.5432548097,0.6989924078
9.4300,-0.4029041017,0.2342777509,-0.542480895,0.6989253886
9.4350,-0.4033629788,0.2354551844,-0.5417192121,0.6988558211
9.4400,-0.4038153978,0.2366166009,-0.5409708492,0.6987819753
9.4450,-0.4042603869,0.2377615749,-0.5402359919,0.6987045485
9.4500,-0.4046997014,0.2388877711,-0.5395145626,0.6986235189
9.4550,-0.4051334172,0.2399969651,-0.5388054616,0.6985392226
9.4600,-0.4055619501,0.2410901379,-0.5381096201,0.6984504899
9.4650,-0.4059855699,0.2421671548,-0.5374266397,0.6983576398
9.4700,-0.4064059997,0.2432272265,-0.5367571915,0.6982595485
9.4750,-0.4068224724,0.244270585,-0.5360992337,0.6981582693
9.4800,-0.4072358229,0.2452974604,-0.5354541015,0.698052323
9.4850,-0.4076433703,0.2463115143,-0.5348230177,0.6979411582
9.4900,-0.4080441228,0.2473149152,-0.5342062313,0.6978244973
9.4950,-0.4084383106,0.2483077838,-0.533603131,0.6977027229
9.5000,-0.4088248891,0.2492889159,-0.5330137194,0.6975769645
9.5050,-0.4092065317,0.2502571684,-0.5324376205,0.6974464455
9.5100,-0.4095834871,0.2512134167,-0.531873736,0.6973116343
9.5150,-0.4099585203,0.2521565287,-0.5313208376,0.6971723347
9.5200,-0.4103301224,0.25308602,-0.5307786819,0.6970298759
9.5250,-0.4107001846,0.2540011279,-0.5302449807,0.6968852458
9.5300,-0.411071454,0.2549007108,-0.5297182349,0.6967384581
9.5350,-0.4114435328,0.2557848664,-0.5291970133,0.6965908717
9.5400,-0.4118160637,0.2566517612,-0.5286818442,0.696443042
9.5450,-0.4121885166,0.257503405,-0.5281717646,0.696295347
9.5500,-0.4125618651,0.2583395885,-0.5276674719,0.6961468261
9.5550,-0.4129332124,0.2591621304,-0.5271679805,0.6959993338
9.5600,-0.4133018729,0.2599738132,-0.5266744094,0.6958514531
9.5650,-0.413667905,0.2607726918,-0.5261849555,0.6957052969
9.5700,-0.4140310065,0.2615589314,-0.525700546,0.6955603403
9.5750,-0.4143910091,0.2623332861,-0.5252203418,0.6954170915
9.5800,-0.4147489134,0.2630946339,-0.5247426529,0.6952767079
9.5850,-0.4151047571,0.2638443786,-0.5242676409,0.6951385654
9.5900,-0.4154567366,0.26458291,-0.5237941236,0.6950045323
9.5950,-0.4158062741,0.2653095884,-0.5233225918,0.6948736789
9.6000,-0.416152101,0.2660271984,-0.5228511419,0.6947471784
9.6050,-0.4164941223,0.2667359112,-0.5223795938,0.6946251937
9.6100,-0.4168329439,0.267436112,-0.5219066416,0.6945082292
9.6150,-0.4171667633,0.2681295358,-0.5214330629,0.6943961438
9.6200,-0.4174958125,0.2688149462,-0.5209565912,0.6942910062
9.6250,-0.4178211316,0.2694930598,-0.5204767188,0.6941923205
9.6300,-0.4181408989,0.2701625794,-0.5199949848,0.6941005584
9.6350,-0.4184556114,0.2708245605,-0.5195122079,0.6940144268
9.6400,-0.4187634029,0.2714829995,-0.5190295354,0.6939326586
9.6450,-0.4190626768,0.2721369075,-0.5185462325,0.6938571764
9.6500,-0.4193540085,0.2727891888,-0.5180624523,0.6937864005
9.6550,-0.4196374367,0.2734395347,-0.5175781333,0.6937204902
9.6600,-0.419913118,0.2740870072,-0.5170929213,0.6936600007
9.6650,-0.4201807025,0.2747319489,-0.5166069933,0.6936048933
9.6700,-0.4204408946,0.2753746611,-0.5161196979,0.6935551223
9.6750,-0.4206944446,0.2760140444,-0.515630627,0.6935109863
9.6800,-0.4209406785,0.2766514921,-0.5151383822,0.6934733912
9.6850,-0.421179623,0.277287455,-0.5146443566,0.693441114
9.6900,-0.4214107983,0.2779211702,-0.5141493085,0.6934141986
9.6950,-0.4216349168,0.2785507699,-0.5136539973,0.6933924117
9.7000,-0.4218494617,0.2791786374,-0.5131602779,0.6933749702
9.7050,-0.4220550021,0.2798009583,-0.512667349,0.6933636767
9.7100,-0.4222523675,0.2804172225,-0.5121764833,0.6933573173
9.7150,-0.4224422479,0.2810252157,-0.5116899269,0.693354739
9.7200,-0.4226261828,0.2816224457,-0.511207599,0.6933561122
9.7250,-0.4228033404,0.2822090394,-0.5107318227,0.6933602229
9.7300,-0.4229729429,0.2827841898,-0.5102632824,0.6933674165
9.7350,-0.4231364917,0.2833475285,-0.509804529,0.6933751003
9.7400,-0.4232925531,0.2838978598,-0.5093566377,0.6933839018
9.7450,-0.4234409737,0.2844336254,-0.5089212684,0.6933933927
9.7500,-0.4235816111,0.2849554362,-0.5084998262,0.6934024408
9.7550,-0.4237152977,0.2854618502,-0.5080935209,0.6934103061
9.7600,-0.4238402295,0.2859515563,-0.5077031794,0.693418091
9.7650,-0.4239569514,0.2864259004,-0.5073307999,0.6934235116
