type,name,time_units,begin_time,frequency,count,units
signal_3d,"Noraxon MyoMotion-Trajectories-Lateral humeral epicondyle RT","s",0.0000,200,5008,"mm"

time,x,y,z
0.0000,195.4688127,-19.59305643,1237.903447
0.0050,195.4840449,-19.59860932,1237.901336
0.0100,195.4992766,-19.60416352,1237.899226
0.0150,195.514508,-19.60971903,1237.897117
0.0200,195.5306761,-19.61570632,1237.894861
0.0250,195.5476403,-19.62207718,1237.892477
0.0300,195.5652414,-19.62878374,1237.889984
0.0350,195.5833089,-19.63578798,1237.887401
0.0400,195.6016709,-19.64306468,1237.884748
0.0450,195.6201626,-19.65059746,1237.882044
0.0500,195.6386296,-19.6583727,1237.879304
0.0550,195.6569258,-19.66637737,1237.876548
0.0600,195.6749118,-19.67459696,1237.873795
0.0650,195.6924548,-19.68300832,1237.871065
0.0700,195.7094344,-19.69157252,1237.868381
0.0750,195.7257474,-19.70023507,1237.865761
0.0800,195.7413092,-19.70893115,1237.863225
0.0850,195.7560491,-19.7175916,1237.860788
0.0900,195.7699082,-19.72615008,1237.858462
0.0950,195.7828414,-19.73455028,1237.856255
0.1000,195.7948155,-19.7427499,1237.854173
0.1050,195.8058058,-19.75072041,1237.852219
0.1100,195.8157954,-19.75844443,1237.850395
0.1150,195.8247767,-19.7659145,1237.848698
0.1200,195.832749,-19.77313102,1237.847127
0.1250,195.8397113,-19.78009591,1237.845681
0.1300,195.8456612,-19.78680618,1237.84436
0.1350,195.8505958,-19.79325205,1237.843169
0.1400,195.8545126,-19.79941645,1237.842112
0.1450,195.8574175,-19.80527294,1237.841198
0.1500,195.8593383,-19.81078388,1237.840435
0.1550,195.8732349,-19.81299017,1237.838224
0.1600,195.8862303,-19.81467863,1237.836081
0.1650,195.8984801,-19.81579643,1237.834117
0.1700,195.9100717,-19.81569576,1237.832258
0.1750,195.9220561,-19.81269568,1237.830592
0.1800,195.9332564,-19.80834386,1237.829154
0.1850,195.9438379,-19.8020586,1237.828019
0.1900,195.9541042,-19.79470994,1237.826971
0.1950,195.9641179,-19.78627744,1237.826037
0.2000,195.9745137,-19.77668808,1237.825123
0.2050,195.9853424,-19.76594351,1237.824288
0.2100,195.9955299,-19.75415284,1237.823587
0.2150,196.0061545,-19.74124572,1237.822926
0.2200,196.0162285,-19.72696249,1237.822495
0.2250,196.0276086,-19.71159319,1237.821906
0.2300,196.0392626,-19.69489846,1237.8214
0.2350,196.0511312,-19.6774699,1237.820926
0.2400,196.0625124,-19.65895791,1237.820518
0.2450,196.073915,-19.63993079,1237.820099
0.2500,196.0856904,-19.61948529,1237.819633
0.2550,196.0981372,-19.59922343,1237.818933
0.2600,196.1093355,-19.57836853,1237.818315
0.2650,196.1205397,-19.55747805,1237.817641
0.2700,196.1322638,-19.53654647,1237.816638
0.2750,196.1438805,-19.51623037,1237.815472
0.2800,196.1552913,-19.49512376,1237.814234
0.2850,196.1670944,-19.4742074,1237.812647
0.2900,196.1786041,-19.45311637,1237.810956
0.2950,196.1883847,-19.43311836,1237.809336
0.3000,196.1978666,-19.41266162,1237.807547
0.3050,196.2064932,-19.39334809,1237.805684
0.3100,196.2146695,-19.37469813,1237.803694
0.3150,196.2217828,-19.35636619,1237.801677
0.3200,196.2288845,-19.33835694,1237.799468
0.3250,196.2368524,-19.32114446,1237.796967
0.3300,196.2451825,-19.30481876,1237.794194
0.3350,196.2522879,-19.28862448,1237.791536
0.3400,196.2589367,-19.27352651,1237.788757
0.3450,196.2641214,-19.25909219,1237.786076
0.3500,196.2694353,-19.24607601,1237.78325
0.3550,196.2743247,-19.23340431,1237.780375
0.3600,196.2783842,-19.2220366,1237.777605
0.3650,196.2823853,-19.21135012,1237.774789
0.3700,196.2856255,-19.20125079,1237.772091
0.3750,196.2874389,-19.19208123,1237.769573
0.3800,196.2880032,-19.18378534,1237.767285
0.3850,196.2877987,-19.17616018,1237.765148
0.3900,196.2870762,-19.16853319,1237.763263
0.3950,196.2854862,-19.16237678,1237.761581
0.4000,196.2832018,-19.15555255,1237.760249
0.4050,196.280335,-19.14949407,1237.759162
0.4100,196.2772582,-19.14357596,1237.758283
0.4150,196.2736535,-19.13676475,1237.75781
0.4200,196.2701743,-19.12999089,1237.757544
0.4250,196.2652862,-19.12292709,1237.757758
0.4300,196.2604769,-19.11642412,1237.758175
0.4350,196.2554904,-19.10898463,1237.75899
0.4400,196.2494542,-19.10174923,1237.760236
0.4450,196.2428925,-19.09417143,1237.761815
0.4500,196.236688,-19.08565547,1237.763656
0.4550,196.2305216,-19.07777462,1237.765723
0.4600,196.2243346,-19.06955069,1237.767993
0.4650,196.2168313,-19.06123282,1237.770623
0.4700,196.2100841,-19.05311965,1237.773247
0.4750,196.2026954,-19.04590949,1237.77593
0.4800,196.1957332,-19.03907274,1237.778632
0.4850,196.1889313,-19.03221824,1237.781238
0.4900,196.18279,-19.02434744,1237.783739
0.4950,196.1773268,-19.0175246,1237.785938
0.5000,196.1729093,-19.0096898,1237.787871
0.5050,196.1704672,-19.00221513,1237.789153
0.5100,196.1708445,-18.99455358,1237.78972
0.5150,196.1732976,-18.98724256,1237.789584
0.5200,196.1780997,-18.98015077,1237.788641
0.5250,196.1846648,-18.97282837,1237.787002
0.5300,196.1944325,-18.96603615,1237.784318
0.5350,196.2075846,-18.95911263,1237.780538
0.5400,196.2246376,-18.9524924,1237.775474
0.5450,196.245795,-18.94556492,1237.76914
0.5500,196.2700544,-18.9389756,1237.761603
0.5550,196.2978005,-18.93206128,1237.752743
0.5600,196.3297337,-18.92544318,1237.742482
0.5650,196.3657007,-18.91855502,1237.730747
0.5700,196.4058168,-18.91146762,1237.71745
0.5750,196.4485095,-18.90391857,1237.702951
0.5800,196.4941695,-18.89592011,1237.687125
0.5850,196.5427444,-18.88809063,1237.669967
0.5900,196.5934198,-18.88105593,1237.651623
0.5950,196.6469157,-18.87241656,1237.632089
0.6000,196.702351,-18.86377348,1237.611473
0.6050,196.75951,-18.85533228,1237.589824
0.6100,196.8184608,-18.84669283,1237.567156
0.6150,196.8789226,-18.83849833,1237.543575
0.6200,196.9395124,-18.83104236,1237.519339
0.6250,196.9998929,-18.82399648,1237.494525
0.6300,197.060158,-18.81748228,1237.469218
0.6350,197.1203094,-18.81202638,1237.443366
0.6400,197.1796073,-18.80834297,1237.417082
0.6450,197.2380493,-18.80596179,1237.390517
0.6500,197.2941948,-18.80503136,1237.3638
0.6550,197.3481387,-18.80652668,1237.337007
0.6600,197.3987182,-18.80993071,1237.310437
0.6650,197.4453541,-18.8160459,1237.28419
0.6700,197.4885391,-18.82315996,1237.258441
0.6750,197.5283178,-18.83196595,1237.233203
0.6800,197.5627554,-18.84238085,1237.208888
0.6850,197.5919363,-18.85404159,1237.185648
0.6900,197.6159376,-18.8665353,1237.163491
0.6950,197.634491,-18.87904248,1237.142514
0.7000,197.6466199,-18.8918612,1237.122885
0.7050,197.6526344,-18.90413579,1237.104644
0.7100,197.6531051,-18.91603081,1237.087669
0.7150,197.6472815,-18.92699087,1237.072215
0.7200,197.6357242,-18.93721071,1237.05814
0.7250,197.6189724,-18.94599598,1237.045471
0.7300,197.5957541,-18.95245165,1237.034507
0.7350,197.5666099,-18.95854061,1237.024906
0.7400,197.5317065,-18.96284221,1237.016791
0.7450,197.4918151,-18.96689021,1237.009943
0.7500,197.4465899,-18.97150885,1237.004122
0.7550,197.3973034,-18.97581418,1236.999194
0.7600,197.3443516,-18.98062897,1236.994947
0.7650,197.2890221,-18.98611885,1236.991007
0.7700,197.2306817,-18.99274951,1236.987395
0.7750,197.1708192,-19.00125597,1236.98373
0.7800,197.1096237,-19.01145782,1236.979892
0.7850,197.0483728,-19.02500118,1236.975538
0.7900,196.9864367,-19.04229885,1236.970835
0.7950,196.924775,-19.06241399,1236.965663
0.8000,196.863332,-19.08608424,1236.959964
0.8050,196.8021852,-19.11239605,1236.953876
0.8100,196.7410821,-19.14241526,1236.947386
0.8150,196.6817666,-19.17499373,1236.940334
0.8200,196.6236357,-19.21025277,1236.932738
0.8250,196.5678266,-19.24797524,1236.924472
0.8300,196.5137253,-19.28821542,1236.915512
0.8350,196.4622947,-19.32998359,1236.905809
0.8400,196.4126753,-19.3733193,1236.895535
0.8450,196.3657037,-19.41866917,1236.884404
0.8500,196.3226655,-19.46639239,1236.872058
0.8550,196.282826,-19.5161811,1236.85868
0.8600,196.2465093,-19.56700486,1236.844216
0.8650,196.2142185,-19.62001046,1236.828447
0.8700,196.1850664,-19.67594257,1236.811511
0.8750,196.1609377,-19.73527357,1236.792896
0.8800,196.142099,-19.79819608,1236.772586
0.8850,196.1282651,-19.86394914,1236.750637
0.8900,196.1199474,-19.93268669,1236.726877
0.8950,196.1174905,-20.00643368,1236.701143
0.9000,196.1206962,-20.08434805,1236.673536
0.9050,196.1301699,-20.16537896,1236.643956
0.9100,196.146623,-20.25040791,1236.612338
0.9150,196.1695004,-20.33797174,1236.578911
0.9200,196.1988561,-20.42886708,1236.543575
0.9250,196.2344087,-20.5224646,1236.50652
0.9300,196.275752,-20.61897925,1236.46784
0.9350,196.3225714,-20.71724477,1236.427803
0.9400,196.3730685,-20.81656873,1236.386977
0.9450,196.427753,-20.91752134,1236.345166
0.9500,196.4854374,-21.01941183,1236.302811
0.9550,196.5450145,-21.12044316,1236.260318
0.9600,196.605492,-21.22093827,1236.217754
0.9650,196.6659664,-21.3206784,1236.175316
0.9700,196.7260775,-21.42032723,1236.132992
0.9750,196.7836159,-21.51841525,1236.091196
0.9800,196.8391067,-21.61455884,1236.049954
0.9850,196.8912874,-21.70956342,1236.009241
0.9900,196.9383546,-21.80286607,1235.969485
0.9950,196.980169,-21.89468693,1235.930727
1.0000,197.0174743,-21.98508952,1235.892831
1.0050,197.0486456,-22.07297811,1235.856175
1.0100,197.0731596,-22.15903392,1235.82087
1.0150,197.0919682,-22.24275589,1235.786703
1.0200,197.1039378,-22.32400023,1235.753984
1.0250,197.109315,-22.4029069,1235.722712
1.0300,197.1078798,-22.47867039,1235.692931
1.0350,197.1009796,-22.55032858,1235.664516
1.0400,197.0880678,-22.6181583,1235.637525
1.0450,197.0693074,-22.68195488,1235.61194
1.0500,197.0449996,-22.7414149,1235.587837
1.0550,197.0137776,-22.79711545,1235.565264
1.0600,196.9759184,-22.84836736,1235.544366
1.0650,196.9309383,-22.89526868,1235.525237
1.0700,196.8800313,-22.93872701,1235.507487
1.0750,196.8220312,-22.97846344,1235.491287
1.0800,196.7582354,-23.01605975,1235.476256
1.0850,196.6875858,-23.05033763,1235.462624
1.0900,196.6112963,-23.0819536,1235.449844
1.0950,196.529453,-23.11070442,1235.437938
1.1000,196.4424524,-23.13764593,1235.426707
1.1050,196.3519717,-23.16432901,1235.415626
1.1100,196.2595874,-23.19051911,1235.404353
1.1150,196.1660019,-23.21759302,1235.392583
1.1200,196.0726541,-23.24525045,1235.380019
1.1250,195.9809962,-23.27436392,1235.366238
1.1300,195.893123,-23.30511967,1235.350891
1.1350,195.8091732,-23.33789326,1235.333754
1.1400,195.7318953,-23.37444475,1235.314075
1.1450,195.6617154,-23.41479674,1235.291757
1.1500,195.599575,-23.45943562,1235.266554
1.1550,195.5458214,-23.5083848,1235.238198
1.1600,195.5029307,-23.56295082,1235.206136
1.1650,195.4703097,-23.62339243,1235.170338
1.1700,195.4494462,-23.69025425,1235.13042
1.1750,195.4396044,-23.76334425,1235.086455
1.1800,195.4418607,-23.8438194,1235.038081
1.1850,195.4572101,-23.93229974,1234.984934
1.1900,195.486987,-24.02834492,1234.926738
1.1950,195.5319274,-24.13260675,1234.863184
1.2000,195.5930972,-24.24507588,1234.793881
1.2050,195.6713231,-24.36677569,1234.718658
1.2100,195.7652463,-24.49789251,1234.637551
1.2150,195.8779596,-24.63937046,1234.549892
1.2200,196.0091702,-24.7899969,1234.455836
1.2250,196.1599627,-24.95078846,1234.355137
1.2300,196.3306962,-25.12176352,1234.247683
1.2350,196.5218666,-25.30280567,1234.133474
1.2400,196.7348323,-25.4931055,1234.012348
1.2450,196.9690061,-25.6935149,1233.884389
1.2500,197.2235742,-25.90279548,1233.749822
1.2550,197.4989191,-26.12145536,1233.608582
1.2600,197.7949999,-26.34744307,1233.461037
1.2650,198.1097189,-26.58033353,1233.307665
1.2700,198.4408494,-26.81923416,1233.148991
1.2750,198.7869829,-27.06299425,1232.98554
1.2800,199.1466772,-27.31130705,1232.817624
1.2850,199.5162824,-27.56174408,1232.646103
1.2900,199.8942073,-27.81501513,1232.471353
1.2950,200.2759857,-28.06864252,1232.294338
1.3000,200.658463,-28.32249662,1232.115688
1.3050,201.0393089,-28.57528493,1231.935932
1.3100,201.4159461,-28.82636009,1231.755627
1.3150,201.784951,-29.07422771,1231.575534
1.3200,202.1448883,-29.31805913,1231.395892
1.3250,202.4932691,-29.55737455,1231.21713
1.3300,202.8288164,-29.79212815,1231.039584
1.3350,203.1488017,-30.0215622,1230.863687
1.3400,203.4528049,-30.24479645,1230.689508
1.3450,203.7399761,-30.46106406,1230.517251
1.3500,204.0090862,-30.66976653,1230.347123
1.3550,204.2607375,-30.8711854,1230.178958
1.3600,204.4950614,-31.06425617,1230.012856
1.3650,204.7109097,-31.24958985,1229.848854
1.3700,204.9072376,-31.42576914,1229.687342
1.3750,205.0840608,-31.59236421,1229.528456
1.3800,205.2411573,-31.74837579,1229.37223
1.3850,205.3776881,-31.89464032,1229.218806
1.3900,205.4946421,-32.03052911,1229.068223
1.3950,205.5917198,-32.1566662,1228.92046
1.4000,205.6683868,-32.27239761,1228.775618
1.4050,205.7233852,-32.37619266,1228.633974
1.4100,205.7567096,-32.46864423,1228.495476
1.4150,205.7660188,-32.54972727,1228.360511
1.4200,205.7528453,-32.61941734,1228.228885
1.4250,205.715162,-32.67663755,1228.101047
1.4300,205.6532268,-32.72163365,1227.976881
1.4350,205.568019,-32.75509904,1227.856314
1.4400,205.4591546,-32.77578688,1227.739579
1.4450,205.3276062,-32.78430275,1227.626486
1.4500,205.1736079,-32.78091961,1227.517144
1.4550,204.9989917,-32.76620878,1227.411481
1.4600,204.8040296,-32.73994116,1227.309468
1.4650,204.5912899,-32.7025886,1227.210807
1.4700,204.3616772,-32.65328856,1227.115551
1.4750,204.117683,-32.59356243,1227.023226
1.4800,203.8609115,-32.52386011,1226.933601
1.4850,203.5924741,-32.44369225,1226.846661
1.4900,203.314735,-32.35385558,1226.761991
1.4950,203.0287295,-32.25375712,1226.679524
1.5000,202.7366261,-32.14510428,1226.599051
1.5050,202.439345,-32.02716696,1226.52037
1.5100,202.1386856,-31.89912642,1226.443349
1.5150,201.8348595,-31.76083207,1226.368065
1.5200,201.5298458,-31.61296883,1226.294249
1.5250,201.2240982,-31.45487579,1226.221953
1.5300,200.919227,-31.28631638,1226.150946
1.5350,200.615373,-31.10775608,1226.08117
1.5400,200.3134659,-30.91903163,1226.012513
1.5450,200.0141729,-30.71960524,1225.944998
1.5500,199.7190726,-30.51084672,1225.878316
1.5550,199.4284524,-30.2928871,1225.812446
1.5600,199.142143,-30.06745627,1225.747267
1.5650,198.8609701,-29.83381172,1225.682671
1.5700,198.5845987,-29.59433452,1225.618566
1.5750,198.3141913,-29.3493014,1225.554655
1.5800,198.0493936,-29.09931535,1225.490913
1.5850,197.7914186,-28.84514889,1225.427116
1.5900,197.539378,-28.58701842,1225.363282
1.5950,197.2955082,-28.32656159,1225.299001
1.6000,197.0604565,-28.06264709,1225.23408
1.6050,196.8347631,-27.79772191,1225.168335
1.6100,196.6171268,-27.53091296,1225.101859
1.6150,196.4087343,-27.26289422,1225.034466
1.6200,196.2103884,-26.99438767,1224.965952
1.6250,196.0216167,-26.7246647,1224.896326
1.6300,195.8438302,-26.45473876,1224.825248
1.6350,195.6763851,-26.18490457,1224.752767
1.6400,195.5188189,-25.91528182,1224.679056
1.6450,195.3710285,-25.64646332,1224.604019
1.6500,195.232668,-25.37900196,1224.527644
1.6550,195.1028472,-25.11199786,1224.450335
1.6600,194.9807158,-24.84766343,1224.371894
1.6650,194.8668425,-24.58483927,1224.292445
1.6700,194.7592455,-24.32485151,1224.212141
1.6750,194.6588741,-24.06852904,1224.130669
1.6800,194.5642259,-23.81660531,1224.048254
1.6850,194.4754672,-23.56835483,1223.964866
1.6900,194.3920847,-23.32427178,1223.880616
1.6950,194.3129706,-23.08431807,1223.795621
1.7000,194.2386531,-22.8486512,1223.709767
1.7050,194.169511,-22.61781359,1223.62296
1.7100,194.1040064,-22.39114159,1223.5354
1.7150,194.0433903,-22.16743195,1223.446978
1.7200,193.9863023,-21.94694515,1223.357907
1.7250,193.9332336,-21.72963816,1223.268016
1.7300,193.8836441,-21.51513568,1223.177465
1.7350,193.837836,-21.30298675,1223.086256
1.7400,193.7955851,-21.0924233,1222.994327
1.7450,193.7568417,-20.88282222,1222.901869
1.7500,193.7215273,-20.67305564,1222.80898
1.7550,193.6893856,-20.46422385,1222.715477
1.7600,193.6600406,-20.25607951,1222.621471
1.7650,193.6320348,-20.04806286,1222.527309
1.7700,193.6049796,-19.84166325,1222.432798
1.7750,193.578942,-19.63774813,1222.338049
1.7800,193.5515343,-19.43569155,1222.243535
1.7850,193.5214319,-19.23668353,1222.149445
1.7900,193.4875155,-19.0429246,1222.055753
1.7950,193.4490548,-18.85448826,1221.962705
1.8000,193.4043395,-18.67052805,1221.870656
1.8050,193.353277,-18.4918461,1221.7797
1.8100,193.2960639,-18.31907633,1221.689741
1.8150,193.2326254,-18.1518316,1221.600767
1.8200,193.1621986,-17.99012032,1221.512844
1.8250,193.0861139,-17.83356763,1221.425839
1.8300,193.0038692,-17.68084713,1221.339962
1.8350,192.9165849,-17.53188893,1221.25507
1.8400,192.8242497,-17.38567147,1221.171166
1.8450,192.7275807,-17.24146125,1221.08824
1.8500,192.6266612,-17.09758791,1221.006413
1.8550,192.5223779,-16.95422235,1220.925504
1.8600,192.4147995,-16.80864628,1220.845684
1.8650,192.3051804,-16.66144872,1220.766844
1.8700,192.1956929,-16.51016134,1220.688891
1.8750,192.0860905,-16.35531848,1220.611916
1.8800,191.9767898,-16.19540162,1220.535995
1.8850,191.8686754,-16.03151426,1220.460973
1.8900,191.7623647,-15.86280658,1220.386875
1.8950,191.6575125,-15.6893664,1220.313842
1.9000,191.5528295,-15.51245115,1220.241988
1.9050,191.4492895,-15.33099561,1220.171303
1.9100,191.3475488,-15.14559128,1220.101821
1.9150,191.2471324,-14.95702599,1220.033501
1.9200,191.1465936,-14.76482972,1219.966633
1.9250,191.047159,-14.57054578,1219.900969
1.9300,190.9490486,-14.37275507,1219.836712
1.9350,190.8516316,-14.17166277,1219.773958
1.9400,190.7559715,-13.96833122,1219.712323
1.9450,190.6613873,-13.76193831,1219.652166
1.9500,190.568111,-13.55161608,1219.593487
1.9550,190.4762728,-13.33799213,1219.536107
1.9600,190.3873457,-13.11994222,1219.480048
1.9650,190.3005498,-12.89739921,1219.425331
1.9700,190.2179602,-12.67024565,1219.371575
1.9750,190.1386675,-12.43848683,1219.318847
1.9800,190.0631189,-12.20134736,1219.267241
1.9850,189.9924084,-11.95997601,1219.216384
1.9900,189.9245891,-11.71507905,1219.166391
1.9950,189.8600976,-11.46640499,1219.117228
2.0000,189.7995237,-11.21463145,1219.068609
2.0050,189.7413862,-10.95975456,1219.020745
2.0100,189.6856986,-10.70191547,1218.973667
2.0150,189.6340453,-10.44141577,1218.927106
2.0200,189.5851026,-10.17900489,1218.881077
2.0250,189.5393001,-9.914498823,1218.835486
2.0300,189.4961792,-9.647801752,1218.790467
2.0350,189.4538301,-9.379529628,1218.746083
2.0400,189.4129035,-9.109277491,1218.702468
2.0450,189.3721772,-8.837316309,1218.659728
2.0500,189.3308279,-8.563982366,1218.61787
2.0550,189.2895307,-8.287668145,1218.577169
2.0600,189.2477327,-8.009102798,1218.537606
2.0650,189.205671,-7.727370564,1218.499321
2.0700,189.1634892,-7.441658308,1218.462358
2.0750,189.1192755,-7.151567328,1218.427086
2.0800,189.0740352,-6.856733014,1218.393532
2.0850,189.0263305,-6.557859782,1218.361666
2.0900,188.9760681,-6.253953038,1218.331777
2.0950,188.9222014,-5.945296615,1218.304004
2.1000,188.8655132,-5.632398051,1218.278143
2.1050,188.8039742,-5.316401258,1218.254354
2.1100,188.7373285,-4.997659756,1218.232677
2.1150,188.6641338,-4.678412732,1218.21304
2.1200,188.5834999,-4.357712048,1218.195789
2.1250,188.4938963,-4.0368446,1218.180918
2.1300,188.3943999,-3.716508311,1218.168436
2.1350,188.2849138,-3.397137752,1218.158224
2.1400,188.1648867,-3.078675664,1218.150463
2.1450,188.0348963,-2.760825512,1218.1451
2.1500,187.8947126,-2.444363928,1218.142045
2.1550,187.7441646,-2.128513713,1218.141443
2.1600,187.5842415,-1.814673645,1218.143054
2.1650,187.414538,-1.502493692,1218.146882
2.1700,187.2334883,-1.191210812,1218.153313
2.1750,187.0415759,-0.8800657683,1218.162397
2.1800,186.839527,-0.5708969225,1218.173816
2.1850,186.6272812,-0.2631419463,1218.187526
2.1900,186.4057183,0.04405916509,1218.203534
2.1950,186.1751715,0.351471091,1218.221875
2.2000,185.9362371,0.6593447044,1218.24251
2.2050,185.6896045,0.9678720494,1218.265408
2.2100,185.435298,1.278144755,1218.290664
2.2150,185.1739123,1.590354778,1218.318231
2.2200,184.9064605,1.90425919,1218.34793
2.2250,184.6329629,2.22091974,1218.380008
2.2300,184.3523967,2.539736205,1218.414427
2.2350,184.0664539,2.861618431,1218.451107
2.2400,183.7750526,3.186759398,1218.490162
2.2450,183.478457,3.514851916,1218.531453
2.2500,183.1783204,3.845475752,1218.574653
2.2550,182.8737123,4.179244693,1218.62
2.2600,182.5642114,4.515463216,1218.667355
2.2650,182.2508923,4.854152247,1218.716538
