type,name,time_units,begin_time,frequency,count,units
signal_3d,"Noraxon MyoMotion-Segments-Forearm RT-Sensor Acceleration","s",0.0000,200,5008,"mG"

time,x,y,z
0.0000,-970.703125,189.9414063,132.3242188
0.0050,-984.8632813,172.8515625,130.859375
0.0100,-979.9804688,180.6640625,125.9765625
0.0150,-981.9335938,174.8046875,130.859375
0.0200,-975.5859375,188.9648438,123.5351563
0.0250,-982.421875,177.2460938,134.765625
0.0300,-969.7265625,185.0585938,119.6289063
0.0350,-974.609375,182.1289063,132.3242188
0.0400,-979.9804688,181.1523438,122.0703125
0.0450,-975.0976563,179.6875,125
0.0500,-971.6796875,187.0117188,122.5585938
0.0550,-970.2148438,186.5234375,114.2578125
0.0600,-975.0976563,179.6875,121.09375
0.0650,-976.0742188,181.640625,114.7460938
0.0700,-969.7265625,189.9414063,125.4882813
0.0750,-976.0742188,178.2226563,118.6523438
0.0800,-976.0742188,180.1757813,117.6757813
0.0850,-970.2148438,181.1523438,128.90625
0.0900,-980.46875,176.7578125,112.7929688
0.0950,-979.0039063,177.734375,131.3476563
0.1000,-977.5390625,181.640625,125
0.1050,-978.0273438,184.0820313,112.3046875
0.1100,-975.0976563,180.6640625,139.1601563
0.1150,-972.1679688,180.1757813,123.5351563
0.1200,-974.609375,179.1992188,123.046875
0.1250,-981.9335938,172.3632813,126.4648438
0.1300,-974.1210938,179.6875,128.4179688
0.1350,-975.0976563,176.2695313,116.6992188
0.1400,-978.0273438,168.9453125,119.140625
0.1450,-971.1914063,178.2226563,126.953125
0.1500,-975.0976563,171.3867188,115.234375
0.1550,-980.46875,173.3398438,110.3515625
0.1600,-978.0273438,177.734375,120.6054688
0.1650,-982.9101563,175.2929688,118.6523438
0.1700,-984.8632813,180.1757813,122.0703125
0.1750,-979.4921875,186.0351563,122.5585938
0.1800,-986.8164063,184.0820313,115.7226563
0.1850,-983.8867188,188.9648438,127.4414063
0.1900,-984.375,187.0117188,119.6289063
0.1950,-988.28125,180.1757813,125
0.2000,-982.421875,188.4765625,128.4179688
0.2050,-991.2109375,182.6171875,129.3945313
0.2100,-985.8398438,185.546875,125.4882813
0.2150,-984.8632813,179.1992188,111.8164063
0.2200,-976.5625,188.4765625,124.5117188
0.2250,-978.515625,181.1523438,117.6757813
0.2300,-975.5859375,179.1992188,121.5820313
0.2350,-977.5390625,178.2226563,122.5585938
0.2400,-976.0742188,176.2695313,126.953125
0.2450,-977.0507813,167.4804688,124.0234375
0.2500,-977.0507813,173.3398438,116.6992188
0.2550,-975.5859375,176.2695313,120.6054688
0.2600,-974.1210938,175.78125,122.5585938
0.2650,-979.9804688,169.921875,121.09375
0.2700,-975.5859375,177.2460938,126.953125
0.2750,-977.5390625,172.8515625,124.0234375
0.2800,-974.609375,178.2226563,133.3007813
0.2850,-978.515625,169.921875,127.4414063
0.2900,-978.515625,172.3632813,130.859375
0.2950,-970.703125,176.7578125,124.5117188
0.3000,-974.609375,170.8984375,123.5351563
0.3050,-974.1210938,167.4804688,120.1171875
0.3100,-975.0976563,175.2929688,115.234375
0.3150,-979.0039063,175.2929688,112.3046875
0.3200,-979.9804688,182.1289063,104.0039063
0.3250,-978.515625,180.6640625,116.2109375
0.3300,-978.515625,180.6640625,108.8867188
0.3350,-982.421875,173.3398438,113.7695313
0.3400,-973.6328125,175.2929688,103.0273438
0.3450,-984.375,168.4570313,113.7695313
0.3500,-992.1875,168.9453125,129.3945313
0.3550,-989.2578125,166.9921875,119.140625
0.3600,-977.0507813,171.875,126.4648438
0.3650,-982.9101563,168.9453125,119.140625
0.3700,-973.6328125,172.8515625,122.0703125
0.3750,-982.421875,162.5976563,108.8867188
0.3800,-984.375,165.5273438,114.2578125
0.3850,-979.0039063,167.4804688,120.1171875
0.3900,-977.5390625,176.2695313,124.5117188
0.3950,-973.6328125,177.2460938,115.7226563
0.4000,-973.6328125,181.640625,117.1875
0.4050,-976.0742188,186.0351563,125.9765625
0.4100,-972.65625,186.5234375,133.7890625
0.4150,-972.65625,177.2460938,128.4179688
0.4200,-973.6328125,177.2460938,115.234375
0.4250,-965.3320313,183.1054688,132.8125
0.4300,-970.2148438,180.6640625,119.140625
0.4350,-968.2617188,175.2929688,125
0.4400,-976.5625,165.0390625,128.4179688
0.4450,-968.2617188,181.640625,115.234375
0.4500,-973.1445313,183.59375,122.5585938
0.4550,-975.0976563,187.0117188,127.4414063
0.4600,-968.75,194.3359375,125.9765625
0.4650,-976.0742188,190.4296875,129.8828125
0.4700,-969.2382813,186.0351563,128.90625
0.4750,-973.6328125,176.7578125,130.3710938
0.4800,-963.8671875,186.5234375,124.0234375
0.4850,-965.3320313,181.1523438,121.09375
0.4900,-972.65625,179.1992188,129.3945313
0.4950,-968.75,174.3164063,120.1171875
0.5000,-978.0273438,165.5273438,106.4453125
0.5050,-969.7265625,174.8046875,105.9570313
0.5100,-976.0742188,169.921875,116.6992188
0.5150,-975.5859375,176.2695313,113.28125
0.5200,-981.4453125,173.828125,120.6054688
0.5250,-981.4453125,170.4101563,117.1875
0.5300,-980.46875,176.2695313,127.9296875
0.5350,-977.5390625,173.828125,116.6992188
0.5400,-978.515625,168.4570313,118.6523438
0.5450,-985.3515625,161.6210938,126.953125
0.5500,-999.5117188,153.8085938,113.7695313
0.5550,-990.234375,162.5976563,111.8164063
0.5600,-991.6992188,158.203125,109.375
0.5650,-988.28125,158.6914063,111.328125
0.5700,-983.8867188,167.96875,119.6289063
0.5750,-988.7695313,163.5742188,112.7929688
0.5800,-991.6992188,165.0390625,124.0234375
0.5850,-1000,167.96875,112.3046875
0.5900,-989.2578125,177.2460938,123.046875
0.5950,-985.3515625,174.3164063,130.859375
0.6000,-986.8164063,166.5039063,118.1640625
0.6050,-991.2109375,171.3867188,117.1875
0.6100,-1000.976563,187.9882813,108.8867188
0.6150,-1006.835938,187.9882813,115.234375
0.6200,-999.0234375,194.3359375,103.515625
0.6250,-985.3515625,202.1484375,100.5859375
0.6300,-988.7695313,196.7773438,96.6796875
0.6350,-973.6328125,202.1484375,90.33203125
0.6400,-970.703125,213.3789063,89.84375
0.6450,-966.3085938,215.8203125,97.16796875
0.6500,-957.03125,216.796875,99.609375
0.6550,-954.1015625,216.796875,104.4921875
0.6600,-953.125,219.7265625,113.28125
0.6650,-958.984375,210.4492188,114.7460938
0.6700,-958.0078125,198.7304688,126.4648438
0.6750,-961.9140625,179.1992188,118.1640625
0.6800,-959.4726563,179.6875,125
0.6850,-960.9375,175.2929688,119.6289063
0.6900,-956.0546875,185.546875,116.2109375
0.6950,-955.078125,190.4296875,120.6054688
0.7000,-955.078125,197.265625,128.90625
0.7050,-958.0078125,206.5429688,121.5820313
0.7100,-949.21875,226.0742188,140.1367188
0.7150,-959.9609375,219.7265625,136.71875
0.7200,-958.0078125,229.4921875,142.578125
0.7250,-957.03125,238.7695313,168.4570313
0.7300,-962.4023438,234.8632813,144.53125
0.7350,-961.4257813,233.3984375,154.296875
0.7400,-964.84375,229.0039063,150.390625
0.7450,-960.9375,225.0976563,126.953125
0.7500,-961.4257813,222.1679688,130.859375
0.7550,-952.1484375,219.7265625,118.6523438
0.7600,-953.6132813,220.703125,110.8398438
0.7650,-957.5195313,217.7734375,100.5859375
0.7700,-957.5195313,226.0742188,98.6328125
0.7750,-944.8242188,234.375,86.42578125
0.7800,-939.9414063,235.8398438,81.0546875
0.7850,-937.0117188,231.4453125,80.078125
0.7900,-941.40625,228.515625,69.3359375
0.7950,-954.1015625,217.7734375,70.3125
0.8000,-958.0078125,215.3320313,72.265625
0.8050,-962.4023438,212.890625,86.9140625
0.8100,-972.1679688,207.5195313,83.49609375
0.8150,-978.515625,198.7304688,100.0976563
0.8200,-981.9335938,191.40625,111.8164063
0.8250,-985.3515625,186.5234375,123.5351563
0.8300,-988.7695313,188.4765625,121.5820313
0.8350,-987.3046875,199.7070313,126.953125
0.8400,-977.5390625,217.2851563,135.2539063
0.8450,-979.4921875,218.75,127.4414063
0.8500,-969.2382813,231.9335938,122.0703125
0.8550,-973.6328125,229.4921875,118.6523438
0.8600,-974.609375,241.6992188,129.3945313
0.8650,-975.5859375,243.6523438,131.3476563
0.8700,-979.9804688,236.8164063,125.4882813
0.8750,-984.8632813,231.9335938,113.7695313
0.8800,-975.0976563,238.7695313,114.2578125
0.8850,-968.2617188,241.2109375,113.7695313
0.8900,-963.8671875,256.8359375,104.9804688
0.8950,-961.9140625,251.4648438,97.65625
0.9000,-949.7070313,253.4179688,92.7734375
0.9050,-943.8476563,252.9296875,92.28515625
0.9100,-944.8242188,240.234375,91.796875
0.9150,-948.2421875,231.9335938,99.609375
0.9200,-951.171875,222.65625,89.84375
0.9250,-958.4960938,204.1015625,87.40234375
0.9300,-968.2617188,188.9648438,100.0976563
0.9350,-974.1210938,185.0585938,95.21484375
0.9400,-988.28125,191.40625,108.8867188
0.9450,-993.1640625,202.6367188,121.09375
0.9500,-1004.394531,214.3554688,136.2304688
0.9550,-985.3515625,238.7695313,133.7890625
0.9600,-985.8398438,245.1171875,138.1835938
0.9650,-977.0507813,253.4179688,117.1875
0.9700,-969.2382813,266.1132813,118.1640625
0.9750,-972.1679688,270.0195313,130.859375
0.9800,-968.2617188,275.8789063,125.9765625
0.9850,-958.4960938,286.1328125,106.4453125
0.9900,-959.4726563,288.5742188,107.9101563
0.9950,-948.2421875,295.4101563,102.5390625
1.0000,-945.3125,295.8984375,101.5625
1.0050,-944.8242188,289.5507813,91.30859375
1.0100,-955.5664063,279.7851563,87.40234375
1.0150,-961.4257813,265.625,93.26171875
1.0200,-958.4960938,266.6015625,101.5625
1.0250,-960.4492188,258.7890625,100.0976563
1.0300,-957.5195313,260.7421875,120.6054688
1.0350,-967.7734375,247.5585938,119.6289063
1.0400,-969.7265625,242.6757813,112.3046875
1.0450,-971.6796875,243.1640625,137.2070313
1.0500,-965.8203125,246.5820313,129.3945313
1.0550,-954.1015625,251.4648438,131.8359375
1.0600,-951.171875,261.2304688,134.2773438
1.0650,-954.5898438,262.2070313,123.5351563
1.0700,-955.078125,269.53125,126.953125
1.0750,-958.984375,270.5078125,107.421875
1.0800,-958.984375,283.203125,109.8632813
1.0850,-959.9609375,291.9921875,107.9101563
1.0900,-954.5898438,298.3398438,106.9335938
1.0950,-946.2890625,305.6640625,109.375
1.1000,-944.8242188,294.921875,87.890625
1.1050,-946.7773438,289.5507813,98.6328125
1.1100,-947.7539063,283.203125,87.40234375
1.1150,-952.1484375,281.25,76.66015625
1.1200,-963.8671875,278.8085938,93.26171875
1.1250,-970.2148438,276.8554688,84.47265625
1.1300,-982.421875,283.203125,90.8203125
1.1350,-980.9570313,290.5273438,105.9570313
1.1400,-978.515625,295.8984375,111.328125
1.1450,-967.7734375,300.78125,115.234375
1.1500,-966.796875,286.6210938,116.6992188
1.1550,-973.1445313,253.4179688,118.6523438
1.1600,-966.3085938,237.3046875,100.0976563
1.1650,-975.0976563,216.796875,80.078125
1.1700,-978.515625,228.515625,88.8671875
1.1750,-987.3046875,247.5585938,97.16796875
1.1800,-980.46875,271.484375,101.5625
1.1850,-986.328125,280.2734375,109.375
1.1900,-973.1445313,301.7578125,102.0507813
1.1950,-964.84375,322.265625,100.0976563
1.2000,-955.078125,333.0078125,108.8867188
1.2050,-951.171875,341.796875,99.609375
1.2100,-947.265625,346.1914063,93.75
1.2150,-936.5234375,352.0507813,100.0976563
1.2200,-933.59375,346.1914063,101.5625
1.2250,-934.5703125,332.03125,90.33203125
1.2300,-937.9882813,314.453125,97.16796875
1.2350,-945.3125,287.109375,101.5625
1.2400,-957.03125,261.2304688,106.4453125
1.2450,-963.3789063,250,112.3046875
1.2500,-966.3085938,226.0742188,117.1875
1.2550,-969.2382813,222.1679688,110.3515625
1.2600,-983.8867188,217.2851563,102.0507813
1.2650,-978.515625,238.28125,103.0273438
1.2700,-972.65625,260.2539063,104.4921875
1.2750,-963.8671875,285.15625,106.4453125
1.2800,-963.3789063,310.546875,103.0273438
1.2850,-962.4023438,338.8671875,91.796875
1.2900,-973.6328125,375,96.19140625
1.2950,-966.796875,408.203125,102.0507813
1.3000,-943.359375,450.1953125,110.8398438
1.3050,-950.6835938,454.5898438,113.28125
1.3100,-965.8203125,469.2382813,119.140625
1.3150,-971.1914063,478.515625,123.046875
1.3200,-960.9375,495.6054688,123.046875
1.3250,-943.359375,513.671875,133.7890625
1.3300,-933.1054688,507.8125,127.9296875
1.3350,-922.8515625,497.0703125,130.859375
1.3400,-920.8984375,489.2578125,123.046875
1.3450,-917.96875,475.0976563,119.6289063
1.3500,-914.5507813,472.65625,130.859375
1.3550,-893.0664063,481.4453125,113.28125
1.3600,-897.4609375,485.8398438,104.0039063
1.3650,-889.1601563,496.5820313,107.9101563
1.3700,-877.4414063,518.0664063,117.1875
1.3750,-887.2070313,513.671875,109.375
1.3800,-886.2304688,516.6015625,117.1875
1.3850,-881.3476563,522.9492188,127.9296875
1.3900,-864.7460938,532.7148438,135.2539063
1.3950,-872.0703125,534.6679688,128.4179688
1.4000,-871.5820313,546.3867188,135.7421875
1.4050,-877.4414063,555.6640625,138.1835938
1.4100,-880.3710938,562.0117188,142.578125
1.4150,-874.5117188,564.453125,148.9257813
1.4200,-859.8632813,575.1953125,148.4375
1.4250,-864.2578125,571.7773438,140.625
1.4300,-851.5625,586.9140625,141.1132813
1.4350,-848.6328125,594.2382813,112.7929688
1.4400,-845.703125,605.9570313,126.4648438
1.4450,-834.9609375,627.4414063,108.8867188
1.4500,-835.4492188,643.5546875,133.7890625
1.4550,-826.6601563,648.4375,135.2539063
1.4600,-822.7539063,651.8554688,122.0703125
1.4650,-825.6835938,649.9023438,130.859375
1.4700,-824.21875,644.0429688,137.6953125
1.4750,-829.5898438,639.6484375,123.5351563
1.4800,-821.7773438,644.0429688,121.5820313
1.4850,-822.7539063,643.0664063,135.2539063
1.4900,-815.4296875,646.9726563,124.5117188
1.4950,-813.4765625,636.71875,133.3007813
1.5000,-816.40625,628.90625,138.671875
1.5050,-811.0351563,632.8125,139.1601563
1.5100,-826.171875,623.046875,149.9023438
1.5150,-821.7773438,618.1640625,141.6015625
1.5200,-815.9179688,628.4179688,144.53125
1.5250,-810.546875,636.71875,141.1132813
1.5300,-799.3164063,649.9023438,157.2265625
1.5350,-795.8984375,654.7851563,143.0664063
1.5400,-788.0859375,665.5273438,138.1835938
1.5450,-782.7148438,676.2695313,131.3476563
1.5500,-769.53125,689.9414063,131.8359375
1.5550,-770.5078125,694.8242188,139.1601563
1.5600,-771.9726563,690.9179688,122.0703125
1.5650,-774.9023438,687.5,126.953125
1.5700,-768.0664063,689.453125,128.90625
1.5750,-757.3242188,684.0820313,116.2109375
1.5800,-754.3945313,673.3398438,110.8398438
1.5850,-761.71875,681.1523438,109.375
1.5900,-763.671875,690.9179688,122.0703125
1.5950,-761.2304688,686.0351563,128.4179688
1.6000,-756.8359375,680.1757813,125.9765625
1.6050,-759.765625,670.4101563,134.2773438
1.6100,-749.5117188,672.8515625,123.046875
1.6150,-747.0703125,666.015625,132.8125
1.6200,-752.9296875,668.9453125,131.3476563
1.6250,-747.5585938,680.6640625,133.7890625
1.6300,-741.2109375,700.1953125,124.0234375
1.6350,-732.9101563,718.75,134.2773438
1.6400,-727.0507813,728.515625,128.90625
1.6450,-719.2382813,733.3984375,129.3945313
1.6500,-715.3320313,736.8164063,132.8125
1.6550,-710.4492188,738.28125,141.6015625
1.6600,-709.9609375,748.046875,133.7890625
1.6650,-711.4257813,750.4882813,122.0703125
1.6700,-693.8476563,766.1132813,124.0234375
1.6750,-693.8476563,749.5117188,121.09375
1.6800,-692.8710938,734.375,129.8828125
1.6850,-687.9882813,734.375,106.9335938
1.6900,-685.546875,740.234375,123.046875
1.6950,-677.2460938,746.5820313,122.0703125
1.7000,-668.4570313,756.8359375,124.5117188
1.7050,-672.3632813,744.6289063,122.5585938
1.7100,-661.6210938,743.1640625,121.5820313
1.7150,-654.296875,742.1875,124.0234375
1.7200,-647.9492188,753.90625,130.859375
1.7250,-650.8789063,755.3710938,139.1601563
1.7300,-642.578125,767.578125,131.8359375
1.7350,-637.2070313,774.4140625,136.71875
1.7400,-627.4414063,797.3632813,134.2773438
1.7450,-606.9335938,810.0585938,133.3007813
1.7500,-609.8632813,809.0820313,137.6953125
1.7550,-601.5625,812.9882813,142.0898438
1.7600,-598.1445313,824.7070313,139.1601563
1.7650,-604.9804688,811.0351563,132.3242188
1.7700,-596.6796875,801.2695313,136.71875
1.7750,-583.0078125,788.0859375,130.859375
1.7800,-572.7539063,791.5039063,141.1132813
1.7850,-571.2890625,797.8515625,113.28125
1.7900,-573.7304688,813.4765625,121.5820313
1.7950,-570.3125,820.8007813,119.6289063
1.8000,-559.0820313,831.5429688,114.7460938
1.8050,-552.2460938,825.6835938,115.7226563
1.8100,-541.5039063,831.5429688,111.8164063
1.8150,-523.4375,840.3320313,98.6328125
1.8200,-523.9257813,852.5390625,118.6523438
1.8250,-524.9023438,858.8867188,129.8828125
1.8300,-524.4140625,859.375,125.4882813
1.8350,-516.1132813,857.9101563,146.9726563
1.8400,-518.0664063,854.4921875,140.625
1.8450,-500.4882813,850.5859375,146.484375
1.8500,-493.6523438,847.1679688,149.4140625
1.8550,-485.8398438,838.3789063,143.5546875
1.8600,-470.2148438,851.0742188,154.7851563
1.8650,-474.609375,853.0273438,171.3867188
1.8700,-467.2851563,868.1640625,173.828125
1.8750,-457.5195313,878.4179688,178.2226563
1.8800,-454.1015625,879.8828125,192.8710938
1.8850,-446.2890625,871.09375,195.3125
1.8900,-436.5234375,872.5585938,180.6640625
1.8950,-440.9179688,860.8398438,184.5703125
1.9000,-432.6171875,867.6757813,169.4335938
1.9050,-427.734375,871.5820313,167.4804688
1.9100,-425.78125,873.5351563,172.3632813
1.9150,-416.015625,886.71875,164.0625
1.9200,-423.3398438,885.7421875,152.34375
1.9250,-421.3867188,892.0898438,167.96875
1.9300,-408.6914063,902.8320313,163.5742188
1.9350,-409.1796875,887.6953125,172.8515625
1.9400,-389.1601563,890.1367188,184.0820313
1.9450,-391.1132813,875.9765625,187.9882813
1.9500,-387.6953125,888.671875,186.0351563
1.9550,-384.765625,906.25,189.9414063
1.9600,-379.8828125,911.1328125,202.6367188
1.9650,-364.7460938,917.4804688,200.6835938
1.9700,-368.6523438,907.2265625,210.4492188
1.9750,-360.3515625,914.5507813,197.7539063
1.9800,-358.3984375,916.9921875,193.359375
1.9850,-357.9101563,919.4335938,186.5234375
1.9900,-357.9101563,920.8984375,194.3359375
1.9950,-351.0742188,915.5273438,180.1757813
2.0000,-345.2148438,929.1992188,181.640625
2.0050,-350.0976563,924.8046875,180.6640625
2.0100,-336.9140625,928.7109375,183.1054688
2.0150,-349.1210938,904.296875,170.4101563
2.0200,-350.0976563,899.4140625,179.6875
2.0250,-346.6796875,911.1328125,181.640625
2.0300,-340.8203125,924.3164063,184.5703125
2.0350,-328.125,931.1523438,184.5703125
2.0400,-313.4765625,949.21875,200.6835938
2.0450,-300.2929688,955.078125,197.7539063
2.0500,-298.828125,946.2890625,204.1015625
2.0550,-292.4804688,943.8476563,203.125
2.0600,-287.109375,934.5703125,213.8671875
2.0650,-283.6914063,925.78125,217.7734375
2.0700,-270.0195313,930.6640625,209.4726563
2.0750,-261.71875,935.0585938,209.9609375
2.0800,-249.5117188,940.9179688,211.9140625
2.0850,-241.2109375,947.7539063,224.1210938
2.0900,-236.8164063,952.6367188,223.1445313
2.0950,-228.515625,962.890625,207.03125
2.1000,-229.0039063,961.9140625,198.2421875
2.1050,-213.8671875,966.3085938,197.265625
2.1100,-211.4257813,960.4492188,208.984375
2.1150,-205.5664063,959.4726563,207.03125
2.1200,-213.3789063,959.4726563,200.1953125
2.1250,-208.4960938,968.2617188,198.2421875
2.1300,-200.1953125,961.9140625,193.8476563
2.1350,-191.8945313,950.6835938,216.3085938
2.1400,-183.59375,948.2421875,212.890625
2.1450,-187.5,946.7773438,208.4960938
2.1500,-180.6640625,962.4023438,209.4726563
2.1550,-175.2929688,968.2617188,207.03125
2.1600,-169.921875,951.171875,210.4492188
2.1650,-151.3671875,948.7304688,207.5195313
2.1700,-154.296875,954.1015625,194.3359375
2.1750,-142.0898438,964.84375,195.8007813
2.1800,-140.1367188,970.2148438,214.84375
2.1850,-128.4179688,976.5625,216.796875
2.1900,-131.8359375,961.9140625,215.8203125
2.1950,-135.2539063,958.4960938,223.6328125
2.2000,-124.0234375,982.421875,213.3789063
2.2050,-125,998.5351563,228.515625
2.2100,-116.6992188,999.5117188,235.8398438
2.2150,-109.8632813,980.46875,234.8632813
2.2200,-104.9804688,957.03125,221.1914063
2.2250,-87.40234375,962.890625,221.1914063
2.2300,-99.12109375,959.4726563,225.0976563
2.2350,-98.14453125,972.65625,224.1210938
2.2400,-94.7265625,984.375,223.6328125
2.2450,-98.6328125,983.3984375,229.0039063
2.2500,-95.703125,985.3515625,237.7929688
2.2550,-79.1015625,985.8398438,225.5859375
2.2600,-67.3828125,984.375,227.5390625
2.2650,-73.73046875,971.6796875,224.609375
2.2700,-60.05859375,990.234375,229.4921875
2.2750,-66.89453125,1001.953125,218.2617188
2.2800,-70.3125,1021.972656,244.140625
2.2850,-68.84765625,1036.621094,230.9570313
2.2900,-62.98828125,1032.226563,240.234375
2.2950,-45.41015625,1023.925781,237.3046875
2.3000,-41.015625,1004.882813,240.7226563
2.3050,-32.2265625,988.28125,247.0703125
2.3100,-36.62109375,959.4726563,243.1640625
2.3150,-40.52734375,936.0351563,228.0273438
2.3200,-30.2734375,938.9648438,235.3515625
2.3250,-18.5546875,941.8945313,246.5820313
2.3300,-9.27734375,958.0078125,247.5585938
2.3350,3.90625,980.9570313,240.234375
2.3400,25.390625,1007.324219,247.5585938
2.3450,42.96875,1001.953125,248.5351563
2.3500,48.33984375,989.2578125,265.625
2.3550,42.48046875,983.3984375,251.4648438
2.3600,45.41015625,1007.8125,254.8828125
2.3650,48.33984375,1012.695313,257.3242188
2.3700,67.3828125,1003.417969,262.6953125
2.3750,79.58984375,979.0039063,250
2.3800,72.75390625,967.2851563,250
2.3850,88.37890625,976.0742188,241.2109375
2.3900,84.47265625,966.3085938,251.4648438
2.3950,94.7265625,961.9140625,253.90625
2.4000,92.28515625,943.359375,253.90625
2.4050,102.5390625,949.21875,270.5078125
2.4100,99.12109375,944.8242188,259.2773438
2.4150,107.9101563,959.9609375,254.8828125
2.4200,116.6992188,973.6328125,261.71875
2.4250,128.90625,979.9804688,258.7890625
2.4300,133.7890625,969.2382813,259.765625
2.4350,141.1132813,952.6367188,252.4414063
2.4400,144.53125,936.0351563,249.5117188
2.4450,149.4140625,929.6875,264.1601563
2.4500,145.9960938,939.9414063,257.3242188
2.4550,157.7148438,955.5664063,255.3710938
2.4600,173.3398438,958.4960938,270.0195313
2.4650,179.1992188,961.4257813,264.1601563
2.4700,177.734375,960.4492188,273.4375
2.4750,183.59375,956.5429688,279.7851563
2.4800,180.1757813,956.5429688,274.4140625
2.4850,193.359375,958.0078125,275.8789063
2.4900,204.5898438,938.4765625,280.2734375
2.4950,211.4257813,918.4570313,280.7617188
2.5000,211.9140625,917.4804688,274.4140625
2.5050,205.5664063,919.921875,262.2070313
2.5100,208.984375,928.7109375,259.765625
2.5150,218.2617188,947.7539063,271.484375
2.5200,218.2617188,954.1015625,261.71875
2.5250,228.515625,941.40625,258.7890625
2.5300,229.0039063,926.2695313,261.71875
2.5350,233.8867188,923.3398438,265.625
2.5400,226.0742188,933.1054688,265.625
2.5450,227.0507813,944.8242188,276.3671875
2.5500,231.4453125,938.4765625,284.6679688
2.5550,255.859375,924.8046875,281.7382813
2.5600,259.2773438,899.9023438,267.578125
2.5650,258.7890625,879.8828125,271.9726563
2.5700,264.1601563,862.7929688,271.9726563
2.5750,274.9023438,857.9101563,267.0898438
2.5800,284.1796875,876.4648438,276.8554688
2.5850,291.5039063,894.53125,273.9257813
2.5900,297.8515625,907.2265625,290.5273438
2.5950,294.921875,895.9960938,282.7148438
2.6000,289.5507813,876.4648438,291.9921875
2.6050,293.4570313,867.1875,289.5507813
2.6100,301.2695313,896.484375,273.9257813
2.6150,301.2695313,922.8515625,271.484375
2.6200,304.1992188,937.5,267.578125
2.6250,323.7304688,928.7109375,285.15625
2.6300,321.2890625,896.484375,267.0898438
2.6350,317.8710938,867.1875,275.8789063
2.6400,308.1054688,850.5859375,281.7382813
2.6450,287.5976563,830.078125,290.0390625
2.6500,300.78125,832.5195313,276.3671875
2.6550,327.1484375,829.5898438,265.1367188
2.6600,355.9570313,839.3554688,277.8320313
2.6650,367.6757813,846.6796875,266.1132813
2.6700,349.1210938,852.0507813,294.4335938
2.6750,347.65625,856.9335938,288.5742188
2.6800,352.5390625,859.375,304.1992188
2.6850,348.1445313,845.2148438,284.6679688
2.6900,356.4453125,865.234375,288.5742188
2.6950,366.2109375,890.1367188,275.390625
2.7000,375.9765625,912.5976563,281.25
2.7050,382.8125,898.9257813,296.875
2.7100,389.6484375,863.7695313,293.9453125
2.7150,374.0234375,826.6601563,285.15625
2.7200,373.5351563,831.0546875,282.2265625
2.7250,378.4179688,843.75,266.6015625
2.7300,382.8125,835.9375,281.7382813
2.7350,394.53125,821.2890625,282.2265625
2.7400,407.2265625,830.078125,289.5507813
2.7450,399.9023438,831.0546875,279.7851563
2.7500,400.390625,828.6132813,284.6679688
2.7550,406.25,826.171875,297.3632813
2.7600,400.390625,820.8007813,304.6875
2.7650,410.15625,841.796875,295.4101563
2.7700,422.3632813,839.3554688,310.546875
2.7750,424.8046875,821.7773438,303.2226563
2.7800,436.0351563,824.7070313,297.3632813
2.7850,444.3359375,832.03125,281.25
2.7900,439.453125,820.3125,298.3398438
2.7950,452.1484375,827.1484375,309.0820313
2.8000,452.6367188,833.984375,310.546875
2.8050,455.5664063,842.2851563,308.59375
2.8100,454.1015625,835.4492188,304.6875
2.8150,478.515625,828.125,300.78125
2.8200,484.8632813,814.9414063,304.1992188
2.8250,488.28125,803.7109375,302.2460938
2.8300,473.1445313,780.7617188,303.2226563
2.8350,471.6796875,779.7851563,299.3164063
2.8400,480.46875,786.1328125,301.7578125
2.8450,490.234375,786.6210938,303.7109375
2.8500,506.8359375,790.5273438,286.1328125
2.8550,510.7421875,781.7382813,302.2460938
2.8600,513.671875,786.6210938,305.1757813
2.8650,510.7421875,797.3632813,302.734375
2.8700,519.53125,807.1289063,320.8007813
2.8750,521.484375,789.5507813,312.9882813
2.8800,519.53125,781.25,313.9648438
2.8850,528.3203125,798.3398438,304.6875
2.8900,524.9023438,804.6875,304.6875
2.8950,531.25,798.3398438,307.6171875
2.9000,543.9453125,791.015625,298.3398438
2.9050,548.828125,771.9726563,301.2695313
2.9100,536.6210938,747.0703125,288.0859375
2.9150,544.4335938,746.09375,272.9492188
2.9200,553.2226563,748.046875,296.3867188
2.9250,551.7578125,741.6992188,299.8046875
2.9300,570.3125,753.90625,303.7109375
2.9350,567.3828125,747.0703125,313.4765625
2.9400,569.3359375,751.953125,305.6640625
2.9450,571.2890625,735.8398438,317.8710938
2.9500,578.125,731.4453125,310.546875
2.9550,580.078125,733.8867188,324.21875
2.9600,571.2890625,749.5117188,329.5898438
2.9650,572.265625,774.4140625,327.1484375
2.9700,576.6601563,780.7617188,324.7070313
2.9750,583.4960938,762.2070313,320.3125
2.9800,592.2851563,753.4179688,306.1523438
2.9850,591.796875,733.8867188,306.640625
2.9900,594.2382813,722.1679688,291.9921875
2.9950,596.1914063,711.4257813,279.7851563
3.0000,601.0742188,724.1210938,290.5273438
3.0050,597.65625,741.2109375,286.6210938
3.0100,608.8867188,765.1367188,293.9453125
3.0150,601.0742188,730.9570313,313.9648438
3.0200,608.8867188,693.359375,312.9882813
3.0250,620.6054688,675.78125,313.9648438
3.0300,629.3945313,678.2226563,312.9882813
3.0350,626.953125,680.1757813,311.0351563
3.0400,625.9765625,676.2695313,330.078125
3.0450,624.5117188,670.4101563,333.984375
3.0500,635.7421875,674.3164063,315.9179688
3.0550,632.8125,684.0820313,320.8007813
3.0600,631.3476563,698.2421875,318.359375
3.0650,644.53125,719.2382813,305.1757813
3.0700,640.1367188,688.4765625,306.1523438
3.0750,646.484375,653.8085938,298.3398438
3.0800,657.7148438,669.921875,282.2265625
3.0850,658.6914063,689.453125,291.9921875
3.0900,644.53125,690.4296875,287.5976563
3.0950,650.390625,685.0585938,300.2929688
3.1000,654.7851563,681.1523438,288.0859375
3.1050,652.34375,665.5273438,309.5703125
3.1100,629.3945313,652.8320313,321.7773438
3.1150,645.9960938,690.9179688,301.7578125
3.1200,662.5976563,699.21875,320.8007813
3.1250,671.3867188,691.8945313,315.9179688
3.1300,665.5273438,669.4335938,312.9882813
3.1350,659.6679688,646.9726563,310.0585938
3.1400,656.7382813,646.484375,290.0390625
3.1450,666.9921875,646.9726563,284.6679688
3.1500,670.8984375,645.9960938,275.390625
3.1550,666.5039063,635.2539063,287.5976563
3.1600,676.7578125,640.625,271.484375
3.1650,681.640625,651.8554688,289.5507813
3.1700,675.78125,654.296875,269.53125
3.1750,679.1992188,659.1796875,289.5507813
3.1800,687.9882813,662.109375,293.4570313
3.1850,687.9882813,645.5078125,283.203125
3.1900,697.7539063,653.3203125,289.0625
3.1950,700.6835938,648.9257813,297.3632813
3.2000,692.8710938,636.71875,297.8515625
3.2050,687.9882813,631.3476563,288.0859375
3.2100,688.4765625,637.2070313,294.921875
3.2150,693.359375,640.1367188,279.7851563
3.2200,687.9882813,633.3007813,292.96875
3.2250,691.40625,615.234375,270.0195313
3.2300,705.078125,603.515625,266.6015625
3.2350,707.5195313,604.0039063,272.9492188
3.2400,700.1953125,608.8867188,248.046875
3.2450,711.4257813,633.7890625,265.1367188
3.2500,700.6835938,638.671875,261.71875
3.2550,717.2851563,627.9296875,270.5078125
3.2600,713.8671875,608.3984375,291.9921875
3.2650,711.4257813,598.1445313,291.015625
3.2700,710.4492188,595.2148438,290.5273438
3.2750,720.2148438,595.2148438,295.8984375
3.2800,722.1679688,593.2617188,291.015625
3.2850,729.4921875,595.2148438,299.3164063
3.2900,722.65625,588.8671875,305.6640625
3.2950,717.2851563,583.984375,286.1328125
3.3000,726.5625,587.890625,267.578125
3.3050,742.1875,582.03125,276.8554688
3.3100,738.7695313,573.2421875,266.1132813
3.3150,739.7460938,581.5429688,264.6484375
3.3200,739.7460938,586.4257813,277.34375
3.3250,742.6757813,576.171875,271.484375
3.3300,750,570.8007813,297.8515625
3.3350,757.8125,577.1484375,306.1523438
3.3400,751.953125,589.84375,283.6914063
3.3450,754.8828125,592.7734375,310.546875
3.3500,758.7890625,570.8007813,318.8476563
3.3550,756.3476563,553.2226563,301.7578125
3.3600,751.4648438,555.1757813,312.9882813
3.3650,762.6953125,571.7773438,315.4296875
3.3700,758.7890625,570.8007813,304.1992188
3.3750,764.1601563,583.4960938,294.4335938
3.3800,773.9257813,602.5390625,309.5703125
3.3850,772.9492188,595.703125,295.4101563
3.3900,769.53125,573.2421875,290.0390625
3.3950,777.34375,566.40625,283.203125
3.4000,776.3671875,567.8710938,278.3203125
3.4050,773.4375,557.6171875,285.6445313
3.4100,776.8554688,565.9179688,273.9257813
3.4150,778.3203125,567.3828125,272.4609375
3.4200,771.9726563,556.640625,294.4335938
3.4250,767.578125,538.0859375,285.15625
3.4300,771.484375,533.203125,296.875
3.4350,779.296875,528.3203125,286.1328125
3.4400,762.6953125,531.25,308.59375
3.4450,759.2773438,527.34375,284.1796875
3.4500,760.2539063,525.390625,283.203125
3.4550,778.3203125,532.2265625,277.8320313
3.4600,781.7382813,547.3632813,269.53125
3.4650,765.1367188,512.6953125,278.8085938
3.4700,762.2070313,500.9765625,289.5507813
3.4750,772.9492188,497.0703125,273.4375
3.4800,784.6679688,516.6015625,267.0898438
3.4850,786.6210938,523.9257813,267.578125
3.4900,788.0859375,519.0429688,277.8320313
3.4950,785.15625,513.671875,274.4140625
3.5000,784.6679688,507.8125,295.8984375
3.5050,781.25,499.5117188,296.3867188
3.5100,789.0625,511.2304688,298.828125
3.5150,795.4101563,513.1835938,305.1757813
3.5200,786.6210938,503.90625,312.5
3.5250,784.1796875,500,298.3398438
3.5300,789.0625,503.90625,288.5742188
3.5350,800.2929688,502.4414063,291.9921875
3.5400,802.2460938,499.0234375,287.109375
3.5450,793.4570313,491.6992188,285.15625
3.5500,800.78125,510.7421875,277.8320313
3.5550,798.3398438,509.765625,289.5507813
3.5600,794.921875,502.9296875,296.3867188
3.5650,801.2695313,502.9296875,285.6445313
3.5700,801.2695313,511.2304688,291.015625
3.5750,808.1054688,506.3476563,288.5742188
3.5800,810.546875,502.4414063,302.2460938
3.5850,807.1289063,497.5585938,291.015625
3.5900,812.5,506.8359375,291.5039063
3.5950,816.8945313,504.3945313,289.0625
3.6000,819.8242188,494.6289063,298.3398438
3.6050,816.8945313,475.5859375,287.5976563
3.6100,833.4960938,479.0039063,278.3203125
3.6150,827.1484375,479.0039063,290.0390625
3.6200,811.5234375,486.8164063,287.5976563
3.6250,821.7773438,514.1601563,277.34375
3.6300,831.5429688,517.0898438,288.0859375
3.6350,839.3554688,525.8789063,287.109375
3.6400,827.1484375,504.8828125,295.4101563
3.6450,826.171875,494.6289063,276.3671875
3.6500,831.5429688,493.6523438,300.2929688
3.6550,835.4492188,483.8867188,283.6914063
3.6600,834.4726563,480.46875,290.0390625
3.6650,829.5898438,468.75,292.4804688
3.6700,830.5664063,482.9101563,289.0625
3.6750,837.4023438,498.046875,282.7148438
3.6800,827.6367188,500,283.203125
3.6850,823.7304688,479.0039063,284.6679688
3.6900,835.9375,467.2851563,284.6679688
3.6950,833.984375,469.2382813,275.8789063
3.7000,832.03125,476.5625,276.3671875
3.7050,838.3789063,479.9804688,278.3203125
3.7100,828.6132813,465.3320313,284.6679688
3.7150,838.3789063,465.8203125,269.0429688
3.7200,841.3085938,482.9101563,276.8554688
3.7250,833.984375,466.3085938,288.0859375
3.7300,834.9609375,434.5703125,293.9453125
3.7350,836.9140625,410.15625,281.7382813
3.7400,849.1210938,430.1757813,289.5507813
3.7450,848.1445313,452.1484375,290.5273438
3.7500,835.9375,455.5664063,305.1757813
3.7550,834.4726563,458.0078125,279.7851563
3.7600,851.5625,454.5898438,303.2226563
3.7650,840.3320313,431.640625,297.8515625
3.7700,841.796875,433.59375,277.8320313
3.7750,847.1679688,454.5898438,279.7851563
3.7800,840.8203125,452.6367188,276.3671875
3.7850,834.4726563,444.3359375,288.5742188
3.7900,844.7265625,451.171875,270.5078125
3.7950,849.1210938,454.5898438,290.0390625
3.8000,840.3320313,440.9179688,292.4804688
3.8050,841.796875,422.8515625,275.8789063
3.8100,849.1210938,425.78125,273.4375
3.8150,852.0507813,433.1054688,281.7382813
3.8200,840.3320313,435.546875,287.5976563
3.8250,841.3085938,442.3828125,274.4140625
3.8300,847.65625,443.359375,274.4140625
3.8350,840.8203125,417.96875,276.8554688
3.8400,852.0507813,425.78125,279.296875
3.8450,858.8867188,429.1992188,263.671875
3.8500,851.0742188,427.2460938,252.9296875
3.8550,855.9570313,425.2929688,259.765625
3.8600,858.3984375,419.4335938,247.5585938
3.8650,861.8164063,421.875,249.0234375
3.8700,854.9804688,425.2929688,245.1171875
3.8750,856.9335938,441.40625,252.4414063
3.8800,860.3515625,450.6835938,268.0664063
3.8850,866.6992188,433.59375,264.6484375
3.8900,868.1640625,416.5039063,263.671875
3.8950,868.6523438,407.7148438,257.3242188
3.9000,872.0703125,415.0390625,274.9023438
3.9050,865.234375,395.5078125,268.5546875
3.9100,877.9296875,386.2304688,256.8359375
3.9150,877.9296875,392.0898438,265.625
3.9200,875,409.1796875,262.2070313
3.9250,869.6289063,415.0390625,264.1601563
3.9300,869.140625,416.5039063,263.1835938
3.9350,881.8359375,420.4101563,260.7421875
3.9400,873.5351563,423.3398438,244.140625
3.9450,866.2109375,407.2265625,257.8125
3.9500,856.9335938,391.1132813,258.7890625
3.9550,865.7226563,371.09375,258.3007813
3.9600,882.8125,387.6953125,269.53125
3.9650,878.90625,393.5546875,273.4375
3.9700,874.0234375,398.4375,301.7578125
3.9750,868.6523438,385.2539063,275.390625
3.9800,864.2578125,390.625,286.6210938
3.9850,853.515625,392.0898438,287.109375
3.9900,851.5625,402.8320313,277.34375
3.9950,860.3515625,406.7382813,276.3671875
4.0000,876.953125,407.7148438,272.4609375
4.0050,871.09375,377.4414063,273.4375
4.0100,855.9570313,362.7929688,273.4375
4.0150,877.4414063,391.6015625,270.5078125
4.0200,872.5585938,391.1132813,269.53125
4.0250,867.6757813,384.765625,263.671875
4.0300,868.6523438,386.71875,266.1132813
4.0350,861.8164063,394.53125,265.1367188
4.0400,857.421875,389.6484375,268.5546875
4.0450,870.1171875,376.4648438,264.6484375
4.0500,868.6523438,370.6054688,258.7890625
4.0550,860.3515625,377.9296875,257.3242188
4.0600,855.46875,392.578125,269.0429688
4.0650,859.375,408.6914063,277.34375
4.0700,859.8632813,410.6445313,264.1601563
4.0750,868.6523438,409.6679688,261.2304688
4.0800,875,396.9726563,254.3945313
4.0850,872.0703125,377.4414063,249.0234375
4.0900,867.6757813,378.90625,236.8164063
4.0950,868.6523438,404.7851563,248.5351563
4.1000,873.5351563,429.1992188,242.1875
4.1050,861.8164063,421.875,254.3945313
4.1100,861.328125,421.875,256.8359375
4.1150,868.1640625,420.4101563,259.765625
4.1200,864.7460938,409.6679688,269.0429688
4.1250,875,393.5546875,253.90625
4.1300,874.5117188,378.4179688,253.4179688
4.1350,876.953125,371.5820313,253.4179688
4.1400,866.2109375,379.3945313,254.3945313
4.1450,866.6992188,393.0664063,255.859375
4.1500,858.8867188,388.1835938,260.7421875
4.1550,860.8398438,389.6484375,252.9296875
4.1600,859.375,396.484375,251.953125
4.1650,864.2578125,400.390625,251.4648438
4.1700,858.3984375,396.484375,251.4648438
4.1750,863.28125,398.4375,264.1601563
4.1800,848.1445313,405.7617188,260.7421875
4.1850,854.0039063,414.0625,260.2539063
4.1900,851.5625,406.7382813,273.9257813
4.1950,859.8632813,400.8789063,279.7851563
4.2000,856.9335938,402.34375,280.2734375
4.2050,858.8867188,405.7617188,263.1835938
4.2100,856.9335938,407.7148438,275.8789063
4.2150,862.3046875,402.34375,265.625
4.2200,854.0039063,396.9726563,274.9023438
4.2250,856.9335938,397.4609375,270.5078125
4.2300,856.9335938,404.296875,260.7421875
4.2350,858.3984375,403.3203125,272.4609375
4.2400,854.9804688,406.7382813,260.2539063
4.2450,859.8632813,413.5742188,270.5078125
4.2500,857.421875,410.6445313,269.53125
4.2550,854.4921875,411.1328125,275.8789063
4.2600,851.0742188,417.4804688,275.8789063
4.2650,857.421875,433.59375,273.4375
4.2700,854.0039063,443.8476563,281.25
4.2750,855.46875,438.4765625,275.390625
4.2800,850.0976563,426.2695313,275.8789063
4.2850,855.46875,422.3632813,270.9960938
4.2900,854.4921875,424.8046875,267.0898438
4.2950,855.9570313,423.828125,272.4609375
4.3000,860.3515625,439.453125,261.71875
4.3050,871.09375,465.3320313,253.90625
4.3100,863.7695313,458.4960938,284.6679688
4.3150,823.2421875,416.015625,288.0859375
4.3200,819.3359375,404.7851563,269.53125
4.3250,861.328125,438.9648438,270.5078125
4.3300,882.3242188,456.5429688,272.9492188
4.3350,869.6289063,440.9179688,274.9023438
4.3400,852.0507813,429.1992188,277.34375
4.3450,845.703125,420.4101563,266.6015625
4.3500,846.1914063,432.6171875,268.0664063
4.3550,851.5625,451.171875,264.1601563
4.3600,850.5859375,475.5859375,271.9726563
4.3650,846.1914063,480.9570313,283.6914063
4.3700,842.2851563,466.796875,279.296875
4.3750,854.4921875,456.0546875,273.9257813
4.3800,852.5390625,449.21875,277.8320313
4.3850,850.5859375,453.6132813,259.765625
4.3900,845.703125,466.3085938,258.7890625
4.3950,838.3789063,471.6796875,283.203125
4.4000,837.890625,476.5625,272.9492188
4.4050,837.890625,470.703125,271.9726563
4.4100,835.9375,471.1914063,267.0898438
4.4150,837.890625,478.0273438,265.625
4.4200,832.03125,478.0273438,272.9492188
4.4250,830.5664063,468.75,276.3671875
4.4300,828.6132813,456.5429688,267.0898438
4.4350,830.078125,463.8671875,259.765625
4.4400,825.1953125,487.3046875,272.4609375
4.4450,814.9414063,498.5351563,256.8359375
4.4500,811.5234375,504.3945313,270.5078125
4.4550,816.40625,492.6757813,277.34375
4.4600,815.9179688,472.1679688,274.9023438
4.4650,812.0117188,469.2382813,267.0898438
4.4700,815.4296875,489.2578125,257.3242188
4.4750,811.5234375,500.9765625,267.578125
4.4800,803.2226563,510.7421875,272.9492188
4.4850,799.8046875,500.9765625,271.484375
4.4900,791.9921875,494.140625,267.578125
4.4950,799.3164063,506.8359375,263.671875
4.5000,794.4335938,509.765625,270.5078125
4.5050,799.8046875,512.6953125,264.1601563
4.5100,785.6445313,501.4648438,271.9726563
4.5150,781.25,497.0703125,268.5546875
4.5200,784.1796875,508.3007813,267.578125
4.5250,784.6679688,506.3476563,255.3710938
4.5300,780.2734375,510.2539063,265.625
4.5350,785.6445313,515.1367188,256.3476563
4.5400,777.8320313,512.2070313,263.1835938
4.5450,782.2265625,517.0898438,245.1171875
4.5500,781.7382813,537.109375,233.3984375
4.5550,777.8320313,539.0625,264.6484375
4.5600,776.3671875,542.4804688,254.8828125
4.5650,779.296875,537.5976563,264.6484375
4.5700,769.53125,523.4375,266.1132813
4.5750,781.25,530.2734375,260.2539063
4.5800,783.203125,533.6914063,266.6015625
4.5850,783.6914063,542.96875,272.9492188
4.5900,774.9023438,553.2226563,265.1367188
4.5950,770.5078125,545.4101563,263.671875
4.6000,771.9726563,554.1992188,259.2773438
4.6050,770.5078125,541.5039063,269.53125
4.6100,779.296875,541.9921875,259.765625
4.6150,781.25,541.9921875,253.90625
4.6200,775.8789063,559.5703125,251.4648438
4.6250,760.2539063,568.359375,253.90625
4.6300,762.6953125,583.0078125,254.8828125
4.6350,770.5078125,575.6835938,268.0664063
4.6400,775.390625,572.265625,257.3242188
4.6450,770.0195313,571.2890625,275.8789063
4.6500,744.6289063,564.453125,282.7148438
4.6550,752.4414063,570.8007813,290.0390625
4.6600,763.1835938,582.5195313,264.6484375
4.6650,777.8320313,581.5429688,264.1601563
4.6700,767.0898438,567.8710938,271.9726563
4.6750,757.8125,565.4296875,273.4375
4.6800,747.0703125,567.3828125,270.5078125
4.6850,747.0703125,573.7304688,264.1601563
4.6900,748.046875,579.1015625,267.578125
4.6950,749.0234375,583.0078125,276.8554688
4.7000,743.6523438,582.5195313,266.1132813
4.7050,742.6757813,583.0078125,266.6015625
4.7100,744.140625,588.3789063,270.5078125
4.7150,734.375,582.03125,259.765625
4.7200,730.9570313,596.6796875,263.671875
4.7250,734.8632813,615.7226563,270.9960938
4.7300,723.6328125,604.4921875,269.53125
4.7350,734.8632813,607.9101563,271.484375
4.7400,732.421875,607.421875,260.7421875
4.7450,718.75,592.7734375,267.578125
4.7500,723.6328125,591.796875,282.7148438
4.7550,723.6328125,601.5625,263.671875
4.7600,723.6328125,619.6289063,262.2070313
4.7650,716.3085938,625.4882813,265.625
4.7700,705.5664063,614.2578125,271.484375
4.7750,715.3320313,614.7460938,261.2304688
4.7800,710.9375,616.6992188,264.6484375
4.7850,718.75,625.4882813,277.34375
4.7900,694.8242188,625.9765625,278.8085938
4.7950,658.203125,628.4179688,277.8320313
4.8000,671.875,668.4570313,268.5546875
4.8050,688.9648438,691.8945313,274.4140625
4.8100,691.40625,668.4570313,282.7148438
4.8150,690.4296875,635.2539063,273.4375
4.8200,682.6171875,626.953125,269.53125
4.8250,681.640625,644.0429688,243.6523438
4.8300,671.3867188,655.7617188,247.0703125
4.8350,666.015625,657.7148438,253.90625
4.8400,660.6445313,655.2734375,262.6953125
4.8450,662.109375,653.8085938,248.5351563
4.8500,665.0390625,658.203125,250
4.8550,664.0625,654.296875,253.4179688
4.8600,658.203125,659.1796875,256.3476563
4.8650,658.203125,685.0585938,259.2773438
4.8700,658.203125,696.7773438,255.859375
4.8750,644.53125,676.2695313,269.0429688
4.8800,647.9492188,662.5976563,262.6953125
4.8850,651.3671875,662.109375,248.046875
4.8900,648.4375,681.1523438,256.8359375
4.8950,632.3242188,683.59375,238.7695313
4.9000,635.7421875,690.4296875,250
4.9050,641.6015625,693.359375,246.5820313
4.9100,644.53125,695.8007813,248.5351563
4.9150,634.2773438,692.3828125,263.1835938
4.9200,633.3007813,700.1953125,252.9296875
4.9250,640.625,706.5429688,257.3242188
4.9300,632.3242188,703.125,263.1835938
4.9350,628.4179688,706.5429688,262.6953125
4.9400,622.0703125,702.6367188,259.2773438
4.9450,628.90625,697.265625,267.0898438
4.9500,625.9765625,682.6171875,269.53125
4.9550,633.3007813,672.3632813,259.765625
4.9600,624.0234375,674.3164063,250.9765625
4.9650,633.7890625,709.9609375,244.6289063
4.9700,635.2539063,745.6054688,249.0234375
4.9750,630.3710938,755.859375,253.4179688
4.9800,619.6289063,739.2578125,260.7421875
4.9850,612.3046875,717.2851563,251.953125
4.9900,610.8398438,717.7734375,260.2539063
4.9950,612.7929688,735.8398438,241.2109375
5.0000,600.5859375,751.953125,253.4179688
5.0050,601.0742188,774.9023438,268.0664063
5.0100,603.0273438,789.5507813,268.0664063
5.0150,613.28125,792.96875,271.9726563
5.0200,604.0039063,773.4375,269.53125
5.0250,599.609375,742.6757813,270.0195313
5.0300,592.2851563,711.9140625,254.8828125
5.0350,594.7265625,697.265625,262.2070313
5.0400,589.3554688,714.3554688,254.3945313
5.0450,586.4257813,748.5351563,238.28125
5.0500,577.6367188,773.4375,259.765625
5.0550,573.2421875,781.7382813,259.765625
5.0600,569.3359375,771.9726563,271.484375
5.0650,575.1953125,782.2265625,272.4609375
5.0700,567.8710938,793.4570313,270.5078125
5.0750,564.453125,816.8945313,267.578125
5.0800,541.9921875,812.9882813,265.625
5.0850,533.203125,814.453125,265.625
5.0900,529.296875,802.734375,265.1367188
5.0950,527.8320313,782.2265625,280.7617188
5.1000,529.7851563,767.0898438,267.0898438
5.1050,537.109375,765.1367188,268.0664063
5.1100,530.7617188,786.1328125,254.8828125
5.1150,530.7617188,808.1054688,264.1601563
5.1200,508.3007813,799.8046875,264.6484375
5.1250,510.2539063,791.015625,261.71875
5.1300,505.3710938,786.1328125,273.4375
5.1350,500,796.3867188,265.625
5.1400,498.5351563,817.3828125,275.8789063
5.1450,495.6054688,826.171875,270.5078125
5.1500,495.1171875,818.359375,290.5273438
5.1550,497.0703125,805.1757813,276.3671875
5.1600,482.421875,795.8984375,259.2773438
5.1650,473.6328125,810.0585938,273.9257813
5.1700,465.3320313,826.171875,264.1601563
5.1750,459.9609375,831.0546875,266.6015625
5.1800,460.9375,822.7539063,266.1132813
5.1850,453.6132813,808.59375,266.6015625
5.1900,443.8476563,806.640625,271.484375
5.1950,447.265625,815.9179688,263.671875
5.2000,450.6835938,841.796875,260.2539063
5.2050,445.3125,858.8867188,263.1835938
5.2100,439.453125,854.9804688,274.9023438
5.2150,433.59375,844.2382813,271.484375
5.2200,414.5507813,829.5898438,271.9726563
5.2250,426.2695313,862.7929688,263.1835938
5.2300,431.1523438,879.3945313,263.671875
5.2350,416.9921875,860.3515625,267.578125
5.2400,398.9257813,842.2851563,275.390625
5.2450,401.3671875,854.4921875,266.6015625
5.2500,403.8085938,875,253.90625
5.2550,391.1132813,877.9296875,258.7890625
5.2600,380.859375,875.9765625,268.0664063
5.2650,370.6054688,864.2578125,261.2304688
5.2700,375.9765625,862.7929688,268.0664063
5.2750,377.9296875,874.0234375,250
5.2800,367.6757813,875.4882813,260.2539063
5.2850,362.3046875,877.9296875,254.8828125
5.2900,353.515625,864.7460938,259.2773438
5.2950,349.609375,848.6328125,261.71875
5.3000,347.65625,853.0273438,246.5820313
5.3050,347.65625,875,263.1835938
5.3100,339.3554688,897.9492188,249.5117188
5.3150,340.8203125,914.0625,258.3007813
5.3200,326.6601563,914.0625,263.1835938
5.3250,326.6601563,907.7148438,263.671875
5.3300,323.2421875,892.578125,263.1835938
5.3350,313.9648438,877.4414063,261.71875
5.3400,310.0585938,885.2539063,261.71875
5.3450,302.734375,894.0429688,267.578125
5.3500,304.1992188,917.4804688,264.6484375
5.3550,293.9453125,924.8046875,263.1835938
5.3600,275.8789063,917.4804688,266.1132813
5.3650,275.390625,907.2265625,269.0429688
5.3700,277.8320313,895.0195313,265.625
5.3750,284.6679688,877.4414063,255.3710938
5.3800,278.8085938,879.8828125,253.90625
5.3850,271.9726563,891.6015625,264.1601563
5.3900,259.765625,910.15625,252.4414063
5.3950,243.6523438,905.2734375,270.9960938
5.4000,242.6757813,910.6445313,260.7421875
5.4050,249.0234375,929.6875,262.6953125
5.4100,250.4882813,932.1289063,269.53125
5.4150,243.6523438,934.0820313,267.0898438
5.4200,238.7695313,934.5703125,264.6484375
5.4250,225.5859375,918.9453125,269.0429688
5.4300,214.84375,916.5039063,274.9023438
5.4350,218.75,932.6171875,269.53125
5.4400,210.9375,930.6640625,282.7148438
5.4450,199.7070313,923.828125,288.5742188
5.4500,201.171875,918.9453125,287.109375
5.4550,198.2421875,916.9921875,283.6914063
5.4600,181.640625,925.2929688,271.9726563
5.4650,171.875,938.9648438,270.9960938
5.4700,161.6210938,926.2695313,279.296875
5.4750,156.25,921.3867188,276.8554688
5.4800,148.9257813,931.640625,249.0234375
5.4850,138.671875,940.9179688,254.8828125
5.4900,130.859375,950.6835938,266.1132813
5.4950,134.765625,951.171875,254.3945313
5.5000,134.765625,947.7539063,259.765625
5.5050,142.578125,956.5429688,247.5585938
5.5100,125,960.4492188,238.7695313
5.5150,98.6328125,956.5429688,257.8125
5.5200,85.9375,970.2148438,270.9960938
5.5250,83.0078125,964.84375,268.5546875
5.5300,92.28515625,949.7070313,264.6484375
5.5350,101.5625,935.546875,262.6953125
5.5400,96.6796875,933.1054688,258.3007813
5.5450,92.28515625,936.0351563,263.1835938
5.5500,78.61328125,927.2460938,264.6484375
5.5550,77.1484375,933.1054688,253.90625
5.5600,62.5,948.7304688,237.3046875
5.5650,57.6171875,987.7929688,229.9804688
5.5700,44.921875,1001.953125,250.4882813
5.5750,46.38671875,995.6054688,255.859375
5.5800,50.78125,977.0507813,256.8359375
5.5850,62.98828125,976.0742188,256.3476563
5.5900,55.17578125,964.3554688,251.953125
5.5950,37.59765625,931.640625,263.1835938
5.6000,39.0625,924.3164063,263.671875
5.6050,36.62109375,919.4335938,256.3476563
5.6100,34.66796875,942.3828125,255.859375
5.6150,21.484375,953.6132813,266.1132813
5.6200,17.08984375,967.7734375,270.9960938
5.6250,14.6484375,980.9570313,270.9960938
5.6300,14.16015625,1012.695313,248.5351563
5.6350,5.859375,1029.296875,241.6992188
5.6400,0.9765625,1041.015625,255.859375
5.6450,-19.53125,1005.371094,250.4882813
5.6500,-37.59765625,961.9140625,254.8828125
5.6550,-40.0390625,931.640625,236.328125
5.6600,-44.43359375,916.9921875,247.5585938
5.6650,-38.0859375,922.8515625,248.046875
5.6700,-49.31640625,936.5234375,246.5820313
5.6750,-53.22265625,963.8671875,243.1640625
5.6800,-73.73046875,980.46875,235.3515625
5.6850,-90.33203125,989.7460938,241.6992188
5.6900,-91.796875,985.8398438,228.0273438
5.6950,-82.51953125,1001.464844,219.7265625
5.7000,-70.80078125,1027.832031,226.5625
5.7050,-74.21875,1018.066406,242.1875
5.7100,-95.703125,979.4921875,248.5351563
5.7150,-111.8164063,940.4296875,250
5.7200,-119.6289063,930.1757813,241.6992188
5.7250,-103.0273438,954.5898438,234.8632813
5.7300,-115.234375,963.8671875,236.8164063
5.7350,-110.8398438,976.0742188,257.3242188
5.7400,-133.3007813,967.7734375,263.1835938
5.7450,-138.1835938,979.9804688,250.4882813
5.7500,-141.1132813,988.7695313,262.6953125
5.7550,-146.9726563,988.28125,245.1171875
5.7600,-145.5078125,974.609375,253.4179688
5.7650,-156.25,949.21875,248.5351563
5.7700,-152.34375,970.2148438,224.1210938
5.7750,-167.96875,994.6289063,224.1210938
5.7800,-173.828125,1010.742188,238.28125
5.7850,-179.6875,980.46875,267.578125
5.7900,-172.3632813,948.7304688,253.4179688
5.7950,-169.4335938,942.8710938,250.4882813
5.8000,-178.2226563,953.6132813,246.5820313
5.8050,-194.3359375,947.265625,260.7421875
5.8100,-204.1015625,941.40625,254.8828125
5.8150,-204.5898438,944.3359375,246.5820313
5.8200,-204.5898438,975.5859375,244.140625
5.8250,-214.3554688,983.8867188,254.8828125
5.8300,-218.2617188,977.5390625,260.2539063
5.8350,-221.6796875,946.2890625,249.0234375
5.8400,-224.609375,932.6171875,246.5820313
5.8450,-227.5390625,937.9882813,241.2109375
5.8500,-234.375,952.1484375,234.375
5.8550,-233.3984375,952.6367188,245.1171875
5.8600,-248.5351563,925.2929688,245.1171875
5.8650,-255.859375,919.4335938,229.4921875
5.8700,-272.4609375,933.1054688,218.75
5.8750,-274.4140625,982.421875,207.5195313
5.8800,-279.7851563,1026.367188,222.65625
5.8850,-278.3203125,1014.648438,241.6992188
5.8900,-297.3632813,943.359375,253.90625
5.8950,-299.3164063,887.2070313,240.234375
5.9000,-295.4101563,881.8359375,225.0976563
5.9050,-293.4570313,888.1835938,209.4726563
5.9100,-296.875,887.2070313,218.75
5.9150,-301.2695313,887.6953125,213.3789063
5.9200,-324.21875,889.1601563,203.125
5.9250,-334.4726563,916.9921875,211.9140625
5.9300,-337.890625,956.5429688,192.3828125
5.9350,-335.9375,1006.347656,211.9140625
5.9400,-350.0976563,1016.113281,231.4453125
5.9450,-351.0742188,992.6757813,214.3554688
5.9500,-361.328125,954.5898438,199.7070313
5.9550,-370.1171875,928.7109375,192.8710938
5.9600,-385.7421875,905.2734375,200.1953125
5.9650,-384.2773438,888.1835938,205.5664063
5.9700,-382.8125,869.6289063,209.4726563
5.9750,-389.1601563,852.0507813,209.4726563
5.9800,-396.484375,861.328125,204.5898438
5.9850,-400.390625,865.234375,193.359375
5.9900,-395.5078125,878.90625,217.2851563
5.9950,-403.8085938,883.3007813,205.5664063
6.0000,-414.0625,887.6953125,215.3320313
6.0050,-414.0625,903.3203125,193.8476563
6.0100,-407.7148438,944.3359375,183.59375
6.0150,-396.9726563,977.0507813,179.1992188
6.0200,-398.4375,988.28125,210.4492188
6.0250,-419.4335938,971.6796875,224.609375
6.0300,-441.40625,937.5,234.375
6.0350,-445.3125,905.2734375,223.1445313
6.0400,-441.8945313,875,230.9570313
6.0450,-426.7578125,846.6796875,226.5625
6.0500,-428.7109375,820.3125,203.6132813
6.0550,-431.640625,800.2929688,206.5429688
6.0600,-451.171875,799.3164063,209.4726563
6.0650,-465.3320313,819.8242188,208.0078125
6.0700,-474.609375,856.9335938,209.9609375
6.0750,-481.9335938,885.7421875,193.8476563
6.0800,-486.8164063,914.5507813,196.7773438
6.0850,-482.9101563,916.9921875,208.984375
6.0900,-476.5625,915.5273438,201.171875
6.0950,-477.0507813,904.7851563,201.171875
6.1000,-478.0273438,896.9726563,212.4023438
6.1050,-496.5820313,874.0234375,195.3125
6.1100,-516.1132813,850.0976563,200.1953125
6.1150,-519.53125,836.9140625,179.1992188
6.1200,-527.8320313,818.359375,188.4765625
6.1250,-527.8320313,811.0351563,182.6171875
6.1300,-543.4570313,809.0820313,191.40625
6.1350,-541.5039063,812.9882813,174.3164063
6.1400,-553.2226563,805.6640625,179.6875
6.1450,-556.640625,808.59375,176.2695313
6.1500,-553.7109375,825.1953125,173.828125
6.1550,-553.2226563,842.7734375,168.4570313
6.1600,-555.1757813,866.2109375,155.2734375
6.1650,-545.8984375,871.09375,174.3164063
6.1700,-542.96875,852.5390625,183.59375
6.1750,-550.78125,841.796875,169.4335938
6.1800,-563.9648438,852.5390625,164.5507813
6.1850,-582.03125,851.0742188,161.6210938
6.1900,-601.0742188,813.9648438,188.4765625
6.1950,-598.6328125,770.5078125,180.1757813
6.2000,-599.609375,747.0703125,177.2460938
6.2050,-598.6328125,761.71875,186.0351563
6.2100,-610.3515625,781.7382813,187.5
6.2150,-613.28125,784.6679688,186.5234375
6.2200,-621.5820313,769.0429688,191.40625
6.2250,-631.8359375,755.3710938,184.5703125
6.2300,-634.2773438,757.3242188,187.9882813
6.2350,-638.671875,767.578125,160.6445313
6.2400,-643.5546875,776.8554688,160.6445313
6.2450,-644.0429688,789.5507813,151.8554688
6.2500,-637.6953125,811.0351563,139.1601563
6.2550,-634.765625,828.125,131.3476563
6.2600,-639.1601563,826.6601563,139.1601563
6.2650,-642.0898438,796.875,163.0859375
6.2700,-658.6914063,770.5078125,157.7148438
6.2750,-666.015625,770.9960938,155.7617188
6.2800,-671.3867188,759.765625,169.4335938
6.2850,-681.1523438,726.0742188,186.0351563
6.2900,-688.9648438,687.9882813,182.1289063
6.2950,-699.7070313,655.2734375,178.2226563
6.3000,-702.1484375,659.1796875,163.0859375
6.3050,-707.5195313,666.5039063,161.6210938
6.3100,-705.078125,691.8945313,159.1796875
6.3150,-721.6796875,712.4023438,151.8554688
6.3200,-720.703125,738.28125,133.3007813
6.3250,-721.6796875,750.9765625,133.7890625
6.3300,-713.8671875,748.046875,133.7890625
6.3350,-711.4257813,740.7226563,132.3242188
6.3400,-721.6796875,729.4921875,135.2539063
6.3450,-730.9570313,730.9570313,146.484375
6.3500,-747.5585938,722.1679688,153.8085938
6.3550,-747.0703125,713.3789063,149.4140625
6.3600,-744.6289063,696.2890625,156.25
6.3650,-745.1171875,672.8515625,132.3242188
6.3700,-743.1640625,660.15625,152.34375
6.3750,-750.4882813,645.5078125,142.578125
6.3800,-760.7421875,645.0195313,142.578125
6.3850,-776.3671875,645.0195313,151.3671875
6.3900,-775.390625,653.3203125,123.5351563
6.3950,-769.0429688,673.3398438,126.4648438
6.4000,-759.765625,693.359375,110.3515625
6.4050,-760.2539063,687.0117188,126.953125
6.4100,-767.0898438,678.7109375,129.8828125
6.4150,-774.4140625,677.734375,132.8125
6.4200,-779.7851563,675.2929688,131.8359375
6.4250,-780.2734375,674.8046875,133.3007813
6.4300,-794.921875,663.0859375,145.9960938
6.4350,-799.8046875,645.5078125,143.0664063
6.4400,-806.640625,630.859375,142.0898438
6.4450,-798.828125,625,126.4648438
6.4500,-799.3164063,615.234375,119.140625
6.4550,-798.828125,613.7695313,121.5820313
6.4600,-797.3632813,616.2109375,116.6992188
6.4650,-811.0351563,616.6992188,117.1875
6.4700,-803.7109375,645.5078125,120.1171875
6.4750,-798.828125,652.34375,121.09375
6.4800,-781.7382813,660.6445313,116.6992188
6.4850,-781.25,654.7851563,129.8828125
6.4900,-790.0390625,638.671875,135.2539063
6.4950,-803.2226563,606.9335938,135.7421875
6.5000,-810.546875,590.8203125,142.578125
6.5050,-811.0351563,583.984375,135.2539063
6.5100,-825.6835938,586.4257813,134.2773438
6.5150,-829.5898438,596.1914063,132.8125
6.5200,-828.125,602.0507813,136.71875
6.5250,-832.03125,586.4257813,131.3476563
6.5300,-832.03125,577.1484375,143.0664063
6.5350,-838.3789063,565.4296875,137.2070313
6.5400,-841.3085938,569.8242188,137.6953125
6.5450,-844.7265625,570.8007813,132.8125
6.5500,-842.7734375,583.4960938,125.9765625
6.5550,-831.5429688,599.609375,110.3515625
6.5600,-826.6601563,616.6992188,114.2578125
6.5650,-826.6601563,613.7695313,104.9804688
6.5700,-826.171875,608.3984375,109.375
6.5750,-842.2851563,571.2890625,112.3046875
6.5800,-857.9101563,545.8984375,119.140625
6.5850,-854.9804688,532.2265625,103.0273438
6.5900,-850.0976563,525.390625,111.8164063
6.5950,-857.421875,513.671875,111.328125
6.6000,-867.1875,520.9960938,118.6523438
6.6050,-870.1171875,512.2070313,120.6054688
6.6100,-872.5585938,507.3242188,122.5585938
6.6150,-880.3710938,499.5117188,126.953125
6.6200,-882.8125,506.8359375,127.4414063
6.6250,-892.0898438,508.7890625,121.5820313
6.6300,-888.671875,518.5546875,122.0703125
6.6350,-884.765625,521.484375,129.3945313
6.6400,-875.9765625,521.484375,114.2578125
6.6450,-881.8359375,513.1835938,122.5585938
6.6500,-888.671875,499.0234375,121.09375
6.6550,-890.1367188,490.234375,116.6992188
6.6600,-897.9492188,468.75,110.8398438
6.6650,-905.7617188,468.75,109.375
6.6700,-891.6015625,448.7304688,115.7226563
6.6750,-898.9257813,439.453125,97.65625
6.6800,-901.3671875,449.7070313,98.14453125
6.6850,-898.9257813,453.6132813,90.8203125
6.6900,-904.296875,449.21875,90.33203125
6.6950,-903.3203125,462.890625,104.4921875
6.7000,-903.3203125,466.3085938,98.14453125
6.7050,-905.2734375,459.9609375,104.0039063
6.7100,-912.109375,456.5429688,99.609375
6.7150,-912.5976563,458.0078125,98.14453125
6.7200,-916.015625,468.2617188,101.0742188
6.7250,-901.8554688,482.9101563,91.796875
6.7300,-905.2734375,478.515625,86.42578125
6.7350,-902.8320313,473.1445313,93.75
6.7400,-902.34375,469.2382813,89.84375
6.7450,-901.3671875,467.2851563,80.078125
6.7500,-895.9960938,475.5859375,93.75
6.7550,-891.6015625,476.5625,84.47265625
6.7600,-890.1367188,480.9570313,93.75
6.7650,-895.9960938,473.6328125,109.375
6.7700,-897.4609375,463.8671875,104.4921875
6.7750,-893.0664063,457.03125,112.7929688
6.7800,-892.0898438,453.125,109.375
6.7850,-897.4609375,447.265625,117.1875
6.7900,-896.9726563,439.9414063,110.8398438
6.7950,-897.9492188,437.5,107.421875
6.8000,-900.390625,442.3828125,94.7265625
6.8050,-903.3203125,436.0351563,96.19140625
6.8100,-896.484375,440.9179688,94.7265625
6.8150,-895.5078125,435.546875,85.9375
6.8200,-896.9726563,448.7304688,83.984375
6.8250,-897.9492188,454.5898438,74.70703125
6.8300,-890.1367188,453.125,78.61328125
6.8350,-895.5078125,452.1484375,75.68359375
6.8400,-895.9960938,458.0078125,87.40234375
6.8450,-898.9257813,451.6601563,79.1015625
6.8500,-897.9492188,443.8476563,80.078125
6.8550,-896.9726563,431.640625,93.75
6.8600,-910.6445313,419.921875,86.9140625
6.8650,-915.5273438,414.5507813,96.6796875
6.8700,-910.6445313,418.4570313,103.0273438
6.8750,-919.4335938,409.6679688,99.12109375
6.8800,-920.8984375,398.9257813,109.375
6.8850,-916.5039063,392.0898438,96.19140625
6.8900,-916.9921875,382.3242188,100.5859375
6.8950,-920.8984375,387.6953125,87.40234375
6.9000,-916.5039063,406.7382813,104.9804688
6.9050,-926.7578125,408.203125,88.37890625
6.9100,-901.8554688,443.8476563,97.65625
6.9150,-905.7617188,441.40625,88.37890625
6.9200,-897.9492188,442.8710938,100.0976563
6.9250,-911.1328125,419.4335938,112.3046875
6.9300,-909.6679688,410.15625,92.28515625
6.9350,-918.4570313,394.53125,96.6796875
6.9400,-918.9453125,390.625,94.23828125
6.9450,-919.4335938,380.859375,98.6328125
6.9500,-912.109375,382.3242188,102.5390625
6.9550,-912.109375,368.1640625,105.9570313
6.9600,-923.828125,359.375,97.16796875
6.9650,-926.7578125,356.9335938,94.7265625
6.9700,-930.6640625,369.6289063,98.6328125
6.9750,-931.1523438,374.5117188,92.28515625
6.9800,-927.2460938,394.53125,98.14453125
6.9850,-942.8710938,396.9726563,101.5625
6.9900,-936.0351563,407.7148438,101.0742188
6.9950,-929.6875,412.5976563,98.14453125
7.0000,-933.1054688,402.8320313,98.14453125
7.0050,-933.1054688,397.9492188,105.46875
7.0100,-947.7539063,381.3476563,84.47265625
7.0150,-943.8476563,383.7890625,91.796875
7.0200,-949.7070313,374.0234375,90.33203125
7.0250,-945.8007813,376.4648438,83.984375
7.0300,-948.7304688,373.046875,81.54296875
7.0350,-937.5,374.5117188,84.9609375
7.0400,-950.6835938,370.1171875,83.0078125
7.0450,-945.8007813,384.2773438,89.35546875
7.0500,-942.8710938,394.0429688,93.75
7.0550,-939.453125,399.9023438,100.0976563
7.0600,-942.8710938,398.4375,104.0039063
7.0650,-932.1289063,398.9257813,101.0742188
7.0700,-917.96875,401.8554688,105.9570313
7.0750,-931.1523438,385.7421875,104.9804688
7.0800,-930.1757813,379.8828125,94.7265625
7.0850,-927.2460938,383.3007813,113.28125
7.0900,-930.1757813,378.90625,93.75
7.0950,-923.828125,372.0703125,103.0273438
7.1000,-927.734375,367.6757813,95.703125
7.1050,-924.8046875,362.3046875,98.14453125
7.1100,-931.640625,365.234375,95.703125
7.1150,-928.7109375,372.5585938,99.609375
7.1200,-935.546875,368.6523438,95.703125
7.1250,-939.9414063,370.6054688,91.30859375
7.1300,-930.1757813,388.671875,102.0507813
7.1350,-931.640625,384.2773438,89.35546875
7.1400,-930.1757813,394.0429688,98.14453125
7.1450,-936.0351563,379.8828125,86.9140625
7.1500,-937.5,382.8125,93.26171875
7.1550,-937.0117188,378.4179688,78.61328125
7.1600,-938.4765625,367.6757813,84.9609375
7.1650,-939.9414063,365.234375,80.56640625
7.1700,-945.8007813,353.0273438,83.984375
7.1750,-943.8476563,346.1914063,86.42578125
7.1800,-945.3125,349.1210938,106.4453125
7.1850,-947.265625,351.5625,92.28515625
7.1900,-952.6367188,357.9101563,75.1953125
7.1950,-941.8945313,371.09375,75.1953125
7.2000,-931.640625,388.1835938,86.42578125
7.2050,-933.59375,384.2773438,83.984375
7.2100,-939.9414063,371.5820313,84.47265625
7.2150,-941.8945313,360.8398438,82.51953125
7.2200,-949.21875,361.328125,82.03125
7.2250,-946.2890625,370.1171875,79.1015625
7.2300,-939.453125,377.4414063,86.42578125
7.2350,-937.9882813,380.859375,89.84375
7.2400,-943.8476563,377.9296875,89.35546875
7.2450,-950.6835938,382.8125,90.8203125
7.2500,-940.9179688,401.3671875,90.8203125
7.2550,-934.5703125,417.4804688,90.33203125
7.2600,-932.1289063,427.734375,89.84375
7.2650,-933.1054688,417.4804688,81.0546875
7.2700,-936.5234375,390.625,90.33203125
7.2750,-935.0585938,360.8398438,65.91796875
7.2800,-934.5703125,356.4453125,94.23828125
7.2850,-933.1054688,368.6523438,67.3828125
7.2900,-925.78125,396.484375,83.49609375
7.2950,-922.3632813,416.015625,88.8671875
7.3000,-926.2695313,421.3867188,96.19140625
7.3050,-933.59375,413.0859375,103.0273438
7.3100,-933.1054688,413.0859375,95.21484375
7.3150,-924.3164063,413.0859375,103.0273438
7.3200,-938.4765625,408.6914063,100.5859375
7.3250,-938.4765625,406.25,93.75
7.3300,-925.2929688,414.0625,93.26171875
7.3350,-924.8046875,406.7382813,84.47265625
7.3400,-923.3398438,405.7617188,84.47265625
7.3450,-916.5039063,410.6445313,71.77734375
7.3500,-912.5976563,430.6640625,87.40234375
7.3550,-923.828125,442.8710938,96.19140625
7.3600,-922.8515625,466.3085938,98.6328125
7.3650,-914.5507813,481.9335938,88.37890625
7.3700,-911.6210938,485.8398438,98.14453125
7.3750,-907.2265625,477.0507813,94.7265625
7.3800,-921.3867188,464.3554688,92.28515625
7.3850,-913.0859375,461.4257813,94.23828125
7.3900,-918.4570313,463.8671875,79.1015625
7.3950,-895.5078125,486.328125,74.21875
7.4000,-890.1367188,500,90.33203125
7.4050,-892.578125,511.71875,106.9335938
7.4100,-895.9960938,520.0195313,101.0742188
7.4150,-903.3203125,515.625,108.8867188
7.4200,-888.671875,531.7382813,105.9570313
7.4250,-892.0898438,531.25,111.8164063
7.4300,-887.6953125,534.6679688,115.234375
7.4350,-886.2304688,531.25,113.28125
7.4400,-884.765625,524.9023438,120.1171875
7.4450,-892.578125,521.484375,119.6289063
7.4500,-890.1367188,532.2265625,112.3046875
7.4550,-885.7421875,529.7851563,105.9570313
7.4600,-866.2109375,555.1757813,105.9570313
7.4650,-870.1171875,557.1289063,96.6796875
7.4700,-865.234375,561.0351563,114.7460938
7.4750,-869.140625,556.640625,109.375
7.4800,-873.046875,544.921875,97.16796875
7.4850,-863.7695313,545.4101563,98.6328125
7.4900,-872.0703125,542.96875,95.21484375
7.4950,-854.9804688,558.1054688,98.6328125
7.5000,-850.0976563,572.265625,100.5859375
7.5050,-848.6328125,585.4492188,106.4453125
7.5100,-845.2148438,600.5859375,110.8398438
7.5150,-844.7265625,601.5625,104.4921875
7.5200,-844.2382813,605.9570313,109.8632813
7.5250,-844.7265625,600.5859375,103.515625
7.5300,-835.9375,599.1210938,101.5625
7.5350,-829.1015625,607.9101563,103.515625
7.5400,-833.0078125,607.421875,116.2109375
7.5450,-832.03125,605.46875,120.6054688
7.5500,-834.4726563,598.6328125,108.3984375
7.5550,-833.0078125,603.0273438,125
7.5600,-832.03125,612.7929688,107.421875
7.5650,-822.265625,625.4882813,113.28125
7.5700,-809.5703125,633.7890625,112.7929688
7.5750,-794.4335938,640.1367188,107.421875
7.5800,-796.875,634.2773438,117.1875
7.5850,-785.15625,652.34375,108.8867188
7.5900,-796.875,652.8320313,120.1171875
7.5950,-800.2929688,647.9492188,125.9765625
7.6000,-791.5039063,655.7617188,129.8828125
7.6050,-793.9453125,642.578125,131.3476563
7.6100,-788.5742188,647.9492188,131.8359375
7.6150,-778.3203125,639.1601563,141.6015625
7.6200,-778.8085938,639.6484375,127.9296875
7.6250,-781.25,653.8085938,126.4648438
7.6300,-782.2265625,675.78125,137.2070313
7.6350,-773.9257813,684.0820313,140.1367188
7.6400,-773.9257813,681.1523438,137.6953125
7.6450,-773.9257813,673.828125,136.2304688
7.6500,-765.625,665.0390625,147.9492188
7.6550,-767.0898438,641.6015625,132.8125
7.6600,-770.0195313,630.859375,132.8125
7.6650,-770.5078125,617.6757813,134.2773438
7.6700,-767.0898438,626.953125,136.2304688
7.6750,-768.5546875,638.671875,135.7421875
7.6800,-766.1132813,672.3632813,141.6015625
7.6850,-759.765625,705.5664063,132.8125
7.6900,-744.6289063,734.375,134.765625
7.6950,-739.2578125,734.375,146.484375
7.7000,-733.8867188,729.9804688,148.4375
7.7050,-734.375,709.9609375,155.2734375
7.7100,-736.8164063,701.171875,153.8085938
7.7150,-734.8632813,705.5664063,146.9726563
7.7200,-735.3515625,725.5859375,145.5078125
7.7250,-725.5859375,739.2578125,145.0195313
7.7300,-718.2617188,737.7929688,145.0195313
7.7350,-704.5898438,735.3515625,145.0195313
7.7400,-706.0546875,731.4453125,150.390625
7.7450,-702.1484375,731.9335938,142.0898438
7.7500,-698.7304688,731.9335938,145.9960938
7.7550,-691.8945313,730.46875,142.578125
7.7600,-681.1523438,720.2148438,136.2304688
7.7650,-682.6171875,723.1445313,152.34375
7.7700,-671.875,728.515625,137.2070313
7.7750,-661.6210938,751.4648438,144.53125
7.7800,-659.1796875,769.53125,144.53125
7.7850,-657.7148438,771.9726563,153.3203125
7.7900,-654.7851563,773.4375,160.15625
7.7950,-649.4140625,779.296875,153.8085938
7.8000,-644.0429688,775.390625,151.8554688
7.8050,-638.1835938,771.9726563,167.4804688
7.8100,-638.1835938,764.6484375,155.7617188
7.8150,-629.3945313,765.625,143.5546875
7.8200,-621.09375,765.625,149.9023438
7.8250,-617.1875,762.6953125,144.53125
7.8300,-603.0273438,777.34375,142.0898438
7.8350,-599.609375,786.6210938,150.390625
7.8400,-595.2148438,793.9453125,149.4140625
7.8450,-593.75,791.5039063,149.4140625
7.8500,-587.890625,799.8046875,156.25
7.8550,-572.265625,812.5,148.9257813
7.8600,-571.2890625,818.8476563,156.25
7.8650,-561.5234375,836.4257813,148.4375
7.8700,-567.3828125,832.5195313,155.2734375
7.8750,-556.640625,832.03125,152.8320313
7.8800,-554.1992188,831.5429688,149.4140625
7.8850,-548.3398438,835.4492188,164.0625
7.8900,-552.734375,839.3554688,161.6210938
7.8950,-536.6210938,855.46875,163.5742188
7.9000,-542.4804688,852.0507813,174.8046875
7.9050,-532.7148438,855.46875,173.828125
7.9100,-528.8085938,857.421875,169.921875
7.9150,-523.4375,854.0039063,164.5507813
7.9200,-512.6953125,870.6054688,164.5507813
7.9250,-496.5820313,899.4140625,172.8515625
7.9300,-502.9296875,895.0195313,170.4101563
7.9350,-494.6289063,881.3476563,178.2226563
7.9400,-492.6757813,865.7226563,182.6171875
7.9450,-497.5585938,860.8398438,175.2929688
7.9500,-487.7929688,880.3710938,173.3398438
7.9550,-478.515625,896.484375,182.1289063
7.9600,-476.0742188,882.3242188,195.3125
7.9650,-455.078125,882.8125,184.5703125
7.9700,-462.4023438,892.0898438,187.9882813
7.9750,-456.5429688,916.015625,174.8046875
7.9800,-447.7539063,936.0351563,187.5
7.9850,-437.9882813,927.2460938,184.5703125
7.9900,-428.7109375,908.6914063,197.265625
7.9950,-420.8984375,895.9960938,200.6835938
8.0000,-422.3632813,901.8554688,192.3828125
8.0050,-420.8984375,918.4570313,194.8242188
8.0100,-410.15625,926.7578125,210.4492188
8.0150,-407.2265625,910.6445313,194.3359375
8.0200,-395.0195313,906.25,195.8007813
8.0250,-390.1367188,914.0625,198.7304688
8.0300,-382.8125,931.640625,209.4726563
8.0350,-379.8828125,938.9648438,204.5898438
8.0400,-375,946.2890625,224.609375
8.0450,-387.6953125,925.78125,200.6835938
8.0500,-366.6992188,937.5,212.890625
8.0550,-362.7929688,930.1757813,193.359375
8.0600,-351.5625,931.1523438,200.1953125
8.0650,-355.9570313,928.2226563,201.171875
8.0700,-348.6328125,940.9179688,197.265625
8.0750,-340.3320313,953.125,197.7539063
8.0800,-333.0078125,949.7070313,208.0078125
8.0850,-327.6367188,948.2421875,213.8671875
8.0900,-312.0117188,956.0546875,207.03125
8.0950,-310.546875,946.7773438,209.9609375
8.1000,-309.0820313,932.1289063,219.7265625
8.1050,-312.5,939.453125,210.9375
8.1100,-305.1757813,957.03125,204.1015625
8.1150,-288.5742188,959.9609375,201.171875
8.1200,-273.9257813,937.0117188,224.1210938
8.1250,-266.6015625,919.921875,213.3789063
8.1300,-264.6484375,935.546875,229.4921875
8.1350,-265.625,953.125,229.0039063
8.1400,-263.1835938,973.1445313,227.0507813
8.1450,-253.90625,955.5664063,239.2578125
8.1500,-232.421875,949.7070313,223.6328125
8.1550,-229.9804688,945.8007813,222.1679688
8.1600,-231.4453125,960.9375,222.65625
8.1650,-236.8164063,962.890625,245.1171875
8.1700,-234.375,965.8203125,230.9570313
8.1750,-227.0507813,957.03125,234.375
8.1800,-216.796875,946.7773438,230.9570313
8.1850,-209.9609375,939.9414063,221.6796875
8.1900,-203.125,953.6132813,234.375
8.1950,-206.5429688,964.84375,221.6796875
8.2000,-204.1015625,972.1679688,238.7695313
8.2050,-198.7304688,954.5898438,243.6523438
8.2100,-203.6132813,930.6640625,237.7929688
8.2150,-181.640625,947.265625,224.1210938
8.2200,-176.2695313,958.4960938,225.0976563
8.2250,-165.5273438,966.796875,238.28125
8.2300,-162.109375,970.703125,236.328125
8.2350,-159.6679688,962.890625,228.515625
8.2400,-157.7148438,958.0078125,232.9101563
8.2450,-147.4609375,956.0546875,234.8632813
8.2500,-147.9492188,953.125,234.375
8.2550,-133.7890625,951.6601563,229.9804688
8.2600,-121.09375,947.265625,242.1875
8.2650,-117.1875,939.9414063,236.8164063
8.2700,-109.8632813,953.125,243.1640625
8.2750,-102.5390625,957.5195313,233.3984375
8.2800,-98.14453125,954.5898438,245.1171875
8.2850,-87.890625,957.5195313,240.7226563
8.2900,-82.03125,966.796875,238.7695313
8.2950,-75.68359375,987.7929688,240.7226563
8.3000,-79.1015625,985.8398438,243.6523438
8.3050,-87.890625,946.2890625,264.1601563
8.3100,-84.47265625,916.015625,251.4648438
8.3150,-53.22265625,923.3398438,236.328125
8.3200,-43.45703125,954.5898438,242.6757813
8.3250,-43.9453125,979.9804688,253.4179688
8.3300,-36.62109375,976.5625,260.7421875
8.3350,-30.76171875,949.21875,234.8632813
8.3400,-15.625,972.65625,245.6054688
8.3450,-26.3671875,956.5429688,258.3007813
8.3500,-49.31640625,935.546875,267.578125
8.3550,-36.1328125,933.59375,247.5585938
8.3600,-3.41796875,941.40625,255.859375
8.3650,16.6015625,950.1953125,238.28125
8.3700,9.27734375,965.8203125,254.8828125
8.3750,15.625,971.1914063,262.2070313
8.3800,12.6953125,970.703125,256.8359375
8.3850,20.99609375,977.0507813,265.1367188
8.3900,36.1328125,973.6328125,260.2539063
8.3950,42.48046875,945.3125,268.5546875
8.4000,50.78125,921.3867188,255.3710938
8.4050,52.734375,922.8515625,254.8828125
8.4100,48.828125,955.5664063,256.3476563
8.4150,58.10546875,968.75,263.671875
8.4200,64.94140625,957.5195313,272.4609375
8.4250,72.75390625,945.8007813,260.7421875
8.4300,83.0078125,957.03125,266.1132813
8.4350,89.84375,965.8203125,256.8359375
8.4400,90.8203125,955.078125,293.4570313
8.4450,91.30859375,943.8476563,268.5546875
8.4500,94.7265625,953.125,273.9257813
8.4550,106.4453125,960.9375,279.296875
8.4600,119.140625,950.6835938,274.4140625
8.4650,133.7890625,940.9179688,279.7851563
8.4700,134.2773438,948.2421875,270.0195313
8.4750,135.7421875,963.8671875,274.4140625
8.4800,142.0898438,964.3554688,293.4570313
8.4850,150.8789063,932.1289063,286.6210938
8.4900,162.109375,907.7148438,289.0625
8.4950,179.1992188,909.1796875,280.7617188
8.5000,183.1054688,926.7578125,295.4101563
8.5050,180.1757813,940.4296875,289.5507813
8.5100,179.1992188,939.9414063,290.5273438
8.5150,191.8945313,939.9414063,303.2226563
8.5200,192.3828125,938.9648438,301.7578125
8.5250,202.1484375,944.3359375,302.734375
8.5300,200.1953125,929.6875,301.2695313
8.5350,215.8203125,921.875,296.875
8.5400,227.5390625,931.1523438,291.9921875
8.5450,228.515625,937.0117188,304.6875
8.5500,218.75,929.1992188,303.7109375
8.5550,222.1679688,925.2929688,292.96875
8.5600,228.515625,915.5273438,311.5234375
8.5650,234.375,902.8320313,310.0585938
8.5700,250.9765625,906.7382813,312.5
8.5750,255.859375,913.5742188,301.7578125
8.5800,258.3007813,922.8515625,308.59375
8.5850,261.71875,905.7617188,303.2226563
8.5900,262.6953125,874.0234375,309.0820313
8.5950,279.7851563,872.5585938,297.3632813
8.6000,285.6445313,892.0898438,290.0390625
8.6050,280.7617188,900.390625,288.5742188
8.6100,292.96875,907.2265625,284.1796875
8.6150,293.4570313,899.4140625,313.9648438
8.6200,303.7109375,897.4609375,311.0351563
8.6250,298.828125,893.0664063,309.5703125
8.6300,306.640625,906.25,313.4765625
8.6350,307.1289063,898.4375,325.6835938
8.6400,314.9414063,879.3945313,308.1054688
8.6450,331.5429688,851.0742188,314.453125
8.6500,340.8203125,831.0546875,312.9882813
8.6550,331.5429688,833.0078125,303.7109375
8.6600,325.1953125,853.515625,319.8242188
8.6650,337.4023438,882.3242188,308.59375
8.6700,328.6132813,886.71875,318.8476563
8.6750,342.2851563,908.6914063,300.78125
8.6800,363.28125,938.4765625,302.2460938
8.6850,361.328125,922.3632813,321.2890625
8.6900,318.359375,877.9296875,333.4960938
8.6950,320.3125,888.1835938,316.8945313
8.7000,352.0507813,903.8085938,304.1992188
8.7050,367.6757813,882.8125,323.7304688
8.7100,367.1875,855.46875,311.5234375
8.7150,388.1835938,861.8164063,295.4101563
8.7200,355.46875,833.984375,318.8476563
8.7250,332.03125,835.4492188,330.5664063
8.7300,354.4921875,869.140625,314.9414063
8.7350,396.9726563,884.2773438,314.9414063
8.7400,395.5078125,846.6796875,315.4296875
8.7450,389.6484375,829.1015625,306.640625
8.7500,390.1367188,840.8203125,298.3398438
8.7550,385.7421875,851.0742188,301.2695313
8.7600,402.34375,874.0234375,308.59375
8.7650,409.6679688,871.09375,307.1289063
8.7700,426.2695313,861.8164063,309.5703125
8.7750,413.5742188,814.9414063,306.640625
8.7800,416.015625,785.6445313,301.7578125
8.7850,418.4570313,792.96875,294.921875
8.7900,426.7578125,828.125,294.921875
8.7950,433.59375,830.078125,322.7539063
8.8000,438.9648438,799.3164063,316.40625
8.8050,445.3125,771.484375,299.3164063
8.8100,447.265625,781.25,311.0351563
8.8150,444.8242188,814.9414063,298.828125
8.8200,444.8242188,855.9570313,298.3398438
8.8250,445.8007813,862.7929688,314.9414063
8.8300,446.7773438,839.3554688,329.5898438
8.8350,453.6132813,824.7070313,314.9414063
8.8400,454.5898438,827.6367188,315.4296875
8.8450,456.0546875,839.84375,318.8476563
8.8500,450.1953125,836.9140625,314.453125
8.8550,458.984375,822.7539063,310.0585938
8.8600,474.1210938,804.1992188,310.546875
8.8650,487.3046875,769.53125,307.6171875
8.8700,486.8164063,752.4414063,308.59375
8.8750,471.1914063,757.8125,303.2226563
8.8800,466.796875,780.2734375,315.4296875
8.8850,481.4453125,806.1523438,309.0820313
8.8900,497.0703125,809.0820313,303.7109375
8.8950,508.7890625,806.640625,304.6875
8.9000,502.9296875,780.7617188,307.1289063
8.9050,512.2070313,773.4375,303.7109375
8.9100,514.1601563,762.2070313,295.4101563
8.9150,518.5546875,770.0195313,296.875
8.9200,526.8554688,763.671875,316.8945313
8.9250,536.6210938,751.953125,325.6835938
8.9300,543.4570313,745.1171875,310.546875
8.9350,560.0585938,758.7890625,328.6132813
8.9400,563.9648438,746.5820313,331.5429688
8.9450,564.9414063,726.0742188,333.4960938
8.9500,572.7539063,728.515625,325.1953125
8.9550,583.984375,739.7460938,334.4726563
8.9600,579.1015625,747.5585938,342.2851563
8.9650,580.078125,760.7421875,346.6796875
8.9700,584.9609375,769.53125,348.1445313
8.9750,587.4023438,745.6054688,354.0039063
8.9800,587.890625,721.1914063,354.9804688
8.9850,602.0507813,719.7265625,351.0742188
8.9900,602.0507813,715.3320313,333.4960938
8.9950,601.0742188,700.6835938,333.984375
9.0000,604.9804688,708.984375,343.75
9.0050,607.421875,714.3554688,339.84375
9.0100,611.328125,731.9335938,342.2851563
9.0150,621.09375,730.46875,351.0742188
9.0200,625.4882813,726.0742188,335.9375
9.0250,630.3710938,711.9140625,340.3320313
9.0300,620.1171875,706.0546875,344.2382813
9.0350,627.4414063,717.7734375,335.4492188
9.0400,635.2539063,722.65625,320.3125
9.0450,656.7382813,714.3554688,319.3359375
9.0500,703.125,683.59375,320.3125
9.0550,614.7460938,587.4023438,361.328125
9.0600,567.3828125,612.3046875,324.7070313
9.0650,628.90625,725.5859375,277.8320313
9.0700,690.9179688,788.5742188,304.6875
9.0750,685.0585938,764.1601563,345.2148438
9.0800,658.6914063,731.4453125,338.8671875
9.0850,643.5546875,705.5664063,328.125
9.0900,630.3710938,673.3398438,320.3125
9.0950,645.0195313,644.0429688,308.1054688
9.1000,667.4804688,622.5585938,299.3164063
9.1050,677.734375,608.3984375,301.7578125
9.1100,675.2929688,609.8632813,291.5039063
9.1150,663.0859375,602.5390625,291.5039063
9.1200,666.015625,592.7734375,301.7578125
9.1250,668.9453125,571.2890625,314.9414063
9.1300,674.8046875,576.6601563,321.7773438
9.1350,691.8945313,595.703125,311.0351563
9.1400,692.3828125,615.7226563,322.7539063
9.1450,696.7773438,626.4648438,332.03125
9.1500,700.6835938,621.5820313,353.0273438
9.1550,695.3125,599.1210938,345.703125
9.1600,694.3359375,582.03125,349.609375
9.1650,700.1953125,573.7304688,347.1679688
9.1700,706.0546875,557.6171875,352.0507813
9.1750,715.3320313,549.8046875,349.1210938
9.1800,709.4726563,550.2929688,329.1015625
9.1850,710.9375,562.9882813,351.0742188
9.1900,705.078125,566.40625,348.1445313
9.1950,716.3085938,552.2460938,362.3046875
9.2000,728.0273438,531.25,376.4648438
9.2050,731.9335938,531.25,352.0507813
9.2100,732.9101563,551.7578125,367.6757813
9.2150,720.703125,549.3164063,376.953125
9.2200,726.5625,549.8046875,378.90625
9.2250,747.0703125,542.96875,373.046875
9.2300,745.6054688,526.3671875,346.6796875
9.2350,755.3710938,521.484375,355.9570313
9.2400,754.8828125,541.5039063,334.4726563
9.2450,798.3398438,568.359375,345.2148438
9.2500,743.1640625,494.140625,383.3007813
9.2550,697.7539063,485.3515625,379.8828125
9.2600,745.6054688,548.828125,344.2382813
9.2650,820.3125,568.8476563,364.7460938
9.2700,815.9179688,524.4140625,366.2109375
9.2750,784.6679688,510.7421875,351.0742188
9.2800,762.6953125,527.8320313,346.6796875
9.2850,764.1601563,534.1796875,350.0976563
9.2900,773.4375,509.2773438,351.0742188
9.2950,790.5273438,493.1640625,345.703125
9.3000,800.2929688,514.6484375,331.5429688
9.3050,780.7617188,507.8125,328.6132813
9.3100,779.7851563,502.4414063,324.7070313
9.3150,791.5039063,477.5390625,316.8945313
9.3200,803.7109375,458.984375,299.3164063
9.3250,800.78125,438.4765625,298.3398438
9.3300,793.9453125,447.265625,298.3398438
9.3350,791.9921875,472.1679688,298.828125
9.3400,800.78125,483.3984375,318.359375
9.3450,801.2695313,461.9140625,323.7304688
9.3500,807.6171875,456.0546875,325.1953125
9.3550,812.9882813,457.5195313,326.171875
9.3600,803.7109375,445.3125,318.359375
9.3650,794.921875,441.8945313,333.0078125
9.3700,800.2929688,434.5703125,336.4257813
9.3750,814.9414063,439.453125,313.9648438
9.3800,813.4765625,438.9648438,315.9179688
9.3850,817.3828125,428.2226563,315.4296875
9.3900,821.7773438,417.4804688,314.453125
9.3950,818.359375,396.9726563,316.40625
9.4000,813.9648438,395.0195313,315.4296875
9.4050,812.5,406.7382813,293.9453125
9.4100,829.1015625,430.6640625,312.9882813
9.4150,829.5898438,422.3632813,319.3359375
9.4200,826.6601563,403.8085938,325.6835938
9.4250,824.7070313,396.484375,313.4765625
9.4300,821.7773438,401.3671875,303.7109375
9.4350,822.265625,409.6679688,317.8710938
9.4400,822.7539063,418.4570313,327.1484375
9.4450,823.7304688,412.109375,323.2421875
9.4500,817.8710938,407.7148438,329.1015625
9.4550,817.3828125,407.7148438,322.7539063
9.4600,812.5,426.7578125,312.9882813
9.4650,808.59375,422.3632813,331.5429688
9.4700,806.1523438,415.5273438,318.359375
9.4750,823.2421875,394.53125,327.1484375
9.4800,839.84375,374.5117188,297.8515625
9.4850,837.4023438,367.6757813,311.5234375
9.4900,833.0078125,377.4414063,321.7773438
9.4950,821.7773438,389.6484375,303.7109375
9.5000,825.1953125,419.921875,318.359375
9.5050,828.125,419.4335938,309.5703125
9.5100,828.6132813,402.8320313,328.125
9.5150,838.3789063,384.765625,319.3359375
9.5200,827.1484375,364.7460938,311.0351563
9.5250,831.5429688,359.8632813,308.59375
9.5300,837.4023438,361.328125,307.6171875
9.5350,855.9570313,367.6757813,312.0117188
9.5400,851.5625,369.140625,310.0585938
9.5450,835.4492188,370.6054688,312.5
9.5500,834.9609375,362.7929688,318.359375
9.5550,851.5625,373.046875,296.875
9.5600,857.9101563,381.3476563,311.5234375
9.5650,855.9570313,365.234375,315.9179688
9.5700,849.1210938,336.9140625,307.6171875
9.5750,850.0976563,314.9414063,296.875
9.5800,861.328125,317.8710938,304.1992188
9.5850,878.90625,330.5664063,291.5039063
9.5900,869.140625,335.4492188,312.9882813
9.5950,863.28125,339.3554688,303.2226563
9.6000,855.46875,340.8203125,310.546875
9.6050,862.3046875,342.2851563,312.0117188
9.6100,861.8164063,331.5429688,318.359375
9.6150,871.5820313,337.4023438,305.6640625
9.6200,895.0195313,369.6289063,308.1054688
9.6250,880.859375,360.3515625,332.03125
9.6300,871.09375,362.7929688,322.7539063
9.6350,868.6523438,343.2617188,332.5195313
9.6400,872.0703125,337.4023438,319.3359375
9.6450,880.859375,317.8710938,308.1054688
9.6500,887.6953125,315.9179688,321.7773438
9.6550,890.1367188,312.5,307.6171875
9.6600,888.671875,310.0585938,319.8242188
9.6650,885.2539063,311.0351563,314.9414063
9.6700,875,309.0820313,295.4101563
9.6750,895.9960938,327.6367188,306.640625
9.6800,895.0195313,343.2617188,304.6875
9.6850,893.0664063,369.140625,319.8242188
9.6900,889.1601563,367.1875,321.2890625
9.6950,891.1132813,344.7265625,325.1953125
9.7000,891.6015625,316.40625,316.8945313
9.7050,901.8554688,312.9882813,314.453125
9.7100,902.8320313,313.4765625,294.4335938
9.7150,907.2265625,310.0585938,315.4296875
9.7200,895.9960938,285.15625,314.453125
9.7250,889.6484375,271.9726563,306.1523438
9.7300,902.8320313,298.828125,299.8046875
9.7350,898.4375,311.0351563,317.8710938
9.7400,890.1367188,311.0351563,314.453125
9.7450,906.25,305.6640625,319.3359375
9.7500,899.9023438,290.5273438,317.8710938
9.7550,897.4609375,277.34375,321.2890625
9.7600,890.625,268.5546875,302.2460938
9.7650,896.484375,253.90625,319.3359375
9.7700,906.25,293.4570313,318.359375
9.7750,890.625,260.2539063,347.1679688
9.7800,895.0195313,261.2304688,328.125
9.7850,904.296875,259.2773438,323.2421875
9.7900,900.8789063,266.1132813,308.59375
9.7950,892.0898438,277.8320313,326.6601563
9.8000,876.953125,271.9726563,328.6132813
9.8050,884.2773438,270.9960938,312.5
9.8100,893.0664063,261.71875,339.84375
9.8150,901.8554688,256.8359375,316.8945313
9.8200,897.9492188,266.1132813,320.3125
9.8250,899.9023438,282.2265625,318.8476563
9.8300,888.1835938,274.4140625,323.7304688
9.8350,890.625,278.3203125,314.453125
9.8400,888.671875,275.390625,307.6171875
9.8450,892.0898438,269.0429688,314.453125
9.8500,881.3476563,266.6015625,318.359375
9.8550,874.0234375,267.0898438,311.0351563
9.8600,879.3945313,278.8085938,314.9414063
9.8650,872.5585938,290.0390625,308.59375
9.8700,876.4648438,301.2695313,308.59375
9.8750,875.9765625,283.6914063,316.40625
9.8800,876.4648438,283.203125,306.1523438
9.8850,868.1640625,268.5546875,308.59375
9.8900,884.2773438,265.1367188,312.5
9.8950,885.2539063,276.3671875,291.015625
9.9000,877.9296875,292.96875,301.2695313
9.9050,877.4414063,312.9882813,297.3632813
9.9100,872.0703125,298.828125,305.6640625
9.9150,872.0703125,284.6679688,295.4101563
9.9200,875.4882813,286.1328125,299.8046875
9.9250,877.4414063,291.5039063,300.2929688
9.9300,876.4648438,284.6679688,303.7109375
9.9350,879.8828125,276.8554688,303.2226563
9.9400,888.671875,282.7148438,294.4335938
9.9450,887.2070313,282.7148438,295.8984375
9.9500,875.9765625,287.109375,294.4335938
9.9550,872.0703125,278.3203125,298.828125
9.9600,868.1640625,276.3671875,294.4335938
9.9650,877.9296875,285.15625,286.1328125
9.9700,880.3710938,293.9453125,298.828125
9.9750,878.90625,290.0390625,288.0859375
9.9800,872.0703125,289.0625,308.59375
9.9850,873.5351563,296.3867188,299.3164063
9.9900,868.1640625,303.2226563,301.7578125
9.9950,870.6054688,308.59375,312.5
10.0000,865.234375,296.875,314.453125
10.0050,869.6289063,289.5507813,312.9882813
10.0100,875.4882813,297.8515625,308.59375
10.0150,881.8359375,305.6640625,312.9882813
10.0200,875.4882813,306.1523438,302.734375
10.0250,868.6523438,298.3398438,312.5
10.0300,866.2109375,297.3632813,316.8945313
10.0350,866.6992188,296.875,316.8945313
10.0400,868.1640625,311.5234375,318.359375
10.0450,869.140625,326.6601563,313.4765625
10.0500,874.0234375,332.5195313,323.7304688
10.0550,880.859375,324.7070313,333.0078125
10.0600,867.6757813,312.5,323.2421875
10.0650,869.140625,314.9414063,315.4296875
10.0700,862.3046875,333.0078125,319.3359375
10.0750,865.7226563,338.8671875,319.8242188
10.0800,866.6992188,350.5859375,317.3828125
10.0850,874.5117188,350.0976563,329.5898438
10.0900,869.6289063,342.2851563,324.21875
10.0950,866.6992188,341.796875,321.2890625
10.1000,861.8164063,340.8203125,325.1953125
10.1050,866.6992188,342.2851563,325.6835938
10.1100,864.2578125,347.65625,329.1015625
10.1150,859.375,352.5390625,324.7070313
10.1200,857.421875,360.3515625,340.3320313
10.1250,860.3515625,361.8164063,330.078125
10.1300,858.8867188,363.7695313,322.7539063
10.1350,860.8398438,359.8632813,319.8242188
10.1400,864.2578125,358.3984375,315.9179688
10.1450,865.7226563,352.5390625,311.5234375
10.1500,865.7226563,344.7265625,299.3164063
10.1550,865.7226563,353.0273438,305.6640625
10.1600,862.7929688,367.1875,308.59375
10.1650,861.328125,381.3476563,316.8945313
10.1700,850.5859375,395.5078125,325.6835938
10.1750,855.9570313,413.5742188,326.171875
10.1800,857.421875,420.8984375,332.5195313
10.1850,849.1210938,407.2265625,352.5390625
10.1900,849.609375,392.578125,344.7265625
10.1950,845.2148438,389.1601563,323.2421875
10.2000,846.1914063,388.1835938,316.40625
10.2050,844.7265625,385.2539063,312.5
10.2100,836.4257813,386.71875,306.1523438
10.2150,832.03125,403.3203125,295.8984375
10.2200,822.265625,419.921875,320.3125
10.2250,810.0585938,425.78125,316.40625
10.2300,815.9179688,435.0585938,304.1992188
10.2350,817.8710938,431.640625,323.2421875
10.2400,821.7773438,442.8710938,320.3125
10.2450,831.0546875,465.3320313,317.8710938
10.2500,817.8710938,468.2617188,306.1523438
10.2550,799.3164063,462.4023438,312.9882813
10.2600,794.4335938,458.984375,315.9179688
10.2650,791.015625,453.6132813,311.0351563
10.2700,798.3398438,445.8007813,313.4765625
10.2750,810.0585938,442.8710938,303.7109375
10.2800,801.7578125,431.1523438,312.0117188
10.2850,798.828125,433.59375,310.546875
10.2900,791.015625,446.7773438,311.5234375
10.2950,788.0859375,456.0546875,308.59375
10.3000,786.1328125,475.5859375,304.6875
10.3050,778.8085938,485.3515625,299.3164063
10.3100,777.34375,495.6054688,314.453125
10.3150,758.7890625,487.7929688,303.7109375
10.3200,757.3242188,496.5820313,305.1757813
10.3250,758.7890625,503.90625,300.78125
10.3300,757.8125,502.4414063,299.8046875
10.3350,761.2304688,499.0234375,311.5234375
10.3400,755.859375,499.0234375,317.3828125
10.3450,753.90625,509.2773438,291.015625
10.3500,746.09375,518.5546875,307.1289063
10.3550,741.2109375,518.0664063,304.1992188
10.3600,728.515625,502.9296875,302.2460938
10.3650,736.328125,508.3007813,304.1992188
10.3700,734.8632813,520.5078125,297.3632813
10.3750,730.46875,524.9023438,290.0390625
10.3800,729.0039063,529.7851563,290.5273438
10.3850,732.421875,534.1796875,297.8515625
10.3900,727.5390625,512.6953125,296.875
10.3950,737.3046875,521.9726563,308.59375
10.4000,737.7929688,539.5507813,297.3632813
10.4050,728.515625,562.5,307.1289063
10.4100,714.84375,574.7070313,295.4101563
10.4150,715.3320313,581.5429688,309.5703125
10.4200,718.2617188,558.1054688,312.5
10.4250,725.5859375,535.6445313,314.453125
10.4300,729.0039063,533.203125,310.0585938
10.4350,724.609375,557.1289063,291.015625
10.4400,697.265625,590.3320313,299.3164063
10.4450,686.5234375,600.5859375,299.3164063
10.4500,684.5703125,588.3789063,317.8710938
10.4550,690.4296875,565.4296875,311.5234375
10.4600,709.9609375,567.3828125,295.8984375
10.4650,707.03125,567.3828125,288.0859375
10.4700,696.2890625,590.8203125,305.6640625
10.4750,675.78125,604.4921875,298.828125
10.4800,670.8984375,619.6289063,300.2929688
10.4850,667.4804688,612.3046875,291.5039063
10.4900,677.734375,612.3046875,298.3398438
10.4950,682.6171875,619.6289063,295.8984375
10.5000,676.7578125,627.9296875,300.78125
10.5050,668.4570313,635.2539063,297.8515625
10.5100,671.3867188,651.8554688,297.3632813
10.5150,668.4570313,653.8085938,292.4804688
10.5200,681.640625,655.7617188,293.9453125
10.5250,668.9453125,645.9960938,296.875
10.5300,665.0390625,654.7851563,299.3164063
10.5350,659.6679688,663.5742188,294.4335938
10.5400,656.7382813,676.2695313,294.921875
10.5450,653.8085938,676.7578125,295.4101563
10.5500,662.109375,677.734375,307.6171875
10.5550,669.4335938,676.7578125,298.828125
10.5600,658.203125,681.640625,288.0859375
10.5650,644.0429688,679.1992188,289.5507813
10.5700,643.5546875,680.1757813,293.9453125
10.5750,640.1367188,673.3398438,278.8085938
10.5800,638.1835938,685.0585938,285.6445313
10.5850,642.0898438,705.5664063,282.7148438
10.5900,635.2539063,714.84375,298.828125
10.5950,636.71875,713.8671875,292.96875
10.6000,631.8359375,706.5429688,296.3867188
10.6050,640.1367188,716.796875,296.3867188
10.6100,637.2070313,725.5859375,295.4101563
10.6150,632.8125,747.5585938,291.9921875
10.6200,614.7460938,771.484375,304.1992188
10.6250,603.515625,778.8085938,314.453125
10.6300,602.0507813,764.6484375,312.0117188
10.6350,593.75,735.3515625,311.5234375
10.6400,598.1445313,744.140625,311.5234375
10.6450,602.5390625,765.625,301.2695313
10.6500,584.9609375,761.2304688,314.9414063
10.6550,581.5429688,754.3945313,303.7109375
10.6600,583.4960938,755.859375,316.40625
10.6650,578.125,738.28125,312.0117188
10.6700,583.984375,737.3046875,304.6875
10.6750,570.8007813,741.6992188,307.6171875
10.6800,567.3828125,772.4609375,313.9648438
10.6850,561.0351563,792.4804688,320.8007813
10.6900,551.7578125,788.0859375,329.1015625
10.6950,541.5039063,764.1601563,331.5429688
10.7000,546.3867188,764.1601563,319.8242188
10.7050,544.921875,772.4609375,313.4765625
10.7100,529.7851563,788.5742188,327.6367188
10.7150,520.9960938,799.3164063,327.6367188
10.7200,512.6953125,800.2929688,321.7773438
10.7250,510.7421875,793.4570313,325.6835938
10.7300,519.0429688,793.9453125,319.8242188
10.7350,508.3007813,791.015625,320.8007813
10.7400,493.1640625,792.4804688,309.5703125
10.7450,474.609375,785.15625,326.6601563
10.7500,471.6796875,790.0390625,323.2421875
10.7550,475.0976563,796.875,307.1289063
10.7600,479.0039063,812.9882813,312.9882813
10.7650,470.703125,815.9179688,305.6640625
10.7700,460.4492188,799.8046875,313.4765625
10.7750,449.7070313,759.765625,312.0117188
10.7800,457.03125,756.3476563,301.7578125
10.7850,445.8007813,776.8554688,306.640625
10.7900,441.8945313,818.8476563,299.8046875
10.7950,416.9921875,833.984375,305.6640625
10.8000,409.6679688,827.1484375,303.7109375
10.8050,405.2734375,804.1992188,303.2226563
10.8100,415.0390625,801.7578125,299.8046875
10.8150,424.3164063,824.21875,286.6210938
10.8200,413.0859375,844.7265625,302.2460938
10.8250,398.4375,827.1484375,317.3828125
10.8300,372.5585938,787.109375,311.0351563
10.8350,385.2539063,787.5976563,311.0351563
10.8400,388.1835938,807.6171875,325.6835938
10.8450,384.2773438,834.4726563,304.6875
10.8500,367.1875,851.0742188,312.9882813
10.8550,346.6796875,842.2851563,310.546875
10.8600,344.2382813,837.4023438,304.6875
10.8650,351.0742188,843.2617188,301.2695313
10.8700,350.0976563,869.6289063,281.25
10.8750,347.1679688,894.0429688,283.6914063
10.8800,321.2890625,881.8359375,291.5039063
10.8850,299.8046875,851.5625,293.9453125
10.8900,294.4335938,835.9375,295.8984375
10.8950,306.1523438,846.6796875,291.015625
10.9000,316.8945313,883.7890625,283.6914063
10.9050,319.3359375,928.2226563,295.4101563
10.9100,297.3632813,947.7539063,294.4335938
10.9150,277.8320313,937.5,299.3164063
10.9200,258.3007813,894.53125,294.921875
10.9250,270.5078125,879.3945313,290.0390625
10.9300,275.8789063,881.8359375,278.3203125
10.9350,272.9492188,895.0195313,281.7382813
10.9400,252.9296875,891.1132813,270.5078125
10.9450,232.421875,872.5585938,280.2734375
10.9500,239.7460938,866.2109375,274.4140625
10.9550,245.6054688,879.8828125,281.25
10.9600,242.1875,920.8984375,304.1992188
10.9650,237.7929688,958.0078125,310.0585938
10.9700,215.8203125,947.7539063,313.9648438
10.9750,224.1210938,943.359375,316.40625
10.9800,221.6796875,921.875,324.21875
10.9850,211.4257813,901.3671875,313.4765625
10.9900,192.8710938,897.4609375,307.1289063
10.9950,194.3359375,899.9023438,310.0585938
11.0000,182.1289063,898.4375,299.8046875
11.0050,176.7578125,910.6445313,280.7617188
11.0100,174.8046875,933.59375,286.6210938
11.0150,168.9453125,927.2460938,291.5039063
11.0200,152.34375,915.5273438,289.0625
11.0250,152.8320313,922.8515625,275.390625
11.0300,135.7421875,930.6640625,277.8320313
11.0350,125.9765625,937.9882813,293.4570313
11.0400,122.5585938,944.3359375,300.2929688
11.0450,119.140625,947.7539063,304.1992188
11.0500,105.9570313,940.9179688,303.7109375
11.0550,100.0976563,937.5,306.1523438
11.0600,90.33203125,916.5039063,304.6875
11.0650,93.75,885.2539063,298.828125
11.0700,101.5625,870.6054688,304.6875
11.0750,86.9140625,889.1601563,278.3203125
11.0800,55.17578125,949.7070313,271.484375
11.0850,15.625,979.0039063,284.1796875
11.0900,7.8125,966.796875,293.4570313
11.0950,17.578125,928.2226563,290.5273438
11.1000,36.62109375,918.9453125,288.5742188
11.1050,39.0625,927.2460938,260.2539063
11.1100,26.85546875,933.59375,278.8085938
11.1150,0,925.78125,275.8789063
11.1200,-18.5546875,933.59375,265.1367188
11.1250,-44.921875,929.6875,260.2539063
11.1300,-47.8515625,932.6171875,266.1132813
11.1350,-47.8515625,907.2265625,264.1601563
11.1400,-40.0390625,903.3203125,276.8554688
11.1450,-49.31640625,914.0625,272.4609375
11.1500,-70.80078125,934.5703125,281.7382813
11.1550,-81.0546875,952.1484375,303.2226563
11.1600,-87.890625,946.7773438,300.78125
11.1650,-76.66015625,976.5625,284.1796875
11.1700,-86.42578125,1036.132813,270.5078125
11.1750,-124.0234375,1046.875,273.4375
11.1800,-149.9023438,1005.371094,281.7382813
11.1850,-159.6679688,929.1992188,262.6953125
11.1900,-139.1601563,893.0664063,230.9570313
11.1950,-132.8125,900.8789063,218.2617188
11.2000,-152.8320313,918.9453125,236.328125
11.2050,-175.78125,934.0820313,240.7226563
11.2100,-203.125,935.0585938,241.6992188
11.2150,-204.1015625,945.3125,223.1445313
11.2200,-203.125,968.2617188,218.75
11.2250,-219.7265625,953.125,253.4179688
11.2300,-224.1210938,921.875,256.3476563
11.2350,-209.9609375,911.1328125,249.5117188
11.2400,-201.6601563,950.1953125,237.3046875
11.2450,-201.6601563,993.1640625,247.0703125
11.2500,-219.2382813,1022.949219,260.7421875
11.2550,-245.6054688,1025.390625,253.4179688
11.2600,-261.71875,1013.183594,242.1875
11.2650,-255.859375,982.421875,252.4414063
11.2700,-242.6757813,939.453125,237.7929688
11.2750,-237.3046875,925.2929688,215.3320313
11.2800,-260.7421875,916.5039063,215.3320313
11.2850,-275.390625,909.6679688,213.8671875
11.2900,-299.8046875,879.3945313,217.7734375
11.2950,-302.2460938,872.0703125,213.3789063
11.3000,-302.2460938,913.0859375,217.7734375
11.3050,-316.8945313,960.4492188,230.46875
11.3100,-330.5664063,988.7695313,250.9765625
11.3150,-336.4257813,978.515625,260.7421875
11.3200,-331.5429688,954.1015625,248.046875
11.3250,-320.8007813,937.9882813,248.5351563
11.3300,-310.546875,943.8476563,235.3515625
11.3350,-326.171875,940.4296875,235.8398438
11.3400,-343.75,959.4726563,226.5625
11.3450,-359.8632813,979.4921875,220.703125
11.3500,-355.9570313,1002.929688,236.328125
11.3550,-364.7460938,985.3515625,236.8164063
11.3600,-372.0703125,970.2148438,239.2578125
11.3650,-380.859375,949.7070313,243.6523438
11.3700,-390.625,930.1757813,233.3984375
11.3750,-398.9257813,920.8984375,240.7226563
11.3800,-410.15625,928.7109375,238.28125
11.3850,-414.5507813,941.40625,246.5820313
11.3900,-424.3164063,933.59375,246.5820313
11.3950,-426.7578125,921.3867188,244.140625
11.4000,-428.2226563,905.7617188,250.4882813
11.4050,-426.2695313,900.390625,246.5820313
11.4100,-428.7109375,916.015625,227.0507813
11.4150,-433.1054688,924.8046875,232.9101563
11.4200,-431.1523438,931.1523438,238.7695313
11.4250,-433.1054688,932.6171875,240.234375
11.4300,-432.6171875,947.265625,249.5117188
11.4350,-431.1523438,959.4726563,243.6523438
11.4400,-453.6132813,952.6367188,253.90625
11.4450,-471.1914063,941.8945313,250.4882813
11.4500,-478.515625,934.0820313,235.8398438
11.4550,-479.0039063,926.7578125,240.234375
11.4600,-487.3046875,923.3398438,235.8398438
11.4650,-482.421875,915.0390625,237.7929688
11.4700,-487.3046875,891.1132813,228.0273438
11.4750,-491.2109375,873.046875,244.140625
11.4800,-495.1171875,861.8164063,247.5585938
11.4850,-500.4882813,856.9335938,251.4648438
11.4900,-518.0664063,856.9335938,244.6289063
11.4950,-513.671875,881.3476563,238.28125
11.5000,-520.5078125,898.9257813,227.5390625
11.5050,-517.578125,905.2734375,228.515625
11.5100,-519.0429688,898.4375,224.1210938
11.5150,-525.390625,887.2070313,219.2382813
11.5200,-544.4335938,882.8125,213.8671875
11.5250,-562.9882813,887.6953125,199.7070313
11.5300,-553.7109375,901.8554688,205.078125
11.5350,-550.78125,883.7890625,196.2890625
11.5400,-547.3632813,866.2109375,197.265625
11.5450,-546.3867188,863.28125,204.5898438
11.5500,-561.0351563,847.1679688,220.2148438
11.5550,-567.3828125,840.8203125,229.4921875
11.5600,-590.8203125,820.3125,224.1210938
11.5650,-597.1679688,804.6875,242.1875
11.5700,-592.2851563,799.8046875,232.421875
11.5750,-584.9609375,797.3632813,219.7265625
11.5800,-594.2382813,802.2460938,213.8671875
11.5850,-597.65625,810.546875,204.5898438
11.5900,-598.1445313,829.1015625,195.8007813
11.5950,-592.7734375,847.65625,190.4296875
11.6000,-596.1914063,851.5625,181.1523438
11.6050,-598.1445313,843.75,179.6875
11.6100,-593.2617188,842.7734375,175.2929688
11.6150,-591.3085938,844.7265625,179.1992188
11.6200,-599.1210938,856.9335938,172.8515625
11.6250,-597.65625,866.2109375,184.0820313
11.6300,-594.7265625,872.0703125,187.5
11.6350,-598.1445313,851.5625,214.3554688
11.6400,-607.421875,816.40625,219.7265625
11.6450,-612.7929688,773.9257813,227.5390625
11.6500,-620.1171875,725.0976563,236.328125
11.6550,-627.4414063,699.21875,219.2382813
11.6600,-633.7890625,717.2851563,212.890625
11.6650,-642.578125,740.7226563,175.2929688
11.6700,-650.8789063,758.7890625,176.7578125
11.6750,-663.5742188,764.6484375,155.7617188
11.6800,-676.2695313,770.5078125,141.6015625
11.6850,-687.0117188,767.578125,148.9257813
11.6900,-700.6835938,743.1640625,147.4609375
11.6950,-713.8671875,716.3085938,153.3203125
11.7000,-737.7929688,711.4257813,148.9257813
11.7050,-748.046875,713.8671875,131.8359375
11.7100,-742.6757813,719.2382813,135.2539063
11.7150,-751.953125,698.7304688,148.9257813
11.7200,-758.3007813,668.9453125,147.4609375
11.7250,-770.5078125,637.2070313,140.1367188
11.7300,-791.015625,623.046875,147.9492188
11.7350,-787.5976563,631.3476563,152.8320313
11.7400,-791.9921875,637.6953125,151.8554688
11.7450,-795.8984375,646.9726563,148.9257813
11.7500,-799.3164063,659.1796875,157.7148438
11.7550,-790.5273438,681.640625,147.9492188
11.7600,-778.8085938,684.5703125,125.9765625
11.7650,-759.765625,684.0820313,146.9726563
11.7700,-757.3242188,683.1054688,144.53125
11.7750,-778.3203125,664.5507813,139.6484375
11.7800,-787.109375,666.015625,125.4882813
11.7850,-783.203125,673.828125,131.3476563
11.7900,-776.8554688,671.875,115.7226563
11.7950,-771.9726563,673.828125,129.8828125
11.8000,-774.9023438,666.5039063,123.5351563
11.8050,-781.25,657.7148438,132.3242188
11.8100,-779.296875,642.578125,152.8320313
11.8150,-778.8085938,612.7929688,146.484375
11.8200,-778.3203125,593.2617188,163.0859375
11.8250,-789.0625,583.4960938,145.5078125
11.8300,-796.3867188,572.265625,166.5039063
11.8350,-803.7109375,567.3828125,164.0625
11.8400,-803.7109375,583.0078125,164.5507813
11.8450,-808.1054688,592.2851563,172.8515625
11.8500,-815.9179688,597.1679688,166.9921875
11.8550,-817.8710938,618.6523438,153.3203125
11.8600,-822.7539063,629.8828125,161.1328125
11.8650,-812.0117188,645.0195313,147.4609375
11.8700,-812.9882813,648.9257813,132.3242188
11.8750,-821.7773438,655.2734375,142.0898438
11.8800,-826.6601563,661.1328125,140.1367188
11.8850,-818.8476563,647.9492188,145.5078125
11.8900,-812.0117188,624.5117188,137.6953125
11.8950,-814.9414063,603.0273438,137.6953125
11.9000,-830.078125,582.5195313,160.15625
11.9050,-830.5664063,566.8945313,131.3476563
11.9100,-834.9609375,534.1796875,155.7617188
11.9150,-842.2851563,500.9765625,144.0429688
11.9200,-854.9804688,478.0273438,148.4375
11.9250,-860.8398438,480.46875,148.4375
11.9300,-865.234375,480.9570313,144.0429688
11.9350,-862.3046875,486.328125,140.1367188
11.9400,-868.6523438,502.9296875,139.6484375
11.9450,-869.6289063,531.25,116.6992188
11.9500,-862.3046875,554.6875,106.9335938
11.9550,-851.0742188,561.0351563,110.8398438
11.9600,-852.5390625,547.8515625,145.5078125
11.9650,-869.140625,521.9726563,122.0703125
11.9700,-883.7890625,503.90625,134.2773438
11.9750,-878.4179688,492.6757813,123.046875
11.9800,-872.0703125,486.8164063,116.2109375
11.9850,-866.6992188,487.3046875,111.328125
11.9900,-871.5820313,478.515625,117.6757813
11.9950,-874.5117188,471.6796875,126.953125
12.0000,-888.671875,449.7070313,121.5820313
12.0050,-885.2539063,458.984375,134.2773438
12.0100,-882.8125,468.75,133.3007813
12.0150,-882.3242188,484.375,137.2070313
12.0200,-874.5117188,497.0703125,127.4414063
12.0250,-877.9296875,500,127.4414063
12.0300,-873.5351563,511.71875,118.6523438
12.0350,-877.4414063,509.2773438,110.8398438
12.0400,-880.3710938,503.4179688,116.2109375
12.0450,-883.3007813,488.7695313,106.9335938
12.0500,-887.6953125,472.65625,118.6523438
12.0550,-883.7890625,458.4960938,106.4453125
12.0600,-881.8359375,450.1953125,135.7421875
12.0650,-890.625,432.1289063,124.5117188
12.0700,-892.578125,430.1757813,135.2539063
12.0750,-900.390625,416.5039063,145.5078125
12.0800,-898.9257813,423.828125,153.3203125
12.0850,-896.9726563,430.6640625,140.625
12.0900,-904.7851563,427.734375,144.0429688
12.0950,-900.8789063,428.7109375,139.6484375
12.1000,-900.8789063,432.6171875,124.0234375
12.1050,-911.1328125,415.5273438,128.4179688
12.1100,-918.4570313,406.25,121.09375
12.1150,-917.96875,415.5273438,115.7226563
12.1200,-920.4101563,424.8046875,115.234375
12.1250,-911.6210938,435.0585938,113.28125
12.1300,-913.0859375,435.546875,123.5351563
12.1350,-900.8789063,449.21875,102.0507813
12.1400,-909.6679688,441.40625,112.3046875
12.1450,-919.921875,428.2226563,112.7929688
12.1500,-911.1328125,427.734375,123.5351563
12.1550,-920.4101563,396.9726563,126.953125
12.1600,-917.96875,387.2070313,115.7226563
12.1650,-912.109375,375.4882813,121.5820313
12.1700,-910.6445313,365.7226563,125.4882813
12.1750,-915.5273438,356.9335938,121.09375
12.1800,-917.4804688,356.9335938,125.9765625
12.1850,-929.1992188,354.0039063,116.6992188
12.1900,-923.828125,366.2109375,109.375
12.1950,-918.9453125,378.90625,109.375
12.2000,-928.2226563,387.2070313,116.6992188
12.2050,-928.2226563,397.4609375,109.8632813
12.2100,-940.9179688,393.5546875,113.28125
12.2150,-927.734375,404.7851563,115.234375
12.2200,-932.6171875,398.9257813,111.328125
12.2250,-931.640625,399.4140625,108.3984375
12.2300,-940.4296875,400.8789063,103.0273438
12.2350,-948.2421875,399.4140625,119.140625
12.2400,-942.8710938,395.0195313,101.5625
12.2450,-952.1484375,370.6054688,111.328125
12.2500,-942.8710938,369.140625,98.14453125
12.2550,-947.7539063,354.9804688,90.33203125
12.2600,-941.40625,356.4453125,96.19140625
12.2650,-942.8710938,345.2148438,102.5390625
12.2700,-944.3359375,327.1484375,107.421875
12.2750,-938.9648438,319.3359375,86.42578125
12.2800,-948.7304688,296.3867188,103.0273438
12.2850,-945.8007813,292.4804688,97.16796875
12.2900,-943.359375,281.7382813,102.0507813
12.2950,-946.7773438,274.9023438,87.890625
12.3000,-948.2421875,270.5078125,89.35546875
12.3050,-941.8945313,277.34375,92.28515625
12.3100,-961.9140625,269.0429688,79.58984375
12.3150,-955.5664063,290.5273438,92.7734375
12.3200,-960.4492188,299.8046875,82.03125
12.3250,-959.4726563,317.3828125,83.984375
12.3300,-949.7070313,348.1445313,82.51953125
12.3350,-963.8671875,351.5625,68.84765625
12.3400,-964.84375,367.1875,97.16796875
12.3450,-965.8203125,358.3984375,99.12109375
12.3500,-964.84375,343.75,89.35546875
12.3550,-967.7734375,324.21875,79.58984375
12.3600,-967.7734375,314.453125,92.7734375
12.3650,-965.8203125,290.0390625,91.30859375
12.3700,-974.1210938,276.8554688,79.58984375
12.3750,-968.75,271.484375,74.21875
12.3800,-967.2851563,269.53125,85.44921875
12.3850,-971.1914063,290.0390625,71.77734375
12.3900,-968.2617188,308.59375,74.70703125
12.3950,-979.0039063,299.3164063,58.59375
12.4000,-969.7265625,310.0585938,57.6171875
12.4050,-965.3320313,310.0585938,60.05859375
12.4100,-967.7734375,300.2929688,59.5703125
12.4150,-968.75,286.1328125,64.94140625
12.4200,-971.1914063,267.578125,59.5703125
12.4250,-974.609375,252.9296875,50.78125
12.4300,-978.0273438,248.046875,51.7578125
12.4350,-984.8632813,246.5820313,42.48046875
12.4400,-971.6796875,264.1601563,51.26953125
12.4450,-970.703125,267.578125,46.38671875
12.4500,-968.2617188,279.7851563,55.6640625
12.4550,-965.3320313,288.0859375,45.41015625
12.4600,-956.5429688,298.3398438,60.546875
12.4650,-952.6367188,302.734375,63.96484375
12.4700,-946.7773438,310.546875,61.5234375
12.4750,-952.1484375,304.6875,64.94140625
12.4800,-947.265625,309.0820313,72.265625
12.4850,-949.21875,303.2226563,66.40625
12.4900,-948.7304688,295.4101563,60.546875
12.4950,-946.7773438,298.3398438,54.6875
12.5000,-948.2421875,291.5039063,62.01171875
12.5050,-943.359375,294.4335938,59.5703125
12.5100,-942.3828125,301.2695313,55.6640625
12.5150,-940.4296875,295.4101563,60.546875
12.5200,-944.8242188,298.828125,68.359375
12.5250,-943.8476563,295.8984375,64.453125
12.5300,-940.9179688,299.8046875,81.54296875
12.5350,-946.2890625,290.0390625,81.54296875
12.5400,-944.8242188,301.2695313,78.125
12.5450,-943.359375,303.2226563,73.73046875
12.5500,-945.8007813,304.1992188,69.3359375
12.5550,-943.8476563,304.1992188,68.359375
12.5600,-945.8007813,308.1054688,84.47265625
12.5650,-950.6835938,296.3867188,80.078125
12.5700,-957.03125,289.0625,83.49609375
12.5750,-957.03125,298.828125,92.28515625
12.5800,-953.125,308.1054688,93.26171875
12.5850,-965.8203125,312.0117188,100.0976563
12.5900,-958.984375,322.7539063,106.9335938
12.5950,-966.3085938,308.59375,113.28125
12.6000,-967.2851563,311.0351563,106.9335938
12.6050,-967.2851563,304.1992188,95.21484375
12.6100,-970.703125,305.6640625,111.328125
12.6150,-955.5664063,326.6601563,107.9101563
12.6200,-960.4492188,322.7539063,112.7929688
12.6250,-974.609375,314.9414063,116.2109375
12.6300,-972.65625,316.40625,132.8125
12.6350,-965.8203125,323.7304688,120.6054688
12.6400,-964.3554688,324.7070313,120.6054688
12.6450,-961.4257813,329.5898438,129.8828125
12.6500,-972.65625,320.8007813,114.2578125
12.6550,-980.46875,316.40625,114.2578125
12.6600,-984.8632813,316.40625,114.7460938
12.6650,-992.6757813,308.1054688,120.6054688
12.6700,-995.6054688,307.1289063,113.28125
12.6750,-991.2109375,306.1523438,110.3515625
12.6800,-997.0703125,304.1992188,124.0234375
12.6850,-998.046875,298.828125,108.3984375
12.6900,-994.6289063,295.8984375,96.6796875
12.6950,-988.7695313,299.3164063,91.30859375
12.7000,-986.328125,290.5273438,77.63671875
12.7050,-988.7695313,280.2734375,75.1953125
12.7100,-972.65625,282.7148438,51.7578125
12.7150,-957.03125,283.203125,55.17578125
12.7200,-960.4492188,258.3007813,42.96875
12.7250,-962.890625,244.140625,30.2734375
12.7300,-962.890625,233.3984375,41.50390625
12.7350,-957.03125,223.6328125,30.76171875
12.7400,-966.796875,208.4960938,54.6875
12.7450,-958.0078125,201.6601563,40.0390625
12.7500,-956.0546875,190.4296875,62.01171875
12.7550,-959.4726563,184.0820313,43.9453125
12.7600,-958.4960938,195.8007813,44.43359375
12.7650,-948.2421875,221.1914063,53.7109375
12.7700,-947.7539063,238.28125,40.52734375
12.7750,-943.359375,255.859375,51.7578125
12.7800,-944.3359375,270.0195313,37.59765625
12.7850,-942.8710938,289.0625,54.6875
12.7900,-944.8242188,293.9453125,58.10546875
12.7950,-947.265625,293.9453125,52.734375
12.8000,-945.8007813,294.4335938,50.29296875
12.8050,-955.5664063,277.34375,36.62109375
12.8100,-948.2421875,275.390625,33.203125
12.8150,-944.3359375,270.9960938,28.80859375
12.8200,-946.7773438,264.6484375,28.80859375
12.8250,-949.7070313,267.0898438,25.390625
12.8300,-945.3125,270.9960938,14.6484375
12.8350,-946.7773438,254.8828125,25.390625
12.8400,-951.6601563,230.46875,41.9921875
12.8450,-963.3789063,214.3554688,41.9921875
12.8500,-965.8203125,214.84375,56.15234375
12.8550,-969.2382813,208.0078125,62.5
12.8600,-968.75,201.171875,63.96484375
12.8650,-965.3320313,191.8945313,60.05859375
12.8700,-957.5195313,205.078125,49.31640625
12.8750,-968.2617188,206.5429688,64.94140625
12.8800,-970.2148438,220.2148438,52.734375
12.8850,-973.1445313,232.9101563,61.5234375
12.8900,-974.609375,255.3710938,86.42578125
12.8950,-980.46875,268.0664063,87.40234375
12.9000,-976.5625,287.5976563,87.890625
12.9050,-974.609375,289.5507813,94.23828125
12.9100,-969.7265625,298.3398438,87.890625
12.9150,-968.2617188,288.5742188,98.6328125
12.9200,-967.2851563,276.3671875,88.37890625
12.9250,-978.0273438,250.4882813,87.890625
12.9300,-970.703125,259.765625,74.21875
12.9350,-985.3515625,250,88.8671875
12.9400,-983.8867188,270.9960938,81.54296875
12.9450,-968.2617188,296.3867188,83.984375
12.9500,-965.8203125,296.875,83.984375
12.9550,-960.9375,301.7578125,81.54296875
12.9600,-961.9140625,303.2226563,77.63671875
12.9650,-959.9609375,300.2929688,80.56640625
12.9700,-959.4726563,304.6875,95.703125
12.9750,-959.4726563,303.7109375,79.58984375
12.9800,-954.1015625,314.453125,84.9609375
12.9850,-959.4726563,311.5234375,81.54296875
12.9900,-959.4726563,315.4296875,84.9609375
12.9950,-950.6835938,320.8007813,67.3828125
13.0000,-957.5195313,314.9414063,82.51953125
13.0050,-953.125,322.265625,82.51953125
13.0100,-963.3789063,324.7070313,80.078125
13.0150,-964.84375,318.359375,90.33203125
13.0200,-959.4726563,322.7539063,86.42578125
13.0250,-972.1679688,315.9179688,75.68359375
13.0300,-969.7265625,323.2421875,85.9375
13.0350,-961.9140625,328.6132813,83.984375
13.0400,-959.9609375,319.3359375,82.51953125
13.0450,-969.2382813,303.2226563,83.984375
13.0500,-966.3085938,304.1992188,78.125
13.0550,-961.4257813,297.8515625,78.125
13.0600,-953.6132813,300.78125,62.5
13.0650,-949.7070313,304.6875,67.3828125
13.0700,-960.4492188,295.8984375,66.89453125
13.0750,-961.4257813,294.921875,52.24609375
13.0800,-964.84375,295.4101563,50.29296875
13.0850,-964.3554688,298.3398438,59.5703125
13.0900,-960.4492188,309.5703125,69.3359375
13.0950,-967.7734375,321.7773438,69.3359375
13.1000,-972.1679688,329.5898438,79.58984375
13.1050,-972.1679688,348.1445313,79.1015625
13.1100,-965.8203125,361.8164063,79.58984375
13.1150,-965.8203125,355.9570313,83.0078125
13.1200,-953.125,352.5390625,66.89453125
13.1250,-948.7304688,338.3789063,54.19921875
13.1300,-958.984375,323.7304688,68.359375
13.1350,-964.84375,319.3359375,61.03515625
13.1400,-961.9140625,327.1484375,60.546875
13.1450,-953.125,336.4257813,66.89453125
13.1500,-954.5898438,346.1914063,53.22265625
13.1550,-951.171875,356.4453125,73.2421875
13.1600,-941.8945313,376.953125,69.3359375
13.1650,-937.9882813,380.859375,78.61328125
13.1700,-943.8476563,376.4648438,73.2421875
13.1750,-943.8476563,379.8828125,79.1015625
13.1800,-942.8710938,394.0429688,66.89453125
13.1850,-945.8007813,402.34375,83.49609375
13.1900,-938.9648438,413.0859375,83.0078125
13.1950,-933.59375,418.4570313,78.125
13.2000,-928.2226563,431.1523438,80.56640625
13.2050,-923.3398438,441.8945313,78.61328125
13.2100,-928.7109375,453.6132813,93.75
13.2150,-927.734375,450.6835938,83.984375
13.2200,-919.4335938,458.0078125,85.44921875
13.2250,-917.96875,452.1484375,83.0078125
13.2300,-922.8515625,442.8710938,96.19140625
13.2350,-919.4335938,437.5,91.30859375
13.2400,-917.4804688,437.9882813,76.171875
13.2450,-898.4375,448.7304688,94.23828125
13.2500,-908.203125,443.359375,101.5625
13.2550,-912.109375,445.3125,89.84375
13.2600,-904.7851563,461.4257813,99.609375
13.2650,-914.0625,462.4023438,97.16796875
13.2700,-908.6914063,471.1914063,90.33203125
13.2750,-906.25,491.6992188,83.984375
13.2800,-902.34375,504.3945313,88.8671875
13.2850,-916.5039063,510.7421875,93.75
13.2900,-925.78125,508.3007813,93.75
13.2950,-918.9453125,508.3007813,84.47265625
13.3000,-919.921875,502.9296875,82.51953125
13.3050,-912.5976563,500.9765625,70.80078125
13.3100,-900.8789063,509.2773438,70.80078125
13.3150,-891.1132813,516.1132813,77.1484375
13.3200,-892.0898438,514.6484375,81.0546875
13.3250,-893.0664063,497.5585938,98.6328125
13.3300,-897.9492188,496.5820313,91.30859375
13.3350,-897.9492188,496.09375,84.47265625
13.3400,-884.765625,496.09375,90.33203125
13.3450,-873.5351563,499.5117188,100.0976563
13.3500,-876.953125,503.90625,93.75
13.3550,-888.1835938,506.8359375,101.0742188
13.3600,-892.578125,511.71875,99.12109375
13.3650,-887.2070313,530.7617188,94.23828125
13.3700,-880.3710938,553.7109375,91.796875
13.3750,-869.6289063,567.3828125,92.28515625
13.3800,-870.6054688,574.21875,101.5625
13.3850,-865.7226563,582.03125,98.14453125
13.3900,-863.28125,590.3320313,102.0507813
13.3950,-859.375,595.703125,91.796875
13.4000,-841.3085938,619.140625,105.9570313
13.4050,-840.8203125,616.2109375,98.14453125
13.4100,-839.84375,619.140625,99.12109375
13.4150,-835.4492188,616.2109375,111.328125
13.4200,-831.0546875,613.7695313,129.3945313
13.4250,-826.6601563,624.0234375,111.8164063
13.4300,-822.265625,628.4179688,115.7226563
13.4350,-805.6640625,621.5820313,120.6054688
13.4400,-797.8515625,617.6757813,120.1171875
13.4450,-798.828125,614.7460938,117.6757813
13.4500,-812.0117188,618.6523438,145.0195313
13.4550,-804.1992188,633.3007813,129.3945313
13.4600,-799.8046875,653.8085938,127.4414063
13.4650,-797.3632813,669.921875,134.765625
13.4700,-792.4804688,684.5703125,135.7421875
13.4750,-783.203125,686.5234375,140.625
13.4800,-776.8554688,680.1757813,115.234375
13.4850,-791.5039063,666.015625,124.0234375
13.4900,-791.9921875,672.8515625,106.4453125
13.4950,-773.9257813,694.8242188,89.35546875
13.5000,-773.9257813,695.3125,87.890625
13.5050,-761.71875,709.4726563,106.9335938
13.5100,-770.9960938,704.5898438,115.234375
13.5150,-775.390625,712.890625,112.3046875
13.5200,-765.625,731.4453125,116.6992188
13.5250,-759.765625,745.6054688,118.1640625
13.5300,-748.046875,755.859375,131.3476563
13.5350,-735.3515625,752.4414063,125.4882813
13.5400,-726.5625,741.6992188,128.4179688
13.5450,-724.1210938,731.9335938,125
13.5500,-731.4453125,725.0976563,120.6054688
13.5550,-737.3046875,731.9335938,121.5820313
13.5600,-717.7734375,755.3710938,116.6992188
13.5650,-703.6132813,753.4179688,108.3984375
13.5700,-698.2421875,749.5117188,135.2539063
13.5750,-695.3125,755.859375,125
13.5800,-690.9179688,760.7421875,125
13.5850,-678.7109375,762.2070313,116.2109375
13.5900,-670.8984375,752.4414063,131.8359375
13.5950,-661.1328125,766.6015625,107.9101563
13.6000,-667.4804688,779.7851563,124.0234375
13.6050,-658.203125,791.9921875,125.9765625
13.6100,-655.2734375,795.4101563,124.0234375
13.6150,-646.484375,780.7617188,130.3710938
13.6200,-640.1367188,781.25,127.4414063
13.6250,-637.2070313,795.4101563,117.1875
13.6300,-632.3242188,811.0351563,131.8359375
13.6350,-639.6484375,804.1992188,125.4882813
13.6400,-630.859375,809.5703125,132.3242188
13.6450,-625.4882813,805.6640625,144.0429688
13.6500,-622.5585938,812.5,132.8125
13.6550,-618.1640625,811.0351563,140.1367188
13.6600,-623.5351563,811.5234375,146.484375
13.6650,-614.2578125,804.6875,147.9492188
13.6700,-602.0507813,810.0585938,149.4140625
13.6750,-592.7734375,814.453125,139.1601563
13.6800,-602.5390625,798.3398438,149.4140625
13.6850,-589.84375,826.171875,148.9257813
13.6900,-591.796875,838.8671875,145.5078125
13.6950,-586.9140625,852.5390625,145.9960938
13.7000,-568.359375,861.328125,148.4375
13.7050,-571.2890625,831.0546875,143.5546875
13.7100,-563.4765625,829.5898438,136.71875
13.7150,-558.59375,833.984375,143.5546875
13.7200,-557.1289063,849.609375,143.0664063
13.7250,-542.4804688,858.3984375,136.71875
13.7300,-539.0625,851.0742188,150.8789063
13.7350,-527.8320313,841.796875,158.203125
13.7400,-515.1367188,852.5390625,151.8554688
13.7450,-513.1835938,858.3984375,144.0429688
13.7500,-502.9296875,866.2109375,156.25
13.7550,-489.7460938,869.6289063,157.7148438
13.7600,-487.3046875,871.5820313,159.6679688
13.7650,-488.28125,872.5585938,152.8320313
13.7700,-478.0273438,875.9765625,171.875
13.7750,-476.5625,863.7695313,154.296875
13.7800,-473.1445313,864.7460938,134.765625
13.7850,-458.984375,875.9765625,148.4375
13.7900,-453.6132813,880.859375,144.53125
13.7950,-450.6835938,882.3242188,142.0898438
13.8000,-445.8007813,879.3945313,151.3671875
13.8050,-434.5703125,873.5351563,155.2734375
13.8100,-421.875,873.5351563,166.9921875
13.8150,-416.5039063,897.4609375,170.8984375
13.8200,-421.875,899.4140625,193.8476563
13.8250,-424.8046875,884.2773438,187.0117188
13.8300,-410.6445313,893.0664063,178.2226563
13.8350,-392.0898438,904.7851563,174.3164063
13.8400,-384.2773438,917.4804688,159.6679688
13.8450,-383.3007813,917.96875,180.1757813
13.8500,-381.3476563,919.4335938,173.828125
13.8550,-389.6484375,915.0390625,173.3398438
13.8600,-387.6953125,929.1992188,171.3867188
13.8650,-377.4414063,948.2421875,176.7578125
13.8700,-368.1640625,952.6367188,181.1523438
13.8750,-346.1914063,965.8203125,177.734375
13.8800,-357.9101563,920.8984375,193.8476563
13.8850,-357.9101563,908.6914063,187.9882813
13.8900,-354.9804688,912.109375,179.6875
13.8950,-328.6132813,918.9453125,175.2929688
13.9000,-315.4296875,914.5507813,185.0585938
13.9050,-301.7578125,913.5742188,182.1289063
13.9100,-300.78125,918.4570313,201.6601563
13.9150,-309.0820313,907.7148438,196.7773438
13.9200,-303.2226563,930.1757813,214.3554688
13.9250,-288.0859375,948.2421875,213.3789063
13.9300,-277.34375,951.6601563,207.03125
13.9350,-272.4609375,948.2421875,189.9414063
13.9400,-262.2070313,956.0546875,201.171875
13.9450,-254.8828125,949.7070313,198.2421875
13.9500,-249.5117188,953.6132813,194.3359375
13.9550,-254.3945313,948.2421875,195.8007813
13.9600,-248.5351563,954.5898438,212.890625
13.9650,-232.421875,968.2617188,200.1953125
13.9700,-232.421875,978.0273438,210.9375
13.9750,-229.0039063,972.65625,208.0078125
13.9800,-224.1210938,959.9609375,213.3789063
13.9850,-221.6796875,943.8476563,208.4960938
13.9900,-210.9375,949.7070313,199.7070313
13.9950,-231.9335938,918.9453125,223.6328125
14.0000,-231.4453125,933.59375,205.5664063
14.0050,-202.6367188,960.4492188,210.9375
14.0100,-177.734375,969.2382813,215.8203125
14.0150,-164.5507813,984.8632813,228.0273438
14.0200,-175.2929688,998.5351563,224.609375
14.0250,-170.8984375,1003.90625,227.0507813
14.0300,-150.390625,992.6757813,229.9804688
14.0350,-138.1835938,957.03125,225.5859375
14.0400,-142.578125,943.8476563,225.0976563
14.0450,-136.71875,973.1445313,202.1484375
14.0500,-131.3476563,989.2578125,223.1445313
14.0550,-110.8398438,970.2148438,223.6328125
14.0600,-87.40234375,946.7773438,223.1445313
14.0650,-91.796875,949.7070313,230.9570313
14.0700,-99.12109375,987.7929688,215.3320313
14.0750,-91.796875,1015.625,248.046875
14.0800,-88.37890625,975.0976563,251.953125
14.0850,-70.80078125,947.7539063,240.7226563
14.0900,-59.08203125,958.0078125,232.421875
14.0950,-57.6171875,978.0273438,229.9804688
14.1000,-49.31640625,990.234375,250.4882813
14.1050,-40.0390625,966.796875,248.046875
14.1100,-36.1328125,943.359375,250.4882813
14.1150,-31.25,958.984375,243.6523438
14.1200,-36.62109375,980.9570313,229.4921875
14.1250,-18.5546875,1003.90625,242.1875
14.1300,-7.8125,997.0703125,250.4882813
14.1350,16.11328125,989.2578125,232.9101563
14.1400,7.32421875,966.796875,244.6289063
14.1450,3.41796875,958.984375,242.6757813
14.1500,0,952.1484375,250.4882813
14.1550,26.85546875,972.1679688,248.046875
14.1600,48.33984375,1000.976563,245.6054688
14.1650,17.578125,983.8867188,260.7421875
14.1700,8.7890625,985.3515625,255.3710938
14.1750,51.7578125,970.2148438,252.9296875
14.1800,67.87109375,932.6171875,259.765625
14.1850,74.21875,937.9882813,249.0234375
