type,name,time_units,begin_time,frequency,count,units
signal,"Noraxon MyoMotion-Segments-Forearm RT-Pitch","s",0.0000,200,5008,"deg"

time,value
0.0000,9.964862104
0.0050,9.963015207
0.0100,9.961168401
0.0150,9.959321687
0.0200,9.957379448
0.0250,9.955356476
0.0300,9.953267404
0.0350,9.951126854
0.0400,9.948949921
0.0450,9.946752642
0.0500,9.944551539
0.0550,9.942362511
0.0600,9.940200221
0.0650,9.938078278
0.0700,9.936009307
0.0750,9.934004434
0.0800,9.932073216
0.0850,9.930224322
0.0900,9.928466026
0.0950,9.926806068
0.1000,9.925251447
0.1050,9.92380857
0.1100,9.922483366
0.1150,9.921280846
0.1200,9.92020426
0.1250,9.91925409
0.1300,9.918427285
0.1350,9.917716951
0.1400,9.917112679
0.1450,9.916601267
0.1500,9.916166964
0.1550,9.91480173
0.1600,9.913620793
0.1650,9.912627841
0.1700,9.911760279
0.1750,9.910769867
0.1800,9.909957789
0.1850,9.909063099
0.1900,9.90819848
0.1950,9.907438598
0.2000,9.906867282
0.2050,9.906322092
0.2100,9.905951722
0.2150,9.905443261
0.2200,9.905061802
0.2250,9.904823267
0.2300,9.904593217
0.2350,9.904398745
0.2400,9.904337953
0.2450,9.904462338
0.2500,9.90484948
0.2550,9.905217553
0.2600,9.905897061
0.2650,9.906812053
0.2700,9.908077792
0.2750,9.909605541
0.2800,9.91141415
0.2850,9.913563771
0.2900,9.915936028
0.2950,9.918674042
0.3000,9.921829157
0.3050,9.925364649
0.3100,9.92927113
0.3150,9.93340438
0.3200,9.93792317
0.3250,9.942767574
0.3300,9.947900767
0.3350,9.95323473
0.3400,9.958900112
0.3450,9.964760009
0.3500,9.970706063
0.3550,9.976738582
0.3600,9.982764201
0.3650,9.988786197
0.3700,9.994754959
0.3750,10.00060678
0.3800,10.00645728
0.3850,10.01219024
0.3900,10.01786041
0.3950,10.0232575
0.4000,10.02839738
0.4050,10.03325596
0.4100,10.03785235
0.4150,10.04216423
0.4200,10.04615493
0.4250,10.04976617
0.4300,10.05324035
0.4350,10.05630858
0.4400,10.05917942
0.4450,10.0616403
0.4500,10.06386668
0.4550,10.06569232
0.4600,10.06715929
0.4650,10.06843836
0.4700,10.06948119
0.4750,10.07046028
0.4800,10.07126673
0.4850,10.07198192
0.4900,10.07276218
0.4950,10.07349911
0.5000,10.07442633
0.5050,10.07559125
0.5100,10.0770256
0.5150,10.07900991
0.5200,10.08153186
0.5250,10.08455203
0.5300,10.0883285
0.5350,10.09294968
0.5400,10.09848859
0.5450,10.10479301
0.5500,10.1120425
0.5550,10.12044394
0.5600,10.13003435
0.5650,10.14073217
0.5700,10.15277167
0.5750,10.1661895
0.5800,10.18092457
0.5850,10.19702634
0.5900,10.21444658
0.5950,10.23322999
0.6000,10.25313917
0.6050,10.27425095
0.6100,10.29653003
0.6150,10.32003244
0.6200,10.34450734
0.6250,10.37012737
0.6300,10.39666886
0.6350,10.42400701
0.6400,10.45209253
0.6450,10.48075936
0.6500,10.51008731
0.6550,10.54000253
0.6600,10.57028385
0.6650,10.60082842
0.6700,10.63162031
0.6750,10.66252069
0.6800,10.69326517
0.6850,10.72387575
0.6900,10.75428304
0.6950,10.78435291
0.7000,10.81405817
0.7050,10.84343701
0.7100,10.87231987
0.7150,10.90063999
0.7200,10.92839345
0.7250,10.95562208
0.7300,10.98205265
0.7350,11.00787326
0.7400,11.03296923
0.7450,11.05746541
0.7500,11.08154911
0.7550,11.1050902
0.7600,11.12826375
0.7650,11.15117877
0.7700,11.17381747
0.7750,11.19623203
0.7800,11.21863418
0.7850,11.2408528
0.7900,11.26296112
0.7950,11.28482379
0.8000,11.30638707
0.8050,11.32762154
0.8100,11.34870692
0.8150,11.369463
0.8200,11.3900499
0.8250,11.4104308
0.8300,11.43049195
0.8350,11.45025865
0.8400,11.46989627
0.8450,11.48957095
0.8500,11.50908375
0.8550,11.52866382
0.8600,11.54830342
0.8650,11.56815653
0.8700,11.58815745
0.8750,11.60825769
0.8800,11.62866382
0.8850,11.64941598
0.8900,11.67065581
0.8950,11.69219648
0.9000,11.7143115
0.9050,11.73687202
0.9100,11.75987891
0.9150,11.78338548
0.9200,11.80726908
0.9250,11.8314961
0.9300,11.85608954
0.9350,11.88121151
0.9400,11.90663906
0.9450,11.93239828
0.9500,11.9585564
0.9550,11.9848353
0.9600,12.01147928
0.9650,12.03851844
0.9700,12.06580455
0.9750,12.09347463
0.9800,12.12160398
0.9850,12.15031102
0.9900,12.17947449
0.9950,12.20916257
1.0000,12.23963015
1.0050,12.27072876
1.0100,12.30249523
1.0150,12.33501071
1.0200,12.36806306
1.0250,12.40165203
1.0300,12.43575352
1.0350,12.47033795
1.0400,12.50530204
1.0450,12.54058958
1.0500,12.57602985
1.0550,12.61179204
1.0600,12.64773205
1.0650,12.68381872
1.0700,12.720206
1.0750,12.75683782
1.0800,12.79374465
1.0850,12.83109872
1.0900,12.86897918
1.0950,12.90751648
1.1000,12.94685264
1.1050,12.98694362
1.1100,13.02777987
1.1150,13.06959063
1.1200,13.11237566
1.1250,13.15629888
1.1300,13.20148485
1.1350,13.24801803
1.1400,13.29593765
1.1450,13.34548214
1.1500,13.39701179
1.1550,13.45040969
1.1600,13.50602772
1.1650,13.56384234
1.1700,13.62415802
1.1750,13.68719255
1.1800,13.75325846
1.1850,13.82249566
1.1900,13.89522634
1.1950,13.97162996
1.2000,14.05209884
1.2050,14.13671321
1.2100,14.22585659
1.2150,14.31954941
1.2200,14.41794405
1.2250,14.52113358
1.2300,14.62934716
1.2350,14.74257093
1.2400,14.86076524
1.2450,14.98429696
1.2500,15.11306567
1.2550,15.24705925
1.2600,15.38632573
1.2650,15.53068762
1.2700,15.68033612
1.2750,15.83509742
1.2800,15.99480578
1.2850,16.15946755
1.2900,16.32893897
1.2950,16.50313128
1.3000,16.6817358
1.3050,16.86471196
1.3100,17.05179313
1.3150,17.24277875
1.3200,17.43774411
1.3250,17.63660988
1.3300,17.83921168
1.3350,18.04546284
1.3400,18.25547474
1.3450,18.46883224
1.3500,18.68557332
1.3550,18.90558408
1.3600,19.12877286
1.3650,19.3549195
1.3700,19.58389606
1.3750,19.81558358
1.3800,20.04980946
1.3850,20.28639836
1.3900,20.52537403
1.3950,20.76656471
1.4000,21.00988958
1.4050,21.25535066
1.4100,21.50273023
1.4150,21.75210866
1.4200,22.00335016
1.4250,22.25624978
1.4300,22.51079282
1.4350,22.76694698
1.4400,23.02469058
1.4450,23.28372067
1.4500,23.54395798
1.4550,23.80549603
1.4600,24.06799779
1.4650,24.33170174
1.4700,24.59637225
1.4750,24.86207284
1.4800,25.12848026
1.4850,25.39553364
1.4900,25.6630825
1.4950,25.93111825
1.5000,26.19950774
1.5050,26.46830194
1.5100,26.7374843
1.5150,27.0067219
1.5200,27.27634538
1.5250,27.54616292
1.5300,27.81602212
1.5350,28.08587806
1.5400,28.35584026
1.5450,28.62562798
1.5500,28.89516985
1.5550,29.16460181
1.5600,29.43379618
1.5650,29.70272905
1.5700,29.97129539
1.5750,30.23957189
1.5800,30.50753326
1.5850,30.77505868
1.5900,31.04211489
1.5950,31.30872809
1.6000,31.5747674
1.6050,31.84040926
1.6100,32.10567276
1.6150,32.37057299
1.6200,32.63498772
1.6250,32.89892043
1.6300,33.16245717
1.6350,33.42550194
1.6400,33.68780521
1.6450,33.94956269
1.6500,34.21079604
1.6550,34.47151519
1.6600,34.73152597
1.6650,34.99117663
1.6700,35.25023142
1.6750,35.50869532
1.6800,35.76647649
1.6850,36.02355038
1.6900,36.27976143
1.6950,36.53531296
1.7000,36.79004212
1.7050,37.04385194
1.7100,37.29678801
1.7150,37.54854467
1.7200,37.79909134
1.7250,38.04837612
1.7300,38.29636724
1.7350,38.54302851
1.7400,38.78844875
1.7450,39.03271612
1.7500,39.27574943
1.7550,39.51754305
1.7600,39.75805213
1.7650,39.99704141
1.7700,40.23441551
1.7750,40.47010891
1.7800,40.70406106
1.7850,40.93634616
1.7900,41.16678339
1.7950,41.39548288
1.8000,41.62219836
1.8050,41.84688118
1.8100,42.06936139
1.8150,42.28979814
1.8200,42.50813481
1.8250,42.72428519
1.8300,42.93840978
1.8350,43.15030975
1.8400,43.36018639
1.8450,43.56800256
1.8500,43.77377731
1.8550,43.97762449
1.8600,44.17951471
1.8650,44.37967531
1.8700,44.57816935
1.8750,44.77497868
1.8800,44.97015372
1.8850,45.16384773
1.8900,45.35604793
1.8950,45.54689356
1.9000,45.73675434
1.9050,45.92536457
1.9100,46.11271273
1.9150,46.29894922
1.9200,46.48404644
1.9250,46.66789149
1.9300,46.85037905
1.9350,47.0314343
1.9400,47.21117478
1.9450,47.3896831
1.9500,47.56687377
1.9550,47.74274568
1.9600,47.9174276
1.9650,48.09071166
1.9700,48.26289608
1.9750,48.4339154
1.9800,48.60379713
1.9850,48.77264081
1.9900,48.94047381
1.9950,49.10699837
2.0000,49.27241239
2.0050,49.43684944
2.0100,49.60021762
2.0150,49.76263697
2.0200,49.92423062
2.0250,50.08501656
2.0300,50.24478083
2.0350,50.40372371
2.0400,50.56136534
2.0450,50.71782203
2.0500,50.87299375
2.0550,51.02684046
2.0600,51.17950398
2.0650,51.33105991
2.0700,51.4817853
2.0750,51.63162772
2.0800,51.78052045
2.0850,51.92840794
2.0900,52.07518382
2.0950,52.22079223
2.1000,52.36526784
2.1050,52.50856492
2.1100,52.65089025
2.1150,52.79212033
2.1200,52.93200501
2.1250,53.07049258
2.1300,53.20730402
2.1350,53.34260664
2.1400,53.47618457
2.1450,53.60826004
2.1500,53.7387787
2.1550,53.8678841
2.1600,53.99552045
2.1650,54.12153407
2.1700,54.24591366
2.1750,54.36871201
2.1800,54.4897369
2.1850,54.60880746
2.1900,54.72586848
2.1950,54.84094015
2.2000,54.95395441
2.2050,55.06484721
2.2100,55.17381641
2.2150,55.28069746
2.2200,55.38565303
2.2250,55.48867027
2.2300,55.58997014
2.2350,55.68966311
2.2400,55.78765954
2.2450,55.88387194
2.2500,55.97824215
2.2550,56.07075093
2.2600,56.16126937
2.2650,56.24995502
2.2700,56.33657609
2.2750,56.42123578
2.2800,56.50391794
2.2850,56.58480225
2.2900,56.66370092
2.2950,56.74074381
2.3000,56.81587494
2.3050,56.8888303
2.3100,56.95938138
2.3150,57.02733215
2.3200,57.09276498
2.3250,57.15560646
2.3300,57.21607192
2.3350,57.27406004
2.3400,57.32984149
2.3450,57.38358389
2.3500,57.4353265
2.3550,57.48509045
2.3600,57.53272458
2.3650,57.57815986
2.3700,57.62102357
2.3750,57.66112679
2.3800,57.69864415
2.3850,57.73361543
2.3900,57.76595879
2.3950,57.79570797
2.4000,57.82286932
2.4050,57.84748679
2.4100,57.86929358
2.4150,57.8884878
2.4200,57.90505554
2.4250,57.91900635
2.4300,57.93018532
2.4350,57.93862938
2.4400,57.94425028
2.4450,57.94696152
2.4500,57.9468434
2.4550,57.9437137
2.4600,57.93779955
2.4650,57.92901338
2.4700,57.91738703
2.4750,57.90296413
2.4800,57.88620001
2.4850,57.86722896
2.4900,57.84633118
2.4950,57.82347249
2.5000,57.79862248
2.5050,57.77179501
2.5100,57.74275072
2.5150,57.71134767
2.5200,57.67725871
2.5250,57.64050408
2.5300,57.60104478
2.5350,57.55893613
2.5400,57.51440375
2.5450,57.4673837
2.5500,57.41803859
2.5550,57.36643351
2.5600,57.31278675
2.5650,57.25713214
2.5700,57.1997092
2.5750,57.14074092
2.5800,57.08014546
2.5850,57.01787324
2.5900,56.95390211
2.5950,56.88833638
2.6000,56.8210275
2.6050,56.75211044
2.6100,56.68182348
2.6150,56.61032767
2.6200,56.53722388
2.6250,56.46258679
2.6300,56.38639778
2.6350,56.30856784
2.6400,56.22906997
2.6450,56.14772959
2.6500,56.06476635
2.6550,55.98005502
2.6600,55.89369103
2.6650,55.80570098
2.6700,55.71640898
2.6750,55.62579422
2.6800,55.53413707
2.6850,55.4414895
2.6900,55.3477299
2.6950,55.25281028
2.7000,55.15678143
2.7050,55.05936044
2.7100,54.96050358
2.7150,54.86016279
2.7200,54.75842818
2.7250,54.65520242
2.7300,54.5508806
2.7350,54.44544847
2.7400,54.33892537
2.7450,54.2313045
2.7500,54.12277111
2.7550,54.01333074
2.7600,53.90268973
2.7650,53.7911251
2.7700,53.67841132
2.7750,53.56480784
2.7800,53.45016549
2.7850,53.33465919
2.7900,53.21840079
2.7950,53.10120949
2.8000,52.98312864
2.8050,52.86415617
2.8100,52.74446493
2.8150,52.62392493
2.8200,52.50299665
2.8250,52.38160107
2.8300,52.25978877
2.8350,52.13794423
2.8400,52.01552002
2.8450,51.89269096
2.8500,51.76937003
2.8550,51.64539325
2.8600,51.52059519
2.8650,51.39482768
2.8700,51.26835905
2.8750,51.14082966
2.8800,51.01248136
2.8850,50.88324274
2.8900,50.75322712
2.8950,50.62220542
2.9000,50.49054775
2.9050,50.35820876
2.9100,50.22510663
2.9150,50.09103949
2.9200,49.95615849
2.9250,49.82071037
2.9300,49.68477061
2.9350,49.5483447
2.9400,49.41146196
2.9450,49.27402692
2.9500,49.13619193
2.9550,48.99784028
2.9600,48.85922944
2.9650,48.72042351
2.9700,48.58154019
2.9750,48.44273799
2.9800,48.30394051
2.9850,48.16534043
2.9900,48.0269766
2.9950,47.88900615
3.0000,47.75116252
3.0050,47.61377461
3.0100,47.47685012
3.0150,47.34028661
3.0200,47.20416331
3.0250,47.06839798
3.0300,46.93284803
3.0350,46.79746937
3.0400,46.6625329
3.0450,46.52808292
3.0500,46.39394219
3.0550,46.2603192
3.0600,46.12726676
3.0650,45.99492366
3.0700,45.86357809
3.0750,45.73305611
3.0800,45.60357768
3.0850,45.47501826
3.0900,45.34745151
3.0950,45.22104583
3.1000,45.09564323
3.1050,44.97137596
3.1100,44.84823711
3.1150,44.72635925
3.1200,44.60557874
3.1250,44.48579636
3.1300,44.36711251
3.1350,44.24912583
3.1400,44.1320116
3.1450,44.01575513
3.1500,43.90031139
3.1550,43.78581817
3.1600,43.67232956
3.1650,43.55983459
3.1700,43.44798262
3.1750,43.3369022
3.1800,43.22642837
3.1850,43.11651638
3.1900,43.00710937
3.1950,42.89832124
3.2000,42.78983669
3.2050,42.68162602
3.2100,42.57369203
3.2150,42.46608031
3.2200,42.35862747
3.2250,42.25138585
3.2300,42.14401312
3.2350,42.03656572
3.2400,41.92917989
3.2450,41.82198997
3.2500,41.71483703
3.2550,41.6079189
3.2600,41.50106199
3.2650,41.39438443
3.2700,41.28768712
3.2750,41.18080202
3.2800,41.07392497
3.2850,40.96703282
3.2900,40.86012752
3.2950,40.75316148
3.3000,40.64643225
3.3050,40.53975418
3.3100,40.43318713
3.3150,40.32687798
3.3200,40.22089806
3.3250,40.11527818
3.3300,40.01018164
3.3350,39.90573199
3.3400,39.80177405
3.3450,39.69837861
3.3500,39.5957398
3.3550,39.49371131
3.3600,39.39260056
3.3650,39.29231646
3.3700,39.19276597
3.3750,39.09429644
3.3800,38.99683922
3.3850,38.90065775
3.3900,38.80556751
3.3950,38.71169011
3.4000,38.61904814
3.4050,38.52770023
3.4100,38.43746716
3.4150,38.34848088
3.4200,38.26070124
3.4250,38.17413553
3.4300,38.08856292
3.4350,38.00411914
3.4400,37.92076128
3.4450,37.83828019
3.4500,37.75669968
3.4550,37.67591543
3.4600,37.5958679
3.4650,37.51652476
3.4700,37.43773464
3.4750,37.35955899
3.4800,37.28203126
3.4850,37.20512074
3.4900,37.12883551
3.4950,37.05305401
3.5000,36.9778492
3.5050,36.90310479
3.5100,36.82869402
3.5150,36.75461262
3.5200,36.68083604
3.5250,36.6072134
3.5300,36.53385856
3.5350,36.46060423
3.5400,36.38731355
3.5450,36.31379933
3.5500,36.23999025
3.5550,36.16585154
3.5600,36.09119349
3.5650,36.01612565
3.5700,35.94056409
3.5750,35.86457019
3.5800,35.78798515
3.5850,35.7105331
3.5900,35.63235928
3.5950,35.55313909
3.6000,35.47290819
3.6050,35.39181813
3.6100,35.3098966
3.6150,35.22707184
3.6200,35.14333972
3.6250,35.05896055
3.6300,34.9736931
3.6350,34.88771304
3.6400,34.80120428
3.6450,34.71419351
3.6500,34.6266496
3.6550,34.53870379
3.6600,34.45031649
3.6650,34.36151411
3.6700,34.27257797
3.6750,34.18320968
3.6800,34.09369264
3.6850,34.00389431
3.6900,33.914133
3.6950,33.82416849
3.7000,33.73431275
3.7050,33.64459555
3.7100,33.55518286
3.7150,33.46617249
3.7200,33.37758308
3.7250,33.28955462
3.7300,33.20212086
3.7350,33.11533328
3.7400,33.02946705
3.7450,32.94455691
3.7500,32.86076158
3.7550,32.77826686
3.7600,32.69713812
3.7650,32.61749363
3.7700,32.53955036
3.7750,32.46328748
3.7800,32.3886096
3.7850,32.31574096
3.7900,32.24454829
3.7950,32.17512403
3.8000,32.10734749
3.8050,32.04133309
3.8100,31.97696346
3.8150,31.91431311
3.8200,31.85324337
3.8250,31.7937145
3.8300,31.73567098
3.8350,31.67930511
3.8400,31.62438246
3.8450,31.57091546
3.8500,31.51875638
3.8550,31.46799534
3.8600,31.41874492
3.8650,31.37089169
3.8700,31.32432285
3.8750,31.27911667
3.8800,31.23523397
3.8850,31.1927296
3.8900,31.15150681
3.8950,31.11173918
3.9000,31.07344448
3.9050,31.03637353
3.9100,31.00057991
3.9150,30.96599214
3.9200,30.93269052
3.9250,30.90049605
3.9300,30.86970263
3.9350,30.84021477
3.9400,30.81202245
3.9450,30.78504851
3.9500,30.75942179
3.9550,30.7350359
3.9600,30.71199772
3.9650,30.69047084
3.9700,30.67045611
3.9750,30.65212765
3.9800,30.63551591
3.9850,30.62055145
3.9900,30.60735549
3.9950,30.59604039
4.0000,30.58661262
4.0050,30.5789171
4.0100,30.57310176
4.0150,30.56916219
4.0200,30.56707372
4.0250,30.56678722
4.0300,30.5683764
4.0350,30.57179648
4.0400,30.57699066
4.0450,30.58390658
4.0500,30.59255246
4.0550,30.60278041
4.0600,30.61456788
4.0650,30.62785315
4.0700,30.64266605
4.0750,30.65892003
4.0800,30.67671689
4.0850,30.69589103
4.0900,30.7164132
4.0950,30.73805393
4.1000,30.76094835
4.1050,30.78493552
4.1100,30.81023484
4.1150,30.83662337
4.1200,30.86422208
4.1250,30.89286552
4.1300,30.92246451
4.1350,30.95282435
4.1400,30.98420669
4.1450,31.01640256
4.1500,31.04958531
4.1550,31.0835638
4.1600,31.11830492
4.1650,31.15366296
4.1700,31.18976699
4.1750,31.22669654
4.1800,31.26446697
4.1850,31.30313365
4.1900,31.34265662
4.1950,31.38320255
4.2000,31.4246155
4.2050,31.46701029
4.2100,31.51036949
4.2150,31.55486353
4.2200,31.60031647
4.2250,31.64696542
4.2300,31.69468181
4.2350,31.74331627
4.2400,31.79304815
4.2450,31.84384452
4.2500,31.89570339
4.2550,31.94870726
4.2600,32.00278721
4.2650,32.05787857
4.2700,32.11383576
4.2750,32.17087103
4.2800,32.22875209
4.2850,32.2877056
4.2900,32.34746759
4.2950,32.40810653
4.3000,32.46957548
4.3050,32.53191731
4.3100,32.59502944
4.3150,32.65887904
4.3200,32.72346089
4.3250,32.78887734
4.3300,32.85506103
4.3350,32.92205374
4.3400,32.98985408
4.3450,33.05836695
4.3500,33.12768094
4.3550,33.19766692
4.3600,33.26836657
4.3650,33.33958676
4.3700,33.41136133
4.3750,33.4837333
4.3800,33.5565974
4.3850,33.62988326
4.3900,33.70365958
4.3950,33.77811391
4.4000,33.85306688
4.4050,33.92854358
4.4100,34.00449896
4.4150,34.08082585
4.4200,34.15765917
4.4250,34.23483071
4.4300,34.31254579
4.4350,34.39074002
4.4400,34.46939754
4.4450,34.54860593
4.4500,34.62831553
4.4550,34.70862977
4.4600,34.78954341
4.4650,34.87116501
4.4700,34.95344537
4.4750,35.03627306
4.4800,35.11976397
4.4850,35.20377771
4.4900,35.28840488
4.4950,35.37340001
4.5000,35.45877333
4.5050,35.54469241
4.5100,35.63122838
4.5150,35.71809976
4.5200,35.8054944
4.5250,35.8932854
4.5300,35.98144316
4.5350,36.07009417
4.5400,36.15897563
4.5450,36.24822822
4.5500,36.33770577
4.5550,36.42763685
4.5600,36.51793516
4.5650,36.6087866
4.5700,36.70002297
4.5750,36.7915837
4.5800,36.88350462
4.5850,36.97565021
4.5900,37.06818186
4.5950,37.16128937
4.6000,37.25474912
4.6050,37.34850914
4.6100,37.44282712
4.6150,37.53749507
4.6200,37.6324614
4.6250,37.7278513
4.6300,37.82367903
4.6350,37.91983189
4.6400,38.01631673
4.6450,38.11315563
4.6500,38.21030893
4.6550,38.30797497
4.6600,38.40614519
4.6650,38.50494466
4.6700,38.60439202
4.6750,38.7045593
4.6800,38.80547365
4.6850,38.90715828
4.6900,39.00952134
4.6950,39.11255879
4.7000,39.21626922
4.7050,39.32071031
4.7100,39.4258412
4.7150,39.53186743
4.7200,39.63855817
4.7250,39.74621336
4.7300,39.85475237
4.7350,39.96426868
4.7400,40.07462048
4.7450,40.18593626
4.7500,40.2979521
4.7550,40.41086285
4.7600,40.52456279
4.7650,40.63903085
4.7700,40.75436071
4.7750,40.8706206
4.7800,40.9876931
4.7850,41.10587049
4.7900,41.22510731
4.7950,41.34555528
4.8000,41.46724824
4.8050,41.59007069
4.8100,41.71395045
4.8150,41.83895786
4.8200,41.96502305
4.8250,42.09192801
4.8300,42.21955956
4.8350,42.34796533
4.8400,42.47721557
4.8450,42.60714558
4.8500,42.73780553
4.8550,42.86886043
4.8600,43.00047437
4.8650,43.13249599
4.8700,43.26510083
4.8750,43.3984141
4.8800,43.53239671
4.8850,43.66721718
4.8900,43.80256072
4.8950,43.93811246
4.9000,44.07388211
4.9050,44.20987237
4.9100,44.3457245
4.9150,44.48164151
4.9200,44.61767107
4.9250,44.75372681
4.9300,44.88983828
4.9350,45.02624032
4.9400,45.16275456
4.9450,45.29963996
4.9500,45.43670784
4.9550,45.57382579
4.9600,45.71099476
4.9650,45.84815738
4.9700,45.9852921
4.9750,46.12221683
4.9800,46.25901561
4.9850,46.39573164
4.9900,46.53247941
4.9950,46.66937654
5.0000,46.8064233
5.0050,46.9436892
5.0100,47.08116488
5.0150,47.21891976
5.0200,47.35713475
5.0250,47.49545279
5.0300,47.63380291
5.0350,47.77211486
5.0400,47.9101884
5.0450,48.04790242
5.0500,48.18546137
5.0550,48.32259606
5.0600,48.45953839
5.0650,48.59622094
5.0700,48.73263045
5.0750,48.86889137
5.0800,49.00520108
5.0850,49.14127482
5.0900,49.27725388
5.0950,49.41310008
5.1000,49.54882773
5.1050,49.68445384
5.1100,49.8196986
5.1150,49.95469137
5.1200,50.08944178
5.1250,50.22411867
5.1300,50.35876889
5.1350,50.49303152
5.1400,50.62702368
5.1450,50.76083943
5.1500,50.89444446
5.1550,51.02779705
5.1600,51.16089538
5.1650,51.29349198
5.1700,51.42556042
5.1750,51.55680455
5.1800,51.68736593
5.1850,51.81701768
5.1900,51.94595073
5.1950,52.07434379
5.2000,52.20229232
5.2050,52.32995246
5.2100,52.45733342
5.2150,52.58462631
5.2200,52.71163926
5.2250,52.83843405
5.2300,52.96505486
5.2350,53.09113395
5.2400,53.21666261
5.2450,53.3415055
5.2500,53.46542831
5.2550,53.58851912
5.2600,53.7104358
5.2650,53.83133423
5.2700,53.95120972
5.2750,54.07006981
5.2800,54.18766918
5.2850,54.30381389
5.2900,54.41846992
5.2950,54.53168003
5.3000,54.64326584
5.3050,54.7534016
5.3100,54.86221613
5.3150,54.96932595
5.3200,55.07481553
5.3250,55.1789165
5.3300,55.28151532
5.3350,55.38262142
5.3400,55.48220974
5.3450,55.58039926
5.3500,55.67718806
5.3550,55.77279108
5.3600,55.86694196
5.3650,55.95988902
5.3700,56.05156484
5.3750,56.14181105
5.3800,56.23063082
5.3850,56.31812451
5.3900,56.40425141
5.3950,56.48908352
5.4000,56.57249766
5.4050,56.65473733
5.4100,56.73601674
5.4150,56.81611586
5.4200,56.89483839
5.4250,56.97212022
5.4300,57.04787399
5.4350,57.1223309
5.4400,57.19537463
5.4450,57.26688024
5.4500,57.33686278
5.4550,57.40521374
5.4600,57.47182053
5.4650,57.53625654
5.4700,57.59847154
5.4750,57.6582961
5.4800,57.71555929
5.4850,57.77019299
5.4900,57.82220394
5.4950,57.87161493
5.5000,57.91866577
5.5050,57.9632718
5.5100,58.00549488
5.5150,58.04491258
5.5200,58.08165472
5.5250,58.11550484
5.5300,58.14623287
5.5350,58.17384866
5.5400,58.1982841
5.5450,58.21939089
5.5500,58.23723354
5.5550,58.25154781
5.5600,58.26273822
5.5650,58.27059615
5.5700,58.27494978
5.5750,58.27566015
5.5800,58.27258413
5.5850,58.26567435
5.5900,58.2549069
5.5950,58.2402842
5.6000,58.22186191
5.6050,58.1996253
5.6100,58.17361336
5.6150,58.1440877
5.6200,58.11093388
5.6250,58.07423045
5.6300,58.03391253
5.6350,57.99004134
5.6400,57.94290377
5.6450,57.89273342
5.6500,57.83928675
5.6550,57.78254079
5.6600,57.72251936
5.6650,57.6590666
5.6700,57.59243536
5.6750,57.52235755
5.6800,57.44882667
5.6850,57.37204747
5.6900,57.29206233
5.6950,57.20904018
5.7000,57.12304977
5.7050,57.03384945
5.7100,56.94161099
5.7150,56.84663582
5.7200,56.74898874
5.7250,56.64869768
5.7300,56.54557361
5.7350,56.4397506
5.7400,56.33142822
5.7450,56.22093691
5.7500,56.10870716
5.7550,55.99480577
5.7600,55.87908437
5.7650,55.76182
5.7700,55.64284707
5.7750,55.52197985
5.7800,55.39911761
5.7850,55.27429582
5.7900,55.14760573
5.7950,55.01912752
5.8000,54.88891061
5.8050,54.7571207
5.8100,54.62373306
5.8150,54.48901286
5.8200,54.35294684
5.8250,54.21545116
5.8300,54.07670984
5.8350,53.93670551
5.8400,53.79529154
5.8450,53.65242769
5.8500,53.50798946
5.8550,53.36189821
5.8600,53.21381081
5.8650,53.0636728
5.8700,52.91146281
5.8750,52.75725846
5.8800,52.60127142
5.8850,52.44378079
5.8900,52.28505322
5.8950,52.12523133
5.9000,51.96427462
5.9050,51.80202101
5.9100,51.63845402
5.9150,51.47326676
5.9200,51.30648342
5.9250,51.13779744
5.9300,50.96759364
5.9350,50.795644
5.9400,50.62212025
5.9450,50.44686874
5.9500,50.27025625
5.9550,50.09230755
5.9600,49.91309243
5.9650,49.73278007
5.9700,49.55111213
5.9750,49.36833539
5.9800,49.18435509
5.9850,48.99892736
5.9900,48.81214714
5.9950,48.62390074
6.0000,48.43432593
6.0050,48.24364234
6.0100,48.05186332
6.0150,47.85901522
6.0200,47.66554045
6.0250,47.47171094
6.0300,47.27775891
6.0350,47.08383665
6.0400,46.88975474
6.0450,46.69546124
6.0500,46.50077851
6.0550,46.30577946
6.0600,46.11058087
6.0650,45.91503317
6.0700,45.71940742
6.0750,45.52390654
6.0800,45.32872771
6.0850,45.13360396
6.0900,44.93852301
6.0950,44.74316048
6.1000,44.54748779
6.1050,44.35110148
6.1100,44.15367024
6.1150,43.95520567
6.1200,43.75569515
6.1250,43.55531308
6.1300,43.35382328
6.1350,43.15140742
6.1400,42.94824543
6.1450,42.74463549
6.1500,42.54062551
6.1550,42.33627406
6.1600,42.13154805
6.1650,41.92657315
6.1700,41.72113963
6.1750,41.51536894
6.1800,41.30903874
6.1850,41.10233835
6.1900,40.89497586
6.1950,40.68670518
6.2000,40.47757106
6.2050,40.26755194
6.2100,40.05673304
6.2150,39.84549693
6.2200,39.63369211
6.2250,39.42161591
6.2300,39.20922422
6.2350,38.99643877
6.2400,38.78323157
6.2450,38.56953797
6.2500,38.35497451
6.2550,38.13973979
6.2600,37.92367077
6.2650,37.70673146
6.2700,37.48907181
6.2750,37.27074554
6.2800,37.05170545
6.2850,36.83220576
6.2900,36.61220278
6.2950,36.39177289
6.3000,36.17117041
6.3050,35.9501022
6.3100,35.72883452
6.3150,35.50744164
6.3200,35.28568161
6.3250,35.06340299
6.3300,34.84085639
6.3350,34.61799925
6.3400,34.39494231
6.3450,34.17162196
6.3500,33.94820695
6.3550,33.72482908
6.3600,33.50137667
6.3650,33.27821158
6.3700,33.05518275
6.3750,32.83229941
6.3800,32.60951214
6.3850,32.3873017
6.3900,32.16560871
6.3950,31.9446531
6.4000,31.72408708
6.4050,31.50433405
6.4100,31.28553427
6.4150,31.06764171
6.4200,30.85073119
6.4250,30.63463605
6.4300,30.41962448
6.4350,30.20565388
6.4400,29.9926596
6.4450,29.78050713
6.4500,29.56922385
6.4550,29.35880983
6.4600,29.1494297
6.4650,28.94099986
6.4700,28.73370117
6.4750,28.52734378
6.4800,28.32200674
6.4850,28.11765919
6.4900,27.91431177
6.4950,27.71204015
6.5000,27.51060495
6.5050,27.31038822
6.5100,27.11131268
6.5150,26.91295141
6.5200,26.71575185
6.5250,26.51956199
6.5300,26.32439376
6.5350,26.13040311
6.5400,25.93758118
6.5450,25.74593968
6.5500,25.55568008
6.5550,25.36667434
6.5600,25.17933242
6.5650,24.99351293
6.5700,24.80927459
6.5750,24.62659275
6.5800,24.44571405
6.5850,24.26662333
6.5900,24.08931851
6.5950,23.91370635
6.6000,23.73992951
6.6050,23.56818137
6.6100,23.39834282
6.6150,23.23074355
6.6200,23.06546373
6.6250,22.90288164
6.6300,22.74295696
6.6350,22.58584192
6.6400,22.431562
6.6450,22.28021561
6.6500,22.13177933
6.6550,21.98610602
6.6600,21.84335656
6.6650,21.70336823
6.6700,21.56627465
6.6750,21.43208287
6.6800,21.30077197
6.6850,21.17192079
6.6900,21.04554783
6.6950,20.92154877
6.7000,20.80008026
6.7050,20.68089726
6.7100,20.56386514
6.7150,20.44900312
6.7200,20.33589245
6.7250,20.22468085
6.7300,20.11503556
6.7350,20.00676425
6.7400,19.89973777
6.7450,19.79364939
6.7500,19.68850326
6.7550,19.58410668
6.7600,19.48021625
6.7650,19.3769083
6.7700,19.27410567
6.7750,19.17167336
6.7800,19.06967294
6.7850,18.96789094
6.7900,18.86649734
6.7950,18.76542643
6.8000,18.66477114
6.8050,18.56417137
6.8100,18.46383105
6.8150,18.3638093
6.8200,18.26393262
6.8250,18.16430742
6.8300,18.06494075
6.8350,17.96581516
6.8400,17.86693876
6.8450,17.76840946
6.8500,17.67031393
6.8550,17.57269298
6.8600,17.47547481
6.8650,17.37882745
6.8700,17.28279309
6.8750,17.18741928
6.8800,17.09264152
6.8850,16.9984462
6.8900,16.90496167
6.8950,16.812236
6.9000,16.72025727
6.9050,16.62910202
6.9100,16.53892141
6.9150,16.44951844
6.9200,16.36119431
6.9250,16.27389292
6.9300,16.18787081
6.9350,16.10306826
6.9400,16.01957929
6.9450,15.93750966
6.9500,15.85691941
6.9550,15.77795673
6.9600,15.70074021
6.9650,15.62523257
6.9700,15.55139627
6.9750,15.47944409
6.9800,15.40916123
6.9850,15.34074068
6.9900,15.27423244
6.9950,15.2096773
7.0000,15.14708474
7.0050,15.08632994
7.0100,15.02758338
7.0150,14.97068834
7.0200,14.91573017
7.0250,14.86257926
7.0300,14.81136787
7.0350,14.76204637
7.0400,14.71459574
7.0450,14.66906101
7.0500,14.62538102
7.0550,14.58388624
7.0600,14.54460164
7.0650,14.50744299
7.0700,14.47255259
7.0750,14.4401196
7.0800,14.40999237
7.0850,14.38231084
7.0900,14.35709087
7.0950,14.33417457
7.1000,14.31356189
7.1050,14.29542262
7.1100,14.27960092
7.1150,14.26630429
7.1200,14.2554885
7.1250,14.24723536
7.1300,14.24159486
7.1350,14.23858351
7.1400,14.23820273
7.1450,14.24054896
7.1500,14.24553763
7.1550,14.2532946
7.1600,14.26372472
7.1650,14.27695707
7.1700,14.29312651
7.1750,14.31219353
7.1800,14.33414046
7.1850,14.35916014
7.1900,14.38724479
7.1950,14.4184232
7.2000,14.45281495
7.2050,14.49030354
7.2100,14.53105893
7.2150,14.57518959
7.2200,14.62253212
7.2250,14.67325607
7.2300,14.72738815
7.2350,14.78486703
7.2400,14.84599289
7.2450,14.9106239
7.2500,14.97879725
7.2550,15.05064904
7.2600,15.12619775
7.2650,15.20555188
7.2700,15.28883595
7.2750,15.37590494
7.2800,15.46711125
7.2850,15.56241148
7.2900,15.6619205
7.2950,15.76560976
7.3000,15.87346354
7.3050,15.98559711
7.3100,16.10195372
7.3150,16.22250627
7.3200,16.34741356
7.3250,16.47654604
7.3300,16.60975768
7.3350,16.74707406
7.3400,16.88851986
7.3450,17.03413516
7.3500,17.18355816
7.3550,17.3366906
7.3600,17.49346753
7.3650,17.65377152
7.3700,17.81751259
7.3750,17.98447661
7.3800,18.15482711
7.3850,18.32849983
7.3900,18.50515894
7.3950,18.68492599
7.4000,18.86792768
7.4050,19.05386181
7.4100,19.24265452
7.4150,19.43419254
7.4200,19.62835193
7.4250,19.82511663
7.4300,20.0244205
7.4350,20.22620758
7.4400,20.43031002
7.4450,20.63664321
7.4500,20.84527266
7.4550,21.0561319
7.4600,21.26912163
7.4650,21.48401668
7.4700,21.70076969
7.4750,21.91927791
7.4800,22.13955429
7.4850,22.3613072
7.4900,22.58465807
7.4950,22.80965439
7.5000,23.0361994
7.5050,23.26438623
7.5100,23.49428045
7.5150,23.72591435
7.5200,23.95917367
7.5250,24.19382519
7.5300,24.42969456
7.5350,24.66679545
7.5400,24.90490774
7.5450,25.14405879
7.5500,25.38415676
7.5550,25.62515066
7.5600,25.86723691
7.5650,26.11029169
7.5700,26.35425531
7.5750,26.59900201
7.5800,26.84439177
7.5850,27.09069273
7.5900,27.33782155
7.5950,27.58582519
7.6000,27.83487624
7.6050,28.08506301
7.6100,28.33633167
7.6150,28.58882704
7.6200,28.84257456
7.6250,29.09762591
7.6300,29.35396607
7.6350,29.61168809
7.6400,29.87066934
7.6450,30.13081373
7.6500,30.39229762
7.6550,30.65510878
7.6600,30.91906759
7.6650,31.18418257
7.6700,31.45020517
7.6750,31.71699558
7.6800,31.98416996
7.6850,32.25155412
7.6900,32.51909737
7.6950,32.78657987
7.7000,33.05386967
7.7050,33.32083247
7.7100,33.58733499
7.7150,33.85335752
7.7200,34.11894565
7.7250,34.38394506
7.7300,34.64816962
7.7350,34.91174059
7.7400,35.1747692
7.7450,35.43706457
7.7500,35.69860034
7.7550,35.95934952
7.7600,36.21926553
7.7650,36.47853767
7.7700,36.73686883
7.7750,36.99451427
7.7800,37.25134177
7.7850,37.50761307
7.7900,37.76304057
7.7950,38.0177111
7.8000,38.27133401
7.8050,38.52362651
7.8100,38.774546
7.8150,39.02392407
7.8200,39.27177251
7.8250,39.51815794
7.8300,39.7630558
7.8350,40.00651083
7.8400,40.24858648
7.8450,40.48926962
7.8500,40.7287017
7.8550,40.96682364
7.8600,41.20346543
7.8650,41.43863904
7.8700,41.67257202
7.8750,41.90523176
7.8800,42.13682717
7.8850,42.36701678
7.8900,42.596024
7.8950,42.82397104
7.9000,43.05068704
7.9050,43.27635174
7.9100,43.501034
7.9150,43.72454085
7.9200,43.94677113
7.9250,44.16776901
7.9300,44.387459
7.9350,44.60586647
7.9400,44.8228589
7.9450,45.03852992
7.9500,45.25289762
7.9550,45.46575153
7.9600,45.67724594
7.9650,45.88711274
7.9700,46.09549518
7.9750,46.30250704
7.9800,46.50826726
7.9850,46.7128243
7.9900,46.91606446
7.9950,47.11818717
8.0000,47.31934304
8.0050,47.51968607
8.0100,47.71918659
8.0150,47.91789273
8.0200,48.11573457
8.0250,48.31282728
8.0300,48.50933376
8.0350,48.70528875
8.0400,48.90072958
8.0450,49.09563728
8.0500,49.28999964
8.0550,49.48369926
8.0600,49.67706085
8.0650,49.86982115
8.0700,50.06213667
8.0750,50.25368154
8.0800,50.44462045
8.0850,50.63472238
8.0900,50.82400519
8.0950,51.01250313
8.1000,51.20002813
8.1050,51.38703314
8.1100,51.57326489
8.1150,51.75860626
8.1200,51.94308095
8.1250,52.12661719
8.1300,52.30907995
8.1350,52.49068461
8.1400,52.67107529
8.1450,52.8505428
8.1500,53.02876399
8.1550,53.20588914
8.1600,53.38187723
8.1650,53.55710039
8.1700,53.73121199
8.1750,53.90422095
8.1800,54.07608068
8.1850,54.24705095
8.1900,54.41696025
8.1950,54.58553108
8.2000,54.75275301
8.2050,54.9183516
8.2100,55.08245693
8.2150,55.24485297
8.2200,55.40536681
8.2250,55.56376459
8.2300,55.72024033
8.2350,55.8744763
8.2400,56.02644582
8.2450,56.17591188
8.2500,56.32278542
8.2550,56.46695927
8.2600,56.60812049
8.2650,56.74609118
8.2700,56.88069412
8.2750,57.01194983
8.2800,57.13982904
8.2850,57.26411288
8.2900,57.38480093
8.2950,57.50185872
8.3000,57.61521394
8.3050,57.72484948
8.3100,57.83076032
8.3150,57.933024
8.3200,58.03182378
8.3250,58.12714257
8.3300,58.2186827
8.3350,58.30643714
8.3400,58.39058062
8.3450,58.47112991
8.3500,58.5480311
8.3550,58.62120399
8.3600,58.69042532
8.3650,58.75582518
8.3700,58.81732406
8.3750,58.8751054
8.3800,58.92903351
8.3850,58.97921361
8.3900,59.02564049
8.3950,59.06815728
8.4000,59.10696877
8.4050,59.14187849
8.4100,59.17278353
8.4150,59.20002587
8.4200,59.2236086
8.4250,59.24353614
8.4300,59.26028596
8.4350,59.27374493
8.4400,59.28415302
8.4450,59.29145701
8.4500,59.29594596
8.4550,59.2974559
8.4600,59.29593652
8.4650,59.29127823
8.4700,59.28346066
8.4750,59.27272542
8.4800,59.25920828
8.4850,59.24273397
8.4900,59.22336454
8.4950,59.20144926
8.5000,59.17690642
8.5050,59.15000962
8.5100,59.12035184
8.5150,59.08816477
8.5200,59.05365975
8.5250,59.01689273
8.5300,58.97781648
8.5350,58.93657262
8.5400,58.89331291
8.5450,58.84823972
8.5500,58.80143782
8.5550,58.75294348
8.5600,58.70277558
8.5650,58.65121447
8.5700,58.59821979
8.5750,58.54365511
8.5800,58.48758644
8.5850,58.43015585
8.5900,58.37150123
8.5950,58.31165624
8.6000,58.25039309
8.6050,58.18793066
8.6100,58.12411678
8.6150,58.05886877
8.6200,57.99223974
8.6250,57.92419725
8.6300,57.85494337
8.6350,57.78452453
8.6400,57.71278691
8.6450,57.6395932
8.6500,57.56510503
8.6550,57.48964584
8.6600,57.4132388
8.6650,57.3358477
8.6700,57.25757696
8.6750,57.17842906
8.6800,57.09853723
8.6850,57.01808301
8.6900,56.93705286
8.6950,56.85563056
8.7000,56.77376505
8.7050,56.69156139
8.7100,56.60910156
8.7150,56.52602705
8.7200,56.44235595
8.7250,56.35820665
8.7300,56.27293087
8.7350,56.18647768
8.7400,56.0988553
8.7450,56.00991791
8.7500,55.91966882
8.7550,55.82823181
8.7600,55.73562834
8.7650,55.64168931
8.7700,55.54644337
8.7750,55.44977832
8.7800,55.35173842
8.7850,55.25230238
8.7900,55.15151275
8.7950,55.04915818
8.8000,54.94524088
8.8050,54.83980142
8.8100,54.73306238
8.8150,54.6249321
8.8200,54.51563534
8.8250,54.4052643
8.8300,54.29370216
8.8350,54.1810073
8.8400,54.0670178
8.8450,53.95162464
8.8500,53.83456014
8.8550,53.71562769
8.8600,53.59490007
8.8650,53.4720015
8.8700,53.34712594
8.8750,53.22013579
8.8800,53.09087697
8.8850,52.9592185
8.8900,52.82522488
8.8950,52.68861319
8.9000,52.54949176
8.9050,52.40752965
8.9100,52.2630128
8.9150,52.11593087
8.9200,51.96628407
8.9250,51.81388423
8.9300,51.65906343
8.9350,51.50203189
8.9400,51.34305622
8.9450,51.18262287
8.9500,51.02079699
8.9550,50.8576498
8.9600,50.69313025
8.9650,50.52751343
8.9700,50.36072867
8.9750,50.19254526
8.9800,50.02300587
8.9850,49.85200405
8.9900,49.67955384
8.9950,49.50545464
9.0000,49.32981278
9.0050,49.15275726
9.0100,48.97422838
9.0150,48.79442053
9.0200,48.61342804
9.0250,48.4310828
9.0300,48.24769779
9.0350,48.0631656
9.0400,47.87747739
9.0450,47.69066076
9.0500,47.50262134
9.0550,47.31351345
9.0600,47.12337422
9.0650,46.93226308
9.0700,46.74031692
9.0750,46.54778306
9.0800,46.35457717
9.0850,46.1609117
9.0900,45.96656541
9.0950,45.77164657
9.1000,45.57614414
9.1050,45.37984466
9.1100,45.18295807
9.1150,44.98553637
9.1200,44.78736039
9.1250,44.58868005
9.1300,44.38983204
9.1350,44.19081077
9.1400,43.99179554
9.1450,43.79280415
9.1500,43.59398742
9.1550,43.39568501
9.1600,43.19806011
9.1650,43.00128579
9.1700,42.80526143
9.1750,42.61001029
9.1800,42.41559764
9.1850,42.22203277
9.1900,42.02936922
9.1950,41.83767375
9.2000,41.64701872
9.2050,41.45780151
9.2100,41.26987271
9.2150,41.08356329
9.2200,40.89861841
9.2250,40.71556962
9.2300,40.53451747
9.2350,40.3552452
9.2400,40.17760745
9.2450,40.00165045
9.2500,39.82743036
9.2550,39.65484924
9.2600,39.48398802
9.2650,39.31471973
9.2700,39.14724863
9.2750,38.98181294
9.2800,38.8183568
9.2850,38.65678976
9.2900,38.4969741
9.2950,38.33885445
9.3000,38.18248447
9.3050,38.02753714
9.3100,37.87394149
9.3150,37.72144505
9.3200,37.5698146
9.3250,37.41904174
9.3300,37.26887139
9.3350,37.11949578
9.3400,36.97068434
9.3450,36.82242108
9.3500,36.67491713
9.3550,36.52812649
9.3600,36.38188057
9.3650,36.23634997
9.3700,36.09165138
9.3750,35.94777241
9.3800,35.80481555
9.3850,35.6627942
9.3900,35.52183078
9.3950,35.38204239
9.4000,35.24346814
9.4050,35.10622061
9.4100,34.97026442
9.4150,34.83566447
9.4200,34.70272824
9.4250,34.57136902
9.4300,34.44149626
9.4350,34.3133369
9.4400,34.18670304
9.4450,34.0617417
9.4500,33.93842112
9.4550,33.81662711
9.4600,33.69625861
9.4650,33.57730422
9.4700,33.459634
9.4750,33.34332817
9.4800,33.22828786
9.4850,33.11457482
9.4900,33.00216009
9.4950,32.8910154
9.5000,32.78134448
9.5050,32.67293332
9.5100,32.56570114
9.5150,32.45942378
9.5200,32.35430941
9.5250,32.25020695
9.5300,32.14689686
9.5350,32.04442455
9.5400,31.94296451
9.5450,31.84244438
9.5500,31.74277762
9.5550,31.64416649
9.5600,31.54649865
9.5650,31.44990854
9.5700,31.35442353
9.5750,31.26001452
9.5800,31.1666542
9.5850,31.0742445
9.5900,30.98296271
9.5950,30.89270046
9.6000,30.80340543
9.6050,30.71507933
9.6100,30.62763065
9.6150,30.54113873
9.6200,30.45566852
9.6250,30.37105602
9.6300,30.28759891
9.6350,30.20516909
9.6400,30.12368865
9.6450,30.04340699
9.6500,29.96405202
9.6550,29.88564203
9.6600,29.80822798
9.6650,29.73182452
9.6700,29.65633224
9.6750,29.58174838
9.6800,29.50804702
9.6850,29.43519267
9.6900,29.36329442
9.6950,29.29241046
9.7000,29.22264594
9.7050,29.15421799
9.7100,29.08707367
9.7150,29.02130128
9.7200,28.95691659
9.7250,28.89400554
9.7300,28.83271697
9.7350,28.77291529
9.7400,28.71485118
9.7450,28.65866093
9.7500,28.60431879
9.7550,28.55184374
9.7600,28.50153698
9.7650,28.4532419
9.7700,28.40742013
9.7750,28.36402811
9.7800,28.32318091
9.7850,28.28497655
9.7900,28.24937956
9.7950,28.21672051
9.8000,28.18686994
9.8050,28.159907
9.8100,28.13607932
9.8150,28.11541779
9.8200,28.09791515
9.8250,28.08365981
9.8300,28.07276316
9.8350,28.06518369
9.8400,28.06087792
9.8450,28.05988984
9.8500,28.06234865
9.8550,28.06809131
9.8600,28.07729139
9.8650,28.0898884
9.8700,28.10571841
9.8750,28.12482375
9.8800,28.14711039
9.8850,28.17270851
9.8900,28.20155762
9.8950,28.2336684
9.9000,28.26896137
9.9050,28.30738743
9.9100,28.34891037
9.9150,28.39353872
9.9200,28.44110786
9.9250,28.49175753
9.9300,28.54517542
9.9350,28.60139961
9.9400,28.66048153
9.9450,28.72217088
9.9500,28.78656952
9.9550,28.85345802
9.9600,28.92268067
9.9650,28.99426605
9.9700,29.06797252
9.9750,29.1439051
9.9800,29.2218185
9.9850,29.30169621
9.9900,29.38332833
9.9950,29.46662672
10.0000,29.55153265
10.0050,29.63801214
10.0100,29.72587873
10.0150,29.81517763
10.0200,29.90580566
10.0250,29.99767129
10.0300,30.09061703
10.0350,30.18479798
10.0400,30.2801834
10.0450,30.37660849
10.0500,30.47425109
10.0550,30.57308582
10.0600,30.67288982
10.0650,30.77389516
10.0700,30.87585374
10.0750,30.97874742
10.0800,31.0824698
10.0850,31.18697254
10.0900,31.29228743
10.0950,31.39823071
10.1000,31.50477971
10.1050,31.612004
10.1100,31.71990146
10.1150,31.82819754
10.1200,31.93714143
10.1250,32.04650961
10.1300,32.15624208
10.1350,32.26640819
10.1400,32.37703415
10.1450,32.48815155
10.1500,32.59963555
10.1550,32.71153185
10.1600,32.82389165
10.1650,32.93661077
10.1700,33.04974257
10.1750,33.16329042
10.1800,33.27732923
10.1850,33.39192197
10.1900,33.50692844
10.1950,33.62250856
10.2000,33.73870402
10.2050,33.85551752
10.2100,33.97299055
10.2150,34.09121239
10.2200,34.21021231
10.2250,34.33014901
10.2300,34.45098421
10.2350,34.57270819
10.2400,34.69537731
10.2450,34.81917306
10.2500,34.94410338
10.2550,35.07033821
10.2600,35.1979675
10.2650,35.3269923
10.2700,35.45763166
10.2750,35.58972638
10.2800,35.72362801
10.2850,35.85925147
10.2900,35.99676531
10.2950,36.13619599
10.3000,36.27737244
10.3050,36.42041084
10.3100,36.56568481
10.3150,36.71303114
10.3200,36.86249044
10.3250,37.01424514
10.3300,37.16843223
10.3350,37.32506412
10.3400,37.48404519
10.3450,37.64530543
10.3500,37.80878737
10.3550,37.97449888
10.3600,38.14253193
10.3650,38.31294427
10.3700,38.48552403
10.3750,38.66054863
10.3800,38.8379923
10.3850,39.01791904
10.3900,39.20029953
10.3950,39.38520711
10.4000,39.57262348
10.4050,39.76254992
10.4100,39.95494699
10.4150,40.15004601
10.4200,40.34759072
10.4250,40.54744007
10.4300,40.74967251
10.4350,40.95421097
10.4400,41.16082452
10.4450,41.36923653
10.4500,41.57937014
10.4550,41.79132957
10.4600,42.00481975
10.4650,42.21984143
10.4700,42.43613641
10.4750,42.65356569
10.4800,42.87198994
10.4850,43.09131479
10.4900,43.31138358
10.4950,43.53190443
10.5000,43.75259029
10.5050,43.97331964
10.5100,44.19386616
10.5150,44.4138951
10.5200,44.63323521
10.5250,44.85156603
10.5300,45.06873531
10.5350,45.28467415
10.5400,45.49919546
10.5450,45.71201591
10.5500,45.92320554
10.5550,46.13252227
10.5600,46.33983213
10.5650,46.54492862
10.5700,46.74777547
10.5750,46.9482093
10.5800,47.14622421
10.5850,47.34170523
10.5900,47.53471013
10.5950,47.72524229
10.6000,47.91355272
10.6050,48.09962502
10.6100,48.28332843
10.6150,48.4648922
10.6200,48.64447773
10.6250,48.82213174
10.6300,48.9981954
10.6350,49.17268976
10.6400,49.34567637
10.6450,49.51729501
10.6500,49.68759475
10.6550,49.85676756
10.6600,50.02481153
10.6650,50.19179741
10.6700,50.35812512
10.6750,50.52351528
10.6800,50.68825176
10.6850,50.85243258
10.6900,51.01625631
10.6950,51.17982051
10.7000,51.34317463
10.7050,51.50650946
10.7100,51.6696801
10.7150,51.83288472
10.7200,51.99609744
10.7250,52.15948719
10.7300,52.32307099
10.7350,52.48667204
10.7400,52.65025059
10.7450,52.813944
10.7500,52.97740415
10.7550,53.14047703
10.7600,53.30318742
10.7650,53.46551019
10.7700,53.62764117
10.7750,53.78962092
10.7800,53.95152749
10.7850,54.11281265
10.7900,54.27362981
10.7950,54.43371414
10.8000,54.59289257
10.8050,54.75087783
10.8100,54.90740131
10.8150,55.06229646
10.8200,55.215369
10.8250,55.36667209
10.8300,55.51650464
10.8350,55.66496379
10.8400,55.8120238
10.8450,55.95762873
10.8500,56.10150235
10.8550,56.24369436
10.8600,56.38406252
10.8650,56.52254168
10.8700,56.65873854
10.8750,56.79272386
10.8800,56.92406553
10.8850,57.05262618
10.8900,57.17850529
10.8950,57.30148936
10.9000,57.42154775
10.9050,57.53861694
10.9100,57.65290877
10.9150,57.76446306
10.9200,57.87331079
10.9250,57.9792907
10.9300,58.08205985
10.9350,58.18130593
10.9400,58.27721659
10.9450,58.36993656
10.9500,58.45962363
10.9550,58.54624626
10.9600,58.62969009
10.9650,58.70999683
10.9700,58.78723634
10.9750,58.8615819
10.9800,58.9328449
10.9850,59.00075899
10.9900,59.0653669
10.9950,59.12636968
11.0000,59.18359667
11.0050,59.23667273
11.0100,59.28565138
11.0150,59.33055332
11.0200,59.37167291
11.0250,59.40889641
11.0300,59.44236222
11.0350,59.47272584
11.0400,59.50003015
11.0450,59.52423996
11.0500,59.54515009
11.0550,59.56222856
11.0600,59.57517344
11.0650,59.58358519
11.0700,59.58700486
11.0750,59.58485511
11.0800,59.57685948
11.0850,59.56295315
11.0900,59.54298872
11.0950,59.51685029
11.1000,59.48450527
11.1050,59.44619083
11.1100,59.40204351
11.1150,59.35251995
11.1200,59.29791474
11.1250,59.23818796
11.1300,59.17310172
11.1350,59.10270327
11.1400,59.02697087
11.1450,58.94590847
11.1500,58.85952869
11.1550,58.7676482
11.1600,58.67050834
11.1650,58.56807171
11.1700,58.46074014
11.1750,58.34878966
11.1800,58.2325524
11.1850,58.11192059
11.1900,57.98674358
11.1950,57.85702413
11.2000,57.72262515
11.2050,57.58342176
11.2100,57.43941701
11.2150,57.29054987
11.2200,57.13693105
11.2250,56.97879808
11.2300,56.81618815
11.2350,56.6495032
11.2400,56.47863193
11.2450,56.30375222
11.2500,56.12448248
11.2550,55.94094801
11.2600,55.75324142
11.2650,55.56127385
11.2700,55.3647774
11.2750,55.16389073
11.2800,54.95877978
11.2850,54.74936013
11.2900,54.53575453
11.2950,54.31822987
11.3000,54.09717754
11.3050,53.87294799
11.3100,53.64573184
11.3150,53.415441
11.3200,53.18217975
11.3250,52.94642525
11.3300,52.70811794
11.3350,52.46676155
11.3400,52.22268537
11.3450,51.97610471
11.3500,51.72743728
11.3550,51.47714698
11.3600,51.22576566
11.3650,50.97361365
11.3700,50.72094353
11.3750,50.4677043
11.3800,50.21403998
11.3850,49.96020508
11.3900,49.70637014
11.3950,49.45266993
11.4000,49.19931631
11.4050,48.94627217
11.4100,48.69353711
11.4150,48.44110967
11.4200,48.18895375
11.4250,47.93730057
11.4300,47.68622966
11.4350,47.43572365
11.4400,47.18618772
11.4450,46.93777848
11.4500,46.69063831
11.4550,46.44507136
11.4600,46.2012604
11.4650,45.95913187
11.4700,45.71869986
11.4750,45.47960527
11.4800,45.24156471
11.4850,45.00480635
11.4900,44.76911377
11.4950,44.53483329
11.5000,44.30189767
11.5050,44.07034658
11.5100,43.83986981
11.5150,43.61023641
11.5200,43.38127461
11.5250,43.15275588
11.5300,42.92499626
11.5350,42.69766516
11.5400,42.47077696
11.5450,42.24422107
11.5500,42.01804581
11.5550,41.79216548
11.5600,41.56642085
11.5650,41.34085216
11.5700,41.11571511
11.5750,40.89086794
11.5800,40.66622923
11.5850,40.44164241
11.5900,40.21701362
11.5950,39.99199175
11.6000,39.76655071
11.6050,39.54037181
11.6100,39.31349975
11.6150,39.08584171
11.6200,38.8575172
11.6250,38.62839097
11.6300,38.39852609
11.6350,38.1681049
11.6400,37.93712912
11.6450,37.70557835
11.6500,37.4736233
11.6550,37.24147229
11.6600,37.0091214
11.6650,36.77663714
11.6700,36.54422965
11.6750,36.31224545
11.6800,36.08087825
11.6850,35.85029103
11.6900,35.62050922
11.6950,35.39162254
11.7000,35.16375598
11.7050,34.93703122
11.7100,34.71135551
11.7150,34.48672212
11.7200,34.26304844
11.7250,34.04021149
11.7300,33.81838468
11.7350,33.59746523
11.7400,33.37734854
11.7450,33.15806235
11.7500,32.93962273
11.7550,32.72203172
11.7600,32.50520923
11.7650,32.28932075
11.7700,32.07412363
11.7750,31.8596582
11.7800,31.64598316
11.7850,31.43284698
11.7900,31.22024618
11.7950,31.0080556
11.8000,30.79623328
11.8050,30.58470877
11.8100,30.37360611
11.8150,30.16305025
11.8200,29.95322877
11.8250,29.74422624
11.8300,29.53589481
11.8350,29.32837037
11.8400,29.12168647
11.8450,28.91584366
11.8500,28.71080106
11.8550,28.50660217
11.8600,28.30344711
11.8650,28.10132443
11.8700,27.90004617
11.8750,27.6995743
11.8800,27.50013363
11.8850,27.3017542
11.8900,27.10466939
11.8950,26.90901225
11.9000,26.71491719
11.9050,26.52266675
11.9100,26.33225857
11.9150,26.14368273
11.9200,25.95690296
11.9250,25.77206347
11.9300,25.58922784
11.9350,25.40837403
11.9400,25.22950027
11.9450,25.05271783
11.9500,24.87809741
11.9550,24.7055708
11.9600,24.53512326
11.9650,24.36666611
11.9700,24.20007239
11.9750,24.03527156
11.9800,23.87221716
11.9850,23.71073741
11.9900,23.55085396
11.9950,23.39260736
12.0000,23.23573814
12.0050,23.08025699
12.0100,22.92627246
12.0150,22.7735012
12.0200,22.6221149
12.0250,22.47204937
12.0300,22.32304107
12.0350,22.17509648
12.0400,22.02819609
12.0450,21.88227727
12.0500,21.73706391
12.0550,21.59250793
12.0600,21.4487036
12.0650,21.30529888
12.0700,21.16250052
12.0750,21.02011103
12.0800,20.87813196
12.0850,20.73665452
12.0900,20.59573363
12.0950,20.45531813
12.1000,20.31539499
12.1050,20.17600237
12.1100,20.03730031
12.1150,19.89915716
12.1200,19.76157519
12.1250,19.62463514
12.1300,19.48839936
12.1350,19.35294499
12.1400,19.21819172
12.1450,19.08419658
12.1500,18.95090152
12.1550,18.81836098
12.1600,18.68649779
12.1650,18.55511304
12.1700,18.4242926
12.1750,18.29392586
12.1800,18.16394429
12.1850,18.03413589
12.1900,17.90449028
12.1950,17.77484575
12.2000,17.64514013
12.2050,17.51516042
12.2100,17.38494544
12.2150,17.2544508
12.2200,17.12366582
12.2250,16.99253524
12.2300,16.86110213
12.2350,16.72934649
12.2400,16.59739903
12.2450,16.46533944
12.2500,16.33337057
12.2550,16.20164745
12.2600,16.07027927
12.2650,15.93957649
12.2700,15.80986126
12.2750,15.68131346
12.2800,15.55407343
12.2850,15.42832076
12.2900,15.30409386
12.2950,15.18130844
12.3000,15.06027843
12.3050,14.94090467
12.3100,14.82316503
12.3150,14.70722314
12.3200,14.59295463
12.3250,14.48042755
12.3300,14.36973039
12.3350,14.26076883
12.3400,14.15358822
12.3450,14.04817866
12.3500,13.94462857
12.3550,13.84292587
12.3600,13.74288042
12.3650,13.64479375
12.3700,13.54844507
12.3750,13.45389493
12.3800,13.36119669
12.3850,13.2704958
12.3900,13.18169978
12.3950,13.09489719
12.4000,13.01000968
12.4050,12.92710249
12.4100,12.84606805
12.4150,12.7670694
12.4200,12.68995965
12.4250,12.614593
12.4300,12.54078974
12.4350,12.46843867
12.4400,12.39739972
12.4450,12.32752535
12.4500,12.25864068
12.4550,12.19059269
12.4600,12.1232442
12.4650,12.05645062
12.4700,11.9901287
12.4750,11.92416624
12.4800,11.85842087
12.4850,11.79294801
12.4900,11.72751992
12.4950,11.6620612
12.5000,11.5964521
12.5050,11.53084564
12.5100,11.46504511
12.5150,11.39919873
12.5200,11.33320564
12.5250,11.26728069
12.5300,11.20145674
12.5350,11.13577048
12.5400,11.07031777
12.5450,11.00521723
12.5500,10.9403953
12.5550,10.8759912
12.5600,10.81201749
12.5650,10.74864237
12.5700,10.68581201
12.5750,10.62381502
12.5800,10.5626672
12.5850,10.5022299
12.5900,10.44287458
12.5950,10.38471442
12.6000,10.3277301
12.6050,10.27222302
12.6100,10.21826917
12.6150,10.16579134
12.6200,10.11518097
12.6250,10.06630503
12.6300,10.01924525
12.6350,9.974258912
12.6400,9.931368942
12.6450,9.890489645
12.6500,9.851951069
12.6550,9.815537761
12.6600,9.781570851
12.6650,9.749746168
12.6700,9.720226391
12.6750,9.693081823
12.6800,9.668284192
12.6850,9.64575195
12.6900,9.625568972
12.6950,9.607563121
12.7000,9.591818999
12.7050,9.578163577
12.7100,9.566607565
12.7150,9.556970438
12.7200,9.549100277
12.7250,9.542818991
12.7300,9.538118538
12.7350,9.534837857
12.7400,9.532869376
12.7450,9.53206556
12.7500,9.532225955
12.7550,9.533299671
12.7600,9.535137166
12.7650,9.537670188
12.7700,9.540806701
12.7750,9.544472255
12.7800,9.548670031
12.7850,9.553291422
12.7900,9.55831146
12.7950,9.56369821
12.8000,9.569491053
12.8050,9.575553721
12.8100,9.582142551
12.8150,9.589181444
12.8200,9.596929798
12.8250,9.605304751
12.8300,9.614438535
12.8350,9.624488515
12.8400,9.635633805
12.8450,9.647737361
12.8500,9.660942789
12.8550,9.675354367
12.8600,9.691127933
12.8650,9.708100653
12.8700,9.726362737
12.8750,9.745767826
12.8800,9.766421905
12.8850,9.78848364
12.8900,9.811781623
12.8950,9.836316035
12.9000,9.86216253
12.9050,9.889167045
12.9100,9.917591995
12.9150,9.947373539
12.9200,9.97843808
12.9250,10.01093967
12.9300,10.04504366
12.9350,10.08044187
12.9400,10.1172755
12.9450,10.15578009
12.9500,10.19572949
12.9550,10.23737365
12.9600,10.28060216
12.9650,10.32574067
12.9700,10.37271198
12.9750,10.42162909
12.9800,10.47251341
12.9850,10.52532722
12.9900,10.58024927
12.9950,10.6372669
13.0000,10.69651426
13.0050,10.75803131
13.0100,10.8218838
13.0150,10.88804405
13.0200,10.95688401
13.0250,11.02838555
13.0300,11.10266099
13.0350,11.17990853
13.0400,11.26034804
13.0450,11.34395368
13.0500,11.43089322
13.0550,11.52116796
13.0600,11.61476865
13.0650,11.7118003
13.0700,11.81238995
13.0750,11.91645769
13.0800,12.02395068
13.0850,12.13507288
13.0900,12.24975185
13.0950,12.36806773
13.1000,12.48993831
13.1050,12.61552903
13.1100,12.74459778
13.1150,12.87733537
13.1200,13.01351031
13.1250,13.15312823
13.1300,13.29618253
13.1350,13.44243322
13.1400,13.59171292
13.1450,13.74426516
13.1500,13.89993022
13.1550,14.05847216
13.1600,14.21983122
13.1650,14.38398826
13.1700,14.55083193
13.1750,14.72032002
13.1800,14.89237786
13.1850,15.06701322
13.1900,15.24406874
13.1950,15.42365626
13.2000,15.60568423
13.2050,15.79010621
13.2100,15.97675945
13.2150,16.16583898
13.2200,16.35721763
13.2250,16.55077275
13.2300,16.74640561
13.2350,16.94440715
13.2400,17.1446543
13.2450,17.34700155
13.2500,17.55161457
13.2550,17.75844231
13.2600,17.96743787
13.2650,18.17860198
13.2700,18.39196064
13.2750,18.60735726
13.2800,18.82484319
13.2850,19.04431357
13.2900,19.26581417
13.2950,19.48946919
13.3000,19.71513175
13.3050,19.94276538
13.3100,20.17233319
13.3150,20.40414329
13.3200,20.63768837
13.3250,20.87334314
13.3300,21.11102528
13.3350,21.35054265
13.3400,21.59180379
13.3450,21.8348123
13.3500,22.07980891
13.3550,22.32642821
13.3600,22.57482947
13.3650,22.82480295
13.3700,23.07602791
13.3750,23.32877585
13.3800,23.58282877
13.3850,23.83819339
13.3900,24.09481064
13.3950,24.35277154
13.4000,24.61205439
13.4050,24.87258079
13.4100,25.13424965
13.4150,25.39707707
13.4200,25.66097088
13.4250,25.92586447
13.4300,26.19176608
13.4350,26.45888972
13.4400,26.7271285
13.4450,26.99642351
13.4500,27.26677384
13.4550,27.53827318
13.4600,27.8108073
13.4650,28.08450015
13.4700,28.359336
13.4750,28.63526836
13.4800,28.91207988
13.4850,29.18971028
13.4900,29.46808351
13.4950,29.74712785
13.5000,30.02678072
13.5050,30.30696974
13.5100,30.58760974
13.5150,30.86867107
13.5200,31.15003568
13.5250,31.43174964
13.5300,31.71392503
13.5350,31.99639021
13.5400,32.27887659
13.5450,32.56161944
13.5500,32.84448299
13.5550,33.12732053
13.5600,33.41022345
13.5650,33.69319189
13.5700,33.97595697
13.5750,34.25855139
13.5800,34.54078675
13.5850,34.82285654
13.5900,35.10454356
13.5950,35.38580345
13.6000,35.6665907
13.6050,35.9469334
13.6100,36.22684188
13.6150,36.50602158
13.6200,36.78481581
13.6250,37.06303174
13.6300,37.34054623
13.6350,37.61748714
13.6400,37.89362262
13.6450,38.16913624
13.6500,38.44373746
13.6550,38.71762451
13.6600,38.99066066
13.6650,39.26282648
13.6700,39.53417216
13.6750,39.80470882
13.6800,40.07439815
13.6850,40.34308822
13.6900,40.61100274
13.6950,40.87785198
13.7000,41.14376042
13.7050,41.40847597
13.7100,41.67225543
13.7150,41.93476878
13.7200,42.19625866
13.7250,42.45666438
13.7300,42.71598359
13.7350,42.97429127
13.7400,43.23173633
13.7450,43.48803672
13.7500,43.74333616
13.7550,43.99737892
13.7600,44.25021903
13.7650,44.50154469
13.7700,44.7513512
13.7750,44.99938015
13.7800,45.24588787
13.7850,45.49082875
13.7900,45.73417081
13.7950,45.97574676
13.8000,46.21559389
13.8050,46.45352536
13.8100,46.68948709
13.8150,46.92342379
13.8200,47.15542649
13.8250,47.38551176
13.8300,47.61359471
13.8350,47.83984787
13.8400,48.06437375
13.8450,48.28706321
13.8500,48.50788851
13.8550,48.72681038
13.8600,48.94361978
13.8650,49.15814755
13.8700,49.37060608
13.8750,49.58110003
13.8800,49.78986644
13.8850,49.99665968
13.8900,50.20163664
13.8950,50.4047493
13.9000,50.60600105
13.9050,50.80528286
13.9100,51.00243214
13.9150,51.19769619
13.9200,51.3906927
13.9250,51.58137609
13.9300,51.76967487
13.9350,51.95570898
13.9400,52.13985299
13.9450,52.32174056
13.9500,52.5015202
13.9550,52.67907242
13.9600,52.85468104
13.9650,53.02839077
13.9700,53.20004783
13.9750,53.3693435
13.9800,53.53621634
13.9850,53.70053826
13.9900,53.86228909
13.9950,54.02140269
14.0000,54.17765885
14.0050,54.33118824
14.0100,54.48181401
14.0150,54.62946027
14.0200,54.77411862
14.0250,54.91580965
14.0300,55.05446569
14.0350,55.18987116
14.0400,55.32179843
14.0450,55.45042402
14.0500,55.57557794
14.0550,55.6975364
14.0600,55.81627155
14.0650,55.93200161
14.0700,56.04462016
14.0750,56.15411696
14.0800,56.26023161
14.0850,56.3625502
14.0900,56.46122571
14.0950,56.55634353
14.1000,56.64814845
14.1050,56.73654244
14.1100,56.82128051
14.1150,56.90262427
14.1200,56.98059303
14.1250,57.05504103
14.1300,57.12617562
14.1350,57.19379213
14.1400,57.25791939
14.1450,57.31860817
14.1500,57.3757413
14.1550,57.42944552
14.1600,57.47968537
14.1650,57.52683044
14.1700,57.57098156
14.1750,57.61210657
14.1800,57.65004922
14.1850,57.68499161
14.1900,57.71666819
14.1950,57.74502434
14.2000,57.76999997
14.2050,57.79170037
14.2100,57.81019471
14.2150,57.82524702
14.2200,57.83706292
14.2250,57.84581074
14.2300,57.85175238
14.2350,57.85453426
14.2400,57.85414924
14.2450,57.85086046
14.2500,57.84505673
14.2550,57.83672407
14.2600,57.82523644
14.2650,57.81052412
14.2700,57.79270089
14.2750,57.7719419
14.2800,57.74840304
14.2850,57.72249153
14.2900,57.69423952
14.2950,57.66399931
14.3000,57.63210051
14.3050,57.5987962
14.3100,57.56407169
14.3150,57.52839463
14.3200,57.49190119
14.3250,57.45484547
14.3300,57.41734215
14.3350,57.37973554
14.3400,57.3422635
14.3450,57.3046734
14.3500,57.26726204
14.3550,57.22972108
14.3600,57.19185682
14.3650,57.15365221
14.3700,57.11470765
14.3750,57.07500099
14.3800,57.03448925
14.3850,56.99308717
14.3900,56.95047241
14.3950,56.90628479
14.4000,56.85996599
14.4050,56.81132218
14.4100,56.76038199
14.4150,56.70681847
14.4200,56.6506744
14.4250,56.59198235
14.4300,56.5306803
14.4350,56.46682764
14.4400,56.40025588
14.4450,56.33108586
14.4500,56.25941813
14.4550,56.18517444
14.4600,56.1087473
14.4650,56.03004861
14.4700,55.94902244
14.4750,55.86577194
14.4800,55.7804903
14.4850,55.69307017
14.4900,55.60363717
14.4950,55.51224022
14.5000,55.41878427
14.5050,55.32336312
14.5100,55.22573533
14.5150,55.12593341
14.5200,55.02382047
14.5250,54.91921918
14.5300,54.81182903
14.5350,54.70184043
14.5400,54.5892108
14.5450,54.47379775
14.5500,54.35550991
14.5550,54.23456499
14.5600,54.11134518
14.5650,53.9859927
14.5700,53.85891385
14.5750,53.73018566
14.5800,53.60015058
14.5850,53.46863848
14.5900,53.33570391
14.5950,53.20135407
14.6000,53.06578238
14.6050,52.9291559
14.6100,52.79178636
14.6150,52.65375362
14.6200,52.51505207
14.6250,52.37567591
14.6300,52.23585128
14.6350,52.09542614
14.6400,51.95437453
14.6450,51.81282708
14.6500,51.67092343
14.6550,51.52887791
14.6600,51.38684499
14.6650,51.24480127
14.6700,51.1029802
14.6750,50.96137953
14.6800,50.81992959
14.6850,50.67870537
14.6900,50.53760361
14.6950,50.39659369
14.7000,50.25568684
14.7050,50.11500689
14.7100,49.97439231
14.7150,49.8340596
14.7200,49.6938619
14.7250,49.55374585
14.7300,49.41359874
14.7350,49.27352217
14.7400,49.1334044
14.7450,48.99325013
14.7500,48.85318958
14.7550,48.71334528
14.7600,48.57359521
14.7650,48.43412023
14.7700,48.29480882
14.7750,48.15559764
14.7800,48.01632279
14.7850,47.87696749
14.7900,47.73735631
14.7950,47.59751187
14.8000,47.45732211
14.8050,47.3166249
14.8100,47.17566243
14.8150,47.03443204
14.8200,46.89289599
14.8250,46.75106368
14.8300,46.60898248
14.8350,46.46650562
14.8400,46.32389659
14.8450,46.1812481
14.8500,46.03854911
14.8550,45.89584238
14.8600,45.75334952
14.8650,45.61121372
14.8700,45.4691359
14.8750,45.32713828
14.8800,45.18497988
14.8850,45.04285962
14.8900,44.90069759
14.8950,44.75855885
14.9000,44.6164898
14.9050,44.47437457
14.9100,44.33223504
14.9150,44.19001937
14.9200,44.04786925
14.9250,43.90569538
14.9300,43.76327036
14.9350,43.62057628
14.9400,43.47772648
14.9450,43.33467142
14.9500,43.19124893
14.9550,43.04740716
14.9600,42.9031206
14.9650,42.75835267
14.9700,42.61309027
14.9750,42.4672596
14.9800,42.32097047
14.9850,42.17422338
14.9900,42.02702425
14.9950,41.87966359
15.0000,41.73205629
15.0050,41.58407118
15.0100,41.4359445
15.0150,41.28739284
15.0200,41.13847085
15.0250,40.98921485
15.0300,40.83979182
15.0350,40.68995478
15.0400,40.54006299
15.0450,40.39000617
15.0500,40.23979352
15.0550,40.08934829
15.0600,39.93849433
15.0650,39.787387
15.0700,39.63603893
15.0750,39.48460558
15.0800,39.33318811
15.0850,39.18195567
15.0900,39.03104362
15.0950,38.88060556
15.1000,38.7307808
15.1050,38.58180124
15.1100,38.43360349
15.1150,38.28633156
15.1200,38.14011334
15.1250,37.99495354
15.1300,37.85102232
15.1350,37.70861306
15.1400,37.56768696
15.1450,37.42816248
15.1500,37.289989
15.1550,37.15324872
15.1600,37.01794853
15.1650,36.88392234
15.1700,36.75146155
15.1750,36.62045656
15.1800,36.49103641
15.1850,36.36302786
15.1900,36.23653582
15.1950,36.11158992
15.2000,35.98786117
15.2050,35.86536402
15.2100,35.74393414
15.2150,35.62360982
15.2200,35.50421226
15.2250,35.38580301
15.2300,35.26855131
15.2350,35.1522701
15.2400,35.03686326
15.2450,34.92243658
15.2500,34.80889738
15.2550,34.69620034
15.2600,34.58432714
15.2650,34.47330005
15.2700,34.36296717
15.2750,34.25338755
15.2800,34.14444385
15.2850,34.03603149
15.2900,33.92811921
15.2950,33.82048213
15.3000,33.71312602
15.3050,33.60605231
15.3100,33.49904832
15.3150,33.39229637
15.3200,33.28545257
15.3250,33.17857167
15.3300,33.07142578
15.3350,32.96406463
15.3400,32.85625815
15.3450,32.74814843
15.3500,32.6396332
15.3550,32.53059011
15.3600,32.42138948
15.3650,32.31163301
15.3700,32.20148131
15.3750,32.09082463
15.3800,31.979686
15.3850,31.86802028
15.3900,31.75596975
15.3950,31.64343631
15.4000,31.53032634
15.4050,31.41667857
15.4100,31.30255276
15.4150,31.18784485
15.4200,31.07274856
15.4250,30.95729254
15.4300,30.84130942
15.4350,30.72507985
15.4400,30.60831922
15.4450,30.49131294
15.4500,30.37413731
15.4550,30.25695911
15.4600,30.13964283
15.4650,30.02252023
15.4700,29.90530312
15.4750,29.78844945
15.4800,29.67183365
15.4850,29.55563803
15.4900,29.43985399
15.4950,29.32466015
15.5000,29.21020163
15.5050,29.09643217
15.5100,28.98369455
15.5150,28.87206151
15.5200,28.76164299
15.5250,28.65224026
15.5300,28.54404373
15.5350,28.4371169
15.5400,28.33137869
15.5450,28.22693181
15.5500,28.12380889
15.5550,28.02210184
15.5600,27.9218309
15.5650,27.82295624
15.5700,27.72546249
15.5750,27.62939225
15.5800,27.53489577
15.5850,27.44177246
15.5900,27.35031603
15.5950,27.26033488
15.6000,27.17174115
15.6050,27.08445481
15.6100,26.99845256
15.6150,26.91348041
15.6200,26.82952914
15.6250,26.74649463
15.6300,26.66423189
15.6350,26.58270298
15.6400,26.50175674
15.6450,26.42110896
15.6500,26.34059409
15.6550,26.26030801
15.6600,26.17995725
15.6650,26.09958507
15.6700,26.01896017
15.6750,25.93815068
15.6800,25.85705397
15.6850,25.77557975
15.6900,25.69363433
15.6950,25.61106446
15.7000,25.52824764
15.7050,25.44481831
15.7100,25.3608692
15.7150,25.27650161
15.7200,25.19159402
15.7250,25.10628596
15.7300,25.02067787
15.7350,24.93455752
15.7400,24.84823509
15.7450,24.7616269
15.7500,24.67488892
15.7550,24.58800069
15.7600,24.50111076
15.7650,24.41426868
15.7700,24.3278541
15.7750,24.24173362
15.7800,24.15627643
15.7850,24.07161041
15.7900,23.98806263
15.7950,23.9057582
15.8000,23.82483013
15.8050,23.74554952
15.8100,23.66806449
15.8150,23.59258638
15.8200,23.5192739
15.8250,23.44868507
15.8300,23.3807716
15.8350,23.31587945
15.8400,23.25417714
15.8450,23.1957209
15.8500,23.14054582
15.8550,23.08874426
15.8600,23.0402815
15.8650,22.99521574
15.8700,22.95349315
15.8750,22.91506024
15.8800,22.87972834
15.8850,22.84750479
15.8900,22.81827243
15.8950,22.79192109
15.9000,22.76860551
15.9050,22.74826163
15.9100,22.73089092
15.9150,22.71661065
15.9200,22.70541405
15.9250,22.69717637
15.9300,22.69213646
15.9350,22.69011213
15.9400,22.69126084
15.9450,22.69539715
15.9500,22.70257893
15.9550,22.71260922
15.9600,22.72539177
15.9650,22.74095223
15.9700,22.75911866
15.9750,22.77973576
15.9800,22.80267362
15.9850,22.82781024
15.9900,22.85480142
15.9950,22.8836164
16.0000,22.91406059
16.0050,22.94607521
16.0100,22.97964512
16.0150,23.01453452
16.0200,23.05080313
16.0250,23.08834829
16.0300,23.12705716
16.0350,23.16694591
16.0400,23.20800997
16.0450,23.25039615
16.0500,23.29393266
16.0550,23.33877479
16.0600,23.38495802
16.0650,23.43251649
16.0700,23.48163144
16.0750,23.53218386
16.0800,23.58423177
16.0850,23.63776624
16.0900,23.6925369
16.0950,23.7487392
16.1000,23.80634873
16.1050,23.86539323
16.1100,23.92589359
16.1150,23.98782277
16.1200,24.05125082
16.1250,24.11595448
16.1300,24.18200058
16.1350,24.24940346
16.1400,24.31814763
16.1450,24.38808051
16.1500,24.45946619
16.1550,24.53224509
16.1600,24.60642796
16.1650,24.68210762
16.1700,24.75955929
16.1750,24.83855997
16.1800,24.91944798
16.1850,25.00224961
16.1900,25.08692526
16.1950,25.17385873
16.2000,25.26281122
16.2050,25.3539383
16.2100,25.44723393
16.2150,25.54247786
16.2200,25.63985857
16.2250,25.73925995
16.2300,25.84057785
16.2350,25.94370198
16.2400,26.0485921
16.2450,26.15548174
16.2500,26.26421703
16.2550,26.37480185
16.2600,26.48722948
16.2650,26.60145621
16.2700,26.71758597
16.2750,26.8356523
16.2800,26.95558904
16.2850,27.07737757
16.2900,27.20128967
16.2950,27.32734288
16.3000,27.45551585
16.3050,27.58591837
16.3100,27.71853289
16.3150,27.853544
16.3200,27.99068056
16.3250,28.13000173
16.3300,28.27162544
16.3350,28.41556985
16.3400,28.56186902
16.3450,28.71032597
16.3500,28.86106581
16.3550,29.01417259
16.3600,29.16964513
16.3650,29.32743424
16.3700,29.48737336
16.3750,29.64949302
16.3800,29.81390981
16.3850,29.98058651
16.3900,30.14947785
16.3950,30.32037265
16.4000,30.49328961
16.4050,30.66817988
16.4100,30.84489374
16.4150,31.02336099
16.4200,31.20364275
16.4250,31.3855678
16.4300,31.56922546
16.4350,31.75452285
16.4400,31.94132757
16.4450,32.12978481
16.4500,32.3196841
16.4550,32.51088492
16.4600,32.70319227
16.4650,32.89651014
16.4700,33.09070403
16.4750,33.28575786
16.4800,33.48127899
16.4850,33.67744489
16.4900,33.87403574
16.4950,34.07082695
16.5000,34.26810643
16.5050,34.46574345
16.5100,34.66360252
16.5150,34.86190666
16.5200,35.06041711
16.5250,35.25927671
16.5300,35.45830982
16.5350,35.65763417
16.5400,35.85706173
16.5450,36.05628845
16.5500,36.25554857
16.5550,36.45467545
16.5600,36.65354665
16.5650,36.85213778
16.5700,37.05041707
16.5750,37.248306
16.5800,37.44581399
16.5850,37.64291194
16.5900,37.83945626
16.5950,38.03539375
16.6000,38.23052133
16.6050,38.42488924
16.6100,38.6183204
16.6150,38.81100559
16.6200,39.00308407
16.6250,39.19473131
16.6300,39.38586907
16.6350,39.57671081
16.6400,39.7672797
16.6450,39.9576749
16.6500,40.14810686
16.6550,40.33821819
16.6600,40.52808905
16.6650,40.71767512
16.6700,40.90711307
16.6750,41.09648823
16.6800,41.28583857
16.6850,41.47519611
16.6900,41.66495154
16.6950,41.85502849
16.7000,42.04575237
16.7050,42.23745036
16.7100,42.42995875
16.7150,42.62345677
16.7200,42.81779568
16.7250,43.01322253
16.7300,43.20947028
16.7350,43.40673928
16.7400,43.60511019
16.7450,43.8046483
16.7500,44.00545655
16.7550,44.20784044
16.7600,44.41211557
16.7650,44.61835263
16.7700,44.82651248
16.7750,45.03693426
16.7800,45.24955046
16.7850,45.46422699
16.7900,45.68094123
16.7950,45.89954329
16.8000,46.11956275
16.8050,46.34095248
16.8100,46.56368517
16.8150,46.78777244
16.8200,47.01310081
16.8250,47.23961072
16.8300,47.46723364
16.8350,47.69578822
16.8400,47.92512169
16.8450,48.15527874
16.8500,48.38580135
16.8550,48.61631829
16.8600,48.84673363
16.8650,49.07685361
16.8700,49.30670242
16.8750,49.53619253
16.8800,49.76514059
16.8850,49.9933121
16.8900,50.2204314
16.8950,50.44654726
16.9000,50.6714021
16.9050,50.8952104
16.9100,51.11802505
16.9150,51.33965428
16.9200,51.56030171
16.9250,51.77959805
16.9300,51.99757307
16.9350,52.21398228
16.9400,52.42872217
16.9450,52.64172182
16.9500,52.85295745
16.9550,53.06246849
16.9600,53.27016944
16.9650,53.47597877
16.9700,53.67976846
16.9750,53.88158079
16.9800,54.08094193
16.9850,54.27784266
16.9900,54.47191811
16.9950,54.66319671
17.0000,54.85168599
17.0050,55.03705336
17.0100,55.21954882
17.0150,55.39883825
17.0200,55.57481292
17.0250,55.74730624
17.0300,55.91632573
17.0350,56.08174413
17.0400,56.24374318
17.0450,56.40233324
17.0500,56.55742168
17.0550,56.70882096
17.0600,56.85615633
17.0650,56.99902012
17.0700,57.13704726
17.0750,57.2699593
17.0800,57.3976557
17.0850,57.52012738
17.0900,57.63703749
17.0950,57.74808544
17.1000,57.85327136
17.1050,57.9522644
17.1100,58.04510189
17.1150,58.13156021
17.1200,58.21181095
17.1250,58.2857062
17.1300,58.35337049
17.1350,58.41493704
17.1400,58.47047401
17.1450,58.51972422
17.1500,58.56279387
17.1550,58.5998419
17.1600,58.63068308
17.1650,58.655157
17.1700,58.67323488
17.1750,58.68474573
17.1800,58.69016104
17.1850,58.6898833
17.1900,58.68405715
17.1950,58.67267451
17.2000,58.65572272
17.2050,58.63272796
17.2100,58.60360033
17.2150,58.56800284
17.2200,58.52589046
17.2250,58.47729605
17.2300,58.42237571
17.2350,58.36154787
17.2400,58.29487805
17.2450,58.22260225
17.2500,58.14450708
17.2550,58.06099845
17.2600,57.97216582
17.2650,57.87859459
17.2700,57.78026501
17.2750,57.67730658
17.2800,57.56971332
17.2850,57.45767665
17.2900,57.34120841
17.2950,57.22024529
17.3000,57.09443495
17.3050,56.96376993
17.3100,56.82835336
17.3150,56.68871369
17.3200,56.54542755
17.3250,56.39870592
17.3300,56.24883191
17.3350,56.09596142
17.3400,55.93988902
17.3450,55.78053071
17.3500,55.61766999
17.3550,55.45125796
17.3600,55.28167801
17.3650,55.10942199
17.3700,54.93489813
17.3750,54.75805824
17.3800,54.579152
17.3850,54.39827888
17.3900,54.21605015
17.3950,54.03276962
17.4000,53.84860312
17.4050,53.66362857
17.4100,53.47752344
17.4150,53.2904558
17.4200,53.10227308
17.4250,52.912608
17.4300,52.72127219
17.4350,52.52800265
17.4400,52.33285583
17.4450,52.13583663
17.4500,51.9373219
17.4550,51.73732887
17.4600,51.53610064
17.4650,51.33357904
17.4700,51.12988527
17.4750,50.92528842
17.4800,50.71959309
17.4850,50.51259563
17.4900,50.30425758
17.4950,50.09480495
17.5000,49.88461358
17.5050,49.67399246
17.5100,49.46297126
17.5150,49.25150882
17.5200,49.03925255
17.5250,48.8262182
17.5300,48.61235238
17.5350,48.3974502
17.5400,48.18133795
17.5450,47.96394833
17.5500,47.74557253
17.5550,47.52599576
17.5600,47.30536892
17.5650,47.08324068
17.5700,46.8595532
17.5750,46.63417424
17.5800,46.40738783
17.5850,46.17939861
17.5900,45.95018004
17.5950,45.72001951
17.6000,45.48885694
17.6050,45.2567113
17.6100,45.02384949
17.6150,44.79002257
17.6200,44.55507845
17.6250,44.31903271
17.6300,44.08187632
17.6350,43.8433991
17.6400,43.60377522
17.6450,43.36293227
17.6500,43.1210497
17.6550,42.87830143
17.6600,42.6345941
17.6650,42.39006537
17.6700,42.14460605
17.6750,41.89850654
17.6800,41.65176053
17.6850,41.40460144
17.6900,41.15671231
17.6950,40.90806651
17.7000,40.65876324
17.7050,40.40905336
17.7100,40.15888054
17.7150,39.90826148
17.7200,39.65734413
17.7250,39.40644348
17.7300,39.15551314
17.7350,38.90485086
17.7400,38.65439107
17.7450,38.40426464
17.7500,38.15436522
17.7550,37.90496303
17.7600,37.65609233
17.7650,37.40773957
17.7700,37.15978266
17.7750,36.91210525
17.7800,36.66474278
17.7850,36.41775237
17.7900,36.1714025
17.7950,35.92544359
17.8000,35.67976686
17.8050,35.43457
17.8100,35.18991369
17.8150,34.94593506
17.8200,34.7028596
17.8250,34.46074639
17.8300,34.21967128
17.8350,33.97943572
17.8400,33.74017344
17.8450,33.5016425
17.8500,33.26394043
17.8550,33.02690439
17.8600,32.79045725
17.8650,32.55478405
17.8700,32.319932
17.8750,32.08589591
17.8800,31.85238425
17.8850,31.61937975
17.8900,31.38685684
17.8950,31.15471922
17.9000,30.92326572
17.9050,30.69240363
17.9100,30.4620509
17.9150,30.23218972
17.9200,30.00290973
17.9250,29.77428497
17.9300,29.54618222
17.9350,29.31886144
17.9400,29.09230953
17.9450,28.86688018
17.9500,28.6424865
17.9550,28.41905663
17.9600,28.19683233
17.9650,27.97556206
17.9700,27.75521468
17.9750,27.5358812
17.9800,27.31747979
17.9850,27.09990505
17.9900,26.88349237
17.9950,26.6684443
18.0000,26.45483886
18.0050,26.2426235
18.0100,26.03200405
18.0150,25.82289296
18.0200,25.61520804
18.0250,25.40881484
18.0300,25.20370762
18.0350,24.99954914
18.0400,24.7962777
18.0450,24.59390573
18.0500,24.39230438
18.0550,24.19117814
18.0600,23.99054233
18.0650,23.79045306
18.0700,23.59079469
18.0750,23.39166765
18.0800,23.19305459
18.0850,22.99508941
18.0900,22.79771753
18.0950,22.60124033
18.1000,22.4058299
18.1050,22.21137603
18.1100,22.01809871
18.1150,21.82594517
18.1200,21.63505579
18.1250,21.44562519
18.1300,21.25785693
18.1350,21.0718743
18.1400,20.88777643
18.1450,20.70578667
18.1500,20.52580183
18.1550,20.34793795
18.1600,20.17204621
18.1650,19.99827386
18.1700,19.82635173
18.1750,19.65651372
18.1800,19.48875751
18.1850,19.32283747
18.1900,19.1588185
18.1950,18.99656955
18.2000,18.83610562
18.2050,18.67729555
18.2100,18.52012005
18.2150,18.36460218
18.2200,18.21066209
18.2250,18.05807831
18.2300,17.90717439
18.2350,17.75786704
18.2400,17.61026732
18.2450,17.46415859
18.2500,17.3196261
18.2550,17.17680217
18.2600,17.0355798
18.2650,16.89604182
18.2700,16.7584241
18.2750,16.62252847
18.2800,16.48844997
18.2850,16.35637085
18.2900,16.22593866
18.2950,16.09737431
18.3000,15.97052066
18.3050,15.84526034
18.3100,15.72168569
18.3150,15.59962352
18.3200,15.47907228
18.3250,15.36007456
18.3300,15.24254028
18.3350,15.1263292
18.3400,15.01149992
18.3450,14.89797943
18.3500,14.78555801
18.3550,14.67438372
18.3600,14.56413509
18.3650,14.45484251
18.3700,14.34673742
18.3750,14.23955314
18.3800,14.13348136
18.3850,14.02843196
18.3900,13.92442256
18.3950,13.8212753
18.4000,13.7189551
18.4050,13.61761705
18.4100,13.51723979
18.4150,13.41802329
18.4200,13.31995738
18.4250,13.22307129
18.4300,13.12721712
18.4350,13.03252591
18.4400,12.93901472
18.4450,12.84672622
18.4500,12.75568459
18.4550,12.66595821
18.4600,12.57761896
18.4650,12.49047973
18.4700,12.40465411
18.4750,12.31985165
18.4800,12.23622171
18.4850,12.15367681
18.4900,12.07219244
18.4950,11.99173793
18.5000,11.912266
18.5050,11.83376851
18.5100,11.756055
18.5150,11.67923747
18.5200,11.60333781
18.5250,11.5284076
18.5300,11.45438537
18.5350,11.38137168
18.5400,11.30925757
18.5450,11.23805401
18.5500,11.1677452
18.5550,11.09845208
18.5600,11.03008107
18.5650,10.96278306
18.5700,10.89626674
18.5750,10.83056319
18.5800,10.76567346
18.5850,10.70139673
18.5900,10.63780248
18.5950,10.5747197
18.6000,10.51208991
18.6050,10.45005743
18.6100,10.38835767
18.6150,10.3272225
18.6200,10.26639794
18.6250,10.20601148
18.6300,10.14605604
18.6350,10.08675133
18.6400,10.02806498
18.6450,9.969937754
18.6500,9.912574536
18.6550,9.855743259
18.6600,9.799805983
18.6650,9.744658616
18.6700,9.690216973
18.6750,9.636618446
18.6800,9.583689688
18.6850,9.531517792
18.6900,9.479911673
18.6950,9.428998987
18.7000,9.378631025
18.7050,9.32876264
18.7100,9.279078409
18.7150,9.229763044
18.7200,9.180554731
18.7250,9.131447217
18.7300,9.082458561
18.7350,9.033589422
18.7400,8.984857968
18.7450,8.936159141
18.7500,8.887549976
18.7550,8.839141893
18.7600,8.790936679
18.7650,8.743121368
18.7700,8.695731485
18.7750,8.648920155
18.7800,8.602634481
18.7850,8.557112642
18.7900,8.512343869
18.7950,8.468543419
18.8000,8.425714249
18.8050,8.384018844
18.8100,8.34375348
18.8150,8.304827549
18.8200,8.267243076
18.8250,8.231141646
18.8300,8.196553891
18.8350,8.163361617
18.8400,8.131682943
18.8450,8.101484573
18.8500,8.072966573
18.8550,8.045839147
18.8600,8.020346629
18.8650,7.996328349
18.8700,7.97403989
18.8750,7.953485792
18.8800,7.934746562
18.8850,7.917784126
18.8900,7.902681567
18.8950,7.88947381
18.9000,7.87827492
18.9050,7.869076313
18.9100,7.86195755
18.9150,7.856837119
18.9200,7.853860391
18.9250,7.852860511
18.9300,7.853819829
18.9350,7.85686262
18.9400,7.861808762
18.9450,7.868808367
18.9500,7.877742873
18.9550,7.888793737
18.9600,7.901844615
18.9650,7.916705204
18.9700,7.933508318
18.9750,7.952029591
18.9800,7.972329003
18.9850,7.99436784
18.9900,8.018201613
18.9950,8.043800974
19.0000,8.071184353
19.0050,8.100328917
19.0100,8.131307639
19.0150,8.164021439
19.0200,8.198488226
19.0250,8.234750636
19.0300,8.272734354
19.0350,8.312538093
19.0400,8.354007204
19.0450,8.397453897
19.0500,8.442842001
19.0550,8.490064247
19.0600,8.539253584
19.0650,8.590404473
19.0700,8.643682556
19.0750,8.69899919
19.0800,8.756651621
19.0850,8.816496891
19.0900,8.878648323
19.0950,8.943059593
19.1000,9.009734682
19.1050,9.078947402
19.1100,9.150563073
19.1150,9.224553615
19.1200,9.301094125
19.1250,9.380081585
19.1300,9.461616066
19.1350,9.545791891
19.1400,9.632600543
19.1450,9.722228243
19.1500,9.814608273
19.1550,9.910001823
19.1600,10.00828097
19.1650,10.10967931
19.1700,10.21401449
19.1750,10.32162784
19.1800,10.43242082
19.1850,10.54651721
19.1900,10.66397619
19.1950,10.78486816
19.2000,10.9089397
19.2050,11.03625631
19.2100,11.16700973
19.2150,11.30097956
19.2200,11.43811512
19.2250,11.57843473
19.2300,11.7219142
19.2350,11.86846886
19.2400,12.01805863
19.2450,12.17051639
19.2500,12.32600264
19.2550,12.484346
19.2600,12.64547813
19.2650,12.80964798
19.2700,12.97653583
19.2750,13.14634783
19.2800,13.31892891
19.2850,13.49435994
19.2900,13.67266173
19.2950,13.85378351
19.3000,14.03780376
19.3050,14.2245962
19.3100,14.4143437
19.3150,14.60691462
19.3200,14.80237459
19.3250,15.00065801
19.3300,15.20187042
19.3350,15.40581834
19.3400,15.61237373
19.3450,15.82142076
19.3500,16.03300099
19.3550,16.24707394
19.3600,16.46356524
19.3650,16.68239905
19.3700,16.90344756
19.3750,17.12665533
19.3800,17.35198686
19.3850,17.57934498
19.3900,17.80865878
19.3950,18.03988028
19.4000,18.27311078
19.4050,18.5082
19.4100,18.74501614
19.4150,18.98395738
19.4200,19.22466945
19.4250,19.46732261
19.4300,19.711995
19.4350,19.95856369
19.4400,20.20704085
19.4450,20.45741145
19.4500,20.70961451
19.4550,20.96340255
19.4600,21.21878906
19.4650,21.47559272
19.4700,21.73391422
19.4750,21.9932712
19.4800,22.25374125
19.4850,22.51511336
19.4900,22.77732785
19.4950,23.03993868
19.5000,23.30310206
19.5050,23.56651401
19.5100,23.83000172
19.5150,24.09362152
19.5200,24.35727688
19.5250,24.62079745
19.5300,24.88393965
19.5350,25.1466517
19.5400,25.40885021
19.5450,25.67052636
19.5500,25.93156552
19.5550,26.19194524
19.5600,26.45182487
19.5650,26.71094931
19.5700,26.96952126
19.5750,27.22752609
19.5800,27.48510504
19.5850,27.74206478
19.5900,27.9983457
19.5950,28.25396138
19.6000,28.50901552
19.6050,28.76361192
19.6100,29.01763507
19.6150,29.27117208
19.6200,29.52434899
19.6250,29.77718855
19.6300,30.02960441
19.6350,30.28161599
19.6400,30.53350607
19.6450,30.78514005
19.6500,31.03648273
19.6550,31.28749927
19.6600,31.53819699
19.6650,31.78856858
19.6700,32.03862311
19.6750,32.28838015
19.6800,32.53760707
19.6850,32.78663225
19.6900,33.03527936
19.6950,33.28364038
19.7000,33.53167764
19.7050,33.77926645
19.7100,34.02657513
19.7150,34.27337968
19.7200,34.51985641
19.7250,34.7660645
19.7300,35.0117251
19.7350,35.25694988
19.7400,35.5016342
19.7450,35.74573459
19.7500,35.98921527
19.7550,36.2321871
19.7600,36.47458319
19.7650,36.716352
19.7700,36.95733154
19.7750,37.19761289
19.7800,37.43709308
19.7850,37.6759004
19.7900,37.91383969
19.7950,38.15126205
19.8000,38.38782918
19.8050,38.62383164
19.8100,38.85908869
19.8150,39.09337903
19.8200,39.32681699
19.8250,39.55938262
19.8300,39.79127781
19.8350,40.02236871
19.8400,40.25275357
19.8450,40.48244812
19.8500,40.71121437
19.8550,40.93932947
19.8600,41.16667345
19.8650,41.39320434
19.8700,41.61898776
19.8750,41.84402934
19.8800,42.06836664
19.8850,42.29215906
19.8900,42.51528806
19.8950,42.73779445
19.9000,42.9594998
19.9050,43.18059567
19.9100,43.40095378
19.9150,43.62056076
19.9200,43.83922581
19.9250,44.05717402
19.9300,44.27428134
19.9350,44.49046285
19.9400,44.7058135
19.9450,44.92033226
19.9500,45.13405178
19.9550,45.34685136
19.9600,45.55877564
19.9650,45.7697589
19.9700,45.97981236
19.9750,46.18885163
19.9800,46.39670729
19.9850,46.60321359
19.9900,46.80828537
19.9950,47.01183569
20.0000,47.21376237
20.0050,47.41417113
20.0100,47.61288985
20.0150,47.80984101
20.0200,48.00508277
20.0250,48.19858923
20.0300,48.39030457
20.0350,48.58042124
20.0400,48.76893448
20.0450,48.95597424
20.0500,49.14138066
20.0550,49.32539895
20.0600,49.50814271
20.0650,49.68963657
20.0700,49.86982983
20.0750,50.04891357
20.0800,50.22659863
20.0850,50.40296024
20.0900,50.57802896
20.0950,50.75167396
20.1000,50.92405665
20.1050,51.09508999
20.1100,51.26466492
20.1150,51.43288739
20.1200,51.59970681
20.1250,51.76497193
20.1300,51.92864621
20.1350,52.09079086
20.1400,52.25126319
20.1450,52.41011391
20.1500,52.56756152
20.1550,52.72357071
20.1600,52.8780525
20.1650,53.03088585
20.1700,53.18179296
20.1750,53.3307578
20.1800,53.4776385
20.1850,53.62228679
20.1900,53.76499662
20.1950,53.90556887
20.2000,54.04380182
20.2050,54.17945972
20.2100,54.31264816
20.2150,54.4431831
20.2200,54.57123018
20.2250,54.69681733
20.2300,54.81999206
20.2350,54.94077097
20.2400,55.05895605
20.2450,55.17440394
20.2500,55.28704311
20.2550,55.39695311
20.2600,55.50374046
20.2650,55.60738832
20.2700,55.70775568
20.2750,55.80491047
20.2800,55.8991692
20.2850,55.99054917
20.2900,56.07927507
20.2950,56.16508433
20.3000,56.24793054
20.3050,56.32770659
20.3100,56.40465646
20.3150,56.47849844
20.3200,56.54906275
20.3250,56.61642275
20.3300,56.68055946
20.3350,56.7412422
20.3400,56.79833477
20.3450,56.85176014
20.3500,56.90154705
20.3550,56.94743858
20.3600,56.98936474
20.3650,57.02727884
20.3700,57.06125057
20.3750,57.09163756
20.3800,57.11860237
20.3850,57.14261328
20.3900,57.16318942
20.3950,57.18030329
20.4000,57.19386474
20.4050,57.2034258
20.4100,57.20905804
20.4150,57.21061632
20.4200,57.20798817
20.4250,57.20149641
20.4300,57.19099317
20.4350,57.17616315
20.4400,57.15703851
20.4450,57.13366367
20.4500,57.10600425
20.4550,57.07422896
20.4600,57.03842935
20.4650,56.99925959
20.4700,56.95730927
20.4750,56.91277015
20.4800,56.86571312
20.4850,56.81616431
20.4900,56.76404456
20.4950,56.70959169
20.5000,56.65282167
20.5050,56.59389122
20.5100,56.53267172
20.5150,56.46934046
20.5200,56.40416502
20.5250,56.33701125
20.5300,56.26768082
20.5350,56.19627212
20.5400,56.12309805
20.5450,56.04845138
20.5500,55.97267392
20.5550,55.8958948
20.5600,55.81839684
20.5650,55.73996358
20.5700,55.66051405
20.5750,55.58018563
20.5800,55.49896536
20.5850,55.41682813
20.5900,55.33380545
20.5950,55.25018943
20.6000,55.16615473
20.6050,55.08154302
20.6100,54.99641621
20.6150,54.91082531
20.6200,54.82498884
20.6250,54.73877576
20.6300,54.65204795
20.6350,54.56494738
20.6400,54.47741098
20.6450,54.38957644
20.6500,54.30130173
20.6550,54.2128552
20.6600,54.12399624
20.6650,54.0351212
20.6700,53.94620866
20.6750,53.85663698
20.6800,53.76628295
20.6850,53.67436052
20.6900,53.5808681
20.6950,53.48580086
20.7000,53.38879798
20.7050,53.29025637
20.7100,53.18986488
20.7150,53.08769325
20.7200,52.98376312
20.7250,52.87808016
20.7300,52.77050563
20.7350,52.66153774
20.7400,52.55128241
20.7450,52.43963481
20.7500,52.32627167
20.7550,52.21085511
20.7600,52.09347932
20.7650,51.97410431
20.7700,51.85267333
20.7750,51.72906201
20.7800,51.60340397
20.7850,51.47594498
20.7900,51.34694501
20.7950,51.21675199
20.8000,51.08560669
20.8050,50.95359306
20.8100,50.82112169
20.8150,50.68815207
20.8200,50.55481767
20.8250,50.42057661
20.8300,50.28590986
20.8350,50.15056887
20.8400,50.01427263
20.8450,49.87696324
20.8500,49.73845365
20.8550,49.59877485
20.8600,49.45786434
20.8650,49.3160008
20.8700,49.1733517
20.8750,49.02995929
20.8800,48.88582102
20.8850,48.74093833
20.8900,48.59545559
20.8950,48.44953347
20.9000,48.30315609
20.9050,48.15666074
20.9100,48.00964467
20.9150,47.86222531
20.9200,47.71408029
20.9250,47.5652597
20.9300,47.41562507
20.9350,47.26535498
20.9400,47.11441486
20.9450,46.96272172
20.9500,46.81055559
20.9550,46.65772327
20.9600,46.50443246
20.9650,46.35054068
20.9700,46.1958036
20.9750,46.0404306
20.9800,45.88442508
20.9850,45.72791509
20.9900,45.5712588
20.9950,45.41420406
21.0000,45.25718106
21.0050,45.10005243
21.0100,44.94316466
21.0150,44.78638859
21.0200,44.62980825
21.0250,44.47343111
21.0300,44.31742496
21.0350,44.16168478
21.0400,44.00618515
21.0450,43.8510379
21.0500,43.69644228
21.0550,43.54253852
21.0600,43.38942343
21.0650,43.23691242
21.0700,43.08480997
21.0750,42.93306616
21.0800,42.7816248
21.0850,42.63054365
21.0900,42.47964123
21.0950,42.3286128
21.1000,42.17734204
21.1050,42.02570187
21.1100,41.87334553
21.1150,41.72049923
21.1200,41.56676492
21.1250,41.41262637
21.1300,41.2578504
21.1350,41.10232689
21.1400,40.94637576
21.1450,40.78995764
21.1500,40.63298652
21.1550,40.47541996
21.1600,40.31734856
21.1650,40.15890047
21.1700,40.00013155
21.1750,39.8410749
21.1800,39.68170238
21.1850,39.52213032
21.1900,39.36247464
21.1950,39.20287181
21.2000,39.04342604
21.2050,38.88404037
21.2100,38.72531158
21.2150,38.56729805
21.2200,38.41029301
21.2250,38.25437783
21.2300,38.09975943
21.2350,37.94628237
21.2400,37.79432971
21.2450,37.64381839
21.2500,37.4947385
21.2550,37.34695156
21.2600,37.20043933
21.2650,37.05503586
21.2700,36.91086284
21.2750,36.7679379
21.2800,36.62621209
21.2850,36.48570296
21.2900,36.3462663
21.2950,36.20801584
21.3000,36.07102345
21.3050,35.93519196
21.3100,35.80026049
21.3150,35.66646364
21.3200,35.53359131
21.3250,35.40184556
21.3300,35.27118719
21.3350,35.14155164
21.3400,35.0130091
21.3450,34.88532246
21.3500,34.75863754
21.3550,34.63279589
21.3600,34.5075407
21.3650,34.38295438
21.3700,34.25913773
21.3750,34.13588027
21.3800,34.01318632
21.3850,33.89090345
21.3900,33.76908052
21.3950,33.6476853
21.4000,33.52657715
21.4050,33.40575642
21.4100,33.28509934
21.4150,33.16437239
21.4200,33.04376109
21.4250,32.92302031
21.4300,32.80200341
21.4350,32.68116028
21.4400,32.56022628
21.4450,32.43921458
21.4500,32.31832741
21.4550,32.19760079
21.4600,32.07707473
21.4650,31.95672563
21.4700,31.83652651
21.4750,31.7165169
21.4800,31.59695135
21.4850,31.4778014
21.4900,31.35911766
21.4950,31.24076677
21.5000,31.12271833
21.5050,31.00520177
21.5100,30.88794907
21.5150,30.77106966
21.5200,30.65473454
21.5250,30.53887091
21.5300,30.42362296
21.5350,30.3091135
21.5400,30.19512216
21.5450,30.08166652
21.5500,29.96892971
21.5550,29.85703231
21.5600,29.74593761
21.5650,29.6358081
21.5700,29.52684139
21.5750,29.41899421
21.5800,29.31224134
21.5850,29.20670333
21.5900,29.10265212
21.5950,29.00000791
21.6000,28.89872125
21.6050,28.79877827
21.6100,28.70021109
21.6150,28.60297608
21.6200,28.50717228
21.6250,28.41257799
21.6300,28.31927155
21.6350,28.22710517
21.6400,28.13614532
21.6450,28.0463156
21.6500,27.95742626
21.6550,27.86948058
21.6600,27.78260724
21.6650,27.69650531
21.6700,27.61081633
21.6750,27.52583969
21.6800,27.44127746
21.6850,27.35714769
21.6900,27.27332919
21.6950,27.18971828
21.7000,27.10635839
21.7050,27.02338177
21.7100,26.94075252
21.7150,26.85848307
21.7200,26.77658542
21.7250,26.69520911
21.7300,26.61434026
21.7350,26.53387866
21.7400,26.45393574
21.7450,26.37466672
21.7500,26.29595401
21.7550,26.21791923
21.7600,26.14065419
21.7650,26.06412955
21.7700,25.98848432
21.7750,25.91386308
21.7800,25.84011202
21.7850,25.76755166
21.7900,25.69623728
21.7950,25.62631528
21.8000,25.55780589
21.8050,25.49089799
21.8100,25.42564475
21.8150,25.3622549
21.8200,25.30088099
21.8250,25.24165021
21.8300,25.18470823
21.8350,25.13009941
21.8400,25.07803772
21.8450,25.02879663
21.8500,24.98228047
21.8550,24.93862115
21.8600,24.8978686
21.8650,24.85986893
21.8700,24.82471322
21.8750,24.79231617
21.8800,24.76284249
21.8850,24.73613861
21.8900,24.71197593
21.8950,24.69038905
21.9000,24.6711134
21.9050,24.65417468
21.9100,24.63953995
21.9150,24.62707608
21.9200,24.61670864
21.9250,24.60823082
21.9300,24.60170254
21.9350,24.59706753
21.9400,24.59415593
21.9450,24.59289567
21.9500,24.5933313
21.9550,24.59542017
21.9600,24.59908708
21.9650,24.60433474
21.9700,24.61129553
21.9750,24.61963507
21.9800,24.62941728
21.9850,24.64057243
21.9900,24.65298937
21.9950,24.66666787
22.0000,24.68153058
22.0050,24.69730378
22.0100,24.71407831
22.0150,24.73186607
22.0200,24.75039244
22.0250,24.76970442
22.0300,24.78985427
22.0350,24.81076265
22.0400,24.83232515
22.0450,24.85450294
22.0500,24.87729492
22.0550,24.90061262
22.0600,24.92445193
22.0650,24.94889723
22.0700,24.97402698
22.0750,24.99986482
22.0800,25.02638761
22.0850,25.05339926
22.0900,25.08101274
22.0950,25.10909918
22.1000,25.13781695
22.1050,25.16699302
22.1100,25.19682898
22.1150,25.22726664
22.1200,25.25815289
22.1250,25.28962921
22.1300,25.3216783
22.1350,25.3542272
22.1400,25.38742618
22.1450,25.42116233
22.1500,25.45560694
22.1550,25.49082612
22.1600,25.52703176
22.1650,25.56433269
22.1700,25.60279994
22.1750,25.64247817
22.1800,25.68355431
22.1850,25.72621621
22.1900,25.77042727
22.1950,25.81629729
22.2000,25.86398457
22.2050,25.91352484
22.2100,25.96495868
22.2150,26.0182069
22.2200,26.07352358
22.2250,26.13095764
22.2300,26.1905034
22.2350,26.2521826
22.2400,26.31594509
22.2450,26.38194534
22.2500,26.4502983
22.2550,26.52110335
22.2600,26.59424666
22.2650,26.66985532
22.2700,26.74794163
22.2750,26.82881797
22.2800,26.91245508
22.2850,26.99883115
22.2900,27.08807614
22.2950,27.18028775
22.3000,27.27543236
22.3050,27.37349549
22.3100,27.47458442
22.3150,27.5785198
22.3200,27.6852964
22.3250,27.7947182
22.3300,27.9070203
22.3350,28.02200859
22.3400,28.13989259
22.3450,28.26036635
22.3500,28.38372613
22.3550,28.51000214
22.3600,28.639211
22.3650,28.77133404
22.3700,28.90621917
22.3750,29.04383446
22.3800,29.18422895
22.3850,29.32752327
22.3900,29.47351048
22.3950,29.62243686
22.4000,29.77416802
22.4050,29.9286513
22.4100,30.08602094
22.4150,30.24614755
22.4200,30.40907444
22.4250,30.57481715
22.4300,30.7432833
22.4350,30.91455877
22.4400,31.08847618
22.4450,31.26505949
22.4500,31.44422999
22.4550,31.62588211
22.4600,31.80970878
22.4650,31.99566438
22.4700,32.18335183
22.4750,32.37290847
22.4800,32.56395166
22.4850,32.75638725
22.4900,32.95029628
22.4950,33.14579103
22.5000,33.34287602
22.5050,33.54126264
22.5100,33.74126471
22.5150,33.94262316
22.5200,34.14525501
22.5250,34.34908678
22.5300,34.55413076
22.5350,34.76020049
22.5400,34.96730671
22.5450,35.17524018
22.5500,35.38386022
22.5550,35.59294239
22.5600,35.80264521
22.5650,36.01292341
22.5700,36.22363898
22.5750,36.43466271
22.5800,36.64595481
22.5850,36.8573871
22.5900,37.06884728
22.5950,37.2802462
22.6000,37.49139777
22.6050,37.70239038
22.6100,37.91307417
22.6150,38.12334656
22.6200,38.33342526
22.6250,38.54336948
22.6300,38.75277916
22.6350,38.96188295
22.6400,39.17047825
22.6450,39.37880556
22.6500,39.58666753
22.6550,39.79400204
22.6600,40.0006261
22.6650,40.20655009
22.6700,40.4117732
22.6750,40.61632917
22.6800,40.82033979
22.6850,41.02376637
22.6900,41.22657507
22.6950,41.42854335
22.7000,41.62989936
22.7050,41.8305138
22.7100,42.03022232
22.7150,42.2290625
22.7200,42.42706636
22.7250,42.62394623
22.7300,42.81988446
22.7350,43.01462813
22.7400,43.20830372
22.7450,43.40090492
22.7500,43.59233622
22.7550,43.78284003
22.7600,43.97251925
22.7650,44.16146855
22.7700,44.34986021
22.7750,44.53761259
22.7800,44.72501018
22.7850,44.9119406
22.7900,45.09853346
22.7950,45.28451191
22.8000,45.46994938
22.8050,45.65491273
22.8100,45.83928656
22.8150,46.02335028
22.8200,46.20693375
22.8250,46.39004489
22.8300,46.57262606
22.8350,46.75483596
22.8400,46.936942
22.8450,47.11877084
22.8500,47.30046195
22.8550,47.48199259
22.8600,47.66339145
22.8650,47.84471376
22.8700,48.02589637
22.8750,48.20707866
22.8800,48.38834185
22.8850,48.56968908
22.8900,48.75109863
22.8950,48.93243621
22.9000,49.11371003
22.9050,49.29463006
22.9100,49.47516255
22.9150,49.65534871
22.9200,49.83486661
22.9250,50.01385888
22.9300,50.19246225
22.9350,50.37085436
22.9400,50.54905066
22.9450,50.72687615
22.9500,50.90411883
22.9550,51.08088375
22.9600,51.2571752
22.9650,51.4328532
22.9700,51.60771648
22.9750,51.78155232
22.9800,51.95395404
22.9850,52.12485031
22.9900,52.29422341
22.9950,52.46210201
23.0000,52.62864671
23.0050,52.79385885
23.0100,52.95776674
23.0150,53.12038596
23.0200,53.28133118
23.0250,53.44079623
23.0300,53.59882816
23.0350,53.75539581
23.0400,53.91015754
23.0450,54.06309579
23.0500,54.21392607
23.0550,54.36268262
23.0600,54.50932973
23.0650,54.65392655
23.0700,54.79615764
23.0750,54.93625766
23.0800,55.07399935
23.0850,55.20950196
23.0900,55.34255552
23.0950,55.47335784
23.1000,55.60155061
23.1050,55.72734921
23.1100,55.85046213
23.1150,55.97080191
23.1200,56.08840856
23.1250,56.2030611
23.1300,56.31440691
23.1350,56.42241994
23.1400,56.52672094
23.1450,56.62760728
23.1500,56.72471789
23.1550,56.81814731
23.1600,56.90801389
23.1650,56.99422544
23.1700,57.07721625
23.1750,57.15658282
23.1800,57.23226687
23.1850,57.304097
23.1900,57.37193247
23.1950,57.43575902
23.2000,57.49550541
23.2050,57.55140775
23.2100,57.6032997
23.2150,57.65133624
23.2200,57.69543903
23.2250,57.73555993
23.2300,57.771559
23.2350,57.80334952
23.2400,57.83084571
23.2450,57.85404569
23.2500,57.87312409
23.2550,57.88779755
23.2600,57.89811483
23.2650,57.9040683
23.2700,57.9055719
23.2750,57.90270492
23.2800,57.89548399
23.2850,57.88396239
23.2900,57.86841961
23.2950,57.84895642
23.3000,57.82541251
23.3050,57.79800373
23.3100,57.76687692
23.3150,57.73206302
23.3200,57.69407662
23.3250,57.65293447
23.3300,57.60823651
23.3350,57.56048413
23.3400,57.50982834
23.3450,57.45648538
23.3500,57.40078348
23.3550,57.34266135
23.3600,57.28210271
23.3650,57.21898323
23.3700,57.15367561
23.3750,57.08627698
23.3800,57.01706853
23.3850,56.94594439
23.3900,56.872944
23.3950,56.79807229
23.4000,56.72157755
23.4050,56.6430931
23.4100,56.56268156
23.4150,56.4802552
23.4200,56.39593477
23.4250,56.31004566
23.4300,56.22248895
23.4350,56.13328557
23.4400,56.04241318
23.4450,55.9498537
23.4500,55.85580274
23.4550,55.76026878
23.4600,55.66276718
23.4650,55.56340659
23.4700,55.46179105
23.4750,55.35800813
23.4800,55.25188217
23.4850,55.1433761
23.4900,55.03249936
23.4950,54.91912102
23.5000,54.80347384
23.5050,54.68556294
23.5100,54.56552377
23.5150,54.44327635
23.5200,54.31921122
23.5250,54.1932186
23.5300,54.06530278
23.5350,53.93518957
23.5400,53.80275488
23.5450,53.66760943
23.5500,53.52971332
23.5550,53.38912291
23.5600,53.24557451
23.5650,53.09924642
23.5700,52.95022378
23.5750,52.79849508
23.5800,52.6441045
23.5850,52.48717985
23.5900,52.32782723
23.5950,52.16598274
23.6000,52.00183482
23.6050,51.8352275
23.6100,51.66608254
23.6150,51.49438835
23.6200,51.32019271
23.6250,51.14343585
23.6300,50.96429389
23.6350,50.78240343
23.6400,50.59802504
23.6450,50.41087595
23.6500,50.22124063
23.6550,50.02892746
23.6600,49.83402503
23.6650,49.63665203
23.6700,49.43676226
23.6750,49.23421498
23.6800,49.02905741
23.6850,48.82155105
23.6900,48.61187045
23.6950,48.40002771
23.7000,48.18602187
23.7050,47.97025708
23.7100,47.75277647
23.7150,47.53390148
23.7200,47.3138086
23.7250,47.09239625
23.7300,46.87012921
23.7350,46.64730044
23.7400,46.42410494
23.7450,46.20061295
23.7500,45.97698696
23.7550,45.75299323
23.7600,45.52885616
23.7650,45.30454617
23.7700,45.08022427
23.7750,44.85586782
23.7800,44.63140863
23.7850,44.40697705
23.7900,44.182487
23.7950,43.95806456
23.8000,43.73363824
23.8050,43.50903762
23.8100,43.28443121
23.8150,43.05960286
23.8200,42.83477213
23.8250,42.60985437
23.8300,42.38494738
23.8350,42.16026531
23.8400,41.93584406
23.8450,41.71204206
23.8500,41.4889395
23.8550,41.26636788
23.8600,41.04455263
23.8650,40.8234374
23.8700,40.60324189
23.8750,40.38376433
23.8800,40.1651827
23.8850,39.94730466
23.8900,39.73021411
23.8950,39.51383132
23.9000,39.29813835
23.9050,39.08309426
23.9100,38.86895191
23.9150,38.65577347
23.9200,38.44339181
23.9250,38.23201932
23.9300,38.0215879
23.9350,37.81245602
23.9400,37.60445281
23.9450,37.39764742
23.9500,37.19198357
23.9550,36.98755177
23.9600,36.78454032
23.9650,36.5829975
23.9700,36.38294831
23.9750,36.18434003
23.9800,35.98709252
23.9850,35.7911277
23.9900,35.59631348
23.9950,35.40268181
24.0000,35.20999385
24.0050,35.01831424
24.0100,34.82757745
24.0150,34.63766962
24.0200,34.44843144
24.0250,34.25993677
24.0300,34.07201704
24.0350,33.88456684
24.0400,33.69742661
24.0450,33.51044945
24.0500,33.32356498
24.0550,33.13681269
24.0600,32.95016284
24.0650,32.76337449
24.0700,32.5764998
24.0750,32.38950887
24.0800,32.20239774
24.0850,32.01497593
24.0900,31.82740781
24.0950,31.63948358
24.1000,31.45105381
24.1050,31.26226783
24.1100,31.07302512
24.1150,30.88358757
24.1200,30.69370015
24.1250,30.50338335
24.1300,30.31265171
24.1350,30.12144271
24.1400,29.92983384
24.1450,29.73784309
24.1500,29.54547796
24.1550,29.35288138
24.1600,29.16017283
24.1650,28.96719594
24.1700,28.77396114
24.1750,28.58068997
24.1800,28.38737
24.1850,28.19412106
24.1900,28.00085524
24.1950,27.80759281
24.2000,27.614256
24.2050,27.42121669
24.2100,27.22814534
24.2150,27.03515317
24.2200,26.84204896
24.2250,26.64889666
24.2300,26.45560663
24.2350,26.26209836
24.2400,26.06864916
24.2450,25.87533298
24.2500,25.68225964
24.2550,25.48939655
24.2600,25.29670057
24.2650,25.10414194
24.2700,24.91193193
24.2750,24.72008728
24.2800,24.52871617
24.2850,24.33791734
24.2900,24.14782952
24.2950,23.958481
24.3000,23.77004114
24.3050,23.58255221
24.3100,23.39600267
24.3150,23.21043242
24.3200,23.02594406
24.3250,22.84258456
24.3300,22.6603341
24.3350,22.47924687
24.3400,22.29938897
24.3450,22.1207424
24.3500,21.94321132
24.3550,21.76687008
24.3600,21.59175228
24.3650,21.41790854
24.3700,21.24506631
24.3750,21.07316394
24.3800,20.90242503
24.3850,20.73283146
24.3900,20.56438216
24.3950,20.39720435
24.4000,20.23144335
24.4050,20.0669024
24.4100,19.90367584
24.4150,19.74153797
24.4200,19.5807372
24.4250,19.42120686
24.4300,19.26292339
24.4350,19.10613913
24.4400,18.95084912
24.4450,18.79713453
24.4500,18.64499178
24.4550,18.4944727
24.4600,18.34560126
24.4650,18.19852426
24.4700,18.05317733
24.4750,17.909596
24.4800,17.76775025
24.4850,17.62757455
24.4900,17.48916538
24.4950,17.35243395
24.5000,17.21745815
24.5050,17.08396066
24.5100,16.95221448
24.5150,16.8219412
24.5200,16.69340259
24.5250,16.5663231
24.5300,16.44097861
24.5350,16.31709003
24.5400,16.19464637
24.5450,16.0736057
24.5500,15.95406171
24.5550,15.83618918
24.5600,15.71986373
24.5650,15.60519368
24.5700,15.49210432
24.5750,15.38080496
24.5800,15.27118226
24.5850,15.16338662
24.5900,15.05745894
24.5950,14.95346596
24.6000,14.85143528
24.6050,14.75137214
24.6100,14.65341508
24.6150,14.55771406
24.6200,14.46397413
24.6250,14.37234299
24.6300,14.28281709
24.6350,14.19529462
24.6400,14.10972408
24.6450,14.02608012
24.6500,13.94441224
24.6550,13.86454993
24.6600,13.78628079
24.6650,13.7095957
24.6700,13.63457984
24.6750,13.56114593
24.6800,13.48925692
24.6850,13.41885118
24.6900,13.34989835
24.6950,13.28239417
24.7000,13.2162057
24.7050,13.15142213
24.7100,13.08811099
24.7150,13.02641104
24.7200,12.96595744
24.7250,12.90710624
24.7300,12.84975365
24.7350,12.79373494
24.7400,12.73930787
24.7450,12.68631496
24.7500,12.63471653
24.7550,12.58461559
24.7600,12.53597583
24.7650,12.48860599
24.7700,12.44260179
24.7750,12.39766028
24.7800,12.3538599
24.7850,12.31099193
24.7900,12.26885685
24.7950,12.22746594
24.8000,12.18662548
24.8050,12.14629823
24.8100,12.10611873
24.8150,12.06619388
24.8200,12.02624226
24.8250,11.98650143
24.8300,11.94685318
24.8350,11.90745591
24.8400,11.86827976
24.8450,11.82954687
24.8500,11.79116607
24.8550,11.75322139
24.8600,11.71602059
24.8650,11.67962035
24.8700,11.64435
24.8750,11.60998087
24.8800,11.57693035
24.8850,11.54522903
24.8900,11.5150699
24.8950,11.50453208
24.9000,11.49405732
24.9050,11.48375277
24.9100,11.4737192
24.9150,11.46404837
24.9200,11.454822
24.9250,11.44611159
24.9300,11.43797905
24.9350,11.43047779
24.9400,11.42365339
24.9450,11.41754404
24.9500,11.412181
24.9550,11.40758894
24.9600,11.4037853
24.9650,11.40077823
24.9700,11.39856322
24.9750,11.3971191
24.9800,11.39640479
24.9850,11.396357
24.9900,11.39688909
24.9950,11.39789193
25.0000,11.39923744
25.0050,11.40078413
25.0100,11.40238449
25.0150,11.40389518
25.0200,11.4051903
25.0250,11.40617707
25.0300,11.40681265
25.0350,11.40712311
