type,name,time_units,begin_time,frequency,count,units
signal_3d,"Noraxon MyoMotion-Segments-Upper arm RT-Acceleration","s",0.0000,200,5008,"mG"

time,x,y,z
0.0000,-10.09451556,11.53078708,5.698648049
0.0050,-14.85300823,14.58414432,10.15378709
0.0100,-6.598085793,5.174378769,7.52491986
0.0150,-4.528150648,13.23241969,7.210554949
0.0200,-9.278975494,10.61606729,4.373543628
0.0250,-4.014954466,2.958794593,13.29297103
0.0300,0.1559676975,14.89127167,-6.264302677
0.0350,-10.82247065,9.791193732,0.6401446336
0.0400,-4.224968092,4.439812038,3.189775551
0.0450,-5.814296633,11.10111669,-6.300949948
0.0500,1.900107964,-3.88445789,0.7237639205
0.0550,-2.73702826,8.042919768,-3.217597929
0.0600,-3.631033507,9.294006387,-3.431198283
0.0650,-13.14568401,6.515360471,-6.016575307
0.0700,7.278392851,-0.8626709974,-0.7383347925
0.0750,-9.469581005,7.652012952,-2.9455539
0.0800,9.4681161,1.830817958,-1.768132544
0.0850,-3.798360683,1.573461737,-2.711981073
0.0900,0.1271248847,-1.71907609,-0.8567024766
0.0950,5.217885165,3.301329503,1.440571251
0.1000,-3.017157,4.15278915,-1.32463871
0.1050,11.9693834,3.922253023,6.163743012
0.1100,-8.971571785,6.176159169,1.868220996
0.1150,-5.154354683,3.94377934,7.867067347
0.1200,6.660804668,10.43335351,-1.788863914
0.1250,-0.02175734342,3.471268835,9.452663053
0.1300,6.475617525,14.91497056,-6.162070548
0.1350,6.28800554,0.1422382007,6.596987174
0.1400,1.879243872,6.492546953,-7.233989967
0.1450,-6.500876019,-9.964516909,10.25334973
0.1500,19.58585324,-5.550666611,-2.379050738
0.1550,-8.049536545,5.094614645,-4.570873352
0.1600,7.385504451,-3.399116803,0.5349585482
0.1650,-6.19420147,-0.5855247882,2.840613154
0.1700,-2.316270382,0.9299211159,6.428543986
0.1750,-10.03341453,-1.571703498,9.536144623
0.1800,-6.636656987,4.830347582,14.8508964
0.1850,-9.820196442,8.363658011,17.86593619
0.1900,-8.65227088,11.24576124,11.53557672
0.1950,-14.49469263,21.00180691,10.4193026
0.2000,-3.22095667,12.01775817,15.13774243
0.2050,-3.971609232,21.31484685,-0.09426646012
0.2100,-6.037351168,9.727361604,5.158737473
0.2150,-6.893268395,6.989938612,5.306205044
0.2200,-6.102984514,-2.406553367,5.776350237
0.2250,4.027986734,-1.105409045,-1.062024487
0.2300,-0.4613139349,-1.571588981,-2.391127702
0.2350,-3.358138249,-5.215160272,2.847863082
0.2400,7.539996007,-0.630739972,-6.094924416
0.2450,-2.897960547,-0.7985528996,-2.23993579
0.2500,9.881972512,-0.7261121652,4.896478663
0.2550,2.110653198,11.01783011,-11.32931657
0.2600,14.99187993,-7.275225225,6.321157363
0.2650,-5.129550039,0.4580784895,2.48085781
0.2700,6.793970391,-1.117493615,-0.3830735842
0.2750,13.15126286,5.303650524,4.16443954
0.2800,2.552408639,4.413399093,4.511666575
0.2850,14.56515561,0.6014510348,9.658859461
0.2900,4.694902513,15.57691652,2.220887382
0.2950,-0.6961553914,4.702539169,8.917885722
0.3000,4.902167543,8.704602342,4.485608404
0.3050,-3.897269847,3.610354402,5.719591532
0.3100,16.0768173,3.818925695,-2.32875269
0.3150,-2.971980974,11.22482387,-4.45649811
0.3200,5.330974223,1.212242755,2.529121462
0.3250,5.702886214,3.257844848,1.993584966
0.3300,10.31050452,-5.950565582,2.96363378
0.3350,22.05721816,-7.98604186,4.235700764
0.3400,16.04315233,-14.68375142,6.678585209
0.3450,6.115650074,-12.13859084,4.919956867
0.3500,8.204920542,-5.202130701,5.590325616
0.3550,2.752323275,-4.930085522,16.23743006
0.3600,6.670933825,12.93151361,-5.007770595
0.3650,2.066410518,7.371274819,5.69441126
0.3700,0.704153969,0.5961765869,0.7256532852
0.3750,5.676437665,9.322449949,4.217116913
0.3800,2.358424319,-6.598439543,6.112023258
0.3850,-1.125333045,4.415599825,3.377682945
0.3900,8.262080768,-2.208803488,5.145214617
0.3950,11.45622706,5.015530705,-1.077158278
0.4000,4.493588778,-0.4540015882,3.15543187
0.4050,-2.985151225,1.051773324,-4.345442813
0.4100,-7.369673785,0.1469035289,-0.1362526185
0.4150,-3.499542298,5.389662428,-4.062824047
0.4200,-0.5026737225,3.210160637,-0.4166377485
0.4250,-10.17941401,5.079046375,-1.751981875
0.4300,0.261251492,7.57356669,-8.606739534
0.4350,-12.92170154,7.868920261,-7.009039815
0.4400,-0.1198879258,0.4516156606,-9.220300923
0.4450,-3.146757211,7.324501105,-10.18387634
0.4500,-3.317768699,-1.76573609,0.1977193064
0.4550,-14.26268859,13.5085057,-6.93743974
0.4600,-6.905728911,5.455332747,4.989947774
0.4650,10.01503751,11.97434166,-2.993904108
0.4700,2.932050361,-2.264684057,8.076883598
0.4750,-8.852377731,16.04363033,-1.260871743
0.4800,3.892170254,15.77566563,-6.272723227
0.4850,-1.062314761,5.260032874,2.331545142
0.4900,-2.390974567,16.39722337,-8.046419084
0.4950,3.03853592,5.144758371,-3.84901525
0.5000,13.77164757,6.173775879,-11.30743361
0.5050,-4.69593549,-0.9361101344,-1.428929755
0.5100,2.719229105,3.158291203,-6.382790436
0.5150,6.955632533,-11.29365683,7.198070331
0.5200,10.08738811,-13.96815662,6.272416284
0.5250,16.2258819,-3.920662331,-0.1427926825
0.5300,22.01301595,-12.07399155,4.080802864
0.5350,9.37593728,-2.027867288,5.340031833
0.5400,16.1142109,-0.07004380928,7.098852069
0.5450,30.4895556,8.825022719,5.468231151
0.5500,14.45260989,-6.699656029,14.4076331
0.5550,21.81996335,7.215535495,12.82239826
0.5600,30.25323764,3.500880592,13.91912802
0.5650,24.67769233,-1.943299712,19.78668611
0.5700,39.23052931,-16.39583695,21.89255147
0.5750,28.66144158,-14.02293728,20.25554445
0.5800,25.48011295,-10.70444911,14.10611956
0.5850,25.09605438,-10.89342506,11.1199632
0.5900,14.0454415,-6.992518255,16.7748019
0.5950,16.19695636,-3.648598484,23.32425543
0.6000,22.96759657,0.7994810917,14.49719295
0.6050,20.67037306,-0.3234020346,21.11873872
0.6100,13.53871532,-1.522234215,16.91923321
0.6150,8.99489101,7.05586581,16.85268822
0.6200,21.38601414,-1.511517958,20.7522864
0.6250,8.241827182,-6.307632247,24.11579223
0.6300,12.56796123,-2.593640212,10.89907158
0.6350,22.63368638,-5.985395385,11.06070726
0.6400,25.36098665,6.038200349,3.613545571
0.6450,8.627361664,-2.142260379,11.88152443
0.6500,15.33378542,19.06442634,-8.521219329
0.6550,-6.70591788,12.89301581,-6.382668386
0.6600,-0.530646612,11.97442863,-18.75361419
0.6650,-3.840358586,6.080215718,-16.59318834
0.6700,-4.409870261,4.626480754,-17.55207834
0.6750,-12.02215866,3.756622056,-15.07588559
0.6800,-18.8857698,0.477482845,-21.99849044
0.6850,-9.04430489,-7.606954004,-17.38567055
0.6900,12.70971839,-14.36669273,-25.53267323
0.6950,14.69112085,-18.12806348,-17.59433801
0.7000,8.490842412,-9.542872452,-26.7962234
0.7050,14.14568595,-13.4854601,-17.30636178
0.7100,12.7544397,-4.241103038,-21.69244711
0.7150,-1.317121932,11.77232024,-16.37994009
0.7200,-11.10627926,16.67343412,-12.02438266
0.7250,-15.26243502,21.44769409,-4.117911785
0.7300,-25.73077936,27.32207962,-5.14051926
0.7350,-19.55296102,36.67645759,-3.395550139
0.7400,-30.73312785,28.40657521,-3.114800828
0.7450,-22.07174601,27.8169104,-8.954896694
0.7500,-5.062465445,20.3826991,-17.28646588
0.7550,-18.8839359,14.97083026,-10.15511711
0.7600,7.937071567,4.453289082,-15.68087897
0.7650,2.44651616,-7.389514814,-10.99408864
0.7700,2.101716783,-3.7766935,-19.33629151
0.7750,3.637172315,-10.792272,-16.89811689
0.7800,6.284771472,-7.682901731,-17.98934839
0.7850,5.097419878,-19.60636035,-10.93601429
0.7900,25.47313784,-13.13524316,-20.75883312
0.7950,21.37151941,-8.725259085,-18.95207671
0.8000,19.58176738,-5.834011452,-15.80195046
0.8050,13.05538186,-10.1379691,-0.4427189528
0.8100,16.09905838,2.220787286,-5.390601729
0.8150,13.53973499,-8.705940593,13.21973546
0.8200,5.729011173,-2.199231917,13.03616328
0.8250,12.64949178,-0.4276893557,12.2782928
0.8300,4.77023307,1.345706471,12.99731939
0.8350,7.614719699,11.49793871,9.516176418
0.8400,16.37306625,4.794260318,18.06689764
0.8450,4.930105392,13.48078663,15.93010834
0.8500,13.53044422,10.14253471,15.02617002
0.8550,13.45541442,16.49172007,18.77468002
0.8600,-1.240552687,9.840466955,17.05671961
0.8650,-9.733715681,18.6154701,11.0330072
0.8700,-6.872075712,8.861542571,10.4523093
0.8750,-4.245166416,10.24234437,7.290657027
0.8800,-3.523109444,8.729049313,-0.009495233561
0.8850,-3.553444183,6.032329985,2.489497365
0.8900,2.538595073,5.567940314,-3.20651369
0.8950,15.25943998,-2.57986655,4.739667817
0.9000,44.49727571,3.505107911,-3.094727294
0.9050,34.33263427,-2.337856146,-0.4690644884
0.9100,50.79687356,-8.481845507,6.471388993
0.9150,32.58104472,-9.587734627,3.321505839
0.9200,32.111972,-4.979544523,-5.574874191
0.9250,10.54411208,-6.656817226,5.824865405
0.9300,10.82761817,3.667881527,3.435651694
0.9350,12.02710757,2.014722914,6.56041437
0.9400,-11.37357781,5.323391829,16.01784627
0.9450,2.683838567,12.1784437,13.30121122
0.9500,-0.5262705514,13.02045993,16.63366473
0.9550,-4.595447308,10.2946411,24.68131546
0.9600,2.664358952,4.713492186,24.47201698
0.9650,-1.633221652,10.95167165,20.66815602
0.9700,-4.259172144,6.129204833,21.14207088
0.9750,0.7248622227,2.12867838,15.06611523
0.9800,-8.390984881,13.05969263,-4.043729461
0.9850,6.502064456,8.773502521,-4.684953167
0.9900,-2.68402546,5.600233935,-12.45346663
0.9950,-16.69691243,-0.4891931215,-9.883407066
1.0000,-2.96260626,-10.70256746,-8.816393385
1.0050,-0.9006346333,-5.10670725,-19.3701381
1.0100,9.507700531,-9.930360982,-19.80105265
1.0150,3.323514998,-6.578383992,-12.98487511
1.0200,4.819649464,-6.526689354,-11.38023139
1.0250,1.795929524,0.01750213228,-4.867063211
1.0300,-4.751837116,6.853127787,-5.493794171
1.0350,-1.51841543,4.359091723,-0.3210069365
1.0400,-5.744051112,11.06531967,1.471992555
1.0450,-2.17491823,11.61424159,1.050919923
1.0500,1.316395024,17.80890431,-1.778816347
1.0550,-0.3905532986,13.0293298,5.123877883
1.0600,-3.14683424,17.45237406,-7.179168982
1.0650,-0.1203990015,5.753468412,4.426113278
1.0700,-3.660514327,5.472297639,-1.684630771
1.0750,3.993762999,4.36947751,-1.740179072
1.0800,-1.359337546,7.515963446,-12.88075185
1.0850,-10.42632101,-0.3497660999,-10.50933755
1.0900,-11.0645488,4.881609961,-8.192412682
1.0950,-14.1418203,11.50527513,-17.81987205
1.1000,0.4534433058,0.4864856771,-15.35423673
1.1050,0.8358493821,-2.693768343,-12.39692717
1.1100,19.25858959,-6.379555937,-12.3520228
1.1150,20.10331739,-5.439070171,-8.979123426
1.1200,17.45479675,-8.18779129,4.42751828
1.1250,23.99081218,-6.351061658,6.286737579
1.1300,24.83946334,-1.43581646,11.26152777
1.1350,19.68670592,-4.78875168,24.34182369
1.1400,40.80120031,-7.459122022,21.6110143
1.1450,24.47670615,8.132996859,24.33431446
1.1500,35.95243912,3.351423558,30.28181749
1.1550,26.40353272,3.017446723,32.90203202
1.1600,49.70424458,8.221445192,27.60125126
1.1650,48.26634641,9.349760059,23.44310533
1.1700,43.62867178,3.513984347,22.05868091
1.1750,35.87423914,-3.157684682,25.1117172
1.1800,39.36694066,-7.355829079,21.00320496
1.1850,28.38292963,-21.80062121,24.27914708
1.1900,37.15840395,-16.40586887,6.234027884
1.1950,26.97620196,-25.96246362,9.846675903
1.2000,33.39773678,-18.71230469,0.08260854387
1.2050,39.86084392,-24.12242478,3.279921322
1.2100,60.23238867,-9.807598949,-13.26273809
1.2150,71.55603753,-14.82457452,-22.05307216
1.2200,82.53155872,-19.1269658,-22.1033008
1.2250,77.17534542,-19.08056206,-17.68193008
1.2300,95.78947003,-14.08931776,-0.9901606062
1.2350,88.89240203,-11.2546567,20.06416505
1.2400,116.8114577,-11.07135322,-6.809176577
1.2450,111.7115403,3.860058836,27.51138819
1.2500,65.08346612,5.358858717,5.557362825
1.2550,98.23423398,-16.52239132,18.05143145
1.2600,87.47384341,-7.865224628,21.31025115
1.2650,103.8354365,-20.44290825,22.25082089
1.2700,104.2233533,-34.10256204,25.91706984
1.2750,112.8563438,-17.28596264,21.47570894
1.2800,97.48622343,-31.81802174,22.22247125
1.2850,97.45640141,-13.91863666,24.05220877
1.2900,70.05108692,-12.83200069,27.3643191
1.2950,50.31437676,-9.595034929,14.00073164
1.3000,32.43158076,-5.363509805,12.24727789
1.3050,9.789243374,8.5500528,15.11727714
1.3100,9.228272141,7.071301964,-0.6874683525
1.3150,-16.9114743,5.612714894,7.584693209
1.3200,-21.53010184,7.978340715,15.98712818
1.3250,-43.48550833,4.618323192,19.66011204
1.3300,-36.71146308,1.585256475,15.67132273
1.3350,-31.68030398,4.105452016,0.05778239695
1.3400,-41.26439356,0.04559220042,16.75776056
1.3450,-24.91018998,-7.169589903,-8.544980694
1.3500,-30.192281,7.436016497,-19.17353483
1.3550,-26.60660376,6.462609592,-8.137237577
1.3600,-27.95943603,7.398698849,-18.5759939
1.3650,-27.61516337,7.822968107,-14.79873835
1.3700,-23.70611837,8.42928734,-23.94179678
1.3750,-17.81635954,10.85202266,-27.53365347
1.3800,-19.3672088,14.1311163,-30.36413893
1.3850,-15.10133999,3.21737209,-32.3696984
1.3900,-1.448498549,-3.06540446,-22.61402065
1.3950,-23.71586455,-0.3736176863,-13.89690154
1.4000,-14.04799826,11.07961863,-8.941766105
1.4050,-35.11261134,24.44033663,-16.7932961
1.4100,-36.77313992,9.080488568,-14.73744131
1.4150,-39.58630977,20.16590869,-12.80597462
1.4200,-45.60461006,21.25358115,-12.4364584
1.4250,-58.79850132,12.74618881,-11.26196571
1.4300,-57.20992612,10.63932842,-22.14692582
1.4350,-58.23113343,12.24318324,-15.91823352
1.4400,-66.50469166,21.92078742,-24.59459773
1.4450,-72.96282068,13.16209601,-17.31767517
1.4500,-73.78675165,4.475584375,-15.32917405
1.4550,-71.32155258,10.12630704,-14.90828272
1.4600,-67.08463179,9.448934569,-15.23916198
1.4650,-82.05800341,4.840196301,-12.95321215
1.4700,-59.19442815,8.383367864,-13.30120599
1.4750,-58.35244616,17.31250809,-1.904126997
1.4800,-39.53300686,26.54664467,-8.403194856
1.4850,-40.43558898,22.78449598,2.132259149
1.4900,-43.45652536,33.95578587,-3.663434923
1.4950,-35.02756387,27.17157959,7.177611169
1.5000,-49.64022101,33.71878589,10.32209081
1.5050,-43.16969669,41.88236866,14.79799299
1.5100,-47.31397243,42.27046278,15.01425727
1.5150,-53.70476353,44.64590648,11.20989235
1.5200,-44.30870115,35.43453852,20.8472273
1.5250,-35.69320808,37.45996057,16.3388351
1.5300,-35.08647119,28.72050159,18.08863209
1.5350,-38.45791143,24.20991838,22.69574868
1.5400,-26.21035659,27.27259797,0.6335021708
1.5450,-28.84102193,26.09109373,3.513114533
1.5500,-36.38261873,14.28656843,5.756965621
1.5550,-36.48031995,29.7946733,6.197770975
1.5600,-19.90476145,30.34368071,3.747755031
1.5650,-51.05243437,29.85088878,7.74516149
1.5700,-30.1950757,24.72199038,7.765706837
1.5750,-14.32658969,16.78822449,-2.546934506
1.5800,-31.36763561,1.080582753,5.635144409
1.5850,-7.894232679,-2.758460371,-0.6834576804
1.5900,-12.84797997,-11.00682841,2.276392932
1.5950,-15.01674593,4.10651148,-2.76931807
1.6000,-19.51023275,-5.477258504,6.158297486
1.6050,-2.251409935,-8.192339264,9.916046145
1.6100,4.995257641,-0.9000412542,12.08276788
1.6150,13.47839625,3.790883292,11.46323697
1.6200,20.93510624,-1.198881959,15.2114845
1.6250,18.72562255,5.518034234,8.731105282
1.6300,34.2277075,11.69411367,12.82086426
1.6350,14.39197034,15.63981039,18.97678971
1.6400,20.98278497,12.19178917,19.86605858
1.6450,12.19802433,17.55247712,13.56187652
1.6500,14.3635991,19.36806431,16.55128908
1.6550,4.299431513,24.99015553,19.69821682
1.6600,-0.6506110881,24.94184231,23.54686437
1.6650,5.640202551,31.45866044,13.86633265
1.6700,8.321555515,26.33209923,14.23706379
1.6750,8.246669207,17.02030742,19.33031744
1.6800,4.549639509,9.453270651,12.74420537
1.6850,13.5307704,1.425758078,3.36374233
1.6900,-1.626181019,0.5481514251,4.251579299
1.6950,14.32720576,-5.656930459,-4.450231498
1.7000,36.03740964,-17.89664861,-4.585828832
1.7050,32.99631491,-7.670472494,-14.40545846
1.7100,46.48512768,-11.28315956,-6.832853824
1.7150,30.62214054,-0.2423823782,-0.173620782
1.7200,26.01706228,-5.105296638,5.036261479
1.7250,30.93244202,-0.132766728,-3.313816814
1.7300,31.76521159,6.435886599,7.566329851
1.7350,13.27457945,11.33102467,20.95258738
1.7400,11.91459218,15.7039672,14.23775762
1.7450,12.12352847,24.79240483,16.68580471
1.7500,6.385613358,17.38467478,23.1368625
1.7550,9.957083271,19.05042171,17.66609748
1.7600,18.0817516,23.32573687,9.014577206
1.7650,16.33302816,-1.081938225,5.196680507
1.7700,15.99137494,-8.058551724,-5.423826128
1.7750,13.88213873,-6.509558458,-6.991992237
1.7800,-1.45640739,-8.207761278,-2.656585794
1.7850,7.802225417,-11.92438022,7.965937479
1.7900,0.7825596786,-5.083816805,-12.44528369
1.7950,-7.794522008,-14.40028065,-12.95018232
1.8000,8.855491908,-22.79855836,-19.86602875
1.8050,-10.55551529,-22.12542305,-20.53538893
1.8100,-3.818895596,-15.84158252,-19.23362772
1.8150,-6.856829453,-11.31854617,-5.319861493
1.8200,-6.437258848,-4.340879925,-9.916820637
1.8250,-5.20792318,-12.41966049,1.253924663
1.8300,8.994782145,-12.39322046,2.716956411
1.8350,10.4695073,-4.331912292,12.00097488
1.8400,1.757770524,-6.89026347,11.69493811
1.8450,1.185355687,0.004913653805,10.44199226
1.8500,6.893301873,7.947082124,-6.046239192
1.8550,5.442794393,11.08221044,-7.629216482
1.8600,3.875279111,7.521908451,-6.229527899
1.8650,3.651858935,13.13439189,-3.553087122
1.8700,-1.449499947,14.37907202,-5.223687499
1.8750,2.208596674,13.18069265,-5.125082511
1.8800,-0.6048362953,5.736631124,-5.012386111
1.8850,9.341913207,12.76578856,-9.97217516
1.8900,-0.5022791936,18.4255361,-10.42254578
1.8950,-3.978727465,18.31664346,-10.55163922
1.9000,-2.640080505,20.8852867,-15.40047553
1.9050,-9.104242433,21.73306624,-8.729861222
1.9100,-19.21156484,24.66398974,-5.120332715
1.9150,-11.18827723,25.27133396,-5.134374349
1.9200,-18.75102702,16.58770329,-3.420455884
1.9250,-20.22916921,5.795238393,6.333292611
1.9300,-23.3059064,-0.4749979632,-3.565606008
1.9350,-13.24555945,-2.245853266,2.91256845
1.9400,-16.80471558,0.8870769644,2.361041694
1.9450,-20.83754824,3.010761464,8.991681096
1.9500,-13.46793691,6.860898755,10.72906997
1.9550,-14.90110352,-1.911560516,21.00559293
1.9600,-9.499584004,16.56095955,-0.1609282249
1.9650,-12.88901065,10.61180534,10.67294027
1.9700,-6.145622707,9.977888945,8.419357936
1.9750,-4.904872791,15.43630447,3.669405385
1.9800,8.033563422,21.27155292,-11.10165853
1.9850,8.204384179,21.99255284,-14.15277954
1.9900,13.97807708,4.896782953,-16.04726057
1.9950,17.75919307,4.322520175,-15.01244173
2.0000,-3.625578828,-0.1812541273,-11.28487698
2.0050,18.82387744,4.627670421,-11.2797834
2.0100,1.6288899,-7.317606071,-12.81470021
2.0150,0.9463717477,-16.91342386,-3.881668153
2.0200,13.69134756,-23.96789997,-8.82751187
2.0250,4.143962947,-29.89608662,-0.09713580532
2.0300,3.996925139,-14.90141508,-4.730489038
2.0350,20.28510869,-15.53097414,3.722342925
2.0400,28.76727781,-14.76099958,4.102053137
2.0450,15.0685498,-6.126807185,10.30513926
2.0500,10.8190553,6.807568461,7.213050161
2.0550,6.965611825,15.27719531,12.44979705
2.0600,10.15073646,27.85037079,11.04366758
2.0650,11.02519458,29.86301353,8.381490225
2.0700,7.935043152,36.2718441,-1.734965011
2.0750,11.37409691,39.22086579,-4.545842398
2.0800,7.229128658,44.70870692,-11.37697093
2.0850,2.38430375,34.0229409,-1.01057152
2.0900,-2.996325433,39.21541642,-4.523238683
2.0950,-5.948808175,25.04034406,3.74850365
2.1000,-7.03301665,19.48575044,5.842069518
2.1050,-22.59250366,7.230471164,14.20774448
2.1100,-23.5103731,-9.053856097,9.756633018
2.1150,-13.04774029,-7.297503042,0.6510981593
2.1200,-8.293996357,-17.1103676,-5.986426395
2.1250,-11.84403322,-21.75620897,-14.89378009
2.1300,-12.74712278,-13.25113646,-21.37900277
2.1350,-17.17117544,-20.71879663,-14.05618977
2.1400,-12.32238803,-15.55790227,-15.98814049
2.1450,-1.662040652,-7.99421351,-16.24361536
2.1500,-12.83977704,-13.76451824,-15.2226781
2.1550,-9.177069749,8.095674821,-24.06686942
2.1600,-17.55980716,5.055724856,-29.15117625
2.1650,-5.561472133,5.704288504,-36.02598621
2.1700,4.425662279,-6.081222395,-29.44625221
2.1750,2.228827291,-1.81038066,-22.55662076
2.1800,-4.793603403,5.36797571,-14.27869539
2.1850,-12.48001663,4.797335591,-4.725630429
2.1900,-3.931427404,4.55618138,-3.195850217
2.1950,-22.56211166,8.126730311,12.9124598
2.2000,-14.01524301,9.313930193,14.53132694
2.2050,-5.748022766,15.00162603,17.46419002
2.2100,-10.20615457,2.965795294,18.06104392
2.2150,-9.820655248,16.88999603,5.286069205
2.2200,-12.82982582,-1.674045739,1.101464761
2.2250,11.19513222,11.59568341,-9.566485243
2.2300,1.053842044,7.814575131,-7.535092441
2.2350,-6.407104177,3.149388337,0.3040826371
2.2400,4.515450945,-4.762868423,1.292863238
2.2450,1.697743298,-5.4074876,6.162995706
2.2500,3.354287808,2.032956727,-1.171622677
2.2550,0.8693225163,-4.317560342,-2.27953815
2.2600,4.262042623,0.2133585789,-9.246225694
2.2650,3.854905048,-6.260525201,-2.267752998
2.2700,17.62613658,1.147112848,-6.119810801
2.2750,18.3283538,5.195367767,-0.7395139059
2.2800,9.284264545,-16.17727063,9.456599891
2.2850,-4.85769724,-25.6494757,7.655122509
2.2900,0.2350450815,-12.07458464,0.8725004546
2.2950,3.580661136,-0.1727237592,4.083533061
2.3000,11.02526036,15.90649694,-0.04948179098
2.3050,-0.7370588928,39.88314512,-2.612189321
2.3100,23.56644021,24.68139476,3.272011961
2.3150,20.7923862,28.28042618,5.547534621
2.3200,14.98801964,15.85358123,9.949730001
2.3250,18.28495096,22.17080657,6.245421291
2.3300,26.27230562,13.22799081,13.28760177
2.3350,16.45187205,9.227136896,7.200620063
2.3400,13.42913011,7.572423948,-2.52086749
2.3450,-2.551554947,1.583581659,2.544881225
2.3500,-9.660139041,12.1369644,2.024002869
2.3550,4.051590873,18.53432222,16.94769978
2.3600,-3.159861062,21.79550221,17.47967234
2.3650,-11.46755815,8.46161058,30.064233
2.3700,-24.44130767,19.02424655,14.01114622
2.3750,-19.13904488,13.48303671,19.56680898
2.3800,-14.309719,15.59181968,21.87810832
2.3850,-13.56189457,10.7535896,9.4069691
2.3900,-16.64281612,0.9502533564,8.221146922
2.3950,-8.042486501,-0.1892252589,-3.571503813
2.4000,-17.57417621,5.877240687,-11.61638237
2.4050,-29.89910105,0.5968114385,-13.38946385
2.4100,-24.07366311,-4.468756934,-17.60791881
2.4150,-18.40800487,-12.13551632,-19.54157955
2.4200,-29.75480881,-17.25101401,-26.12597065
2.4250,-12.89010751,-10.86125755,-21.66112406
2.4300,-23.79787056,-9.134648642,-19.99013954
2.4350,-16.99785573,-7.984189144,-14.71488562
2.4400,-21.04161355,1.115888363,-21.84849111
2.4450,-13.09865171,9.987507959,-13.49930195
2.4500,-2.059984552,8.443209086,-7.652451972
2.4550,-17.79544704,9.434418941,-1.945907259
2.4600,-15.3426958,7.457488661,-7.955557819
2.4650,-25.72588488,1.825233855,-2.39370883
2.4700,-16.4413023,-8.876855771,0.9144780673
2.4750,-16.95870407,-1.43381619,1.980620816
2.4800,-25.36500547,3.48354046,2.077514291
2.4850,-19.19593194,2.023684424,9.456540287
2.4900,-13.78548555,10.04137438,11.45925931
2.4950,-12.65457843,22.21837184,9.143841558
2.5000,-20.46606262,13.29128031,5.937854509
2.5050,-4.995874452,18.33904146,0.4503529683
2.5100,0.7054394034,17.72767805,-7.901802006
2.5150,-3.926037401,9.496544365,-4.776190649
2.5200,-8.571778307,-1.504775076,-8.154460989
2.5250,-12.57771762,-10.69133285,9.149895614
2.5300,-7.70862444,-13.98619659,11.04965166
2.5350,-17.23209729,-15.16724525,8.965788007
2.5400,2.608863602,-27.14091174,22.39014202
2.5450,-9.273153904,-18.67462339,23.38678341
2.5500,-12.26202856,-10.05274111,25.21418791
2.5550,-4.50965281,1.328693344,20.86243183
2.5600,-5.768639792,-10.31783093,12.63349967
2.5650,-5.257942799,-3.440033656,0.1113841183
2.5700,4.627973356,-10.34733337,-6.012982859
2.5750,4.095535338,-3.040305862,-10.34751068
2.5800,8.789721486,6.633251243,-19.71274281
2.5850,3.48441438,9.909267772,-21.94313279
2.5900,21.76323464,13.31387557,-19.6364334
2.5950,5.912649561,21.13618371,-9.691276441
2.6000,-10.52465583,27.19566975,-8.040894152
2.6050,-18.81259935,18.35237722,11.06339899
2.6100,-19.29095936,8.49669337,18.0220647
2.6150,-12.36144868,-6.087762874,27.41785319
2.6200,-15.28048387,-22.48084015,29.0065878
2.6250,-25.82060525,-30.64813417,26.07514103
2.6300,-3.721141791,-23.48425817,2.80959732
2.6350,23.16921717,-7.313836939,-10.43072441
2.6400,8.318952795,-6.105076998,-18.82942626
2.6450,2.776713362,-14.54630478,-9.031288297
2.6500,11.5285372,-12.99406396,-14.97776096
2.6550,19.82525122,-9.523123271,-7.784014847
2.6600,10.11955901,-7.179757565,-10.98186617
2.6650,21.95611982,-1.703849399,-14.32173637
2.6700,10.35385782,0.7997466234,-10.92697583
2.6750,8.514109868,-3.517171572,3.034287983
2.6800,10.04288466,13.07607555,-2.591653481
2.6850,8.647616895,22.36040874,-2.456912416
2.6900,23.21144305,16.14367075,-0.3415788016
2.6950,15.60656818,18.95954338,7.001176121
2.7000,11.52205935,6.966906306,17.46150614
2.7050,1.211323798,-7.968707271,25.60701611
2.7100,5.393540982,-4.166464971,13.74163094
2.7150,-1.149133345,-14.51224078,13.77125741
2.7200,14.46036536,-27.16531411,16.81469501
2.7250,-5.118165427,-13.61239426,8.943846477
2.7300,20.26684868,-8.458434784,-0.091064788
2.7350,21.11894845,-9.308140104,-12.66006875
2.7400,17.89206059,-25.3404696,-14.47738852
2.7450,7.380834711,-22.43901951,-12.77504952
2.7500,18.13183954,-9.607968636,-17.51710673
2.7550,32.34227436,-1.314339007,-21.23181011
2.7600,27.89419644,-0.7421507959,-24.03947267
2.7650,15.41870504,-6.392952667,-17.66774757
2.7700,19.74335046,6.815468358,-5.286333367
2.7750,15.47134705,18.23081659,3.954104517
2.7800,16.73323282,21.31213798,7.842130851
2.7850,10.21339388,30.01964329,9.505827278
2.7900,25.1045635,18.04192609,13.63545236
2.7950,22.89570428,15.57394592,7.743060772
2.8000,28.29789189,12.66290883,0.2635096939
2.8050,17.18095555,10.31720839,10.54655432
2.8100,12.31397545,6.132312429,20.15161728
2.8150,-3.442092673,1.12789585,10.50320456
2.8200,7.592509685,-13.48482982,15.56554995
2.8250,18.96612774,-0.8022559646,0.1510923932
2.8300,12.7227637,-12.80824308,-6.301829262
2.8350,15.85524044,-6.941816895,-7.601124487
2.8400,23.71493128,-11.72423795,-16.15186079
2.8450,25.88871645,-12.97175884,-21.04393565
2.8500,11.4225979,-16.99074559,-8.819982179
2.8550,-9.28253318,-9.250438455,2.933216106
2.8600,-11.0213453,3.987845011,0.9066305655
2.8650,3.24822659,-7.814524821,15.30458687
2.8700,-5.896818846,-4.190848336,15.85156637
2.8750,-16.78073714,3.247392683,21.12389839
2.8800,9.388341723,16.60387757,-4.756439107
2.8850,-0.5706141067,13.58433759,-13.80378724
2.8900,10.7871004,13.40510205,-23.72169156
2.8950,6.684903265,5.615185101,-21.4896967
2.9000,-9.570202483,10.55027279,-15.68531183
2.9050,-19.33054828,9.150000761,-8.61991558
2.9100,-25.85512043,-10.36097624,1.161723469
2.9150,-10.05650785,-3.497729167,-1.306254188
2.9200,1.435295724,-22.54911751,0.1436025849
2.9250,16.12499712,-33.49219278,5.541888972
2.9300,26.34807054,-33.5428802,2.445462726
2.9350,17.44004538,-23.34434288,2.086912713
2.9400,13.25695626,-14.01325188,-8.255677747
2.9450,-3.00986695,-20.22891245,-3.942194848
2.9500,11.21447623,-21.0376582,-8.379618889
2.9550,6.910371614,-4.818079429,-1.930151404
2.9600,17.24521259,8.110774606,7.960192386
2.9650,13.40567742,33.20521211,16.59425129
2.9700,4.157813686,35.11824899,30.4420881
2.9750,4.3187842,40.26398396,18.9966443
2.9800,3.251589613,41.62094257,16.16840198
2.9850,-5.564923765,21.92127052,19.50512493
2.9900,-0.3979366912,15.93358718,12.12323199
2.9950,9.6507599,7.76294956,-3.02562773
3.0000,20.87508101,-13.23955196,-6.462708854
3.0050,11.67798808,-35.19318758,7.046916006
3.0100,7.304133003,-31.74809925,-0.9200492397
3.0150,-9.306135833,-39.4965478,4.180127122
3.0200,1.582026849,-30.57854023,-7.554860494
3.0250,8.35028286,-25.90044632,-3.155816439
3.0300,-1.843372621,-33.20184913,7.844330398
3.0350,6.260940151,-25.17823824,2.275100153
3.0400,9.037613089,-3.626545664,1.00184002
3.0450,8.315233357,28.51652539,-4.604423623
3.0500,29.58193844,32.67703951,-16.51332057
3.0550,0.9464112993,38.23720241,-11.73879532
3.0600,21.06777793,28.63071264,2.05260946
3.0650,5.699979075,21.18781566,26.51013179
3.0700,-5.342674938,28.30266099,32.8866478
3.0750,11.32310854,33.97670464,15.73136732
3.0800,-0.7189024981,14.41336638,16.52340237
3.0850,3.066516448,-7.121742861,19.22074505
3.0900,-1.120552962,-15.84435465,17.54424236
3.0950,-1.958591226,-20.99671401,11.48964204
3.1000,-0.2597303293,-20.93705273,-8.766560782
3.1050,7.514395262,-33.81867727,1.422005269
3.1100,3.917780278,-25.67763851,2.016673851
3.1150,15.20319947,-13.41488456,7.291524526
3.1200,11.72334671,-9.665898243,6.820388622
3.1250,5.163537044,1.179412517,3.866390716
3.1300,10.42595294,12.01065316,1.968832738
3.1350,10.19045267,22.48760341,2.922723866
3.1400,7.611767026,34.09133185,-5.35116397
3.1450,27.43930754,21.84764438,-7.911744795
3.1500,15.77996166,5.953736181,1.234474295
3.1550,29.18317162,11.27349284,-6.969440197
3.1600,13.62092508,6.663765067,-1.171848602
3.1650,37.38158726,9.322148722,-3.175836587
3.1700,9.754479365,-14.28252518,15.15108223
3.1750,-3.709281346,-27.41084006,23.69207857
3.1800,1.859751605,-30.76669418,16.55081109
3.1850,0.2009445503,-17.02443547,8.687925736
3.1900,15.84716287,-17.42359972,1.711139472
3.1950,9.564173483,-15.34258225,0.5418996256
3.2000,22.69876292,-8.56596075,-7.459184644
3.2050,11.76888387,2.428070402,-9.043538589
3.2100,11.85599366,11.63115185,-8.094165748
3.2150,4.826142813,8.260859199,-3.140483619
3.2200,10.52655813,33.44933538,-3.866589303
3.2250,12.77169674,28.0419717,4.505336833
3.2300,-0.7424581943,16.51368158,1.883151541
3.2350,27.03926682,5.563181893,-14.57178144
3.2400,10.80156051,-15.70351346,-8.748014264
3.2450,5.917995411,-30.13365977,-3.173556759
3.2500,10.03442842,-22.11648521,-20.90318113
3.2550,3.97227448,-32.52059012,-17.79620496
3.2600,8.273623374,-40.53015743,-14.17261955
3.2650,11.50391932,-27.33196472,0.7285358464
3.2700,5.469178113,-21.70492195,11.08847627
3.2750,1.177038146,-4.409856769,7.235176644
3.2800,9.553979612,-2.368295353,1.025821125
3.2850,7.369944275,6.72847211,-6.637752546
3.2900,17.77932303,26.72583105,-19.45145809
3.2950,17.5153514,32.50254221,-8.85902231
3.3000,22.74587817,26.52734233,-16.93759319
3.3050,17.64030974,22.303326,-20.91811717
3.3100,9.414877774,4.578876378,-9.612955101
3.3150,7.445856905,7.966667555,-11.30735961
3.3200,2.2196045,-3.767499088,-0.4075640095
3.3250,7.671288992,-8.520008168,-8.344452974
3.3300,0.01165124228,-27.56766094,-11.47639664
3.3350,10.80971175,-23.50412369,-13.98703853
3.3400,9.312310411,-17.06282003,-12.24913287
3.3450,3.036856584,-9.029104962,0.2275897574
3.3500,9.635525616,-0.7758109806,-6.908670751
3.3550,9.299634738,16.00696229,-6.771533197
3.3600,24.59710665,27.90794809,-11.11176646
3.3650,25.86709279,38.09048764,-1.353570752
3.3700,23.19358134,46.93326058,4.777319183
3.3750,13.34833853,54.11317647,5.452402131
3.3800,19.99307353,37.7527136,11.53956833
3.3850,11.91286605,25.98185806,22.20048364
3.3900,-4.047227048,16.7330879,31.15658283
3.3950,3.714835866,5.950614915,26.73978846
3.4000,-1.461940178,-1.403982836,26.2375325
3.4050,11.45860146,-15.1879154,19.66544579
3.4100,3.88596207,-15.27785963,12.48948575
3.4150,7.429565537,-23.94318274,5.223577303
3.4200,10.51231844,-26.10101734,-7.816937342
3.4250,14.62139934,-24.0499975,-8.12225083
3.4300,23.21238101,-3.770749695,-20.56399193
3.4350,12.72370545,-6.040216701,-8.462359132
3.4400,28.0251876,11.78139466,-9.693207421
3.4450,14.37551465,18.26033795,-8.083269213
3.4500,16.22900023,31.33012492,-10.01409802
3.4550,10.71200684,34.12761707,-11.85836462
3.4600,9.434944176,13.81416488,3.590364371
3.4650,5.401613468,6.579691567,9.313254314
3.4700,19.18579488,0.02138784588,1.396407866
3.4750,22.58059082,-9.515428507,3.715957702
3.4800,12.21441969,-23.4734985,2.759483052
3.4850,1.302779594,-33.45289072,6.180860725
3.4900,2.707679908,-21.48225935,-7.64098794
3.4950,10.8519036,-28.07606361,-11.02736
3.5000,-8.860827656,-18.43184761,-11.88284159
3.5050,0.04296882079,-15.91968877,-8.17733593
3.5100,-2.936234324,-19.19798312,1.953835949
3.5150,15.26054559,12.47965594,-4.859694383
3.5200,7.375620242,11.04596401,0.5612073945
3.5250,7.886835002,13.81445355,5.394412869
3.5300,4.33060187,9.168623857,7.81613738
3.5350,-6.69732464,13.09799268,-4.603694679
3.5400,7.947452516,12.49704603,-10.53385493
3.5450,2.310556523,-0.2640756916,6.298177229
3.5500,3.135343448,-5.78872224,6.990818747
3.5550,1.04712777,-14.07618078,-0.1500544587
3.5600,0.6564075554,-23.29316255,-0.258063795
3.5650,0.9836404939,-24.55900904,-1.191948698
3.5700,-13.80620348,-18.4285317,-4.295384728
3.5750,-5.168985154,-17.72518899,-1.536577266
3.5800,1.550166499,-9.887664758,-9.334155777
3.5850,-3.744556501,-8.563283724,3.385252318
3.5900,-1.170000368,6.227586335,-2.999442013
3.5950,1.691171795,9.993288155,5.177581109
3.6000,-12.84617122,13.72960415,-5.76690278
3.6050,2.741157365,23.56322294,-11.52363772
3.6100,14.01068755,18.17391688,-17.45820748
3.6150,6.203955705,14.28585353,-9.237929713
3.6200,2.777390784,14.68068704,1.539675635
3.6250,11.61069226,14.06627475,2.535548565
3.6300,-5.72610441,4.806255122,7.115865513
3.6350,-2.229476095,2.96492879,-2.984772426
3.6400,4.359135964,-14.7690267,-3.253696275
3.6450,18.80513006,-4.462596721,-5.29208648
3.6500,6.438606891,-12.23832097,-6.978673496
3.6550,22.86989134,-5.014279552,-4.493942074
3.6600,2.672453259,-3.610486536,-4.014040456
3.6650,11.69841793,3.610958833,-2.678607286
3.6700,8.13401471,3.093900704,4.569502863
3.6750,12.57925612,18.81470618,7.462498187
3.6800,11.68766849,20.25223741,-7.780692
3.6850,14.30130696,1.694579114,-9.790652664
3.6900,15.24255039,4.214930086,-5.148311858
3.6950,17.37277969,3.172926159,6.665886245
3.7000,14.65534053,11.17315762,3.871520745
3.7050,16.64457512,-6.04730088,2.604742057
3.7100,11.67776795,1.108801746,-7.291571332
3.7150,10.7540935,-6.686680541,5.351694175
3.7200,-3.714199439,-13.92000029,4.217721223
3.7250,7.576874985,-17.18018795,-14.13908915
3.7300,21.03863161,1.95797265,-24.42207582
3.7350,0.9364264066,5.054733372,6.563125628
3.7400,6.767456482,12.46916841,7.049600183
3.7450,21.74850758,26.18728924,15.95227872
3.7500,18.39044812,36.87447435,11.43077656
3.7550,21.77908705,34.48861754,17.48434734
3.7600,21.47120248,30.90043568,15.5061502
3.7650,16.35936682,38.51151313,11.21122462
3.7700,34.39963806,25.85052636,13.87200004
3.7750,21.06678925,19.46481066,29.76737452
3.7800,-1.628081221,18.78051945,24.04610025
3.7850,28.05575601,17.51898507,12.505687
3.7900,13.97085532,4.446229253,7.263911798
3.7950,15.87870609,4.248929237,-4.370015138
3.8000,19.25962056,-6.577241269,-5.44675406
3.8050,19.6241416,-3.62454214,-3.824078217
3.8100,18.04792052,-8.447579742,0.4991820703
3.8150,25.61705122,-11.27585962,0.02339731073
3.8200,12.38040718,-2.127290365,3.945570533
3.8250,4.348998796,10.72900926,8.488374532
3.8300,-0.7179104283,24.54734394,4.103759779
3.8350,25.22622498,30.20941885,-12.29306434
3.8400,21.71031223,12.44391625,-2.391028967
3.8450,26.41777501,9.671648302,6.186477557
3.8500,18.09316609,16.27861707,2.532432051
3.8550,9.218495489,1.608924037,7.879885735
3.8600,14.02137173,-6.77018259,6.36662786
3.8650,9.703793504,-6.022218398,8.701840956
3.8700,18.97519989,-9.053249019,11.70119761
3.8750,16.11473988,-4.685673752,15.18213031
3.8800,3.415651127,-17.78780379,20.41306795
3.8850,-4.694468423,-6.687740859,5.762421831
3.8900,-0.9773287204,6.78780245,2.486564025
3.8950,6.151783558,5.599331865,10.45386783
3.9000,15.64130804,12.53743272,5.678217053
3.9050,-0.4972782951,26.56675777,-3.975586674
3.9100,4.854206146,33.66519654,-17.35954239
3.9150,6.113276683,21.45451053,-9.760493198
3.9200,3.563767708,9.775398445,10.35714207
3.9250,9.890887786,3.976428027,22.98177254
3.9300,-3.756936737,-6.560702052,24.15921508
3.9350,-6.662543477,-14.66340735,19.93070374
3.9400,-1.842888465,-30.01340423,15.72376739
3.9450,10.99874302,-28.40037795,1.071184233
3.9500,14.88433976,-21.79617093,-10.23630009
3.9550,7.098797044,-20.07420249,-4.742370517
3.9600,3.937499205,-19.99715049,-3.972346282
3.9650,4.249901405,-5.042714647,3.667375466
3.9700,13.56595731,5.431704948,2.487587855
3.9750,-0.5893988202,8.099646118,21.26663002
3.9800,8.723103723,20.99306962,26.95035501
3.9850,-1.255955312,43.25440282,25.33622421
3.9900,11.06063735,53.76114331,5.596859611
3.9950,0.03076652191,41.77020049,-2.797226026
4.0000,14.29775138,20.53776046,-1.444617803
4.0050,14.36830172,4.88032814,14.34588308
4.0100,26.72965204,9.349226993,10.47343924
4.0150,-8.021973894,-1.495007534,18.67238708
4.0200,-6.951708335,-12.72767678,13.58823974
4.0250,-0.03820665956,-21.198918,7.856631036
4.0300,12.64423672,-31.44359275,14.08663188
4.0350,-3.852628445,-23.49061315,21.78125572
4.0400,8.99499012,-11.52338821,-1.704275407
4.0450,6.496873793,-7.58484914,-4.754082404
4.0500,18.73771744,-2.220739683,0.1172576657
4.0550,12.11773957,-0.5503932764,12.01031457
4.0600,11.33136104,7.243091169,8.279784857
4.0650,16.60320144,3.183020508,11.39470236
4.0700,5.499386117,4.514818994,20.74709549
4.0750,4.32643856,9.23608035,16.77975018
4.0800,3.696121556,13.78186446,6.390067248
4.0850,2.749634221,-9.383901775,1.400794797
4.0900,0.7510492672,5.386993062,-11.81116147
4.0950,-4.392739448,-10.26118557,6.662400327
4.1000,2.271484065,-0.37590878,-1.803860866
4.1050,3.448579026,-3.667771489,3.099489255
4.1100,0.9812225331,-4.718486323,6.294417648
4.1150,-10.34331251,-2.914333938,6.627846195
4.1200,-2.293211815,-7.73595506,-4.173771326
4.1250,-2.715962368,-9.353891732,-6.872897877
4.1300,-2.821515525,-4.320959967,1.864756806
4.1350,-1.819394348,-0.1476608251,-3.799501093
4.1400,2.383071985,-3.887876229,-8.432803753
4.1450,-5.296883329,9.91502513,-7.114567198
4.1500,4.660434947,12.26406331,-15.17278402
4.1550,3.98840185,8.68630731,-1.15857346
4.1600,-1.464035207,6.07196805,-9.315804046
4.1650,5.070704147,-9.064615179,-12.28927718
4.1700,-4.844138329,-12.45135647,-7.158592996
4.1750,-3.913097401,-17.70989575,9.468583556
4.1800,7.488712829,-16.25677354,5.577305393
4.1850,-9.616861074,-10.54930407,6.621530192
4.1900,9.753291776,-5.547794033,-6.686401542
4.1950,4.789061202,-3.404844841,2.676502723
4.2000,2.206987931,-2.802132189,1.98163586
4.2050,0.677498173,10.14077572,2.977914473
4.2100,8.275671017,14.41809176,-1.260141397
4.2150,6.202564251,2.280192365,12.90268487
4.2200,1.961067093,16.35495642,11.16421003
4.2250,-2.186379939,17.24831947,7.931029659
4.2300,-10.74760256,6.324577591,13.96639312
4.2350,1.707520193,11.08097468,2.861549362
4.2400,1.702462292,18.31464239,-6.340222384
4.2450,-1.665650081,3.11733215,5.868335173
4.2500,-0.8493218048,2.292813095,-0.1267364433
4.2550,11.20059974,6.415447952,3.427732083
4.2600,3.092739969,5.925911586,1.857890441
4.2650,-4.975803581,11.26444001,4.347642529
4.2700,4.702929886,19.08343663,0.2124990829
4.2750,7.911623779,21.55910459,-0.2968786418
4.2800,5.521697717,13.25405716,1.691258971
4.2850,0.6777195019,13.43843533,6.499935612
4.2900,9.190379297,9.737581633,-3.688338809
4.2950,8.657467627,5.904894296,2.556915515
4.3000,-14.26409385,5.181161015,7.266822751
4.3050,-14.39398577,14.21990891,10.72766667
4.3100,2.440826104,3.1426803,0.7934506545
4.3150,-1.299015275,0.1862918129,7.527720919
4.3200,7.256674771,-9.741000411,14.31966915
4.3250,7.717797292,-12.08374686,11.845258
4.3300,-8.19885259,-12.03172935,9.548481296
4.3350,-20.7978118,4.073296041,5.949580596
4.3400,-12.17192407,16.26923924,2.016110262
4.3450,-12.16293371,13.93507375,15.54201593
4.3500,-2.228680403,23.43977962,-3.865594401
4.3550,-6.102625085,29.11538862,6.534358479
4.3600,5.307755112,15.33918671,17.67980103
4.3650,-1.415273223,21.59437933,12.77214474
4.3700,-0.3711337672,21.21502253,2.54125298
4.3750,1.404758307,14.73862747,-0.1481158124
4.3800,-10.12908123,4.724472082,4.525085428
4.3850,-3.003505002,16.43521909,2.706942401
4.3900,-4.401097842,9.278023778,8.587408284
4.3950,-5.427912597,11.59459864,3.672836582
4.4000,0.569272336,-0.8717995975,2.002196175
4.4050,3.556427751,-4.734970304,-0.08191043208
4.4100,-3.920492137,2.468572326,1.749412605
4.4150,-0.1927912609,-1.479761259,8.238433003
4.4200,2.338653182,-4.260200971,0.7188045088
4.4250,-10.39201478,-3.027827517,6.900651413
4.4300,3.865862749,-3.666255436,-4.777646022
4.4350,-4.987865716,-11.23898748,0.01082985428
4.4400,-2.678529723,2.301329574,-0.5307778469
4.4450,-1.067208416,-5.749245608,10.29267834
4.4500,5.337262369,-0.6632002164,-0.6486284633
4.4550,13.23995361,2.701298709,-6.542010256
4.4600,13.86628502,-0.3447849181,-9.967284698
4.4650,13.22141623,0.5301764113,-1.212660759
4.4700,12.57596146,2.907063479,0.06141527929
4.4750,16.26032444,4.659260579,3.225605617
4.4800,-3.726934241,-6.582922636,15.38528916
4.4850,14.64930891,-4.210581364,6.047859042
4.4900,-0.5100398793,-2.966255049,2.840181672
4.4950,10.52126713,-8.690889971,-3.934027306
4.5000,13.55393104,-15.22973623,-16.38755408
4.5050,6.092258178,-15.28420825,-10.7614072
4.5100,1.725989299,-16.96039936,-10.52217307
4.5150,23.61894826,-4.261004122,-14.17127683
4.5200,11.16685401,-9.152258723,-9.496042199
4.5250,7.78966547,-5.679110569,-6.825828838
4.5300,9.677372713,-0.5330440758,-3.009077587
4.5350,22.48954159,2.959101628,-1.964964148
4.5400,4.96365527,-7.495087108,5.593990023
4.5450,3.524335559,8.80514079,0.7487970065
4.5500,6.157995166,6.989338099,-2.570708434
4.5550,7.947136226,-5.074267295,-0.78373809
4.5600,-10.00329937,2.451097526,-12.87160044
4.5650,8.918180065,-7.240843458,-21.00699138
4.5700,5.372175362,-2.559879677,-19.83690309
4.5750,-3.229582947,1.677513737,-18.53884283
4.5800,7.001574316,2.935568887,-20.60868185
4.5850,5.421712711,15.70256315,-20.46831789
4.5900,-3.192950593,4.557892124,-16.5159709
4.5950,-1.439180949,20.14402407,-13.65032067
4.6000,3.736249452,2.280575146,-13.06042764
4.6050,3.97286081,-0.331067113,-7.255369522
4.6100,4.958065557,-7.331563277,1.635220892
4.6150,1.365491523,3.971877406,-3.29823688
4.6200,-11.28293219,-7.355880703,7.30695201
4.6250,2.74479359,-7.840778848,-1.808783838
4.6300,1.322398328,-9.671521983,-9.030666443
4.6350,-1.733503702,-3.138293627,-12.04206163
4.6400,4.214548908,-5.892765733,-14.07057521
4.6450,-7.658359497,-12.47965778,-2.840527146
4.6500,-12.42762772,-2.293365814,-8.542529557
4.6550,-5.833565975,-5.995307839,1.104163325
4.6600,-9.394870757,3.080044843,-0.9395715081
4.6650,11.40486059,-0.294483504,-2.99041609
4.6700,-1.712502559,8.115562798,-3.346146296
4.6750,-1.195922633,17.48861023,-12.65327496
4.6800,20.33447311,10.79447175,-16.9959795
4.6850,12.67420853,15.44077749,-12.29860335
4.6900,4.839400243,6.217728264,-8.924176742
4.6950,3.369084127,9.156787036,-0.3254093286
4.7000,7.735822641,-2.479561897,5.435146068
4.7050,5.913893668,14.64007416,0.696337398
4.7100,-1.190432075,0.04715432544,1.687895926
4.7150,-6.782372887,-6.626364337,8.25205754
4.7200,4.252744395,-10.69167615,4.035042957
4.7250,3.264486026,-1.031746958,-0.1248393488
4.7300,-2.799263964,-9.679239843,-4.814151298
4.7350,7.381016141,-7.144654853,-15.72765171
4.7400,6.464698841,-4.578424111,-14.49869929
4.7450,1.956783525,-2.867302686,-16.02805298
4.7500,4.624138188,-1.485453596,-12.07512693
4.7550,-4.771766785,8.908293902,-8.584913843
4.7600,16.18948083,10.39223877,-11.07233893
4.7650,13.87126611,-3.223136935,7.702535202
4.7700,11.12437723,4.304800361,2.888824793
4.7750,13.77212539,-0.2880620169,4.366177814
4.7800,13.8569313,-4.060125332,-4.054721169
4.7850,20.94812387,0.3875132859,-1.484565094
4.7900,33.0193289,7.992389352,-5.904327903
4.7950,25.22958188,-8.611316531,9.093443686
4.8000,25.55028143,8.474875299,6.282933556
4.8050,31.37605863,4.029053221,18.03699192
4.8100,17.31699611,6.472262755,7.833379348
4.8150,14.49346246,0.8178821579,15.73475604
4.8200,21.07451416,8.165986999,-2.332968301
4.8250,24.02003445,6.6431314,-3.879808234
4.8300,27.83460474,7.270071011,-8.978293916
4.8350,26.34025828,-1.186427095,-8.794829367
4.8400,22.46085629,-2.987071826,-19.65471521
4.8450,20.67235108,-2.007290792,-26.09484096
4.8500,14.41794194,-14.88702901,-12.59781277
4.8550,25.83334463,-12.04555087,-13.63207503
4.8600,27.28775841,-16.31013795,0.1118190607
4.8650,15.26831075,-10.55210808,5.356769535
4.8700,13.09241385,-11.03864309,10.43666669
4.8750,15.92177433,-1.338848534,9.527030034
4.8800,9.225065149,-5.506281644,12.99589863
4.8850,19.26207028,-3.684561037,6.258318454
4.8900,23.54785882,1.821204101,1.805266226
4.8950,17.16032986,3.946627835,4.502477186
4.9000,27.53746203,7.958796825,-6.581059036
4.9050,13.75805067,5.130126311,3.900751955
4.9100,18.86721789,13.62045521,7.017526672
4.9150,-2.047625613,7.569655904,15.6737192
4.9200,14.45611743,4.42290629,11.17888406
4.9250,-10.11953755,-2.052137794,10.86458286
4.9300,6.093884731,-4.065512602,1.074323257
4.9350,-0.8344856192,-13.37647655,5.599982659
4.9400,-2.221476047,-12.15230341,6.324307188
4.9450,0.3191504091,-5.08244524,-2.976289479
4.9500,-4.78063385,-3.042609014,-11.94514727
4.9550,-5.977478751,-8.6432727,-15.53032787
4.9600,-11.63954702,-2.50350788,-21.14715945
4.9650,-16.71184626,-5.310170192,-13.59557557
4.9700,-1.840917343,4.536617772,-18.88348667
4.9750,-3.425730647,3.117824292,-6.663109006
4.9800,-6.746630236,5.092276748,-11.37415153
4.9850,-13.4388496,3.920003707,-4.893468734
4.9900,-7.330371181,-4.398898665,-5.514153335
4.9950,-9.432982777,-2.54646508,8.154237522
5.0000,-5.598593097,1.999912821,11.2587322
5.0050,-27.51255038,4.640220177,19.92075428
5.0100,-18.89959907,-0.4089516238,18.72801901
5.0150,-17.93823424,4.177345069,7.139606944
5.0200,-26.34427925,-8.068120525,-3.668117092
5.0250,-14.40807373,1.096850506,-22.42566488
5.0300,-13.90948002,-4.652904998,-28.28955519
5.0350,-14.06154418,3.629499727,-26.86827978
5.0400,-14.60995811,12.9573794,-25.59753963
5.0450,-6.954851268,13.85220852,-7.7161096
5.0500,-9.124738421,24.45438111,-3.707903742
5.0550,-12.68508296,14.27942066,10.16019422
5.0600,0.6406313123,17.23788081,9.790530355
5.0650,-10.42301294,15.52013313,18.49242543
5.0700,-3.809237119,16.32483495,20.66717558
5.0750,-7.481511838,16.3474323,26.93967262
5.0800,4.054018008,12.16687795,24.07632605
5.0850,2.24339524,12.03438217,11.59483928
5.0900,11.44212635,-1.538791699,2.814616335
5.0950,-17.65453885,-5.901078393,4.618547216
5.1000,-11.61508309,-5.745691546,1.431594287
5.1050,-2.976797907,2.621442627,6.601479531
5.1100,-2.106781314,16.19991659,-5.455157226
5.1150,1.870215506,7.703792053,5.928870224
5.1200,-7.229973133,4.073367296,2.057838243
5.1250,0.665670469,0.4408196319,4.584096376
5.1300,-8.754045195,3.338718585,8.563192072
5.1350,-3.314665488,-0.3132037871,4.037990099
5.1400,4.617255968,-5.630997546,9.045175321
5.1450,-5.062154194,-2.135704775,14.31687702
5.1500,-14.59623156,6.506339079,2.196623125
5.1550,-19.86622895,1.722828784,8.860222034
5.1600,-13.15642464,10.44304303,-4.702828044
5.1650,-22.47001647,10.36315237,-7.943849375
5.1700,-14.54276431,-7.297341113,-0.9861579389
5.1750,-13.77048468,6.348465462,-3.233222883
5.1800,-0.9922837515,-5.332897717,-13.60400322
5.1850,2.059970365,1.05305906,-13.67362141
5.1900,8.107688894,-7.434650271,-4.894617936
5.1950,5.006171389,-5.589202591,8.884286646
5.2000,8.078293593,7.081504522,13.10251816
5.2050,-2.398611147,5.526045231,22.6526861
5.2100,-5.11187994,0.8400275589,30.21436044
5.2150,-15.40576597,-0.07413620242,27.7192345
5.2200,-17.54234656,0.5303650662,25.9499138
5.2250,-7.090405445,10.97484915,15.31284448
5.2300,8.22053108,8.825207074,16.38013387
5.2350,0.8645506239,-0.626686458,15.08061039
5.2400,8.836783953,1.449146479,3.428264647
5.2450,8.144315458,6.386686808,-2.734022649
5.2500,18.94386833,7.219553276,-19.69586734
5.2550,4.79392621,3.225394895,-10.0029353
5.2600,4.132955304,-8.882762796,-6.079268506
5.2650,3.452178605,-2.096006574,-15.14487848
5.2700,-8.996747599,-13.29843804,-4.127826194
5.2750,-2.984126377,-9.173485215,-0.4233198754
5.2800,2.556287178,-4.535653541,-1.303174139
5.2850,4.683075416,-6.572683917,3.764198939
5.2900,0.3479726669,-3.793053534,2.817969423
5.2950,8.738952376,7.672075966,-0.1190013036
5.3000,5.143378822,1.351409153,3.131657557
5.3050,9.48789322,10.26224669,3.41341983
5.3100,3.56709474,1.989455348,9.635049751
5.3150,-1.033710328,1.696022962,14.75810138
5.3200,-1.931380714,5.44615708,13.37876375
5.3250,1.657855644,13.87943615,6.916267045
5.3300,-13.86387492,-4.740588279,11.0717314
5.3350,-8.530982049,-3.534238501,6.058502694
5.3400,-3.323149041,-5.560977429,-2.57119589
5.3450,7.990088325,-2.529938539,-6.104699054
5.3500,15.30041778,14.00145066,-11.00963985
5.3550,19.33420247,20.50370508,-6.10620496
5.3600,20.14124428,10.57455635,-2.045639285
5.3650,14.82760387,7.027867687,-3.078467897
5.3700,0.3627245206,6.494450424,1.298364488
5.3750,-1.858518595,3.273993337,10.23509151
5.3800,-12.1712675,-5.026761139,12.85135199
5.3850,-6.940043464,3.292878787,11.01088405
5.3900,-3.690756085,-2.394448094,6.121118832
5.3950,-1.933799454,-6.589455117,3.643455044
5.4000,-11.37548729,-11.63557651,7.355271013
5.4050,8.552802009,-4.711220103,0.9082114882
5.4100,-11.60607946,-1.915501338,6.342874495
5.4150,-6.691069428,-2.581285429,5.167753787
5.4200,-3.735963713,4.711520026,-4.83760901
5.4250,-10.5374371,4.716103162,-4.87826195
5.4300,2.274860083,15.03056633,-6.848453558
5.4350,7.256124005,23.83187383,-6.306150223
5.4400,13.86323151,17.52817779,-2.418431881
5.4450,6.089125134,25.61212329,1.042430996
5.4500,8.78302749,43.25315963,7.695460733
5.4550,24.64432931,50.97084293,18.48267221
5.4600,22.6357208,59.05347906,22.78408565
5.4650,10.98649558,57.71435228,36.54976181
5.4700,10.97036823,55.66567876,35.59382163
5.4750,1.547279361,59.92231541,35.364847
5.4800,0.9514672101,49.02841896,27.2303755
5.4850,2.760685666,32.53500514,34.38349273
5.4900,-10.90027596,0.7318198494,31.54939908
5.4950,-21.376968,8.276057571,18.24484487
5.5000,12.23684221,-14.96462504,26.72296152
5.5050,-6.217917616,-17.20155268,18.57502503
5.5100,21.73008331,-14.08496363,10.31058826
5.5150,32.18404077,-21.34542192,0.1360620997
5.5200,24.55819048,-44.75050484,-3.38329803
5.5250,26.20412633,-25.46888935,-7.763449657
5.5300,1.309671318,-17.54545622,-2.653947331
5.5350,11.76337222,-4.063721954,-2.594219028
5.5400,-6.710791378,-5.099579277,2.257425879
5.5450,8.385361665,6.024024992,-3.274213196
5.5500,6.802110967,6.029631628,-2.90847249
5.5550,-9.117237415,12.62604498,2.716155732
5.5600,8.005638632,23.54287767,1.697580133
5.5650,-2.129177994,11.79565499,13.72825165
5.5700,-1.755510112,15.5634387,11.67163247
5.5750,-18.30542699,9.018199035,17.03714907
5.5800,-9.686026291,10.29399402,12.92695347
5.5850,1.579253157,9.719992955,17.05811185
5.5900,-0.1562865054,6.763949322,8.909353542
5.5950,-3.369672697,-4.077189154,12.88265616
5.6000,-0.7210196228,-0.8917925231,1.856568656
5.6050,3.289630108,-4.490918299,0.5806212991
5.6100,-6.2721416,-8.892734187,-7.051857563
5.6150,-10.85540422,-4.428740398,-11.36725989
5.6200,-20.99515183,-14.86469487,-7.473933272
5.6250,-22.30608748,-11.60965769,-15.58906379
5.6300,-14.05711532,-8.63657391,-21.66855279
5.6350,-10.22674023,-3.656094038,-22.97126995
5.6400,-11.24698922,-17.70540901,-27.03009387
5.6450,-12.70357947,-24.64006699,-27.73496606
5.6500,8.41357809,-11.7004341,-31.78631136
5.6550,-5.501476923,-3.626357143,-35.29774121
5.6600,-13.65559133,0.6651920176,-27.69323164
5.6650,-9.448833406,-1.368235117,-19.38442662
5.6700,-4.001446408,-1.925860389,-8.244251122
5.6750,-1.465507607,11.63912537,-11.87221918
5.6800,3.294523962,0.02399444684,-2.00275784
5.6850,-9.110808296,-11.78396742,-3.232049841
5.6900,-25.32304743,-15.5422167,-4.133758059
5.6950,-12.39699619,-16.6692757,-2.506542778
5.7000,-13.97968721,-19.12182606,-9.86462522
5.7050,-0.2307555699,-11.09971439,-15.32991708
5.7100,-22.16455845,-13.11834394,-19.47244495
5.7150,-4.437995459,-13.74578152,-25.86741632
5.7200,4.416911741,-9.505076548,-31.63139317
5.7250,8.155501211,-4.31683552,-18.85840821
5.7300,3.150788957,6.220056814,-11.75516824
5.7350,1.727865522,23.47193207,-11.31176752
5.7400,-6.524726915,8.80418027,-0.7246587616
5.7450,-11.01781118,12.78658139,2.556286044
5.7500,-4.346753926,15.14783535,5.523606592
5.7550,-13.0102412,6.682623791,12.62088318
5.7600,-23.54294401,6.707548535,5.092826873
5.7650,-25.75250642,5.257080733,-0.3870932051
5.7700,-23.50189583,8.016478166,-5.751006997
5.7750,-22.07563485,-2.768778276,6.40224234
5.7800,-18.63517282,-3.258199479,-5.179836374
5.7850,-21.89971225,1.067522238,-9.421186245
5.7900,-28.03155327,-3.157650761,-13.94464561
5.7950,-0.01891618613,1.560890737,-6.603133419
5.8000,3.454284371,5.414899298,-0.9931523302
5.8050,-7.270640488,20.05801979,0.2750745554
5.8100,-15.52782961,20.82429617,-7.313190898
5.8150,-16.18790919,15.52848472,4.93245803
5.8200,3.523316233,17.48972398,7.382670617
5.8250,-12.6098254,15.25269598,5.307097065
5.8300,-8.465548455,9.011303677,-3.175912501
5.8350,-28.48420412,10.00107984,-8.562334594
5.8400,-14.68542628,5.115627564,-3.888096918
5.8450,-5.431229975,10.88608111,-0.6895986363
5.8500,-19.29063288,7.983795868,-3.963956133
5.8550,-27.54758065,-7.084330675,5.616220567
5.8600,-32.53975184,-18.38529438,-0.1554410167
5.8650,-29.17013691,-9.450195861,-10.38056126
5.8700,-20.13655985,-8.843586953,-9.947632817
5.8750,-24.41280119,-12.988368,-12.82346581
5.8800,0.1883713693,-7.387715883,-31.44150036
5.8850,1.713953838,-11.76581044,-36.42411318
5.8900,7.884823373,-17.60369235,-43.23529084
5.8950,6.923061511,-7.260284314,-26.83502594
5.9000,29.13346552,-9.838610603,-11.29629292
5.9050,6.862055915,-1.818325322,2.022799235
5.9100,8.284571238,-10.51638832,20.12847842
5.9150,-14.09667284,-4.983547745,13.01019262
5.9200,-27.63536338,-10.23222459,15.47329485
5.9250,-30.16750492,-1.308038488,8.381607878
5.9300,-14.28596969,-0.731836904,16.70518713
5.9350,-24.15656702,13.06701109,11.8225861
5.9400,-20.81497304,8.107218326,15.56221212
5.9450,-5.973747647,17.44803768,-6.634495742
5.9500,-6.386607908,13.25487659,-17.03926866
5.9550,3.288797016,11.33983195,-30.46138246
5.9600,28.89209991,7.236159483,-37.98033474
5.9650,40.52863005,2.636939811,-29.2885981
5.9700,54.55092842,6.464200602,-14.62613947
5.9750,55.94876995,1.964551576,-1.24239257
5.9800,31.41081757,3.140116554,14.55601431
5.9850,8.238958515,-11.72668114,31.59840899
5.9900,8.739933217,-9.879362199,39.54369902
5.9950,-12.87236081,-18.12349557,51.51198244
6.0000,-32.53663188,-10.80913677,49.71948715
6.0050,-45.47677975,-1.664320134,44.82831984
6.0100,-68.93379192,7.478878614,31.02763926
6.0150,-39.68152756,14.45206753,13.29754136
6.0200,-24.17509004,23.37352957,-16.48237698
6.0250,0.3745191061,33.48149144,-35.37056974
6.0300,5.352493113,24.09709994,-43.22259909
6.0350,10.60444142,16.90398926,-33.87661654
6.0400,6.958731848,13.0919748,-31.18970599
6.0450,1.973748604,15.86831277,-19.79141094
6.0500,7.344123644,12.06212556,-16.86434266
6.0550,2.281855824,4.61124918,-4.925223585
6.0600,9.90889253,16.0936305,-0.3079850535
6.0650,-6.741824828,14.07958245,19.86220131
6.0700,-21.19318814,17.68625834,31.68017683
6.0750,-20.34544233,12.71644599,37.7618861
6.0800,-36.42043072,7.98119216,30.41809513
6.0850,-45.12890279,6.234217279,17.85453711
6.0900,-27.47223629,23.14520631,-3.524127367
6.0950,-24.27762094,28.62654709,-8.641660597
6.1000,2.141358829,34.82866624,-23.60366091
6.1050,12.09550379,28.24825967,-24.95363493
6.1100,23.62733024,7.982015202,-27.74236222
6.1150,28.69958352,-1.369113703,-39.01791164
6.1200,43.47104649,-22.86380641,-27.5449782
6.1250,36.87404762,-30.86155706,-5.578195065
6.1300,21.16771466,-32.64176003,6.848805514
6.1350,7.323321044,-38.17984858,25.20157468
6.1400,-13.99529965,-30.96881598,29.35036304
6.1450,-34.30635876,-32.232577,31.43828869
6.1500,-38.35005719,-27.49919417,32.24464397
6.1550,-46.09218433,-16.73554051,32.70786139
6.1600,-41.91836853,2.56110218,19.97459025
6.1650,-37.64527825,14.4891457,6.873876646
6.1700,-47.0329849,23.63282553,1.136873898
6.1750,-15.90068208,47.93679323,-15.6711039
6.1800,4.690384267,42.24924046,-23.53688238
6.1850,27.08782717,39.18862394,-40.91071083
6.1900,38.24244774,1.650037403,-42.17867401
6.1950,45.52842562,-7.665109095,-35.81174097
6.2000,64.54611983,-6.427661595,-25.44182774
6.2050,62.14057129,-1.33815639,-10.4609245
6.2100,46.32317895,3.926995767,-3.171821896
6.2150,24.15460249,-3.764706178,9.275147914
6.2200,5.951132505,-4.836261636,13.91332346
6.2250,-3.572553228,-3.387850044,20.95398152
6.2300,-3.843439115,6.73984979,26.53912998
6.2350,-37.69247337,2.210845637,40.63795805
6.2400,-25.81525335,9.8912506,27.8725594
6.2450,-42.02699094,13.21812136,25.16656217
6.2500,-31.66866136,-2.659220155,22.95071686
6.2550,-31.57882266,-5.245355705,4.223600055
6.2600,-3.217406354,-4.043781613,-4.482181971
6.2650,12.66425948,-9.729857184,-14.29423984
6.2700,38.55100039,-11.74036428,-25.51865017
6.2750,39.59376878,-11.59782672,-18.64061954
6.2800,48.37634005,-6.99657627,-27.73260512
6.2850,38.3361893,-19.85250559,-23.55179899
6.2900,25.95099334,-26.52334326,-18.036094
6.2950,24.07732599,-17.75927387,-13.58780248
6.3000,18.36396484,-7.923802824,-3.080919489
6.3050,17.69811051,-6.639683306,2.783399213
6.3100,11.03846635,-8.02212954,11.58618556
6.3150,5.341987616,-6.7264738,19.25416122
6.3200,14.60762289,0.087152365,17.68800302
6.3250,18.27605315,-4.213454925,18.11623793
6.3300,14.08894052,2.450198033,9.918644909
6.3350,13.97941167,-0.911672404,17.4630592
6.3400,12.31027005,16.13511631,4.95949562
6.3450,21.37142311,26.13920431,7.0745456
6.3500,7.51749999,22.76283088,11.59157023
6.3550,2.137362322,25.08001783,17.68210102
6.3600,6.915521133,15.14050142,17.04752314
6.3650,23.0680297,14.49105092,3.639904748
6.3700,17.13321212,1.587420271,-3.384332029
6.3750,11.40837651,2.784504409,-1.348977807
6.3800,15.0342837,-13.27996289,6.17010453
6.3850,14.37375493,-7.632522023,3.007906405
6.3900,3.447484556,-8.961530435,6.311918165
6.3950,9.059588116,-6.707288528,1.404140714
6.4000,8.906121055,-14.30960273,5.731070504
6.4050,26.28145211,-13.76910686,5.226631504
6.4100,17.15046127,-12.36158785,-1.951886659
6.4150,33.73164464,-7.998091668,5.998657476
6.4200,25.77429303,1.324571559,1.361909619
6.4250,28.43294111,12.19449641,-0.4774908473
6.4300,29.1861239,23.84906352,-0.7724718072
6.4350,35.997026,12.1688043,15.67065661
6.4400,29.27373679,24.96068108,6.260880535
6.4450,11.11776339,16.69515335,12.22934801
6.4500,3.543602686,16.69130902,4.11567129
6.4550,0.9968186659,7.182508848,11.50633652
6.4600,-9.404748426,5.044108569,4.07299049
6.4650,-25.27943612,-4.045462959,5.411168946
6.4700,-15.33718923,-8.883113334,-5.418747832
6.4750,-16.14536775,-11.60072103,-11.81860628
6.4800,-6.624754274,-23.32850827,-13.14719659
6.4850,7.619283654,-19.53217406,-25.25763435
6.4900,25.85085659,-24.24884704,-22.57181832
6.4950,22.54063855,-28.95975601,-18.75483884
6.5000,34.77084289,-29.84564373,-16.35297904
6.5050,17.10163415,-12.48039964,-11.11123853
6.5100,25.20376984,-11.64275501,-5.083356424
6.5150,18.43325554,6.908976912,2.842989826
6.5200,11.19449424,14.10016926,9.562960159
6.5250,13.89568278,31.74921995,11.40011622
6.5300,0.6681514904,25.57288325,21.89160356
6.5350,-13.90387064,32.92886558,18.47641443
6.5400,-23.24216233,32.82215721,19.02504073
6.5450,-44.97103223,36.85948338,16.41673924
6.5500,-34.59237523,38.1227661,9.207558441
6.5550,-37.16238692,29.96297713,3.175452984
6.5600,-25.40168179,18.78305565,0.8392246546
6.5650,0.03686417794,14.30248651,-9.533068302
6.5700,11.67257303,-0.3732954643,-8.417996598
6.5750,19.81624823,-14.6281095,-7.861345982
6.5800,22.70764239,-25.50687561,-7.276611336
6.5850,31.99709964,-26.0220219,-11.68031348
6.5900,27.05524818,-25.83953193,-16.30069157
6.5950,12.36942016,-24.67122985,-10.16257567
6.6000,11.94453321,-13.97204347,-12.20886718
6.6050,16.81254213,-10.90936959,-8.290173139
6.6100,14.71517204,-25.88821279,2.660759225
6.6150,6.096210291,-2.500183002,3.64282684
6.6200,21.69994807,3.528377663,5.702180819
6.6250,13.71904105,2.101692408,13.52439846
6.6300,17.52813495,16.35951297,20.43513122
6.6350,26.45377814,28.84072694,20.32054837
6.6400,46.48594482,27.95825614,19.37079338
6.6450,37.15453849,30.05630918,14.36617669
6.6500,65.42917264,25.51506813,14.09946747
6.6550,60.93199206,19.53073284,13.16357522
6.6600,71.53348948,5.615731896,15.5075363
6.6650,72.58424244,-1.072144639,15.52071895
6.6700,79.06665963,0.498748728,1.024569093
6.6750,68.66938447,-16.53177301,17.14182619
6.6800,72.68322705,-16.51098917,2.240019837
6.6850,61.12396565,-31.67033716,13.10576774
6.6900,47.63042042,-36.4501492,18.54169093
6.6950,32.8441215,-30.71716634,16.85434212
6.7000,26.35192293,-28.87696022,14.89734511
6.7050,8.087779556,-26.94419747,17.0670609
6.7100,0.400403233,-13.99731198,9.398114631
6.7150,-3.300717136,-2.754454115,9.306456175
6.7200,-0.1925914231,0.2117098193,16.87142478
6.7250,-4.878689989,4.902948219,13.94494906
6.7300,7.293785972,11.30648144,15.14795464
6.7350,6.276864118,12.96770822,18.28984689
6.7400,-2.281951266,4.446046344,6.15659586
6.7450,-9.663304847,5.433637715,-1.652353743
6.7500,3.268023572,10.51403334,-9.215312312
6.7550,-3.036286192,5.9030057,-4.169073328
6.7600,-4.988343206,0.6817954914,-4.851225535
6.7650,-14.85889099,-2.818776795,6.168251728
6.7700,-25.17873544,-5.482628406,4.669002403
6.7750,-24.37179602,7.866366353,-1.650968322
6.7800,-35.50336252,0.92600374,1.650227107
6.7850,-26.37658209,8.369834824,-2.310669523
6.7900,-26.29756407,5.20947597,2.14139441
6.7950,-33.57274546,18.31609222,-0.04990518197
6.8000,-11.87510913,20.62035179,-3.178149687
6.8050,-35.08082486,15.64304005,-0.8180084897
6.8100,-13.28122456,9.234121145,2.101658897
6.8150,-14.74718661,13.34041242,-9.152889329
6.8200,-25.83740525,7.800420708,-12.37204292
6.8250,-15.92985108,0.2100615121,-14.41249528
6.8300,-21.6457121,-2.694792403,-20.00902665
6.8350,-4.674282234,3.368590516,-19.3195022
6.8400,-14.91034683,-3.744073387,-21.67398821
6.8450,-13.67508259,-14.22441746,-14.82496752
6.8500,7.070532337,-10.91077797,-11.06518968
6.8550,8.711707341,-7.574673989,-8.408128748
6.8600,16.1874096,-9.150181854,0.825515661
6.8650,8.529934004,4.172297673,-3.776192733
6.8700,7.435791483,-3.131353633,7.723068413
6.8750,-8.321530372,15.79706932,3.627857332
6.8800,-7.83132779,8.952244708,5.650366757
6.8850,-10.84250525,17.98950263,7.915112859
6.8900,-16.72965491,16.79345332,6.491715512
6.8950,-19.13596848,9.914989146,10.84040252
6.9000,-14.15155206,20.83328236,4.520401912
6.9050,-43.11713937,21.39008657,0.02424410287
6.9100,-36.13180726,18.46352068,3.364560499
6.9150,-11.47413088,18.61605591,3.542969089
6.9200,-10.90846057,18.04381548,-2.583464577
6.9250,11.48583747,23.92519079,-7.955391763
6.9300,2.460481444,9.779140228,-0.7986039059
6.9350,7.810010565,26.58823714,-9.436659757
6.9400,4.538240968,17.11160046,-7.458427753
6.9450,9.408552983,13.32498479,-8.167601205
6.9500,17.4376262,7.950599953,-9.156122641
6.9550,21.75514274,12.06821481,-6.788643566
6.9600,17.91451013,3.768407655,-1.626459954
6.9650,16.29414001,8.67925435,-0.7399123201
6.9700,12.78450533,8.456335498,-8.408668797
6.9750,-8.357635722,11.86974406,4.685996498
6.9800,0.3665559361,14.36591806,4.8416254
6.9850,-0.539461903,19.32324475,7.490083145
6.9900,-4.081195498,9.054947972,21.68312713
6.9950,-5.15401396,24.16478405,16.11438108
7.0000,-10.85494471,24.85109846,21.59879257
7.0050,-10.66715434,24.72408955,30.57282393
7.0100,-2.50424468,36.48222133,23.07987834
7.0150,1.229000539,27.67090486,31.75054879
7.0200,-5.367942237,14.11075417,33.61805766
7.0250,3.541570543,16.70913452,21.5837259
7.0300,3.255061507,9.15125171,14.63883935
7.0350,-14.70583747,-0.7631622084,8.268562454
7.0400,-11.50431541,-10.70858893,7.534125843
7.0450,-4.180895233,-11.66295117,-2.990765627
7.0500,-11.37897685,-13.79745713,2.345844119
7.0550,-27.62698555,-6.444731699,-3.271149794
7.0600,-12.89938329,0.68184086,-10.28821629
7.0650,-15.88473167,2.272671047,-5.067910617
7.0700,-10.28028171,10.04420226,-8.213685193
7.0750,-10.29179759,18.54190527,-3.857815166
7.0800,-11.95524606,20.35407282,-5.998498616
7.0850,-5.440722783,13.75911165,2.551020414
7.0900,-0.3195101971,22.98457931,-6.069871537
7.0950,-0.1422224258,16.30393557,-3.934255676
7.1000,0.8442108408,11.60646073,-13.68891709
7.1050,5.185363435,3.621233776,-4.567896692
7.1100,-4.203143067,0.1955090369,-12.65018719
7.1150,0.8740826372,-6.562570067,-1.704577075
7.1200,3.67613106,3.480827021,-9.178501257
7.1250,-8.611361772,10.51567233,-13.21184179
7.1300,-5.500236495,-1.934819015,-4.659731558
7.1350,-11.45964166,-0.6228962269,1.451935806
7.1400,-4.756767254,2.742746463,-5.363717559
7.1450,4.685644342,1.619704713,0.343848888
7.1500,8.68306034,2.937040828,-3.211817769
7.1550,9.577085733,8.62705261,-3.035726853
7.1600,4.637937907,2.716653096,6.4820755
7.1650,18.37568219,-0.1123923549,10.59105368
7.1700,18.19880853,-1.518511962,3.648680552
7.1750,13.42934763,-6.337782896,13.09888737
7.1800,10.07586857,-6.069172424,14.48872131
7.1850,32.79922528,2.243727003,7.973792332
7.1900,26.69193443,4.506267793,3.478622784
7.1950,17.22682915,-5.04472147,17.27109191
7.2000,35.14623693,6.25454205,4.361757991
7.2050,29.88015355,2.659163471,9.375322176
7.2100,45.5875977,10.01722028,10.17406467
7.2150,20.86912128,4.902804434,16.21293586
7.2200,17.36722826,9.700050414,10.97265183
7.2250,17.47480786,10.67825674,2.368260542
7.2300,2.066320621,-4.682547786,13.24361248
7.2350,13.26997407,-0.8847596386,8.239552993
7.2400,4.920596266,-8.739794565,9.053147514
7.2450,5.130791672,0.2242552603,13.33775817
7.2500,14.2280648,15.66200142,7.122313108
7.2550,27.00543082,13.02085876,8.37455375
7.2600,25.30285002,11.47039467,12.85078055
7.2650,22.44568611,4.076745686,19.26335745
7.2700,44.75681364,-4.930944699,11.09667236
7.2750,33.30640812,-4.949802466,12.51100432
7.2800,27.94339362,4.4086192,0.5588671923
7.2850,23.82859983,-0.07800987676,2.176353119
7.2900,23.49653215,6.882470943,-3.480925563
7.2950,21.10276658,16.2397242,-1.60453227
7.3000,19.70952425,2.237075978,-5.078735135
7.3050,44.49522703,-4.02891463,6.231197459
7.3100,44.58167051,-7.603469112,7.226845399
7.3150,28.92828504,-5.509197115,10.12288456
7.3200,39.10774824,-7.791913181,9.471918404
7.3250,43.85560419,-5.657043365,8.104836062
7.3300,37.93665505,-2.017191644,-2.624673915
7.3350,34.72270743,-6.541864545,6.207815808
7.3400,56.77165087,-6.671751264,-1.487052447
7.3450,46.1930697,-6.280808787,-7.463923591
7.3500,36.61624636,-9.206151756,-5.578699883
7.3550,26.35954675,-0.7717955976,-8.75969494
7.3600,-2.081258434,4.909764048,-15.89355198
7.3650,-10.11240864,-2.921206564,-2.228442851
7.3700,-26.87059595,-2.826459313,-13.75925179
7.3750,-9.784454402,-21.82700597,0.8605846123
7.3800,-13.58967536,-16.67141226,-1.896910821
7.3850,-16.09947317,-13.14124393,-8.427061846
7.3900,-1.457495386,-16.50003801,-6.055667907
7.3950,-1.789545655,-6.828783009,-6.698035479
7.4000,8.325166209,-12.45360817,-17.20206084
7.4050,-6.007721885,-18.94509889,-8.508615853
7.4100,-4.26003925,-12.92782097,-0.4717158342
7.4150,-11.99745363,2.236665321,1.195823665
7.4200,-23.32985972,7.783475808,0.9380962668
7.4250,-10.43981089,20.9342372,-2.003561751
7.4300,-14.00592979,15.91220318,0.4930746407
7.4350,-9.829887142,20.79450891,3.949597398
7.4400,-17.6169369,21.11065817,12.98002915
7.4450,-29.49639233,27.49861264,9.372323484
7.4500,-19.99907781,35.58245699,10.95033165
7.4550,-23.99897992,34.93846738,11.00225392
7.4600,-24.34361707,30.91729618,6.673853729
7.4650,-13.1571708,18.80433189,2.532827119
7.4700,1.344652875,17.65262441,1.968283454
7.4750,-5.087521677,2.294255565,1.872974445
7.4800,1.137204819,5.139698256,-5.237373488
7.4850,-4.011418267,-1.326511065,-10.86678093
7.4900,-10.72850599,-6.754606703,-6.574442801
7.4950,-4.599332236,-11.44395695,-1.457922974
7.5000,-5.40390067,-6.798586082,-6.818454909
7.5050,-11.28385808,0.1466596749,-0.8011846761
7.5100,-8.183850617,7.496858618,-6.618784979
7.5150,-31.22137724,11.05407427,-7.779821845
7.5200,-14.81953337,11.89416248,-7.324401267
7.5250,-20.15753647,21.69243357,-5.940550832
7.5300,-27.07210739,12.03382433,3.090803729
7.5350,-23.14367787,22.28919273,-4.409660968
7.5400,-23.23984559,5.661160225,1.427855874
7.5450,-31.03454159,6.733195635,-1.499449788
7.5500,-29.08396377,0.7707060518,-0.797990241
7.5550,-35.40767275,3.259695881,3.485449113
7.5600,-47.19990572,-7.814298557,6.227377077
7.5650,-30.36857737,1.153179638,8.031212002
7.5700,-26.05573362,1.13508914,7.545149208
7.5750,-27.18384645,0.5588088946,11.5274092
7.5800,-24.81503964,13.48194323,2.404164552
7.5850,-7.869794018,26.61712767,6.160676039
7.5900,-19.35369777,35.13571639,2.75471015
7.5950,-14.14984402,32.65587244,12.16138117
7.6000,-20.4543989,33.68587473,8.444860045
7.6050,-20.02942963,38.43270148,4.973209985
7.6100,-19.3689252,26.63251811,7.019263388
7.6150,-23.14460899,30.9303016,3.635426753
7.6200,-24.41722806,17.75693472,9.156725048
7.6250,-11.19155762,20.19426794,-4.327339558
7.6300,15.89639469,15.12156127,-12.40955206
7.6350,34.12001026,9.966387814,-17.18863529
7.6400,39.29058874,4.318630045,-17.98120772
7.6450,41.19826106,5.414604869,-31.55977178
7.6500,29.11864376,-26.61056558,-10.15688238
7.6550,28.57571901,-21.16317951,-5.376786257
7.6600,16.62192581,-6.019504754,-3.579444295
7.6650,5.81933854,0.3419425261,-1.122333115
7.6700,4.342638361,7.652346399,1.865231701
7.6750,5.29416208,-0.5924155338,14.73983566
7.6800,5.510620112,24.1436115,15.85323568
7.6850,10.92379012,27.87419235,16.44226599
7.6900,7.478887913,28.29687662,15.34501687
7.6950,17.14976123,18.20135514,24.80950644
7.7000,-8.549047886,15.0210059,26.07655754
7.7050,-6.821892403,9.169043578,32.11074323
7.7100,-9.143462834,8.810087314,32.20644345
7.7150,-20.80376902,11.59742869,34.31403488
7.7200,-11.063363,3.517344315,37.16486089
7.7250,-2.324591657,-4.255215472,29.11333501
7.7300,-10.33343601,2.435432066,21.11112349
7.7350,-2.724314298,0.2788527797,24.56876757
7.7400,11.8981184,4.119916554,18.63661521
7.7450,13.90059775,8.03701581,11.9989808
7.7500,1.765603293,10.16203725,-4.521244386
7.7550,-2.13694005,4.056191204,-5.640579158
7.7600,10.11125303,9.466659979,-12.40940009
7.7650,14.32426165,6.49455905,-7.022663678
7.7700,12.78993616,12.15354991,-6.593344893
7.7750,10.45353527,6.41509749,-1.542559735
7.7800,18.40615155,5.880911765,-4.248708165
7.7850,6.644888042,8.236978491,6.388550228
7.7900,12.56378935,8.938903002,4.235333786
7.7950,15.19185184,11.04062099,6.497579016
7.8000,-11.44074925,8.684400504,-5.384676187
7.8050,11.52961329,12.94870186,-6.357831196
7.8100,22.83697264,16.21483088,-19.41468387
7.8150,24.15134966,9.497600857,-27.54842691
7.8200,19.35249082,-3.311260297,-23.12173493
7.8250,16.21507806,-6.119029121,-28.50470505
7.8300,35.26363415,-15.08341422,-21.60583894
7.8350,31.61533778,-10.84279906,-27.15777475
7.8400,25.4956827,-19.41681887,-32.41747531
7.8450,17.89789634,-26.97639426,-33.73074645
7.8500,30.71080666,-30.11385608,-24.52275316
7.8550,29.02224028,-26.1432237,-16.93067347
7.8600,6.13555752,-16.01556075,-24.83385062
7.8650,-12.07507796,-16.54932729,-13.07286062
7.8700,12.23764614,-8.349413807,-16.02684051
7.8750,3.583095601,1.886983343,-16.92161379
7.8800,6.601150051,0.9773962363,-11.63501408
7.8850,-0.762678492,0.1482466008,-7.656984507
7.8900,12.41845294,-0.05609229647,-17.06387159
7.8950,7.235840294,-3.871299888,-0.1325054537
7.9000,-10.5815949,2.757252423,2.252244966
7.9050,-10.81835681,18.27141824,-2.089553795
7.9100,-11.32787994,13.805541,-3.586479686
7.9150,-4.05043785,10.422535,3.577219439
7.9200,-9.920322872,9.96240063,1.133389071
7.9250,-9.626975682,-1.983878355,16.83708867
7.9300,1.899141102,2.065407594,16.08230621
7.9350,-6.575045459,13.98430644,11.80976058
7.9400,-3.38052511,2.011808761,17.12853184
7.9450,-2.64723458,6.262055865,20.26517729
7.9500,-12.27765045,-7.059913742,23.810596
7.9550,-17.46856954,4.583326138,14.68967446
7.9600,-15.78022859,6.575811694,5.829412296
7.9650,-6.617287669,-2.930632411,12.22638266
7.9700,-4.607705635,2.677685662,18.66035275
7.9750,0.203813792,0.8047155507,26.52677357
7.9800,-8.263623003,6.923055827,10.02184028
7.9850,6.562738853,-6.434387556,13.66607764
7.9900,5.493420999,-15.44005053,4.580085184
7.9950,-20.62129193,-12.13634167,4.212167824
8.0000,-7.704807721,-11.66383678,12.14877908
8.0050,-0.9040085419,-5.53067833,11.85121298
8.0100,-15.46251923,-7.834651836,2.652671127
8.0150,-0.3254753133,-11.42974618,0.6132171611
8.0200,8.282641689,-3.686243047,-5.150197036
8.0250,3.650694154,3.707748505,-6.333447084
8.0300,1.852418945,13.74224427,-4.103195673
8.0350,3.056971991,16.9837214,7.620974579
8.0400,-9.893324161,26.82780593,1.271833732
8.0450,0.3016944366,28.17804027,-1.670882367
8.0500,4.131557175,15.4865115,3.824131289
8.0550,-12.42227019,7.785655792,9.107661964
8.0600,-4.195629927,2.026168684,6.709472201
8.0650,-0.5728743883,3.412500586,7.581791474
8.0700,-8.152120703,-9.994718991,6.983011577
8.0750,8.761843248,-6.377600312,10.92102008
8.0800,-1.785828108,-3.907713496,-0.4592310087
8.0850,-11.05628975,-13.93089121,12.80481605
8.0900,-5.409235971,-0.05480343866,0.7657770115
8.0950,-12.98595653,-7.136704099,3.154198847
8.1000,-8.386201638,6.923275121,-6.488274269
8.1050,-15.54377993,4.506511122,-3.352128628
8.1100,-7.455260118,13.93977908,-8.698524093
8.1150,-17.16428364,-1.633249366,-13.45010461
8.1200,-3.636662934,-8.756181899,-9.347622563
8.1250,-2.502613266,0.5363716145,-12.74668671
8.1300,0.5749258168,9.695862661,2.169319387
8.1350,11.55404963,17.52554153,17.80710632
8.1400,5.425335046,17.91962879,15.87271358
8.1450,3.389430403,8.808386376,14.53416063
8.1500,1.986376317,14.19670213,7.531900765
8.1550,-7.398770763,8.070776622,12.12366787
8.1600,10.94271788,13.05914463,7.601866395
8.1650,2.725524762,-3.116140485,11.50040375
8.1700,0.2024787446,0.1508167854,3.664185862
8.1750,-3.949937458,-4.671702912,2.214009852
8.1800,4.608638731,8.586089906,-11.56440018
8.1850,4.312038238,-1.628319141,-4.914811057
8.1900,7.315294475,-8.249674926,0.01145542903
8.1950,11.82447877,1.163265697,-6.281208567
8.2000,15.22046167,-3.869432847,-8.935011853
8.2050,-6.352923734,8.229017164,-12.372779
8.2100,-0.9553506828,2.643690881,-1.351094133
8.2150,1.868932127,18.42285907,-5.933507824
8.2200,5.414357002,19.23258343,-0.4052026734
8.2250,14.17467296,16.4273127,7.791139141
8.2300,14.10710109,4.018642099,8.903865218
8.2350,12.60837826,-14.55940426,14.44400301
8.2400,11.58209296,1.388699231,2.367824459
8.2450,16.34422881,1.01863847,4.821384872
8.2500,7.035527824,-7.721581053,2.921166481
8.2550,11.09900495,-8.747151489,-6.830128663
8.2600,21.08315138,-4.299914159,-12.63046579
8.2650,15.84190476,-13.16036415,-6.53111586
8.2700,22.17429672,-16.60513438,-5.950612283
8.2750,7.031294809,-7.189502118,-7.065360375
8.2800,0.8820205693,-24.95782508,1.904716201
8.2850,-6.937499845,-10.09292774,-1.845647903
8.2900,11.84816249,-6.266594133,8.119343829
8.2950,10.20407083,1.556550504,8.442421817
8.3000,14.53513851,8.413784685,8.86574599
8.3050,13.45755177,-0.6625614982,-0.7747377285
8.3100,2.449594235,-12.82037729,4.180686343
8.3150,12.35281465,-15.123721,2.746699928
8.3200,1.236435263,-14.98009517,-0.01163818336
8.3250,-3.34564338,-17.39822231,11.37008772
8.3300,-15.3364403,4.074957466,-6.420622152
8.3350,-8.974906981,6.644746692,-7.134741014
8.3400,5.749563815,18.51738783,-19.13519157
8.3450,20.40122328,22.77983132,-17.11715951
8.3500,14.82134611,-0.2403297519,-0.3940183917
8.3550,12.52593386,-5.358889757,3.208671129
8.3600,1.519682035,-7.282995225,9.56465403
8.3650,-14.12979958,-5.107566856,14.88975135
8.3700,12.6194597,-4.303990007,-1.587774365
8.3750,7.472784149,-17.31771597,4.384074097
8.3800,-0.3707518732,-10.47135337,-4.603548915
8.3850,5.857278082,14.45878985,-3.175979997
8.3900,-6.795095346,9.349800409,3.87640576
8.3950,-7.356001293,2.312652116,6.691669938
8.4000,-16.13000548,-9.769373469,4.188163285
8.4050,3.741156439,-0.178890569,-4.681080162
8.4100,8.178701757,-0.4091685134,-8.875208686
8.4150,6.161885032,-10.61471273,-3.553246186
8.4200,15.30568748,-12.28764784,-14.74400022
8.4250,15.86350798,-14.82937507,-14.88279092
8.4300,13.07728847,-11.97098212,-13.56906974
8.4350,10.39323776,-1.419186385,-14.74613657
8.4400,8.172687774,-12.75349334,-1.620217577
8.4450,-4.385542583,3.157341669,6.221197298
8.4500,-0.5523744287,-8.729771037,10.93690061
8.4550,-8.748755294,-5.59845671,25.79808497
8.4600,-30.05967097,3.016986812,19.98212263
8.4650,-26.60612861,12.74735826,18.33444048
8.4700,-11.84258344,6.074818305,12.65363802
8.4750,2.127559065,5.22134959,10.24218499
8.4800,-1.862096306,14.20978231,-12.06179436
8.4850,1.864803884,-0.6935332934,-12.07424156
8.4900,-7.461993601,3.012376988,-15.49150741
8.4950,-6.207703625,2.202634076,-11.79413962
8.5000,-7.138679886,7.009962651,-11.6234446
8.5050,-2.504510292,5.0436184,-9.326438306
8.5100,-4.96618698,6.375672982,-15.48161891
8.5150,-5.298918974,2.089671028,-9.13393629
8.5200,15.03815307,6.828991607,-3.998659978
8.5250,-1.78953936,0.3468398412,5.948383238
8.5300,-7.147572322,2.236537335,5.708937802
8.5350,-2.650566452,4.921677165,7.854009519
8.5400,-7.51600134,4.992486276,10.93459445
8.5450,-9.12049358,-7.327501184,12.21290825
8.5500,-0.4629184332,-6.105017989,0.4018660656
8.5550,-3.811042435,-7.856571286,8.457324757
8.5600,-15.24060436,1.636325767,-8.012622591
8.5650,-11.9280444,10.84066461,-8.380682866
8.5700,-16.95854992,9.570685481,-3.730273659
8.5750,-8.985194411,8.855360927,-0.8231843044
8.5800,12.61855938,11.08234331,-3.126022224
8.5850,-9.497951702,7.991365463,-9.755419907
8.5900,-8.525611926,3.644243511,-7.949426433
8.5950,-12.65930979,13.01590677,-6.884039937
8.6000,-9.986078879,3.466900855,0.1807435192
8.6050,-6.693084204,-8.631258474,7.560004763
8.6100,-2.879449065,-23.19880824,9.496174181
8.6150,-15.03880197,-24.8035236,9.631739587
8.6200,6.627035484,-7.769689126,0.9013636725
8.6250,-6.472191265,5.032401618,0.5432182555
8.6300,-17.60489082,12.94820428,-2.039503636
8.6350,-9.906858414,1.418096231,2.102181486
8.6400,-13.63247243,1.317032587,-2.361195936
8.6450,-21.46024648,30.8686048,-11.4913157
8.6500,-19.5682724,26.01319068,-19.21752826
8.6550,-7.211334668,29.21492772,-17.34238608
8.6600,5.146244715,30.59912603,-21.24711411
8.6650,5.037691755,25.68171153,-10.9314928
8.6700,1.803856395,14.82622966,-3.717014414
8.6750,-2.725476493,7.707256317,9.09929491
8.6800,-9.251533044,14.97121268,13.45263116
8.6850,10.83924676,16.65315076,35.02127505
8.6900,13.25532965,9.598218709,51.4647396
8.6950,-3.971907883,-16.16927186,67.0829274
8.7000,8.875163714,-23.43873084,56.57737431
8.7050,13.03811485,-29.99898288,52.17997345
8.7100,-2.236079785,-9.114727847,23.17370709
8.7150,-20.78935572,7.683770026,16.51544124
8.7200,6.042715732,12.03727585,5.397548041
8.7250,-2.904026515,22.49253811,-7.468495613
8.7300,16.02123925,26.48785722,-14.65852084
8.7350,24.0872946,10.32172652,-10.04789308
8.7400,26.4445509,20.78809643,-14.89281216
8.7450,20.75156424,8.814672378,-5.353843839
8.7500,22.82140301,-4.496122209,-2.40283813
8.7550,20.73975076,-0.9503556635,8.080390441
8.7600,30.09646441,-5.927188063,16.84901017
8.7650,16.13848359,-12.32498784,21.75210729
8.7700,0.8108761018,3.394834067,15.94619405
8.7750,7.742838813,2.85378804,5.305211104
8.7800,6.939584447,-14.17628135,-6.848409285
8.7850,3.23263722,-9.507877929,-8.57236559
8.7900,1.830676573,1.615960554,-8.702475663
8.7950,6.72880902,-8.647043547,-6.475975584
8.8000,-2.384912902,-7.371726477,-20.26124261
8.8050,12.01979951,-19.08748341,-28.57652141
8.8100,7.702472803,-13.33450283,-29.14873481
8.8150,5.761411653,-0.9448465473,-24.11375582
8.8200,18.09297713,-4.353560612,-10.43886897
8.8250,2.372820682,-6.512331919,-11.84378318
8.8300,2.759559533,-3.911673376,-17.1249092
8.8350,7.257759859,-0.3684903541,-3.989130192
8.8400,-7.371758507,0.4006140704,6.128177795
8.8450,3.389377334,-6.332603315,10.68140019
8.8500,1.484340492,-17.2408114,14.73420272
8.8550,2.426267231,-13.66633944,13.90104773
8.8600,10.23852184,-6.3035564,3.366010286
8.8650,14.79740874,3.009672608,-4.522463795
8.8700,27.97303621,10.57183615,-26.34475414
8.8750,25.25418692,-5.064932426,-21.62882537
8.8800,17.19531844,3.803331345,-25.01419267
8.8850,27.17994027,10.46643749,-23.49426545
8.8900,26.43872065,9.348417779,-11.87405155
8.8950,22.19809604,6.573101105,-11.90633437
8.9000,18.66610265,-11.84691929,-11.01324508
8.9050,21.45023564,-6.139647375,-10.0909534
8.9100,12.49612213,-0.01289834178,-7.540636935
8.9150,15.29780588,-6.700792477,-5.647380163
8.9200,20.56350703,-17.58017498,-10.67132136
8.9250,17.91962586,-12.68696654,-19.14577775
8.9300,15.92166763,-21.74999283,-6.211189284
8.9350,11.24076169,-15.86131126,-3.651512033
8.9400,-4.213736015,-18.42212731,-5.666085407
8.9450,-4.748877863,-5.747914697,-5.539041549
8.9500,-10.06401514,-10.28523803,-9.916300208
8.9550,2.384117164,-9.571104822,-5.767654315
8.9600,-11.08408446,-14.44393277,1.508368497
8.9650,0.513989866,-9.12987081,4.4663677
8.9700,-16.72678046,6.037976024,12.06258385
8.9750,-0.2598262483,19.96338382,14.91699575
8.9800,-7.120883346,25.69918981,10.86934473
8.9850,-4.031968871,12.58873546,17.26752657
8.9900,-4.725840772,16.76654464,8.861053761
8.9950,-8.37236751,2.0678107,13.87390118
9.0000,-15.15813178,15.58264873,-2.252036266
9.0050,5.901639042,2.770814851,-6.868980607
9.0100,2.506123951,-12.28567521,-9.641687096
9.0150,8.9876706,-12.65200819,4.795947289
9.0200,12.66461139,-2.130025973,8.473998154
9.0250,3.187805532,6.236447677,11.33670699
9.0300,4.507265411,12.72631175,12.19990434
9.0350,5.350168932,12.40180588,25.92989876
9.0400,-18.56347067,6.672982678,33.45056647
9.0450,-29.49590311,-0.9491994622,28.46986288
9.0500,12.69674017,-11.14416387,0.275686805
9.0550,-1.792259656,-11.2684763,3.58225308
9.0600,-8.65905132,-3.688767684,0.7308962355
9.0650,1.82967725,-0.8406992737,23.19181498
9.0700,11.34567209,0.9761326716,20.45934474
9.0750,11.78239032,1.538725825,16.01153676
9.0800,-7.411515509,7.335450678,21.58028951
9.0850,-13.16094018,17.0779979,29.20783172
9.0900,7.628175246,14.06149269,21.13708267
9.0950,-4.619840662,2.238828464,27.22381448
9.1000,0.734606383,2.055248363,8.414630616
9.1050,17.91164463,-7.582939283,-8.551062691
9.1100,16.10806842,-5.377511145,-24.83652273
9.1150,15.04023999,-8.390987684,-32.06965807
9.1200,21.04185578,-18.5579336,-41.63096904
9.1250,22.39097166,-2.472877827,-45.58456558
9.1300,10.85727237,3.611651984,-44.98679873
9.1350,17.46624468,7.89013025,-44.51402106
9.1400,17.88583627,-17.30293376,-24.79495102
9.1450,13.1916821,-12.28110079,-18.41483313
9.1500,0.7068815209,5.071015879,-21.84382396
9.1550,-7.025969264,5.403686659,-11.44865467
9.1600,17.6250807,1.257175613,-17.39377028
9.1650,-2.890433782,-14.54435679,-3.667439415
9.1700,-3.143848002,-17.01410559,-6.863019212
9.1750,8.183382433,-2.968790665,-16.22316284
9.1800,-2.927489572,-10.90602741,-21.68831246
9.1850,-0.5463648761,-24.48100444,-13.98773484
9.1900,2.205843049,-21.03846711,-10.81062143
9.1950,-1.166568879,-6.421871149,-15.15556301
9.2000,-1.32620248,-8.410092079,-12.35174479
9.2050,9.467542869,-4.70966471,1.402945177
9.2100,35.85351926,6.773849103,-4.659316918
9.2150,15.96336065,-9.529968607,21.549871
9.2200,12.37219635,-5.199195168,37.44042855
9.2250,1.271113771,8.930237064,32.54361149
9.2300,19.23314496,22.61293417,9.616713419
9.2350,24.02151236,24.84460085,11.14226262
9.2400,26.40989609,16.62426101,25.92938119
9.2450,23.48880509,31.95263085,12.04162404
9.2500,38.62037663,42.00211072,2.819682587
9.2550,45.18093778,35.56531944,27.48956889
9.2600,35.59672082,25.7157836,49.58227868
9.2650,16.20197216,24.99407084,41.86493626
9.2700,25.18643907,30.63504605,15.97576662
9.2750,29.01150474,31.73940805,6.336460903
9.2800,30.34171885,21.19932027,18.73767976
9.2850,31.09495937,17.48661565,26.51387053
9.2900,22.08218255,17.91938762,28.08390621
9.2950,44.57757983,17.09991659,18.83925998
9.3000,26.39786043,0.5198068325,17.89720079
9.3050,7.055729562,-3.23006321,10.98564224
9.3100,4.032365127,4.951890849,-13.66728815
9.3150,20.43936747,-7.938438142,-26.60775388
9.3200,13.31758597,-8.500969337,-40.56598476
9.3250,24.61690917,-32.35709063,-42.24682361
9.3300,9.88183546,-41.43336321,-22.84942477
9.3350,-10.33478503,-26.98580674,-13.81261859
9.3400,-19.12483281,-18.41285747,-10.08049539
9.3450,-4.183292019,-4.426366035,-10.73032733
9.3500,22.20246622,-1.387377594,-9.233384174
9.3550,-3.358461282,4.272875858,-1.858875644
9.3600,-0.6690840957,-6.319764343,5.468864322
9.3650,0.1562076072,4.173759263,-1.475369697
9.3700,1.354349676,3.747885379,-13.42493825
9.3750,11.79869162,-7.79256829,-4.861678724
9.3800,-4.435992679,-9.9460256,6.093479735
9.3850,2.659878644,-4.519100433,4.848132578
9.3900,12.57332385,-4.414434176,3.433554843
9.3950,22.49720869,-10.62263833,-6.412937725
9.4000,19.11581392,-9.643580567,-13.18343954
9.4050,33.74453573,-18.82223958,-11.35441215
9.4100,16.91132477,-24.9420428,-19.22367142
9.4150,21.0689895,-9.439462491,-14.33509547
9.4200,23.63170703,-6.727238424,-17.81029925
9.4250,18.92630119,-12.22872197,0.8676289752
9.4300,22.35149372,-3.240404239,7.760279239
9.4350,11.28743913,-9.669729871,28.2545149
9.4400,7.741954475,-19.63266688,29.71059668
9.4450,6.378722084,-1.358806887,21.983574
9.4500,5.314624645,9.68657645,12.2212792
9.4550,10.63981581,11.67067418,0.7720467176
9.4600,17.39189637,-0.2762259018,0.7017766694
9.4650,16.95384706,8.56627436,-13.13688844
9.4700,13.46415955,4.00284859,-4.461892272
9.4750,3.756467452,0.7483995828,-5.321539982
9.4800,9.334967882,3.315381948,-8.835438426
9.4850,20.44633263,-7.846064879,-12.68983611
9.4900,29.5091887,4.114691887,-19.81633046
9.4950,15.53194819,-4.005426731,-6.778580622
9.5000,19.10069853,-1.985684752,-3.585780081
9.5050,9.318189443,-2.459295958,4.827345079
9.5100,26.15374586,-6.21522701,1.11350969
9.5150,13.01644974,-5.294852292,4.811012468
9.5200,23.3590155,-15.84841021,-4.874078021
9.5250,18.51534466,-5.853725516,-2.744579292
9.5300,16.66352249,-19.74566426,-4.693312173
9.5350,8.309579471,-13.31830403,-5.094941197
9.5400,3.160511325,-21.24519113,8.292383549
9.5450,13.03299929,1.668287215,-8.446256228
9.5500,7.169902601,4.516122725,-10.88971476
9.5550,23.68761644,0.1666221208,-15.49186441
9.5600,12.38043288,-3.436409264,-23.94170885
9.5650,17.49954797,-0.9637645848,-27.71473005
9.5700,21.56886558,-3.374494986,-20.45110179
9.5750,32.84374051,5.782306931,-23.68602771
9.5800,22.86606103,1.838203519,-9.013287449
9.5850,0.3816318607,-6.556851086,7.74437328
9.5900,8.950651298,-2.89606268,11.48174541
9.5950,-4.533157018,2.289304648,16.9942959
9.6000,2.297475971,2.814325794,4.610595621
9.6050,13.91877367,5.012042829,-4.773558418
9.6100,18.32038578,2.613708169,-6.165846894
9.6150,10.56115684,4.986420082,-0.3889498393
9.6200,17.71395855,12.01078919,-12.94252354
9.6250,14.59885071,22.844553,-12.50731237
9.6300,0.5447385826,12.25599188,2.154143903
9.6350,14.64686674,16.42813014,0.5217883318
9.6400,2.374817194,7.135294405,10.42378776
9.6450,22.89249387,17.67030308,-7.189694867
9.6500,6.57563804,27.30318916,-9.303823049
9.6550,4.938215333,22.43394447,-12.16361057
9.6600,5.386425371,13.28750053,-14.8439906
9.6650,-5.077458389,4.818007913,3.159004321
9.6700,-1.544715979,8.372219472,4.328063455
9.6750,-8.257703226,-1.033133489,22.9694391
9.6800,0.9801610074,0.9787492114,20.92789936
9.6850,-3.421345833,19.14118539,6.577931528
9.6900,6.555722281,15.81618494,-2.622284244
9.6950,-0.2066929024,12.62258753,0.4667794321
9.7000,16.3924627,-4.386900908,-4.359423306
9.7050,10.95412035,-0.222817524,8.898069734
9.7100,-1.317064516,9.00777417,14.48810016
9.7150,0.709080337,13.99513612,-0.2429329007
9.7200,-1.6959428,22.62540353,-17.88361101
9.7250,19.63608089,12.63644471,-17.12755916
9.7300,21.65010927,30.30066476,-12.65666394
9.7350,0.6157382664,23.14064875,10.91972271
9.7400,-0.9672850528,24.70765731,5.562165241
9.7450,7.251827319,9.320788786,4.775569582
9.7500,14.0049192,6.663838881,2.289069381
9.7550,10.76166308,-3.604435796,21.99257355
9.7600,12.92114721,1.098753351,20.89704001
9.7650,2.57775668,2.751938819,17.88763107
9.7700,9.699815626,-5.082813518,12.46574404
9.7750,-5.859096472,1.467985729,10.31242928
9.7800,2.831467202,-7.492232253,7.697512225
9.7850,18.58100371,-13.09801351,8.769485541
9.7900,12.33836905,0.3280560866,2.715480228
9.7950,-0.4222749532,-9.688702923,11.85819379
9.8000,0.5701886628,2.507938779,10.00905807
9.8050,8.123352858,-2.502781111,16.97836862
9.8100,11.91505231,10.79239308,14.62564527
9.8150,-0.109146927,14.4661656,21.53177922
9.8200,23.32072125,11.81238463,3.835791227
9.8250,13.87171249,19.90477121,16.94767794
9.8300,40.19261478,10.7432869,22.24338297
9.8350,30.17458171,-0.7098340612,33.06154031
9.8400,36.42075438,4.148763159,23.22888557
9.8450,24.60175613,3.402920601,20.80037055
9.8500,36.67540211,-7.45368184,13.00783015
9.8550,48.86763317,-11.3203771,0.1042200753
9.8600,28.5749819,-21.06829188,9.730029035
9.8650,23.62171352,-8.828536754,12.36974596
9.8700,20.33891202,-5.523450027,8.019001788
9.8750,26.04673578,-7.700496765,4.716092109
9.8800,20.74634988,-18.2213106,2.743313695
9.8850,28.1298352,-13.11766223,4.998039842
9.8900,9.945013823,-15.7446634,5.285412618
9.8950,20.69490703,-13.81181175,8.078433383
9.9000,19.16968274,-4.789007146,9.626367433
9.9050,16.71938432,-8.799314373,4.016057064
9.9100,13.37980693,-7.770666878,-4.228726618
9.9150,31.20895981,8.339049131,-8.649673949
9.9200,33.70300199,-10.07361303,-3.875721644
9.9250,17.10861294,-7.187348078,-0.9008366077
9.9300,37.61783242,0.7740849644,-10.20005446
9.9350,16.74336968,-3.496911106,5.573936177
9.9400,32.45878356,-2.252802073,7.753439602
9.9450,28.11576807,-2.491631911,12.02698697
9.9500,23.68861702,-6.500876467,10.81095813
9.9550,22.17405463,-14.52139428,14.80060295
9.9600,17.7539928,-13.71175531,7.038778396
9.9650,17.00368896,-16.53880281,-7.025597462
9.9700,18.58329236,-25.16089065,-8.412309121
9.9750,16.93617187,-24.14958385,-6.660613052
9.9800,9.984832321,-20.73851693,-8.89755717
9.9850,13.21076021,-29.70961872,-5.849681119
9.9900,8.570200438,-18.02923266,-11.00943307
9.9950,8.964869683,-12.50110227,-5.816515471
10.0000,8.646579089,-6.0090868,-8.154744313
10.0050,-0.2686928214,-12.42832849,-6.348156415
10.0100,1.01107436,-9.501408819,-11.32739865
10.0150,2.036530672,-1.606878052,-9.586415228
10.0200,-1.4960576,13.64075362,-4.654729171
10.0250,11.0337053,1.649847672,-1.013439939
10.0300,13.68972492,2.546742623,-2.157661788
10.0350,15.84478979,-1.275152856,0.5167781074
10.0400,2.5331229,-15.8582386,-0.3577768504
10.0450,5.010506069,-13.52945309,1.148035795
10.0500,11.09045392,-3.632058775,-5.437641057
10.0550,0.9828428202,-14.39425026,2.420227976
10.0600,12.5832346,-2.236096847,-7.509423704
10.0650,10.23527717,-12.92030487,-1.630511643
10.0700,8.957935237,1.342832367,-8.645130214
10.0750,-2.355447143,-4.162061182,12.97697354
10.0800,-0.7133125711,-7.713214018,17.31922935
10.0850,-11.56323717,-6.994118753,17.89004889
10.0900,3.057108498,-6.43067924,8.779650242
10.0950,-2.366767153,9.52189627,-2.891043927
10.1000,-13.56293907,-7.979467225,2.980010179
10.1050,3.192742108,-3.227590555,-13.06840965
10.1100,3.893644359,-3.194052992,-5.988933594
10.1150,-7.170312098,8.312969964,-6.794227139
10.1200,-3.11185457,3.105558548,-0.4579958752
10.1250,7.535262058,8.793365986,-5.082585906
10.1300,-1.454899859,8.802393893,-0.3286975656
10.1350,2.174422407,15.38715532,5.091236486
10.1400,6.528168821,1.260196028,14.21547022
10.1450,-5.359268305,2.485889032,9.991632006
10.1500,-1.994274414,0.2170117752,0.8246027445
10.1550,-7.956673799,-8.834669572,-5.33225098
10.1600,-5.693126544,-12.56216093,-21.77690489
10.1650,-15.96795501,-9.302700652,-16.96704386
10.1700,-12.47926164,-3.898138912,-20.12572318
10.1750,-12.02486948,3.692583638,-12.63997501
10.1800,-20.30780319,7.281330309,-1.413883821
10.1850,-12.56484545,7.304438701,7.485984306
10.1900,2.726531301,11.40118386,3.5571507
10.1950,-4.435821768,23.65637631,-0.5765148536
10.2000,0.04711544253,12.07901497,-2.932075009
10.2050,6.281052813,15.0919792,-13.90006406
10.2100,15.85561919,13.70840542,-21.29454435
10.2150,-0.8329713681,13.28478335,-7.424635384
10.2200,3.968909539,12.67658772,-10.43700782
10.2250,11.32783218,7.771562664,-5.618085943
10.2300,15.26304972,-1.963307836,-5.68327302
10.2350,21.87850556,-12.24331093,3.468767261
10.2400,19.68354747,-19.95574772,3.092590567
10.2450,15.18747978,-23.15581898,4.046073908
10.2500,14.06717375,-22.53034817,9.498771694
10.2550,25.43058034,-8.079568769,4.685829524
10.2600,19.72769034,-4.345258907,4.439448744
10.2650,12.16840005,-4.964514752,9.557419943
10.2700,19.77729845,0.3238516014,3.516926196
10.2750,19.96428597,1.109175151,7.846341385
10.2800,17.33045727,9.265211437,-8.695114137
10.2850,31.32748114,10.35797131,-20.91199768
10.2900,21.10313093,15.07295489,-25.09745827
10.2950,26.43080241,7.029790381,-31.77489214
10.3000,22.97744305,13.16206126,-29.65738801
10.3050,36.39578283,14.83221853,-29.20302074
10.3100,36.93120909,14.65089237,-22.26339775
10.3150,39.05030422,-0.8068245104,-10.57936834
10.3200,34.00559537,3.602557868,-1.14394851
10.3250,24.16447376,-3.236630404,18.76076019
10.3300,40.89452786,-4.119292418,23.89521168
10.3350,23.56309979,2.737417285,27.01575669
10.3400,27.53066344,-1.028459442,19.61713332
10.3450,29.3804194,-6.270349062,7.589097241
10.3500,15.54809346,-12.73493365,2.887232925
10.3550,27.79116331,-9.393103955,-15.28446464
10.3600,28.29017295,1.478466723,-27.73908958
10.3650,27.2039036,-5.661789319,-27.35912616
10.3700,30.70165679,-11.95326881,-32.21779233
10.3750,36.92390735,-19.5680131,-21.58847385
10.3800,28.85680055,-18.4041071,-6.829373951
10.3850,34.76417376,-19.62837352,11.07897834
10.3900,27.32620939,-8.987899705,17.97438934
10.3950,24.14653871,-4.092015051,19.99151217
10.4000,28.63147752,2.528455539,9.432043641
10.4050,27.96374368,-0.4085897583,9.527887611
10.4100,32.40016296,10.13687211,3.269448086
10.4150,28.99197835,19.50004747,-6.626069598
10.4200,19.77633567,12.19462732,-7.688171157
10.4250,27.44113741,15.90885191,-16.47027853
10.4300,22.24050681,23.66403929,-15.91258854
10.4350,31.72585095,13.09274593,-13.34906741
10.4400,13.68750559,17.59494288,-6.11413346
10.4450,23.54899927,14.33978606,-11.72290502
10.4500,3.576374675,5.768013304,-5.114065155
10.4550,6.081579424,0.4352532048,-1.259395595
10.4600,2.693337121,7.841388726,-8.207062906
10.4650,9.377944242,-3.230359432,-4.047914303
10.4700,14.37693697,-8.693537827,-10.16947148
10.4750,4.497975001,-8.90622525,-10.55850307
10.4800,11.79734214,-5.619882187,-11.9974547
10.4850,-2.687899548,-0.7653600646,-9.724906834
10.4900,13.90339319,10.60141523,-16.34341525
10.4950,17.01512675,9.577885918,-10.34497601
10.5000,5.288931936,5.336068394,-2.665585931
10.5050,2.389686725,13.84045471,-6.727245088
10.5100,-6.959879251,10.90090092,-1.367738928
10.5150,0.4991773472,15.69633328,-2.388279446
10.5200,-7.438499596,27.23675623,3.386178594
10.5250,-10.06677545,28.1860727,-3.244804853
10.5300,-10.36714633,14.83655476,-0.1493873743
10.5350,-9.411389946,15.66207015,0.4159095844
10.5400,-3.830638445,7.388077591,-5.009860817
10.5450,-21.37669088,-5.170656906,6.956250792
10.5500,-18.0088948,-6.232077814,1.443631549
10.5550,-24.31719543,-11.20441286,-0.00676504933
10.5600,-20.42275118,-11.71376169,-9.100349402
10.5650,-19.02640597,-13.96036001,-12.55789216
10.5700,-24.10369314,-17.3160725,-21.24665759
10.5750,-22.77047012,-14.94416969,-25.08200344
10.5800,-14.11173349,-3.073607683,-28.77261551
10.5850,-11.01934664,-4.452153994,-28.77857507
10.5900,-13.74330705,-0.579702299,-24.56664684
10.5950,-12.96092404,7.366071111,-19.46780482
10.6000,-5.866302417,2.876188774,-17.37842054
10.6050,-2.7006095,9.783066638,-9.755635555
10.6100,-22.88169153,5.446933036,8.069446489
10.6150,-15.30103742,20.39312163,7.217550697
10.6200,-0.6302024044,-5.113933817,26.52602265
10.6250,-13.71796278,2.362680333,24.35695803
10.6300,-24.48254778,0.33479124,30.3416424
10.6350,-6.683175043,3.437002122,19.97828887
10.6400,-15.30253643,3.622714659,21.31861942
10.6450,-12.44905783,17.42124089,19.34251476
10.6500,-9.811122241,0.8870699671,21.52393198
10.6550,-18.89475623,3.967301872,17.02579646
10.6600,0.5155940962,3.525653024,1.095737575
10.6650,2.378017435,15.20966956,-11.78726663
10.6700,3.419929475,10.51678003,-9.517056205
10.6750,6.273603965,7.888112703,0.9265351449
10.6800,8.295078067,9.123032237,4.118105877
10.6850,-8.66091246,13.69306565,16.81026222
10.6900,-14.82418877,16.83498659,20.96953544
10.6950,-6.329541682,14.102318,23.76869252
10.7000,-22.14982126,12.04701897,27.26791638
10.7050,-8.560151002,12.21147305,26.40995216
10.7100,-26.35795008,11.08506853,28.87621999
10.7150,-1.85011235,3.268109437,21.51539927
10.7200,-9.549072506,1.882133593,9.611630563
10.7250,-18.16141968,-3.241624321,5.112630546
10.7300,2.470574934,-1.439097259,-0.03734745991
10.7350,4.809074865,0.4732481002,3.355126781
10.7400,3.166529322,0.2334661738,10.01808248
10.7450,-7.624025001,9.773428678,17.4897389
10.7500,-17.1971473,10.62495982,20.45361823
10.7550,-9.981198047,11.66618676,20.47724201
10.7600,5.579273399,12.1480567,21.2242671
10.7650,11.14180484,18.75115571,14.95980156
10.7700,5.867826861,7.554413406,19.74394105
10.7750,-8.359408231,12.12127363,10.15946154
10.7800,-6.704435054,2.506834717,7.787554577
10.7850,7.353652636,7.286842685,0.8334594824
10.7900,3.813160397,3.303516018,8.036180932
10.7950,-9.504220703,-9.064917883,6.97498507
10.8000,-16.46605045,-30.09601392,3.135738133
10.8050,-19.63362593,-35.25549187,3.649593315
10.8100,-25.67226052,-22.75247168,1.252033719
10.8150,-20.1526681,-12.73012121,4.206732535
10.8200,-10.90739722,-21.90245849,-2.157880573
10.8250,-6.963300537,-20.0346052,-9.540037787
10.8300,0.7081905611,-16.63878873,-22.85897186
10.8350,3.840325383,-16.84629961,-15.26021206
10.8400,12.33087283,-11.50806969,-8.527303887
10.8450,-0.7069122522,-0.8524965462,10.13364075
10.8500,-0.0464068737,-4.354655967,19.78581834
10.8550,-7.314844587,1.10485616,28.4131021
10.8600,-12.43740508,9.067402661,19.9413823
10.8650,-13.74412107,22.47716315,21.86132697
10.8700,8.234311253,28.5908098,13.45182367
10.8750,6.93507372,37.08114103,3.764227495
10.8800,5.428634566,27.78171731,-8.825127437
10.8850,21.67328733,17.55496176,-13.90453497
10.8900,0.1319620965,14.97462284,-15.24512956
10.8950,-8.843336576,24.65373065,-14.56319024
10.9000,-1.93904023,28.52864761,-7.531327071
10.9050,7.920286745,18.5232437,-2.421476379
10.9100,1.420607601,14.35403675,5.285166309
10.9150,7.957631619,11.67410977,12.34478882
10.9200,-3.685059995,0.762652669,12.90030433
10.9250,-4.525741703,-9.931252413,14.08932215
10.9300,-5.562416399,-10.47571298,13.50180208
10.9350,-3.765615242,-8.856113665,12.09579723
10.9400,5.340575321,-23.12605592,8.824418157
10.9450,-11.63648391,-21.28903853,10.80364573
10.9500,-20.01498391,-23.12558691,2.98254126
10.9550,-9.95299099,-9.967888238,-12.28767906
10.9600,1.207536134,-8.135887971,-23.61070238
10.9650,-4.465931989,-2.570088404,-22.066314
10.9700,12.4806532,1.48141942,-23.56684667
10.9750,4.750534663,15.06211912,-14.27832864
10.9800,28.26942336,25.18168809,-15.7453341
10.9850,21.59340772,27.6320841,1.315659765
10.9900,7.50721009,13.25753487,15.85531309
10.9950,-7.639909942,22.91521236,19.9907491
11.0000,-15.77076973,15.07578692,34.16637678
11.0050,-31.14742004,9.686004469,39.97067136
11.0100,-28.0280364,8.007748234,30.58419223
11.0150,-35.87879239,5.072551404,18.06275305
11.0200,-30.75559456,-1.073354037,0.7447506881
11.0250,-28.4499779,-6.193640359,-10.43070699
11.0300,-15.49107805,-1.617791316,-19.97531437
11.0350,-12.02710477,4.073636032,-15.8131266
11.0400,-1.125803421,18.93296398,-24.3421908
11.0450,13.43056182,23.49791127,-11.97673093
11.0500,16.20440004,20.52522654,-5.730759608
11.0550,-1.006437269,11.43994682,7.547013315
11.0600,0.4253851743,19.35343181,-0.3224842607
11.0650,-13.98265674,6.091209217,20.18504393
11.0700,-19.13970653,3.947533713,27.0893838
11.0750,-21.32358055,11.8238063,33.84494821
11.0800,-12.95476159,1.310465724,38.31178141
11.0850,-15.98570195,3.471926799,19.02175006
11.0900,-18.09548857,-12.19301317,3.959568089
11.0950,-21.53006619,-13.54069516,-16.24769146
11.1000,-26.81293887,-24.80099556,-18.75600857
11.1050,-30.89922135,-21.8262487,-15.73214017
11.1100,-17.90132062,-11.54621201,-20.78561467
11.1150,-1.555777387,-13.67685922,-24.74816027
11.1200,30.12330736,-16.45776476,-33.50995606
11.1250,39.88615829,-34.58834179,-32.99126518
11.1300,53.19229855,-45.13951226,-30.53084722
11.1350,52.86064414,-54.80393699,-25.83710304
11.1400,61.41790058,-74.37390828,-12.7756432
11.1450,55.27130503,-75.71737232,8.031812194
11.1500,43.69659705,-71.15512185,25.95739201
11.1550,9.50155271,-67.70362346,25.85991527
11.1600,-15.78287965,-61.24324872,24.92240483
11.1650,-27.47514122,-35.17982298,10.54978582
11.1700,-14.58994342,-7.771432553,0.7972945564
11.1750,-13.38515136,8.161120605,-12.61343075
11.1800,-30.17332867,25.97426757,-24.92830578
11.1850,-24.5300476,69.0524935,-44.07216519
11.1900,-0.07724059064,90.90610911,-40.04271599
11.1950,18.6165782,127.2708947,-22.36758863
11.2000,34.34640581,135.2418666,-3.441923594
11.2050,30.64705707,137.2020868,21.70669429
11.2100,31.53409345,121.2643992,37.99851162
11.2150,36.86838576,98.49848542,53.24742552
11.2200,50.82287932,62.5766655,53.72293402
11.2250,42.5146611,34.76300582,45.42967072
11.2300,24.71467425,14.75566389,33.71837225
11.2350,3.751773413,-13.7084731,36.0478728
11.2400,-6.85321104,-19.15293923,29.5213476
11.2450,-42.7446906,-17.67544954,21.21349241
11.2500,-45.15254384,-31.88970492,0.1616874418
11.2550,-17.36127591,-33.86251615,-23.92684429
11.2600,-26.93058211,-33.54512106,-56.1387906
11.2650,-15.25972086,-24.98285994,-68.47614609
11.2700,-4.9562434,-7.925187819,-76.10664436
11.2750,10.29058486,1.922295893,-58.17832894
11.2800,30.65595467,-0.8181200804,-53.92254492
11.2850,29.07483322,-18.87012973,-46.40636435
11.2900,28.93859646,-40.29638758,-40.77116671
11.2950,37.09600951,-49.12720762,-25.83616356
11.3000,30.24262751,-65.36555032,-8.007037921
11.3050,31.0949892,-53.06845177,-7.669980965
11.3100,23.39530276,-60.21181405,-2.384525763
11.3150,4.87647369,-49.89675575,3.382179655
11.3200,-3.256015405,-38.05590808,-0.301510993
11.3250,-19.7089478,-27.26214893,4.769804264
11.3300,-36.06478467,1.228871921,10.84836141
11.3350,-17.40864484,29.74981241,4.747054502
11.3400,-26.5140504,28.86278466,14.19181264
11.3450,-29.60313498,43.9464377,6.622430976
11.3500,-24.86932784,45.06557286,4.718218316
11.3550,-11.93867255,51.37864503,0.8325925762
11.3600,-23.45299032,38.2559963,-4.878679557
11.3650,-6.8080417,19.45766413,-1.879595277
11.3700,5.211503583,-1.923038115,-3.35689685
11.3750,8.799205464,-16.56240259,-9.140458916
11.3800,17.19344016,-10.95320094,-14.61433319
11.3850,10.91845962,-10.7110555,-18.76207265
11.3900,20.2376241,-20.10157538,-15.85979919
11.3950,15.57814005,-31.83214599,-13.01966647
11.4000,15.70183932,-25.99312914,-13.85100194
11.4050,5.302974568,-24.42317987,-3.74647252
11.4100,10.43238441,-20.54709219,5.017774835
11.4150,-4.984171542,-9.323596944,10.97299748
11.4200,-11.75566412,8.823928505,6.808325051
11.4250,-13.35410584,8.176174192,11.00288101
11.4300,-23.75621319,1.980838897,26.94235442
11.4350,-15.37882097,8.854357632,22.78281447
11.4400,-20.72619545,2.532697297,12.67227856
11.4450,-17.39897979,-7.619394278,7.352949585
11.4500,-19.48763489,2.589543401,-13.82840186
11.4550,-19.03308666,-8.401253882,-12.2353269
11.4600,1.236475172,-3.710044921,-12.86172669
11.4650,0.7756658063,1.12064683,-8.46557375
11.4700,-4.858773506,10.37050733,-3.19910407
11.4750,19.66213858,16.02584489,-4.906260113
11.4800,5.809199538,16.34047441,-11.3486845
11.4850,-9.649821531,17.25271522,-4.513798532
11.4900,-6.362806618,37.55084862,0.7204733714
11.4950,-10.5925804,34.84910284,18.3262714
11.5000,-21.21284518,34.14494858,30.31735668
11.5050,-22.58958045,25.00787709,41.94981096
11.5100,-41.44657265,23.93083061,32.25831345
11.5150,-39.46727564,12.47778297,39.18153967
11.5200,-31.93712895,10.69290622,30.66020903
11.5250,-35.12494115,11.77679844,24.86204158
11.5300,-25.58226083,-1.780750163,7.606985578
11.5350,-21.10836322,-11.58822452,-7.374665387
11.5400,-9.475551909,-26.35153599,-22.71219919
11.5450,19.96240244,-31.54915735,-36.14248633
11.5500,18.99459067,-36.4843749,-35.30358085
11.5550,18.5143086,-27.36414174,-30.9090016
11.5600,13.79244661,-17.63754983,-17.12849301
11.5650,-6.983468086,-12.43924815,-6.315571348
11.5700,7.302798069,6.800392689,-1.647835005
11.5750,-11.25568302,12.23669493,13.68817216
11.5800,-43.1986488,17.65713325,24.21601195
11.5850,-46.97155664,27.06052473,33.26088432
11.5900,-47.72639326,28.89746539,39.81411566
11.5950,-55.33869134,39.45450938,37.34341875
11.6000,-71.79305759,21.43986263,39.68007386
11.6050,-66.67117925,17.55791494,32.98804929
11.6100,-83.17783597,19.50341543,12.55793525
11.6150,-71.65787297,3.003254681,14.81843398
11.6200,-59.36214541,1.023610943,-5.896135016
11.6250,-61.14736859,2.457948198,-12.58590752
11.6300,-35.67946104,-4.859041579,-14.60506395
11.6350,-43.21415788,-13.04167146,-5.613957435
11.6400,-24.10399626,-13.63359747,-9.744379438
11.6450,-33.60987636,-15.24123354,-4.157758835
11.6500,-40.430725,-9.939869854,-1.778944353
11.6550,-46.35460543,-8.796868726,2.098970065
11.6600,-49.61364641,-7.291577488,-3.912274143
11.6650,-48.55728873,-10.42803581,-5.475668408
11.6700,-37.99622851,-15.66437033,-1.920104411
11.6750,-30.17427991,-11.85948499,-4.507780848
11.6800,-3.757661652,-16.98210052,-10.44673546
11.6850,-1.347597642,-3.91501794,-21.41870101
11.6900,2.970802135,8.931625365,-35.03413968
11.6950,23.90541601,9.624093956,-22.53647574
11.7000,32.47586091,27.35388606,-32.94126174
11.7050,42.01699845,25.55155543,-22.34510901
11.7100,68.06984904,30.21380147,-10.14529505
11.7150,73.58056268,21.32634651,-3.131763896
11.7200,73.96025097,17.84870516,5.923543231
11.7250,65.41127558,17.71566074,13.95628297
11.7300,77.61820386,24.68503968,20.74506304
11.7350,52.01673652,24.79447987,33.12256281
11.7400,55.12035575,30.58831623,33.35798125
11.7450,46.98372236,31.85302583,38.24240012
11.7500,33.27119521,23.18494079,41.4504994
11.7550,30.4040012,3.198142218,38.60863796
11.7600,25.75191213,-9.347295152,28.78832036
11.7650,11.61408767,-14.87341901,14.39032815
11.7700,14.94243674,-33.44407685,22.03087921
11.7750,4.198191267,-35.43539269,10.48933786
11.7800,6.488158581,-32.0294021,0.4278188425
11.7850,3.41959954,-36.95072074,-8.177668439
11.7900,-2.575445396,-30.96365485,-16.84695817
11.7950,6.798319628,-30.56977637,-23.72971571
11.8000,-2.735720111,-42.62191364,-15.90755569
11.8050,17.80090774,-42.11817774,-17.62029309
11.8100,5.029239526,-26.89971084,-23.7294214
11.8150,6.590663348,-20.24662708,-25.45185059
11.8200,0.7278549085,-18.20867442,-26.72965417
11.8250,8.012286094,-20.33303826,-27.53904803
11.8300,18.33183172,-15.56292237,-16.3423519
11.8350,9.357926057,-9.812289855,-8.028084502
11.8400,7.668853671,5.531654205,-5.890554367
11.8450,8.505441212,8.245551033,8.255192299
11.8500,-5.968618173,16.52148285,18.67449261
11.8550,-34.49915583,29.55264622,21.29749945
11.8600,-28.50687503,27.31255568,29.73186807
11.8650,-52.05406627,44.26314457,26.90682828
11.8700,-36.60207695,42.45221099,18.22305482
11.8750,-23.91241204,38.9197122,15.96220853
11.8800,-18.91420343,38.57867454,9.345145482
11.8850,-18.14584107,30.52610334,4.472803016
11.8900,-9.522143181,21.08244255,-2.21109964
11.8950,23.28981844,9.943586384,-12.05616164
11.9000,43.34522588,-2.208954034,-9.366600537
11.9050,61.41878913,-15.91351527,-4.084608629
11.9100,80.86546037,-19.22712893,-2.587931091
11.9150,83.55362184,-24.73045311,0.2566813849
11.9200,56.65798979,-33.19773378,0.03948724754
11.9250,59.32540612,-18.34821856,-11.53709799
11.9300,36.23516646,-22.7010571,-2.824546631
11.9350,27.73715679,-5.100706559,-6.226614418
11.9400,31.3428753,-9.73639183,2.08518166
11.9450,21.50463424,2.50455162,-1.275394613
11.9500,17.14711815,6.875573139,-1.48233417
11.9550,44.10364826,10.81820309,3.513440633
11.9600,48.26882165,10.47233652,3.576296005
11.9650,54.24804824,10.2091786,-0.5935250824
11.9700,52.35988806,-2.110715132,5.34208894
11.9750,62.57719892,8.692345733,0.5195688934
11.9800,62.40135555,3.296528413,-7.619909837
11.9850,67.75254335,-1.225401021,-5.713436286
11.9900,64.47865992,-11.73940538,-4.924842118
11.9950,55.82618667,-26.89772427,-0.9956953805
12.0000,60.81211474,-28.05174661,-6.984006656
12.0050,34.92592962,-24.4159108,-5.641480204
12.0100,10.05344589,-29.32685291,-3.180112166
12.0150,-16.48365514,-21.53663722,6.465743208
12.0200,-22.60562126,-2.288570483,-3.657630554
12.0250,-31.13504962,-3.468648391,-0.3275675511
12.0300,-20.73144708,-4.38989713,-4.537447148
12.0350,-23.84467605,-2.465718793,-0.2494467304
12.0400,-11.70214567,6.392988643,-7.550586981
12.0450,-4.873247701,-7.550550748,6.784109053
12.0500,7.938384126,-5.603544213,2.010111378
12.0550,7.795253995,-10.85759235,7.971187638
12.0600,11.6650183,-0.9478741831,-3.715802437
12.0650,16.60381378,-0.5410270689,-0.7914505656
12.0700,37.45388804,-7.026215067,4.547531026
12.0750,44.20228518,-1.792052992,5.046689245
12.0800,25.52817367,1.890396165,10.06870526
12.0850,35.17254568,10.29412921,15.92563892
12.0900,20.6393055,15.22365498,16.96304634
12.0950,21.12096855,11.21995999,26.84861122
12.1000,13.04738722,26.45006236,12.65077129
12.1050,-2.601232222,20.20900265,17.57492094
12.1100,0.3492046776,26.54902619,6.420638743
12.1150,-8.458385207,25.32861684,4.103717623
12.1200,-7.426915853,19.45662731,-7.472557707
12.1250,-11.26808846,1.337550584,6.822433449
12.1300,10.77374934,3.278633688,-5.310202447
12.1350,0.6608934331,-11.84019756,0.9880152934
12.1400,21.43684686,-22.30914097,-4.07308616
12.1450,20.7102246,-21.34407077,-2.775203356
12.1500,35.16839497,-32.64431733,-4.65274416
12.1550,41.07022483,-36.1848668,-5.319029466
12.1600,50.50538121,-30.84897348,-14.07809641
12.1650,34.11799692,-34.72074908,-12.78668099
12.1700,35.37097483,-33.44716563,-1.357253401
12.1750,35.34594528,-21.43768809,-3.486714396
12.1800,16.30914841,-14.34880193,-5.569013957
12.1850,9.376632889,-3.946769698,1.226852394
12.1900,7.138261682,0.9099216081,5.198651824
12.1950,-9.040252734,8.382427293,11.90248713
12.2000,-21.20156539,11.32035272,13.46230306
12.2050,-42.63218152,16.25293431,19.77441241
12.2100,-35.31295097,16.95692282,13.06753682
12.2150,-50.63592293,29.03571031,11.88731508
12.2200,-55.5117189,16.76479516,16.11529848
12.2250,-48.15827893,17.30274029,14.07137969
12.2300,-47.54785373,6.710026728,17.03319381
12.2350,-32.92421754,10.13058135,15.23393601
12.2400,-29.01004085,3.358893752,18.32349151
12.2450,-3.352897384,3.157741223,9.060467018
12.2500,4.844505273,1.830116461,7.27149753
12.2550,3.380158479,-13.66651162,11.48373654
12.2600,23.99946976,-23.66368707,11.46756774
12.2650,34.02922907,-25.0606776,9.055249856
12.2700,60.57619423,-30.85961665,9.134983601
12.2750,54.7946984,-17.78549845,3.657568087
12.2800,73.37813811,-14.43272848,-1.607194974
12.2850,68.62312434,-28.40942414,9.904598558
12.2900,79.82136825,-15.12031086,3.233840193
12.2950,87.38573133,-20.07311405,13.87026903
12.3000,92.44973042,-17.34080195,10.02392778
12.3050,67.79123714,-7.930764262,11.66957072
12.3100,76.55695739,-9.574588061,15.21255526
12.3150,57.71984114,-3.676379876,3.453924042
12.3200,62.30372111,2.203301795,-5.368890414
12.3250,43.48854592,-4.17040197,2.657644067
12.3300,24.48483608,-3.686333795,3.619971865
12.3350,19.95956303,9.071925575,1.020967148
12.3400,18.95426737,1.740200835,5.162317599
12.3450,13.50021808,3.39728172,4.213059709
12.3500,13.23724981,13.44505841,8.868098023
12.3550,23.69907822,9.05350291,16.97749473
12.3600,11.72167004,9.128282789,12.97451959
12.3650,28.80128353,4.608072093,10.18601932
12.3700,36.27585192,-7.494699343,10.47583416
12.3750,38.59528863,-3.545819706,5.523737753
12.3800,56.52246275,-2.599364351,0.5349570064
12.3850,51.21690841,-8.51020878,12.83466008
12.3900,53.60741234,-8.157451492,18.10077195
12.3950,72.36095043,-0.7410892236,16.07666199
12.4000,70.72712931,-6.776186309,26.17426483
12.4050,79.71476535,-0.4871945158,24.23851004
12.4100,71.20607148,-0.1967805197,23.30091175
12.4150,65.02962982,2.005960474,30.29716036
12.4200,56.97901097,-7.618120378,23.36170653
12.4250,53.40755012,3.545189685,17.21262074
12.4300,56.12156978,2.870176391,8.449612045
12.4350,44.11147773,-13.4627256,18.12757803
12.4400,39.16688882,-11.09191314,4.656882369
12.4450,45.27548622,-26.1115802,8.612321078
12.4500,48.33204337,-37.81116832,11.01620489
12.4550,45.94476842,-35.31803324,-1.658464142
12.4600,46.55396468,-34.62543114,-1.458018942
12.4650,20.83700092,-24.76594033,0.4319605847
12.4700,-4.818640788,-13.89688995,-3.365745757
12.4750,2.063424969,-10.42690685,0.4710203309
12.4800,-0.2871874494,-7.741448718,-7.608955499
12.4850,-19.58594922,5.406708028,-19.6249452
12.4900,-15.45530988,2.185491397,-22.56519827
12.4950,-8.386910743,4.518820898,-21.7888276
12.5000,-22.97962572,3.239979832,-23.93248472
12.5050,-22.52370598,3.844086831,-24.11508155
12.5100,-21.51758702,-3.448713932,-26.42876036
12.5150,-16.97388673,-6.385485689,-20.6312845
12.5200,-15.76028242,-6.267869344,-20.97595226
12.5250,-26.33925276,-11.51960591,-18.09000893
12.5300,-19.95671348,-8.190631027,-21.10688849
12.5350,-37.35102672,-5.936170606,-14.62778249
12.5400,-18.75219069,-1.461648435,-12.81834016
12.5450,-20.78791367,0.9549481239,-8.537177499
12.5500,-11.06767933,9.629941776,-12.71906725
12.5550,-15.39790018,9.050699913,-1.09410857
12.5600,-7.73224554,0.2111645581,-2.303028204
12.5650,-32.61087568,9.211402776,-10.00093321
12.5700,-19.04263065,16.27472033,-14.9000962
12.5750,-30.22688554,19.8659065,-11.40318915
12.5800,-29.3810911,16.41794768,0.7071025019
12.5850,-37.0999137,24.74959293,-0.5749023211
12.5900,-41.0656329,21.02001111,13.02763397
12.5950,-15.92744931,19.79082921,13.87908659
12.6000,-35.72049086,19.44907067,12.4189626
12.6050,-26.52589524,11.87180922,16.78443413
12.6100,-20.49412591,21.19449286,10.57236517
12.6150,-52.39846821,17.68334383,13.94191778
12.6200,-44.84557799,17.41924043,4.832162049
12.6250,-44.42868342,26.92308367,-5.282337109
12.6300,-48.24849186,27.32736472,-8.2502035
12.6350,-52.5808942,33.44905973,-6.551982435
12.6400,-44.94460868,30.67438013,-3.249089826
12.6450,-44.13674647,45.99514873,-9.447017279
12.6500,-45.42034822,40.78884183,-4.813462523
12.6550,-30.84721304,29.32363908,11.34166712
12.6600,-27.65367745,32.59288327,9.263868641
12.6650,-36.16205913,25.8093948,14.06355348
12.6700,-35.24875095,24.10139781,14.31204903
12.6750,-33.71932472,23.56013338,24.06896461
12.6800,-33.01131158,30.14496743,19.10740335
12.6850,-14.7163173,24.90803165,21.17383639
12.6900,-12.90818027,26.1831246,21.6377928
12.6950,-8.875213126,18.95765207,36.90420479
12.7000,-8.423780749,1.059332832,31.93672493
12.7050,9.093710834,5.100013494,25.90865997
12.7100,11.66403171,-3.143071452,26.2191978
12.7150,23.05552123,-12.28483578,15.07770705
12.7200,24.63758746,-17.36807009,2.871182535
12.7250,29.82400619,-21.29231484,6.391809779
12.7300,33.81340933,-12.36254463,0.4119537787
12.7350,25.97491391,-18.03200881,10.04317608
12.7400,23.94114594,-26.57661308,10.69895006
12.7450,33.18048617,-26.78894291,-1.434726948
12.7500,25.7836978,-37.27077778,0.8810783924
12.7550,24.10914411,-36.08599825,-12.49945946
12.7600,35.34450564,-28.20386001,-22.79587228
12.7650,12.0418526,-21.87863357,-27.98506428
12.7700,2.96946504,-21.55605777,-16.58797663
12.7750,-20.84363073,-7.547496806,-22.1906363
12.7800,-14.03756799,11.15946673,-22.45652709
12.7850,-32.53707914,18.03600881,-20.47565186
12.7900,-49.97479712,14.55830218,-21.23041765
12.7950,-46.75453541,21.1099984,-26.89329823
12.8000,-56.23704906,21.53841785,-33.15450546
12.8050,-40.24896769,27.85875819,-27.36188044
12.8100,-35.59033296,26.88872331,-22.08739601
12.8150,-16.9117556,27.92476926,-17.58544077
12.8200,-5.237273067,13.30534157,-16.95020622
12.8250,8.459816232,10.66071711,-6.290895642
12.8300,28.32064742,8.648868413,-10.85363876
12.8350,42.56153393,-2.888594696,-6.920551613
12.8400,37.73622111,-6.937322073,-5.274933083
12.8450,34.72012709,-5.453498086,5.468446344
12.8500,36.09941532,-6.632773469,5.67703464
12.8550,43.5952703,0.9921067587,4.418315663
12.8600,38.32106911,-3.945311065,9.236990647
12.8650,38.63851648,14.29891275,-2.154213201
12.8700,39.20895156,6.440508629,3.414991587
12.8750,43.09516023,19.96960221,-5.524308516
12.8800,42.74838497,16.08843913,3.419701105
12.8850,27.12265334,18.30550526,7.895536745
12.8900,19.68237218,32.60969881,6.630013439
12.8950,-0.1410376562,29.85287029,16.61961826
12.9000,1.644036591,40.51618103,6.330060184
12.9050,-2.666163611,36.65169188,11.38215009
12.9100,-16.90583835,38.62902769,8.768676565
12.9150,-2.935942401,26.03831648,23.54874724
12.9200,9.103791574,30.64497898,16.12224995
12.9250,4.183642424,10.80590531,12.86772996
12.9300,-14.72156855,9.834642121,5.110356806
12.9350,-22.11917418,3.560488369,14.23617344
12.9400,-13.24384842,-1.642472854,3.838801042
12.9450,-9.118824077,-19.09504178,6.397987704
12.9500,-7.306265481,-25.62025922,1.78713492
12.9550,0.300776241,-26.49308468,5.462711394
12.9600,-5.770682028,-31.62037834,2.307691823
12.9650,10.97038887,-25.90866501,-6.225323064
12.9700,-0.06699066232,-18.64876101,-18.81242918
12.9750,-0.9563566013,-30.29787576,-3.016616451
12.9800,-16.85183836,-13.58719759,-10.23179722
12.9850,-28.69626086,-14.36755432,-4.016564838
12.9900,-9.45796552,-4.317408334,-8.833366647
12.9950,-10.15432672,1.43825848,4.518652835
13.0000,-11.01963966,9.223033239,-8.762737798
13.0050,-13.04492763,10.39306702,5.070491833
13.0100,-18.35917662,17.44203615,-1.625994343
13.0150,-23.1190467,18.60712029,1.349850904
13.0200,-35.54217536,21.05580974,-1.519519773
13.0250,-22.30300458,11.20095652,-0.3455962952
13.0300,-34.15177453,10.89217445,-0.7417103614
13.0350,-10.6570138,5.976711654,-1.35217298
13.0400,-6.356523281,-7.876026601,7.854176606
13.0450,19.88191861,-8.612209416,6.298132572
13.0500,18.61582329,-10.44434176,2.155357734
13.0550,19.21913397,-13.29192922,-2.041910827
13.0600,38.35819118,-23.72881179,8.077906138
13.0650,43.29822345,-9.241719952,-1.926901283
13.0700,38.08020928,-14.8780809,-3.246524028
13.0750,46.96854925,-20.85149219,5.387048601
13.0800,42.81054713,-19.48915309,9.785435691
13.0850,49.6624803,-8.266091327,2.833968717
13.0900,29.44006807,-1.167599829,3.963840459
13.0950,26.30644671,7.152564091,8.379972192
13.1000,18.60269873,3.896920916,16.02010499
13.1050,13.82600059,21.58645335,18.7318418
13.1100,5.410404715,32.07499688,16.60474027
13.1150,6.21773515,26.68308799,19.53026274
13.1200,24.32465343,11.51021069,21.25288143
13.1250,31.49739994,11.41021699,17.4393888
13.1300,35.41158976,1.532646129,18.36794509
13.1350,39.77322717,3.586185676,8.79391321
13.1400,35.34877804,4.203395145,-0.1294746161
13.1450,17.347211,-12.54709533,6.836354079
13.1500,25.20558837,-12.69146601,-7.968022403
13.1550,37.40262171,-16.48850006,-10.17103865
13.1600,23.99103873,-22.79414696,-10.98411188
13.1650,29.86306235,-27.39148461,-20.39943387
13.1700,20.72529422,-36.55381241,-0.4947172277
13.1750,11.48988199,-28.23202566,1.747181019
13.1800,16.77029686,-24.34203849,-5.071493024
13.1850,-5.989224271,-17.34962881,5.062642052
13.1900,-7.036086053,-5.614088624,4.195253638
13.1950,-29.14229994,11.99109525,1.180048441
13.2000,-24.79620826,25.66955557,-7.548883844
13.2050,-31.40941607,30.10026364,-8.000074019
13.2100,-37.16331836,22.5801173,-0.3285136422
13.2150,-29.71834955,34.34393294,-6.840562531
13.2200,-26.60786563,7.660302631,9.088864251
13.2250,-28.15247159,6.735010816,2.551578647
13.2300,-8.892225874,0.163740189,-8.979794742
13.2350,-3.328945193,-8.944234331,-9.452074595
13.2400,6.789239373,-16.9321516,-21.61520473
13.2450,1.516266047,-26.35183019,-9.456554505
13.2500,22.02519473,-25.12901305,-10.25827372
13.2550,-0.2868809415,-18.6077361,1.539045716
13.2600,3.075224181,-9.011117109,1.977010044
13.2650,-0.5584633234,1.472113188,-1.999158952
13.2700,-11.03691706,5.498492105,5.019496906
13.2750,-1.306084172,10.30054705,11.75608022
13.2800,-11.21175592,20.5486808,5.189865996
13.2850,-39.32711047,22.92271992,12.33493462
13.2900,-15.85243997,14.41553385,21.42793211
13.2950,-15.88356141,7.642519847,20.64410723
13.3000,-24.84933302,3.046150651,16.0493572
13.3050,-15.4817063,2.533675639,9.056065756
13.3100,1.193595672,-7.899938041,4.933853213
13.3150,16.57653858,-9.895180174,6.27572622
13.3200,39.10673695,-22.59742198,2.796875506
13.3250,35.27078856,-14.49282074,0.4239598397
13.3300,26.76999916,-20.31338103,2.343473347
13.3350,39.37902692,-12.61948171,-3.282939568
13.3400,34.33770593,-9.577052378,-9.309966126
13.3450,49.68651309,-14.33565928,-8.572806648
13.3500,39.81251534,-20.60153042,0.9159085404
13.3550,48.08130142,-10.73814111,-0.3065431103
13.3600,47.76655426,-5.594148517,-0.7597908085
13.3650,27.57231979,3.844763535,3.222797817
13.3700,28.98073931,7.698215113,-4.481138568
13.3750,15.96632058,16.186455,-4.363417207
13.3800,4.169741246,11.53938496,9.322883994
13.3850,-0.853791478,9.277391507,13.08263084
13.3900,-28.81790626,17.62223967,18.64354285
13.3950,-32.87752173,18.50191225,15.89157686
13.4000,-49.3073044,14.85546118,5.407393595
13.4050,-26.78515252,6.262982131,9.444023436
13.4100,-35.15185758,3.660870456,1.921129616
13.4150,-31.25601021,-0.6439946352,3.26347522
13.4200,-15.58493695,-7.238647867,3.322740023
13.4250,-5.803979815,-4.580083433,-1.425241785
13.4300,5.294179454,3.006672747,-18.46013022
13.4350,12.78171868,1.937389779,-21.38143402
13.4400,22.63702238,-9.589285759,-19.9025152
13.4450,12.58080549,-8.1263941,-5.320618337
13.4500,-4.264224696,-1.195981547,-5.95006455
13.4550,-9.398076929,-0.08133799481,4.536176848
13.4600,-14.86301468,19.48205334,-4.11660536
13.4650,-22.2766182,24.26333529,-5.334855665
13.4700,-5.858163754,28.62340478,-10.25539143
