type,name,time_units,begin_time,frequency,count,units
signal,"Noraxon MyoMotion-Segments-Forearm RT-Roll","s",0.0000,200,5008,"deg"

time,value
0.0000,1.205887989
0.0050,1.204596801
0.0100,1.203305485
0.0150,1.202014042
0.0200,1.200651154
0.0250,1.199232328
0.0300,1.197774669
0.0350,1.196297019
0.0400,1.194819191
0.0450,1.193360213
0.0500,1.1919369
0.0550,1.190562933
0.0600,1.18924831
0.0650,1.187999751
0.0700,1.186821989
0.0750,1.185719006
0.0800,1.184694779
0.0850,1.183753714
0.0900,1.182900574
0.0950,1.182140134
0.1000,1.181477113
0.1050,1.180916024
0.1100,1.180460824
0.1150,1.180114923
0.1200,1.179880847
0.1250,1.179758971
0.1300,1.179746583
0.1350,1.179837212
0.1400,1.180019483
0.1450,1.180276598
0.1500,1.180586699
0.1550,1.180685189
0.1600,1.180944285
0.1650,1.181088031
0.1700,1.181427164
0.1750,1.181718695
0.1800,1.181976567
0.1850,1.182143343
0.1900,1.182366042
0.1950,1.182567508
0.2000,1.182772121
0.2050,1.182873303
0.2100,1.183036941
0.2150,1.183145692
0.2200,1.183179582
0.2250,1.183238145
0.2300,1.183246121
0.2350,1.183235783
0.2400,1.183405737
0.2450,1.183634802
0.2500,1.184084943
0.2550,1.184751373
0.2600,1.185818058
0.2650,1.1869732
0.2700,1.188607702
0.2750,1.190505803
0.2800,1.192784605
0.2850,1.1956556
0.2900,1.198961976
0.2950,1.202578689
0.3000,1.206784942
0.3050,1.21135434
0.3100,1.216389158
0.3150,1.221946708
0.3200,1.227960032
0.3250,1.234256614
0.3300,1.240988322
0.3350,1.248026824
0.3400,1.255363124
0.3450,1.263036599
0.3500,1.270809498
0.3550,1.27886627
0.3600,1.286906412
0.3650,1.295022201
0.3700,1.303134336
0.3750,1.311342645
0.3800,1.319415911
0.3850,1.327321847
0.3900,1.3349342
0.3950,1.342128803
0.4000,1.349031372
0.4050,1.355458463
0.4100,1.361542996
0.4150,1.367112439
0.4200,1.372222787
0.4250,1.376887517
0.4300,1.380935539
0.4350,1.384375038
0.4400,1.387224636
0.4450,1.389586374
0.4500,1.391402763
0.4550,1.392572967
0.4600,1.393382748
0.4650,1.393885121
0.4700,1.394019069
0.4750,1.394052147
0.4800,1.393779575
0.4850,1.393645243
0.4900,1.393691175
0.4950,1.394042054
0.5000,1.394815534
0.5050,1.39634497
0.5100,1.398612616
0.5150,1.401684625
0.5200,1.405780715
0.5250,1.410921607
0.5300,1.417205092
0.5350,1.424863235
0.5400,1.434054902
0.5450,1.444899768
0.5500,1.457451494
0.5550,1.472047989
0.5600,1.488465236
0.5650,1.50712955
0.5700,1.528146801
0.5750,1.55139888
0.5800,1.576982218
0.5850,1.604726459
0.5900,1.63454311
0.5950,1.666562464
0.6000,1.700613051
0.6050,1.73655034
0.6100,1.77436995
0.6150,1.813805417
0.6200,1.854816702
0.6250,1.897382394
0.6300,1.941227703
0.6350,1.98631816
0.6400,2.032590198
0.6450,2.07970408
0.6500,2.127823014
0.6550,2.176485114
0.6600,2.225554383
0.6650,2.274814194
0.6700,2.324035929
0.6750,2.372954657
0.6800,2.421417034
0.6850,2.469173559
0.6900,2.516183019
0.6950,2.562555888
0.7000,2.608096554
0.7050,2.652772189
0.7100,2.696486896
0.7150,2.73903965
0.7200,2.780373343
0.7250,2.820321621
0.7300,2.85897583
0.7350,2.896390633
0.7400,2.932530977
0.7450,2.967359123
0.7500,3.001240007
0.7550,3.034286248
0.7600,3.066554535
0.7650,3.098361866
0.7700,3.129853092
0.7750,3.161151533
0.7800,3.1924907
0.7850,3.223847395
0.7900,3.255068768
0.7950,3.286263215
0.8000,3.317482345
0.8050,3.348554364
0.8100,3.379481902
0.8150,3.410269908
0.8200,3.441067712
0.8250,3.47193368
0.8300,3.503133019
0.8350,3.534531615
0.8400,3.566105742
0.8450,3.597992681
0.8500,3.630441453
0.8550,3.66333946
0.8600,3.696862071
0.8650,3.730960219
0.8700,3.765576552
0.8750,3.800992233
0.8800,3.837121469
0.8850,3.874108279
0.8900,3.912084861
0.8950,3.950977691
0.9000,3.990735187
0.9050,4.031585273
0.9100,4.073350115
0.9150,4.115968649
0.9200,4.159492722
0.9250,4.203748658
0.9300,4.24874626
0.9350,4.294270907
0.9400,4.339906912
0.9450,4.385869327
0.9500,4.431733098
0.9550,4.477504105
0.9600,4.523232386
0.9650,4.568932618
0.9700,4.614611591
0.9750,4.660447415
0.9800,4.706265461
0.9850,4.75236944
0.9900,4.798627028
0.9950,4.844860168
1.0000,4.891044108
1.0050,4.937030122
1.0100,4.982622464
1.0150,5.027989432
1.0200,5.072940488
1.0250,5.117424212
1.0300,5.161506064
1.0350,5.205257513
1.0400,5.248685236
1.0450,5.291715417
1.0500,5.334219554
1.0550,5.376368066
1.0600,5.417945871
1.0650,5.458869812
1.0700,5.499321461
1.0750,5.539375142
1.0800,5.579057443
1.0850,5.618520121
1.0900,5.658191012
1.0950,5.698052294
1.1000,5.738117293
1.1050,5.778681047
1.1100,5.819856646
1.1150,5.861864671
1.1200,5.904961782
1.1250,5.949328609
1.1300,5.994989246
1.1350,6.042393509
1.1400,6.091832889
1.1450,6.143377766
1.1500,6.197161194
1.1550,6.253623335
1.1600,6.312907674
1.1650,6.37526947
1.1700,6.440957273
1.1750,6.510190702
1.1800,6.583120081
1.1850,6.660128869
1.1900,6.741327486
1.1950,6.827007592
1.2000,6.917693257
1.2050,7.013293852
1.2100,7.114172374
1.2150,7.220681713
1.2200,7.33287958
1.2250,7.450883367
1.2300,7.574901196
1.2350,7.704904462
1.2400,7.841153428
1.2450,7.983638187
1.2500,8.132714616
1.2550,8.288490674
1.2600,8.450763105
1.2650,8.619588348
1.2700,8.794912196
1.2750,8.976520065
1.2800,9.164472018
1.2850,9.358598942
1.2900,9.558684121
1.2950,9.764585433
1.3000,9.976133916
1.3050,10.19327332
1.3100,10.41572334
1.3150,10.64308564
1.3200,10.87540771
1.3250,11.11237142
1.3300,11.35354485
1.3350,11.59878433
1.3400,11.84791171
1.3450,12.10080912
1.3500,12.35750405
1.3550,12.6179056
1.3600,12.88189205
1.3650,13.14957565
1.3700,13.42056355
1.3750,13.69470319
1.3800,13.97198799
1.3850,14.25205768
1.3900,14.53478163
1.3950,14.81995991
1.4000,15.10791637
1.4050,15.39842767
1.4100,15.69157711
1.4150,15.98709731
1.4200,16.28487011
1.4250,16.5847889
1.4300,16.88679798
1.4350,17.19075763
1.4400,17.49648052
1.4450,17.80404818
1.4500,18.11315074
1.4550,18.42345227
1.4600,18.73492889
1.4650,19.04747467
1.4700,19.36085239
1.4750,19.67506059
1.4800,19.99025674
1.4850,20.30629098
1.4900,20.62333188
1.4950,20.94136119
1.5000,21.25994507
1.5050,21.57944775
1.5100,21.89963151
1.5150,22.22032756
1.5200,22.54144619
1.5250,22.86281472
1.5300,23.18434932
1.5350,23.50616988
1.5400,23.82825433
1.5450,24.15054127
1.5500,24.47303626
1.5550,24.7956377
1.5600,25.11845853
1.5650,25.44125663
1.5700,25.76425486
1.5750,26.08742987
1.5800,26.41089143
1.5850,26.7345354
1.5900,27.05847009
1.5950,27.3825282
1.6000,27.7068589
1.6050,28.03111364
1.6100,28.35554938
1.6150,28.68016516
1.6200,29.00471835
1.6250,29.32963706
1.6300,29.65486616
1.6350,29.98035644
1.6400,30.30593818
1.6450,30.63182277
1.6500,30.95780773
1.6550,31.28378181
1.6600,31.60986551
1.6650,31.93591746
1.6700,32.26229552
1.6750,32.58908711
1.6800,32.91628683
1.6850,33.24428656
1.6900,33.57277065
1.6950,33.90205101
1.7000,34.23194643
1.7050,34.56266019
1.7100,34.89426338
1.7150,35.22696723
1.7200,35.56065372
1.7250,35.89550469
1.7300,36.23155262
1.7350,36.56869366
1.7400,36.90675871
1.7450,37.24553214
1.7500,37.58531608
1.7550,37.92619903
1.7600,38.26842651
1.7650,38.61208561
1.7700,38.95760468
1.7750,39.30479061
1.7800,39.65384147
1.7850,40.00487751
1.7900,40.35796122
1.7950,40.71294424
1.8000,41.07008638
1.8050,41.42890295
1.8100,41.7895733
1.8150,42.15220777
1.8200,42.51679379
1.8250,42.8831517
1.8300,43.25133303
1.8350,43.62124512
1.8400,43.99276058
1.8450,44.36594058
1.8500,44.74036484
1.8550,45.11615003
1.8600,45.49321545
1.8650,45.87151638
1.8700,46.25067572
1.8750,46.63060645
1.8800,47.01117278
1.8850,47.39232017
1.8900,47.7740217
1.8950,48.1560924
1.9000,48.53839575
1.9050,48.92092201
1.9100,49.30345544
1.9150,49.68602218
1.9200,50.06872546
1.9250,50.45121876
1.9300,50.83369199
1.9350,51.21641323
1.9400,51.59952189
1.9450,51.98270517
1.9500,52.36611071
1.9550,52.74994799
1.9600,53.13414363
1.9650,53.51880142
1.9700,53.90392954
1.9750,54.2895578
1.9800,54.67582291
1.9850,55.06305859
1.9900,55.45163957
1.9950,55.84155432
2.0000,56.23309173
2.0050,56.62615429
2.0100,57.02076945
2.0150,57.41672847
2.0200,57.81443027
2.0250,58.21378199
2.0300,58.61499804
2.0350,59.01819657
2.0400,59.42349829
2.0450,59.83107275
2.0500,60.24072549
2.0550,60.65242141
2.0600,61.06606515
2.0650,61.48154524
2.0700,61.89865255
2.0750,62.31747706
2.0800,62.73763107
2.0850,63.1595266
2.0900,63.58283315
2.0950,64.00775601
2.1000,64.43424245
2.1050,64.86272784
2.1100,65.29309778
2.1150,65.72542703
2.1200,66.15996551
2.1250,66.59686397
2.1300,67.03642031
2.1350,67.47872858
2.1400,67.92386855
2.1450,68.37179028
2.1500,68.8226475
2.1550,69.27628447
2.1600,69.73273511
2.1650,70.19219747
2.1700,70.65451977
2.1750,71.11980687
2.1800,71.58802257
2.1850,72.05910187
2.1900,72.53333444
2.1950,73.01080636
2.2000,73.49151484
2.2050,73.97530326
2.2100,74.46232205
2.2150,74.95260394
2.2200,75.44619452
2.2250,75.94303906
2.2300,76.44330302
2.2350,76.94696188
2.2400,77.45416578
2.2450,77.96506082
2.2500,78.47994403
2.2550,78.99892095
2.2600,79.52241028
2.2650,80.05015193
2.2700,80.58243649
2.2750,81.11944746
2.2800,81.66132284
2.2850,82.20777969
2.2900,82.75871052
2.2950,83.31425941
2.3000,83.87407532
2.3050,84.43800099
2.3100,85.00597279
2.3150,85.57846069
2.3200,86.15482207
2.3250,86.73492598
2.3300,87.3186447
2.3350,87.90540192
2.3400,88.49549056
2.3450,89.08850454
2.3500,89.68410547
2.3550,90.28222092
2.3600,90.88267916
2.3650,91.48539745
2.3700,92.09020797
2.3750,92.69695822
2.3800,93.30604248
2.3850,93.91715637
2.3900,94.53008425
2.3950,95.1447643
2.4000,95.76125755
2.4050,96.37930091
2.4100,96.99864595
2.4150,97.61928755
2.4200,98.24105934
2.4250,98.863733
2.4300,99.48705299
2.4350,100.1106155
2.4400,100.7344634
2.4450,101.3581391
2.4500,101.9816462
2.4550,102.6045497
2.4600,103.2266143
2.4650,103.8476245
2.4700,104.4674724
2.4750,105.0860687
2.4800,105.7034845
2.4850,106.3197934
2.4900,106.9347134
2.4950,107.5479754
2.5000,108.1590633
2.5050,108.7682226
2.5100,109.3752083
2.5150,109.9797971
2.5200,110.5814646
2.5250,111.1802241
2.5300,111.7758249
2.5350,112.3680595
2.5400,112.9566564
2.5450,113.5417232
2.5500,114.1228976
2.5550,114.6999613
2.5600,115.27304
2.5650,115.8420104
2.5700,116.4067701
2.5750,116.9670073
2.5800,117.5228479
2.5850,118.0740782
2.5900,118.6207026
2.5950,119.1623481
2.6000,119.6991836
2.6050,120.2313006
2.6100,120.7588392
2.6150,121.2815052
2.6200,121.799057
2.6250,122.3119289
2.6300,122.8196763
2.6350,123.3225527
2.6400,123.8200791
2.6450,124.3122184
2.6500,124.7992123
2.6550,125.2811391
2.6600,125.7577936
2.6650,126.2292711
2.6700,126.6959379
2.6750,127.1578339
2.6800,127.6148335
2.6850,128.066869
2.6900,128.5142316
2.6950,128.9566252
2.7000,129.393905
2.7050,129.8261227
2.7100,130.2534637
2.7150,130.6756366
2.7200,131.0928465
2.7250,131.5054624
2.7300,131.9134971
2.7350,132.3172066
2.7400,132.7166927
2.7450,133.1121398
2.7500,133.503705
2.7550,133.8917788
2.7600,134.2765434
2.7650,134.6581036
2.7700,135.036442
2.7750,135.4115401
2.7800,135.7833295
2.7850,136.1517061
2.7900,136.5167869
2.7950,136.8788082
2.8000,137.2377022
2.8050,137.5936905
2.8100,137.9467438
2.8150,138.2967606
2.8200,138.6440439
2.8250,138.9888819
2.8300,139.3311777
2.8350,139.6710608
2.8400,140.0085393
2.8450,140.3436246
2.8500,140.676319
2.8550,141.0067262
2.8600,141.3342341
2.8650,141.6592194
2.8700,141.9818516
2.8750,142.302238
2.8800,142.620417
2.8850,142.9362415
2.8900,143.2495621
2.8950,143.5608943
2.9000,143.8698137
2.9050,144.1763299
2.9100,144.4801851
2.9150,144.7814538
2.9200,145.080128
2.9250,145.3761626
2.9300,145.6694392
2.9350,145.9598261
2.9400,146.2473142
2.9450,146.5317524
2.9500,146.8133306
2.9550,147.0917631
2.9600,147.3673326
2.9650,147.6401687
2.9700,147.9097959
2.9750,148.1766626
2.9800,148.4408943
2.9850,148.7022732
2.9900,148.961192
2.9950,149.217717
3.0000,149.4717289
3.0050,149.723278
3.0100,149.972086
3.0150,150.2182735
3.0200,150.4615888
3.0250,150.7018363
3.0300,150.9387876
3.0350,151.1726959
3.0400,151.4034851
3.0450,151.6310771
3.0500,151.8553983
3.0550,152.0763887
3.0600,152.2942492
3.0650,152.5089092
3.0700,152.7208381
3.0750,152.9303374
3.0800,153.1376331
3.0850,153.3426683
3.0900,153.5457038
3.0950,153.7467519
3.1000,153.9459259
3.1050,154.1431094
3.1100,154.33859
3.1150,154.5328557
3.1200,154.725862
3.1250,154.9175039
3.1300,155.1076811
3.1350,155.2961714
3.1400,155.4832172
3.1450,155.6684981
3.1500,155.8524267
3.1550,156.0348988
3.1600,156.2162922
3.1650,156.3961212
3.1700,156.5743012
3.1750,156.7508635
3.1800,156.9256354
3.1850,157.0989259
3.1900,157.2708171
3.1950,157.4410924
3.2000,157.6098444
3.2050,157.7771486
3.2100,157.9431754
3.2150,158.1075178
3.2200,158.2703238
3.2250,158.4311782
3.2300,158.5903101
3.2350,158.7477077
3.2400,158.9036037
3.2450,159.0580516
3.2500,159.2108005
3.2550,159.3620657
3.2600,159.5117
3.2650,159.6596514
3.2700,159.8060712
3.2750,159.9507084
3.2800,160.0935043
3.2850,160.2344295
3.2900,160.3733854
3.2950,160.5105622
3.3000,160.6458985
3.3050,160.7793926
3.3100,160.9114519
3.3150,161.0419726
3.3200,161.171185
3.3250,161.2993351
3.3300,161.4267347
3.3350,161.5531215
3.3400,161.678404
3.3450,161.8029827
3.3500,161.9270055
3.3550,162.0504993
3.3600,162.1734782
3.3650,162.2964781
3.3700,162.4190981
3.3750,162.5416359
3.3800,162.664088
3.3850,162.7866411
3.3900,162.9092199
3.3950,163.0318471
3.4000,163.1545543
3.4050,163.2772856
3.4100,163.3997717
3.4150,163.5217441
3.4200,163.6429076
3.4250,163.7631908
3.4300,163.8825117
3.4350,164.0006497
3.4400,164.1173934
3.4450,164.2325938
3.4500,164.3457937
3.4550,164.4569396
3.4600,164.5659386
3.4650,164.6726419
3.4700,164.7768482
3.4750,164.8787808
3.4800,164.9782357
3.4850,165.0753706
3.4900,165.1700756
3.4950,165.2625837
3.5000,165.3529145
3.5050,165.4411478
3.5100,165.5272781
3.5150,165.6115984
3.5200,165.694031
3.5250,165.7748879
3.5300,165.8540957
3.5350,165.9316688
3.5400,166.0075972
3.5450,166.0821332
3.5500,166.1552861
3.5550,166.2271153
3.5600,166.2977411
3.5650,166.3672424
3.5700,166.435842
3.5750,166.5037375
3.5800,166.5709623
3.5850,166.6377432
3.5900,166.7041549
3.5950,166.769957
3.6000,166.8353384
3.6050,166.9004874
3.6100,166.9655221
3.6150,167.0307327
3.6200,167.0961
3.6250,167.1616525
3.6300,167.2276457
3.6350,167.2940903
3.6400,167.3613365
3.6450,167.4290311
3.6500,167.4970974
3.6550,167.5658153
3.6600,167.6349927
3.6650,167.7043952
3.6700,167.7742342
3.6750,167.8441432
3.6800,167.9140251
3.6850,167.9839109
3.6900,168.0536224
3.6950,168.1230487
3.7000,168.1921779
3.7050,168.2610002
3.7100,168.3295029
3.7150,168.3975715
3.7200,168.4653365
3.7250,168.532335
3.7300,168.5986387
3.7350,168.6641114
3.7400,168.7287242
3.7450,168.792558
3.7500,168.8558017
3.7550,168.9182383
3.7600,168.9799231
3.7650,169.0408737
3.7700,169.1013535
3.7750,169.1610512
3.7800,169.2201909
3.7850,169.2787745
3.7900,169.3368414
3.7950,169.3942249
3.8000,169.4509682
3.8050,169.5070139
3.8100,169.5621408
3.8150,169.6164055
3.8200,169.6699582
3.8250,169.7226409
3.8300,169.774552
3.8350,169.8258356
3.8400,169.8763828
3.8450,169.9260604
3.8500,169.9750367
3.8550,170.0233494
3.8600,170.071251
3.8650,170.1184355
3.8700,170.1649316
3.8750,170.2107162
3.8800,170.2558206
3.8850,170.3001572
3.8900,170.3436488
3.8950,170.3865194
3.9000,170.4289276
3.9050,170.4707607
3.9100,170.511694
3.9150,170.5518088
3.9200,170.5909456
3.9250,170.6291833
3.9300,170.666471
3.9350,170.7029015
3.9400,170.7382964
3.9450,170.7727406
3.9500,170.8059745
3.9550,170.8378726
3.9600,170.8685815
3.9650,170.8981026
3.9700,170.926301
3.9750,170.9533542
3.9800,170.9791578
3.9850,171.003612
3.9900,171.0267037
3.9950,171.0483459
4.0000,171.0683804
4.0050,171.0866584
4.0100,171.1030828
4.0150,171.1177512
4.0200,171.1305546
4.0250,171.1416864
4.0300,171.1508686
4.0350,171.1580654
4.0400,171.1632181
4.0450,171.1664562
4.0500,171.1674862
4.0550,171.1666521
4.0600,171.1638278
4.0650,171.1593702
4.0700,171.153089
4.0750,171.1450564
4.0800,171.1353647
4.0850,171.1237994
4.0900,171.1103446
4.0950,171.0952147
4.1000,171.0783371
4.1050,171.0598326
4.1100,171.0398491
4.1150,171.0184059
4.1200,170.9955162
4.1250,170.9710897
4.1300,170.9452378
4.1350,170.9177759
4.1400,170.8887652
4.1450,170.8580859
4.1500,170.8256229
4.1550,170.7912535
4.1600,170.7547329
4.1650,170.7164097
4.1700,170.676397
4.1750,170.634271
4.1800,170.5899894
4.1850,170.5436264
4.1900,170.4952013
4.1950,170.445014
4.2000,170.39274
4.2050,170.3384382
4.2100,170.2821464
4.2150,170.223966
4.2200,170.1641497
4.2250,170.1025571
4.2300,170.0394269
4.2350,169.9745999
4.2400,169.9083508
4.2450,169.8405328
4.2500,169.7715913
4.2550,169.7013753
4.2600,169.6299291
4.2650,169.5573638
4.2700,169.4836471
4.2750,169.4089232
4.2800,169.3332598
4.2850,169.2565987
4.2900,169.1790699
4.2950,169.1006605
4.3000,169.0214705
4.3050,168.9415133
4.3100,168.8609675
4.3150,168.7795828
4.3200,168.6975614
4.3250,168.6149071
4.3300,168.5314185
4.3350,168.4475538
4.3400,168.3631402
4.3450,168.2780815
4.3500,168.1926076
4.3550,168.1064719
4.3600,168.020003
4.3650,167.9329524
4.3700,167.8454436
4.3750,167.7573994
4.3800,167.6687591
4.3850,167.5794706
4.3900,167.4896275
4.3950,167.3991169
4.4000,167.3079097
4.4050,167.2157979
4.4100,167.1226833
4.4150,167.0285982
4.4200,166.933355
4.4250,166.8369039
4.4300,166.7392553
4.4350,166.6401822
4.4400,166.5396794
4.4450,166.4378133
4.4500,166.334469
4.4550,166.2297989
4.4600,166.1237981
4.4650,166.01608
4.4700,165.9065666
4.4750,165.7952903
4.4800,165.6822589
4.4850,165.5672154
4.4900,165.4503005
4.4950,165.3313404
4.5000,165.2104798
4.5050,165.0876309
4.5100,164.9630361
4.5150,164.8365682
4.5200,164.7080905
4.5250,164.5778492
4.5300,164.4456009
4.5350,164.3115671
4.5400,164.1756541
4.5450,164.038238
4.5500,163.8990352
4.5550,163.758625
4.5600,163.6169556
4.5650,163.4740837
4.5700,163.3303175
4.5750,163.1854283
4.5800,163.0396683
4.5850,162.8932109
4.5900,162.7459844
4.5950,162.5981102
4.6000,162.4497666
4.6050,162.3010415
4.6100,162.1519016
4.6150,162.0022951
4.6200,161.852043
4.6250,161.7013569
4.6300,161.5505716
4.6350,161.3993324
4.6400,161.2478532
4.6450,161.0961408
4.6500,160.9439691
4.6550,160.7914448
4.6600,160.6386022
4.6650,160.4854924
4.6700,160.3320519
4.6750,160.1782548
4.6800,160.0241585
4.6850,159.869458
4.6900,159.7143107
4.6950,159.5583257
4.7000,159.4016063
4.7050,159.2441141
4.7100,159.0857115
4.7150,158.9263707
4.7200,158.7658787
4.7250,158.6043739
4.7300,158.4416311
4.7350,158.2777548
4.7400,158.112494
4.7450,157.9457208
4.7500,157.7775098
4.7550,157.6073833
4.7600,157.4354106
4.7650,157.2616787
4.7700,157.0858229
4.7750,156.9082783
4.7800,156.7288548
4.7850,156.547845
4.7900,156.3652104
4.7950,156.180643
4.8000,155.9942754
4.8050,155.8060199
4.8100,155.6158271
4.8150,155.4234108
4.8200,155.2286047
4.8250,155.0312058
4.8300,154.8310985
4.8350,154.6285578
4.8400,154.4233811
4.8450,154.2153898
4.8500,154.0046694
4.8550,153.7909166
4.8600,153.5740988
4.8650,153.3544382
4.8700,153.1318788
4.8750,152.9067148
4.8800,152.678859
4.8850,152.4482597
4.8900,152.214757
4.8950,151.97821
4.9000,151.73819
4.9050,151.4945582
4.9100,151.2474002
4.9150,150.9969361
4.9200,150.7432078
4.9250,150.4860006
4.9300,150.2254524
4.9350,149.9617554
4.9400,149.6952789
4.9450,149.4259556
4.9500,149.1542017
4.9550,148.880053
4.9600,148.6031341
4.9650,148.3237894
4.9700,148.0420675
4.9750,147.7583388
4.9800,147.472619
4.9850,147.1855895
4.9900,146.8968397
4.9950,146.606777
5.0000,146.3155835
5.0050,146.0232444
5.0100,145.7301132
5.0150,145.4362338
5.0200,145.1415485
5.0250,144.8457859
5.0300,144.5488368
5.0350,144.2505653
5.0400,143.9507605
5.0450,143.6493405
5.0500,143.34612
5.0550,143.0411792
5.0600,142.7343134
5.0650,142.4254031
5.0700,142.1145635
5.0750,141.8016361
5.0800,141.4867271
5.0850,141.1696229
5.0900,140.850049
5.0950,140.5283901
5.1000,140.2042548
5.1050,139.8776501
5.1100,139.5483205
5.1150,139.2165731
5.1200,138.8825351
5.1250,138.5459696
5.1300,138.2069244
5.1350,137.8648484
5.1400,137.5197964
5.1450,137.1720277
5.1500,136.8213472
5.1550,136.4674499
5.1600,136.1101697
5.1650,135.7491758
5.1700,135.3845125
5.1750,135.0159486
5.1800,134.6434106
5.1850,134.2669383
5.1900,133.8868198
5.1950,133.5029377
5.2000,133.1155558
5.2050,132.7248204
5.2100,132.3305478
5.2150,131.9329619
5.2200,131.5320713
5.2250,131.1281827
5.2300,130.7213744
5.2350,130.3112646
5.2400,129.8979378
5.2450,129.4813342
5.2500,129.0612468
5.2550,128.637706
5.2600,128.2109893
5.2650,127.7807892
5.2700,127.34717
5.2750,126.9098929
5.2800,126.469384
5.2850,126.0250799
5.2900,125.5773928
5.2950,125.1264026
5.3000,124.6720163
5.3050,124.2142908
5.3100,123.7528496
5.3150,123.2874112
5.3200,122.8184383
5.3250,122.3458554
5.3300,121.8692463
5.3350,121.3887442
5.3400,120.904189
5.3450,120.4154812
5.3500,119.9227114
5.3550,119.4257212
5.3600,118.9246139
5.3650,118.4192331
5.3700,117.9095523
5.3750,117.3958328
5.3800,116.877808
5.3850,116.3555441
5.3900,115.8292472
5.3950,115.2983729
5.4000,114.763165
5.4050,114.2238251
5.4100,113.680137
5.4150,113.131611
5.4200,112.5784546
5.4250,112.0209017
5.4300,111.4587675
5.4350,110.891898
5.4400,110.3204984
5.4450,109.7443802
5.4500,109.1634216
5.4550,108.5776323
5.4600,107.9873768
5.4650,107.3924481
5.4700,106.7925393
5.4750,106.1878546
5.4800,105.5784054
5.4850,104.9643688
5.4900,104.345713
5.4950,103.7230159
5.5000,103.0966851
5.5050,102.4666642
5.5100,101.8334765
5.5150,101.1969991
5.5200,100.557542
5.5250,99.91491494
5.5300,99.26926571
5.5350,98.62115508
5.5400,97.97019978
5.5450,97.31695752
5.5500,96.66163592
5.5550,96.00429373
5.5600,95.34535413
5.5650,94.68500998
5.5700,94.02339471
5.5750,93.36107207
5.5800,92.69787623
5.5850,92.03409726
5.5900,91.37010289
5.5950,90.70601669
5.6000,90.04176297
5.6050,89.37811608
5.6100,88.71553158
5.6150,88.0541154
5.6200,87.39408673
5.6250,86.73592793
5.6300,86.08025982
5.6350,85.42757298
5.6400,84.77795936
5.6450,84.13192919
5.6500,83.48956561
5.6550,82.85121355
5.6600,82.21704587
5.6650,81.58742136
5.6700,80.96233972
5.6750,80.34169053
5.6800,79.72620978
5.6850,79.11566658
5.6900,78.51017238
5.6950,77.90992816
5.7000,77.3147097
5.7050,76.7248809
5.7100,76.14070617
5.7150,75.56200118
5.7200,74.98838611
5.7250,74.4200226
5.7300,73.8570419
5.7350,73.29953435
5.7400,72.74782648
5.7450,72.20146435
5.7500,71.66041051
5.7550,71.12441979
5.7600,70.5934771
5.7650,70.06727445
5.7700,69.54607977
5.7750,69.02971847
5.7800,68.5183288
5.7850,68.01149724
5.7900,67.5094173
5.7950,67.01179121
5.8000,66.517996
5.8050,66.0283326
5.8100,65.54237754
5.8150,65.06048695
5.8200,64.58215423
5.8250,64.10789602
5.8300,63.63728632
5.8350,63.17011651
5.8400,62.70654429
5.8450,62.2463422
5.8500,61.78934775
5.8550,61.33566558
5.8600,60.88484725
5.8650,60.4374726
5.8700,59.99378304
5.8750,59.55396201
5.8800,59.11786645
5.8850,58.68539728
5.8900,58.25615351
5.8950,57.83034549
5.9000,57.40818792
5.9050,56.9895034
5.9100,56.57434942
5.9150,56.16292943
5.9200,55.75518085
5.9250,55.35116461
5.9300,54.95056596
5.9350,54.55328136
5.9400,54.15970197
5.9450,53.76966943
5.9500,53.38293632
5.9550,52.99953425
5.9600,52.61903714
5.9650,52.24163491
5.9700,51.86743836
5.9750,51.49609146
5.9800,51.12748175
5.9850,50.76180975
5.9900,50.3986432
5.9950,50.03840373
6.0000,49.68078796
6.0050,49.32551035
6.0100,48.97219014
6.0150,48.62091292
6.0200,48.2716874
6.0250,47.92383228
6.0300,47.5768587
6.0350,47.23073286
6.0400,46.88525554
6.0450,46.54065647
6.0500,46.19728805
6.0550,45.85505183
6.0600,45.51399765
6.0650,45.17437158
6.0700,44.83575509
6.0750,44.49804711
6.0800,44.16097606
6.0850,43.82445994
6.0900,43.48830861
6.0950,43.15269058
6.1000,42.81817208
6.1050,42.48445728
6.1100,42.15200505
6.1150,41.82072619
6.1200,41.4906644
6.1250,41.1615267
6.1300,40.8334225
6.1350,40.50613292
6.1400,40.17960247
6.1450,39.85380551
6.1500,39.52852168
6.1550,39.20355696
6.1600,38.87936657
6.1650,38.55585121
6.1700,38.23302446
6.1750,37.91077357
6.1800,37.58942364
6.1850,37.26888408
6.1900,36.94953765
6.1950,36.63175141
6.2000,36.31530784
6.2050,36.00014481
6.2100,35.68637107
6.2150,35.37383134
6.2200,35.06250326
6.2250,34.75208334
6.2300,34.44261672
6.2350,34.13402816
6.2400,33.82622198
6.2450,33.51948065
6.2500,33.21395979
6.2550,32.91003621
6.2600,32.60777521
6.2650,32.30724141
6.2700,32.00825415
6.2750,31.71084246
6.2800,31.41513294
6.2850,31.1210198
6.2900,30.82863627
6.2950,30.53785115
6.3000,30.24886905
6.3050,29.9619986
6.3100,29.67735795
6.3150,29.39509486
6.3200,29.11505986
6.3250,28.83791092
6.3300,28.56362692
6.3350,28.29247017
6.3400,28.02425888
6.3450,27.75907717
6.3500,27.49670098
6.3550,27.23711394
6.3600,26.98017155
6.3650,26.72566945
6.3700,26.47380672
6.3750,26.22472991
6.3800,25.97872871
6.3850,25.73593513
6.3900,25.4961479
6.3950,25.25949003
6.4000,25.02568606
6.4050,24.79475426
6.4100,24.56637096
6.4150,24.34038533
6.4200,24.11696252
6.4250,23.89609934
6.4300,23.67763442
6.4350,23.46166005
6.4400,23.24818634
6.4450,23.03704118
6.4500,22.82869822
6.4550,22.62303835
6.4600,22.4198678
6.4650,22.21916783
6.4700,22.02063063
6.4750,21.82396238
6.4800,21.62891558
6.4850,21.43555433
6.4900,21.24365365
6.4950,21.05295435
6.5000,20.86336118
6.5050,20.6747597
6.5100,20.4872287
6.5150,20.3004762
6.5200,20.11462229
6.5250,19.92963918
6.5300,19.74556631
6.5350,19.5624924
6.5400,19.38036135
6.5450,19.19931677
6.5500,19.01940284
6.5550,18.84042346
6.5600,18.66249187
6.5650,18.4856161
6.5700,18.30990624
6.5750,18.13560312
6.5800,17.96259203
6.5850,17.79091938
6.5900,17.62114727
6.5950,17.4532684
6.6000,17.28767933
6.6050,17.12429723
6.6100,16.96347871
6.6150,16.80552725
6.6200,16.65065555
6.6250,16.49880544
6.6300,16.35001294
6.6350,16.20433
6.6400,16.0619075
6.6450,15.92286619
6.6500,15.78745697
6.6550,15.6557488
6.6600,15.52782919
6.6650,15.40357967
6.6700,15.28331061
6.6750,15.16668277
6.6800,15.05369885
6.6850,14.94441248
6.6900,14.83905311
6.6950,14.73723962
6.7000,14.63921499
6.7050,14.54479965
6.7100,14.45383217
6.7150,14.3661678
6.7200,14.28158819
6.7250,14.19964332
6.7300,14.12048227
6.7350,14.04377085
6.7400,13.9692549
6.7450,13.89678176
6.7500,13.82611758
6.7550,13.75696657
6.7600,13.68917254
6.7650,13.6225502
6.7700,13.55694365
6.7750,13.49223525
6.7800,13.42830992
6.7850,13.364952
6.7900,13.30208576
6.7950,13.2395709
6.8000,13.17748342
6.8050,13.11592904
6.8100,13.05471286
6.8150,12.99404573
6.8200,12.93368196
6.8250,12.87371146
6.8300,12.81410599
6.8350,12.7548491
6.8400,12.6958658
6.8450,12.63718762
6.8500,12.57871586
6.8550,12.52046877
6.8600,12.46251003
6.8650,12.4046994
6.8700,12.34716186
6.8750,12.28984386
6.8800,12.2327166
6.8850,12.17586672
6.8900,12.11924694
6.8950,12.06278748
6.9000,12.00640084
6.9050,11.95015484
6.9100,11.89397036
6.9150,11.83780251
6.9200,11.78176559
6.9250,11.72598483
6.9300,11.67063975
6.9350,11.61585374
6.9400,11.56183401
6.9450,11.50852373
6.9500,11.45607013
6.9550,11.4045891
6.9600,11.35408673
6.9650,11.30488376
6.9700,11.25672449
6.9750,11.20975406
6.9800,11.16397388
6.9850,11.11929293
6.9900,11.07565467
6.9950,11.03310985
7.0000,10.99148913
7.0050,10.95080937
7.0100,10.91104072
7.0150,10.87222521
7.0200,10.83429803
7.0250,10.79728845
7.0300,10.76110055
7.0350,10.7257995
7.0400,10.6913475
7.0450,10.65786984
7.0500,10.62494294
7.0550,10.59298929
7.0600,10.56200048
7.0650,10.53185205
7.0700,10.5026853
7.0750,10.47439836
7.0800,10.44711768
7.0850,10.4208711
7.0900,10.39577598
7.0950,10.37175299
7.1000,10.3487214
7.1050,10.32679
7.1100,10.30598455
7.1150,10.28631211
7.1200,10.26788662
7.1250,10.25082172
7.1300,10.23524092
7.1350,10.22106235
7.1400,10.20862515
7.1450,10.19793767
7.1500,10.18915979
7.1550,10.1824678
7.1600,10.17785647
7.1650,10.1755462
7.1700,10.17561806
7.1750,10.17809871
7.1800,10.18323424
7.1850,10.19108462
7.1900,10.20152332
7.1950,10.21502574
7.2000,10.23164216
7.2050,10.25162153
7.2100,10.27498082
7.2150,10.30156443
7.2200,10.33161622
7.2250,10.36509064
7.2300,10.40209163
7.2350,10.44258723
7.2400,10.48652195
7.2450,10.53403382
7.2500,10.58529607
7.2550,10.6404073
7.2600,10.69966433
7.2650,10.76288479
7.2700,10.83029967
7.2750,10.90198172
7.2800,10.97802954
7.2850,11.05842431
7.2900,11.14334709
7.2950,11.23286932
7.3000,11.32690795
7.3050,11.42554851
7.3100,11.52882327
7.3150,11.63653766
7.3200,11.74883712
7.3250,11.86588921
7.3300,11.98748744
7.3350,12.11362116
7.3400,12.24430171
7.3450,12.37943179
7.3500,12.51915489
7.3550,12.66323395
7.3600,12.81161905
7.3650,12.96422955
7.3700,13.12085321
7.3750,13.28151052
7.3800,13.4458059
7.3850,13.61366527
7.3900,13.78508273
7.3950,13.96010684
7.4000,14.13856086
7.4050,14.3201946
7.4100,14.50483684
7.4150,14.69250633
7.4200,14.88291211
7.4250,15.07613332
7.4300,15.2720292
7.4350,15.4706723
7.4400,15.67171277
7.4450,15.87515938
7.4500,16.08110229
7.4550,16.28941879
7.4600,16.49996956
7.4650,16.71282594
7.4700,16.92796522
7.4750,17.1455104
7.4800,17.36544992
7.4850,17.58789125
7.4900,17.81278429
7.4950,18.03979619
7.5000,18.26898096
7.5050,18.50007486
7.5100,18.73290598
7.5150,18.96759646
7.5200,19.20398933
7.5250,19.44217379
7.5300,19.68193872
7.5350,19.92348219
7.5400,20.16679503
7.5450,20.41182782
7.5500,20.6583845
7.5550,20.90631913
7.5600,21.15518914
7.5650,21.40483472
7.5700,21.65504642
7.5750,21.90580505
7.5800,22.15679624
7.5850,22.40807339
7.5900,22.65932378
7.5950,22.91056226
7.6000,23.16167232
7.6050,23.41284516
7.6100,23.66385576
7.6150,23.91482861
7.6200,24.16567651
7.6250,24.41628902
7.6300,24.66693796
7.6350,24.91793446
7.6400,25.16927694
7.6450,25.42091401
7.6500,25.6729623
7.6550,25.92541864
7.6600,26.17833304
7.6650,26.43166682
7.6700,26.6856495
7.6750,26.94051228
7.6800,27.19645226
7.6850,27.4535595
7.6900,27.71186046
7.6950,27.97128296
7.7000,28.23202129
7.7050,28.4943787
7.7100,28.75826934
7.7150,29.02346679
7.7200,29.29038992
7.7250,29.55874365
7.7300,29.82841363
7.7350,30.09949085
7.7400,30.37209708
7.7450,30.64641797
7.7500,30.92240991
7.7550,31.20049318
7.7600,31.48088888
7.7650,31.76374308
7.7700,32.04927912
7.7750,32.33721781
7.7800,32.62765003
7.7850,32.92073872
7.7900,33.21647469
7.7950,33.5150794
7.8000,33.816662
7.8050,34.12155072
7.8100,34.43043068
7.8150,34.74316661
7.8200,35.05999124
7.8250,35.38081895
7.8300,35.70594806
7.8350,36.03527454
7.8400,36.36872766
7.8450,36.70640437
7.8500,37.04806545
7.8550,37.39391858
7.8600,37.74384887
7.8650,38.09810906
7.8700,38.45654689
7.8750,38.81933471
7.8800,39.18654551
7.8850,39.55801958
7.8900,39.93391041
7.8950,40.31389904
7.9000,40.69776761
7.9050,41.08501706
7.9100,41.47584757
7.9150,41.87016885
7.9200,42.26784203
7.9250,42.66876009
7.9300,43.07296042
7.9350,43.48015717
7.9400,43.89023897
7.9450,44.30329305
7.9500,44.7192334
7.9550,45.13795043
7.9600,45.55945589
7.9650,45.98383493
7.9700,46.41119805
7.9750,46.84140805
7.9800,47.27444509
7.9850,47.71010052
7.9900,48.14844927
7.9950,48.589408
8.0000,49.03258744
8.0050,49.47800955
8.0100,49.92574733
8.0150,50.37587119
8.0200,50.82818653
8.0250,51.28265933
8.0300,51.73957821
8.0350,52.19851894
8.0400,52.65972022
8.0450,53.12300242
8.0500,53.58839932
8.0550,54.05561537
8.0600,54.52500792
8.0650,54.99630763
8.0700,55.46955444
8.0750,55.94511339
8.0800,56.42288879
8.0850,56.90275764
8.0900,57.3850461
8.0950,57.869698
8.1000,58.35685153
8.1050,58.84642491
8.1100,59.33783801
8.1150,59.83135204
8.1200,60.32705365
8.1250,60.82503614
8.1300,61.32556606
8.1350,61.82832972
8.1400,62.33331639
8.1450,62.84058886
8.1500,63.35045915
8.1550,63.86271337
8.1600,64.37745236
8.1650,64.89459416
8.1700,65.41401149
8.1750,65.93594955
8.1800,66.46025856
8.1850,66.98697254
8.1900,67.51602575
8.1950,68.04763606
8.2000,68.58205154
8.2050,69.11967413
8.2100,69.6600816
8.2150,70.20335041
8.2200,70.74984796
8.2250,71.29964317
8.2300,71.85263421
8.2350,72.40845767
8.2400,72.9671614
8.2450,73.52884335
8.2500,74.09352379
8.2550,74.66135171
8.2600,75.23219084
8.2650,75.80599369
8.2700,76.3827176
8.2750,76.96212604
8.2800,77.54422638
8.2850,78.12921227
8.2900,78.71712049
8.2950,79.30775811
8.3000,79.90121355
8.3050,80.49733596
8.3100,81.09602807
8.3150,81.69730002
8.3200,82.30106905
8.3250,82.90713866
8.3300,83.51539783
8.3350,84.12613111
8.3400,84.73893193
8.3450,85.35367011
8.3500,85.97042497
8.3550,86.58924809
8.3600,87.20951271
8.3650,87.83155695
8.3700,88.45497519
8.3750,89.07976653
8.3800,89.70576286
8.3850,90.3327856
8.3900,90.96086759
8.3950,91.58955387
8.4000,92.21899544
8.4050,92.84933093
8.4100,93.48029642
8.4150,94.11195948
8.4200,94.74422787
8.4250,95.37706821
8.4300,96.01000971
8.4350,96.64315187
8.4400,97.27684366
8.4450,97.91045646
8.4500,98.54400538
8.4550,99.17718461
8.4600,99.81000382
8.4650,100.4421457
8.4700,101.0739507
8.4750,101.7049323
8.4800,102.3351033
8.4850,102.9645603
8.4900,103.5927342
8.4950,104.2196378
8.5000,104.845141
8.5050,105.468818
8.5100,106.0907215
8.5150,106.7106381
8.5200,107.3283837
8.5250,107.9438044
8.5300,108.5564146
8.5350,109.166783
8.5400,109.7748449
8.5450,110.3804821
8.5500,110.9829385
8.5550,111.5822065
8.5600,112.1786563
8.5650,112.7721542
8.5700,113.3623768
8.5750,113.9494254
8.5800,114.5325927
8.5850,115.1115918
8.5900,115.6866231
8.5950,116.2577972
8.6000,116.8246842
8.6050,117.3874345
8.6100,117.9458296
8.6150,118.5000645
8.6200,119.0496628
8.6250,119.5950963
8.6300,120.1367468
8.6350,120.6741131
8.6400,121.2069982
8.6450,121.7354799
8.6500,122.2596755
8.6550,122.7796926
8.6600,123.2958965
8.6650,123.8078137
8.6700,124.3158271
8.6750,124.8199988
8.6800,125.3206606
8.6850,125.8180845
8.6900,126.3121972
8.6950,126.8033627
8.7000,127.2917159
8.7050,127.7769288
8.7100,128.2596143
8.7150,128.7400208
8.7200,129.2177235
8.7250,129.6927226
8.7300,130.1649577
8.7350,130.6340427
8.7400,131.0997913
8.7450,131.5625848
8.7500,132.0223661
8.7550,132.4794823
8.7600,132.9336669
8.7650,133.3852653
8.7700,133.8337718
8.7750,134.2795029
8.7800,134.7222752
8.7850,135.1619962
8.7900,135.5986071
8.7950,136.0323322
8.8000,136.4633064
8.8050,136.8915526
8.8100,137.3174515
8.8150,137.7411401
8.8200,138.1627117
8.8250,138.5827099
8.8300,139.0016259
8.8350,139.4192808
8.8400,139.8355643
8.8450,140.2505643
8.8500,140.6643166
8.8550,141.0765373
8.8600,141.4869218
8.8650,141.895269
8.8700,142.3016302
8.8750,142.7057692
8.8800,143.1078539
8.8850,143.5077735
8.8900,143.9050991
8.8950,144.2991037
8.9000,144.6903594
8.9050,145.0782067
8.9100,145.4629729
8.9150,145.8434118
8.9200,146.2196043
8.9250,146.591286
8.9300,146.9590279
8.9350,147.3230195
8.9400,147.6838491
8.9450,148.0422012
8.9500,148.3980322
8.9550,148.7513421
8.9600,149.1023182
8.9650,149.4511903
8.9700,149.7979163
8.9750,150.1426604
8.9800,150.4853735
8.9850,150.8259414
8.9900,151.1643651
8.9950,151.5007925
9.0000,151.8352996
9.0050,152.1681713
9.0100,152.4994856
9.0150,152.8292411
9.0200,153.1577206
9.0250,153.4850716
9.0300,153.8113443
9.0350,154.1369383
9.0400,154.4614906
9.0450,154.7850205
9.0500,155.1077079
9.0550,155.4294143
9.0600,155.7501585
9.0650,156.0696562
9.0700,156.3882142
9.0750,156.7059605
9.0800,157.0225783
9.0850,157.3380621
9.0900,157.6522291
9.0950,157.9645625
9.1000,158.2746415
9.1050,158.5823406
9.1100,158.8873026
9.1150,159.1890622
9.1200,159.4877419
9.1250,159.7829744
9.1300,160.0745016
9.1350,160.3622361
9.1400,160.6460896
9.1450,160.9258323
9.1500,161.2016658
9.1550,161.4736944
9.1600,161.741752
9.1650,162.0061271
9.1700,162.2668383
9.1750,162.5236695
9.1800,162.7767012
9.1850,163.0256878
9.1900,163.2704471
9.1950,163.5114674
9.2000,163.748592
9.2050,163.982321
9.2100,164.2124991
9.2150,164.440106
9.2200,164.6653312
9.2250,164.8883866
9.2300,165.1089518
9.2350,165.3270344
9.2400,165.5428174
9.2450,165.7561237
9.2500,165.9673049
9.2550,166.1763793
9.2600,166.3832834
9.2650,166.5885147
9.2700,166.7923868
9.2750,166.9951623
9.2800,167.1968077
9.2850,167.3974701
9.2900,167.5970244
9.2950,167.7957064
9.3000,167.9931916
9.3050,168.1892355
9.3100,168.3836787
9.3150,168.5762012
9.3200,168.7666737
9.3250,168.9550255
9.3300,169.1415609
9.3350,169.3261384
9.3400,169.5087361
9.3450,169.6892963
9.3500,169.8672784
9.3550,170.0427706
9.3600,170.2158415
9.3650,170.3864934
9.3700,170.5548595
9.3750,170.720615
9.3800,170.883551
9.3850,171.0436324
9.3900,171.2007979
9.3950,171.3553129
9.4000,171.5070337
9.4050,171.6558271
9.4100,171.8017366
9.4150,171.9451539
9.4200,172.0859154
9.4250,172.2240488
9.4300,172.3594979
9.4350,172.4922926
9.4400,172.6225769
9.4450,172.7504006
9.4500,172.8754295
9.4550,172.9979326
9.4600,173.1179083
9.4650,173.2353737
9.4700,173.3500754
9.4750,173.4622864
9.4800,173.5718655
9.4850,173.679285
9.4900,173.7848159
9.4950,173.8885117
9.5000,173.9903673
9.5050,174.0900978
9.5100,174.1878619
9.5150,174.2834376
9.5200,174.3769448
9.5250,174.4683569
9.5300,174.5574766
9.5350,174.644478
9.5400,174.7292052
9.5450,174.8119696
9.5500,174.8926254
9.5550,174.97167
9.5600,175.0493171
9.5650,175.1255554
9.5700,175.2003591
9.5750,175.2738852
9.5800,175.3461028
9.5850,175.4171223
9.5900,175.4872381
9.5950,175.5562428
9.6000,175.6246415
9.6050,175.6924785
9.6100,175.7598476
9.6150,175.8269885
9.6200,175.8939726
9.6250,175.9608164
9.6300,176.02745
9.6350,176.0938547
9.6400,176.1604253
9.6450,176.2272834
9.6500,176.2946039
9.6550,176.3623653
9.6600,176.4305103
9.6650,176.4990842
9.6700,176.5681062
9.6750,176.6374597
9.6800,176.7074315
9.6850,176.7779419
9.6900,176.8489108
9.6950,176.9200688
9.7000,176.9916706
9.7050,177.0634359
9.7100,177.1351515
9.7150,177.2064032
9.7200,177.2768751
9.7250,177.3464632
9.7300,177.4151215
9.7350,177.4824868
9.7400,177.5485081
9.7450,177.612948
9.7500,177.6757567
9.7550,177.736658
9.7600,177.7956463
9.7650,177.8526196
9.7700,177.9075447
9.7750,177.9602491
9.7800,178.0107397
9.7850,178.0588169
9.7900,178.1043391
9.7950,178.1473068
9.8000,178.1874784
9.8050,178.224794
9.8100,178.2593004
9.8150,178.2909505
9.8200,178.3198026
9.8250,178.3457378
9.8300,178.3688484
9.8350,178.3889773
9.8400,178.4061728
9.8450,178.4203113
9.8500,178.4314637
9.8550,178.4393825
9.8600,178.4439875
9.8650,178.445353
9.8700,178.4435821
9.8750,178.4385476
9.8800,178.4306294
9.8850,178.419652
9.8900,178.4058048
9.8950,178.3891143
9.9000,178.369329
9.9050,178.3467004
9.9100,178.3213004
9.9150,178.2929468
9.9200,178.2618521
9.9250,178.2279627
9.9300,178.1911341
9.9350,178.1515639
9.9400,178.1091973
9.9450,178.0636306
9.9500,178.0149917
9.9550,177.9631875
9.9600,177.9080565
9.9650,177.8498473
9.9700,177.7882181
9.9750,177.723564
9.9800,177.6556238
9.9850,177.5844949
9.9900,177.5103565
9.9950,177.432966
10.0000,177.3524052
10.0050,177.268904
10.0100,177.1821829
10.0150,177.0924453
10.0200,176.9998543
10.0250,176.9043071
10.0300,176.8056767
10.0350,176.7042776
10.0400,176.6001538
10.0450,176.4933532
10.0500,176.3841876
10.0550,176.2726453
10.0600,176.1586373
10.0650,176.0421851
10.0700,175.9233177
10.0750,175.8019529
10.0800,175.6780404
10.0850,175.5516386
10.0900,175.422906
10.0950,175.2914946
10.1000,175.1576388
10.1050,175.0217122
10.1100,174.8837695
10.1150,174.743775
10.1200,174.6016931
10.1250,174.4577364
10.1300,174.3118541
10.1350,174.1641786
10.1400,174.0146861
10.1450,173.863144
10.1500,173.7096119
10.1550,173.5542031
10.1600,173.3969948
10.1650,173.238001
10.1700,173.0772094
10.1750,172.9148238
10.1800,172.7506235
10.1850,172.5847669
10.1900,172.4173118
10.1950,172.2482259
10.2000,172.0775466
10.2050,171.9050763
10.2100,171.7306158
10.2150,171.5544976
10.2200,171.3766865
10.2250,171.1969668
10.2300,171.0156215
10.2350,170.8323029
10.2400,170.6468854
10.2450,170.4595074
10.2500,170.2701831
10.2550,170.0788837
10.2600,169.885642
10.2650,169.6900708
10.2700,169.4927603
10.2750,169.293365
10.2800,169.0919045
10.2850,168.8883171
10.2900,168.6823273
10.2950,168.4738879
10.3000,168.2629761
10.3050,168.0495919
10.3100,167.833965
10.3150,167.616183
10.3200,167.3959673
10.3250,167.1733785
10.3300,166.9482551
10.3350,166.7203911
10.3400,166.4899395
10.3450,166.2565538
10.3500,166.0201937
10.3550,165.7806076
10.3600,165.5380198
10.3650,165.2922198
10.3700,165.0433732
10.3750,164.7915637
10.3800,164.5369252
10.3850,164.2794363
10.3900,164.0189263
10.3950,163.7556646
10.4000,163.4898371
10.4050,163.2212571
10.4100,162.9501264
10.4150,162.6766624
10.4200,162.4009796
10.4250,162.122978
10.4300,161.8425485
10.4350,161.5597354
10.4400,161.2744939
10.4450,160.9870548
10.4500,160.6975055
10.4550,160.405642
10.4600,160.1115757
10.4650,159.8152476
10.4700,159.5165951
10.4750,159.215593
10.4800,158.9123733
10.4850,158.6072769
10.4900,158.2999029
10.4950,157.9903226
10.5000,157.6785915
10.5050,157.364926
10.5100,157.0492267
10.5150,156.7313097
10.5200,156.4111352
10.5250,156.0888617
10.5300,155.7642377
10.5350,155.4373951
10.5400,155.1083713
10.5450,154.7772545
10.5500,154.4440365
10.5550,154.1087093
10.5600,153.7712116
10.5650,153.4317264
10.5700,153.0898138
10.5750,152.7454678
10.5800,152.3988022
10.5850,152.0497055
10.5900,151.6983386
10.5950,151.3449258
10.6000,150.9895082
10.6050,150.6318378
10.6100,150.2722686
10.6150,149.9103575
10.6200,149.5465578
10.6250,149.1809636
10.6300,148.8136652
10.6350,148.44481
10.6400,148.0736025
10.6450,147.7001424
10.6500,147.3240543
10.6550,146.9457947
10.6600,146.5651335
10.6650,146.1819747
10.6700,145.7961427
10.6750,145.4076384
10.6800,145.0163127
10.6850,144.6220949
10.6900,144.2248401
10.6950,143.8246028
10.7000,143.4206907
10.7050,143.0131996
10.7100,142.6018007
10.7150,142.1865801
10.7200,141.7669988
10.7250,141.3428786
10.7300,140.9140567
10.7350,140.4805898
10.7400,140.0420198
10.7450,139.5980927
10.7500,139.1482829
10.7550,138.6926251
10.7600,138.230462
10.7650,137.7619256
10.7700,137.2869654
10.7750,136.8054667
10.7800,136.3172216
10.7850,135.8215926
10.7900,135.3184228
10.7950,134.8078173
10.8000,134.2892086
10.8050,133.7625433
10.8100,133.2278051
10.8150,132.6847016
10.8200,132.1329594
10.8250,131.5730968
10.8300,131.0054226
10.8350,130.4302168
10.8400,129.8473411
10.8450,129.257144
10.8500,128.6595942
10.8550,128.0550185
10.8600,127.4433068
10.8650,126.8246379
10.8700,126.1993327
10.8750,125.5671363
10.8800,124.9285109
10.8850,124.2833638
10.8900,123.6321738
10.8950,122.9747843
10.9000,122.3110659
10.9050,121.6418412
10.9100,120.9668137
10.9150,120.2867733
10.9200,119.6010588
10.9250,118.9095939
10.9300,118.212527
10.9350,117.509454
10.9400,116.8008839
10.9450,116.0868778
10.9500,115.3681654
10.9550,114.6441229
10.9600,113.9146324
10.9650,113.1801461
10.9700,112.4404462
10.9750,111.6953801
10.9800,110.9445255
10.9850,110.1883206
10.9900,109.4266538
10.9950,108.6594647
11.0000,107.8869505
11.0050,107.1088686
11.0100,106.3250855
11.0150,105.5356889
11.0200,104.7404563
11.0250,103.9391889
11.0300,103.1325358
11.0350,102.3204184
11.0400,101.5028385
11.0450,100.6798775
11.0500,99.85138887
11.0550,99.01760008
11.0600,98.17860641
11.0650,97.33438408
11.0700,96.48477861
11.0750,95.63013883
11.0800,94.77087084
11.0850,93.90701169
11.0900,93.03922275
11.0950,92.16720686
11.1000,91.29154242
11.1050,90.41238753
11.1100,89.53035279
11.1150,88.64607666
11.1200,87.76004174
11.1250,86.87254703
11.1300,85.98386947
11.1350,85.09496358
11.1400,84.20625315
11.1450,83.3177197
11.1500,82.43042417
11.1550,81.54483847
11.1600,80.66159697
11.1650,79.78135015
11.1700,78.9040487
11.1750,78.03089045
11.1800,77.16164735
11.1850,76.29653517
11.1900,75.43636138
11.1950,74.58123667
11.2000,73.73202021
11.2050,72.88864103
11.2100,72.05176958
11.2150,71.22146957
11.2200,70.3985274
11.2250,69.58328495
11.2300,68.77580668
11.2350,67.97637856
11.2400,67.18537601
11.2450,66.40325591
11.2500,65.63043007
11.2550,64.86741997
11.2600,64.114559
11.2650,63.37193379
11.2700,62.64033585
11.2750,61.92003046
11.2800,61.21123891
11.2850,60.51400653
11.2900,59.82848436
11.2950,59.1547315
11.3000,58.49228315
11.3050,57.84137914
11.3100,57.20199917
11.3150,56.57429935
11.3200,55.95899299
11.3250,55.3559036
11.3300,54.76470573
11.3350,54.18582048
11.3400,53.61913908
11.3450,53.06445078
11.3500,52.52085642
11.3550,51.98773185
11.3600,51.46491543
11.3650,50.95184001
11.3700,50.44847914
11.3750,49.95436438
11.3800,49.46904836
11.3850,48.9927558
11.3900,48.52522764
11.3950,48.06654077
11.4000,47.6168102
11.4050,47.17575548
11.4100,46.74306716
11.4150,46.31858784
11.4200,45.90214864
11.4250,45.49325558
11.4300,45.0915313
11.4350,44.6964592
11.4400,44.30769677
11.4450,43.92516355
11.4500,43.54809911
11.4550,43.17609618
11.4600,42.80870018
11.4650,42.44561234
11.4700,42.0869149
11.4750,41.73237924
11.4800,41.38272573
11.4850,41.03775413
11.4900,40.69720819
11.4950,40.36096493
11.5000,40.02837327
11.5050,39.69916287
11.5100,39.37292599
11.5150,39.0493563
11.5200,38.72834397
11.5250,38.40961311
11.5300,38.09316176
11.5350,37.77898354
11.5400,37.46679848
11.5450,37.15644143
11.5500,36.84774719
11.5550,36.54032443
11.5600,36.23393904
11.5650,35.92858654
11.5700,35.62397784
11.5750,35.31961979
11.5800,35.01557772
11.5850,34.71167427
11.5900,34.40781122
11.5950,34.10395847
11.6000,33.8003427
11.6050,33.49671388
11.6100,33.19304353
11.6150,32.88938962
11.6200,32.5854064
11.6250,32.28118604
11.6300,31.9768993
11.6350,31.67236219
11.6400,31.36763775
11.6450,31.06301558
11.6500,30.75873998
11.6550,30.45501948
11.6600,30.15224738
11.6650,29.85062718
11.6700,29.5506779
11.6750,29.25245982
11.6800,28.95661735
11.6850,28.66327402
11.6900,28.37297138
11.6950,28.08603243
11.7000,27.80244784
11.7050,27.52259085
11.7100,27.24665772
11.7150,26.97473373
11.7200,26.70684269
11.7250,26.44332634
11.7300,26.18404393
11.7350,25.92913478
11.7400,25.67832787
11.7450,25.43138869
11.7500,25.18828702
11.7550,24.94886465
11.7600,24.71326179
11.7650,24.48105259
11.7700,24.25219635
11.7750,24.02663605
11.7800,23.80363739
11.7850,23.58293885
11.7900,23.36384137
11.7950,23.14601796
11.8000,22.92943981
11.8050,22.71404463
11.8100,22.49965276
11.8150,22.28629006
11.8200,22.07342314
11.8250,21.86095279
11.8300,21.64867262
11.8350,21.43639714
11.8400,21.22404691
11.8450,21.0117029
11.8500,20.79926509
11.8550,20.58709645
11.8600,20.37522816
11.8650,20.16382574
11.8700,19.95266702
11.8750,19.74209311
11.8800,19.53244866
11.8850,19.32367075
11.8900,19.11594718
11.8950,18.90965723
11.9000,18.70502112
11.9050,18.50227697
11.9100,18.30181965
11.9150,18.10392843
11.9200,17.9088934
11.9250,17.7168011
11.9300,17.5277568
11.9350,17.34188536
11.9400,17.15956107
11.9450,16.9805491
11.9500,16.80486876
11.9550,16.63268192
11.9600,16.46381935
11.9650,16.29850499
11.9700,16.13657073
11.9750,15.97827175
11.9800,15.82352918
11.9850,15.67222322
11.9900,15.52437146
11.9950,15.37968554
12.0000,15.23821113
12.0050,15.09975176
12.0100,14.96408484
12.0150,14.83124287
12.0200,14.70132352
12.0250,14.5739542
12.0300,14.44943521
12.0350,14.32743511
12.0400,14.20799902
12.0450,14.09118412
12.0500,13.97668841
12.0550,13.86444471
12.0600,13.75421486
12.0650,13.64587042
12.0700,13.53930246
12.0750,13.4342102
12.0800,13.33064515
12.0850,13.22831944
12.0900,13.12758241
12.0950,13.0282035
12.1000,12.93020572
12.1050,12.83331788
12.1100,12.73766429
12.1150,12.6431573
12.1200,12.54981469
12.1250,12.4576752
12.1300,12.3667248
12.1350,12.27685104
12.1400,12.18803835
12.1450,12.10005319
12.1500,12.01279133
12.1550,11.9260205
12.1600,11.83987897
12.1650,11.75400164
12.1700,11.66857171
12.1750,11.58354577
12.1800,11.4984817
12.1850,11.41332097
12.1900,11.32824046
12.1950,11.2427425
12.2000,11.15680351
12.2050,11.07007152
12.2100,10.98248144
12.2150,10.89382082
12.2200,10.80395256
12.2250,10.71313354
12.2300,10.62127219
12.2350,10.52858388
12.2400,10.43494272
12.2450,10.34070085
12.2500,10.24613758
12.2550,10.15137011
12.2600,10.05670039
12.2650,9.962440457
12.2700,9.86896406
12.2750,9.776240552
12.2800,9.684437914
12.2850,9.593782832
12.2900,9.504404901
12.2950,9.416417014
12.3000,9.330080904
12.3050,9.24557137
12.3100,9.162753703
12.3150,9.081870648
12.3200,9.002551389
12.3250,8.925092152
12.3300,8.849088065
12.3350,8.774610752
12.3400,8.701655559
12.3450,8.630088914
12.3500,8.560149706
12.3550,8.491693659
12.3600,8.424903153
12.3650,8.35999468
12.3700,8.296938474
12.3750,8.235986285
12.3800,8.177259423
12.3850,8.121046954
12.3900,8.067093648
12.3950,8.015879
12.4000,7.967277416
12.4050,7.921558842
12.4100,7.878518746
12.4150,7.838419698
12.4200,7.801224423
12.4250,7.766985035
12.4300,7.735633271
12.4350,7.706976856
12.4400,7.680989105
12.4450,7.657545011
12.4500,7.636552886
12.4550,7.617983484
12.4600,7.601458359
12.4650,7.586945101
12.4700,7.574016998
12.4750,7.56256647
12.4800,7.552430724
12.4850,7.543311098
12.4900,7.534867978
12.4950,7.526998871
12.5000,7.519475996
12.5050,7.512441177
12.5100,7.50557234
12.5150,7.498805117
12.5200,7.492118997
12.5250,7.485081901
12.5300,7.477846584
12.5350,7.470166369
12.5400,7.461776735
12.5450,7.452796003
12.5500,7.442948977
12.5550,7.432221855
12.5600,7.420420283
12.5650,7.407444362
12.5700,7.393121371
12.5750,7.377435682
12.5800,7.360463786
12.5850,7.342202052
12.5900,7.322510047
12.5950,7.301331088
12.6000,7.278506016
12.6050,7.253821306
12.6100,7.227481666
12.6150,7.199201243
12.6200,7.169251024
12.6250,7.137417441
12.6300,7.103837799
12.6350,7.068570224
12.6400,7.03162593
12.6450,6.993061405
12.6500,6.952754926
12.6550,6.911124577
12.6600,6.867975313
12.6650,6.823566658
12.6700,6.778052567
12.6750,6.731697306
12.6800,6.684664957
12.6850,6.637310677
12.6900,6.589985523
12.6950,6.542992491
12.7000,6.496528448
12.7050,6.450653369
12.7100,6.4058468
12.7150,6.361953117
12.7200,6.31933287
12.7250,6.278104073
12.7300,6.238484473
12.7350,6.200651096
12.7400,6.164722078
12.7450,6.130673952
12.7500,6.098487545
12.7550,6.068076897
12.7600,6.039532063
12.7650,6.01281156
12.7700,5.987798049
12.7750,5.964542433
12.7800,5.943091006
12.7850,5.923466828
12.7900,5.905821049
12.7950,5.890351264
12.8000,5.877014238
12.8050,5.866093107
12.8100,5.857583163
12.8150,5.851671853
12.8200,5.848509788
12.8250,5.848423687
12.8300,5.851155635
12.8350,5.857019255
12.8400,5.866261517
12.8450,5.878689604
12.8500,5.894351668
12.8550,5.913195596
12.8600,5.935290331
12.8650,5.960415218
12.8700,5.98846657
12.8750,6.01934538
12.8800,6.052780701
12.8850,6.088419755
12.8900,6.126033038
12.8950,6.165276953
12.9000,6.205824419
12.9050,6.247680136
12.9100,6.290437366
12.9150,6.333954296
12.9200,6.378018113
12.9250,6.422470628
12.9300,6.467216999
12.9350,6.512181301
12.9400,6.55745818
12.9450,6.602892282
12.9500,6.648717206
12.9550,6.694638557
12.9600,6.740771057
12.9650,6.787216973
12.9700,6.833952645
12.9750,6.880915888
12.9800,6.92823403
12.9850,6.975781869
12.9900,7.023913147
12.9950,7.072344595
13.0000,7.121358639
13.0050,7.171115947
13.0100,7.221765483
13.0150,7.273554742
13.0200,7.326597887
13.0250,7.381142226
13.0300,7.437300903
13.0350,7.495258512
13.0400,7.554983621
13.0450,7.617054171
13.0500,7.681532182
13.0550,7.748776177
13.0600,7.818961516
13.0650,7.892115952
13.0700,7.968676298
13.0750,8.048712858
13.0800,8.132179177
13.0850,8.219550721
13.0900,8.310848177
13.0950,8.406007597
13.1000,8.505367045
13.1050,8.608669594
13.1100,8.716117532
13.1150,8.827761359
13.1200,8.943562861
13.1250,9.06343965
13.1300,9.187686976
13.1350,9.316261709
13.1400,9.448916037
13.1450,9.585650437
13.1500,9.726434472
13.1550,9.871097204
13.1600,10.01956086
13.1650,10.17172558
13.1700,10.32752192
13.1750,10.48679606
13.1800,10.64933844
13.1850,10.81506448
13.1900,10.98399953
13.1950,11.15602954
13.2000,11.33123046
13.2050,11.50930611
13.2100,11.69023697
13.2150,11.87383615
13.2200,12.06008485
13.2250,12.24899104
13.2300,12.44062776
13.2350,12.6349281
13.2400,12.83163209
13.2450,13.03091479
13.2500,13.23255445
13.2550,13.43661058
13.2600,13.64327639
13.2650,13.85230882
13.2700,14.06402239
13.2750,14.27828639
13.2800,14.49523044
13.2850,14.71505086
13.2900,14.93773808
13.2950,15.16343335
13.3000,15.3922301
13.3050,15.62420216
13.3100,15.85942212
13.3150,16.0978824
13.3200,16.33958219
13.3250,16.58454408
13.3300,16.8327442
13.3350,17.08402131
13.3400,17.33846404
13.3450,17.59593645
13.3500,17.85664718
13.3550,18.12056625
13.3600,18.38760476
13.3650,18.65766921
13.3700,18.93056263
13.3750,19.20599612
13.3800,19.48400164
13.3850,19.76420253
13.3900,20.04629312
13.3950,20.33027584
13.4000,20.61569808
13.4050,20.90275235
13.4100,21.19119302
13.4150,21.48090256
13.4200,21.77204014
13.4250,22.0645264
13.4300,22.35826287
13.4350,22.65308181
13.4400,22.94913939
13.4450,23.24634657
13.4500,23.54500365
13.4550,23.84502307
13.4600,24.1463598
13.4650,24.44919499
13.4700,24.75333549
13.4750,25.05898252
13.4800,25.36629558
13.4850,25.6753218
13.4900,25.98580025
13.4950,26.29808222
13.5000,26.61171943
13.5050,26.92687981
13.5100,27.24369988
13.5150,27.56204342
13.5200,27.88187269
13.5250,28.2032055
13.5300,28.52595587
13.5350,28.85019453
13.5400,29.17600686
13.5450,29.5034489
13.5500,29.83262967
13.5550,30.16381459
13.5600,30.4968448
13.5650,30.83184688
13.5700,31.1686879
13.5750,31.50769589
13.5800,31.84866436
13.5850,32.19154254
13.5900,32.53632065
13.5950,32.88298095
13.6000,33.23162703
13.6050,33.58218132
13.6100,33.93466443
13.6150,34.28894063
13.6200,34.64523948
13.6250,35.00315475
13.6300,35.36272906
13.6350,35.72419872
13.6400,36.08762167
13.6450,36.45285635
13.6500,36.82016979
13.6550,37.18934798
13.6600,37.56045799
13.6650,37.9336927
13.6700,38.30925051
13.6750,38.68704026
13.6800,39.06694097
13.6850,39.44893566
13.6900,39.83312261
13.6950,40.21966279
13.7000,40.60877055
13.7050,41.0002169
13.7100,41.39445798
13.7150,41.79109338
13.7200,42.19013314
13.7250,42.59146337
13.7300,42.9950728
13.7350,43.40100064
13.7400,43.80910601
13.7450,44.21942231
13.7500,44.63194155
13.7550,45.04690964
13.7600,45.46432329
13.7650,45.88435001
13.7700,46.30709756
13.7750,46.73233348
13.7800,47.16029722
13.7850,47.59064292
13.7900,48.02373718
13.7950,48.45939355
13.8000,48.89810612
13.8050,49.33969938
13.8100,49.78409731
13.8150,50.23172057
13.8200,50.68226436
13.8250,51.13550829
13.8300,51.59166542
13.8350,52.05037505
13.8400,52.51177445
13.8450,52.97579323
13.8500,53.44247823
13.8550,53.911511
13.8600,54.38311293
13.8650,54.8575508
13.8700,55.33483262
13.8750,55.81483714
13.8800,56.29790461
13.8850,56.78390614
13.8900,57.2728362
13.8950,57.76480131
13.9000,58.25989185
13.9050,58.7586218
13.9100,59.26106361
13.9150,59.76738117
13.9200,60.27750825
13.9250,60.79169209
13.9300,61.31027423
13.9350,61.83329605
13.9400,62.36113658
13.9450,62.89350412
13.9500,63.4304286
13.9550,63.97201162
13.9600,64.51830786
13.9650,65.06926917
13.9700,65.62490701
13.9750,66.18534733
13.9800,66.75117542
13.9850,67.32227486
13.9900,67.89856415
13.9950,68.48005659
14.0000,69.06633368
14.0050,69.65732662
14.0100,70.25294725
14.0150,70.85359889
14.0200,71.4590269
14.0250,72.069172
14.0300,72.68405052
14.0350,73.30336593
14.0400,73.92752211
14.0450,74.55614144
14.0500,75.18923337
14.0550,75.82655996
14.0600,76.46776964
14.0650,77.1129292
14.0700,77.76154847
14.0750,78.4139276
14.0800,79.06970278
14.0850,79.72932145
14.0900,80.39273645
14.0950,81.05993418
14.1000,81.73026478
14.1050,82.40377441
14.1100,83.08032124
14.1150,83.75965755
14.1200,84.44177486
14.1250,85.12659139
14.1300,85.81358703
14.1350,86.50295365
14.1400,87.19428235
14.1450,87.88728972
14.1500,88.58184082
14.1550,89.2776729
14.1600,89.97468054
14.1650,90.67263317
14.1700,91.37132853
14.1750,92.07014485
14.1800,92.76863684
14.1850,93.46704008
14.1900,94.16498592
14.1950,94.86228256
14.2000,95.5583146
14.2050,96.25265796
14.2100,96.94516214
14.2150,97.63558604
14.2200,98.32412863
14.2250,99.01076502
14.2300,99.69482582
14.2350,100.3759329
14.2400,101.0539424
14.2450,101.7286303
14.2500,102.3992172
14.2550,103.0657685
14.2600,103.7275912
14.2650,104.3845519
14.2700,105.0363808
14.2750,105.6827568
14.2800,106.3234673
14.2850,106.9580696
14.2900,107.5864496
14.2950,108.2083299
14.3000,108.823829
14.3050,109.432894
14.3100,110.0353293
14.3150,110.6312873
14.3200,111.2207628
14.3250,111.8036802
14.3300,112.3802488
14.3350,112.9509023
14.3400,113.5154405
14.3450,114.0743292
14.3500,114.6275787
14.3550,115.1756155
14.3600,115.7188712
14.3650,116.2572263
14.3700,116.7912291
14.3750,117.3209534
14.3800,117.8467096
14.3850,118.3686361
14.3900,118.8865794
14.3950,119.4006833
14.4000,119.910755
14.4050,120.4170076
14.4100,120.9195643
14.4150,121.4181705
14.4200,121.9129539
14.4250,122.4041603
14.4300,122.8915551
14.4350,123.374851
14.4400,123.854377
14.4450,124.3301111
14.4500,124.80231
14.4550,125.2713309
14.4600,125.7369295
14.4650,126.1989784
14.4700,126.6574471
14.4750,127.1134293
14.4800,127.5669428
14.4850,128.0179192
14.4900,128.4666871
14.4950,128.913787
14.5000,129.3594156
14.5050,129.803974
14.5100,130.2473496
14.5150,130.6895907
14.5200,131.1303355
14.5250,131.5696268
14.5300,132.0073768
14.5350,132.4438817
14.5400,132.8784712
14.5450,133.3115291
14.5500,133.7426961
14.5550,134.1720309
14.5600,134.5995514
14.5650,135.0255362
14.5700,135.4497769
14.5750,135.872649
14.5800,136.2935749
14.5850,136.7128444
14.5900,137.1296822
14.5950,137.5443343
14.6000,137.9568419
14.6050,138.3671144
14.6100,138.7750304
14.6150,139.1805566
14.6200,139.5836747
14.6250,139.9846401
14.6300,140.3831834
14.6350,140.7792067
14.6400,141.17247
14.6450,141.5630339
14.6500,141.951083
14.6550,142.3367123
14.6600,142.7199154
14.6650,143.100559
14.6700,143.4786015
14.6750,143.8540698
14.6800,144.2264275
14.6850,144.5956862
14.6900,144.9616881
14.6950,145.3240383
14.7000,145.6827501
14.7050,146.0379526
14.7100,146.3893615
14.7150,146.7371763
14.7200,147.0812163
14.7250,147.4215447
14.7300,147.7581273
14.7350,148.091168
14.7400,148.4206657
14.7450,148.7465307
14.7500,149.0690079
14.7550,149.3884792
14.7600,149.7054632
14.7650,150.02017
14.7700,150.3325841
14.7750,150.6422846
14.7800,150.9495126
14.7850,151.2541923
14.7900,151.5562816
14.7950,151.8555283
14.8000,152.1520991
14.8050,152.4457382
14.8100,152.7363388
14.8150,153.0242581
14.8200,153.3094826
14.8250,153.5914555
14.8300,153.8702143
14.8350,154.1455446
14.8400,154.4176401
14.8450,154.6863791
14.8500,154.9519813
14.8550,155.2145363
14.8600,155.4744824
14.8650,155.7314389
14.8700,155.9855673
14.8750,156.2361779
14.8800,156.4836318
14.8850,156.7277324
14.8900,156.9689559
14.8950,157.2071512
14.9000,157.4423661
14.9050,157.6746187
14.9100,157.9042815
14.9150,158.1313254
14.9200,158.3558193
14.9250,158.5773143
14.9300,158.795928
14.9350,159.0120484
14.9400,159.2258152
14.9450,159.4374208
14.9500,159.6466669
14.9550,159.8534797
14.9600,160.0577741
14.9650,160.2598214
14.9700,160.4596765
14.9750,160.6574753
14.9800,160.8536836
14.9850,161.0483667
14.9900,161.2417662
14.9950,161.4342589
15.0000,161.6259683
15.0050,161.8169554
15.0100,162.0074464
15.0150,162.1972207
15.0200,162.3860791
15.0250,162.573921
15.0300,162.7608376
15.0350,162.9469773
15.0400,163.132259
15.0450,163.3169403
15.0500,163.5007245
15.0550,163.6830492
15.0600,163.8639065
15.0650,164.043021
15.0700,164.2207591
15.0750,164.3971587
15.0800,164.5721247
15.0850,164.7459126
15.0900,164.918347
15.0950,165.0895769
15.1000,165.2596361
15.1050,165.4285427
15.1100,165.5963932
15.1150,165.7627051
15.1200,165.9277732
15.1250,166.0919511
15.1300,166.2552545
15.1350,166.4176988
15.1400,166.5791192
15.1450,166.7395419
15.1500,166.8987947
15.1550,167.0569416
15.1600,167.2135395
15.1650,167.3687582
15.1700,167.5225547
15.1750,167.6751028
15.1800,167.8263228
15.1850,167.9761575
15.1900,168.1245864
15.1950,168.2714512
15.2000,168.4166582
15.2050,168.5603695
15.2100,168.702512
15.2150,168.8428688
15.2200,168.981567
15.2250,169.1188648
15.2300,169.2548312
15.2350,169.3889246
15.2400,169.521275
15.2450,169.6521029
15.2500,169.7813798
15.2550,169.9089783
15.2600,170.0350585
15.2650,170.1596906
15.2700,170.2829115
15.2750,170.4049848
15.2800,170.5260253
15.2850,170.6459621
15.2900,170.7646916
15.2950,170.882075
15.3000,170.9983256
15.3050,171.1133107
15.3100,171.2272052
15.3150,171.3401356
15.3200,171.4521245
15.3250,171.5630677
15.3300,171.6729801
15.3350,171.7816777
15.3400,171.8893581
15.3450,171.9960893
15.3500,172.1017493
15.3550,172.2068766
15.3600,172.3113259
15.3650,172.4151846
15.3700,172.5184144
15.3750,172.6208244
15.3800,172.7225494
15.3850,172.8235362
15.3900,172.9240235
15.3950,173.0238704
15.4000,173.123084
15.4050,173.2216222
15.4100,173.3194105
15.4150,173.4165094
15.4200,173.5127212
15.4250,173.6078468
15.4300,173.701893
15.4350,173.7949448
15.4400,173.8870591
15.4450,173.9781865
15.4500,174.0685505
15.4550,174.1579038
15.4600,174.2463807
15.4650,174.3339497
15.4700,174.4205982
15.4750,174.5065507
15.4800,174.5915861
15.4850,174.6759642
15.4900,174.7594236
15.4950,174.8424158
15.5000,174.9248924
15.5050,175.0066951
15.5100,175.0879993
15.5150,175.1689641
15.5200,175.2495549
15.5250,175.3299783
15.5300,175.4099823
15.5350,175.4900195
15.5400,175.5699342
15.5450,175.6495699
15.5500,175.7289258
15.5550,175.8082288
15.5600,175.8875783
15.5650,175.9667736
15.5700,176.0459235
15.5750,176.1249214
15.5800,176.2037707
15.5850,176.2823259
15.5900,176.360633
15.5950,176.4387646
15.6000,176.5161991
15.6050,176.593019
15.6100,176.6688789
15.6150,176.7436369
15.6200,176.8171743
15.6250,176.889504
15.6300,176.9605099
15.6350,177.030165
15.6400,177.0982018
15.6450,177.1642993
15.6500,177.2286015
15.6550,177.2907105
15.6600,177.350763
15.6650,177.4086262
15.6700,177.4643081
15.6750,177.5176879
15.6800,177.5686901
15.6850,177.6173
15.6900,177.6632773
15.6950,177.7066699
15.7000,177.7473977
15.7050,177.7854629
15.7100,177.8209574
15.7150,177.853705
15.7200,177.8838078
15.7250,177.9113186
15.7300,177.9362826
15.7350,177.9585402
15.7400,177.9782654
15.7450,177.9955409
15.7500,178.0102511
15.7550,178.0225957
15.7600,178.0328785
15.7650,178.0411582
15.7700,178.0476219
15.7750,178.0522235
15.7800,178.055429
15.7850,178.0572022
15.7900,178.0579148
15.7950,178.0577117
15.8000,178.0566176
15.8050,178.055014
15.8100,178.0528778
15.8150,178.0503339
15.8200,178.0473801
15.8250,178.0439888
15.8300,178.0404916
15.8350,178.0366046
15.8400,178.0325589
15.8450,178.0281879
15.8500,178.0234666
15.8550,178.0182335
15.8600,178.0123493
15.8650,178.0056902
15.8700,177.9979574
15.8750,177.9891221
15.8800,177.9789477
15.8850,177.967558
15.8900,177.9547697
15.8950,177.9403568
15.9000,177.9244835
15.9050,177.9071578
15.9100,177.8884223
15.9150,177.8682637
15.9200,177.8466757
15.9250,177.8235312
15.9300,177.7989963
15.9350,177.7728464
15.9400,177.7453379
15.9450,177.7163671
15.9500,177.6857538
15.9550,177.6537512
15.9600,177.6199055
15.9650,177.5842873
15.9700,177.5467793
15.9750,177.5074637
15.9800,177.4660937
15.9850,177.4226419
15.9900,177.3771458
15.9950,177.3295561
16.0000,177.2798835
16.0050,177.2281018
16.0100,177.1741746
16.0150,177.1182185
16.0200,177.0604283
16.0250,177.0006348
16.0300,176.9388861
16.0350,176.875269
16.0400,176.8097235
16.0450,176.742498
16.0500,176.673494
16.0550,176.6028794
16.0600,176.5304462
16.0650,176.4562756
16.0700,176.3804641
16.0750,176.3029415
16.0800,176.2236295
16.0850,176.1426353
16.0900,176.0598683
16.0950,175.9749856
16.1000,175.8879599
16.1050,175.7986768
16.1100,175.7068477
16.1150,175.6127215
16.1200,175.5160936
16.1250,175.4168764
16.1300,175.3148123
16.1350,175.2099934
16.1400,175.1021213
16.1450,174.9914698
16.1500,174.8781922
16.1550,174.7619536
16.1600,174.642876
16.1650,174.5211018
16.1700,174.3968334
16.1750,174.2700082
16.1800,174.1407322
16.1850,174.0089907
16.1900,173.8751302
16.1950,173.7391187
16.2000,173.6010074
16.2050,173.4605854
16.2100,173.3178877
16.2150,173.1729026
16.2200,173.0256727
16.2250,172.8760951
16.2300,172.724001
16.2350,172.5695932
16.2400,172.4126275
16.2450,172.2533955
16.2500,172.0918667
16.2550,171.9277927
16.2600,171.7614342
16.2650,171.5927507
16.2700,171.421804
16.2750,171.248691
16.2800,171.0734785
16.2850,170.8963028
16.2900,170.7171905
16.2950,170.5361913
16.3000,170.3533902
16.3050,170.1686507
16.3100,169.9820452
16.3150,169.7937449
16.3200,169.6035615
16.3250,169.4113751
16.3300,169.217311
16.3350,169.021533
16.3400,168.8239224
16.3450,168.6243266
16.3500,168.4231923
16.3550,168.220429
16.3600,168.0160646
16.3650,167.8102073
16.3700,167.6027639
16.3750,167.3938543
16.3800,167.1835198
16.3850,166.9716576
16.3900,166.7584475
16.3950,166.5436581
16.4000,166.3275555
16.4050,166.1100036
16.4100,165.8911258
16.4150,165.6708968
16.4200,165.449404
16.4250,165.2267157
16.4300,165.0029203
16.4350,164.7779086
16.4400,164.5520623
16.4450,164.325017
16.4500,164.0966215
16.4550,163.8670674
16.4600,163.6360898
16.4650,163.4036218
16.4700,163.1696667
16.4750,162.9341152
16.4800,162.697205
16.4850,162.4585907
16.4900,162.218202
16.4950,161.976257
16.5000,161.7330195
16.5050,161.4885281
16.5100,161.2429357
16.5150,160.9959895
16.5200,160.7477184
16.5250,160.4982988
16.5300,160.2476155
16.5350,159.9956187
16.5400,159.742253
16.5450,159.4872659
16.5500,159.2306498
16.5550,158.972666
16.5600,158.7132405
16.5650,158.4524136
16.5700,158.1900835
16.5750,157.92633
16.5800,157.6614387
16.5850,157.3948547
16.5900,157.1269382
16.5950,156.8573477
16.6000,156.5862378
16.6050,156.3137361
16.6100,156.0400202
16.6150,155.765164
16.6200,155.4892432
16.6250,155.2124888
16.6300,154.935038
16.6350,154.6569031
16.6400,154.3783695
16.6450,154.0992154
16.6500,153.8194076
16.6550,153.5387504
16.6600,153.2572404
16.6650,152.9745465
16.6700,152.6904282
16.6750,152.4049161
16.6800,152.1179624
16.6850,151.829384
16.6900,151.5390386
16.6950,151.247072
16.7000,150.9532627
16.7050,150.6574071
16.7100,150.3594433
16.7150,150.059029
16.7200,149.7559266
16.7250,149.4498527
16.7300,149.1406891
16.7350,148.8280548
16.7400,148.5116658
16.7450,148.1914766
16.7500,147.8675554
16.7550,147.5400045
16.7600,147.2088237
16.7650,146.8735903
16.7700,146.53442
16.7750,146.1911375
16.7800,145.8434399
16.7850,145.4916719
16.7900,145.1355312
16.7950,144.774868
16.8000,144.4091173
16.8050,144.0384741
16.8100,143.662798
16.8150,143.2823106
16.8200,142.8970697
16.8250,142.5071442
16.8300,142.1122493
16.8350,141.7123778
16.8400,141.3075798
16.8450,140.8976741
16.8500,140.4824592
16.8550,140.0615208
16.8600,139.6346948
16.8650,139.2020747
16.8700,138.7638049
16.8750,138.3196061
16.8800,137.8688262
16.8850,137.4116331
16.8900,136.9475743
16.8950,136.4765595
16.9000,135.9983725
16.9050,135.5127536
16.9100,135.0193356
16.9150,134.5182207
16.9200,134.0094688
16.9250,133.4931396
16.9300,132.9685052
16.9350,132.4352934
16.9400,131.8935141
16.9450,131.343059
16.9500,130.7836655
16.9550,130.2153657
16.9600,129.6379882
16.9650,129.051243
16.9700,128.4554555
16.9750,127.8502667
16.9800,127.2355632
16.9850,126.6111968
16.9900,125.9772086
16.9950,125.3335144
17.0000,124.6804763
17.0050,124.0186122
17.0100,123.3477346
17.0150,122.6678041
17.0200,121.9791013
17.0250,121.2818422
17.0300,120.5760007
17.0350,119.8620659
17.0400,119.1401372
17.0450,118.4104792
17.0500,117.6734271
17.0550,116.9289094
17.0600,116.1770132
17.0650,115.4182807
17.0700,114.6527302
17.0750,113.8806698
17.0800,113.102299
17.0850,112.3177715
17.0900,111.5270498
17.0950,110.7304669
17.1000,109.9285739
17.1050,109.1211674
17.1100,108.3086862
17.1150,107.4914527
17.1200,106.6695467
17.1250,105.8431407
17.1300,105.0131805
17.1350,104.1801347
17.1400,103.3441961
17.1450,102.5060109
17.1500,101.6659208
17.1550,100.8241429
17.1600,99.98099231
17.1650,99.13698427
17.1700,98.29225122
17.1750,97.4475948
17.1800,96.60369981
17.1850,95.76088928
17.1900,94.91929504
17.1950,94.07954664
17.2000,93.24128881
17.2050,92.405177
17.2100,91.57202069
17.2150,90.74195607
17.2200,89.91560394
17.2250,89.09291105
17.2300,88.27474323
17.2350,87.46155034
17.2400,86.65344758
17.2450,85.850823
17.2500,85.05395319
17.2550,84.26304575
17.2600,83.47859443
17.2650,82.70102856
17.2700,81.93049413
17.2750,81.16702127
17.2800,80.41079844
17.2850,79.66188514
17.2900,78.92049904
17.2950,78.1871209
17.3000,77.46139505
17.3050,76.74389497
17.3100,76.03462908
17.3150,75.33369035
17.3200,74.6406365
17.3250,73.95515494
17.3300,73.27669922
17.3350,72.60536276
17.3400,71.94077732
17.3450,71.28302066
17.3500,70.63186405
17.3550,69.98726784
17.3600,69.34885428
17.3650,68.71632259
17.3700,68.08923202
17.3750,67.46728716
17.3800,66.85006516
17.3850,66.23771534
17.3900,65.63024413
17.3950,65.02666296
17.4000,64.42676505
17.4050,63.83043061
17.4100,63.2378415
17.4150,62.64906585
17.4200,62.06416099
17.4250,61.48344049
17.4300,60.90687256
17.4350,60.33434243
17.4400,59.76586803
17.4450,59.20104235
17.4500,58.63981709
17.4550,58.08179903
17.4600,57.52681251
17.4650,56.97482557
17.4700,56.42565015
17.4750,55.87908888
17.4800,55.33529266
17.4850,54.79432651
17.4900,54.25606209
17.4950,53.7211439
17.5000,53.18955625
17.5050,52.66112573
17.5100,52.13539316
17.5150,51.61267548
17.5200,51.09284455
17.5250,50.5764376
17.5300,50.06322226
17.5350,49.55357095
17.5400,49.04737342
17.5450,48.54462967
17.5500,48.04512372
17.5550,47.54901406
17.5600,47.05598064
17.5650,46.56606481
17.5700,46.07921465
17.5750,45.59619862
17.5800,45.11676816
17.5850,44.64141443
17.5900,44.1697062
17.5950,43.70134042
17.6000,43.23665095
17.6050,42.77539986
17.6100,42.31759481
17.6150,41.86346384
17.6200,41.41300883
17.6250,40.96665101
17.6300,40.52491051
17.6350,40.08788689
17.6400,39.6558331
17.6450,39.22886435
17.6500,38.80677853
17.6550,38.38971581
17.6600,37.97767289
17.6650,37.5704786
17.6700,37.16837229
17.6750,36.77151136
17.6800,36.37994931
17.6850,35.99337298
17.6900,35.6116828
17.6950,35.23484277
17.7000,34.86279033
17.7050,34.49519733
17.7100,34.13191519
17.7150,33.77276597
17.7200,33.41775273
17.7250,33.06659287
17.7300,32.71918358
17.7350,32.37532381
17.7400,32.03518986
17.7450,31.69876798
17.7500,31.36634414
17.7550,31.03793969
17.7600,30.71344625
17.7650,30.39264248
17.7700,30.07588274
17.7750,29.76302363
17.7800,29.45388038
17.7850,29.14829219
17.7900,28.84631232
17.7950,28.54739402
17.8000,28.25153492
17.8050,27.95877972
17.8100,27.66910446
17.8150,27.3821733
17.8200,27.09783657
17.8250,26.81550816
17.8300,26.53525099
17.8350,26.25705784
17.8400,25.98081454
17.8450,25.70670769
17.8500,25.43478246
17.8550,25.16498342
17.8600,24.89738548
17.8650,24.63186127
17.8700,24.36823699
17.8750,24.10597559
17.8800,23.84502504
17.8850,23.5852817
17.8900,23.32689913
17.8950,23.06985472
17.9000,22.81391721
17.9050,22.55894066
17.9100,22.30516645
17.9150,22.05254754
17.9200,21.80135112
17.9250,21.55137899
17.9300,21.30243757
17.9350,21.05434728
17.9400,20.80735076
17.9450,20.56100967
17.9500,20.31558819
17.9550,20.07088017
17.9600,19.82736362
17.9650,19.58513724
17.9700,19.34416484
17.9750,19.10450245
17.9800,18.86630193
17.9850,18.62966678
17.9900,18.39473387
17.9950,18.1615384
18.0000,17.93022246
18.0050,17.70088044
18.0100,17.47335845
18.0150,17.24782743
18.0200,17.02414275
18.0250,16.80229793
18.0300,16.58261523
18.0350,16.36516928
18.0400,16.15002412
18.0450,15.93709058
18.0500,15.72621235
18.0550,15.51735118
18.0600,15.31053053
18.0650,15.10570729
18.0700,14.90282368
18.0750,14.70202428
18.0800,14.50332736
18.0850,14.30682029
18.0900,14.11256242
18.0950,13.92064678
18.1000,13.73120364
18.1050,13.54409525
18.1100,13.3596943
18.1150,13.17815181
18.1200,12.9997641
18.1250,12.82467467
18.1300,12.65300202
18.1350,12.48478731
18.1400,12.32001805
18.1450,12.15856332
18.1500,12.00044875
18.1550,11.84570204
18.1600,11.6942785
18.1650,11.54615859
18.1700,11.4015616
18.1750,11.26033634
18.1800,11.1223638
18.1850,10.98749196
18.1900,10.8554636
18.1950,10.72611318
18.2000,10.59936935
18.2050,10.47500236
18.2100,10.35258464
18.2150,10.23205713
18.2200,10.11305051
18.2250,9.995653917
18.2300,9.879658494
18.2350,9.76495477
18.2400,9.651348857
18.2450,9.539099738
18.2500,9.428022519
18.2550,9.318227548
18.2600,9.209419827
18.2650,9.101887357
18.2700,8.995502296
18.2750,8.8903085
18.2800,8.786356723
18.2850,8.683729274
18.2900,8.582434867
18.2950,8.482549435
18.3000,8.384152099
18.3050,8.287267411
18.3100,8.191867924
18.3150,8.097883889
18.3200,8.00541069
18.3250,7.914476572
18.3300,7.824573386
18.3350,7.735703306
18.3400,7.64769651
18.3450,7.560542654
18.3500,7.474004629
18.3550,7.38822273
18.3600,7.303230641
18.3650,7.218846076
18.3700,7.134918874
18.3750,7.051307921
18.3800,6.968061445
18.3850,6.885081575
18.3900,6.802144909
18.3950,6.719232127
18.4000,6.636169393
18.4050,6.553218234
18.4100,6.470148364
18.4150,6.38695631
18.4200,6.303524555
18.4250,6.219916662
18.4300,6.136173415
18.4350,6.052270766
18.4400,5.968455236
18.4450,5.884663681
18.4500,5.801013946
18.4550,5.717412868
18.4600,5.633975337
18.4650,5.550543426
18.4700,5.467146916
18.4750,5.38393968
18.4800,5.300859313
18.4850,5.217921655
18.4900,5.135162704
18.4950,5.052557277
18.5000,4.970100888
18.5050,4.887853089
18.5100,4.805965387
18.5150,4.724392099
18.5200,4.643444365
18.5250,4.563071636
18.5300,4.483354767
18.5350,4.404508579
18.5400,4.326514894
18.5450,4.249482914
18.5500,4.173426925
18.5550,4.098397647
18.5600,4.024387984
18.5650,3.951460593
18.5700,3.879626746
18.5750,3.808803454
18.5800,3.738967324
18.5850,3.67019319
18.5900,3.602561739
18.5950,3.536190681
18.6000,3.470967227
18.6050,3.4070756
18.6100,3.344654849
18.6150,3.283600353
18.6200,3.224042823
18.6250,3.16601827
18.6300,3.109800108
18.6350,3.055449785
18.6400,3.003023834
18.6450,2.952614928
18.6500,2.904395521
18.6550,2.858448943
18.6600,2.81444003
18.6650,2.772582118
18.6700,2.732849631
18.6750,2.695272253
18.6800,2.659538291
18.6850,2.625624741
18.6900,2.593519042
18.6950,2.56285833
18.7000,2.533674914
18.7050,2.505466614
18.7100,2.478125618
18.7150,2.451378355
18.7200,2.424993545
18.7250,2.398861181
18.7300,2.372871198
18.7350,2.346972614
18.7400,2.320893275
18.7450,2.29470755
18.7500,2.268460653
18.7550,2.242124708
18.7600,2.215618014
18.7650,2.189066766
18.7700,2.162331704
18.7750,2.135518103
18.7800,2.108846838
18.7850,2.082396556
18.7900,2.05645243
18.7950,2.031114622
18.8000,2.00653587
18.8050,1.98280328
18.8100,1.960142989
18.8150,1.938695201
18.8200,1.918445917
18.8250,1.899467392
18.8300,1.881984126
18.8350,1.866103687
18.8400,1.851850189
18.8450,1.83928455
18.8500,1.828494692
18.8550,1.819370864
18.8600,1.812170425
18.8650,1.80651625
18.8700,1.802844049
18.8750,1.801143199
18.8800,1.801411066
18.8850,1.803780692
18.8900,1.808045197
18.8950,1.814336559
18.9000,1.822693138
18.9050,1.832966702
18.9100,1.844999453
18.9150,1.858953475
18.9200,1.874801973
18.9250,1.892418018
18.9300,1.911673952
18.9350,1.932702595
18.9400,1.95535535
18.9450,1.979605715
18.9500,2.005415299
18.9550,2.032631888
18.9600,2.061583733
18.9650,2.092147444
18.9700,2.124350601
18.9750,2.158203105
18.9800,2.193642856
18.9850,2.230630369
18.9900,2.269070519
18.9950,2.308992511
19.0000,2.350488584
19.0050,2.393580573
19.0100,2.438124967
19.0150,2.48421726
19.0200,2.532053273
19.0250,2.581453446
19.0300,2.632348694
19.0350,2.684740732
19.0400,2.73855473
19.0450,2.793887547
19.0500,2.850524343
19.0550,2.908570388
19.0600,2.96817635
19.0650,3.02931199
19.0700,3.092049185
19.0750,3.156419594
19.0800,3.222290368
19.0850,3.289683559
19.0900,3.358514378
19.0950,3.428786895
19.1000,3.500574585
19.1050,3.574054526
19.1100,3.649234781
19.1150,3.726038967
19.1200,3.804717268
19.1250,3.885295868
19.1300,3.967908825
19.1350,4.052366573
19.1400,4.139042365
19.1450,4.227778221
19.1500,4.318608426
19.1550,4.411823195
19.1600,4.507442572
19.1650,4.605782617
19.1700,4.706695286
19.1750,4.810331507
19.1800,4.916907977
19.1850,5.026453664
19.1900,5.13917508
19.1950,5.255229631
19.2000,5.374609675
19.2050,5.497389121
19.2100,5.623747475
19.2150,5.753555707
19.2200,5.8868553
19.2250,6.023686574
19.2300,6.16403153
19.2350,6.307802026
19.2400,6.455040908
19.2450,6.605882116
19.2500,6.760345551
19.2550,6.91860993
19.2600,7.080641737
19.2650,7.246531738
19.2700,7.416242593
19.2750,7.589645991
19.2800,7.766811245
19.2850,7.947599464
19.2900,8.132168384
19.2950,8.320430215
19.3000,8.512317997
19.3050,8.707849657
19.3100,8.907045741
19.3150,9.109908993
19.3200,9.316195321
19.3250,9.526007193
19.3300,9.73953939
19.3350,9.956444921
19.3400,10.17696943
19.3450,10.40094308
19.3500,10.62832154
19.3550,10.85868218
19.3600,11.09167037
19.3650,11.32716916
19.3700,11.5648489
19.3750,11.80432272
19.3800,12.04555767
19.3850,12.28833899
19.3900,12.53257874
19.3950,12.77816807
19.4000,13.02495305
19.4050,13.27265392
19.4100,13.5210684
19.4150,13.77035635
19.4200,14.02024649
19.4250,14.2705936
19.4300,14.52123755
19.4350,14.7722116
19.4400,15.02340313
19.4450,15.27492048
19.4500,15.52703122
19.4550,15.77975439
19.4600,16.03320962
19.4650,16.28758379
19.4700,16.5429956
19.4750,16.7996103
19.4800,17.05747395
19.4850,17.31672355
19.4900,17.57735726
19.4950,17.83910675
19.5000,18.10191459
19.5050,18.36585346
19.5100,18.63061157
19.5150,18.89619386
19.5200,19.16248562
19.5250,19.42938059
19.5300,19.69701325
19.5350,19.9652157
19.5400,20.2340549
19.5450,20.50321193
19.5500,20.77270774
19.5550,21.04230346
19.5600,21.31185382
19.5650,21.581195
19.5700,21.85039333
19.5750,22.11949821
19.5800,22.38857474
19.5850,22.65777867
19.5900,22.92716321
19.5950,23.19700163
19.6000,23.46716814
19.6050,23.73782858
19.6100,24.00902553
19.6150,24.28076179
19.6200,24.55315471
19.6250,24.82660689
19.6300,25.10072742
19.6350,25.37576847
19.6400,25.65162581
19.6450,25.92809025
19.6500,26.20532648
19.6550,26.48348669
19.6600,26.7626095
19.6650,27.04280329
19.6700,27.32449908
19.6750,27.60797944
19.6800,27.89315014
19.6850,28.18008579
19.6900,28.4688447
19.6950,28.75956001
19.7000,29.0521821
19.7050,29.34673935
19.7100,29.64336015
19.7150,29.94186554
19.7200,30.24240768
19.7250,30.5449758
19.7300,30.84956645
19.7350,31.15628282
19.7400,31.46493437
19.7450,31.77582005
19.7500,32.08872717
19.7550,32.40358261
19.7600,32.72054286
19.7650,33.03950724
19.7700,33.36052447
19.7750,33.68385065
19.7800,34.00928123
19.7850,34.33676607
19.7900,34.66602724
19.7950,34.99698039
19.8000,35.3299108
19.8050,35.66459643
19.8100,36.00120174
19.8150,36.33970846
19.8200,36.68022787
19.8250,37.02267984
19.8300,37.36695631
19.8350,37.71294654
19.8400,38.06068542
19.8450,38.41030807
19.8500,38.76171332
19.8550,39.11475124
19.8600,39.46931916
19.8650,39.825627
19.8700,40.18345436
19.8750,40.54305046
19.8800,40.90425942
19.8850,41.26715004
19.8900,41.63190339
19.8950,41.99856695
19.9000,42.36724731
19.9050,42.73821014
19.9100,43.11163994
19.9150,43.48748334
19.9200,43.86608407
19.9250,44.24713788
19.9300,44.63096221
19.9350,45.01757873
19.9400,45.40717947
19.9450,45.79960119
19.9500,46.19481646
19.9550,46.59319961
19.9600,46.99470455
19.9650,47.3991195
19.9700,47.80638148
19.9750,48.21642388
19.9800,48.62966691
19.9850,49.04605048
19.9900,49.4657957
19.9950,49.88861285
20.0000,50.31466306
20.0050,50.74382186
20.0100,51.17660754
20.0150,51.61283598
20.0200,52.05265074
20.0250,52.49609517
20.0300,52.94325143
20.0350,53.39434397
20.0400,53.84919359
20.0450,54.30772506
20.0500,54.77006921
20.0550,55.23657492
20.0600,55.70693657
20.0650,56.18138146
20.0700,56.65986053
20.0750,57.14243871
20.0800,57.62928399
20.0850,58.12053361
20.0900,58.61632962
20.0950,59.11703719
20.1000,59.62239808
20.1050,60.13262185
20.1100,60.64780713
20.1150,61.16787165
20.1200,61.69268541
20.1250,62.22255187
20.1300,62.75724855
20.1350,63.29693753
20.1400,63.84146625
20.1450,64.39064586
20.1500,64.94427457
20.1550,65.50244224
20.1600,66.06510327
20.1650,66.63246897
20.1700,67.20469551
20.1750,67.78127194
20.1800,68.36232036
20.1850,68.94804321
20.1900,69.53828026
20.1950,70.13292075
20.2000,70.73197652
20.2050,71.33493663
20.2100,71.94207978
20.2150,72.55343655
20.2200,73.16894515
20.2250,73.78824164
20.2300,74.41126937
20.2350,75.03797172
20.2400,75.66799954
20.2450,76.30173217
20.2500,76.93895776
20.2550,77.57935423
20.2600,78.22315589
20.2650,78.87047997
20.2700,79.5210231
20.2750,80.17506262
20.2800,80.83209877
20.2850,81.49202244
20.2900,82.15470875
20.2950,82.82029915
20.3000,83.48884245
20.3050,84.16038463
20.3100,84.83433463
20.3150,85.51087672
20.3200,86.1898171
20.3250,86.87131222
20.3300,87.55515559
20.3350,88.24109563
20.3400,88.92948448
20.3450,89.62009612
20.3500,90.31301391
20.3550,91.0079312
20.3600,91.70471312
20.3650,92.40325407
20.3700,93.10350764
20.3750,93.80500063
20.3800,94.50745685
20.3850,95.21034453
20.3900,95.91388877
20.3950,96.61759702
20.4000,97.32155235
20.4050,98.02549479
20.4100,98.72890797
20.4150,99.43204037
20.4200,100.1343302
20.4250,100.8356774
20.4300,101.5358433
20.4350,102.2345032
20.4400,102.9313242
20.4450,103.6259015
20.4500,104.3181992
20.4550,105.0076415
20.4600,105.6944431
20.4650,106.3781776
20.4700,107.058925
20.4750,107.7365667
20.4800,108.4109342
20.4850,109.0816467
20.4900,109.748543
20.4950,110.411787
20.5000,111.0714751
20.5050,111.7277875
20.5100,112.380092
20.5150,113.028396
20.5200,113.6726592
20.5250,114.3123327
20.5300,114.947416
20.5350,115.577959
20.5400,116.2038884
20.5450,116.8253658
20.5500,117.4423031
20.5550,118.0548899
20.5600,118.6628774
20.5650,119.2662497
20.5700,119.865116
20.5750,120.4588686
20.5800,121.0477328
20.5850,121.6314905
20.5900,122.2101457
20.5950,122.7840149
20.6000,123.3530419
20.6050,123.9171548
20.6100,124.4764033
20.6150,125.0308202
20.6200,125.5804053
20.6250,126.1249234
20.6300,126.6647332
20.6350,127.1998241
20.6400,127.7304521
20.6450,128.2563298
20.6500,128.777926
20.6550,129.2952163
20.6600,129.8085322
20.6650,130.317785
20.6700,130.8228645
20.6750,131.3234591
20.6800,131.8199509
20.6850,132.3117788
20.6900,132.799106
20.6950,133.2817993
20.7000,133.7595823
20.7050,134.2324494
20.7100,134.7004105
20.7150,135.1631916
20.7200,135.6210968
20.7250,136.0738881
20.7300,136.5216872
20.7350,136.9646106
20.7400,137.4031258
20.7450,137.8367252
20.7500,138.2653801
20.7550,138.6887105
20.7600,139.1066102
20.7650,139.5191641
20.7700,139.9259373
20.7750,140.3269531
20.7800,140.7223919
20.7850,141.1123425
20.7900,141.4973325
20.7950,141.8774596
20.8000,142.2527659
20.8050,142.6235373
20.8100,142.9902362
20.8150,143.3530399
20.8200,143.7117061
20.8250,144.0664618
20.8300,144.4172917
20.8350,144.763972
20.8400,145.1064357
20.8450,145.4448197
20.8500,145.7790382
20.8550,146.1090849
20.8600,146.4349901
20.8650,146.7573034
20.8700,147.0763052
20.8750,147.39235
20.8800,147.7052056
20.8850,148.0154046
20.8900,148.3227713
20.8950,148.6275756
20.9000,148.9299659
20.9050,149.2302183
20.9100,149.5282076
20.9150,149.8240492
20.9200,150.1178548
20.9250,150.4094517
20.9300,150.6988204
20.9350,150.9860518
20.9400,151.2709143
20.9450,151.5536707
20.9500,151.8339287
20.9550,152.1117066
20.9600,152.3865285
20.9650,152.6583171
20.9700,152.9271306
20.9750,153.1929398
20.9800,153.4556028
20.9850,153.7151873
20.9900,153.9716664
20.9950,154.225347
21.0000,154.4764143
21.0050,154.7247859
21.0100,154.9709565
21.0150,155.2150407
21.0200,155.4569711
21.0250,155.69666
21.0300,155.9344973
21.0350,156.1703393
21.0400,156.4041272
21.0450,156.6363405
21.0500,156.8673193
21.0550,157.0976797
21.0600,157.3273669
21.0650,157.5564129
21.0700,157.7848566
21.0750,158.0129329
21.0800,158.2406269
21.0850,158.4683357
21.0900,158.6953668
21.0950,158.9215874
21.1000,159.1470692
21.1050,159.3715229
21.1100,159.5945862
21.1150,159.8163334
21.1200,160.0364949
21.1250,160.2553076
21.1300,160.472715
21.1350,160.6889477
21.1400,160.9040439
21.1450,161.1175166
21.1500,161.3294632
21.1550,161.5396967
21.1600,161.7483175
21.1650,161.9550521
21.1700,162.1595708
21.1750,162.3619239
21.1800,162.5620307
21.1850,162.7595455
21.1900,162.9548249
21.1950,163.1478879
21.2000,163.3386226
21.2050,163.5270837
21.2100,163.7135226
21.2150,163.8981699
21.2200,164.0811057
21.2250,164.2625014
21.2300,164.4425045
21.2350,164.6208365
21.2400,164.7977166
21.2450,164.9732114
21.2500,165.1473346
21.2550,165.3200223
21.2600,165.4913887
21.2650,165.6614319
21.2700,165.830397
21.2750,165.9984043
21.2800,166.1656868
21.2850,166.3322691
21.2900,166.4982221
21.2950,166.6635794
21.3000,166.8282547
21.3050,166.9923642
21.3100,167.1555678
21.3150,167.3178415
21.3200,167.4794228
21.3250,167.6403382
21.3300,167.8005472
21.3350,167.9602155
21.3400,168.1192637
21.3450,168.2776095
21.3500,168.4350371
21.3550,168.591419
21.3600,168.7465155
21.3650,168.9003994
21.3700,169.0529575
21.3750,169.203893
21.3800,169.3531438
21.3850,169.5004804
21.3900,169.6461329
21.3950,169.789805
21.4000,169.9313211
21.4050,170.0704787
21.4100,170.2074056
21.4150,170.341743
21.4200,170.473591
21.4250,170.6029088
21.4300,170.7296236
21.4350,170.8538533
21.4400,170.975536
21.4450,171.0946959
21.4500,171.2115476
21.4550,171.3260266
21.4600,171.4383671
21.4650,171.5484787
21.4700,171.6566744
21.4750,171.7627901
21.4800,171.8670588
21.4850,171.9696065
21.4900,172.0704409
21.4950,172.1693549
21.5000,172.266368
21.5050,172.3613884
21.5100,172.4543286
21.5150,172.5454584
21.5200,172.6346277
21.5250,172.7218995
21.5300,172.8074187
21.5350,172.8912301
21.5400,172.9733835
21.5450,173.0538988
21.5500,173.1331051
21.5550,173.2109395
21.5600,173.2878467
21.5650,173.3639169
21.5700,173.439039
21.5750,173.5133311
21.5800,173.5867921
21.5850,173.6597595
21.5900,173.7322437
21.5950,173.8043205
21.6000,173.8759889
21.6050,173.9473292
21.6100,174.0183136
21.6150,174.0889794
21.6200,174.159204
21.6250,174.2288417
21.6300,174.2976297
21.6350,174.365247
21.6400,174.4318305
21.6450,174.4969683
21.6500,174.560528
21.6550,174.6223368
21.6600,174.682278
21.6650,174.7401821
21.6700,174.796215
21.6750,174.8501209
21.6800,174.9019246
21.6850,174.9512626
21.6900,174.9981139
21.6950,175.0423586
21.7000,175.0842334
21.7050,175.1238199
21.7100,175.1613066
21.7150,175.1966207
21.7200,175.2296892
21.7250,175.2603774
21.7300,175.2887662
21.7350,175.314692
21.7400,175.3381003
21.7450,175.3590501
21.7500,175.3774574
21.7550,175.3932741
21.7600,175.4063747
21.7650,175.4169185
21.7700,175.4248049
21.7750,175.4301945
21.7800,175.4331905
21.7850,175.4340067
21.7900,175.4326278
21.7950,175.4294113
21.8000,175.424354
21.8050,175.4177858
21.8100,175.4102658
21.8150,175.4017576
21.8200,175.3928309
21.8250,175.383558
21.8300,175.3742175
21.8350,175.3653421
21.8400,175.3571376
21.8450,175.349711
21.8500,175.3431787
21.8550,175.337897
21.8600,175.3338241
21.8650,175.3308645
21.8700,175.3292472
21.8750,175.3289061
21.8800,175.3298735
21.8850,175.3317491
21.8900,175.3345839
21.8950,175.338214
21.9000,175.3426351
21.9050,175.3476099
21.9100,175.3530894
21.9150,175.3591141
21.9200,175.3653502
21.9250,175.3717306
21.9300,175.3780954
21.9350,175.384679
21.9400,175.3909531
21.9450,175.397243
21.9500,175.403466
21.9550,175.4093136
21.9600,175.4149831
21.9650,175.4200505
21.9700,175.424314
21.9750,175.4279069
21.9800,175.430601
21.9850,175.432389
21.9900,175.4332094
21.9950,175.4330426
22.0000,175.431711
22.0050,175.428942
22.0100,175.4245049
22.0150,175.418293
22.0200,175.4103284
22.0250,175.4003914
22.0300,175.3884447
22.0350,175.3744424
22.0400,175.3583653
22.0450,175.3399997
22.0500,175.3192366
22.0550,175.2961872
22.0600,175.27079
22.0650,175.2429449
22.0700,175.2126481
22.0750,175.1799433
22.0800,175.1445886
22.0850,175.1063571
22.0900,175.0654788
22.0950,175.0217107
22.1000,174.9752415
22.1050,174.926108
22.1100,174.8740486
22.1150,174.8192386
22.1200,174.7614366
22.1250,174.7008877
22.1300,174.6376645
22.1350,174.571484
22.1400,174.5025595
22.1450,174.4310254
22.1500,174.3567119
22.1550,174.2796931
22.1600,174.1999578
22.1650,174.1176878
22.1700,174.0326796
22.1750,173.9451405
22.1800,173.8549141
22.1850,173.7621784
22.1900,173.6668616
22.1950,173.5689776
22.2000,173.4685105
22.2050,173.3654596
22.2100,173.2600613
22.2150,173.1521966
22.2200,173.041982
22.2250,172.9295106
22.2300,172.8149245
22.2350,172.6982076
22.2400,172.5796593
22.2450,172.4593867
22.2500,172.3373425
22.2550,172.2138591
22.2600,172.0888127
22.2650,171.9624451
22.2700,171.8347768
22.2750,171.7058596
22.2800,171.5759083
22.2850,171.4450703
22.2900,171.3132713
22.2950,171.1804875
22.3000,171.0467126
22.3050,170.9119943
22.3100,170.776127
22.3150,170.6391732
22.3200,170.5009146
22.3250,170.3615127
22.3300,170.2206873
22.3350,170.0783798
22.3400,169.9345606
22.3450,169.7892982
22.3500,169.6424235
22.3550,169.4939895
22.3600,169.3438183
22.3650,169.1918752
22.3700,169.0381423
22.3750,168.8826463
22.3800,168.7254856
22.3850,168.5668771
22.3900,168.4064259
22.3950,168.2443131
22.4000,168.0805787
22.4050,167.9150561
22.4100,167.7479043
22.4150,167.5790287
22.4200,167.4084571
22.4250,167.236195
22.4300,167.0620349
22.4350,166.8862694
22.4400,166.708638
22.4450,166.529048
22.4500,166.3474954
22.4550,166.1638046
22.4600,165.9776888
22.4650,165.7890214
22.4700,165.5980511
22.4750,165.4043785
22.4800,165.2083124
22.4850,165.0098974
22.4900,164.8090854
22.4950,164.6060678
22.5000,164.4009105
22.5050,164.1938045
22.5100,163.9845527
22.5150,163.7730044
22.5200,163.5593996
22.5250,163.3438189
22.5300,163.1261756
22.5350,162.9063272
22.5400,162.6842198
22.5450,162.4596585
22.5500,162.2330109
22.5550,162.0041694
22.5600,161.7732459
22.5650,161.5400701
22.5700,161.3048223
22.5750,161.0673913
22.5800,160.8275251
22.5850,160.585333
22.5900,160.3407076
22.5950,160.0936604
22.6000,159.8440758
22.6050,159.5921529
22.6100,159.3379316
22.6150,159.0814553
22.6200,158.8227847
22.6250,158.5618652
22.6300,158.2987607
22.6350,158.0334373
22.6400,157.765999
22.6450,157.4962755
22.6500,157.2244754
22.6550,156.9503354
22.6600,156.67398
22.6650,156.3953974
22.6700,156.1144412
22.6750,155.8312289
22.6800,155.5458537
22.6850,155.2582959
22.6900,154.9685375
22.6950,154.6763369
22.7000,154.3816923
22.7050,154.0845373
22.7100,153.784886
22.7150,153.482683
22.7200,153.178211
22.7250,152.8710616
22.7300,152.5615248
22.7350,152.2494258
22.7400,151.9349755
22.7450,151.6179399
22.7500,151.2984556
22.7550,150.976635
22.7600,150.6524938
22.7650,150.3259186
22.7700,149.9968415
22.7750,149.6654192
22.7800,149.3313087
22.7850,148.9942224
22.7900,148.6544327
22.7950,148.3115019
22.8000,147.9652494
22.8050,147.6154731
22.8100,147.2622719
22.8150,146.9056889
22.8200,146.5452421
22.8250,146.18079
22.8300,145.8125665
22.8350,145.4404297
22.8400,145.0643154
22.8450,144.6842314
22.8500,144.2998523
22.8550,143.9109752
22.8600,143.5177928
22.8650,143.1204144
22.8700,142.7183568
22.8750,142.3120004
22.8800,141.9014828
22.8850,141.4867975
22.8900,141.067843
22.8950,140.6445321
22.9000,140.2169338
22.9050,139.7849031
22.9100,139.3483377
22.9150,138.9071535
22.9200,138.4613149
22.9250,138.0110952
22.9300,137.5564811
22.9350,137.0978495
22.9400,136.6351253
22.9450,136.1684924
22.9500,135.6977383
22.9550,135.223166
22.9600,134.7444576
22.9650,134.2616243
22.9700,133.7746811
22.9750,133.2832265
22.9800,132.7873363
22.9850,132.2866088
22.9900,131.7811654
22.9950,131.2712368
23.0000,130.7569309
23.0050,130.2384458
23.0100,129.715619
23.0150,129.1884967
23.0200,128.6566782
23.0250,128.1206427
23.0300,127.5800468
23.0350,127.0350324
23.0400,126.4851343
23.0450,125.9307949
23.0500,125.3717485
23.0550,124.808075
23.0600,124.2399095
23.0650,123.667693
23.0700,123.091075
23.0750,122.5100089
23.0800,121.9246228
23.0850,121.3349513
23.0900,120.7409179
23.0950,120.1425291
23.1000,119.5399968
23.1050,118.933201
23.1100,118.3222387
23.1150,117.7073434
23.1200,117.0886498
23.1250,116.4661013
23.1300,115.8398022
23.1350,115.2097645
23.1400,114.5763397
23.1450,113.939421
23.1500,113.2992588
23.1550,112.6563432
23.1600,112.0106832
23.1650,111.3626107
23.1700,110.7127343
23.1750,110.0609748
23.1800,109.4074075
23.1850,108.7518034
23.1900,108.0944543
23.1950,107.4358252
23.2000,106.7761998
23.2050,106.1157362
23.2100,105.4544007
23.2150,104.7925456
23.2200,104.1303142
23.2250,103.4677656
23.2300,102.8054467
23.2350,102.1434561
23.2400,101.4815915
23.2450,100.8202159
23.2500,100.1589795
23.2550,99.49811748
23.2600,98.83803167
23.2650,98.17891748
23.2700,97.52052806
23.2750,96.86323905
23.2800,96.20704443
23.2850,95.55205306
23.2900,94.89851688
23.2950,94.24638316
23.3000,93.59569592
23.3050,92.94635417
23.3100,92.29857806
23.3150,91.65219023
23.3200,91.00718836
23.3250,90.36322313
23.3300,89.7208532
23.3350,89.07950469
23.3400,88.43937158
23.3450,87.80041044
23.3500,87.16203861
23.3550,86.52456308
23.3600,85.88776673
23.3650,85.25155498
23.3700,84.61602063
23.3750,83.98142588
23.3800,83.34729095
23.3850,82.71348105
23.3900,82.08000754
23.3950,81.44699212
23.4000,80.81467308
23.4050,80.18290685
23.4100,79.551938
23.4150,78.92128768
23.4200,78.29140985
23.4250,77.66232738
23.4300,77.03370963
23.4350,76.40581506
23.4400,75.77877949
23.4450,75.15304013
23.4500,74.52858247
23.4550,73.90542402
23.4600,73.28363884
23.4650,72.66336644
23.4700,72.04465856
23.4750,71.42760146
23.4800,70.81245681
23.4850,70.19957408
23.4900,69.58928966
23.4950,68.98166596
23.5000,68.37666519
23.5050,67.77430393
23.5100,67.17511053
23.5150,66.5792112
23.5200,65.98665775
23.5250,65.39747898
23.5300,64.81147304
23.5350,64.22888058
23.5400,63.65016145
23.5450,63.07517762
23.5500,62.50453844
23.5550,61.93807787
23.5600,61.37590598
23.5650,60.81825696
23.5700,60.26508707
23.5750,59.71666656
23.5800,59.17259096
23.5850,58.63337067
23.5900,58.09858781
23.5950,57.56858652
23.6000,57.04316329
23.6050,56.52211934
23.6100,56.00530462
23.6150,55.49283205
23.6200,54.98494694
23.6250,54.4817924
23.6300,53.98295116
23.6350,53.48909782
23.6400,53.00023321
23.6450,52.51666519
23.6500,52.03869284
23.6550,51.56621611
23.6600,51.09929565
23.6650,50.63794867
23.6700,50.1821058
23.6750,49.73184805
23.6800,49.28763604
23.6850,48.84939696
23.6900,48.41710043
23.6950,47.99080323
23.7000,47.57035673
23.7050,47.15585126
23.7100,46.74716971
23.7150,46.34443659
23.7200,45.94744783
23.7250,45.55593665
23.7300,45.16978671
23.7350,44.78880199
23.7400,44.412545
23.7450,44.0406087
23.7500,43.67272336
23.7550,43.30891941
23.7600,42.9491075
23.7650,42.59330489
23.7700,42.24151789
23.7750,41.89395423
23.7800,41.55010742
23.7850,41.21017319
23.7900,40.87353517
23.7950,40.54038699
23.8000,40.21045527
23.8050,39.88389491
23.8100,39.56048634
23.8150,39.23993732
23.8200,38.9220902
23.8250,38.60696231
23.8300,38.29444632
23.8350,37.98449069
23.8400,37.67659881
23.8450,37.37056158
23.8500,37.06662972
23.8550,36.76455214
23.8600,36.46423178
23.8650,36.16550641
23.8700,35.86847399
23.8750,35.57275193
23.8800,35.27832422
23.8850,34.98483701
23.8900,34.69232859
23.8950,34.40041353
23.9000,34.10932975
23.9050,33.81914616
23.9100,33.52984361
23.9150,33.24151878
23.9200,32.95420015
23.9250,32.66789467
23.9300,32.38259507
23.9350,32.09842704
23.9400,31.81522516
23.9450,31.53300137
23.9500,31.25195303
23.9550,30.97215023
23.9600,30.69368452
23.9650,30.41665381
23.9700,30.1408456
23.9750,29.86619672
23.9800,29.59274822
23.9850,29.3206892
23.9900,29.05000655
23.9950,28.78065414
24.0000,28.51269528
24.0050,28.24586205
24.0100,27.98013048
24.0150,27.7155658
24.0200,27.45209856
24.0250,27.189691
24.0300,26.92805906
24.0350,26.66706121
24.0400,26.4066053
24.0450,26.14659001
24.0500,25.88694193
24.0550,25.62749915
24.0600,25.3684413
24.0650,25.10988486
24.0700,24.85152461
24.0750,24.59336539
24.0800,24.33558613
24.0850,24.07802162
24.0900,23.82082721
24.0950,23.56391218
24.1000,23.30751604
24.1050,23.05159971
24.1100,22.79616872
24.1150,22.54134365
24.1200,22.28709512
24.1250,22.03346666
24.1300,21.78059314
24.1350,21.52844538
24.1400,21.27717737
24.1450,21.02710027
24.1500,20.77797238
24.1550,20.53002667
24.1600,20.28329722
24.1650,20.03788178
24.1700,19.79369879
24.1750,19.55107978
24.1800,19.30991378
24.1850,19.07006233
24.1900,18.83211239
24.1950,18.59605518
24.2000,18.36184379
24.2050,18.1297263
24.2100,17.89972751
24.2150,17.67173575
24.2200,17.4459424
24.2250,17.22253962
24.2300,17.00176223
24.2350,16.78355999
24.2400,16.56813363
24.2450,16.35533773
24.2500,16.145189
24.2550,15.93777158
24.2600,15.73284269
24.2650,15.53041539
24.2700,15.33073373
24.2750,15.13380498
24.2800,14.93957581
24.2850,14.74808178
24.2900,14.55936569
24.2950,14.37342677
24.3000,14.19007776
24.3050,14.00974566
24.3100,13.83221001
24.3150,13.65732138
24.3200,13.48521028
24.3250,13.31566562
24.3300,13.14890933
24.3350,12.98486517
24.3400,12.8236027
24.3450,12.66531799
24.3500,12.51006365
24.3550,12.35782936
24.3600,12.20843854
24.3650,12.06188469
24.3700,11.91862595
24.3750,11.77851127
24.3800,11.64156944
24.3850,11.50774812
24.3900,11.37711951
24.3950,11.24932687
24.4000,11.12426341
24.4050,11.00193208
24.4100,10.88236294
24.4150,10.76543582
24.4200,10.65116372
24.4250,10.539571
24.4300,10.43039259
24.4350,10.32370203
24.4400,10.21946939
24.4450,10.11746745
24.4500,10.01772521
24.4550,9.920162608
24.4600,9.824669465
24.4650,9.731199111
24.4700,9.639823791
24.4750,9.550125778
24.4800,9.4621838
24.4850,9.376197512
24.4900,9.291588839
24.4950,9.208394627
24.5000,9.126527148
24.5050,9.045761323
24.5100,8.966107436
24.5150,8.887554311
24.5200,8.809886126
24.5250,8.732775489
24.5300,8.656189163
24.5350,8.579979412
24.5400,8.504173653
24.5450,8.428768388
24.5500,8.35365195
24.5550,8.278886921
24.5600,8.204544648
24.5650,8.130651917
24.5700,8.057110666
24.5750,7.98410699
24.5800,7.911652338
24.5850,7.83981285
24.5900,7.768545407
24.5950,7.697904994
24.6000,7.627912863
24.6050,7.558411156
24.6100,7.489539825
24.6150,7.421233541
24.6200,7.353468504
24.6250,7.286327441
24.6300,7.219857274
24.6350,7.154014172
24.6400,7.088869957
24.6450,7.024248525
24.6500,6.960247406
24.6550,6.896789899
24.6600,6.833780868
24.6650,6.771176909
24.6700,6.708723658
24.6750,6.646426115
24.6800,6.584381918
24.6850,6.522461302
24.6900,6.460733734
24.6950,6.399263793
24.7000,6.338202729
24.7050,6.277570099
24.7100,6.217085475
24.7150,6.1569382
24.7200,6.097326549
24.7250,6.038116384
24.7300,5.979455419
24.7350,5.921291884
24.7400,5.863667386
24.7450,5.806618195
24.7500,5.750280585
24.7550,5.694525763
24.7600,5.639782372
24.7650,5.58581884
24.7700,5.532385499
24.7750,5.47975717
24.7800,5.427865518
24.7850,5.376804621
24.7900,5.326640878
24.7950,5.277170017
24.8000,5.228487003
24.8050,5.180495844
24.8100,5.133262237
24.8150,5.086908006
24.8200,5.041384251
24.8250,4.996864911
24.8300,4.953568175
24.8350,4.911747585
24.8400,4.871495488
24.8450,4.833214413
24.8500,4.797054811
24.8550,4.763127305
24.8600,4.731874321
24.8650,4.703599785
24.8700,4.678553111
24.8750,4.656950561
24.8800,4.639121411
24.8850,4.625042462
24.8900,4.614902533
24.8950,4.6153862
24.9000,4.618094029
24.9050,4.623066913
24.9100,4.630305644
24.9150,4.639771343
24.9200,4.651386653
24.9250,4.665036579
24.9300,4.680570559
24.9350,4.697807275
24.9400,4.716541443
24.9450,4.736549983
24.9500,4.757595988
24.9550,4.779430897
24.9600,4.801795828
24.9650,4.824422737
24.9700,4.84703521
24.9750,4.869348276
24.9800,4.891068588
24.9850,4.911897435
24.9900,4.931537186
24.9950,4.949700359
25.0000,4.966120263
25.0050,4.980562364
25.0100,4.992837178
25.0150,5.00281683
25.0200,5.010456102
25.0250,5.015817538
25.0300,5.019100422
25.0350,5.020672767
