type,name,time_units,begin_time,frequency,count,units
signal,"Noraxon MyoMotion-Segments-Forearm RT-Roll","s",0.0000,200,5068,"deg"

time,value
0.0000,-0.8321301927
0.0050,-0.8345305222
0.0100,-0.8369303346
0.0150,-0.83932963
0.0200,-0.8420326162
0.0250,-0.8450450637
0.0300,-0.8483674316
0.0350,-0.8519942342
0.0400,-0.8559139984
0.0450,-0.8601087107
0.0500,-0.8645527306
0.0550,-0.8692121619
0.0600,-0.8740455335
0.0650,-0.879005354
0.0700,-0.8840397866
0.0750,-0.8890945607
0.0800,-0.8941149532
0.0850,-0.8990471979
0.0900,-0.9038388961
0.0950,-0.9084386073
0.1000,-0.9127957105
0.1050,-0.916861449
0.1100,-0.9205910549
0.1150,-0.9239460313
0.1200,-0.9268955205
0.1250,-0.9294167629
0.1300,-0.9314952972
0.1350,-0.9331250111
0.1400,-0.9343078981
0.1450,-0.9350536686
0.1500,-0.9353794374
0.1550,-0.9367307253
0.1600,-0.9376322248
0.1650,-0.9382734935
0.1700,-0.9385400154
0.1750,-0.9387002332
0.1800,-0.9385054844
0.1850,-0.93798149
0.1900,-0.9374280129
0.1950,-0.9366494969
0.2000,-0.9357270997
0.2050,-0.9346558722
0.2100,-0.9333566362
0.2150,-0.931948453
0.2200,-0.9304834594
0.2250,-0.9289385867
0.2300,-0.9273590564
0.2350,-0.9258067127
0.2400,-0.9244753777
0.2450,-0.9231962323
0.2500,-0.9218494069
0.2550,-0.9206113422
0.2600,-0.9193412912
0.2650,-0.9182028659
0.2700,-0.9171956402
0.2750,-0.9163607656
0.2800,-0.9156441653
0.2850,-0.9150121328
0.2900,-0.9144900442
0.2950,-0.9140680149
0.3000,-0.9137708316
0.3050,-0.9134282561
0.3100,-0.9132517831
0.3150,-0.913169356
0.3200,-0.9131959065
0.3250,-0.913425915
0.3300,-0.913919487
0.3350,-0.9145950895
0.3400,-0.9153299533
0.3450,-0.9162566308
0.3500,-0.9173379578
0.3550,-0.9184298662
0.3600,-0.9196780717
0.3650,-0.9208430901
0.3700,-0.9220483701
0.3750,-0.923432161
0.3800,-0.9247417661
0.3850,-0.9260346543
0.3900,-0.9273298689
0.3950,-0.9285570889
0.4000,-0.92972624
0.4050,-0.9308044605
0.4100,-0.9317893561
0.4150,-0.9326035258
0.4200,-0.9331754383
0.4250,-0.9332898089
0.4300,-0.9332385625
0.4350,-0.9329339751
0.4400,-0.9325016189
0.4450,-0.9318246604
0.4500,-0.930851583
0.4550,-0.9296517957
0.4600,-0.9282332669
0.4650,-0.9264317311
0.4700,-0.9244765396
0.4750,-0.9220397733
0.4800,-0.9193752277
0.4850,-0.9165061502
0.4900,-0.9133625177
0.4950,-0.9099597522
0.5000,-0.9065011078
0.5050,-0.9029393001
0.5100,-0.8991988716
0.5150,-0.8953716332
0.5200,-0.8914089415
0.5250,-0.8874318841
0.5300,-0.8834517915
0.5350,-0.8794638935
0.5400,-0.8754366019
0.5450,-0.8713796315
0.5500,-0.867514397
0.5550,-0.8636029233
0.5600,-0.859690779
0.5650,-0.8558700925
0.5700,-0.852060489
0.5750,-0.8481760169
0.5800,-0.844283225
0.5850,-0.8403813444
0.5900,-0.8365856182
0.5950,-0.8326495625
0.6000,-0.828680281
0.6050,-0.8247905053
0.6100,-0.820871048
0.6150,-0.8169167605
0.6200,-0.8130051189
0.6250,-0.8091235408
0.6300,-0.8050638405
0.6350,-0.8011768604
0.6400,-0.7973003258
0.6450,-0.7933583211
0.6500,-0.7893822877
0.6550,-0.7855582805
0.6600,-0.7818367703
0.6650,-0.7782825312
0.6700,-0.7747323506
0.6750,-0.771236447
0.6800,-0.7677425234
0.6850,-0.7644102531
0.6900,-0.7612178493
0.6950,-0.7579927243
0.7000,-0.7549126757
0.7050,-0.7518401345
0.7100,-0.7485935823
0.7150,-0.7452266658
0.7200,-0.7418241621
0.7250,-0.7384752221
0.7300,-0.7349628575
0.7350,-0.7313601252
0.7400,-0.7276873449
0.7450,-0.7238650421
0.7500,-0.720043433
0.7550,-0.7161478935
0.7600,-0.7122277647
0.7650,-0.708274724
0.7700,-0.704193519
0.7750,-0.700220038
0.7800,-0.6961702462
0.7850,-0.692069688
0.7900,-0.6879394811
0.7950,-0.6838116619
0.8000,-0.679766216
0.8050,-0.6757040838
0.8100,-0.6717225898
0.8150,-0.6677438102
0.8200,-0.6637022665
0.8250,-0.6595906163
0.8300,-0.6554163406
0.8350,-0.6510766709
0.8400,-0.6468013097
0.8450,-0.6425273777
0.8500,-0.6382183364
0.8550,-0.634038545
0.8600,-0.6300123032
0.8650,-0.6259151369
0.8700,-0.621869153
0.8750,-0.6180858515
0.8800,-0.6143976427
0.8850,-0.6108989638
0.8900,-0.6074411976
0.8950,-0.604267685
0.9000,-0.6013447412
0.9050,-0.5985846864
0.9100,-0.5960059292
0.9150,-0.5936308309
0.9200,-0.5914397241
0.9250,-0.5892974554
0.9300,-0.587498846
0.9350,-0.5857088637
0.9400,-0.5841941202
0.9450,-0.582888793
0.9500,-0.5817675952
0.9550,-0.580682017
0.9600,-0.5797279019
0.9650,-0.5787362778
0.9700,-0.5777773977
0.9750,-0.5767890789
0.9800,-0.5757714913
0.9850,-0.5746455351
0.9900,-0.5733272961
0.9950,-0.5719678927
1.0000,-0.5705251785
1.0050,-0.5689032803
1.0100,-0.5673191008
1.0150,-0.5656323472
1.0200,-0.5638567804
1.0250,-0.5619363593
1.0300,-0.5599257258
1.0350,-0.5578142849
1.0400,-0.5553349942
1.0450,-0.5527279093
1.0500,-0.5499967266
1.0550,-0.547030143
1.0600,-0.5438146936
1.0650,-0.5402810531
1.0700,-0.5366080257
1.0750,-0.5327527688
1.0800,-0.5288729571
1.0850,-0.5247081536
1.0900,-0.5204938032
1.0950,-0.5161822852
1.1000,-0.5116712929
1.1050,-0.5069299707
1.1100,-0.5022296458
1.1150,-0.4974753785
1.1200,-0.4928147637
1.1250,-0.4882641462
1.1300,-0.4838678529
1.1350,-0.4796061407
1.1400,-0.4752623862
1.1450,-0.4710134177
1.1500,-0.4666488679
1.1550,-0.4622252683
1.1600,-0.4577534487
1.1650,-0.453296984
1.1700,-0.448914377
1.1750,-0.4445470926
1.1800,-0.4403455618
1.1850,-0.4362172035
1.1900,-0.4324093227
1.1950,-0.4287647622
1.2000,-0.4253645133
1.2050,-0.4222231982
1.2100,-0.4192454855
1.2150,-0.416399863
1.2200,-0.413523544
1.2250,-0.4107397976
1.2300,-0.4076408164
1.2350,-0.4042228627
1.2400,-0.4002191656
1.2450,-0.3956408167
1.2500,-0.3902600676
1.2550,-0.3841018985
1.2600,-0.3771518412
1.2650,-0.3696157841
1.2700,-0.3614050994
1.2750,-0.3524742127
1.2800,-0.3428910181
1.2850,-0.3326487653
1.2900,-0.3216939448
1.2950,-0.3101050765
1.3000,-0.2977453684
1.3050,-0.2846519475
1.3100,-0.2708775093
1.3150,-0.2564202609
1.3200,-0.2411624101
1.3250,-0.2249253569
1.3300,-0.2076306456
1.3350,-0.189048962
1.3400,-0.1693143973
1.3450,-0.1480833268
1.3500,-0.1252377572
1.3550,-0.1007838958
1.3600,-0.07472838686
1.3650,-0.04689988721
1.3700,-0.01718465635
1.3750,0.01433987958
1.3800,0.04783801338
1.3850,0.08310168908
1.3900,0.1204303705
1.3950,0.1596047994
1.4000,0.2007545805
1.4050,0.2438711202
1.4100,0.2889941205
1.4150,0.3361887559
1.4200,0.3854426568
1.4250,0.4367631936
1.4300,0.490253245
1.4350,0.5458276228
1.4400,0.6033436369
1.4450,0.662777993
1.4500,0.7239643183
1.4550,0.7870480876
1.4600,0.8520971539
1.4650,0.9190262828
1.4700,0.9879115335
1.4750,1.059074392
1.4800,1.132534654
1.4850,1.208393599
1.4900,1.286886049
1.4950,1.367973986
1.5000,1.451857445
1.5050,1.538406933
1.5100,1.627602463
1.5150,1.719504579
1.5200,1.814218231
1.5250,1.91161861
1.5300,2.011779149
1.5350,2.114691139
1.5400,2.220217357
1.5450,2.328325075
1.5500,2.438926632
1.5550,2.551869566
1.5600,2.667377953
1.5650,2.785333277
1.5700,2.905480772
1.5750,3.027843516
1.5800,3.15231364
1.5850,3.278891351
1.5900,3.407479877
1.5950,3.53822913
1.6000,3.67105036
1.6050,3.806051628
1.6100,3.943480233
1.6150,4.083323423
1.6200,4.225787731
1.6250,4.370698871
1.6300,4.518086061
1.6350,4.668197741
1.6400,4.821156688
1.6450,4.977056667
1.6500,5.13611538
1.6550,5.298651432
1.6600,5.464844806
1.6650,5.634718507
1.6700,5.808600135
1.6750,5.986732798
1.6800,6.169084507
1.6850,6.35594222
1.6900,6.54718552
1.6950,6.742942534
1.7000,6.943118872
1.7050,7.147664448
1.7100,7.356654464
1.7150,7.569902639
1.7200,7.787415549
1.7250,8.009539447
1.7300,8.23599472
1.7350,8.466837
1.7400,8.702310109
1.7450,8.942297922
1.7500,9.18686266
1.7550,9.435849909
1.7600,9.689224378
1.7650,9.947010591
1.7700,10.20899703
1.7750,10.47485928
1.7800,10.7442633
1.7850,11.01706085
1.7900,11.29304524
1.7950,11.57203319
1.8000,11.85382312
1.8050,12.13829732
1.8100,12.42540592
1.8150,12.7149131
1.8200,13.00672539
1.8250,13.30123435
1.8300,13.59795631
1.8350,13.89674459
1.8400,14.1977218
1.8450,14.50099306
1.8500,14.80644272
1.8550,15.11434473
1.8600,15.42450197
1.8650,15.73724037
1.8700,16.05275492
1.8750,16.37068425
1.8800,16.69114464
1.8850,17.01407822
1.8900,17.33960145
1.8950,17.66738926
1.9000,17.99771187
1.9050,18.33027641
1.9100,18.66507895
1.9150,19.00225467
1.9200,19.34171354
1.9250,19.68343957
1.9300,20.02760024
1.9350,20.3737518
1.9400,20.72221667
1.9450,21.07298247
1.9500,21.4259235
1.9550,21.78085135
1.9600,22.13781326
1.9650,22.49663276
1.9700,22.85722776
1.9750,23.21938641
1.9800,23.58332317
1.9850,23.94896343
1.9900,24.31631907
1.9950,24.68551669
2.0000,25.0565946
2.0050,25.42933311
2.0100,25.80379743
2.0150,26.18000385
2.0200,26.55816687
2.0250,26.93786234
2.0300,27.31930585
2.0350,27.70241962
2.0400,28.0871439
2.0450,28.47352204
2.0500,28.86164563
2.0550,29.25164132
2.0600,29.64346567
2.0650,30.03698831
2.0700,30.43247366
2.0750,30.82984382
2.0800,31.22918725
2.0850,31.63055642
2.0900,32.03389571
2.0950,32.43932166
2.1000,32.84707367
2.1050,33.25706234
2.1100,33.66939338
2.1150,34.08419958
2.1200,34.50153609
2.1250,34.92106079
2.1300,35.34318308
2.1350,35.76795892
2.1400,36.19559976
2.1450,36.62600426
2.1500,37.05951746
2.1550,37.49629635
2.1600,37.93644508
2.1650,38.38001819
2.1700,38.8273387
2.1750,39.27879568
2.1800,39.73424539
2.1850,40.19397077
2.1900,40.65788614
2.1950,41.12635104
2.2000,41.59909624
2.2050,42.07646419
2.2100,42.55828121
2.2150,43.04414988
2.2200,43.53410788
2.2250,44.02836886
2.2300,44.52697955
2.2350,45.03002631
2.2400,45.53725049
2.2450,46.04859653
2.2500,46.56446218
2.2550,47.08490486
2.2600,47.61000567
2.2650,48.14019518
2.2700,48.6753909
2.2750,49.21574015
2.2800,49.76097486
2.2850,50.31129645
2.2900,50.86669261
2.2950,51.42706021
2.3000,51.99277141
2.3050,52.56396414
2.3100,53.14046923
2.3150,53.72233284
2.3200,54.30944554
2.3250,54.90214164
2.3300,55.50017768
2.3350,56.10359272
2.3400,56.71256922
2.3450,57.32709283
2.3500,57.94685713
2.3550,58.57176875
2.3600,59.20170798
2.3650,59.83662324
2.3700,60.47626375
2.3750,61.12077481
2.3800,61.77009096
2.3850,62.42406008
2.3900,63.08257135
2.3950,63.74556938
2.4000,64.41237362
2.4050,65.08318931
2.4100,65.75777078
2.4150,66.43600371
2.4200,67.11773461
2.4250,67.80302006
2.4300,68.49171781
2.4350,69.18339132
2.4400,69.87780603
2.4450,70.57457726
2.4500,71.27361287
2.4550,71.97464312
2.4600,72.67773048
2.4650,73.38265709
2.4700,74.08904083
2.4750,74.79678299
2.4800,75.50607716
2.4850,76.21661666
2.4900,76.92796315
2.4950,77.6402566
2.5000,78.35346784
2.5050,79.06700488
2.5100,79.78096851
2.5150,80.49560038
2.5200,81.21068988
2.5250,81.92641358
2.5300,82.64211819
2.5350,83.35758362
2.5400,84.07257151
2.5450,84.78723659
2.5500,85.50114432
2.5550,86.21413721
2.5600,86.9261434
2.5650,87.63680969
2.5700,88.34575132
2.5750,89.05305098
2.5800,89.75831599
2.5850,90.46097961
2.5900,91.16063114
2.5950,91.85749137
2.6000,92.55080812
2.6050,93.24053393
2.6100,93.92677222
2.6150,94.60899789
2.6200,95.28717309
2.6250,95.96091091
2.6300,96.63011118
2.6350,97.29459366
2.6400,97.95408228
2.6450,98.60867825
2.6500,99.25827979
2.6550,99.90299846
2.6600,100.5429138
2.6650,101.177841
2.6700,101.8081563
2.6750,102.4335103
2.6800,103.0540106
2.6850,103.6696874
2.6900,104.2806584
2.6950,104.8869378
2.7000,105.4888112
2.7050,106.0862499
2.7100,106.6791454
2.7150,107.2675262
2.7200,107.8510552
2.7250,108.429941
2.7300,109.0037882
2.7350,109.5729426
2.7400,110.1374756
2.7450,110.6976525
2.7500,111.2531554
2.7550,111.8045351
2.7600,112.3516669
2.7650,112.8945114
2.7700,113.4332958
2.7750,113.9677665
2.7800,114.4981813
2.7850,115.0243588
2.7900,115.5465467
2.7950,116.0645792
2.8000,116.5783439
2.8050,117.0885473
2.8100,117.5949563
2.8150,118.0976181
2.8200,118.5962242
2.8250,119.0904622
2.8300,119.5804868
2.8350,120.0669677
2.8400,120.5495719
2.8450,121.0284411
2.8500,121.5038864
2.8550,121.9761422
2.8600,122.44518
2.8650,122.9110242
2.8700,123.3738387
2.8750,123.8332815
2.8800,124.2898842
2.8850,124.7433539
2.8900,125.1942367
2.8950,125.6425586
2.9000,126.088709
2.9050,126.5327849
2.9100,126.9749599
2.9150,127.4149632
2.9200,127.852554
2.9250,128.2875397
2.9300,128.7200816
2.9350,129.1504526
2.9400,129.5787395
2.9450,130.0049657
2.9500,130.4293017
2.9550,130.8513594
2.9600,131.2715162
2.9650,131.6899416
2.9700,132.1068598
2.9750,132.5226961
2.9800,132.9375427
2.9850,133.3510559
2.9900,133.7635137
2.9950,134.1746826
3.0000,134.5842607
3.0050,134.9916908
3.0100,135.3970472
3.0150,135.7999411
3.0200,136.2006548
3.0250,136.5988996
3.0300,136.9946399
3.0350,137.38822
3.0400,137.7795801
3.0450,138.168481
3.0500,138.5554656
3.0550,138.940294
3.0600,139.3231414
3.0650,139.7038536
3.0700,140.082457
3.0750,140.4587078
3.0800,140.8324879
3.0850,141.2041874
3.0900,141.5737504
3.0950,141.9415504
3.1000,142.307576
3.1050,142.6717061
3.1100,143.0338366
3.1150,143.3936223
3.1200,143.7514235
3.1250,144.10708
3.1300,144.4604498
3.1350,144.8109007
3.1400,145.1585237
3.1450,145.5027555
3.1500,145.8433023
3.1550,146.1798879
3.1600,146.5122485
3.1650,146.8403032
3.1700,147.1637675
3.1750,147.4827699
3.1800,147.7973492
3.1850,148.1077764
3.1900,148.414247
3.1950,148.7167619
3.2000,149.0152081
3.2050,149.3095183
3.2100,149.5991946
3.2150,149.884803
3.2200,150.1663429
3.2250,150.4437969
3.2300,150.7172952
3.2350,150.9869387
3.2400,151.2527777
3.2450,151.5148488
3.2500,151.7731458
3.2550,152.0275586
3.2600,152.2780077
3.2650,152.5245797
3.2700,152.7670965
3.2750,153.0056798
3.2800,153.2402532
3.2850,153.4713278
3.2900,153.6988131
3.2950,153.9226088
3.3000,154.1431888
3.3050,154.360593
3.3100,154.5750955
3.3150,154.7874092
3.3200,154.9974333
3.3250,155.2056382
3.3300,155.4125243
3.3350,155.6177095
3.3400,155.8212854
3.3450,156.0233737
3.3500,156.2237665
3.3550,156.4224941
3.3600,156.6195452
3.3650,156.8149887
3.3700,157.0095028
3.3750,157.2031842
3.3800,157.3961379
3.3850,157.5880185
3.3900,157.7793345
3.3950,157.9698452
3.4000,158.1593199
3.4050,158.3475463
3.4100,158.534633
3.4150,158.7208857
3.4200,158.9060501
3.4250,159.0899703
3.4300,159.272557
3.4350,159.4538193
3.4400,159.6339572
3.4450,159.8128659
3.4500,159.9907181
3.4550,160.1672028
3.4600,160.3426008
3.4650,160.5167779
3.4700,160.6898123
3.4750,160.8616897
3.4800,161.0322452
3.4850,161.201419
3.4900,161.3690791
3.4950,161.5350513
3.5000,161.6996163
3.5050,161.8628582
3.5100,162.0249802
3.5150,162.1858647
3.5200,162.3454249
3.5250,162.5036026
3.5300,162.6602932
3.5350,162.8155959
3.5400,162.9694232
3.5450,163.121858
3.5500,163.2728537
3.5550,163.4225867
3.5600,163.5709134
3.5650,163.717751
3.5700,163.8628594
3.5750,164.0061694
3.5800,164.147839
3.5850,164.2876447
3.5900,164.4258057
3.5950,164.562424
3.6000,164.697559
3.6050,164.8311475
3.6100,164.9629545
3.6150,165.0930046
3.6200,165.2215087
3.6250,165.3482539
3.6300,165.4731052
3.6350,165.5965181
3.6400,165.7183711
3.6450,165.8388731
3.6500,165.9581705
3.6550,166.0761551
3.6600,166.1926825
3.6650,166.3080293
3.6700,166.4216052
3.6750,166.5336694
3.6800,166.6444964
3.6850,166.7538941
3.6900,166.861671
3.6950,166.9677864
3.7000,167.0725928
3.7050,167.1761108
3.7100,167.2784603
3.7150,167.3797263
3.7200,167.4798806
3.7250,167.5789693
3.7300,167.6772122
3.7350,167.7748494
3.7400,167.871859
3.7450,167.9683266
3.7500,168.064254
3.7550,168.1599509
3.7600,168.255405
3.7650,168.3504985
3.7700,168.4454226
3.7750,168.5402317
3.7800,168.6349813
3.7850,168.7297063
3.7900,168.8242985
3.7950,168.9186589
3.8000,169.0126732
3.8050,169.1062514
3.8100,169.1992773
3.8150,169.2916421
3.8200,169.3833207
3.8250,169.474328
3.8300,169.5643678
3.8350,169.6530237
3.8400,169.7403348
3.8450,169.8261338
3.8500,169.9103804
3.8550,169.9930753
3.8600,170.0741974
3.8650,170.153435
3.8700,170.231029
3.8750,170.3066111
3.8800,170.3802833
3.8850,170.4520916
3.8900,170.5218716
3.8950,170.5893793
3.9000,170.6545875
3.9050,170.7178541
3.9100,170.7790941
3.9150,170.8379816
3.9200,170.894441
3.9250,170.9485801
3.9300,171.0005078
3.9350,171.0499486
3.9400,171.0971407
3.9450,171.1419049
3.9500,171.1841737
3.9550,171.2241035
3.9600,171.2616703
3.9650,171.2968958
3.9700,171.3298934
3.9750,171.3609398
3.9800,171.3896014
3.9850,171.4162456
3.9900,171.4407792
3.9950,171.4634099
4.0000,171.4841346
4.0050,171.5031201
4.0100,171.5203423
4.0150,171.53592
4.0200,171.5499705
4.0250,171.5626953
4.0300,171.5740459
4.0350,171.5838887
4.0400,171.5923439
4.0450,171.5995737
4.0500,171.6055731
4.0550,171.6101806
4.0600,171.6133386
4.0650,171.6151893
4.0700,171.6157079
4.0750,171.6148193
4.0800,171.6123851
4.0850,171.6082045
4.0900,171.6023326
4.0950,171.5948086
4.1000,171.5853723
4.1050,171.5740754
4.1100,171.5609354
4.1150,171.5459213
4.1200,171.5287701
4.1250,171.5093462
4.1300,171.4877963
4.1350,171.4640828
4.1400,171.4380247
4.1450,171.4095516
4.1500,171.3786232
4.1550,171.345096
4.1600,171.3089425
4.1650,171.2702335
4.1700,171.2287069
4.1750,171.184499
4.1800,171.1375195
4.1850,171.087698
4.1900,171.0347481
4.1950,170.9789967
4.2000,170.9199272
4.2050,170.857725
4.2100,170.7922314
4.2150,170.723557
4.2200,170.6518559
4.2250,170.5770061
4.2300,170.4987797
4.2350,170.4173556
4.2400,170.3323714
4.2450,170.243784
4.2500,170.1517238
4.2550,170.0560136
4.2600,169.9568347
4.2650,169.8541123
4.2700,169.747721
4.2750,169.6374721
4.2800,169.5237919
4.2850,169.4066171
4.2900,169.2860733
4.2950,169.1621767
4.3000,169.034925
4.3050,168.9044705
4.3100,168.7709014
4.3150,168.6340071
4.3200,168.4940834
4.3250,168.3509543
4.3300,168.2048712
4.3350,168.0559984
4.3400,167.9046337
4.3450,167.7507453
4.3500,167.5944964
4.3550,167.4361731
4.3600,167.2759034
4.3650,167.1137658
4.3700,166.9498063
4.3750,166.7841428
4.3800,166.6166975
4.3850,166.4480511
4.3900,166.2781377
4.3950,166.1072324
4.4000,165.9357371
4.4050,165.7635694
4.4100,165.5908228
4.4150,165.4173599
4.4200,165.243735
4.4250,165.0699523
4.4300,164.8959482
4.4350,164.7220078
4.4400,164.548173
4.4450,164.3744743
4.4500,164.2010792
4.4550,164.0279383
4.4600,163.8549173
4.4650,163.6821214
4.4700,163.5095598
4.4750,163.337478
4.4800,163.165626
4.4850,162.9940773
4.4900,162.8230945
4.4950,162.6522902
4.5000,162.4819935
4.5050,162.3117262
4.5100,162.1417834
4.5150,161.9717899
4.5200,161.8017378
4.5250,161.6315559
4.5300,161.4612345
4.5350,161.2905056
4.5400,161.1196677
4.5450,160.9487809
4.5500,160.7774638
4.5550,160.6059469
4.5600,160.4341355
4.5650,160.2618179
4.5700,160.089025
4.5750,159.9157005
4.5800,159.7415507
4.5850,159.5665063
4.5900,159.3903033
4.5950,159.2129766
4.6000,159.0343976
4.6050,158.8544461
4.6100,158.673023
4.6150,158.4901925
4.6200,158.3057522
4.6250,158.1199018
4.6300,157.9325391
4.6350,157.743733
4.6400,157.5530206
4.6450,157.360418
4.6500,157.1659404
4.6550,156.9695638
4.6600,156.7712508
4.6650,156.5711526
4.6700,156.3691233
4.6750,156.1653677
4.6800,155.9601853
4.6850,155.7530017
4.6900,155.5442182
4.6950,155.3336934
4.7000,155.1212328
4.7050,154.9068922
4.7100,154.6909312
4.7150,154.473625
4.7200,154.2546948
4.7250,154.034366
4.7300,153.812924
4.7350,153.5900164
4.7400,153.3658151
4.7450,153.140268
4.7500,152.9131141
4.7550,152.6843607
4.7600,152.4538005
4.7650,152.2214439
4.7700,151.9875712
4.7750,151.751956
4.7800,151.5149306
4.7850,151.2764212
4.7900,151.0362154
4.7950,150.7942007
4.8000,150.5500856
4.8050,150.3041376
4.8100,150.0562027
4.8150,149.8063919
4.8200,149.5544977
4.8250,149.3007947
4.8300,149.0454311
4.8350,148.7886521
4.8400,148.5303306
4.8450,148.2702031
4.8500,148.0087748
4.8550,147.7457703
4.8600,147.4810632
4.8650,147.2147488
4.8700,146.9468345
4.8750,146.677393
4.8800,146.4066626
4.8850,146.1346065
4.8900,145.8615295
4.8950,145.587216
4.9000,145.3114684
4.9050,145.0341406
4.9100,144.7554056
4.9150,144.4750749
4.9200,144.1930378
4.9250,143.9090858
4.9300,143.623098
4.9350,143.3350861
4.9400,143.0450227
4.9450,142.7529807
4.9500,142.4586393
4.9550,142.1619584
4.9600,141.8629493
4.9650,141.561602
4.9700,141.2577373
4.9750,140.9512102
4.9800,140.6417437
4.9850,140.3294212
4.9900,140.0141383
4.9950,139.6958487
5.0000,139.3746285
5.0050,139.0504224
5.0100,138.723173
5.0150,138.392633
5.0200,138.0588638
5.0250,137.7218386
5.0300,137.3814503
5.0350,137.0378833
5.0400,136.6908578
5.0450,136.3402975
5.0500,135.9863173
5.0550,135.6291483
5.0600,135.2691402
5.0650,134.9065478
5.0700,134.5407356
5.0750,134.1718888
5.0800,133.7996637
5.0850,133.4240072
5.0900,133.0450632
5.0950,132.6629223
5.1000,132.2778591
5.1050,131.8897906
5.1100,131.49858
5.1150,131.1043154
5.1200,130.7068679
5.1250,130.3061849
5.1300,129.9021979
5.1350,129.4947255
5.1400,129.0839443
5.1450,128.670265
5.1500,128.2535432
5.1550,127.8341464
5.1600,127.4119005
5.1650,126.9869716
5.1700,126.5594377
5.1750,126.1290815
5.1800,125.6957193
5.1850,125.2591002
5.1900,124.8191817
5.1950,124.3758296
5.2000,123.9291718
5.2050,123.4792393
5.2100,123.026041
5.2150,122.5697669
5.2200,122.1101847
5.2250,121.6473852
5.2300,121.1813502
5.2350,120.7113741
5.2400,120.2375739
5.2450,119.7599091
5.2500,119.2786317
5.2550,118.7937016
5.2600,118.3047043
5.2650,117.8116866
5.2700,117.3148445
5.2750,116.8141127
5.2800,116.3101081
5.2850,115.8027669
5.2900,115.2923934
5.2950,114.7792612
5.3000,114.2636176
5.3050,113.7456425
5.3100,113.2257919
5.3150,112.7043779
5.3200,112.1814996
5.3250,111.6574113
5.3300,111.1324359
5.3350,110.6065276
5.3400,110.0797933
5.3450,109.5528373
5.3500,109.0258155
5.3550,108.4988909
5.3600,107.9719862
5.3650,107.4448672
5.3700,106.9177504
5.3750,106.390118
5.3800,105.8624892
5.3850,105.3342089
5.3900,104.8056615
5.3950,104.276923
5.4000,103.7480178
5.4050,103.2188769
5.4100,102.6893011
5.4150,102.159373
5.4200,101.6291257
5.4250,101.0987016
5.4300,100.5678252
5.4350,100.0365745
5.4400,99.50503804
5.4450,98.97314012
5.4500,98.44056905
5.4550,97.90723551
5.4600,97.37353484
5.4650,96.83930998
5.4700,96.30456493
5.4750,95.7692245
5.4800,95.23341947
5.4850,94.69716946
5.4900,94.16038132
5.4950,93.62333123
5.5000,93.0857989
5.5050,92.54824395
5.5100,92.01019419
5.5150,91.47194508
5.5200,90.93401673
5.5250,90.39669461
5.5300,89.8603914
5.5350,89.32570912
5.5400,88.79240427
5.5450,88.26084022
5.5500,87.7307104
5.5550,87.20211404
5.5600,86.67591208
5.5650,86.15210173
5.5700,85.63069151
5.5750,85.11181004
5.5800,84.59515115
5.5850,84.08113589
5.5900,83.5698969
5.5950,83.06123831
5.6000,82.55542939
5.6050,82.0523364
5.6100,81.55180152
5.6150,81.0537578
5.6200,80.55858634
5.6250,80.06638988
5.6300,79.57656644
5.6350,79.08918495
5.6400,78.60419229
5.6450,78.12125255
5.6500,77.64026553
5.6550,77.16131044
5.6600,76.68470619
5.6650,76.21037389
5.6700,75.73857024
5.6750,75.2691507
5.6800,74.80144706
5.6850,74.33578281
5.6900,73.87150326
5.6950,73.40867449
5.7000,72.947286
5.7050,72.48746818
5.7100,72.02958909
5.7150,71.57378549
5.7200,71.11991995
5.7250,70.6676497
5.7300,70.21668329
5.7350,69.76702117
5.7400,69.3182202
5.7450,68.87059
5.7500,68.42426144
5.7550,67.97929158
5.7600,67.53561577
5.7650,67.09347123
5.7700,66.65287478
5.7750,66.21403695
5.7800,65.77628072
5.7850,65.33968091
5.7900,64.90424397
5.7950,64.46994873
5.8000,64.03733067
5.8050,63.60637219
5.8100,63.17739933
5.8150,62.7503279
5.8200,62.3252344
5.8250,61.90191915
5.8300,61.48011022
5.8350,61.05984627
5.8400,60.64136195
5.8450,60.22492281
5.8500,59.81042882
5.8550,59.39800653
5.8600,58.98714877
5.8650,58.57823407
5.8700,58.1712616
5.8750,57.76651493
5.8800,57.36390604
5.8850,56.96350077
5.8900,56.56523031
5.8950,56.16924187
5.9000,55.77555876
5.9050,55.38437887
5.9100,54.99553997
5.9150,54.60929812
5.9200,54.2255364
5.9250,53.84427852
5.9300,53.4660313
5.9350,53.09057123
5.9400,52.71811713
5.9450,52.34907989
5.9500,51.98358885
5.9550,51.62157192
5.9600,51.26289549
5.9650,50.90766936
5.9700,50.55595122
5.9750,50.20817217
5.9800,49.86468301
5.9850,49.52518523
5.9900,49.18980463
5.9950,48.85849946
6.0000,48.53121855
6.0050,48.20802744
6.0100,47.88886658
6.0150,47.57345465
6.0200,47.26207793
6.0250,46.95505145
6.0300,46.65286572
6.0350,46.35532634
6.0400,46.06254979
6.0450,45.77425353
6.0500,45.49033337
6.0550,45.21061612
6.0600,44.93455954
6.0650,44.6616668
6.0700,44.3919341
6.0750,44.12483955
6.0800,43.86090852
6.0850,43.59955216
6.0900,43.34070996
6.0950,43.08417435
6.1000,42.82941495
6.1050,42.57612899
6.1100,42.32393823
6.1150,42.07276283
6.1200,41.82237097
6.1250,41.57223667
6.1300,41.32231618
6.1350,41.07235562
6.1400,40.82214573
6.1450,40.57123343
6.1500,40.31991809
6.1550,40.06830682
6.1600,39.81660927
6.1650,39.56469992
6.1700,39.31230861
6.1750,39.05930894
6.1800,38.80563839
6.1850,38.5513752
6.1900,38.29671671
6.1950,38.04151018
6.2000,37.78577418
6.2050,37.52928304
6.2100,37.27240417
6.2150,37.01499789
6.2200,36.75721995
6.2250,36.49927787
6.2300,36.2409402
6.2350,35.98271501
6.2400,35.72480505
6.2450,35.46692593
6.2500,35.20928858
6.2550,34.95197182
6.2600,34.69548725
6.2650,34.44012049
6.2700,34.18579658
6.2750,33.93266394
6.2800,33.68087355
6.2850,33.43052205
6.2900,33.18192646
6.2950,32.93524081
6.3000,32.69055741
6.3050,32.4479658
6.3100,32.20775876
6.3150,31.97028909
6.3200,31.73582508
6.3250,31.50438763
6.3300,31.27604831
6.3350,31.05099031
6.3400,30.82923035
6.3450,30.61078837
6.3500,30.39582048
6.3550,30.18436847
6.3600,29.97673798
6.3650,29.77292452
6.3700,29.57290355
6.3750,29.37678841
6.3800,29.18387797
6.3850,28.99446554
6.3900,28.80806345
6.3950,28.62451561
6.4000,28.44352405
6.4050,28.26487852
6.4100,28.08852436
6.4150,27.91406307
6.4200,27.74123173
6.4250,27.57005515
6.4300,27.40020899
6.4350,27.23178827
6.4400,27.06442125
6.4450,26.89828726
6.4500,26.73311424
6.4550,26.56853908
6.4600,26.40426363
6.4650,26.24013989
6.4700,26.07619287
6.4750,25.91214215
6.4800,25.74818402
6.4850,25.58410139
6.4900,25.41960879
6.4950,25.25494605
6.5000,25.09018929
6.5050,24.92545328
6.5100,24.76066315
6.5150,24.59605501
6.5200,24.43156105
6.5250,24.26716712
6.5300,24.10290901
6.5350,23.93876355
6.5400,23.77480859
6.5450,23.61120443
6.5500,23.44794876
6.5550,23.28498695
6.5600,23.12225943
6.5650,22.95956561
6.5700,22.79716118
6.5750,22.63500393
6.5800,22.47286837
6.5850,22.31115746
6.5900,22.1496054
6.5950,21.98818864
6.6000,21.82707864
6.6050,21.66605075
6.6100,21.50493854
6.6150,21.34374154
6.6200,21.18224838
6.6250,21.02063781
6.6300,20.85885896
6.6350,20.69697402
6.6400,20.53498329
6.6450,20.37298178
6.6500,20.21086374
6.6550,20.04877961
6.6600,19.88651224
6.6650,19.724267
6.6700,19.56191324
6.6750,19.39964844
6.6800,19.23755779
6.6850,19.07547994
6.6900,18.91359314
6.6950,18.75176695
6.7000,18.59023335
6.7050,18.42883387
6.7100,18.26754956
6.7150,18.10656955
6.7200,17.94568535
6.7250,17.78494177
6.7300,17.6243066
6.7350,17.46371773
6.7400,17.30340484
6.7450,17.14314895
6.7500,16.98320212
6.7550,16.82357147
6.7600,16.66460411
6.7650,16.50635622
6.7700,16.34902829
6.7750,16.19289777
6.7800,16.03777524
6.7850,15.88382318
6.7900,15.7312358
6.7950,15.5801282
6.8000,15.43044718
6.8050,15.28239247
6.8100,15.13623895
6.8150,14.99176367
6.8200,14.84918065
6.8250,14.70832792
6.8300,14.56952876
6.8350,14.43259442
6.8400,14.29756637
6.8450,14.16444373
6.8500,14.03316721
6.8550,13.90400001
6.8600,13.77678268
6.8650,13.65159498
6.8700,13.52838375
6.8750,13.4072168
6.8800,13.28807756
6.8850,13.1708987
6.8900,13.05572654
6.8950,12.94260269
6.9000,12.83120611
6.9050,12.72156609
6.9100,12.6137903
6.9150,12.50758049
6.9200,12.4030357
6.9250,12.29989419
6.9300,12.19834374
6.9350,12.09829846
6.9400,11.9998316
6.9450,11.90287758
6.9500,11.80744926
6.9550,11.71338062
6.9600,11.62083519
6.9650,11.52983133
6.9700,11.44027468
6.9750,11.35203078
6.9800,11.26533032
6.9850,11.18022944
6.9900,11.09658246
6.9950,11.01464693
7.0000,10.93441795
7.0050,10.8560799
7.0100,10.77961288
7.0150,10.70508908
7.0200,10.63266558
7.0250,10.56248002
7.0300,10.49463671
7.0350,10.42915523
7.0400,10.3662105
7.0450,10.3058485
7.0500,10.24807221
7.0550,10.19308123
7.0600,10.14080227
7.0650,10.09135038
7.0700,10.0446139
7.0750,10.00050981
7.0800,9.959219382
7.0850,9.920581734
7.0900,9.884515805
7.0950,9.850786599
7.1000,9.819339866
7.1050,9.790206234
7.1100,9.763121252
7.1150,9.73817747
7.1200,9.715304277
7.1250,9.694409225
7.1300,9.675559912
7.1350,9.658575965
7.1400,9.643325113
7.1450,9.629804885
7.1500,9.617886205
7.1550,9.607342068
7.1600,9.598198933
7.1650,9.59022193
7.1700,9.583290832
7.1750,9.577383384
7.1800,9.572423643
7.1850,9.568087233
7.1900,9.564249688
7.1950,9.560868521
7.2000,9.557914625
7.2050,9.555535035
7.2100,9.553471185
7.2150,9.55198625
7.2200,9.55098325
7.2250,9.550763067
7.2300,9.551008721
7.2350,9.551776564
7.2400,9.553292251
7.2450,9.555576533
7.2500,9.559000055
7.2550,9.563642371
7.2600,9.569744545
7.2650,9.57733601
7.2700,9.586785321
7.2750,9.598159174
7.2800,9.611439321
7.2850,9.626568324
7.2900,9.643946756
7.2950,9.663430231
7.3000,9.685093434
7.3050,9.708942602
7.3100,9.735181645
7.3150,9.763827779
7.3200,9.794906552
7.3250,9.828510886
7.3300,9.864660934
7.3350,9.903488155
7.3400,9.944920965
7.3450,9.989055118
7.3500,10.03600143
7.3550,10.08557037
7.3600,10.13797797
7.3650,10.19304758
7.3700,10.25099824
7.3750,10.31205843
7.3800,10.37612115
7.3850,10.44345124
7.3900,10.51412936
7.3950,10.58829329
7.4000,10.66609283
7.4050,10.74728275
7.4100,10.83206641
7.4150,10.92039234
7.4200,11.01205771
7.4250,11.1072784
7.4300,11.20588347
7.4350,11.30792586
7.4400,11.41327721
7.4450,11.52192008
7.4500,11.63396155
7.4550,11.74940234
7.4600,11.86807112
7.4650,11.99015712
7.4700,12.11552852
7.4750,12.24392144
7.4800,12.37555137
7.4850,12.51039639
7.4900,12.648326
7.4950,12.78918473
7.5000,12.93282464
7.5050,13.07910596
7.5100,13.2279069
7.5150,13.37905129
7.5200,13.53243266
7.5250,13.68782451
7.5300,13.84533516
7.5350,14.00483256
7.5400,14.16606433
7.5450,14.32916119
7.5500,14.49385483
7.5550,14.66014244
7.5600,14.82795814
7.5650,14.99716329
7.5700,15.16768442
7.5750,15.33971562
7.5800,15.51323611
7.5850,15.68843937
7.5900,15.86520873
7.5950,16.04371473
7.6000,16.22410418
7.6050,16.40648202
7.6100,16.59065736
7.6150,16.77684826
7.6200,16.96511666
7.6250,17.15547704
7.6300,17.34784548
7.6350,17.54234126
7.6400,17.73905104
7.6450,17.93820343
7.6500,18.13971233
7.6550,18.34383271
7.6600,18.55049401
7.6650,18.75978408
7.6700,18.97182163
7.6750,19.18624748
7.6800,19.40319847
7.6850,19.62244498
7.6900,19.84402299
7.6950,20.06793992
7.7000,20.29431188
7.7050,20.52323672
7.7100,20.75455024
7.7150,20.98813105
7.7200,21.22402321
7.7250,21.46211284
7.7300,21.70209859
7.7350,21.94403663
7.7400,22.18778736
7.7450,22.43308169
7.7500,22.67978175
7.7550,22.9276415
7.7600,23.17695682
7.7650,23.42742187
7.7700,23.6789847
7.7750,23.93149918
7.7800,24.18473588
7.7850,24.43854908
7.7900,24.6928254
7.7950,24.94754277
7.8000,25.20256915
7.8050,25.45761829
7.8100,25.71265334
7.8150,25.96765784
7.8200,26.22269135
7.8250,26.4777428
7.8300,26.73282304
7.8350,26.98781132
7.8400,27.24263104
7.8450,27.49735593
7.8500,27.75189938
7.8550,28.0065102
7.8600,28.2610998
7.8650,28.51586887
7.8700,28.77079626
7.8750,29.02587702
7.8800,29.2812038
7.8850,29.53678946
7.8900,29.7927533
7.8950,30.04932432
7.9000,30.30667803
7.9050,30.5648429
7.9100,30.82407178
7.9150,31.08422047
7.9200,31.34560712
7.9250,31.60811191
7.9300,31.872187
7.9350,32.1377719
7.9400,32.4050758
7.9450,32.67408091
7.9500,32.94524197
7.9550,33.21842167
7.9600,33.49411634
7.9650,33.77230044
7.9700,34.05302842
7.9750,34.33655785
7.9800,34.62300309
7.9850,34.91238967
7.9900,35.20473901
7.9950,35.50040616
8.0000,35.79892725
8.0050,36.10060246
8.0100,36.40536077
8.0150,36.71322931
8.0200,37.02409308
8.0250,37.33822769
8.0300,37.65571333
8.0350,37.9766269
8.0400,38.30116965
8.0450,38.62950219
8.0500,38.96154842
8.0550,39.29712904
8.0600,39.6359442
8.0650,39.97820067
8.0700,40.32386044
8.0750,40.67295869
8.0800,41.02570918
8.0850,41.38221209
8.0900,41.74260721
8.0950,42.1066027
8.1000,42.47425258
8.1050,42.84573578
8.1100,43.22107101
8.1150,43.6001611
8.1200,43.98266332
8.1250,44.36861756
8.1300,44.75784616
8.1350,45.15079705
8.1400,45.5474162
8.1450,45.94739683
8.1500,46.35106375
8.1550,46.75814409
8.1600,47.16874199
8.1650,47.58270217
8.1700,48.00055034
8.1750,48.42205747
8.1800,48.84754286
8.1850,49.27714357
8.1900,49.71094896
8.1950,50.14869901
8.2000,50.59028486
8.2050,51.03586123
8.2100,51.48571356
8.2150,51.94026838
8.2200,52.39963435
8.2250,52.86430235
8.2300,53.33409052
8.2350,53.80946972
8.2400,54.29036267
8.2450,54.7770556
8.2500,55.26919708
8.2550,55.76719796
8.2600,56.27066293
8.2650,56.78021371
8.2700,57.29584293
8.2750,57.81777243
8.2800,58.3462252
8.2850,58.8815839
8.2900,59.42397343
8.2950,59.97305563
8.3000,60.52893916
8.3050,61.09155075
8.3100,61.66062122
8.3150,62.23660305
8.3200,62.8194174
8.3250,63.40866122
8.3300,64.00415616
8.3350,64.60570122
8.3400,65.21323555
8.3450,65.826279
8.3500,66.44480436
8.3550,67.06885176
8.3600,67.69844306
8.3650,68.33305289
8.3700,68.97273799
8.3750,69.61742747
8.3800,70.2664839
8.3850,70.92014781
8.3900,71.57792762
8.3950,72.23987998
8.4000,72.90576765
8.4050,73.57558772
8.4100,74.24947204
8.4150,74.927078
8.4200,75.60829371
8.4250,76.29335385
8.4300,76.98220503
8.4350,77.67479582
8.4400,78.37110763
8.4450,79.0714222
8.4500,79.77558428
8.4550,80.48384707
8.4600,81.19617729
8.4650,81.91274057
8.4700,82.63347565
8.4750,83.35848368
8.4800,84.08742825
8.4850,84.82040258
8.4900,85.55714175
8.4950,86.29771279
8.5000,87.04195448
8.5050,87.79001613
8.5100,88.54157501
8.5150,89.29639356
8.5200,90.05449804
8.5250,90.81573005
8.5300,91.57997233
8.5350,92.34671734
8.5400,93.11531008
8.5450,93.88559977
8.5500,94.65725131
8.5550,95.42989676
8.5600,96.20336861
8.5650,96.97728547
8.5700,97.75104533
8.5750,98.5240275
8.5800,99.29586851
8.5850,100.0662592
8.5900,100.83469
8.5950,101.600545
8.6000,102.3637464
8.6050,103.1238609
8.6100,103.8808744
8.6150,104.6345111
8.6200,105.3838699
8.6250,106.1290386
8.6300,106.8697712
8.6350,107.6055481
8.6400,108.3364634
8.6450,109.0623596
8.6500,109.7825229
8.6550,110.4967113
8.6600,111.204924
8.6650,111.9071264
8.6700,112.603191
8.6750,113.2927158
8.6800,113.9757761
8.6850,114.6518978
8.6900,115.3214651
8.6950,115.984206
8.7000,116.6399867
8.7050,117.2883373
8.7100,117.9292567
8.7150,118.5629347
8.7200,119.1895358
8.7250,119.8087487
8.7300,120.4201843
8.7350,121.023908
8.7400,121.6200848
8.7450,122.2086875
8.7500,122.7898955
8.7550,123.3637364
8.7600,123.9299297
8.7650,124.4890014
8.7700,125.0406265
8.7750,125.5847286
8.7800,126.1211876
8.7850,126.6496238
8.7900,127.1702605
8.7950,127.6829074
8.8000,128.1878786
8.8050,128.6852143
8.8100,129.1754739
8.8150,129.6585041
8.8200,130.1342229
8.8250,130.602653
8.8300,131.0642768
8.8350,131.5187736
8.8400,131.9662328
8.8450,132.4069936
8.8500,132.8414438
8.8550,133.2698028
8.8600,133.6923588
8.8650,134.1088807
8.8700,134.5195154
8.8750,134.9246493
8.8800,135.3246301
8.8850,135.7195204
8.8900,136.1098761
8.8950,136.4960301
8.9000,136.878488
8.9050,137.2574855
8.9100,137.6332052
8.9150,138.0052338
8.9200,138.3740934
8.9250,138.7398674
8.9300,139.1028489
8.9350,139.463387
8.9400,139.8209507
8.9450,140.1751369
8.9500,140.526284
8.9550,140.874376
8.9600,141.2193656
8.9650,141.5612064
8.9700,141.899654
8.9750,142.2350294
8.9800,142.5674809
8.9850,142.8969384
8.9900,143.2233819
8.9950,143.5469673
9.0000,143.8679161
9.0050,144.1865895
9.0100,144.5027442
9.0150,144.8162019
9.0200,145.1267732
9.0250,145.4346376
9.0300,145.7399396
9.0350,146.0425769
9.0400,146.3423325
9.0450,146.6387956
9.0500,146.9321503
9.0550,147.2223172
9.0600,147.5094208
9.0650,147.7930685
9.0700,148.0736771
9.0750,148.3516306
9.0800,148.6269336
9.0850,148.8998104
9.0900,149.1697139
9.0950,149.4371609
9.1000,149.7020473
9.1050,149.964784
9.1100,150.2250539
9.1150,150.4835285
9.1200,150.7408475
9.1250,150.9972504
9.1300,151.2529753
9.1350,151.5086254
9.1400,151.7642686
9.1450,152.0199836
9.1500,152.275707
9.1550,152.5315198
9.1600,152.7873386
9.1650,153.0432835
9.1700,153.2992753
9.1750,153.5551359
9.1800,153.8108027
9.1850,154.0662199
9.1900,154.3211753
9.1950,154.5761431
9.2000,154.8310639
9.2050,155.0857092
9.2100,155.3399839
9.2150,155.5939616
9.2200,155.8475572
9.2250,156.1005988
9.2300,156.3531594
9.2350,156.6052003
9.2400,156.8568979
9.2450,157.1083757
9.2500,157.3597488
9.2550,157.6113869
9.2600,157.8630294
9.2650,158.1143807
9.2700,158.3650766
9.2750,158.6150753
9.2800,158.864224
9.2850,159.112315
9.2900,159.3593994
9.2950,159.605221
9.3000,159.8495511
9.3050,160.0918761
9.3100,160.332434
9.3150,160.5709035
9.3200,160.8071207
9.3250,161.0410345
9.3300,161.2726944
9.3350,161.5021963
9.3400,161.7294044
9.3450,161.9543312
9.3500,162.1766853
9.3550,162.39677
9.3600,162.6143057
9.3650,162.8295909
9.3700,163.0422665
9.3750,163.2522661
9.3800,163.4598841
9.3850,163.6651076
9.3900,163.867875
9.3950,164.0682124
9.4000,164.2661072
9.4050,164.4615636
9.4100,164.6546624
9.4150,164.8453781
9.4200,165.0335743
9.4250,165.2191766
9.4300,165.4022541
9.4350,165.5826063
9.4400,165.7606151
9.4450,165.9362701
9.4500,166.1095337
9.4550,166.2805116
9.4600,166.449418
9.4650,166.6162896
9.4700,166.7813359
9.4750,166.9448373
9.4800,167.1070403
9.4850,167.2680761
9.4900,167.4281033
9.4950,167.5867455
9.5000,167.7442375
9.5050,167.9005848
9.5100,168.0559621
9.5150,168.210398
9.5200,168.3637998
9.5250,168.5165745
9.5300,168.6686027
9.5350,168.8196753
9.5400,168.9697334
9.5450,169.1189106
9.5500,169.2671154
9.5550,169.4143777
9.5600,169.5605094
9.5650,169.705678
9.5700,169.850117
9.5750,169.9938837
9.5800,170.1370746
9.5850,170.2797212
9.5900,170.4216639
9.5950,170.5629166
9.6000,170.7036684
9.6050,170.8437161
9.6100,170.9830807
9.6150,171.1219356
9.6200,171.2603035
9.6250,171.3981696
9.6300,171.5353722
9.6350,171.6717909
9.6400,171.8075553
9.6450,171.9428214
9.6500,172.0774995
9.6550,172.211458
9.6600,172.3448168
9.6650,172.4771959
9.6700,172.6088098
9.6750,172.7394424
9.6800,172.8689944
9.6850,172.9974122
9.6900,173.1249514
9.6950,173.2516503
9.7000,173.3775383
9.7050,173.5025675
9.7100,173.6270624
9.7150,173.7507215
9.7200,173.8736808
9.7250,173.9958631
9.7300,174.1172697
9.7350,174.2380187
9.7400,174.3579252
9.7450,174.4769985
9.7500,174.5952801
9.7550,174.7125992
9.7600,174.8289791
9.7650,174.9444935
9.7700,175.0594012
9.7750,175.1736581
9.7800,175.2872037
9.7850,175.4001933
9.7900,175.5125721
9.7950,175.6245661
9.8000,175.7360259
9.8050,175.8470359
9.8100,175.957433
9.8150,176.0673868
9.8200,176.1770287
9.8250,176.2860501
9.8300,176.3944931
9.8350,176.5022614
9.8400,176.6092055
9.8450,176.7153461
9.8500,176.8204596
9.8550,176.9244169
9.8600,177.0270582
9.8650,177.1282546
9.8700,177.2276751
9.8750,177.3251954
9.8800,177.4206217
9.8850,177.513825
9.8900,177.604751
9.8950,177.69319
9.9000,177.7790352
9.9050,177.8626009
9.9100,177.9436051
9.9150,178.0218012
9.9200,178.097424
9.9250,178.1704675
9.9300,178.2409559
9.9350,178.3090088
9.9400,178.3746334
9.9450,178.437706
9.9500,178.4982331
9.9550,178.556247
9.9600,178.6119042
9.9650,178.6654423
9.9700,178.716648
9.9750,178.7653836
9.9800,178.8119583
9.9850,178.8562499
9.9900,178.8982199
9.9950,178.9379185
10.0000,178.9752978
10.0050,179.0102292
10.0100,179.0426462
10.0150,179.0728112
10.0200,179.1004441
10.0250,179.1257223
10.0300,179.14859
10.0350,179.169209
10.0400,179.1874799
10.0450,179.2033308
10.0500,179.2168648
10.0550,179.2282436
10.0600,179.2372541
10.0650,179.2440543
10.0700,179.2484337
10.0750,179.2503322
10.0800,179.2499898
10.0850,179.2472349
10.0900,179.2423117
10.0950,179.2349827
10.1000,179.2253112
10.1050,179.2133434
10.1100,179.1991431
10.1150,179.1826072
10.1200,179.1637627
10.1250,179.142845
10.1300,179.1195721
10.1350,179.09415
10.1400,179.0666745
10.1450,179.0371225
10.1500,179.0055324
10.1550,178.9717954
10.1600,178.9360507
10.1650,178.8982931
10.1700,178.8587944
10.1750,178.8174061
10.1800,178.7742095
10.1850,178.7293619
10.1900,178.6828725
10.1950,178.6347657
10.2000,178.585218
10.2050,178.5340909
10.2100,178.4815743
10.2150,178.4278026
10.2200,178.3725863
10.2250,178.3159648
10.2300,178.2579336
10.2350,178.1984677
10.2400,178.1376109
10.2450,178.075454
10.2500,178.0121928
10.2550,177.9476092
10.2600,177.8816914
10.2650,177.8141608
10.2700,177.745197
10.2750,177.6750213
10.2800,177.6032715
10.2850,177.529976
10.2900,177.4552629
10.2950,177.3789562
10.3000,177.3011204
10.3050,177.221926
10.3100,177.1412382
10.3150,177.0588924
10.3200,176.9751865
10.3250,176.8899787
10.3300,176.8034858
10.3350,176.7154794
10.3400,176.6261984
10.3450,176.5356702
10.3500,176.44384
10.3550,176.3508665
10.3600,176.2568412
10.3650,176.1617663
10.3700,176.0656916
10.3750,175.968754
10.3800,175.8708331
10.3850,175.7720068
10.3900,175.6722443
10.3950,175.5717053
10.4000,175.4705374
10.4050,175.3685859
10.4100,175.2659167
10.4150,175.1627365
10.4200,175.0588599
10.4250,174.9543092
10.4300,174.8491626
10.4350,174.7435115
10.4400,174.6375389
10.4450,174.5310414
10.4500,174.4239717
10.4550,174.3163391
10.4600,174.2080164
10.4650,174.0991346
10.4700,173.9894703
10.4750,173.8791988
10.4800,173.768271
10.4850,173.6565785
10.4900,173.5442187
10.4950,173.4315186
10.5000,173.3182006
10.5050,173.2046068
10.5100,173.0904617
10.5150,172.9758631
10.5200,172.8607739
10.5250,172.7452404
10.5300,172.6293024
10.5350,172.5128157
10.5400,172.3957492
10.5450,172.2781368
10.5500,172.1597594
10.5550,172.0408633
10.5600,171.9213056
10.5650,171.8010897
10.5700,171.6802183
10.5750,171.5586618
10.5800,171.436505
10.5850,171.3137688
10.5900,171.1904195
10.5950,171.0663365
10.6000,170.9416201
10.6050,170.8159115
10.6100,170.6894677
10.6150,170.5622004
10.6200,170.4340607
10.6250,170.3053331
10.6300,170.1755667
10.6350,170.0451768
10.6400,169.9140043
10.6450,169.7821644
10.6500,169.6497192
10.6550,169.5165997
10.6600,169.3827777
10.6650,169.2479604
10.6700,169.1124757
10.6750,168.9761302
10.6800,168.8388075
10.6850,168.700761
10.6900,168.5618103
10.6950,168.4221028
10.7000,168.281486
10.7050,168.1401186
10.7100,167.9980891
10.7150,167.8550443
10.7200,167.7111742
10.7250,167.5665388
10.7300,167.4208762
10.7350,167.2739831
10.7400,167.125781
10.7450,166.9762489
10.7500,166.8253761
10.7550,166.6732201
10.7600,166.5200784
10.7650,166.3656429
10.7700,166.2099945
10.7750,166.0532782
10.7800,165.8952338
10.7850,165.7360186
10.7900,165.57535
10.7950,165.4131471
10.8000,165.2496782
10.8050,165.0847926
10.8100,164.9189007
10.8150,164.7520093
10.8200,164.5843115
10.8250,164.4157124
10.8300,164.2463996
10.8350,164.0763897
10.8400,163.9056397
10.8450,163.73423
10.8500,163.5622076
10.8550,163.3893
10.8600,163.2156353
10.8650,163.0413029
10.8700,162.8662091
10.8750,162.6903055
10.8800,162.5136133
10.8850,162.3362037
10.8900,162.1576929
10.8950,161.9782731
10.9000,161.7977678
10.9050,161.6164164
10.9100,161.4340027
10.9150,161.2505702
10.9200,161.0662801
10.9250,160.8810575
10.9300,160.6952856
10.9350,160.5085203
10.9400,160.3209815
10.9450,160.1325236
10.9500,159.943164
10.9550,159.7527998
10.9600,159.5615446
10.9650,159.3695514
10.9700,159.1763441
10.9750,158.9822163
10.9800,158.7869811
10.9850,158.5904526
10.9900,158.3927301
10.9950,158.193574
11.0000,157.9928673
11.0050,157.7906145
11.0100,157.5867139
11.0150,157.3810707
11.0200,157.1738631
11.0250,156.96476
11.0300,156.7541324
11.0350,156.541825
11.0400,156.3277771
11.0450,156.1119983
11.0500,155.8943069
11.0550,155.6749477
11.0600,155.453451
11.0650,155.2301401
11.0700,155.0050424
11.0750,154.7777318
11.0800,154.548661
11.0850,154.3176483
11.0900,154.0852124
11.0950,153.8512847
11.1000,153.6158144
11.1050,153.3788072
11.1100,153.1399291
11.1150,152.8994205
11.1200,152.6569505
11.1250,152.4126937
11.1300,152.1662423
11.1350,151.9178005
11.1400,151.667317
11.1450,151.4147471
11.1500,151.1598662
11.1550,150.9026681
11.1600,150.6431002
11.1650,150.3810648
11.1700,150.116376
11.1750,149.8491977
11.1800,149.5793591
11.1850,149.3066516
11.1900,149.0313133
11.1950,148.7532977
11.2000,148.4727781
11.2050,148.1896228
11.2100,147.9039122
11.2150,147.6157047
11.2200,147.3247222
11.2250,147.0308861
11.2300,146.7340886
11.2350,146.4345287
11.2400,146.1323036
11.2450,145.8271813
11.2500,145.5191138
11.2550,145.2079268
11.2600,144.8936133
11.2650,144.576061
11.2700,144.2550938
11.2750,143.9305833
11.2800,143.6025684
11.2850,143.2708415
11.2900,142.9351767
11.2950,142.5954966
11.3000,142.2516466
11.3050,141.9034496
11.3100,141.5510527
11.3150,141.1949322
11.3200,140.8345146
11.3250,140.4698099
11.3300,140.1008055
11.3350,139.7275135
11.3400,139.3498393
11.3450,138.9680185
11.3500,138.5819311
11.3550,138.1913094
11.3600,137.7963141
11.3650,137.3970251
11.3700,136.9932493
11.3750,136.585139
11.3800,136.1723084
11.3850,135.754995
11.3900,135.3327871
11.3950,134.9055043
11.4000,134.4729462
11.4050,134.0349934
11.4100,133.5918557
11.4150,133.1432163
11.4200,132.6895101
11.4250,132.2305762
11.4300,131.7664987
11.4350,131.2970911
11.4400,130.8223135
11.4450,130.3421835
11.4500,129.8568255
11.4550,129.3663463
11.4600,128.8706179
11.4650,128.3696738
11.4700,127.8637175
11.4750,127.3526598
11.4800,126.83645
11.4850,126.3152783
11.4900,125.7892416
11.4950,125.2581716
11.5000,124.721928
11.5050,124.1807768
11.5100,123.6343551
11.5150,123.0826852
11.5200,122.5257327
11.5250,121.9633314
11.5300,121.3959041
11.5350,120.822868
11.5400,120.2442782
11.5450,119.6601998
11.5500,119.0708892
11.5550,118.4765851
11.5600,117.8773614
11.5650,117.2732332
11.5700,116.6639321
11.5750,116.0493003
11.5800,115.4292916
11.5850,114.8042706
11.5900,114.1744202
11.5950,113.5403433
11.6000,112.9021971
11.6050,112.2598932
11.6100,111.6132681
11.6150,110.9621579
11.6200,110.3069947
11.6250,109.6479684
11.6300,108.985729
11.6350,108.3204577
11.6400,107.6522659
11.6450,106.9811757
11.6500,106.307169
11.6550,105.6300432
11.6600,104.9496556
11.6650,104.2656568
11.6700,103.5786522
11.6750,102.8884203
11.6800,102.195408
11.6850,101.49904
11.6900,100.7999753
11.6950,100.0983627
11.7000,99.39440769
11.7050,98.68828404
11.7100,97.98041303
11.7150,97.27084244
11.7200,96.56008353
11.7250,95.84855585
11.7300,95.1365246
11.7350,94.42406865
11.7400,93.71144253
11.7450,92.99857374
11.7500,92.286054
11.7550,91.57437745
11.7600,90.8637576
11.7650,90.15482123
11.7700,89.44738357
11.7750,88.74205075
11.7800,88.03899025
11.7850,87.33859509
11.7900,86.64052396
11.7950,85.94542238
11.8000,85.25331168
11.8050,84.56444977
11.8100,83.87915383
11.8150,83.19759482
11.8200,82.51977396
11.8250,81.84613774
11.8300,81.17644153
11.8350,80.5112614
11.8400,79.85078552
11.8450,79.19531205
11.8500,78.54505535
11.8550,77.9004232
11.8600,77.26100193
11.8650,76.6273232
11.8700,75.99945675
11.8750,75.37760125
11.8800,74.76148251
11.8850,74.15086301
11.8900,73.54587014
11.8950,72.94645668
11.9000,72.35292666
11.9050,71.76525407
11.9100,71.18342849
11.9150,70.60700466
11.9200,70.03581728
11.9250,69.46986693
11.9300,68.90865601
11.9350,68.35228549
11.9400,67.80043731
11.9450,67.25295225
11.9500,66.70944454
11.9550,66.17008899
11.9600,65.63443309
11.9650,65.10190438
11.9700,64.57218604
11.9750,64.0456818
11.9800,63.52232431
11.9850,63.00240383
11.9900,62.48551091
11.9950,61.97191373
12.0000,61.46146293
12.0050,60.95436855
12.0100,60.45025991
12.0150,59.94930633
12.0200,59.45191538
12.0250,58.95778837
12.0300,58.46686504
12.0350,57.97938564
12.0400,57.49504475
12.0450,57.01410579
12.0500,56.53613302
12.0550,56.06129879
12.0600,55.58987058
12.0650,55.12220425
12.0700,54.65863082
12.0750,54.19931902
12.0800,53.74413942
12.0850,53.29311766
12.0900,52.84636979
12.0950,52.40366943
12.1000,51.96542672
12.1050,51.53155094
12.1100,51.10198969
12.1150,50.67719709
12.1200,50.2574929
12.1250,49.84268283
12.1300,49.43277335
12.1350,49.02806419
12.1400,48.62827602
12.1450,48.23276278
12.1500,47.8415545
12.1550,47.45468873
12.1600,47.07193062
12.1650,46.6929347
12.1700,46.31738559
12.1750,45.94497074
12.1800,45.57538751
12.1850,45.20843139
12.1900,44.84388466
12.1950,44.48144118
12.2000,44.12095805
12.2050,43.76251977
12.2100,43.40608695
12.2150,43.05151495
12.2200,42.69856107
12.2250,42.34717544
12.2300,41.99726391
12.2350,41.64872655
12.2400,41.3016263
12.2450,40.95578933
12.2500,40.61153786
12.2550,40.26874181
12.2600,39.92750468
12.2650,39.5884954
12.2700,39.25147658
12.2750,38.91646988
12.2800,38.58352559
12.2850,38.25243836
12.2900,37.92335503
12.2950,37.59602415
12.3000,37.27037995
12.3050,36.94630029
12.3100,36.62411084
12.3150,36.30408326
12.3200,35.98569534
12.3250,35.6691568
12.3300,35.35487995
12.3350,35.04279631
12.3400,34.73305615
12.3450,34.42564539
12.3500,34.12072638
12.3550,33.81827174
12.3600,33.51857593
12.3650,33.22154836
12.3700,32.92720171
12.3750,32.63565094
12.3800,32.34700624
12.3850,32.06143402
12.3900,31.77897669
12.3950,31.49973276
12.4000,31.22351776
12.4050,30.9499776
12.4100,30.67930062
12.4150,30.41107112
12.4200,30.14524688
12.4250,29.88162861
12.4300,29.62028683
12.4350,29.3608191
12.4400,29.10321565
12.4450,28.84769786
12.4500,28.59395568
12.4550,28.34192053
12.4600,28.09151718
12.4650,27.84274577
12.4700,27.59549602
12.4750,27.34956354
12.4800,27.10510044
12.4850,26.86229475
12.4900,26.62056587
12.4950,26.38026696
12.5000,26.14140516
12.5050,25.90389717
12.5100,25.66782269
12.5150,25.43317531
12.5200,25.20003894
12.5250,24.96846032
12.5300,24.7383708
12.5350,24.50996592
12.5400,24.28325893
12.5450,24.0582661
12.5500,23.83509508
12.5550,23.61363716
12.5600,23.39443003
12.5650,23.17732102
12.5700,22.96263881
12.5750,22.75051729
12.5800,22.54099422
12.5850,22.33444021
12.5900,22.13080978
12.5950,21.93051548
12.6000,21.7337071
12.6050,21.54060814
12.6100,21.3511229
12.6150,21.16513575
12.6200,20.98281719
12.6250,20.80429382
12.6300,20.62923062
12.6350,20.45768071
12.6400,20.28971345
12.6450,20.12520369
12.6500,19.96404946
12.6550,19.80609816
12.6600,19.65123561
12.6650,19.49902488
12.6700,19.34937333
12.6750,19.20212491
12.6800,19.05700952
12.6850,18.91390017
12.6900,18.77258707
12.6950,18.63293257
12.7000,18.49487034
12.7050,18.35837344
12.7100,18.22331034
12.7150,18.08958096
12.7200,17.95720007
12.7250,17.82604796
12.7300,17.69606138
12.7350,17.56724884
12.7400,17.43950512
12.7450,17.31250003
12.7500,17.1862691
12.7550,17.06061231
12.7600,16.93549846
12.7650,16.8105309
12.7700,16.6858096
12.7750,16.56120917
12.7800,16.43660546
12.7850,16.31180593
12.7900,16.1871489
12.7950,16.06238768
12.8000,15.93767172
12.8050,15.81285656
12.8100,15.68798434
12.8150,15.5632765
12.8200,15.43872044
12.8250,15.31424248
12.8300,15.19007691
12.8350,15.06633589
12.8400,14.94309105
12.8450,14.82041126
12.8500,14.69852885
12.8550,14.57761908
12.8600,14.45754515
12.8650,14.33853383
12.8700,14.22065271
12.8750,14.10387134
12.8800,13.98816687
12.8850,13.87353906
12.8900,13.76009303
12.8950,13.64796187
12.9000,13.5369677
12.9050,13.42684959
12.9100,13.31758617
12.9150,13.20918387
12.9200,13.10167295
12.9250,12.99482735
12.9300,12.88865294
12.9350,12.78311047
12.9400,12.67806353
12.9450,12.57328664
12.9500,12.46890452
12.9550,12.36478254
12.9600,12.26068887
12.9650,12.1569513
12.9700,12.05338517
12.9750,11.95007648
12.9800,11.84712963
12.9850,11.74435662
12.9900,11.64203393
12.9950,11.53998353
13.0000,11.43844729
13.0050,11.33730798
13.0100,11.23663755
13.0150,11.13658289
13.0200,11.03709829
13.0250,10.93836807
13.0300,10.84040154
13.0350,10.74310671
13.0400,10.6467609
13.0450,10.55173869
13.0500,10.45812762
13.0550,10.36618993
13.0600,10.27633162
13.0650,10.18872875
13.0700,10.1035823
13.0750,10.0210531
13.0800,9.941321323
13.0850,9.864573355
13.0900,9.790761669
13.0950,9.720202689
13.1000,9.652819318
13.1050,9.588923655
13.1100,9.528433726
13.1150,9.471337681
13.1200,9.417646576
13.1250,9.367005384
13.1300,9.319496627
13.1350,9.274876289
13.1400,9.232968025
13.1450,9.193836146
13.1500,9.157270085
13.1550,9.123262805
13.1600,9.09184267
13.1650,9.062729068
13.1700,9.035962877
13.1750,9.011448858
13.1800,8.989281485
13.1850,8.969439728
13.1900,8.951859801
13.1950,8.936271655
13.2000,8.923021584
13.2050,8.912096232
13.2100,8.90356736
13.2150,8.897483436
13.2200,8.893834883
13.2250,8.892750679
13.2300,8.894009206
13.2350,8.897688416
13.2400,8.903843836
13.2450,8.91250304
13.2500,8.923449997
13.2550,8.936799744
13.2600,8.952560536
13.2650,8.970535514
13.2700,8.990876802
13.2750,9.01341422
13.2800,9.038162904
13.2850,9.065372764
13.2900,9.094805884
13.2950,9.12692022
13.3000,9.161587694
13.3050,9.198958258
13.3100,9.239395273
13.3150,9.282968238
13.3200,9.32971457
13.3250,9.379667231
13.3300,9.432951396
13.3350,9.489766011
13.3400,9.550114302
13.3450,9.613925109
13.3500,9.681181745
13.3550,9.75188508
13.3600,9.825717368
13.3650,9.902890569
13.3700,9.983108216
13.3750,10.06655117
13.3800,10.15328271
13.3850,10.24315058
13.3900,10.33627093
13.3950,10.43243547
13.4000,10.53172588
13.4050,10.63400833
13.4100,10.73913642
13.4150,10.8472131
13.4200,10.95809698
13.4250,11.07207372
13.4300,11.18911616
13.4350,11.30919018
13.4400,11.43237093
13.4450,11.55878108
13.4500,11.68824773
13.4550,11.8207782
13.4600,11.95600203
13.4650,12.0940404
13.4700,12.23473261
13.4750,12.37795144
13.4800,12.52360696
13.4850,12.67151646
13.4900,12.8217412
13.4950,12.97417659
13.5000,13.12869354
13.5050,13.28540893
13.5100,13.44424115
13.5150,13.60496342
13.5200,13.76746414
13.5250,13.93183107
13.5300,14.09820041
13.5350,14.26642288
13.5400,14.43645831
13.5450,14.60836075
13.5500,14.78211519
13.5550,14.95772663
13.5600,15.13496884
13.5650,15.31415481
13.5700,15.49518858
13.5750,15.67805135
13.5800,15.86276277
13.5850,16.04912478
13.5900,16.23723167
13.5950,16.42690221
13.6000,16.61812678
13.6050,16.81101492
13.6100,17.00520455
13.6150,17.20068218
13.6200,17.39764497
13.6250,17.59609433
13.6300,17.79585512
13.6350,17.99711609
13.6400,18.19969117
13.6450,18.40374378
13.6500,18.60912056
13.6550,18.81581497
13.6600,19.02390397
13.6650,19.23343959
13.6700,19.44449756
13.6750,19.65710314
13.6800,19.87118876
13.6850,20.08671408
13.6900,20.30386755
13.6950,20.52263109
13.7000,20.74312922
13.7050,20.9654137
13.7100,21.18980752
13.7150,21.41621803
13.7200,21.6448873
13.7250,21.87589467
13.7300,22.10929854
13.7350,22.34510355
13.7400,22.58345124
13.7450,22.82405843
13.7500,23.06697923
13.7550,23.3120579
13.7600,23.55936069
13.7650,23.8088537
13.7700,24.06036994
13.7750,24.31396448
13.7800,24.56938799
13.7850,24.82671144
13.7900,25.08578386
13.7950,25.34677685
13.8000,25.60940731
13.8050,25.87379755
13.8100,26.13977319
13.8150,26.40744586
13.8200,26.67671423
13.8250,26.94742215
13.8300,27.21951221
13.8350,27.49260084
13.8400,27.76657158
13.8450,28.04121508
13.8500,28.31640457
13.8550,28.5917932
13.8600,28.86702886
13.8650,29.14183511
13.8700,29.41594876
13.8750,29.68887176
13.8800,29.96062297
13.8850,30.23096187
13.8900,30.499671
13.8950,30.76655931
13.9000,31.03138042
13.9050,31.29415485
13.9100,31.55498667
13.9150,31.81384542
13.9200,32.07065751
13.9250,32.32563127
13.9300,32.57915144
13.9350,32.83127689
13.9400,33.0824248
13.9450,33.33277859
13.9500,33.58281963
13.9550,33.83261799
13.9600,34.08242171
13.9650,34.33243525
13.9700,34.5828845
13.9750,34.83394994
13.9800,35.08584161
13.9850,35.33889333
13.9900,35.5931719
13.9950,35.84896857
14.0000,36.10606276
14.0050,36.36498429
14.0100,36.62581327
14.0150,36.88852696
14.0200,37.15333487
14.0250,37.42046186
14.0300,37.68987455
14.0350,37.96178516
14.0400,38.23611921
14.0450,38.51305058
14.0500,38.79245506
14.0550,39.074643
14.0600,39.3598649
14.0650,39.64817375
14.0700,39.939961
14.0750,40.23500133
14.0800,40.53370151
14.0850,40.83596181
14.0900,41.14175652
14.0950,41.45080228
14.1000,41.76318025
14.1050,42.0782864
14.1100,42.39618262
14.1150,42.71650327
14.1200,43.03937944
14.1250,43.36453758
14.1300,43.69192452
14.1350,44.02138067
14.1400,44.352585
14.1450,44.68515381
14.1500,45.01925017
14.1550,45.35482381
14.1600,45.69195624
14.1650,46.0305048
14.1700,46.3702506
14.1750,46.71151306
14.1800,47.05358958
14.1850,47.3968569
14.1900,47.74133432
14.1950,48.08732177
14.2000,48.43531117
14.2050,48.78579151
14.2100,49.13911146
14.2150,49.49571338
14.2200,49.85560046
14.2250,50.21900174
14.2300,50.58616771
14.2350,50.95717263
14.2400,51.33245053
14.2450,51.71168064
14.2500,52.09523848
14.2550,52.48318153
14.2600,52.87559902
14.2650,53.27229087
14.2700,53.67325494
14.2750,54.07808863
14.2800,54.48703421
14.2850,54.90019964
14.2900,55.3174639
14.2950,55.73859574
14.3000,56.16376652
14.3050,56.59241052
14.3100,57.02424611
14.3150,57.45956352
14.3200,57.89828971
14.3250,58.34054796
14.3300,58.7864582
14.3350,59.23581381
14.3400,59.68913138
14.3450,60.14630184
14.3500,60.60773141
14.3550,61.07325017
14.3600,61.54291169
14.3650,62.01667897
14.3700,62.4940831
14.3750,62.9755918
14.3800,63.4609611
14.3850,63.95032133
14.3900,64.4431108
14.3950,64.93978922
14.4000,65.44017281
14.4050,65.94464465
14.4100,66.45242315
14.4150,66.96371557
14.4200,67.47869873
14.4250,67.99702712
14.4300,68.51857835
14.4350,69.04332124
14.4400,69.57120076
14.4450,70.10237866
14.4500,70.63613618
14.4550,71.17242291
14.4600,71.71132264
14.4650,72.25261632
14.4700,72.79669144
14.4750,73.34348317
14.4800,73.89332014
14.4850,74.44600119
14.4900,75.00183782
14.4950,75.5604747
14.5000,76.12176021
14.5050,76.68513807
14.5100,77.25049738
14.5150,77.81739082
14.5200,78.38597586
14.5250,78.95632768
14.5300,79.52833077
14.5350,80.10211897
14.5400,80.67739243
14.5450,81.25450367
14.5500,81.83294993
14.5550,82.41266572
14.5600,82.99385719
14.5650,83.57626033
14.5700,84.15989186
14.5750,84.74469667
14.5800,85.32999859
14.5850,85.91546823
14.5900,86.50096899
14.5950,87.08646964
14.6000,87.67184296
14.6050,88.25698852
14.6100,88.84181271
14.6150,89.42612909
14.6200,90.00950797
14.6250,90.59231214
14.6300,91.17415929
14.6350,91.7549355
14.6400,92.33417894
14.6450,92.91192925
14.6500,93.48799319
14.6550,94.06230024
14.6600,94.63486007
14.6650,95.20562398
14.6700,95.77461267
14.6750,96.34169937
14.6800,96.90722623
14.6850,97.4710699
14.6900,98.03374363
14.6950,98.59513187
14.7000,99.15560342
14.7050,99.7150735
14.7100,100.2743325
14.7150,100.8331524
14.7200,101.3914044
14.7250,101.9494419
14.7300,102.5070566
14.7350,103.0646357
14.7400,103.6221504
14.7450,104.1793241
14.7500,104.7363741
14.7550,105.2929625
14.7600,105.8490162
14.7650,106.4045116
14.7700,106.9590403
14.7750,107.5125221
14.7800,108.0648866
14.7850,108.6162358
14.7900,109.1663549
14.7950,109.7154744
14.8000,110.2630863
14.8050,110.8090791
14.8100,111.3537009
14.8150,111.8972165
14.8200,112.4397618
14.8250,112.9811655
14.8300,113.5216313
14.8350,114.0616075
14.8400,114.6011766
14.8450,115.1408961
14.8500,115.6809496
14.8550,116.2214186
14.8600,116.7616857
14.8650,117.3018919
14.8700,117.8417966
14.8750,118.381152
14.8800,118.9199976
14.8850,119.4580354
14.8900,119.9946003
14.8950,120.5295319
14.9000,121.062461
14.9050,121.5935176
14.9100,122.1224692
14.9150,122.648705
14.9200,123.172734
14.9250,123.6936284
14.9300,124.2117558
14.9350,124.7269459
14.9400,125.2393153
14.9450,125.7487249
14.9500,126.2552333
14.9550,126.7583111
14.9600,127.2577507
14.9650,127.7536095
14.9700,128.2461556
14.9750,128.7354372
14.9800,129.2212462
14.9850,129.7037388
14.9900,130.18326
14.9950,130.6598681
15.0000,131.1337028
15.0050,131.6042187
15.0100,132.0711104
15.0150,132.5340906
15.0200,132.9928604
15.0250,133.4473419
15.0300,133.8973237
15.0350,134.3428918
15.0400,134.7841003
15.0450,135.2208438
15.0500,135.653096
15.0550,136.0813907
15.0600,136.505202
15.0650,136.9249775
15.0700,137.3411273
15.0750,137.7538622
15.0800,138.1632116
15.0850,138.5693576
15.0900,138.9723558
15.0950,139.3721189
15.1000,139.7691891
15.1050,140.1640574
15.1100,140.5564844
15.1150,140.9466866
15.1200,141.3346767
15.1250,141.7201266
15.1300,142.1031601
15.1350,142.4831077
15.1400,142.8596875
15.1450,143.2320462
15.1500,143.6001464
15.1550,143.9633673
15.1600,144.3219855
15.1650,144.6758129
15.1700,145.0249686
15.1750,145.369471
15.1800,145.7092904
15.1850,146.0446012
15.1900,146.3759172
15.1950,146.7032658
15.2000,147.0268681
15.2050,147.3466252
15.2100,147.6629397
15.2150,147.976142
15.2200,148.2862662
15.2250,148.5935588
15.2300,148.898117
15.2350,149.2001751
15.2400,149.4993397
15.2450,149.7955387
15.2500,150.0888976
15.2550,150.3800082
15.2600,150.6689321
15.2650,150.9559357
15.2700,151.2412123
15.2750,151.5246147
15.2800,151.8063485
15.2850,152.08655
15.2900,152.3648381
15.2950,152.6412151
15.3000,152.9150321
15.3050,153.1863112
15.3100,153.4548414
15.3150,153.7209693
15.3200,153.9847197
15.3250,154.2463766
15.3300,154.5061707
15.3350,154.7640562
15.3400,155.0202507
15.3450,155.2750192
15.3500,155.5283399
15.3550,155.7801609
15.3600,156.0308578
15.3650,156.2800435
15.3700,156.5273334
15.3750,156.7721832
15.3800,157.0148654
15.3850,157.2554304
15.3900,157.4939009
15.3950,157.730233
15.4000,157.9646041
15.4050,158.1970466
15.4100,158.4277604
15.4150,158.6569587
15.4200,158.8845599
15.4250,159.1109753
15.4300,159.3360931
15.4350,159.5600395
15.4400,159.7828086
15.4450,160.004597
15.4500,160.2254912
15.4550,160.4455111
15.4600,160.6647862
15.4650,160.8828492
15.4700,161.0995587
15.4750,161.314967
15.4800,161.5289248
15.4850,161.7416658
15.4900,161.9526288
15.4950,162.1618573
15.5000,162.3692211
15.5050,162.5746334
15.5100,162.7779663
15.5150,162.9789332
15.5200,163.1773417
15.5250,163.3732852
15.5300,163.5665452
15.5350,163.7568168
15.5400,163.9444134
15.5450,164.1297098
15.5500,164.3127612
15.5550,164.4936397
15.5600,164.6725449
15.5650,164.849302
15.5700,165.0238602
15.5750,165.1963853
15.5800,165.3669708
15.5850,165.5355285
15.5900,165.7023218
15.5950,165.8673723
15.6000,166.0309845
15.6050,166.1934794
15.6100,166.3552884
15.6150,166.5163328
15.6200,166.6768134
15.6250,166.8366018
15.6300,166.9961558
15.6350,167.1552594
15.6400,167.3139082
15.6450,167.4721621
15.6500,167.6303337
15.6550,167.7879741
15.6600,167.9449437
15.6650,168.1012093
15.6700,168.2566074
15.6750,168.411241
15.6800,168.5648536
15.6850,168.7174125
15.6900,168.8688051
15.6950,169.0189137
15.7000,169.167572
15.7050,169.3147005
15.7100,169.4599885
15.7150,169.6034807
15.7200,169.7449064
15.7250,169.884507
15.7300,170.0221736
15.7350,170.1578922
15.7400,170.2916294
15.7450,170.423565
15.7500,170.5535954
15.7550,170.6820039
15.7600,170.8085451
15.7650,170.9335262
15.7700,171.0569246
15.7750,171.178835
15.7800,171.2994531
15.7850,171.4186306
15.7900,171.5365382
15.7950,171.6531635
15.8000,171.7686596
15.8050,171.8829939
15.8100,171.9959883
15.8150,172.1076941
15.8200,172.2179811
15.8250,172.3269206
15.8300,172.4344741
15.8350,172.5409397
15.8400,172.6461816
15.8450,172.7501427
15.8500,172.8531191
15.8550,172.9549408
15.8600,173.0557895
15.8650,173.155754
15.8700,173.2548591
15.8750,173.3531731
15.8800,173.4505875
15.8850,173.5472839
15.8900,173.6433243
15.8950,173.7385407
15.9000,173.8330383
15.9050,173.9266854
15.9100,174.0196023
15.9150,174.1117831
15.9200,174.2029737
15.9250,174.2933328
15.9300,174.3823866
15.9350,174.4704653
15.9400,174.5573875
15.9450,174.6430493
15.9500,174.727055
15.9550,174.8093157
15.9600,174.8899024
15.9650,174.9686245
15.9700,175.0453527
15.9750,175.1201546
15.9800,175.1929858
15.9850,175.2637618
15.9900,175.3325549
15.9950,175.3993982
16.0000,175.4642808
16.0050,175.527045
16.0100,175.5879395
16.0150,175.6467892
16.0200,175.7037647
16.0250,175.75889
16.0300,175.812093
16.0350,175.8634986
16.0400,175.9134098
16.0450,175.9615578
16.0500,176.0080095
16.0550,176.0527806
16.0600,176.0963267
16.0650,176.138465
16.0700,176.1794031
16.0750,176.2192778
16.0800,176.2580504
16.0850,176.2959162
16.0900,176.332946
16.0950,176.3692188
16.1000,176.4044669
16.1050,176.4386071
16.1100,176.4718454
16.1150,176.5042585
16.1200,176.5359553
16.1250,176.5668449
16.1300,176.5970013
16.1350,176.6260463
16.1400,176.6541485
16.1450,176.6813393
16.1500,176.7074424
16.1550,176.7323124
16.1600,176.7558292
16.1650,176.7780516
16.1700,176.7988254
16.1750,176.8179696
16.1800,176.8353984
16.1850,176.8506988
16.1900,176.8637388
16.1950,176.8746367
16.2000,176.8831856
16.2050,176.8892367
16.2100,176.8926735
16.2150,176.8933783
16.2200,176.8915089
16.2250,176.8868421
16.2300,176.8793676
16.2350,176.8687871
16.2400,176.8550914
16.2450,176.8381721
16.2500,176.818072
16.2550,176.794704
16.2600,176.7680592
16.2650,176.7379211
16.2700,176.7044563
16.2750,176.667529
16.2800,176.6270762
16.2850,176.5830041
16.2900,176.5353234
16.2950,176.4839512
16.3000,176.4289885
16.3050,176.3704702
16.3100,176.3084244
16.3150,176.2429351
16.3200,176.1739724
16.3250,176.1016096
16.3300,176.02608
16.3350,175.9473988
16.3400,175.8653879
16.3450,175.7803452
16.3500,175.6925115
16.3550,175.6017174
16.3600,175.5078893
16.3650,175.4113322
16.3700,175.3122499
16.3750,175.2105078
16.3800,175.1063511
16.3850,174.9995346
16.3900,174.8902174
16.3950,174.7784581
16.4000,174.6643047
16.4050,174.5479125
16.4100,174.4291543
16.4150,174.3080669
16.4200,174.1845892
16.4250,174.0587149
16.4300,173.930609
16.4350,173.8004762
16.4400,173.6682386
16.4450,173.5339914
16.4500,173.3978119
16.4550,173.2599123
16.4600,173.1202024
16.4650,172.9787062
16.4700,172.8355644
16.4750,172.6908489
16.4800,172.5445341
16.4850,172.3969283
16.4900,172.2479345
16.4950,172.097759
16.5000,171.9464862
16.5050,171.7943144
16.5100,171.6412516
16.5150,171.4875938
16.5200,171.3330137
16.5250,171.1776502
16.5300,171.0214723
16.5350,170.8645895
16.5400,170.7068802
16.5450,170.5485075
16.5500,170.3894705
16.5550,170.229919
16.5600,170.0696264
16.5650,169.9087289
16.5700,169.7472133
16.5750,169.5852095
16.5800,169.4226105
16.5850,169.2593956
16.5900,169.0953043
16.5950,168.9305197
16.6000,168.7647392
16.6050,168.5982662
16.6100,168.4308476
16.6150,168.2623909
16.6200,168.0932963
16.6250,167.9233342
16.6300,167.7525766
16.6350,167.5810997
16.6400,167.408863
16.6450,167.2356948
16.6500,167.06142
16.6550,166.8860057
16.6600,166.7095435
16.6650,166.5320547
16.6700,166.3533638
16.6750,166.1737459
16.6800,165.9930736
16.6850,165.8115641
16.6900,165.6293968
16.6950,165.4464688
16.7000,165.262746
16.7050,165.0780718
16.7100,164.8925695
16.7150,164.7061967
16.7200,164.5190823
16.7250,164.3312711
16.7300,164.1425826
16.7350,163.95306
16.7400,163.7626253
16.7450,163.5713884
16.7500,163.3789318
16.7550,163.1852664
16.7600,162.9904651
16.7650,162.7945465
16.7700,162.5973238
16.7750,162.3986486
16.7800,162.1986918
16.7850,161.997555
16.7900,161.7950607
16.7950,161.5909595
16.8000,161.3852221
16.8050,161.1779967
16.8100,160.9692798
16.8150,160.7588711
16.8200,160.5469514
16.8250,160.3335052
16.8300,160.1186621
16.8350,159.902559
16.8400,159.6852355
16.8450,159.4666751
16.8500,159.246811
16.8550,159.025788
16.8600,158.8035654
16.8650,158.580123
16.8700,158.3551315
16.8750,158.1285958
16.8800,157.9004172
16.8850,157.6706889
16.8900,157.4395153
16.8950,157.2067017
16.9000,156.9724646
16.9050,156.7365351
16.9100,156.4992488
16.9150,156.2605241
16.9200,156.0203842
16.9250,155.7788572
16.9300,155.5357625
16.9350,155.2912909
16.9400,155.0454978
16.9450,154.798497
16.9500,154.5502089
16.9550,154.3009471
16.9600,154.0504988
16.9650,153.798828
16.9700,153.5459863
16.9750,153.2919674
16.9800,153.0365581
16.9850,152.7797901
16.9900,152.5213952
16.9950,152.2613041
17.0000,151.99982
17.0050,151.7369308
17.0100,151.4725825
17.0150,151.206826
17.0200,150.9396072
17.0250,150.6708614
17.0300,150.4005236
17.0350,150.1286591
17.0400,149.8554105
17.0450,149.5804037
17.0500,149.3041892
17.0550,149.0266012
17.0600,148.7475695
17.0650,148.466895
17.0700,148.1846542
17.0750,147.9010955
17.0800,147.6160606
17.0850,147.3292316
17.0900,147.040689
17.0950,146.7503317
17.1000,146.4582209
17.1050,146.1641698
17.1100,145.8683868
17.1150,145.57074
17.1200,145.271553
17.1250,144.9706608
17.1300,144.6681947
17.1350,144.3637943
17.1400,144.0575724
17.1450,143.749421
17.1500,143.4394457
17.1550,143.1273214
17.1600,142.8132738
17.1650,142.4975477
17.1700,142.1804621
17.1750,141.8619595
17.1800,141.5421213
17.1850,141.2209716
17.1900,140.8985771
17.1950,140.5750103
17.2000,140.250286
17.2050,139.9242723
17.2100,139.5967948
17.2150,139.2677814
17.2200,138.9370751
17.2250,138.6045512
17.2300,138.2703127
17.2350,137.9341664
17.2400,137.5959179
17.2450,137.2558541
17.2500,136.9140905
17.2550,136.5708086
17.2600,136.2261177
17.2650,135.8801494
17.2700,135.5330613
17.2750,135.1848195
17.2800,134.8356924
17.2850,134.4856218
17.2900,134.1349657
17.2950,133.7836714
17.3000,133.4319761
17.3050,133.0797623
17.3100,132.7274664
17.3150,132.3748154
17.3200,132.0221545
17.3250,131.669453
17.3300,131.3168304
17.3350,130.9642239
17.3400,130.6114164
17.3450,130.2582984
17.3500,129.9045026
17.3550,129.5501049
17.3600,129.1951461
17.3650,128.8397509
17.3700,128.4836978
17.3750,128.126967
17.3800,127.7696658
17.3850,127.4119489
17.3900,127.0541066
17.3950,126.6959257
17.4000,126.3374577
17.4050,125.9787764
17.4100,125.6194657
17.4150,125.2595869
17.4200,124.8990189
17.4250,124.5380965
17.4300,124.17679
17.4350,123.8150419
17.4400,123.4526896
17.4450,123.0902753
17.4500,122.7273924
17.4550,122.3642333
17.4600,122.0006486
17.4650,121.6362693
17.4700,121.2710591
17.4750,120.9048707
17.4800,120.5375808
17.4850,120.1691614
17.4900,119.7991813
17.4950,119.4276854
17.5000,119.0544619
17.5050,118.6796143
17.5100,118.3029663
17.5150,117.9243458
17.5200,117.5437737
17.5250,117.1614397
17.5300,116.776825
17.5350,116.3897777
17.5400,116.0004991
17.5450,115.6087941
17.5500,115.2142297
17.5550,114.8167959
17.5600,114.4165478
17.5650,114.0132819
17.5700,113.6068706
17.5750,113.1971566
17.5800,112.7839144
17.5850,112.3673766
17.5900,111.9470426
17.5950,111.5233313
17.6000,111.0958006
17.6050,110.6648082
17.6100,110.2298561
17.6150,109.7909584
17.6200,109.3478001
17.6250,108.9007744
17.6300,108.4499181
17.6350,107.9949406
17.6400,107.5357611
17.6450,107.0726859
17.6500,106.6057267
17.6550,106.1345386
17.6600,105.6591468
17.6650,105.1795331
17.6700,104.6958556
17.6750,104.2076995
17.6800,103.7149818
17.6850,103.2178791
17.6900,102.7159439
17.6950,102.2094128
17.7000,101.6981914
17.7050,101.1821674
17.7100,100.6616177
17.7150,100.1365376
17.7200,99.60710735
17.7250,99.07293513
17.7300,98.53397729
17.7350,97.99051276
17.7400,97.44306236
17.7450,96.890819
17.7500,96.33453469
17.7550,95.77404512
17.7600,95.20962273
17.7650,94.64145809
17.7700,94.06958756
17.7750,93.49420555
17.7800,92.91550008
17.7850,92.33364137
17.7900,91.7489809
17.7950,91.16184459
17.8000,90.57248132
17.8050,89.98100151
17.8100,89.38771275
17.8150,88.79290291
17.8200,88.19690422
17.8250,87.59973621
17.8300,87.0022028
17.8350,86.40463246
17.8400,85.80713478
17.8450,85.20989465
17.8500,84.6139185
17.8550,84.01926397
17.8600,83.42658229
17.8650,82.83628863
17.8700,82.24887241
17.8750,81.66499567
17.8800,81.08552164
17.8850,80.51081534
17.8900,79.94165844
17.8950,79.37847329
17.9000,78.82150911
17.9050,78.27115119
17.9100,77.72756222
17.9150,77.19129766
17.9200,76.66274836
17.9250,76.14209689
17.9300,75.62955452
17.9350,75.12563166
17.9400,74.63062928
17.9450,74.14435475
17.9500,73.66706027
17.9550,73.19924958
17.9600,72.74077883
17.9650,72.29125435
17.9700,71.85061801
17.9750,71.41896615
17.9800,70.99609262
17.9850,70.58146363
17.9900,70.17488907
17.9950,69.77632132
18.0000,69.38606117
18.0050,69.00419777
18.0100,68.63079728
18.0150,68.26542358
18.0200,67.90751853
18.0250,67.55710572
18.0300,67.21345991
18.0350,66.87581408
18.0400,66.54353011
18.0450,66.21641518
18.0500,65.89385847
18.0550,65.57560808
18.0600,65.26102953
18.0650,64.94980501
18.0700,64.64124299
18.0750,64.33491595
18.0800,64.03048589
18.0850,63.72740364
18.0900,63.42498395
18.0950,63.12283445
18.1000,62.8202918
18.1050,62.51703086
18.1100,62.21266257
18.1150,61.90703181
18.1200,61.59934171
18.1250,61.28926306
18.1300,60.97664176
18.1350,60.66120891
18.1400,60.34311112
18.1450,60.0219597
18.1500,59.69770052
18.1550,59.37050553
18.1600,59.0401363
18.1650,58.70617691
18.1700,58.36889138
18.1750,58.02823273
18.1800,57.68405926
18.1850,57.33607679
18.1900,56.98409971
18.1950,56.62786435
18.2000,56.26799765
18.2050,55.90492294
18.2100,55.5389957
18.2150,55.17002647
18.2200,54.79820901
18.2250,54.42347222
18.2300,54.04601527
18.2350,53.66589963
18.2400,53.28282225
18.2450,52.89710318
18.2500,52.5088983
18.2550,52.11841879
18.2600,51.72588708
18.2650,51.33129136
18.2700,50.93460279
18.2750,50.53608326
18.2800,50.13577786
18.2850,49.73450782
18.2900,49.33231581
18.2950,48.92956433
18.3000,48.52599804
18.3050,48.12170084
18.3100,47.71676891
18.3150,47.31109561
18.3200,46.90508541
18.3250,46.49864729
18.3300,46.09174077
18.3350,45.68486048
18.3400,45.2778568
18.3450,44.87051604
18.3500,44.46271654
18.3550,44.05484516
18.3600,43.64673296
18.3650,43.23820997
18.3700,42.82962935
18.3750,42.4208107
18.3800,42.01205996
18.3850,41.60342526
18.3900,41.19509969
18.3950,40.78695733
18.4000,40.37939255
18.4050,39.97244091
18.4100,39.5666464
18.4150,39.16231878
18.4200,38.76013138
18.4250,38.36035289
18.4300,37.96332013
18.4350,37.56928191
18.4400,37.17856241
18.4450,36.7912787
18.4500,36.40782763
18.4550,36.02841984
18.4600,35.65333932
18.4650,35.28310534
18.4700,34.91757725
18.4750,34.55694854
18.4800,34.20165441
18.4850,33.85207247
18.4900,33.50861135
18.4950,33.17153669
18.5000,32.84096792
18.5050,32.517041
18.5100,32.20006944
18.5150,31.89029229
18.5200,31.58770972
18.5250,31.29242479
18.5300,31.00479114
18.5350,30.72463338
18.5400,30.45223775
18.5450,30.18749859
18.5500,29.93025627
18.5550,29.68029113
18.5600,29.43729906
18.5650,29.20147744
18.5700,28.97249294
18.5750,28.75010861
18.5800,28.53423938
18.5850,28.32422237
18.5900,28.11987855
18.5950,27.92072622
18.6000,27.72674674
18.6050,27.5376288
18.6100,27.35293601
18.6150,27.17291076
18.6200,26.99703383
18.6250,26.82496848
18.6300,26.65681946
18.6350,26.49207103
18.6400,26.33053691
18.6450,26.17193074
18.6500,26.01570514
18.6550,25.86150019
18.6600,25.70925838
18.6650,25.55885913
18.6700,25.40978711
18.6750,25.2618503
18.6800,25.11457197
18.6850,24.96765283
18.6900,24.82084324
18.6950,24.67400051
18.7000,24.52673336
18.7050,24.37876225
18.7100,24.22970626
18.7150,24.07906141
18.7200,23.92660804
18.7250,23.77222137
18.7300,23.61567452
18.7350,23.45677253
18.7400,23.29552458
18.7450,23.13212335
18.7500,22.9664402
18.7550,22.7983088
18.7600,22.62781469
18.7650,22.45498682
18.7700,22.28010775
18.7750,22.10316219
18.7800,21.92408467
18.7850,21.74299943
18.7900,21.56008733
18.7950,21.37558075
18.8000,21.18946143
18.8050,21.00197052
18.8100,20.8132353
18.8150,20.62338244
18.8200,20.43258429
18.8250,20.241107
18.8300,20.04871728
18.8350,19.85587552
18.8400,19.66256503
18.8450,19.46883265
18.8500,19.27491785
18.8550,19.08079262
18.8600,18.88680179
18.8650,18.69303165
18.8700,18.49988208
18.8750,18.30743078
18.8800,18.11576643
18.8850,17.92521009
18.8900,17.73597329
18.8950,17.54804886
18.9000,17.36166617
18.9050,17.17706073
18.9100,16.99435324
18.9150,16.81357228
18.9200,16.63521264
18.9250,16.45932197
18.9300,16.28587942
18.9350,16.11511509
18.9400,15.94691673
18.9450,15.78142029
18.9500,15.61860039
18.9550,15.45851005
18.9600,15.30078835
18.9650,15.14503825
18.9700,14.99119731
18.9750,14.83896409
18.9800,14.68811164
18.9850,14.53844167
18.9900,14.3898122
18.9950,14.24198778
19.0000,14.09488339
19.0050,13.94849268
19.0100,13.80265925
19.0150,13.65755694
19.0200,13.51309186
19.0250,13.36935387
19.0300,13.22606702
19.0350,13.08346434
19.0400,12.94151582
19.0450,12.8001085
19.0500,12.65915025
19.0550,12.51883979
19.0600,12.37882535
19.0650,12.23934747
19.0700,12.10026629
19.0750,11.96136904
19.0800,11.82271849
19.0850,11.6844217
19.0900,11.54628297
19.0950,11.4084591
19.1000,11.27102497
19.1050,11.13397964
19.1100,10.9973877
19.1150,10.8614954
19.1200,10.72642145
19.1250,10.59232686
19.1300,10.45950297
19.1350,10.32791259
19.1400,10.19802339
19.1450,10.07019234
19.1500,9.944569078
19.1550,9.821238924
19.1600,9.700567064
19.1650,9.58260546
19.1700,9.46753367
19.1750,9.355493088
19.1800,9.246537318
19.1850,9.14081263
19.1900,9.038473735
19.1950,8.939773216
19.2000,8.84459147
19.2050,8.752994796
19.2100,8.665044795
19.2150,8.580965682
19.2200,8.500614686
19.2250,8.424144081
19.2300,8.351591632
19.2350,8.282742933
19.2400,8.217733679
19.2450,8.156450799
19.2500,8.09913119
19.2550,8.045572399
19.2600,7.995957682
19.2650,7.950339561
19.2700,7.908587007
19.2750,7.870739069
19.2800,7.836881216
19.2850,7.807000717
19.2900,7.781127546
19.2950,7.759163925
19.3000,7.741303607
19.3050,7.727340802
19.3100,7.717440294
19.3150,7.711529542
19.3200,7.709623041
19.3250,7.711768555
19.3300,7.718151527
19.3350,7.728700573
19.3400,7.743334544
19.3450,7.762367805
19.3500,7.78582073
19.3550,7.81363354
19.3600,7.845940324
19.3650,7.882681895
19.3700,7.923635004
19.3750,7.968936719
19.3800,8.018187298
19.3850,8.071163069
19.3900,8.127967672
19.3950,8.188227992
19.4000,8.251824679
19.4050,8.318719995
19.4100,8.388617734
19.4150,8.461334378
19.4200,8.536961833
19.4250,8.615323112
19.4300,8.696414327
19.4350,8.78035735
19.4400,8.867082622
19.4450,8.956400205
19.4500,9.048620268
19.4550,9.143885458
19.4600,9.242107045
19.4650,9.343331568
19.4700,9.447677797
19.4750,9.555209962
19.4800,9.666016116
19.4850,9.780094084
19.4900,9.897537766
19.4950,10.01862738
19.5000,10.14341984
19.5050,10.27173464
19.5100,10.40401703
19.5150,10.54005025
19.5200,10.67978754
19.5250,10.82319904
19.5300,10.97042908
19.5350,11.12151433
19.5400,11.27655078
19.5450,11.43548393
19.5500,11.59831433
19.5550,11.76512233
19.5600,11.93580729
19.5650,12.11051646
19.5700,12.28915049
19.5750,12.47179227
19.5800,12.65809094
19.5850,12.84807819
19.5900,13.04160799
19.5950,13.238653
19.6000,13.43891452
19.6050,13.64259495
19.6100,13.84924205
19.6150,14.05881432
19.6200,14.27113857
19.6250,14.48609752
19.6300,14.70340092
19.6350,14.92301172
19.6400,15.14478796
19.6450,15.36850032
19.6500,15.59416798
19.6550,15.82175464
19.6600,16.05121038
19.6650,16.28246284
19.6700,16.5154924
19.6750,16.7502677
19.6800,16.98687696
19.6850,17.2253424
19.6900,17.4654384
19.6950,17.70721244
19.7000,17.95098882
19.7050,18.19642771
19.7100,18.44393796
19.7150,18.6936303
19.7200,18.94542585
19.7250,19.19951334
19.7300,19.45599535
19.7350,19.71514126
19.7400,19.97685242
19.7450,20.24149356
19.7500,20.50888945
19.7550,20.77918562
19.7600,21.05248658
19.7650,21.32901634
19.7700,21.60892289
19.7750,21.89249265
19.7800,22.1798884
19.7850,22.47117647
19.7900,22.76642213
19.7950,23.06528525
19.8000,23.36789082
19.8050,23.67445773
19.8100,23.98468414
19.8150,24.29858546
19.8200,24.61600985
19.8250,24.93687712
19.8300,25.2611277
19.8350,25.5886947
19.8400,25.91934222
19.8450,26.25312506
19.8500,26.59019267
19.8550,26.93023058
19.8600,27.27315556
19.8650,27.61893326
19.8700,27.9675727
19.8750,28.31890562
19.8800,28.67302527
19.8850,29.02974551
19.8900,29.38886956
19.8950,29.75015426
19.9000,30.11361837
19.9050,30.47919653
19.9100,30.84688043
19.9150,31.21654919
19.9200,31.58802484
19.9250,31.96116717
19.9300,32.3361929
19.9350,32.7127195
19.9400,33.0906852
19.9450,33.46993144
19.9500,33.85038131
19.9550,34.23184374
19.9600,34.61429594
19.9650,34.99745982
19.9700,35.38123173
19.9750,35.76536572
19.9800,36.14984898
19.9850,36.53464994
19.9900,36.92005662
19.9950,37.30611487
20.0000,37.69266878
20.0050,38.07999719
20.0100,38.46775594
20.0150,38.85616506
20.0200,39.2450873
20.0250,39.63466114
20.0300,40.02486171
20.0350,40.41555231
20.0400,40.80689913
20.0450,41.19884277
20.0500,41.59146817
20.0550,41.98492386
20.0600,42.37948585
20.0650,42.77523491
20.0700,43.17201933
20.0750,43.56993393
20.0800,43.96922346
20.0850,44.369868
20.0900,44.77218314
20.0950,45.17637957
20.1000,45.58243873
20.1050,45.99061482
20.1100,46.40088099
20.1150,46.81321314
20.1200,47.22792631
20.1250,47.64539036
20.1300,48.06548031
20.1350,48.48832802
20.1400,48.91411967
20.1450,49.34272169
20.1500,49.77408336
20.1550,50.20869022
20.1600,50.64648841
20.1650,51.08745122
20.1700,51.532005
20.1750,51.98003631
20.1800,52.43194979
20.1850,52.88763434
20.1900,53.3472482
20.1950,53.81101634
20.2000,54.27861972
20.2050,54.74994924
20.2100,55.22525172
20.2150,55.70417053
20.2200,56.18706793
20.2250,56.6737705
20.2300,57.16436893
20.2350,57.65914714
20.2400,58.15818608
20.2450,58.66154228
20.2500,59.16908795
20.2550,59.68088954
20.2600,60.1969849
20.2650,60.71690654
20.2700,61.24106161
20.2750,61.7694871
20.2800,62.30210057
20.2850,62.83873443
20.2900,63.37943503
20.2950,63.92414318
20.3000,64.47251994
20.3050,65.02455793
20.3100,65.58025448
20.3150,66.13922725
20.3200,66.70158934
20.3250,67.26702851
20.3300,67.835048
20.3350,68.40545824
20.3400,68.97809708
20.3450,69.55254859
20.3500,70.12885922
20.3550,70.70693482
20.3600,71.28605445
20.3650,71.86631761
20.3700,72.44777296
20.3750,73.03028674
20.3800,73.6134135
20.3850,74.19734836
20.3900,74.78178212
20.3950,75.36711505
20.4000,75.9533343
20.4050,76.5403225
20.4100,77.12776924
20.4150,77.7157754
20.4200,78.30459057
20.4250,78.89392762
20.4300,79.48394893
20.4350,80.07472767
20.4400,80.66602083
20.4450,81.25830315
20.4500,81.85140264
20.4550,82.44487339
20.4600,83.03899274
20.4650,83.63372427
20.4700,84.22872918
20.4750,84.82410551
20.4800,85.41940985
20.4850,86.01516398
20.4900,86.61117516
20.4950,87.20747435
20.5000,87.80409723
20.5050,88.40103316
20.5100,88.99815353
20.5150,89.59594645
20.5200,90.19389023
20.5250,90.79237468
20.5300,91.39113438
20.5350,91.99011292
20.5400,92.5898064
20.5450,93.1895006
20.5500,93.78956693
20.5550,94.38955201
20.5600,94.98957511
20.5650,95.58980184
20.5700,96.18997064
20.5750,96.79016938
20.5800,97.39048714
20.5850,97.99094337
20.5900,98.59107474
20.5950,99.19098493
20.6000,99.79054696
20.6050,100.3896714
20.6100,100.9881563
20.6150,101.5857367
20.6200,102.1824359
20.6250,102.7777937
20.6300,103.3724029
20.6350,103.9659671
20.6400,104.5584919
20.6450,105.1498428
20.6500,105.7400101
20.6550,106.3288439
20.6600,106.9165896
20.6650,107.5031588
20.6700,108.0882837
20.6750,108.671728
20.6800,109.2541841
20.6850,109.8346787
20.6900,110.4134641
20.6950,110.9903174
20.7000,111.56543
20.7050,112.1382962
20.7100,112.7092081
20.7150,113.2781869
20.7200,113.8448865
20.7250,114.4094063
20.7300,114.9714443
20.7350,115.5312138
20.7400,116.088783
20.7450,116.6442113
20.7500,117.1974364
20.7550,117.7487448
20.7600,118.297944
20.7650,118.8451526
20.7700,119.3905304
20.7750,119.9339567
20.7800,120.4757747
20.7850,121.0155132
20.7900,121.5535278
20.7950,122.0897513
20.8000,122.624091
20.8050,123.1565459
20.8100,123.687232
20.8150,124.2158982
20.8200,124.7422182
20.8250,125.2661917
20.8300,125.7879106
20.8350,126.3073016
20.8400,126.8242073
20.8450,127.33932
20.8500,127.8524073
20.8550,128.3635549
20.8600,128.8725921
20.8650,129.3797043
20.8700,129.8848353
20.8750,130.3876967
20.8800,130.8884319
20.8850,131.3864656
20.8900,131.8819361
20.8950,132.3747138
20.9000,132.8652505
20.9050,133.3531584
20.9100,133.8381401
20.9150,134.3201967
20.9200,134.7990099
20.9250,135.2747622
20.9300,135.7473711
20.9350,136.2165397
20.9400,136.6818624
20.9450,137.1436621
20.9500,137.6015184
20.9550,138.0555124
20.9600,138.505978
20.9650,138.95271
20.9700,139.3959069
20.9750,139.8358668
20.9800,140.2717516
20.9850,140.7044535
20.9900,141.1338071
20.9950,141.5599661
21.0000,141.9827834
21.0050,142.4024112
21.0100,142.8187314
21.0150,143.231956
21.0200,143.6422003
21.0250,144.0493928
21.0300,144.4537035
21.0350,144.8549409
21.0400,145.2531686
21.0450,145.6480521
21.0500,146.0398188
21.0550,146.4286465
21.0600,146.8147306
21.0650,147.1978204
21.0700,147.5777709
21.0750,147.9546472
21.0800,148.3284638
21.0850,148.6995772
21.0900,149.0678469
21.0950,149.4334962
21.1000,149.7965513
21.1050,150.1568016
21.1100,150.5140452
21.1150,150.8678106
21.1200,151.2189109
21.1250,151.5673344
21.1300,151.9129189
21.1350,152.2556512
21.1400,152.5952682
21.1450,152.9314831
21.1500,153.2640333
21.1550,153.5930873
21.1600,153.9183785
21.1650,154.2401049
21.1700,154.5582379
21.1750,154.8727931
21.1800,155.1838282
21.1850,155.4917313
21.1900,155.796684
21.1950,156.0983255
21.2000,156.3966135
21.2050,156.691449
21.2100,156.9832416
21.2150,157.2722663
21.2200,157.5584971
21.2250,157.841964
21.2300,158.1227678
21.2350,158.4007047
21.2400,158.6762314
21.2450,158.9493191
21.2500,159.2200964
21.2550,159.4883457
21.2600,159.7541989
21.2650,160.0177709
21.2700,160.2792067
21.2750,160.5385612
21.2800,160.7959692
21.2850,161.0513016
21.2900,161.3048546
21.2950,161.5566225
21.3000,161.8064557
21.3050,162.0543508
21.3100,162.3002834
21.3150,162.5439691
21.3200,162.7853576
21.3250,163.0246275
21.3300,163.2617362
21.3350,163.4966238
21.3400,163.7291784
21.3450,163.9596635
21.3500,164.1880617
21.3550,164.4139118
21.3600,164.6370928
21.3650,164.8578396
21.3700,165.0760848
21.3750,165.2918943
21.3800,165.5051237
21.3850,165.7159499
21.3900,165.9243843
21.3950,166.1300756
21.4000,166.3331523
21.4050,166.5335541
21.4100,166.7312223
21.4150,166.9261922
21.4200,167.1183631
21.4250,167.3074597
21.4300,167.4934966
21.4350,167.6767051
21.4400,167.8568906
21.4450,168.0342347
21.4500,168.2085673
21.4550,168.3798148
21.4600,168.5480573
21.4650,168.7130834
21.4700,168.8750357
21.4750,169.033902
21.4800,169.1895569
21.4850,169.3421014
21.4900,169.4914901
21.4950,169.6380367
21.5000,169.7817204
21.5050,169.9225515
21.5100,170.0605341
21.5150,170.1956478
21.5200,170.3280463
21.5250,170.4577174
21.5300,170.5846334
21.5350,170.7091429
21.5400,170.8310084
21.5450,170.9502787
21.5500,171.0669473
21.5550,171.18133
21.5600,171.2929735
21.5650,171.4022065
21.5700,171.508847
21.5750,171.6127336
21.5800,171.7141787
21.5850,171.8129098
21.5900,171.9090588
21.5950,172.0023798
21.6000,172.0930221
21.6050,172.1809548
21.6100,172.2664036
21.6150,172.3496906
21.6200,172.4307288
21.6250,172.5094427
21.6300,172.5860327
21.6350,172.6606762
21.6400,172.7335582
21.6450,172.8045938
21.6500,172.8737808
21.6550,172.941273
21.6600,173.0074916
21.6650,173.0724943
21.6700,173.1364506
21.6750,173.1993175
21.6800,173.2614579
21.6850,173.3227235
21.6900,173.3832927
21.6950,173.4432006
21.7000,173.5026522
21.7050,173.5617071
21.7100,173.6201915
21.7150,173.6785096
21.7200,173.7361074
21.7250,173.7932029
21.7300,173.8495564
21.7350,173.9050973
21.7400,173.9598938
21.7450,174.0137062
21.7500,174.0666174
21.7550,174.1185582
21.7600,174.1695863
21.7650,174.21966
21.7700,174.2685887
21.7750,174.3162217
21.7800,174.3626862
21.7850,174.4077201
21.7900,174.4512647
21.7950,174.4932248
21.8000,174.5335791
21.8050,174.5723714
21.8100,174.6095456
21.8150,174.6450572
21.8200,174.6788598
21.8250,174.7110601
21.8300,174.741761
21.8350,174.7709374
21.8400,174.798717
21.8450,174.8250877
21.8500,174.8499646
21.8550,174.8732117
21.8600,174.8952039
21.8650,174.9156514
21.8700,174.9345284
21.8750,174.9521097
21.8800,174.9680561
21.8850,174.9826792
21.8900,174.9958874
21.8950,175.0078825
21.9000,175.0186127
21.9050,175.0281275
21.9100,175.0364979
21.9150,175.0432612
21.9200,175.0488503
21.9250,175.0529945
21.9300,175.0558033
21.9350,175.0568217
21.9400,175.0562966
21.9450,175.0540867
21.9500,175.0500144
21.9550,175.0442024
21.9600,175.0362703
21.9650,175.026205
21.9700,175.0139221
21.9750,174.9995292
21.9800,174.9828533
21.9850,174.9638328
21.9900,174.9424579
21.9950,174.9189072
22.0000,174.8928883
22.0050,174.8642575
22.0100,174.8331819
22.0150,174.7995379
22.0200,174.763459
22.0250,174.7247726
22.0300,174.6838023
22.0350,174.6402795
22.0400,174.5942611
22.0450,174.5459446
22.0500,174.4952922
22.0550,174.4422352
22.0600,174.3867736
22.0650,174.3289012
22.0700,174.2684972
22.0750,174.2057654
22.0800,174.140498
22.0850,174.0727791
22.0900,174.0025817
22.0950,173.9301155
22.1000,173.8551213
22.1050,173.7777251
22.1100,173.6981876
22.1150,173.6162859
22.1200,173.53225
22.1250,173.4461286
22.1300,173.3579077
22.1350,173.2677166
22.1400,173.1754215
22.1450,173.0813543
22.1500,172.9855419
22.1550,172.8881997
22.1600,172.789072
22.1650,172.6882399
22.1700,172.5858998
22.1750,172.481863
22.1800,172.376357
22.1850,172.269435
22.1900,172.1610247
22.1950,172.0510873
22.2000,171.939971
22.2050,171.8274123
22.2100,171.7133558
22.2150,171.59806
22.2200,171.4813418
22.2250,171.3632738
22.2300,171.2436682
22.2350,171.1228399
22.2400,171.0005665
22.2450,170.876884
22.2500,170.7519396
22.2550,170.6257881
22.2600,170.4984756
22.2650,170.369896
22.2700,170.2400435
22.2750,170.1088716
22.2800,169.9762185
22.2850,169.8422344
22.2900,169.7065798
22.2950,169.5691104
22.3000,169.4298226
22.3050,169.2886014
22.3100,169.1454548
22.3150,169.0001283
22.3200,168.8528143
22.3250,168.7035971
22.3300,168.5524549
22.3350,168.3993076
22.3400,168.2442497
22.3450,168.0871307
22.3500,167.9278662
22.3550,167.7666296
22.3600,167.6032681
22.3650,167.4375322
22.3700,167.2694588
22.3750,167.0989682
22.3800,166.9260436
22.3850,166.7505568
22.3900,166.5726588
22.3950,166.3921236
22.4000,166.2092375
22.4050,166.023935
22.4100,165.8360692
22.4150,165.6457849
22.4200,165.4529095
22.4250,165.2575642
22.4300,165.0597458
22.4350,164.8594113
22.4400,164.6569585
22.4450,164.4521983
22.4500,164.2453876
22.4550,164.0363926
22.4600,163.8252494
22.4650,163.6120016
22.4700,163.3967557
22.4750,163.1794128
22.4800,162.9600538
22.4850,162.7384648
22.4900,162.5147386
22.4950,162.2889863
22.5000,162.0608082
22.5050,161.8303695
22.5100,161.5974486
22.5150,161.361977
22.5200,161.1239506
22.5250,160.8834057
22.5300,160.64036
22.5350,160.394808
22.5400,160.1466625
22.5450,159.8961118
22.5500,159.6432651
22.5550,159.3882133
22.5600,159.1310222
22.5650,158.8716097
22.5700,158.6099706
22.5750,158.3459375
22.5800,158.079779
22.5850,157.81134
22.5900,157.5407541
22.5950,157.2680565
22.6000,156.9932503
22.6050,156.716482
22.6100,156.4375917
22.6150,156.156754
22.6200,155.8737434
22.6250,155.5886424
22.6300,155.3012838
22.6350,155.0114279
22.6400,154.7191881
22.6450,154.4242994
22.6500,154.1267867
22.6550,153.8263755
22.6600,153.5230558
22.6650,153.2167156
22.6700,152.9077872
22.6750,152.5955867
22.6800,152.2803028
22.6850,151.9619177
22.6900,151.6404949
22.6950,151.3159187
22.7000,150.9880551
22.7050,150.656965
22.7100,150.3225618
22.7150,149.9848398
22.7200,149.6437959
22.7250,149.2995425
22.7300,148.9520408
22.7350,148.6013022
22.7400,148.2473748
22.7450,147.8903246
22.7500,147.5302452
22.7550,147.1672164
22.7600,146.8014896
22.7650,146.4331836
22.7700,146.0621216
22.7750,145.6885798
22.7800,145.312419
22.7850,144.9338329
22.7900,144.5524464
22.7950,144.1683881
22.8000,143.7819119
22.8050,143.3929365
22.8100,143.0017579
22.8150,142.6082469
22.8200,142.2124214
22.8250,141.8143153
22.8300,141.4136663
22.8350,141.0104397
22.8400,140.6044526
22.8450,140.1955489
22.8500,139.7837982
22.8550,139.3688302
22.8600,138.950532
22.8650,138.5287523
22.8700,138.1036951
22.8750,137.6754881
22.8800,137.2438938
22.8850,136.808655
22.8900,136.3699207
22.8950,135.9274643
22.9000,135.4814725
22.9050,135.0318559
22.9100,134.5787311
22.9150,134.1218741
22.9200,133.6613023
22.9250,133.1968256
22.9300,132.7281052
22.9350,132.255366
22.9400,131.7782897
22.9450,131.2971264
22.9500,130.8115377
22.9550,130.3216442
22.9600,129.8272027
22.9650,129.3282829
22.9700,128.8243312
22.9750,128.3158171
22.9800,127.8023162
22.9850,127.2840601
22.9900,126.7604766
22.9950,126.2315563
23.0000,125.6974507
23.0050,125.1581916
23.0100,124.6135822
23.0150,124.0641695
23.0200,123.5101182
23.0250,122.9515042
23.0300,122.3884027
23.0350,121.8208369
23.0400,121.2484909
23.0450,120.671287
23.0500,120.0891957
23.0550,119.5022178
23.0600,118.9102783
23.0650,118.3136634
23.0700,117.7124308
23.0750,117.106569
23.0800,116.4963015
23.0850,115.8818234
23.0900,115.2635374
23.0950,114.6412266
23.1000,114.0147567
23.1050,113.3844493
23.1100,112.7496959
23.1150,112.1109778
23.1200,111.4684375
23.1250,110.822273
23.1300,110.1726333
23.1350,109.5195819
23.1400,108.8634476
23.1450,108.2042035
23.1500,107.5419441
23.1550,106.877369
23.1600,106.2109638
23.1650,105.5429322
23.1700,104.8731376
23.1750,104.2018863
23.1800,103.5296445
23.1850,102.8569382
23.1900,102.183877
23.1950,101.5108136
23.2000,100.8379116
23.2050,100.1657912
23.2100,99.49435602
23.2150,98.82360699
23.2200,98.15356281
23.2250,97.48443118
23.2300,96.81613957
23.2350,96.14856633
23.2400,95.4817508
23.2450,94.81567915
23.2500,94.15015386
23.2550,93.48484296
23.2600,92.81974537
23.2650,92.15479514
23.2700,91.48973578
23.2750,90.82458782
23.2800,90.15917459
23.2850,89.49351558
23.2900,88.82746446
23.2950,88.16089482
23.3000,87.49376396
23.3050,86.82598322
23.3100,86.15788172
23.3150,85.48902201
23.3200,84.81978224
23.3250,84.15026093
23.3300,83.48062235
23.3350,82.81115188
23.3400,82.14178548
23.3450,81.47233836
23.3500,80.80307124
23.3550,80.13377233
23.3600,79.464814
23.3650,78.79614033
23.3700,78.12784349
23.3750,77.45987884
23.3800,76.79207633
23.3850,76.12469881
23.3900,75.45788258
23.3950,74.79193389
23.4000,74.12686862
23.4050,73.46285878
23.4100,72.79969049
23.4150,72.13774312
23.4200,71.47716542
23.4250,70.81788156
23.4300,70.16019516
23.4350,69.50438965
23.4400,68.85053946
23.4450,68.19886147
23.4500,67.54961621
23.4550,66.90288021
23.4600,66.25911619
23.4650,65.61853603
23.4700,64.98168569
23.4750,64.34853569
23.4800,63.71901729
23.4850,63.09317903
23.4900,62.47075348
23.4950,61.85141394
23.5000,61.23513393
23.5050,60.62142816
23.5100,60.01004602
23.5150,59.40103859
23.5200,58.79415118
23.5250,58.18928732
23.5300,57.58670052
23.5350,56.98668759
23.5400,56.38912226
23.5450,55.79379252
23.5500,55.20098789
23.5550,54.61073536
23.5600,54.02332001
23.5650,53.43841677
23.5700,52.85622353
23.5750,52.27661291
23.5800,51.69991825
23.5850,51.12623185
23.5900,50.55614817
23.5950,49.98994463
23.6000,49.42791132
23.6050,48.87029332
23.6100,48.31739552
23.6150,47.76978305
23.6200,47.22752847
23.6250,46.69088993
23.6300,46.15976198
23.6350,45.63438336
23.6400,45.11497942
23.6450,44.60193426
23.6500,44.09533254
23.6550,43.59529845
23.6600,43.10182965
23.6650,42.61488531
23.6700,42.13487527
23.6750,41.66192255
23.6800,41.19638972
23.6850,40.73843878
23.6900,40.28816676
23.6950,39.8458159
23.7000,39.41122641
23.7050,38.98433845
23.7100,38.56535408
23.7150,38.15412447
23.7200,37.75050674
23.7250,37.35404568
23.7300,36.96443132
23.7350,36.58141828
23.7400,36.20487445
23.7450,35.83465932
23.7500,35.47071985
23.7550,35.11265798
23.7600,34.76033623
23.7650,34.41350459
23.7700,34.0719339
23.7750,33.73534474
23.7800,33.4035991
23.7850,33.07661413
23.7900,32.75426544
23.7950,32.43652874
23.8000,32.12309433
23.8050,31.8142783
23.8100,31.50996785
23.8150,31.21021833
23.8200,30.91500433
23.8250,30.62414406
23.8300,30.33734167
23.8350,30.05438071
23.8400,29.77506421
23.8450,29.4992591
23.8500,29.22646287
23.8550,28.95688878
23.8600,28.69012996
23.8650,28.42664459
23.8700,28.16644242
23.8750,27.9094205
23.8800,27.65557801
23.8850,27.40458374
23.8900,27.15639558
23.8950,26.91078081
23.9000,26.66774199
23.9050,26.42726386
23.9100,26.18915378
23.9150,25.95359309
23.9200,25.72037292
23.9250,25.48959199
23.9300,25.26130753
23.9350,25.03544455
23.9400,24.81210707
23.9450,24.59119063
23.9500,24.37265777
23.9550,24.15649801
23.9600,23.94280965
23.9650,23.73156618
23.9700,23.52256938
23.9750,23.31606562
23.9800,23.11173197
23.9850,22.9093883
23.9900,22.70873602
23.9950,22.5095441
24.0000,22.31159787
24.0050,22.1148105
24.0100,21.91900798
24.0150,21.72404735
24.0200,21.52965273
24.0250,21.33614588
24.0300,21.14356001
24.0350,20.95182923
24.0400,20.76070854
24.0450,20.5701205
24.0500,20.3796755
24.0550,20.18964252
24.0600,19.99989647
24.0650,19.81034517
24.0700,19.62111582
24.0750,19.43222087
24.0800,19.24354564
24.0850,19.05508868
24.0900,18.86679638
24.0950,18.67886365
24.1000,18.49131327
24.1050,18.30384259
24.1100,18.11690804
24.1150,17.93020151
24.1200,17.74402729
24.1250,17.55819927
24.1300,17.37283693
24.1350,17.18793532
24.1400,17.00355896
24.1450,16.81979542
24.1500,16.63672666
24.1550,16.45441373
24.1600,16.27307734
24.1650,16.09267597
24.1700,15.91314855
24.1750,15.73476907
24.1800,15.55731243
24.1850,15.38106141
24.1900,15.20609417
24.1950,15.03247574
24.2000,14.86031169
24.2050,14.68950281
24.2100,14.52012015
24.2150,14.3521189
24.2200,14.18546548
24.2250,14.02014147
24.2300,13.8561778
24.2350,13.69346412
24.2400,13.53190316
24.2450,13.37142706
24.2500,13.2118292
24.2550,13.05310056
24.2600,12.894995
24.2650,12.73729869
24.2700,12.58000177
24.2750,12.42283089
24.2800,12.26581274
24.2850,12.10886188
24.2900,11.95192674
24.2950,11.7947826
24.3000,11.63754335
24.3050,11.48004245
24.3100,11.32210506
24.3150,11.16347989
24.3200,11.00432018
24.3250,10.84425953
24.3300,10.68328073
24.3350,10.52130936
24.3400,10.35851371
24.3450,10.19484698
24.3500,10.03049575
24.3550,9.865407591
24.3600,9.699522447
24.3650,9.533212157
24.3700,9.366402122
24.3750,9.199164128
24.3800,9.031675424
24.3850,8.864167318
24.3900,8.696913622
24.3950,8.53022827
24.4000,8.364207336
24.4050,8.199311223
24.4100,8.03570625
24.4150,7.873877101
24.4200,7.713970857
24.4250,7.556367058
24.4300,7.401436778
24.4350,7.249665814
24.4400,7.101234034
24.4450,6.956218178
24.4500,6.815109045
24.4550,6.677825536
24.4600,6.544637901
24.4650,6.415450041
24.4700,6.290422561
24.4750,6.16943372
24.4800,6.052553084
24.4850,5.939661737
24.4900,5.830647042
24.4950,5.725363574
24.5000,5.62361082
24.5050,5.525140209
24.5100,5.429655072
24.5150,5.336866239
24.5200,5.246649406
24.5250,5.158709042
24.5300,5.072754168
24.5350,4.988601762
24.5400,4.905850954
24.5450,4.824507611
24.5500,4.744553776
24.5550,4.665921142
24.5600,4.588585445
24.5650,4.512580657
24.5700,4.437888801
24.5750,4.364490313
24.5800,4.292436293
24.5850,4.221763911
24.5900,4.152576191
24.5950,4.085031011
24.6000,4.019063816
24.6050,3.954800634
24.6100,3.892438876
24.6150,3.832124512
24.6200,3.773619188
24.6250,3.717022438
24.6300,3.662168626
24.6350,3.608982945
24.6400,3.55721203
24.6450,3.507058785
24.6500,3.458282176
24.6550,3.410902518
24.6600,3.364920187
24.6650,3.32036247
24.6700,3.277316819
24.6750,3.235810554
24.6800,3.195899751
24.6850,3.157579271
24.6900,3.120854062
24.6950,3.085704972
24.7000,3.052484296
24.7050,3.021302936
24.7100,2.992376493
24.7150,2.965872271
24.7200,2.942120675
24.7250,2.921403559
24.7300,2.90380467
24.7350,2.889580525
24.7400,2.878936151
24.7450,2.872128455
24.7500,2.869160024
24.7550,2.870156427
24.7600,2.875183287
24.7650,2.884470152
24.7700,2.898060718
24.7750,2.916167769
24.7800,2.938884182
24.7850,2.966348939
24.7900,2.99853891
24.7950,3.035654048
24.8000,3.077793799
24.8050,3.125111415
24.8100,3.177565188
24.8150,3.235221057
24.8200,3.298137034
24.8250,3.366251309
24.8300,3.439538285
24.8350,3.518038323
24.8400,3.601875325
24.8450,3.690999936
24.8500,3.785428473
24.8550,3.885097647
24.8600,3.989795399
24.8650,4.099419461
24.8700,4.21387416
24.8750,4.332975423
24.8800,4.456705742
24.8850,4.584709095
24.8900,4.716867349
24.8950,4.853023179
24.9000,4.992674021
24.9050,5.135601294
24.9100,5.281349546
24.9150,5.42947385
24.9200,5.579723965
24.9250,5.731810551
24.9300,5.885361743
24.9350,6.040219809
24.9400,6.19613909
24.9450,6.352704701
24.9500,6.509844827
24.9550,6.666945007
24.9600,6.823654264
24.9650,6.979556211
24.9700,7.134246349
24.9750,7.287398866
24.9800,7.438849197
24.9850,7.588345299
24.9900,7.735783906
24.9950,7.8809449
25.0000,8.023687552
25.0050,8.163669563
25.0100,8.301124167
25.0150,8.435921469
25.0200,8.567942949
25.0250,8.697395375
25.0300,8.824355588
25.0350,8.94881447
25.0400,9.070948593
25.0450,9.19122587
25.0500,9.309884177
25.0550,9.427331692
25.0600,9.543954881
25.0650,9.660268289
25.0700,9.776590703
25.0750,9.893547317
25.0800,10.01190787
25.0850,10.13227711
25.0900,10.25551747
25.0950,10.38203965
25.1000,10.51261313
25.1050,10.64784929
25.1100,10.78863132
25.1150,10.93578227
25.1200,11.09002465
25.1250,11.2523669
25.1300,11.42386154
25.1350,11.60559272
25.1400,11.79878089
25.1450,12.00469198
25.1500,12.22456485
25.1550,12.45976491
25.1600,12.71165055
25.1650,12.98161176
25.1700,13.27070938
25.1750,13.58027926
25.1800,13.91108862
25.1850,14.26416183
25.1900,14.64003851
25.1950,14.79978323
25.2000,14.9779993
25.2050,15.17412674
25.2100,15.38730048
25.2150,15.61638701
25.2200,15.86001351
25.2250,16.11659035
25.2300,16.38433011
25.2350,16.66126617
25.2400,16.94527184
25.2450,17.23407932
25.2500,17.52529833
25.2550,17.81643503
25.2600,18.10491202
25.2650,18.38809081
25.2700,18.66329816
25.2750,18.92785755
25.2800,19.17912734
25.2850,19.41454796
25.2900,19.63170051
25.2950,19.82837881
25.3000,20.00267687
25.3050,20.15309274
25.3100,20.27864864
25.3150,20.37902697
25.3200,20.45472041
25.3250,20.50719495
25.3300,20.53906513
25.3350,20.55428039
