type,name,time_units,begin_time,frequency,count,units
signal,"Noraxon MyoMotion-Segments-Upper arm RT-Course","s",0.0000,200,5068,"deg"

time,value
0.0000,2.043572922
0.0050,2.040631265
0.0100,2.037689673
0.0150,2.034748146
0.0200,2.031121946
0.0250,2.026742223
0.0300,2.021545579
0.0350,2.01547725
0.0400,2.008494128
0.0450,2.000568547
0.0500,1.991692892
0.0550,1.981883375
0.0600,1.971181371
0.0650,1.959652315
0.0700,1.947382702
0.0750,1.934475844
0.0800,1.921047355
0.0850,1.907220628
0.0900,1.893122317
0.0950,1.878878636
0.1000,1.864613119
0.1050,1.850445307
0.1100,1.836489045
0.1150,1.822849719
0.1200,1.809621372
0.1250,1.796885261
0.1300,1.784710227
0.1350,1.773154061
0.1400,1.762264792
0.1450,1.75208132
0.1500,1.74263343
0.1550,1.728658084
0.1600,1.715662673
0.1650,1.703508964
0.1700,1.692377206
0.1750,1.682090804
0.1800,1.672824825
0.1850,1.664670006
0.1900,1.657732941
0.1950,1.651834379
0.2000,1.647210732
0.2050,1.643981575
0.2100,1.642098108
0.2150,1.641447947
0.2200,1.642150888
0.2250,1.643885121
0.2300,1.646681332
0.2350,1.650305018
0.2400,1.654549808
0.2450,1.659330851
0.2500,1.664537411
0.2550,1.670170226
0.2600,1.676384712
0.2650,1.683114108
0.2700,1.690291721
0.2750,1.697936379
0.2800,1.705881078
0.2850,1.714160032
0.2900,1.723004092
0.2950,1.732289336
0.3000,1.742221917
0.3050,1.752725834
0.3100,1.763784935
0.3150,1.775397804
0.3200,1.78746938
0.3250,1.799873214
0.3300,1.812443776
0.3350,1.825361031
0.3400,1.83839952
0.3450,1.851535368
0.3500,1.864874977
0.3550,1.878074286
0.3600,1.891253773
0.3650,1.904218088
0.3700,1.917128113
0.3750,1.929843768
0.3800,1.942251734
0.3850,1.954497545
0.3900,1.966521189
0.3950,1.9784184
0.4000,1.99034408
0.4050,2.002489181
0.4100,2.014872355
0.4150,2.027631782
0.4200,2.040655966
0.4250,2.054163424
0.4300,2.068168258
0.4350,2.082593879
0.4400,2.097541551
0.4450,2.112776101
0.4500,2.128436366
0.4550,2.144425908
0.4600,2.160409319
0.4650,2.176611835
0.4700,2.192850337
0.4750,2.209287602
0.4800,2.225827269
0.4850,2.242507649
0.4900,2.259187469
0.4950,2.275993723
0.5000,2.292811153
0.5050,2.309579963
0.5100,2.326390904
0.5150,2.343267543
0.5200,2.36006764
0.5250,2.376923658
0.5300,2.393757366
0.5350,2.410574693
0.5400,2.427393064
0.5450,2.444058836
0.5500,2.460538484
0.5550,2.476685774
0.5600,2.492292734
0.5650,2.507414827
0.5700,2.52195637
0.5750,2.53583092
0.5800,2.549310154
0.5850,2.562332749
0.5900,2.574826294
0.5950,2.58690699
0.6000,2.598560208
0.6050,2.609834709
0.6100,2.620896322
0.6150,2.63165477
0.6200,2.642402004
0.6250,2.653075662
0.6300,2.663890301
0.6350,2.674638295
0.6400,2.685643594
0.6450,2.696746182
0.6500,2.707827757
0.6550,2.719175792
0.6600,2.730571986
0.6650,2.741899715
0.6700,2.753063785
0.6750,2.764102358
0.6800,2.775096228
0.6850,2.785873034
0.6900,2.796456182
0.6950,2.806865491
0.7000,2.816920964
0.7050,2.826768781
0.7100,2.836381198
0.7150,2.845666691
0.7200,2.854755134
0.7250,2.863716944
0.7300,2.872454439
0.7350,2.88110632
0.7400,2.889474736
0.7450,2.897792974
0.7500,2.905891753
0.7550,2.913780457
0.7600,2.921639773
0.7650,2.929389408
0.7700,2.937019671
0.7750,2.944522547
0.7800,2.951838105
0.7850,2.958986958
0.7900,2.965837039
0.7950,2.972489168
0.8000,2.978886579
0.8050,2.985072243
0.8100,2.991053781
0.8150,2.996764868
0.8200,3.002311599
0.8250,3.007754813
0.8300,3.013123035
0.8350,3.01848222
0.8400,3.023797753
0.8450,3.029187433
0.8500,3.034660786
0.8550,3.040058558
0.8600,3.045623043
0.8650,3.050978076
0.8700,3.05621063
0.8750,3.061278398
0.8800,3.066051265
0.8850,3.070499566
0.8900,3.074725541
0.8950,3.078556881
0.9000,3.082110212
0.9050,3.085227437
0.9100,3.087992871
0.9150,3.090465342
0.9200,3.092490394
0.9250,3.094259179
0.9300,3.095623374
0.9350,3.09682215
0.9400,3.097550921
0.9450,3.097907549
0.9500,3.097941038
0.9550,3.097632543
0.9600,3.097013636
0.9650,3.096242137
0.9700,3.09531797
0.9750,3.094188775
0.9800,3.09280501
0.9850,3.091313502
0.9900,3.089605874
0.9950,3.087831639
1.0000,3.085982324
1.0050,3.0839793
1.0100,3.081923184
1.0150,3.079903471
1.0200,3.077791128
1.0250,3.075567566
1.0300,3.073254261
1.0350,3.070779855
1.0400,3.068317296
1.0450,3.065849534
1.0500,3.063392723
1.0550,3.061110601
1.0600,3.058831921
1.0650,3.056729067
1.0700,3.054817003
1.0750,3.052925967
1.0800,3.051030411
1.0850,3.049038764
1.0900,3.047134784
1.0950,3.045215085
1.1000,3.043252546
1.1050,3.041261554
1.1100,3.039225083
1.1150,3.037213658
1.1200,3.035395008
1.1250,3.033536546
1.1300,3.031710657
1.1350,3.029943755
1.1400,3.028292446
1.1450,3.026632178
1.1500,3.02509744
1.1550,3.023926481
1.1600,3.022812247
1.1650,3.02214141
1.1700,3.021832578
1.1750,3.021882758
1.1800,3.022124976
1.1850,3.022547907
1.1900,3.022976263
1.1950,3.023377912
1.2000,3.023673058
1.2050,3.023867318
1.2100,3.024025869
1.2150,3.024060786
1.2200,3.024006846
1.2250,3.023794612
1.2300,3.023514878
1.2350,3.023109502
1.2400,3.022690077
1.2450,3.022534814
1.2500,3.022607288
1.2550,3.022971452
1.2600,3.023670711
1.2650,3.024785037
1.2700,3.026196567
1.2750,3.027858699
1.2800,3.029552538
1.2850,3.031233126
1.2900,3.032922114
1.2950,3.03449371
1.3000,3.036042418
1.3050,3.037586289
1.3100,3.039090742
1.3150,3.04058029
1.3200,3.041936615
1.3250,3.043029736
1.3300,3.043785432
1.3350,3.044578004
1.3400,3.045337419
1.3450,3.045979319
1.3500,3.046523993
1.3550,3.04682683
1.3600,3.046853791
1.3650,3.046236586
1.3700,3.045058809
1.3750,3.043498728
1.3800,3.041658015
1.3850,3.039422256
1.3900,3.037021179
1.3950,3.034476429
1.4000,3.031980036
1.4050,3.029696942
1.4100,3.027780943
1.4150,3.026382872
1.4200,3.025269827
1.4250,3.024799234
1.4300,3.024921082
1.4350,3.025513802
1.4400,3.026631566
1.4450,3.028119764
1.4500,3.029671044
1.4550,3.031061827
1.4600,3.032309234
1.4650,3.033313505
1.4700,3.033989675
1.4750,3.034410187
1.4800,3.03469279
1.4850,3.034677744
1.4900,3.03428579
1.4950,3.033402358
1.5000,3.031773323
1.5050,3.029478961
1.5100,3.026045239
1.5150,3.021478366
1.5200,3.015766204
1.5250,3.008813774
1.5300,3.00056163
1.5350,2.990876265
1.5400,2.979830656
1.5450,2.967117444
1.5500,2.952582196
1.5550,2.936133461
1.5600,2.91753506
1.5650,2.896514391
1.5700,2.872844196
1.5750,2.846514629
1.5800,2.817488046
1.5850,2.785658121
1.5900,2.751084612
1.5950,2.71391676
1.6000,2.674235583
1.6050,2.632188952
1.6100,2.587819819
1.6150,2.54129976
1.6200,2.492843891
1.6250,2.442528389
1.6300,2.390522662
1.6350,2.336411619
1.6400,2.280093877
1.6450,2.221623152
1.6500,2.161157653
1.6550,2.098651823
1.6600,2.034283848
1.6650,1.96812844
1.6700,1.900028623
1.6750,1.829859938
1.6800,1.75750437
1.6850,1.682800667
1.6900,1.605210367
1.6950,1.524743682
1.7000,1.441048505
1.7050,1.353920738
1.7100,1.26324273
1.7150,1.168887054
1.7200,1.071217506
1.7250,0.9700115207
1.7300,0.8654689529
1.7350,0.7580530461
1.7400,0.6478611462
1.7450,0.5351293512
1.7500,0.4203529162
1.7550,0.3037981799
1.7600,0.185570013
1.7650,0.06583357244
1.7700,-0.05540816466
1.7750,-0.178421222
1.7800,-0.3033607576
1.7850,-0.4300423315
1.7900,-0.5585518211
1.7950,-0.6888183306
1.8000,-0.8204780846
1.8050,-0.9536381648
1.8100,-1.088017659
1.8150,-1.223424931
1.8200,-1.359676987
1.8250,-1.496522233
1.8300,-1.633562154
1.8350,-1.770479944
1.8400,-1.907171224
1.8450,-2.043501403
1.8500,-2.179104895
1.8550,-2.314050603
1.8600,-2.448293679
1.8650,-2.581868559
1.8700,-2.714647314
1.8750,-2.846729628
1.8800,-2.977934129
1.8850,-3.108261577
1.8900,-3.237765978
1.8950,-3.366721791
1.9000,-3.495174639
1.9050,-3.623429086
1.9100,-3.751286675
1.9150,-3.878856281
1.9200,-4.006009953
1.9250,-4.132722928
1.9300,-4.259064792
1.9350,-4.384853795
1.9400,-4.509995498
1.9450,-4.634457272
1.9500,-4.75837287
1.9550,-4.881710529
1.9600,-5.004636206
1.9650,-5.126999376
1.9700,-5.248922751
1.9750,-5.370402579
1.9800,-5.491437331
1.9850,-5.611939508
1.9900,-5.731952059
1.9950,-5.851467302
2.0000,-5.970615742
2.0050,-6.089349508
2.0100,-6.207832685
2.0150,-6.325864337
2.0200,-6.443766186
2.0250,-6.561431458
2.0300,-6.678618097
2.0350,-6.795468714
2.0400,-6.911900759
2.0450,-7.027634579
2.0500,-7.143020994
2.0550,-7.257829477
2.0600,-7.372080017
2.0650,-7.485745042
2.0700,-7.598660921
2.0750,-7.71057486
2.0800,-7.82132345
2.0850,-7.930897637
2.0900,-8.03891057
2.0950,-8.145258838
2.1000,-8.249877006
2.1050,-8.352502251
2.1100,-8.453095094
2.1150,-8.551620501
2.1200,-8.648184766
2.1250,-8.74267231
2.1300,-8.835366277
2.1350,-8.926342664
2.1400,-9.015415224
2.1450,-9.10261964
2.1500,-9.188023419
2.1550,-9.271396822
2.1600,-9.352545609
2.1650,-9.431171922
2.1700,-9.507174215
2.1750,-9.580478615
2.1800,-9.651065238
2.1850,-9.719021588
2.1900,-9.78447565
2.1950,-9.847466475
2.2000,-9.907932198
2.2050,-9.965891884
2.2100,-10.02151179
2.2150,-10.0749337
2.2200,-10.12630703
2.2250,-10.17598357
2.2300,-10.2238925
2.2350,-10.27031361
2.2400,-10.31514241
2.2450,-10.35850875
2.2500,-10.400326
2.2550,-10.44047595
2.2600,-10.47873971
2.2650,-10.51517948
2.2700,-10.54969767
2.2750,-10.58245016
2.2800,-10.61340559
2.2850,-10.64294043
2.2900,-10.67092356
2.2950,-10.69763282
2.3000,-10.72297146
2.3050,-10.74705894
2.3100,-10.76964056
2.3150,-10.79097755
2.3200,-10.81096445
2.3250,-10.82973303
2.3300,-10.8477783
2.3350,-10.86514442
2.3400,-10.88203131
2.3450,-10.89857642
2.3500,-10.914667
2.3550,-10.93050766
2.3600,-10.94621297
2.3650,-10.96182083
2.3700,-10.97759658
2.3750,-10.99358298
2.3800,-11.00963202
2.3850,-11.02592691
2.3900,-11.0424692
2.3950,-11.05911974
2.4000,-11.07603015
2.4050,-11.09310614
2.4100,-11.11040278
2.4150,-11.12777797
2.4200,-11.14503188
2.4250,-11.16211335
2.4300,-11.17902606
2.4350,-11.19568927
2.4400,-11.21237904
2.4450,-11.22903871
2.4500,-11.245679
2.4550,-11.26238371
2.4600,-11.27905677
2.4650,-11.29573038
2.4700,-11.31237883
2.4750,-11.3287405
2.4800,-11.34477879
2.4850,-11.36012727
2.4900,-11.37456227
2.4950,-11.38792751
2.5000,-11.40033372
2.5050,-11.41156141
2.5100,-11.42172727
2.5150,-11.43067944
2.5200,-11.43835538
2.5250,-11.44436523
2.5300,-11.44894993
2.5350,-11.45182596
2.5400,-11.45309897
2.5450,-11.45287901
2.5500,-11.45140767
2.5550,-11.44906037
2.5600,-11.44590372
2.5650,-11.44222754
2.5700,-11.43812508
2.5750,-11.43350513
2.5800,-11.4284836
2.5850,-11.42284885
2.5900,-11.41660572
2.5950,-11.40974516
2.6000,-11.40204618
2.6050,-11.39351993
2.6100,-11.38446763
2.6150,-11.37499595
2.6200,-11.36512271
2.6250,-11.35463194
2.6300,-11.34346042
2.6350,-11.33176267
2.6400,-11.31946132
2.6450,-11.3069537
2.6500,-11.29416479
2.6550,-11.28144057
2.6600,-11.26880846
2.6650,-11.2562652
2.6700,-11.24376172
2.6750,-11.23122705
2.6800,-11.21874142
2.6850,-11.20630862
2.6900,-11.19429636
2.6950,-11.18293272
2.7000,-11.17225515
2.7050,-11.1621409
2.7100,-11.15229168
2.7150,-11.14261478
2.7200,-11.13290304
2.7250,-11.12327343
2.7300,-11.11347661
2.7350,-11.10370792
2.7400,-11.09375163
2.7450,-11.08351939
2.7500,-11.07306957
2.7550,-11.06257804
2.7600,-11.05201652
2.7650,-11.0414611
2.7700,-11.03094447
2.7750,-11.02072984
2.7800,-11.01075924
2.7850,-11.00132501
2.7900,-10.9923866
2.7950,-10.98375674
2.8000,-10.97513773
2.8050,-10.9665261
2.8100,-10.95773351
2.8150,-10.94869304
2.8200,-10.93946037
2.8250,-10.93009628
2.8300,-10.92037057
2.8350,-10.91031755
2.8400,-10.89991506
2.8450,-10.88885143
2.8500,-10.87719223
2.8550,-10.86479618
2.8600,-10.85183727
2.8650,-10.83830959
2.8700,-10.82436181
2.8750,-10.8099865
2.8800,-10.79511134
2.8850,-10.77943158
2.8900,-10.76305907
2.8950,-10.7459657
2.9000,-10.7286448
2.9050,-10.71103432
2.9100,-10.69300723
2.9150,-10.67455507
2.9200,-10.65550877
2.9250,-10.63609608
2.9300,-10.61589847
2.9350,-10.59477433
2.9400,-10.57276373
2.9450,-10.54992235
2.9500,-10.5263837
2.9550,-10.50214301
2.9600,-10.47739147
2.9650,-10.45245305
2.9700,-10.42724645
2.9750,-10.40189892
2.9800,-10.37656682
2.9850,-10.3512947
2.9900,-10.32568504
2.9950,-10.29966303
3.0000,-10.27282916
3.0050,-10.24532179
3.0100,-10.21709096
3.0150,-10.18829352
3.0200,-10.15898841
3.0250,-10.12922628
3.0300,-10.09919873
3.0350,-10.06887155
3.0400,-10.03812723
3.0450,-10.00736333
3.0500,-9.97669182
3.0550,-9.945970778
3.0600,-9.915447288
3.0650,-9.884842661
3.0700,-9.853951599
3.0750,-9.822663805
3.0800,-9.790835829
3.0850,-9.758327726
3.0900,-9.725034763
3.0950,-9.691090405
3.1000,-9.656632069
3.1050,-9.621295511
3.1100,-9.584907968
3.1150,-9.547299071
3.1200,-9.508382746
3.1250,-9.467815286
3.1300,-9.425543619
3.1350,-9.381540818
3.1400,-9.335798445
3.1450,-9.288169658
3.1500,-9.238653338
3.1550,-9.187125638
3.1600,-9.133939984
3.1650,-9.07898653
3.1700,-9.022494306
3.1750,-8.965028092
3.1800,-8.907008014
3.1850,-8.849096703
3.1900,-8.79122781
3.1950,-8.733783568
3.2000,-8.676317344
3.2050,-8.618982738
3.2100,-8.561791349
3.2150,-8.50464219
3.2200,-8.447504642
3.2250,-8.390269243
3.2300,-8.333323924
3.2350,-8.276646601
3.2400,-8.220209211
3.2450,-8.163734261
3.2500,-8.107168904
3.2550,-8.050322336
3.2600,-7.992921085
3.2650,-7.934955396
3.2700,-7.876414124
3.2750,-7.817168383
3.2800,-7.757230467
3.2850,-7.696612755
3.2900,-7.635247275
3.2950,-7.572881311
3.3000,-7.509851184
3.3050,-7.446526209
3.3100,-7.383089202
3.3150,-7.319563353
3.3200,-7.256027465
3.3250,-7.192431949
3.3300,-7.128940623
3.3350,-7.065459137
3.3400,-7.002217382
3.3450,-6.938733777
3.3500,-6.874869698
3.3550,-6.810498916
3.3600,-6.745474164
3.3650,-6.680095267
3.3700,-6.6143473
3.3750,-6.548248851
3.3800,-6.482011256
3.3850,-6.415807689
3.3900,-6.349792017
3.3950,-6.283707941
3.4000,-6.217365471
3.4050,-6.15093208
3.4100,-6.08471221
3.4150,-6.018673088
3.4200,-5.952605615
3.4250,-5.886886264
3.4300,-5.821656711
3.4350,-5.756946634
3.4400,-5.692575348
3.4450,-5.629168531
3.4500,-5.566604003
3.4550,-5.504972912
3.4600,-5.444463043
3.4650,-5.385156694
3.4700,-5.327236014
3.4750,-5.270440895
3.4800,-5.214669729
3.4850,-5.159645271
3.4900,-5.105500751
3.4950,-5.051906734
3.5000,-4.999065911
3.5050,-4.947156121
3.5100,-4.895858086
3.5150,-4.845209154
3.5200,-4.79532198
3.5250,-4.746119239
3.5300,-4.697485157
3.5350,-4.649391618
3.5400,-4.601666522
3.5450,-4.554187514
3.5500,-4.507069026
3.5550,-4.460260881
3.5600,-4.413654379
3.5650,-4.367077626
3.5700,-4.320627555
3.5750,-4.27441056
3.5800,-4.228527626
3.5850,-4.182971742
3.5900,-4.137969843
3.5950,-4.093675426
3.6000,-4.049902754
3.6050,-4.006288852
3.6100,-3.962912131
3.6150,-3.919629905
3.6200,-3.876589554
3.6250,-3.833612164
3.6300,-3.790359185
3.6350,-3.746767531
3.6400,-3.702941667
3.6450,-3.658859895
3.6500,-3.614420811
3.6550,-3.569805584
3.6600,-3.52502786
3.6650,-3.479893468
3.6700,-3.434561531
3.6750,-3.388821702
3.6800,-3.342777068
3.6850,-3.296259047
3.6900,-3.249195076
3.6950,-3.201806441
3.7000,-3.154312844
3.7050,-3.106977508
3.7100,-3.059591287
3.7150,-3.012269658
3.7200,-2.965225547
3.7250,-2.918610504
3.7300,-2.872562241
3.7350,-2.827068453
3.7400,-2.782206913
3.7450,-2.737871946
3.7500,-2.694400442
3.7550,-2.651878706
3.7600,-2.609777524
3.7650,-2.56853125
3.7700,-2.52798968
3.7750,-2.488066271
3.7800,-2.448938691
3.7850,-2.410596245
3.7900,-2.373198596
3.7950,-2.336934454
3.8000,-2.301816967
3.8050,-2.267659107
3.8100,-2.234834312
3.8150,-2.203186931
3.8200,-2.172668271
3.8250,-2.143287111
3.8300,-2.114894305
3.8350,-2.087567158
3.8400,-2.061466711
3.8450,-2.036551406
3.8500,-2.012925454
3.8550,-1.990631465
3.8600,-1.969867986
3.8650,-1.950675617
3.8700,-1.933082108
3.8750,-1.917055384
3.8800,-1.902479431
3.8850,-1.888952424
3.8900,-1.876283625
3.8950,-1.864557914
3.9000,-1.853602282
3.9050,-1.843351844
3.9100,-1.833626251
3.9150,-1.824388424
3.9200,-1.815456514
3.9250,-1.806905187
3.9300,-1.798865443
3.9350,-1.791099411
3.9400,-1.783485045
3.9450,-1.77599499
3.9500,-1.768481391
3.9550,-1.760740651
3.9600,-1.752625434
3.9650,-1.744204738
3.9700,-1.735324377
3.9750,-1.726047803
3.9800,-1.716181457
3.9850,-1.705733933
3.9900,-1.694909014
3.9950,-1.683620742
4.0000,-1.671949488
4.0050,-1.659913318
4.0100,-1.647549604
4.0150,-1.63503756
4.0200,-1.622355882
4.0250,-1.609573135
4.0300,-1.596642132
4.0350,-1.583413443
4.0400,-1.570169092
4.0450,-1.557013413
4.0500,-1.543663215
4.0550,-1.530157111
4.0600,-1.516921511
4.0650,-1.503613497
4.0700,-1.490134795
4.0750,-1.476706918
4.0800,-1.463164722
4.0850,-1.449709768
4.0900,-1.436292608
4.0950,-1.422793747
4.1000,-1.409264591
4.1050,-1.395725422
4.1100,-1.381879588
4.1150,-1.368026174
4.1200,-1.354325393
4.1250,-1.340808453
4.1300,-1.327743705
4.1350,-1.315226758
4.1400,-1.303146044
4.1450,-1.291670331
4.1500,-1.280751923
4.1550,-1.270470195
4.1600,-1.260727458
4.1650,-1.25151486
4.1700,-1.242707201
4.1750,-1.234482849
4.1800,-1.226609371
4.1850,-1.219299059
4.1900,-1.21275012
4.1950,-1.206752405
4.2000,-1.201511832
4.2050,-1.197207756
4.2100,-1.193730679
4.2150,-1.19130537
4.2200,-1.189943614
4.2250,-1.189656468
4.2300,-1.190418022
4.2350,-1.192293425
4.2400,-1.195313257
4.2450,-1.1996141
4.2500,-1.205164592
4.2550,-1.212045321
4.2600,-1.220322862
4.2650,-1.230019741
4.2700,-1.241250257
4.2750,-1.254001799
4.2800,-1.268382314
4.2850,-1.28430318
4.2900,-1.301541699
4.2950,-1.320168591
4.3000,-1.340220908
4.3050,-1.361561543
4.3100,-1.384349483
4.3150,-1.408502435
4.3200,-1.434208952
4.3250,-1.461077616
4.3300,-1.489199997
4.3350,-1.518871475
4.3400,-1.549919904
4.3450,-1.582182024
4.3500,-1.615650251
4.3550,-1.650279299
4.3600,-1.685880184
4.3650,-1.722542243
4.3700,-1.760246428
4.3750,-1.798873489
4.3800,-1.838550377
4.3850,-1.879106217
4.3900,-1.920363865
4.3950,-1.962405998
4.4000,-2.005136713
4.4050,-2.048565138
4.4100,-2.092921484
4.4150,-2.13780712
4.4200,-2.183129967
4.4250,-2.228869961
4.4300,-2.275103355
4.4350,-2.321849062
4.4400,-2.369206584
4.4450,-2.417141662
4.4500,-2.465564122
4.4550,-2.51443917
4.4600,-2.563794029
4.4650,-2.613747432
4.4700,-2.664198196
4.4750,-2.714886252
4.4800,-2.765864777
4.4850,-2.816850353
4.4900,-2.867865934
4.4950,-2.918732168
4.5000,-2.969397157
4.5050,-3.019809638
4.5100,-3.069991126
4.5150,-3.119886043
4.5200,-3.169494973
4.5250,-3.218851767
4.5300,-3.267989937
4.5350,-3.317138052
4.5400,-3.366184382
4.5450,-3.415199849
4.5500,-3.464366721
4.5550,-3.513695672
4.5600,-3.563118543
4.5650,-3.612705484
4.5700,-3.662256573
4.5750,-3.711752563
4.5800,-3.761206803
4.5850,-3.810626645
4.5900,-3.860272784
4.5950,-3.91005739
4.6000,-3.9599178
4.6050,-4.009930979
4.6100,-4.060191217
4.6150,-4.110680905
4.6200,-4.161241583
4.6250,-4.212072722
4.6300,-4.262806525
4.6350,-4.313413735
4.6400,-4.363816512
4.6450,-4.413951912
4.6500,-4.463845863
4.6550,-4.513692071
4.6600,-4.56354283
4.6650,-4.613623619
4.6700,-4.664053528
4.6750,-4.715016712
4.6800,-4.766464334
4.6850,-4.818453916
4.6900,-4.870957416
4.6950,-4.923876471
4.7000,-4.977002042
4.7050,-5.030338537
4.7100,-5.083651547
4.7150,-5.137056284
4.7200,-5.190450991
4.7250,-5.244067465
4.7300,-5.297726474
4.7350,-5.351341978
4.7400,-5.404896291
4.7450,-5.458466636
4.7500,-5.512255515
4.7550,-5.566161717
4.7600,-5.620502741
4.7650,-5.675029713
4.7700,-5.729975878
4.7750,-5.785283927
4.7800,-5.840994028
4.7850,-5.896893679
4.7900,-5.952744277
4.7950,-6.008681039
4.8000,-6.064550332
4.8050,-6.120236488
4.8100,-6.175741342
4.8150,-6.230937496
4.8200,-6.28591414
4.8250,-6.34067394
4.8300,-6.395153985
4.8350,-6.449459275
4.8400,-6.503374738
4.8450,-6.556856741
4.8500,-6.609954254
4.8550,-6.662503196
4.8600,-6.714499116
4.8650,-6.765792734
4.8700,-6.816503246
4.8750,-6.866752974
4.8800,-6.916564208
4.8850,-6.966112457
4.8900,-7.015239777
4.8950,-7.064323113
4.9000,-7.113149319
4.9050,-7.161892008
4.9100,-7.210223141
4.9150,-7.258306188
4.9200,-7.306029053
4.9250,-7.35321056
4.9300,-7.400036959
4.9350,-7.446487287
4.9400,-7.492622661
4.9450,-7.538343596
4.9500,-7.583817482
4.9550,-7.62897356
4.9600,-7.673822394
4.9650,-7.718208361
4.9700,-7.762160738
4.9750,-7.805702473
4.9800,-7.848880367
4.9850,-7.891898495
4.9900,-7.934686012
4.9950,-7.977327316
5.0000,-8.019973731
5.0050,-8.062508371
5.0100,-8.105204522
5.0150,-8.148173493
5.0200,-8.191447884
5.0250,-8.235053504
5.0300,-8.279295425
5.0350,-8.323912933
5.0400,-8.369043045
5.0450,-8.414658508
5.0500,-8.460641267
5.0550,-8.506984426
5.0600,-8.553252181
5.0650,-8.599551797
5.0700,-8.645538925
5.0750,-8.691189217
5.0800,-8.736479212
5.0850,-8.781549635
5.0900,-8.826480121
5.0950,-8.871297349
5.1000,-8.91624468
5.1050,-8.96127069
5.1100,-9.006221288
5.1150,-9.0513067
5.1200,-9.096470001
5.1250,-9.141816462
5.1300,-9.187319317
5.1350,-9.232716604
5.1400,-9.278504369
5.1450,-9.324492148
5.1500,-9.370756149
5.1550,-9.417272873
5.1600,-9.4641822
5.1650,-9.511568002
5.1700,-9.559444148
5.1750,-9.607691612
5.1800,-9.656304732
5.1850,-9.705194079
5.1900,-9.754346463
5.1950,-9.803505536
5.2000,-9.85287906
5.2050,-9.902408981
5.2100,-9.952064614
5.2150,-10.00169242
5.2200,-10.05122277
5.2250,-10.10070016
5.2300,-10.15004337
5.2350,-10.19906077
5.2400,-10.247869
5.2450,-10.29644888
5.2500,-10.34481435
5.2550,-10.39293761
5.2600,-10.44092409
5.2650,-10.48890012
5.2700,-10.53700636
5.2750,-10.58539369
5.2800,-10.63400173
5.2850,-10.68254052
5.2900,-10.73128687
5.2950,-10.78007937
5.3000,-10.82866347
5.3050,-10.87696113
5.3100,-10.92433864
5.3150,-10.97064555
5.3200,-11.01562142
5.3250,-11.05905816
5.3300,-11.1003879
5.3350,-11.14004616
5.3400,-11.17793034
5.3450,-11.21414498
5.3500,-11.24873928
5.3550,-11.2818562
5.3600,-11.31381
5.3650,-11.34484241
5.3700,-11.37541619
5.3750,-11.40591025
5.3800,-11.43627338
5.3850,-11.46676528
5.3900,-11.49734402
5.3950,-11.52799867
5.4000,-11.55857855
5.4050,-11.58907908
5.4100,-11.6197713
5.4150,-11.65044719
5.4200,-11.68123753
5.4250,-11.71184282
5.4300,-11.74208718
5.4350,-11.77209456
5.4400,-11.80148895
5.4450,-11.8301518
5.4500,-11.85796317
5.4550,-11.88497438
5.4600,-11.91120946
5.4650,-11.93653802
5.4700,-11.96098227
5.4750,-11.98458811
5.4800,-12.00754828
5.4850,-12.02989
5.4900,-12.0517898
5.4950,-12.07340217
5.5000,-12.09485275
5.5050,-12.11606398
5.5100,-12.13726626
5.5150,-12.15868528
5.5200,-12.18044258
5.5250,-12.20264329
5.5300,-12.22520364
5.5350,-12.24818461
5.5400,-12.27156434
5.5450,-12.2954281
5.5500,-12.31942461
5.5550,-12.34325336
5.5600,-12.36692932
5.5650,-12.39008989
5.5700,-12.41267896
5.5750,-12.43456688
5.5800,-12.45564021
5.5850,-12.47597044
5.5900,-12.49534848
5.5950,-12.51386946
5.6000,-12.53185071
5.6050,-12.54939728
5.6100,-12.56676291
5.6150,-12.58384911
5.6200,-12.60061476
5.6250,-12.6169117
5.6300,-12.63314285
5.6350,-12.64929325
5.6400,-12.66531047
5.6450,-12.68134158
5.6500,-12.69721819
5.6550,-12.7128528
5.6600,-12.7284141
5.6650,-12.74371529
5.6700,-12.75868921
5.6750,-12.7731571
5.6800,-12.78722608
5.6850,-12.80092724
5.6900,-12.81452536
5.6950,-12.82782655
5.7000,-12.84098269
5.7050,-12.85408909
5.7100,-12.86690796
5.7150,-12.8791284
5.7200,-12.89071139
5.7250,-12.90153545
5.7300,-12.91168626
5.7350,-12.92080605
5.7400,-12.92876733
5.7450,-12.93546315
5.7500,-12.9407434
5.7550,-12.94417221
5.7600,-12.94565618
5.7650,-12.94531763
5.7700,-12.94313732
5.7750,-12.93936211
5.7800,-12.93416189
5.7850,-12.92768292
5.7900,-12.92010873
5.7950,-12.91177469
5.8000,-12.90270869
5.8050,-12.89301729
5.8100,-12.88269848
5.8150,-12.87154545
5.8200,-12.85987449
5.8250,-12.84745214
5.8300,-12.8344271
5.8350,-12.8205315
5.8400,-12.80574735
5.8450,-12.79003391
5.8500,-12.77345882
5.8550,-12.75638251
5.8600,-12.73857025
5.8650,-12.72038178
5.8700,-12.70183386
5.8750,-12.68302265
5.8800,-12.66406444
5.8850,-12.64513478
5.8900,-12.62631311
5.8950,-12.60763037
5.9000,-12.58900722
5.9050,-12.5705018
5.9100,-12.55226753
5.9150,-12.53469596
5.9200,-12.51800185
5.9250,-12.50256719
5.9300,-12.48835775
5.9350,-12.4753482
5.9400,-12.46369545
5.9450,-12.4529951
5.9500,-12.44345699
5.9550,-12.43508352
5.9600,-12.42743284
5.9650,-12.42055627
5.9700,-12.41421971
5.9750,-12.40839188
5.9800,-12.40293631
5.9850,-12.39765427
5.9900,-12.39232373
5.9950,-12.38716906
6.0000,-12.38205148
6.0050,-12.37678068
6.0100,-12.37128633
6.0150,-12.36558001
6.0200,-12.35934941
6.0250,-12.35232493
6.0300,-12.34425148
6.0350,-12.33484435
6.0400,-12.324017
6.0450,-12.31174598
6.0500,-12.29773478
6.0550,-12.28227242
6.0600,-12.26530085
6.0650,-12.24687439
6.0700,-12.22699754
6.0750,-12.20562382
6.0800,-12.18258657
6.0850,-12.15814365
6.0900,-12.13218201
6.0950,-12.10471617
6.1000,-12.07576508
6.1050,-12.04545315
6.1100,-12.01378914
6.1150,-11.98090493
6.1200,-11.9463048
6.1250,-11.91013652
6.1300,-11.87232346
6.1350,-11.83298745
6.1400,-11.79197741
6.1450,-11.74904888
6.1500,-11.70412179
6.1550,-11.65716291
6.1600,-11.60839423
6.1650,-11.55756262
6.1700,-11.50453235
6.1750,-11.44932742
6.1800,-11.39220974
6.1850,-11.33309103
6.1900,-11.27208214
6.1950,-11.20933859
6.2000,-11.14480549
6.2050,-11.07874107
6.2100,-11.01140229
6.2150,-10.94283693
6.2200,-10.87324815
6.2250,-10.80248441
6.2300,-10.73075872
6.2350,-10.65799711
6.2400,-10.58434258
6.2450,-10.50995809
6.2500,-10.43489212
6.2550,-10.35928295
6.2600,-10.2832672
6.2650,-10.20675132
6.2700,-10.12995489
6.2750,-10.05266225
6.2800,-9.975032838
6.2850,-9.89703123
6.2900,-9.818504442
6.2950,-9.739268391
6.3000,-9.659169758
6.3050,-9.578293449
6.3100,-9.496729781
6.3150,-9.414642256
6.3200,-9.332030986
6.3250,-9.249167029
6.3300,-9.165967494
6.3350,-9.082475497
6.3400,-8.998421283
6.3450,-8.91368603
6.3500,-8.828228333
6.3550,-8.741946663
6.3600,-8.654758697
6.3650,-8.566642838
6.3700,-8.477843735
6.3750,-8.388424704
6.3800,-8.298715381
6.3850,-8.208890458
6.3900,-8.119404656
6.3950,-8.03057577
6.4000,-7.943091058
6.4050,-7.857339674
6.4100,-7.77399163
6.4150,-7.693491907
6.4200,-7.616385747
6.4250,-7.54305422
6.4300,-7.473309431
6.4350,-7.407422886
6.4400,-7.345445757
6.4450,-7.287695188
6.4500,-7.234446772
6.4550,-7.185380639
6.4600,-7.140269102
6.4650,-7.099145367
6.4700,-7.061893884
6.4750,-7.027896193
6.4800,-6.996907995
6.4850,-6.968483789
6.4900,-6.942542741
6.4950,-6.918808854
6.5000,-6.89704642
6.5050,-6.876791632
6.5100,-6.857757605
6.5150,-6.839671279
6.5200,-6.822148702
6.5250,-6.805011299
6.5300,-6.788120057
6.5350,-6.771356122
6.5400,-6.754405465
6.5450,-6.737415493
6.5500,-6.719998027
6.5550,-6.702018444
6.5600,-6.683349387
6.5650,-6.664010767
6.5700,-6.643698999
6.5750,-6.622778255
6.5800,-6.600840261
6.5850,-6.57798734
6.5900,-6.554199611
6.5950,-6.529274969
6.6000,-6.503508737
6.6050,-6.476768459
6.6100,-6.449099728
6.6150,-6.420558125
6.6200,-6.39105514
6.6250,-6.360601695
6.6300,-6.329141747
6.6350,-6.296685429
6.6400,-6.263289081
6.6450,-6.228919251
6.6500,-6.193705264
6.6550,-6.15759508
6.6600,-6.120572981
6.6650,-6.082604877
6.6700,-6.043673779
6.6750,-6.004148619
6.6800,-5.964069964
6.6850,-5.923526596
6.6900,-5.882573751
6.6950,-5.841146327
6.7000,-5.799318309
6.7050,-5.75723068
6.7100,-5.71493528
6.7150,-5.672362256
6.7200,-5.629597816
6.7250,-5.586535246
6.7300,-5.543699251
6.7350,-5.500970587
6.7400,-5.458450513
6.7450,-5.41612136
6.7500,-5.373814151
6.7550,-5.331535148
6.7600,-5.289471331
6.7650,-5.247620374
6.7700,-5.205796221
6.7750,-5.164272176
6.7800,-5.12280329
6.7850,-5.081736492
6.7900,-5.040870506
6.7950,-5.000208942
6.8000,-4.959928245
6.8050,-4.920204147
6.8100,-4.880953277
6.8150,-4.842240968
6.8200,-4.804498907
6.8250,-4.767725201
6.8300,-4.732062106
6.8350,-4.697557918
6.8400,-4.664325795
6.8450,-4.632151603
6.8500,-4.601088752
6.8550,-4.571292041
6.8600,-4.54255737
6.8650,-4.514632719
6.8700,-4.48737415
6.8750,-4.460651053
6.8800,-4.434487606
6.8850,-4.40894759
6.8900,-4.384209036
6.8950,-4.360491723
6.9000,-4.337750144
6.9050,-4.316268327
6.9100,-4.295938531
6.9150,-4.276729796
6.9200,-4.258550622
6.9250,-4.241107631
6.9300,-4.224426413
6.9350,-4.208325375
6.9400,-4.19293796
6.9450,-4.178255094
6.9500,-4.164226419
6.9550,-4.151018931
6.9600,-4.138541069
6.9650,-4.126939132
6.9700,-4.116140084
6.9750,-4.106134984
6.9800,-4.096856634
6.9850,-4.088288934
6.9900,-4.080301938
6.9950,-4.073143214
7.0000,-4.066699313
7.0050,-4.061096243
7.0100,-4.056207024
7.0150,-4.052331134
7.0200,-4.049563819
7.0250,-4.048049802
7.0300,-4.047862399
7.0350,-4.049003453
7.0400,-4.051436381
7.0450,-4.05504987
7.0500,-4.059583731
7.0550,-4.064792032
7.0600,-4.070191968
7.0650,-4.075330423
7.0700,-4.079824649
7.0750,-4.083238956
7.0800,-4.085376087
7.0850,-4.08580231
7.0900,-4.084310406
7.0950,-4.080632341
7.1000,-4.074547846
7.1050,-4.065859196
7.1100,-4.054621994
7.1150,-4.040593468
7.1200,-4.024011478
7.1250,-4.005020828
7.1300,-3.983561132
7.1350,-3.959882053
7.1400,-3.934204505
7.1450,-3.906851233
7.1500,-3.878282537
7.1550,-3.848786402
7.1600,-3.818730053
7.1650,-3.788628118
7.1700,-3.759000902
7.1750,-3.729906705
7.1800,-3.701829121
7.1850,-3.674834425
7.1900,-3.648906164
7.1950,-3.624061219
7.2000,-3.600388035
7.2050,-3.577770208
7.2100,-3.556204853
7.2150,-3.535814007
7.2200,-3.516792631
7.2250,-3.499488909
7.2300,-3.483999292
7.2350,-3.470714013
7.2400,-3.459596486
7.2450,-3.450849896
7.2500,-3.444468608
7.2550,-3.440542523
7.2600,-3.439047819
7.2650,-3.440036787
7.2700,-3.443711164
7.2750,-3.449938117
7.2800,-3.458828691
7.2850,-3.4704861
7.2900,-3.485111474
7.2950,-3.502720426
7.3000,-3.523223219
7.3050,-3.54651921
7.3100,-3.572698377
7.3150,-3.601294905
7.3200,-3.632165967
7.3250,-3.665166266
7.3300,-3.699662949
7.3350,-3.735636115
7.3400,-3.772958729
7.3450,-3.81150723
7.3500,-3.851293861
7.3550,-3.892389692
7.3600,-3.934834053
7.3650,-3.978734003
7.3700,-4.024131418
7.3750,-4.070862905
7.3800,-4.119020481
7.3850,-4.168491426
7.3900,-4.21929453
7.3950,-4.271235816
7.4000,-4.324256333
7.4050,-4.378200471
7.4100,-4.432915035
7.4150,-4.488546474
7.4200,-4.54476612
7.4250,-4.601705701
7.4300,-4.659251909
7.4350,-4.717493306
7.4400,-4.776343679
7.4450,-4.835883052
7.4500,-4.895985048
7.4550,-4.956471695
7.4600,-5.017546345
7.4650,-5.079149645
7.4700,-5.141180709
7.4750,-5.203990378
7.4800,-5.267421125
7.4850,-5.331798286
7.4900,-5.397270208
7.4950,-5.464024016
7.5000,-5.532001304
7.5050,-5.601259963
7.5100,-5.67205785
7.5150,-5.744264152
7.5200,-5.817958324
7.5250,-5.893035703
7.5300,-5.969374361
7.5350,-6.046706424
7.5400,-6.124788238
7.5450,-6.2035353
7.5500,-6.282865354
7.5550,-6.362582035
7.5600,-6.442691889
7.5650,-6.522922028
7.5700,-6.603174146
7.5750,-6.683216529
7.5800,-6.762652813
7.5850,-6.841474588
7.5900,-6.919384152
7.5950,-6.996115115
7.6000,-7.071601381
7.6050,-7.14575931
7.6100,-7.218560258
7.6150,-7.290329099
7.6200,-7.361120348
7.6250,-7.430911367
7.6300,-7.50023448
7.6350,-7.569088771
7.6400,-7.637634111
7.6450,-7.705827335
7.6500,-7.77362406
7.6550,-7.841161493
7.6600,-7.908530159
7.6650,-7.975691838
7.6700,-8.043046985
7.6750,-8.110893901
7.6800,-8.179133898
7.6850,-8.247713892
7.6900,-8.316702996
7.6950,-8.386078617
7.7000,-8.455948401
7.7050,-8.526252443
7.7100,-8.59695782
7.7150,-8.668182008
7.7200,-8.740183687
7.7250,-8.812907837
7.7300,-8.886532299
7.7350,-8.961114819
7.7400,-9.03656902
7.7450,-9.113084344
7.7500,-9.19067784
7.7550,-9.269400131
7.7600,-9.34939937
7.7650,-9.430865155
7.7700,-9.513797189
7.7750,-9.598073103
7.7800,-9.683719418
7.7850,-9.770469529
7.7900,-9.858242829
7.7950,-9.947228756
7.8000,-10.03727974
7.8050,-10.12843393
7.8100,-10.22041314
7.8150,-10.31305581
7.8200,-10.40607822
7.8250,-10.49938883
7.8300,-10.5928654
7.8350,-10.68657068
7.8400,-10.78049791
7.8450,-10.87422014
7.8500,-10.96768966
7.8550,-11.06045708
7.8600,-11.15236482
7.8650,-11.24330231
7.8700,-11.33288029
7.8750,-11.42096038
7.8800,-11.50753505
7.8850,-11.59232354
7.8900,-11.67529138
7.8950,-11.75647633
7.9000,-11.83569786
7.9050,-11.9130035
7.9100,-11.98828907
7.9150,-12.06155361
7.9200,-12.13285732
7.9250,-12.20241625
7.9300,-12.27011556
7.9350,-12.33610133
7.9400,-12.40054661
7.9450,-12.46362806
7.9500,-12.52552708
7.9550,-12.58631921
7.9600,-12.64591674
7.9650,-12.70459779
7.9700,-12.7620385
7.9750,-12.81847334
7.9800,-12.87400865
7.9850,-12.92862455
7.9900,-12.98250988
7.9950,-13.0358764
8.0000,-13.08860274
8.0050,-13.14103073
8.0100,-13.19335114
8.0150,-13.24554198
8.0200,-13.29726374
8.0250,-13.34861983
8.0300,-13.39944224
8.0350,-13.44966304
8.0400,-13.49955417
8.0450,-13.54896655
8.0500,-13.59804949
8.0550,-13.6466309
8.0600,-13.69466641
8.0650,-13.74201623
8.0700,-13.78870331
8.0750,-13.8346258
8.0800,-13.879887
8.0850,-13.92452113
8.0900,-13.96858512
8.0950,-14.01180889
8.1000,-14.05434463
8.1050,-14.0959927
8.1100,-14.13676683
8.1150,-14.17673688
8.1200,-14.21591698
8.1250,-14.25437796
8.1300,-14.29231311
8.1350,-14.32944245
8.1400,-14.36577904
8.1450,-14.40145207
8.1500,-14.43621829
8.1550,-14.47045889
8.1600,-14.50410101
8.1650,-14.53709613
8.1700,-14.56924783
8.1750,-14.60041518
8.1800,-14.63053699
8.1850,-14.65950768
8.1900,-14.68714756
8.1950,-14.71351152
8.2000,-14.73888323
8.2050,-14.76332842
8.2100,-14.78700836
8.2150,-14.80986432
8.2200,-14.83191865
8.2250,-14.85306965
8.2300,-14.87339174
8.2350,-14.89306172
8.2400,-14.9119259
8.2450,-14.93028438
8.2500,-14.94838349
8.2550,-14.96629123
8.2600,-14.98434472
8.2650,-15.00251665
8.2700,-15.02104184
8.2750,-15.03988417
8.2800,-15.05880989
8.2850,-15.07795347
8.2900,-15.09677154
8.2950,-15.11491927
8.3000,-15.13223818
8.3050,-15.14829237
8.3100,-15.16294939
8.3150,-15.17594812
8.3200,-15.18737814
8.3250,-15.19708078
8.3300,-15.20509707
8.3350,-15.21144299
8.3400,-15.21598015
8.3450,-15.21886721
8.3500,-15.22036805
8.3550,-15.22101527
8.3600,-15.22084337
8.3650,-15.22025992
8.3700,-15.21959125
8.3750,-15.21892947
8.3800,-15.2183957
8.3850,-15.21797794
8.3900,-15.21788364
8.3950,-15.21817795
8.4000,-15.21899691
8.4050,-15.22040546
8.4100,-15.22246386
8.4150,-15.22496652
8.4200,-15.22795175
8.4250,-15.23091534
8.4300,-15.23352369
8.4350,-15.2356879
8.4400,-15.2371651
8.4450,-15.23746157
8.4500,-15.2363592
8.4550,-15.23327104
8.4600,-15.22781946
8.4650,-15.22003215
8.4700,-15.20995542
8.4750,-15.19763008
8.4800,-15.18325128
8.4850,-15.16710838
8.4900,-15.14943406
8.4950,-15.13025529
8.5000,-15.10985425
8.5050,-15.08829648
8.5100,-15.06571548
8.5150,-15.04220208
8.5200,-15.01804452
8.5250,-14.99348317
8.5300,-14.96832437
8.5350,-14.94241727
8.5400,-14.91551381
8.5450,-14.88729142
8.5500,-14.85748433
8.5550,-14.82596899
8.5600,-14.79226319
8.5650,-14.75599981
8.5700,-14.71687737
8.5750,-14.67453947
8.5800,-14.62891258
8.5850,-14.57982074
8.5900,-14.52758555
8.5950,-14.47234312
8.6000,-14.41442652
8.6050,-14.35406888
8.6100,-14.29142603
8.6150,-14.22697943
8.6200,-14.16128803
8.6250,-14.09504353
8.6300,-14.02890786
8.6350,-13.96333771
8.6400,-13.89901033
8.6450,-13.83595877
8.6500,-13.77443331
8.6550,-13.71443302
8.6600,-13.65643612
8.6650,-13.60037339
8.6700,-13.54619609
8.6750,-13.4938402
8.6800,-13.44341417
8.6850,-13.39486425
8.6900,-13.34812218
8.6950,-13.30311907
8.7000,-13.25960764
8.7050,-13.21743697
8.7100,-13.17636574
8.7150,-13.13632292
8.7200,-13.09683941
8.7250,-13.05791757
8.7300,-13.01928
8.7350,-12.98076273
8.7400,-12.94227782
8.7450,-12.90395867
8.7500,-12.86568596
8.7550,-12.82776138
8.7600,-12.79038701
8.7650,-12.75352405
8.7700,-12.71725283
8.7750,-12.68154233
8.7800,-12.64631635
8.7850,-12.61134068
8.7900,-12.576523
8.7950,-12.5420992
8.8000,-12.50783416
8.8050,-12.47383132
8.8100,-12.44010307
8.8150,-12.40677473
8.8200,-12.37349043
8.8250,-12.34009882
8.8300,-12.30684596
8.8350,-12.27364022
8.8400,-12.24051982
8.8450,-12.20762684
8.8500,-12.17497898
8.8550,-12.1424398
8.8600,-12.11003554
8.8650,-12.07786041
8.8700,-12.04610975
8.8750,-12.01469884
8.8800,-11.98359241
8.8850,-11.95276774
8.8900,-11.92191245
8.8950,-11.89121076
8.9000,-11.86026177
8.9050,-11.82914885
8.9100,-11.797976
8.9150,-11.76668581
8.9200,-11.7351914
8.9250,-11.70321134
8.9300,-11.67062477
8.9350,-11.63741903
8.9400,-11.60343616
8.9450,-11.56886116
8.9500,-11.53376253
8.9550,-11.49827232
8.9600,-11.46221842
8.9650,-11.42537937
8.9700,-11.38757422
8.9750,-11.34911006
8.9800,-11.30976863
8.9850,-11.26960981
8.9900,-11.22870691
8.9950,-11.18728632
9.0000,-11.14531698
9.0050,-11.10309307
9.0100,-11.06037539
9.0150,-11.01717233
9.0200,-10.97369685
9.0250,-10.92998556
9.0300,-10.8861863
9.0350,-10.84235597
9.0400,-10.79816025
9.0450,-10.75379516
9.0500,-10.70952153
9.0550,-10.66493516
9.0600,-10.6202741
9.0650,-10.57517674
9.0700,-10.52958051
9.0750,-10.48359474
9.0800,-10.43741031
9.0850,-10.39115602
9.0900,-10.3451206
9.0950,-10.29892889
9.1000,-10.25245629
9.1050,-10.20567279
9.1100,-10.1584779
9.1150,-10.11075939
9.1200,-10.06268425
9.1250,-10.0142799
9.1300,-9.965452495
9.1350,-9.916265026
9.1400,-9.866733722
9.1450,-9.81664397
9.1500,-9.765937414
9.1550,-9.714445471
9.1600,-9.662193553
9.1650,-9.60900703
9.1700,-9.554582865
9.1750,-9.498758085
9.1800,-9.441756691
9.1850,-9.38362215
9.1900,-9.324284261
9.1950,-9.263883629
9.2000,-9.202900258
9.2050,-9.141284703
9.2100,-9.079067056
9.2150,-9.016408898
9.2200,-8.953337468
9.2250,-8.889995919
9.2300,-8.826433717
9.2350,-8.762984397
9.2400,-8.699809956
9.2450,-8.636895755
9.2500,-8.574206216
9.2550,-8.511571608
9.2600,-8.448712888
9.2650,-8.385690135
9.2700,-8.322495681
9.2750,-8.258903286
9.2800,-8.195120492
9.2850,-8.131011817
9.2900,-8.066199456
9.2950,-8.00041753
9.3000,-7.933769744
9.3050,-7.866060238
9.3100,-7.797844544
9.3150,-7.72906849
9.3200,-7.659965575
9.3250,-7.590630508
9.3300,-7.520941311
9.3350,-7.450925122
9.3400,-7.380839472
9.3450,-7.310601592
9.3500,-7.240154965
9.3550,-7.169986003
9.3600,-7.099826375
9.3650,-7.029944516
9.3700,-6.960601911
9.3750,-6.891640023
9.3800,-6.822823693
9.3850,-6.7540993
9.3900,-6.685173477
9.3950,-6.616207064
9.4000,-6.547412766
9.4050,-6.478858192
9.4100,-6.410478363
9.4150,-6.342142213
9.4200,-6.273839361
9.4250,-6.205454416
9.4300,-6.137127794
9.4350,-6.068871321
9.4400,-6.000785819
9.4450,-5.932786009
9.4500,-5.865041157
9.4550,-5.79748156
9.4600,-5.730162182
9.4650,-5.663054609
9.4700,-5.596201558
9.4750,-5.529770337
9.4800,-5.463423951
9.4850,-5.397409179
9.4900,-5.331955152
9.4950,-5.266858908
9.5000,-5.201875133
9.5050,-5.137124225
9.5100,-5.072610873
9.5150,-5.008266616
9.5200,-4.944020964
9.5250,-4.879941418
9.5300,-4.816163117
9.5350,-4.752396166
9.5400,-4.688594878
9.5450,-4.624949989
9.5500,-4.561246468
9.5550,-4.497485638
9.5600,-4.433993687
9.5650,-4.370879574
9.5700,-4.308243289
9.5750,-4.245969692
9.5800,-4.18360067
9.5850,-4.121360834
9.5900,-4.059363952
9.5950,-3.99780414
9.6000,-3.93649928
9.6050,-3.875419332
9.6100,-3.814260579
9.6150,-3.753211555
9.6200,-3.691884024
9.6250,-3.630325397
9.6300,-3.56871713
9.6350,-3.507168206
9.6400,-3.445608789
9.6450,-3.38407045
9.6500,-3.322527976
9.6550,-3.260764725
9.6600,-3.199055054
9.6650,-3.137506924
9.6700,-3.076199536
9.6750,-3.014956126
9.6800,-2.954099565
9.6850,-2.893546395
9.6900,-2.833297059
9.6950,-2.773226295
9.7000,-2.713339238
9.7050,-2.653567097
9.7100,-2.594146662
9.7150,-2.535099284
9.7200,-2.47636029
9.7250,-2.417989337
9.7300,-2.360209473
9.7350,-2.302844705
9.7400,-2.245989636
9.7450,-2.189629382
9.7500,-2.133580805
9.7550,-2.077764708
9.7600,-2.022058772
9.7650,-1.966548213
9.7700,-1.9110257
9.7750,-1.855384841
9.7800,-1.799718053
9.7850,-1.743733945
9.7900,-1.687210076
9.7950,-1.630051863
9.8000,-1.572422685
9.8050,-1.514145529
9.8100,-1.455434194
9.8150,-1.396270597
9.8200,-1.336610646
9.8250,-1.276531599
9.8300,-1.215865602
9.8350,-1.154886164
9.8400,-1.09370664
9.8450,-1.032321029
9.8500,-0.9710784611
9.8550,-0.9099985155
9.8600,-0.8491130472
9.8650,-0.7883816565
9.8700,-0.7278866301
9.8750,-0.6679249154
9.8800,-0.6090137889
9.8850,-0.5511715281
9.8900,-0.4943577065
9.8950,-0.4386370172
9.9000,-0.3842108779
9.9050,-0.3311184703
9.9100,-0.2797736182
9.9150,-0.2301474112
9.9200,-0.1825328052
9.9250,-0.1368400038
9.9300,-0.09312759614
9.9350,-0.05143956927
9.9400,-0.01196224869
9.9450,0.02518086082
9.9500,0.05972049867
9.9550,0.09169383797
9.9600,0.1208858158
9.9650,0.1472195568
9.9700,0.1708066922
9.9750,0.1914021761
9.9800,0.2090843026
9.9850,0.2238079833
9.9900,0.2351640139
9.9950,0.2431181945
10.0000,0.2477582542
10.0050,0.2493222556
10.0100,0.2479574814
10.0150,0.2437091869
10.0200,0.2367478173
10.0250,0.2270542216
10.0300,0.2151258107
10.0350,0.2008968459
10.0400,0.1848070958
10.0450,0.1670284178
10.0500,0.1476574303
10.0550,0.1268315511
10.0600,0.1047400489
10.0650,0.08177987405
10.0700,0.05796325398
10.0750,0.03340530852
10.0800,0.008517010221
10.0850,-0.01656439146
10.0900,-0.04180055655
10.0950,-0.06701130579
10.1000,-0.09208670023
10.1050,-0.1169547709
10.1100,-0.1414305328
10.1150,-0.1655227029
10.1200,-0.1893215301
10.1250,-0.2125964119
10.1300,-0.2355302804
10.1350,-0.2579191615
10.1400,-0.279736741
10.1450,-0.3009690732
10.1500,-0.3215133354
10.1550,-0.341583022
10.1600,-0.3609136972
10.1650,-0.3797040716
10.1700,-0.3977509777
10.1750,-0.4149619972
10.1800,-0.4313111769
10.1850,-0.4468132963
10.1900,-0.4616779599
10.1950,-0.4757112772
10.2000,-0.4889771901
10.2050,-0.501486693
10.2100,-0.5131549695
10.2150,-0.5240533472
10.2200,-0.5342103733
10.2250,-0.5437918382
10.2300,-0.5527356122
10.2350,-0.561175726
10.2400,-0.5691581356
10.2450,-0.5767588681
10.2500,-0.5838907993
10.2550,-0.5909106236
10.2600,-0.5976100399
10.2650,-0.6041579631
10.2700,-0.6107243665
10.2750,-0.617540319
10.2800,-0.6247575319
10.2850,-0.6325898182
10.2900,-0.6409346939
10.2950,-0.6500824222
10.3000,-0.6599279762
10.3050,-0.6707715404
10.3100,-0.6823165835
10.3150,-0.6945965164
10.3200,-0.7077170381
10.3250,-0.7215891206
10.3300,-0.7363573579
10.3350,-0.7519566948
10.3400,-0.768381249
10.3450,-0.7855580441
10.3500,-0.8033426812
10.3550,-0.8216989525
10.3600,-0.8406222437
10.3650,-0.8602253432
10.3700,-0.8804631011
10.3750,-0.9011393996
10.3800,-0.9225516719
10.3850,-0.9446194009
10.3900,-0.9672399564
10.3950,-0.9903701547
10.4000,-1.013884292
10.4050,-1.037935861
10.4100,-1.062275553
10.4150,-1.086910999
10.4200,-1.111627915
10.4250,-1.136529835
10.4300,-1.161424051
10.4350,-1.186212222
10.4400,-1.210752815
10.4450,-1.234992943
10.4500,-1.258900178
10.4550,-1.28227583
10.4600,-1.305277588
10.4650,-1.327610513
10.4700,-1.349540362
10.4750,-1.371079013
10.4800,-1.392114152
10.4850,-1.412741839
10.4900,-1.433017834
10.4950,-1.453127726
10.5000,-1.473130059
10.5050,-1.4931339
10.5100,-1.513100434
10.5150,-1.533056452
10.5200,-1.552943234
10.5250,-1.572930487
10.5300,-1.593033071
10.5350,-1.613226962
10.5400,-1.633679106
10.5450,-1.654292649
10.5500,-1.675221838
10.5550,-1.696478089
10.5600,-1.718255181
10.5650,-1.740399023
10.5700,-1.762788966
10.5750,-1.785681314
10.5800,-1.808750245
10.5850,-1.83204636
10.5900,-1.855628819
10.5950,-1.879306084
10.6000,-1.903330185
10.6050,-1.927494258
10.6100,-1.952370406
10.6150,-1.978095201
10.6200,-2.004575954
10.6250,-2.031917867
10.6300,-2.060185691
10.6350,-2.089304516
10.6400,-2.119481171
10.6450,-2.150686325
10.6500,-2.183043257
10.6550,-2.216586533
10.6600,-2.251242182
10.6650,-2.286981055
10.6700,-2.323798938
10.6750,-2.361667039
10.6800,-2.40043477
10.6850,-2.440074985
10.6900,-2.480579384
10.6950,-2.521724624
10.7000,-2.563604942
10.7050,-2.606005348
10.7100,-2.649091849
10.7150,-2.692549167
10.7200,-2.736557431
10.7250,-2.780935657
10.7300,-2.825988234
10.7350,-2.871901963
10.7400,-2.918880219
10.7450,-2.966738505
10.7500,-3.015742636
10.7550,-3.065823242
10.7600,-3.11705892
10.7650,-3.169462543
10.7700,-3.222944894
10.7750,-3.277485747
10.7800,-3.333073319
10.7850,-3.389336767
10.7900,-3.446333332
10.7950,-3.503958467
10.8000,-3.561993417
10.8050,-3.620381608
10.8100,-3.679072037
10.8150,-3.738036057
10.8200,-3.79729401
10.8250,-3.856624837
10.8300,-3.915913148
10.8350,-3.97502792
10.8400,-4.033876503
10.8450,-4.0923133
10.8500,-4.150224335
10.8550,-4.207522377
10.8600,-4.264110482
10.8650,-4.320118701
10.8700,-4.375520403
10.8750,-4.430342433
10.8800,-4.48478568
10.8850,-4.538848686
10.8900,-4.592479359
10.8950,-4.645947276
10.9000,-4.699154459
10.9050,-4.752417228
10.9100,-4.805413823
10.9150,-4.85826521
10.9200,-4.911216593
10.9250,-4.964203567
10.9300,-5.017208686
10.9350,-5.070202203
10.9400,-5.123179333
10.9450,-5.176349174
10.9500,-5.229400236
10.9550,-5.282537864
10.9600,-5.335644374
10.9650,-5.388826746
10.9700,-5.441876338
10.9750,-5.49502599
10.9800,-5.548237646
10.9850,-5.601586375
10.9900,-5.654996576
10.9950,-5.708713578
11.0000,-5.762763878
11.0050,-5.817198
11.0100,-5.871949549
11.0150,-5.927107967
11.0200,-5.982563681
11.0250,-6.038359654
11.0300,-6.094500622
11.0350,-6.150844285
11.0400,-6.207385222
11.0450,-6.264342507
11.0500,-6.32137036
11.0550,-6.378578218
11.0600,-6.435787502
11.0650,-6.492921067
11.0700,-6.5500626
11.0750,-6.607128823
11.0800,-6.664020306
11.0850,-6.720692425
11.0900,-6.777046558
11.0950,-6.832871364
11.1000,-6.888225791
11.1050,-6.943225684
11.1100,-6.997632858
11.1150,-7.051447368
11.1200,-7.104699936
11.1250,-7.157399834
11.1300,-7.209712859
11.1350,-7.261633618
11.1400,-7.313377298
11.1450,-7.365054577
11.1500,-7.416720475
11.1550,-7.468564999
11.1600,-7.520524549
11.1650,-7.572524599
11.1700,-7.624726098
11.1750,-7.676842607
11.1800,-7.728852472
11.1850,-7.780668609
11.1900,-7.832207992
11.1950,-7.883531374
11.2000,-7.93482208
11.2050,-7.985773991
11.2100,-8.036567482
11.2150,-8.087256063
11.2200,-8.137919135
11.2250,-8.188617943
11.2300,-8.23940437
11.2350,-8.290605335
11.2400,-8.342134835
11.2450,-8.394039932
11.2500,-8.446551662
11.2550,-8.499517184
11.2600,-8.553039778
11.2650,-8.606880325
11.2700,-8.661126833
11.2750,-8.715704019
11.2800,-8.770624313
11.2850,-8.825658248
11.2900,-8.880991283
11.2950,-8.936534449
11.3000,-8.992212349
11.3050,-9.047986846
11.3100,-9.10368008
11.3150,-9.15926518
11.3200,-9.214536382
11.3250,-9.269594563
11.3300,-9.324318814
11.3350,-9.378654979
11.3400,-9.432407632
11.3450,-9.485733691
11.3500,-9.538709722
11.3550,-9.591306165
11.3600,-9.643888161
11.3650,-9.696549204
11.3700,-9.749224519
11.3750,-9.802054385
11.3800,-9.854994723
11.3850,-9.908275564
11.3900,-9.961766164
11.3950,-10.01554841
11.4000,-10.06954224
11.4050,-10.12337137
11.4100,-10.17724577
11.4150,-10.23118076
11.4200,-10.28494322
11.4250,-10.33856422
11.4300,-10.39202702
11.4350,-10.44522717
11.4400,-10.49799227
11.4450,-10.55023136
11.4500,-10.60177492
11.4550,-10.65223743
11.4600,-10.7018205
11.4650,-10.75036908
11.4700,-10.79800717
11.4750,-10.84466225
11.4800,-10.89067023
11.4850,-10.93615876
11.4900,-10.98134814
11.4950,-11.02613343
11.5000,-11.0707318
11.5050,-11.11545899
11.5100,-11.16025488
11.5150,-11.20502078
11.5200,-11.2497012
11.5250,-11.29435453
11.5300,-11.33891228
11.5350,-11.38316289
11.5400,-11.42724795
11.5450,-11.47095989
11.5500,-11.51426873
11.5550,-11.55734771
11.5600,-11.60027204
11.5650,-11.64310662
11.5700,-11.6858567
11.5750,-11.72849461
11.5800,-11.77069856
11.5850,-11.8125552
11.5900,-11.85392596
11.5950,-11.89472496
11.6000,-11.93461446
11.6050,-11.97362591
11.6100,-12.01177694
11.6150,-12.04914703
11.6200,-12.0860293
11.6250,-12.1227409
11.6300,-12.15941737
11.6350,-12.19634981
11.6400,-12.2339494
11.6450,-12.27215416
11.6500,-12.31115095
11.6550,-12.3509285
11.6600,-12.39135757
11.6650,-12.43262925
11.6700,-12.47465624
11.6750,-12.51733192
11.6800,-12.56056293
11.6850,-12.60444585
11.6900,-12.64872665
11.6950,-12.69348937
11.7000,-12.73873575
11.7050,-12.78442566
11.7100,-12.83037448
11.7150,-12.87608309
11.7200,-12.92128955
11.7250,-12.96556576
11.7300,-13.00843356
11.7350,-13.04962564
11.7400,-13.08896722
11.7450,-13.1263514
11.7500,-13.1616644
11.7550,-13.19485983
11.7600,-13.22547314
11.7650,-13.25348086
11.7700,-13.27874885
11.7750,-13.30141617
11.7800,-13.32102614
11.7850,-13.33764632
11.7900,-13.35092995
11.7950,-13.36090183
11.8000,-13.36738544
11.8050,-13.37046904
11.8100,-13.37027903
11.8150,-13.36707186
11.8200,-13.36102143
11.8250,-13.35248953
11.8300,-13.34185082
11.8350,-13.32944443
11.8400,-13.31541773
11.8450,-13.30025312
11.8500,-13.28417312
11.8550,-13.26720713
11.8600,-13.24937564
11.8650,-13.23078992
11.8700,-13.21140921
11.8750,-13.19116241
11.8800,-13.17011067
11.8850,-13.14810606
11.8900,-13.12520906
11.8950,-13.10150538
11.9000,-13.07714867
11.9050,-13.05220537
11.9100,-13.02694311
11.9150,-13.00152065
11.9200,-12.97605038
11.9250,-12.95059273
11.9300,-12.9251755
11.9350,-12.89990327
11.9400,-12.87494887
11.9450,-12.8506073
11.9500,-12.82687107
11.9550,-12.80401481
11.9600,-12.78182341
11.9650,-12.7603496
11.9700,-12.7393709
11.9750,-12.71874307
11.9800,-12.69847163
11.9850,-12.67806592
11.9900,-12.65768718
11.9950,-12.63685726
12.0000,-12.61531498
12.0050,-12.59302359
12.0100,-12.56969696
12.0150,-12.54530804
12.0200,-12.51973427
12.0250,-12.49292563
12.0300,-12.464919
12.0350,-12.43592813
12.0400,-12.40600811
12.0450,-12.37525326
12.0500,-12.34366375
12.0550,-12.31158704
12.0600,-12.27950696
12.0650,-12.24770997
12.0700,-12.21634602
12.0750,-12.18581546
12.0800,-12.15658179
12.0850,-12.12891998
12.0900,-12.10326845
12.0950,-12.08013931
12.1000,-12.05956216
12.1050,-12.04160661
12.1100,-12.02640977
12.1150,-12.01369713
12.1200,-12.00357307
12.1250,-11.99553748
12.1300,-11.98951008
12.1350,-11.98533733
12.1400,-11.98279767
12.1450,-11.98154439
12.1500,-11.98146044
12.1550,-11.98228404
12.1600,-11.98374697
12.1650,-11.98578878
12.1700,-11.98830575
12.1750,-11.99106054
12.1800,-11.99429702
12.1850,-11.99769919
12.1900,-12.00098382
12.1950,-12.00397251
12.2000,-12.00641733
12.2050,-12.00823721
12.2100,-12.00900677
12.2150,-12.00870547
12.2200,-12.00714133
12.2250,-12.0040365
12.2300,-11.99941765
12.2350,-11.99322366
12.2400,-11.98502918
12.2450,-11.97459052
12.2500,-11.96179533
12.2550,-11.94640345
12.2600,-11.92835095
12.2650,-11.90737661
12.2700,-11.88354388
12.2750,-11.85692979
12.2800,-11.82751518
12.2850,-11.79540503
12.2900,-11.76079081
12.2950,-11.72388125
12.3000,-11.68507137
12.3050,-11.64452962
12.3100,-11.60251516
12.3150,-11.55948893
12.3200,-11.51570836
12.3250,-11.47146192
12.3300,-11.42691619
12.3350,-11.38197395
12.3400,-11.33656913
12.3450,-11.2908822
12.3500,-11.24522689
12.3550,-11.19972992
12.3600,-11.15456044
12.3650,-11.10975766
12.3700,-11.06547098
12.3750,-11.02164692
12.3800,-10.97819451
12.3850,-10.9349306
12.3900,-10.89189016
12.3950,-10.84843274
12.4000,-10.80470107
12.4050,-10.76070656
12.4100,-10.71629817
12.4150,-10.67180239
12.4200,-10.627174
12.4250,-10.58272187
12.4300,-10.53826743
12.4350,-10.49388898
12.4400,-10.44970856
12.4450,-10.40571249
12.4500,-10.36163377
12.4550,-10.31734003
12.4600,-10.27278268
12.4650,-10.22761193
12.4700,-10.18170941
12.4750,-10.13489455
12.4800,-10.08682956
12.4850,-10.03775869
12.4900,-9.987665599
12.4950,-9.936576159
12.5000,-9.884604553
12.5050,-9.831815968
12.5100,-9.778230206
12.5150,-9.723727001
12.5200,-9.668511607
12.5250,-9.612439218
12.5300,-9.55563177
12.5350,-9.497965232
12.5400,-9.439488873
12.5450,-9.380297278
12.5500,-9.320367084
12.5550,-9.259770721
12.5600,-9.198790401
12.5650,-9.137496887
12.5700,-9.075997506
12.5750,-9.014123007
12.5800,-8.951856
12.5850,-8.889060572
12.5900,-8.825500502
12.5950,-8.761033577
12.6000,-8.695273861
12.6050,-8.628340606
12.6100,-8.560312895
12.6150,-8.490925089
12.6200,-8.420568237
12.6250,-8.349677917
12.6300,-8.278718735
12.6350,-8.208219701
12.6400,-8.138731074
12.6450,-8.070599313
12.6500,-8.004234858
12.6550,-7.939959343
12.6600,-7.877925988
12.6650,-7.818465838
12.6700,-7.76173856
12.6750,-7.70766893
12.6800,-7.656380732
12.6850,-7.607760998
12.6900,-7.561558271
12.6950,-7.517895041
12.7000,-7.476452329
12.7050,-7.436901767
12.7100,-7.399103027
12.7150,-7.362674282
12.7200,-7.327259613
12.7250,-7.292399648
12.7300,-7.258090821
12.7350,-7.223997288
12.7400,-7.190015751
12.7450,-7.155981006
12.7500,-7.12195877
12.7550,-7.088112196
12.7600,-7.05443469
12.7650,-7.021007461
12.7700,-6.987949483
12.7750,-6.955464448
12.7800,-6.923578864
12.7850,-6.892353345
12.7900,-6.861846136
12.7950,-6.832002957
12.8000,-6.802872668
12.8050,-6.774394067
12.8100,-6.746860166
12.8150,-6.720169211
12.8200,-6.694251042
12.8250,-6.669176465
12.8300,-6.644737808
12.8350,-6.62076901
12.8400,-6.59728661
12.8450,-6.574221211
12.8500,-6.551459358
12.8550,-6.529004137
12.8600,-6.506636525
12.8650,-6.484397363
12.8700,-6.462272071
12.8750,-6.440364067
12.8800,-6.41875112
12.8850,-6.397568473
12.8900,-6.376859531
12.8950,-6.356791978
12.9000,-6.337640957
12.9050,-6.319359734
12.9100,-6.30202323
12.9150,-6.285846927
12.9200,-6.270928776
12.9250,-6.257026852
12.9300,-6.244215099
12.9350,-6.232521847
12.9400,-6.221871683
12.9450,-6.212366397
12.9500,-6.203917961
12.9550,-6.196452987
12.9600,-6.189979664
12.9650,-6.184434276
12.9700,-6.179783547
12.9750,-6.176088885
12.9800,-6.172974057
12.9850,-6.170573901
12.9900,-6.168777042
12.9950,-6.167384791
13.0000,-6.166299891
13.0050,-6.165640641
13.0100,-6.165158066
13.0150,-6.164911091
13.0200,-6.164894073
13.0250,-6.165321812
13.0300,-6.166147041
13.0350,-6.167429913
13.0400,-6.169041946
13.0450,-6.171145947
13.0500,-6.173747003
13.0550,-6.176626059
13.0600,-6.179734777
13.0650,-6.183068316
13.0700,-6.186576015
13.0750,-6.190117658
13.0800,-6.193645991
13.0850,-6.196941446
13.0900,-6.200152635
13.0950,-6.203006283
13.1000,-6.205516775
13.1050,-6.207457589
13.1100,-6.208769956
13.1150,-6.209389138
13.1200,-6.209135711
13.1250,-6.207820359
13.1300,-6.205514953
13.1350,-6.202191135
13.1400,-6.19800613
13.1450,-6.192879315
13.1500,-6.186780483
13.1550,-6.179801009
13.1600,-6.172196126
13.1650,-6.163898068
13.1700,-6.155001829
13.1750,-6.145636432
13.1800,-6.135948916
13.1850,-6.126078931
13.1900,-6.116275072
13.1950,-6.106641966
13.2000,-6.09730516
13.2050,-6.088358091
13.2100,-6.080033021
13.2150,-6.072435319
13.2200,-6.065511201
13.2250,-6.059568725
13.2300,-6.054526869
13.2350,-6.0505748
13.2400,-6.047843907
13.2450,-6.046491745
13.2500,-6.04662192
13.2550,-6.048466448
13.2600,-6.052121414
13.2650,-6.057602853
13.2700,-6.064690067
13.2750,-6.07336227
13.2800,-6.083854021
13.2850,-6.095886424
13.2900,-6.109573809
13.2950,-6.124950826
13.3000,-6.141928566
13.3050,-6.160453769
13.3100,-6.18062591
13.3150,-6.202380171
13.3200,-6.225877176
13.3250,-6.250977568
13.3300,-6.277538298
13.3350,-6.305631899
13.3400,-6.335383814
13.3450,-6.366693553
13.3500,-6.399538354
13.3550,-6.434123238
13.3600,-6.47033421
13.3650,-6.508093632
13.3700,-6.547374625
13.3750,-6.588194857
13.3800,-6.630244286
13.3850,-6.6736472
13.3900,-6.718042838
13.3950,-6.763443375
13.4000,-6.809625836
13.4050,-6.856480097
13.4100,-6.903903696
13.4150,-6.951765968
13.4200,-6.999964577
13.4250,-7.048701043
13.4300,-7.097485557
13.4350,-7.146568273
13.4400,-7.195695215
13.4450,-7.244926242
13.4500,-7.294398189
13.4550,-7.344313334
13.4600,-7.394629082
13.4650,-7.445378657
13.4700,-7.496701586
13.4750,-7.548623515
13.4800,-7.601006021
13.4850,-7.654113613
13.4900,-7.708014772
13.4950,-7.76271185
13.5000,-7.818065077
13.5050,-7.87406392
13.5100,-7.930441901
13.5150,-7.987065272
13.5200,-8.043780376
13.5250,-8.100666409
13.5300,-8.157868557
13.5350,-8.215261108
13.5400,-8.272811709
13.5450,-8.33055427
13.5500,-8.388542872
13.5550,-8.446691692
13.5600,-8.505045317
13.5650,-8.563617583
13.5700,-8.622805378
13.5750,-8.682827974
13.5800,-8.743771731
13.5850,-8.805770497
13.5900,-8.868860676
13.5950,-8.933019284
13.6000,-8.998469932
13.6050,-9.065099181
13.6100,-9.132937468
13.6150,-9.20191846
13.6200,-9.271696743
13.6250,-9.342198007
13.6300,-9.413198837
13.6350,-9.484553088
13.6400,-9.556072691
13.6450,-9.627500903
13.6500,-9.698789874
13.6550,-9.769784387
13.6600,-9.840637618
13.6650,-9.911413356
13.6700,-9.981983063
13.6750,-10.05249829
13.6800,-10.12319903
13.6850,-10.19419363
13.6900,-10.2654449
13.6950,-10.33721805
13.7000,-10.40928891
13.7050,-10.48168963
13.7100,-10.55392911
13.7150,-10.62586471
13.7200,-10.69750977
13.7250,-10.76843833
13.7300,-10.83866718
13.7350,-10.90792668
13.7400,-10.9761683
13.7450,-11.04341864
13.7500,-11.10988851
13.7550,-11.17555758
13.7600,-11.24053419
13.7650,-11.30500544
13.7700,-11.36907598
13.7750,-11.43284496
13.7800,-11.49662954
13.7850,-11.5604061
13.7900,-11.62407946
13.7950,-11.68760903
13.8000,-11.75064182
13.8050,-11.81296356
13.8100,-11.87428512
13.8150,-11.93465401
13.8200,-11.99392837
13.8250,-12.05160942
13.8300,-12.10764222
13.8350,-12.16185336
13.8400,-12.21406305
13.8450,-12.26404472
13.8500,-12.31204569
13.8550,-12.35809536
13.8600,-12.40241361
13.8650,-12.44517405
13.8700,-12.48655335
13.8750,-12.52670243
13.8800,-12.56569854
13.8850,-12.60368265
13.8900,-12.64084532
13.8950,-12.67732385
13.9000,-12.7130058
13.9050,-12.74789005
13.9100,-12.78185663
13.9150,-12.81476939
13.9200,-12.84638776
13.9250,-12.87661978
13.9300,-12.90533007
13.9350,-12.93226409
13.9400,-12.95738056
13.9450,-12.98056255
13.9500,-13.00181442
13.9550,-13.02117826
13.9600,-13.03871263
13.9650,-13.05462357
13.9700,-13.06913268
13.9750,-13.08234857
13.9800,-13.09448679
13.9850,-13.10583814
13.9900,-13.11678872
13.9950,-13.12752045
14.0000,-13.13824139
14.0050,-13.14919286
14.0100,-13.16058747
14.0150,-13.17262281
14.0200,-13.18539739
14.0250,-13.19901031
14.0300,-13.21365244
14.0350,-13.2292304
14.0400,-13.2459572
14.0450,-13.26377455
14.0500,-13.2828068
14.0550,-13.30296007
14.0600,-13.3242726
14.0650,-13.34676994
14.0700,-13.3701656
14.0750,-13.39430842
14.0800,-13.41904418
14.0850,-13.44412015
14.0900,-13.46972823
14.0950,-13.4958454
14.1000,-13.52289644
14.1050,-13.55080384
14.1100,-13.5797696
14.1150,-13.60948289
14.1200,-13.63997921
14.1250,-13.67129474
14.1300,-13.70336286
14.1350,-13.73607822
14.1400,-13.76950525
14.1450,-13.80332729
14.1500,-13.83710374
14.1550,-13.87061506
14.1600,-13.90348981
14.1650,-13.93543722
14.1700,-13.96612769
14.1750,-13.99528296
14.1800,-14.02286985
14.1850,-14.04874605
14.1900,-14.07278194
14.1950,-14.09479302
14.2000,-14.11450984
14.2050,-14.13133224
14.2100,-14.14498001
14.2150,-14.15483652
14.2200,-14.16072208
14.2250,-14.16224339
14.2300,-14.15930755
14.2350,-14.15181486
14.2400,-14.13954546
14.2450,-14.12282367
14.2500,-14.10163918
14.2550,-14.07620359
14.2600,-14.04698097
14.2650,-14.01426749
14.2700,-13.97883915
14.2750,-13.94141621
14.2800,-13.90256036
14.2850,-13.86285262
14.2900,-13.82289619
14.2950,-13.78326946
14.3000,-13.74462532
14.3050,-13.70734765
14.3100,-13.67182341
14.3150,-13.6384458
14.3200,-13.60728071
14.3250,-13.57859298
14.3300,-13.55237244
14.3350,-13.5286165
14.3400,-13.5069972
14.3450,-13.48712069
14.3500,-13.46854175
14.3550,-13.45091302
14.3600,-13.43377735
14.3650,-13.41685489
14.3700,-13.40013345
14.3750,-13.38372271
14.3800,-13.36741518
14.3850,-13.35142395
14.3900,-13.33542411
14.3950,-13.31957501
14.4000,-13.30385411
14.4050,-13.28863618
14.4100,-13.27398466
14.4150,-13.26016215
14.4200,-13.24722912
14.4250,-13.23514168
14.4300,-13.22364027
14.4350,-13.21256187
14.4400,-13.20171088
14.4450,-13.19104914
14.4500,-13.18047561
14.4550,-13.17004585
14.4600,-13.15956673
14.4650,-13.14912069
14.4700,-13.13847332
14.4750,-13.12765794
14.4800,-13.11646377
14.4850,-13.10503495
14.4900,-13.0930868
14.4950,-13.0805717
14.5000,-13.06768535
14.5050,-13.05470215
14.5100,-13.04160869
14.5150,-13.02868367
14.5200,-13.01616352
14.5250,-13.00435489
14.5300,-12.99314024
14.5350,-12.98243566
14.5400,-12.9721039
14.5450,-12.96177602
14.5500,-12.95131154
14.5550,-12.94040146
14.5600,-12.92862461
14.5650,-12.91593008
14.5700,-12.9022122
14.5750,-12.8875004
14.5800,-12.87186528
14.5850,-12.85529493
14.5900,-12.83770586
14.5950,-12.81928806
14.6000,-12.80025054
14.6050,-12.78082094
14.6100,-12.76127379
14.6150,-12.74180158
14.6200,-12.72245904
14.6250,-12.70324379
14.6300,-12.68405342
14.6350,-12.66471969
14.6400,-12.64502133
14.6450,-12.62471136
14.6500,-12.60354404
14.6550,-12.58133592
14.6600,-12.55788349
14.6650,-12.53298918
14.6700,-12.50649491
14.6750,-12.47816591
14.6800,-12.44792514
14.6850,-12.4156994
14.6900,-12.38136531
14.6950,-12.34499872
14.7000,-12.30649917
14.7050,-12.26586679
14.7100,-12.22328337
14.7150,-12.17900024
14.7200,-12.13314082
14.7250,-12.08597642
14.7300,-12.03786054
14.7350,-11.98926578
14.7400,-11.94034554
14.7450,-11.8912583
14.7500,-11.84213343
14.7550,-11.79299532
14.7600,-11.74404772
14.7650,-11.69539736
14.7700,-11.6473783
14.7750,-11.59985378
14.7800,-11.55302461
14.7850,-11.50672601
14.7900,-11.46126055
14.7950,-11.41632538
14.8000,-11.3716317
14.8050,-11.3271208
14.8100,-11.28251678
14.8150,-11.23770924
14.8200,-11.19241363
14.8250,-11.14650506
14.8300,-11.10039093
14.8350,-11.05402501
14.8400,-11.00779098
14.8450,-10.96179011
14.8500,-10.91628304
14.8550,-10.87188692
14.8600,-10.8286842
14.8650,-10.78677986
14.8700,-10.74619942
14.8750,-10.70661534
14.8800,-10.66813125
14.8850,-10.63024216
14.8900,-10.59296922
14.8950,-10.55581567
14.9000,-10.51851514
14.9050,-10.4807326
14.9100,-10.44238758
14.9150,-10.40329606
14.9200,-10.36335389
14.9250,-10.32264553
14.9300,-10.28138807
14.9350,-10.23960743
14.9400,-10.19739659
14.9450,-10.15499972
14.9500,-10.11263004
14.9550,-10.07039202
14.9600,-10.02841061
14.9650,-9.986782589
14.9700,-9.945533284
14.9750,-9.904575814
14.9800,-9.863960572
14.9850,-9.823396822
14.9900,-9.783273325
14.9950,-9.743324561
15.0000,-9.703773704
15.0050,-9.664458197
15.0100,-9.625374502
15.0150,-9.586232035
15.0200,-9.546855741
15.0250,-9.507007421
15.0300,-9.466445577
15.0350,-9.424796725
15.0400,-9.38182305
15.0450,-9.337642803
15.0500,-9.292334923
15.0550,-9.246015398
15.0600,-9.198892017
15.0650,-9.150841089
15.0700,-9.101926159
15.0750,-9.052052273
15.0800,-9.000815828
15.0850,-8.948129446
15.0900,-8.893859763
15.0950,-8.838339032
15.1000,-8.781700915
15.1050,-8.724019105
15.1100,-8.665736666
15.1150,-8.606729516
15.1200,-8.547134747
15.1250,-8.487002611
15.1300,-8.426251115
15.1350,-8.364906078
15.1400,-8.302902033
15.1450,-8.24067079
15.1500,-8.178325569
15.1550,-8.115677804
15.1600,-8.053029369
15.1650,-7.990565334
15.1700,-7.928058253
15.1750,-7.865828847
15.1800,-7.80395904
15.1850,-7.742899556
15.1900,-7.682797449
15.1950,-7.623923783
15.2000,-7.566572502
15.2050,-7.510863899
15.2100,-7.456917606
15.2150,-7.404384067
15.2200,-7.353074025
15.2250,-7.302654621
15.2300,-7.252928953
15.2350,-7.203673043
15.2400,-7.154725307
15.2450,-7.105922307
15.2500,-7.056827142
15.2550,-7.007086338
15.2600,-6.956599144
15.2650,-6.905186117
15.2700,-6.852702438
15.2750,-6.799381505
15.2800,-6.745312574
15.2850,-6.690958004
15.2900,-6.636031066
15.2950,-6.580626648
15.3000,-6.524685465
15.3050,-6.468283895
15.3100,-6.411381388
15.3150,-6.35427338
15.3200,-6.296877852
15.3250,-6.239295751
15.3300,-6.181503513
15.3350,-6.123515636
15.3400,-6.06566154
15.3450,-6.007884917
15.3500,-5.950259687
15.3550,-5.892480217
15.3600,-5.83451895
15.3650,-5.77653971
15.3700,-5.718295713
15.3750,-5.659919932
15.3800,-5.601513831
15.3850,-5.543143615
15.3900,-5.484641688
15.3950,-5.425793821
15.4000,-5.36662525
15.4050,-5.307225274
15.4100,-5.247682551
15.4150,-5.188244959
15.4200,-5.12921119
15.4250,-5.070590421
15.4300,-5.012253316
15.4350,-4.954602861
15.4400,-4.897702897
15.4450,-4.841534376
15.4500,-4.785799783
15.4550,-4.730545078
15.4600,-4.675521619
15.4650,-4.620755988
15.4700,-4.566395154
15.4750,-4.512313891
15.4800,-4.458634332
15.4850,-4.405306936
15.4900,-4.352148909
15.4950,-4.29907769
15.5000,-4.245854875
15.5050,-4.192721018
15.5100,-4.139144717
15.5150,-4.085247096
15.5200,-4.031183841
15.5250,-3.97656971
15.5300,-3.921129464
15.5350,-3.864872917
15.5400,-3.80781482
15.5450,-3.750054894
15.5500,-3.691705224
15.5550,-3.632988497
15.5600,-3.573835402
15.5650,-3.514223132
15.5700,-3.454379418
15.5750,-3.394062412
15.5800,-3.333211402
15.5850,-3.271554055
15.5900,-3.209344781
15.5950,-3.146704878
15.6000,-3.083520681
15.6050,-3.019790016
15.6100,-2.955472468
15.6150,-2.890370385
15.6200,-2.824804072
15.6250,-2.758994786
15.6300,-2.693123939
15.6350,-2.627460135
15.6400,-2.561908777
15.6450,-2.496684374
15.6500,-2.431894982
15.6550,-2.367638477
15.6600,-2.303827081
15.6650,-2.240421941
15.6700,-2.17751605
15.6750,-2.114933855
15.6800,-2.052760248
15.6850,-1.991086949
15.6900,-1.93001054
15.6950,-1.86970118
15.7000,-1.810278493
15.7050,-1.751695414
15.7100,-1.693827148
15.7150,-1.636794637
15.7200,-1.580520019
15.7250,-1.524839862
15.7300,-1.469947153
15.7350,-1.415675577
15.7400,-1.362071572
15.7450,-1.309054466
15.7500,-1.256799356
15.7550,-1.205309825
15.7600,-1.154974875
15.7650,-1.105740174
15.7700,-1.057575478
15.7750,-1.010453536
15.7800,-0.9643648442
15.7850,-0.9191252
15.7900,-0.8749035063
15.7950,-0.8318710861
15.8000,-0.7901495697
15.8050,-0.7494199027
15.8100,-0.7098396642
15.8150,-0.6710052978
15.8200,-0.6327141519
15.8250,-0.5952418221
15.8300,-0.5586149238
15.8350,-0.522865361
15.8400,-0.4881944436
15.8450,-0.454485226
15.8500,-0.4218521626
15.8550,-0.3902370833
15.8600,-0.359902264
15.8650,-0.3309438146
15.8700,-0.3035095866
15.8750,-0.2777498889
15.8800,-0.2537582731
15.8850,-0.2315739607
15.8900,-0.2111923848
15.8950,-0.1925068704
15.9000,-0.1756693108
15.9050,-0.1606787167
15.9100,-0.1475897396
15.9150,-0.136412133
15.9200,-0.1270763926
15.9250,-0.1195036597
15.9300,-0.1136999521
15.9350,-0.1096828164
15.9400,-0.1075348027
15.9450,-0.107086458
15.9500,-0.108086364
15.9550,-0.1107696393
15.9600,-0.1148993258
15.9650,-0.1202002107
15.9700,-0.1266408497
15.9750,-0.1342895737
15.9800,-0.1429867187
15.9850,-0.1524814526
15.9900,-0.162651981
15.9950,-0.1734560333
16.0000,-0.1846126929
16.0050,-0.1958787466
16.0100,-0.2072843055
16.0150,-0.2186887331
16.0200,-0.2298091292
16.0250,-0.240552529
16.0300,-0.2506851151
16.0350,-0.2602115386
16.0400,-0.2690287215
16.0450,-0.2770639283
16.0500,-0.2843737547
16.0550,-0.2909568003
16.0600,-0.2966433387
16.0650,-0.3014396779
16.0700,-0.3055218944
16.0750,-0.3092196685
16.0800,-0.3123681244
16.0850,-0.3152979627
16.0900,-0.3180611602
16.0950,-0.3205429248
16.1000,-0.3225584044
16.1050,-0.3242987925
16.1100,-0.3257385325
16.1150,-0.3271373952
16.1200,-0.328534215
16.1250,-0.3299650563
16.1300,-0.3315766686
16.1350,-0.3334211215
16.1400,-0.3353274852
16.1450,-0.337301054
16.1500,-0.3394493312
16.1550,-0.3419413972
16.1600,-0.3446638017
16.1650,-0.3477217102
16.1700,-0.350902168
16.1750,-0.3542352451
16.1800,-0.3579378867
16.1850,-0.3621195853
16.1900,-0.3666556704
16.1950,-0.3717422864
16.2000,-0.3772699483
16.2050,-0.3834528782
16.2100,-0.3902559531
16.2150,-0.3978924146
16.2200,-0.4064115863
16.2250,-0.4157229683
16.2300,-0.4257485142
16.2350,-0.4362052296
16.2400,-0.4468298591
16.2450,-0.4577159885
16.2500,-0.4688810716
16.2550,-0.4800312873
16.2600,-0.4912438833
16.2650,-0.5024294813
16.2700,-0.5135901589
16.2750,-0.5245665575
16.2800,-0.5356087898
16.2850,-0.5467399802
16.2900,-0.5578958956
16.2950,-0.569200169
16.3000,-0.5805782756
16.3050,-0.5920393184
16.3100,-0.6035776474
16.3150,-0.6150841307
16.3200,-0.6267144441
16.3250,-0.6385817528
16.3300,-0.6506282977
16.3350,-0.6630049725
16.3400,-0.6756291692
16.3450,-0.6886337114
16.3500,-0.7019582259
16.3550,-0.7158384565
16.3600,-0.7302974193
16.3650,-0.7455480132
16.3700,-0.7615960202
16.3750,-0.778389429
16.3800,-0.7959914694
16.3850,-0.8143355612
16.3900,-0.8334720814
16.3950,-0.8532658865
16.4000,-0.8738388864
16.4050,-0.8951217352
16.4100,-0.9169795708
16.4150,-0.9397343906
16.4200,-0.9633012183
16.4250,-0.9877956142
16.4300,-1.01308159
16.4350,-1.039423923
16.4400,-1.066875384
16.4450,-1.095644161
16.4500,-1.125834111
16.4550,-1.157283379
16.4600,-1.189905841
16.4650,-1.223708577
16.4700,-1.258660107
16.4750,-1.294715086
16.4800,-1.33175612
16.4850,-1.369815826
16.4900,-1.408746609
16.4950,-1.448740977
16.5000,-1.489929584
16.5050,-1.532344923
16.5100,-1.576149799
16.5150,-1.621166335
16.5200,-1.667301078
16.5250,-1.714510602
16.5300,-1.762716342
16.5350,-1.811966174
16.5400,-1.86228186
16.5450,-1.913529323
16.5500,-1.965695481
16.5550,-2.018702369
16.5600,-2.07259178
16.5650,-2.127339737
16.5700,-2.182863747
16.5750,-2.23926589
16.5800,-2.296477751
16.5850,-2.35438282
16.5900,-2.413085648
16.5950,-2.47250235
16.6000,-2.53271456
16.6050,-2.593849404
16.6100,-2.655746292
16.6150,-2.718396938
16.6200,-2.781865356
16.6250,-2.846158165
16.6300,-2.911403921
16.6350,-2.977401758
16.6400,-3.044280357
16.6450,-3.111873206
16.6500,-3.180273063
16.6550,-3.249309883
16.6600,-3.319038901
16.6650,-3.389127145
16.6700,-3.459685559
16.6750,-3.530448258
16.6800,-3.601572629
16.6850,-3.672934696
16.6900,-3.744553156
16.6950,-3.816807348
16.7000,-3.889500542
16.7050,-3.962731663
16.7100,-4.036606187
16.7150,-4.11082545
16.7200,-4.185501942
16.7250,-4.260626655
16.7300,-4.336169044
16.7350,-4.412108027
16.7400,-4.488444936
16.7450,-4.565101513
16.7500,-4.642061739
16.7550,-4.719432004
16.7600,-4.797279711
16.7650,-4.875655354
16.7700,-4.954614361
16.7750,-5.034077987
16.7800,-5.114096705
16.7850,-5.194418867
16.7900,-5.275278555
16.7950,-5.356477179
16.8000,-5.437878873
16.8050,-5.519287033
16.8100,-5.600552643
16.8150,-5.681804881
16.8200,-5.76293308
16.8250,-5.844075832
16.8300,-5.925054556
16.8350,-6.005924486
16.8400,-6.086639637
16.8450,-6.16718024
16.8500,-6.247422476
16.8550,-6.327222976
16.8600,-6.406450981
16.8650,-6.485221865
16.8700,-6.563290692
16.8750,-6.640684407
16.8800,-6.717211214
16.8850,-6.793006277
16.8900,-6.868098563
16.8950,-6.942280647
16.9000,-7.015861116
16.9050,-7.088783879
16.9100,-7.16110893
16.9150,-7.232974774
16.9200,-7.304543792
16.9250,-7.375886065
16.9300,-7.446927692
16.9350,-7.51785654
16.9400,-7.588591513
16.9450,-7.659207106
16.9500,-7.729633476
16.9550,-7.79986383
16.9600,-7.869791271
16.9650,-7.939550078
16.9700,-8.008931531
16.9750,-8.078222193
16.9800,-8.14704241
16.9850,-8.215455334
16.9900,-8.28332712
16.9950,-8.350548094
17.0000,-8.417227002
17.0050,-8.48314661
17.0100,-8.548505637
17.0150,-8.613242496
17.0200,-8.677551653
17.0250,-8.741493233
17.0300,-8.805266517
17.0350,-8.869068763
17.0400,-8.932921466
17.0450,-8.996961859
17.0500,-9.060943983
17.0550,-9.124979204
17.0600,-9.188922025
17.0650,-9.252683417
17.0700,-9.316064541
17.0750,-9.379091507
17.0800,-9.441729904
17.0850,-9.503825694
17.0900,-9.565279221
17.0950,-9.626131699
17.1000,-9.686248404
17.1050,-9.745573939
17.1100,-9.804186104
17.1150,-9.861860059
17.1200,-9.918699921
17.1250,-9.974349975
17.1300,-10.02894981
17.1350,-10.0822258
17.1400,-10.13428185
17.1450,-10.18501807
17.1500,-10.23450515
17.1550,-10.28296356
17.1600,-10.33051743
17.1650,-10.37725767
17.1700,-10.4233289
17.1750,-10.46872031
17.1800,-10.513661
17.1850,-10.55820277
17.1900,-10.6024136
17.1950,-10.64642212
17.2000,-10.68997887
17.2050,-10.7329989
17.2100,-10.77558132
17.2150,-10.81770615
17.2200,-10.85923284
17.2250,-10.90014348
17.2300,-10.94059404
17.2350,-10.9804462
17.2400,-11.02004835
17.2450,-11.05939884
17.2500,-11.09856444
17.2550,-11.13754118
17.2600,-11.17648153
17.2650,-11.21544987
17.2700,-11.25450212
17.2750,-11.29349765
17.2800,-11.33288115
17.2850,-11.37278062
17.2900,-11.41352655
17.2950,-11.45533329
17.3000,-11.49836133
17.3050,-11.54288983
17.3100,-11.58897716
17.3150,-11.63689386
17.3200,-11.68657796
17.3250,-11.73782708
17.3300,-11.79050298
17.3350,-11.84412646
17.3400,-11.89846305
17.3450,-11.95311047
17.3500,-12.00784957
17.3550,-12.06215636
17.3600,-12.11580209
17.3650,-12.16860989
17.3700,-12.22041905
17.3750,-12.27101025
17.3800,-12.31998959
17.3850,-12.36737339
17.3900,-12.41297745
17.3950,-12.45655831
17.4000,-12.49828
17.4050,-12.53821862
17.4100,-12.57617979
17.4150,-12.6126547
17.4200,-12.64786057
17.4250,-12.68201132
17.4300,-12.71538687
17.4350,-12.74843259
17.4400,-12.78125286
17.4450,-12.81398059
17.4500,-12.84643872
17.4550,-12.87848581
17.4600,-12.91014612
17.4650,-12.94116113
17.4700,-12.97151601
17.4750,-13.00127652
17.4800,-13.03021961
17.4850,-13.05817559
17.4900,-13.08514341
17.4950,-13.1109519
17.5000,-13.13555524
17.5050,-13.15909231
17.5100,-13.18122362
17.5150,-13.20224574
17.5200,-13.22211243
17.5250,-13.24108442
17.5300,-13.259346
17.5350,-13.27719684
17.5400,-13.29452853
17.5450,-13.31173022
17.5500,-13.32913181
17.5550,-13.34698792
17.5600,-13.36560563
17.5650,-13.38518179
17.5700,-13.40608626
17.5750,-13.42846567
17.5800,-13.4522089
17.5850,-13.47736473
17.5900,-13.50383008
17.5950,-13.53117949
17.6000,-13.55915559
17.6050,-13.58753208
17.6100,-13.6159582
17.6150,-13.644163
17.6200,-13.67176474
17.6250,-13.69862612
17.6300,-13.72462804
17.6350,-13.74957132
17.6400,-13.77353522
17.6450,-13.79680046
17.6500,-13.81908729
17.6550,-13.84085329
17.6600,-13.86208603
17.6650,-13.88270466
17.6700,-13.90275094
17.6750,-13.92240506
17.6800,-13.94161259
17.6850,-13.96038974
17.6900,-13.97870933
17.6950,-13.99656848
17.7000,-14.01388968
17.7050,-14.03070792
17.7100,-14.04745602
17.7150,-14.06398404
17.7200,-14.0804771
17.7250,-14.09723018
17.7300,-14.11422277
17.7350,-14.13135911
17.7400,-14.14883626
17.7450,-14.16674082
17.7500,-14.18513348
17.7550,-14.20399919
17.7600,-14.22315454
17.7650,-14.24262701
17.7700,-14.26222014
17.7750,-14.28162461
17.7800,-14.30083099
17.7850,-14.31978605
17.7900,-14.33796909
17.7950,-14.35542161
17.8000,-14.37188092
17.8050,-14.38719079
17.8100,-14.40147071
17.8150,-14.4145734
17.8200,-14.42657794
17.8250,-14.4374606
17.8300,-14.44747803
17.8350,-14.45661593
17.8400,-14.46510574
17.8450,-14.47295179
17.8500,-14.48011124
17.8550,-14.48659263
17.8600,-14.49234006
17.8650,-14.4972221
17.8700,-14.50088083
17.8750,-14.50297709
17.8800,-14.50345332
17.8850,-14.5018468
17.8900,-14.49748163
17.8950,-14.49024412
17.9000,-14.4799247
17.9050,-14.46629126
17.9100,-14.44929424
17.9150,-14.42891519
17.9200,-14.40543017
17.9250,-14.37904038
17.9300,-14.35026574
17.9350,-14.31970792
17.9400,-14.28799378
17.9450,-14.25563279
17.9500,-14.22358475
17.9550,-14.19200397
17.9600,-14.16162187
17.9650,-14.13287904
17.9700,-14.10628277
17.9750,-14.08191056
17.9800,-14.06001446
17.9850,-14.04068734
17.9900,-14.02397945
17.9950,-14.00968227
18.0000,-13.99766309
18.0050,-13.98748305
18.0100,-13.97836052
18.0150,-13.96982115
18.0200,-13.96114385
18.0250,-13.95174405
18.0300,-13.94119891
18.0350,-13.92933483
18.0400,-13.91575012
18.0450,-13.9001998
18.0500,-13.8827447
18.0550,-13.86371246
18.0600,-13.84310959
18.0650,-13.82144967
18.0700,-13.79893683
18.0750,-13.77572111
18.0800,-13.75183422
18.0850,-13.72737411
18.0900,-13.70269171
18.0950,-13.67783513
18.1000,-13.65289887
18.1050,-13.62789508
18.1100,-13.60259078
18.1150,-13.57689167
18.1200,-13.550634
18.1250,-13.52377695
18.1300,-13.49593289
18.1350,-13.46711538
18.1400,-13.43724922
18.1450,-13.40640354
18.1500,-13.37453897
18.1550,-13.34174414
18.1600,-13.30818389
18.1650,-13.27378373
18.1700,-13.23881196
18.1750,-13.20372002
18.1800,-13.16854795
18.1850,-13.13364186
18.1900,-13.09946224
18.1950,-13.06625543
18.2000,-13.03441492
18.2050,-13.00410838
18.2100,-12.97552243
18.2150,-12.94852678
18.2200,-12.92294551
18.2250,-12.89873245
18.2300,-12.87551844
18.2350,-12.85337608
18.2400,-12.83190255
18.2450,-12.81081166
18.2500,-12.79013341
18.2550,-12.77006488
18.2600,-12.75054503
18.2650,-12.73167624
18.2700,-12.71330173
18.2750,-12.69557994
18.2800,-12.67848397
18.2850,-12.66186571
18.2900,-12.64546174
18.2950,-12.62911497
18.3000,-12.61261587
18.3050,-12.59586302
18.3100,-12.57916767
18.3150,-12.5624956
18.3200,-12.54593757
18.3250,-12.52992181
18.3300,-12.51463925
18.3350,-12.50006428
18.3400,-12.48644292
18.3450,-12.47384248
18.3500,-12.46228027
18.3550,-12.45156262
18.3600,-12.44174013
18.3650,-12.43249406
18.3700,-12.42377858
18.3750,-12.41559916
18.3800,-12.40778075
18.3850,-12.40016263
18.3900,-12.39249612
18.3950,-12.38452983
18.4000,-12.37618787
18.4050,-12.36739773
18.4100,-12.35836723
18.4150,-12.34873746
18.4200,-12.33833045
18.4250,-12.32706817
18.4300,-12.31496607
18.4350,-12.3018129
18.4400,-12.28758136
18.4450,-12.2720886
18.4500,-12.25538801
18.4550,-12.23761725
18.4600,-12.21872548
18.4650,-12.19907179
18.4700,-12.17864886
18.4750,-12.1573992
18.4800,-12.13535132
18.4850,-12.1123866
18.4900,-12.08845342
18.4950,-12.06320548
18.5000,-12.0364632
18.5050,-12.00803874
18.5100,-11.97766362
18.5150,-11.94541515
18.5200,-11.91144288
18.5250,-11.87602253
18.5300,-11.83952205
18.5350,-11.80221022
18.5400,-11.76461422
18.5450,-11.72746521
18.5500,-11.69115094
18.5550,-11.65630756
18.5600,-11.62357442
18.5650,-11.59357766
18.5700,-11.56687672
18.5750,-11.54391714
18.5800,-11.52507976
18.5850,-11.51042722
18.5900,-11.49994122
18.5950,-11.49359849
18.6000,-11.4910646
18.6050,-11.49212136
18.6100,-11.49620809
18.6150,-11.50293332
18.6200,-11.51146038
18.6250,-11.52097852
18.6300,-11.53092393
18.6350,-11.54084044
18.6400,-11.55034598
18.6450,-11.55896242
18.6500,-11.56643808
18.6550,-11.5724523
18.6600,-11.57703496
18.6650,-11.5800252
18.6700,-11.58138861
18.6750,-11.58102166
18.6800,-11.57901942
18.6850,-11.57544833
18.6900,-11.57067622
18.6950,-11.5646591
18.7000,-11.55761108
18.7050,-11.54954447
18.7100,-11.54038396
18.7150,-11.53031776
18.7200,-11.5194901
18.7250,-11.50804707
18.7300,-11.49563276
18.7350,-11.48239632
18.7400,-11.46803059
18.7450,-11.45255707
18.7500,-11.4359768
18.7550,-11.41803666
18.7600,-11.39884187
18.7650,-11.37815676
18.7700,-11.35598186
18.7750,-11.33238035
18.7800,-11.30737926
18.7850,-11.28101445
18.7900,-11.25326843
18.7950,-11.22437266
18.8000,-11.19420642
18.8050,-11.16283262
18.8100,-11.13054743
18.8150,-11.0974019
18.8200,-11.06357353
18.8250,-11.02897141
18.8300,-10.99376314
18.8350,-10.95821722
18.8400,-10.922471
18.8450,-10.88651367
18.8500,-10.85052866
18.8550,-10.81427765
18.8600,-10.77774578
18.8650,-10.74065566
18.8700,-10.7029314
18.8750,-10.6644202
18.8800,-10.62506648
18.8850,-10.58486984
18.8900,-10.54406328
18.8950,-10.50262797
18.9000,-10.46078278
18.9050,-10.41862614
18.9100,-10.37620157
18.9150,-10.33343334
18.9200,-10.29069375
18.9250,-10.24816035
18.9300,-10.20588361
18.9350,-10.16398063
18.9400,-10.1223511
18.9450,-10.08114452
18.9500,-10.04039234
18.9550,-10.00016043
18.9600,-9.960411625
18.9650,-9.921314217
18.9700,-9.8829633
18.9750,-9.84572506
18.9800,-9.809548513
18.9850,-9.774716706
18.9900,-9.740853094
18.9950,-9.708118392
19.0000,-9.6762264
19.0050,-9.644980815
19.0100,-9.614289459
19.0150,-9.583963869
19.0200,-9.553694892
19.0250,-9.523025775
19.0300,-9.492180231
19.0350,-9.46077803
19.0400,-9.429223322
19.0450,-9.397390024
19.0500,-9.365504006
19.0550,-9.333983854
19.0600,-9.302909443
19.0650,-9.27260845
19.0700,-9.243378285
19.0750,-9.215371183
19.0800,-9.188609163
19.0850,-9.163227855
19.0900,-9.139230977
19.0950,-9.116403819
19.1000,-9.094902415
19.1050,-9.074773841
19.1100,-9.055626444
19.1150,-9.037637018
19.1200,-9.020675699
19.1250,-9.004765657
19.1300,-8.989834114
19.1350,-8.975560274
19.1400,-8.962155476
19.1450,-8.949573694
19.1500,-8.937740604
19.1550,-8.926947709
19.1600,-8.917052082
19.1650,-8.908361513
19.1700,-8.90085063
19.1750,-8.894540186
19.1800,-8.889431523
19.1850,-8.885628454
19.1900,-8.88300269
19.1950,-8.881516777
19.2000,-8.881084805
19.2050,-8.881483937
19.2100,-8.882372215
19.2150,-8.883819926
19.2200,-8.885422061
19.2250,-8.887005197
19.2300,-8.888090762
19.2350,-8.888623338
19.2400,-8.888288624
19.2450,-8.887078286
19.2500,-8.884675372
19.2550,-8.881082744
19.2600,-8.876023447
19.2650,-8.869349403
19.2700,-8.860952909
19.2750,-8.85050954
19.2800,-8.8382509
19.2850,-8.823961474
19.2900,-8.807905808
19.2950,-8.790073737
19.3000,-8.77060299
19.3050,-8.749710726
19.3100,-8.727464529
19.3150,-8.704031115
19.3200,-8.679775671
19.3250,-8.654643681
19.3300,-8.628706856
19.3350,-8.602294336
19.3400,-8.575504633
19.3450,-8.548729654
19.3500,-8.522293192
19.3550,-8.496210544
19.3600,-8.470929738
19.3650,-8.446757498
19.3700,-8.423960178
19.3750,-8.402784069
19.3800,-8.383596315
19.3850,-8.366764861
19.3900,-8.352620148
19.3950,-8.341424185
19.4000,-8.333246299
19.4050,-8.328197128
19.4100,-8.326557278
19.4150,-8.328267164
19.4200,-8.333171285
19.4250,-8.341376989
19.4300,-8.352690384
19.4350,-8.367169761
19.4400,-8.384390286
19.4450,-8.404279419
19.4500,-8.426669946
19.4550,-8.451476
19.4600,-8.47868794
19.4650,-8.508056347
19.4700,-8.539578474
19.4750,-8.573232361
19.4800,-8.608775234
19.4850,-8.646225606
19.4900,-8.68527183
19.4950,-8.725869787
19.5000,-8.76781704
19.5050,-8.811018972
19.5100,-8.855571118
19.5150,-8.901130219
19.5200,-8.94800372
19.5250,-8.995956394
19.5300,-9.045128611
19.5350,-9.095285442
19.5400,-9.146584701
19.5450,-9.198653449
19.5500,-9.251689855
19.5550,-9.305500311
19.5600,-9.3600779
19.5650,-9.415399196
19.5700,-9.471539277
19.5750,-9.528564867
19.5800,-9.586525206
19.5850,-9.645365788
19.5900,-9.705339773
19.5950,-9.766267186
19.6000,-9.828254166
19.6050,-9.891153675
19.6100,-9.955035357
19.6150,-10.01992036
19.6200,-10.08583119
19.6250,-10.15303613
19.6300,-10.22141761
19.6350,-10.29097436
19.6400,-10.36159651
19.6450,-10.43303716
19.6500,-10.5051852
19.6550,-10.57807474
19.6600,-10.65135474
19.6650,-10.72478803
19.6700,-10.7983918
19.6750,-10.8719439
19.6800,-10.94529733
19.6850,-11.01831945
19.6900,-11.09088092
19.6950,-11.16317441
19.7000,-11.2350757
19.7050,-11.30659893
19.7100,-11.37773421
19.7150,-11.44835821
19.7200,-11.51853099
19.7250,-11.58817743
19.7300,-11.65731989
19.7350,-11.72583054
19.7400,-11.79394172
19.7450,-11.8617582
19.7500,-11.92934096
19.7550,-11.9968728
19.7600,-12.06425801
19.7650,-12.13146771
19.7700,-12.19841047
19.7750,-12.2647344
19.7800,-12.33037854
19.7850,-12.39522582
19.7900,-12.45943966
19.7950,-12.5229158
19.8000,-12.58557879
19.8050,-12.64752172
19.8100,-12.70886765
19.8150,-12.7696694
19.8200,-12.82980989
19.8250,-12.88948974
19.8300,-12.94865804
19.8350,-13.00748659
19.8400,-13.06593374
19.8450,-13.12425088
19.8500,-13.18235935
19.8550,-13.24035196
19.8600,-13.29827924
19.8650,-13.35616578
19.8700,-13.4139596
19.8750,-13.47160298
19.8800,-13.52906379
19.8850,-13.58646453
19.8900,-13.64339853
19.8950,-13.70010462
19.9000,-13.75645089
19.9050,-13.81255298
19.9100,-13.86834672
19.9150,-13.92356871
19.9200,-13.97789852
19.9250,-14.03102134
19.9300,-14.08296673
19.9350,-14.13352378
19.9400,-14.18232063
19.9450,-14.22960038
19.9500,-14.27507741
19.9550,-14.31859023
19.9600,-14.36030627
19.9650,-14.40038684
19.9700,-14.43896562
19.9750,-14.47616737
19.9800,-14.51226671
19.9850,-14.54734474
19.9900,-14.58146984
19.9950,-14.61449902
20.0000,-14.64627125
20.0050,-14.6766747
20.0100,-14.70575573
20.0150,-14.73349502
20.0200,-14.7600768
20.0250,-14.78570004
20.0300,-14.81071434
20.0350,-14.83532878
20.0400,-14.85962313
20.0450,-14.88377863
20.0500,-14.90806043
20.0550,-14.93197614
20.0600,-14.95553828
20.0650,-14.978616
20.0700,-15.00105154
20.0750,-15.02280561
20.0800,-15.04358736
20.0850,-15.06326228
20.0900,-15.08152022
20.0950,-15.09841596
20.1000,-15.11396713
20.1050,-15.12807695
20.1100,-15.14044223
20.1150,-15.1510061
20.1200,-15.15975984
20.1250,-15.16666165
20.1300,-15.17218622
20.1350,-15.17619162
20.1400,-15.17858531
20.1450,-15.17939164
20.1500,-15.17838725
20.1550,-15.17573915
20.1600,-15.17142864
20.1650,-15.16535485
20.1700,-15.15720751
20.1750,-15.14677078
20.1800,-15.13379182
20.1850,-15.11785518
20.1900,-15.09891278
20.1950,-15.07693059
20.2000,-15.05233728
20.2050,-15.02527033
20.2100,-14.99605666
20.2150,-14.96532245
20.2200,-14.93336469
20.2250,-14.90088819
20.2300,-14.86840446
20.2350,-14.8364949
20.2400,-14.80610068
20.2450,-14.77757226
20.2500,-14.75155862
20.2550,-14.7286129
20.2600,-14.70915471
20.2650,-14.69345233
20.2700,-14.68142689
20.2750,-14.6732642
20.2800,-14.66889181
20.2850,-14.66833393
20.2900,-14.67139964
20.2950,-14.67790129
20.3000,-14.68778833
20.3050,-14.70077142
20.3100,-14.71617097
20.3150,-14.73379436
20.3200,-14.75274326
20.3250,-14.77283343
20.3300,-14.79363541
20.3350,-14.81526168
20.3400,-14.83778827
20.3450,-14.86108749
20.3500,-14.88489455
20.3550,-14.90947716
20.3600,-14.93464572
20.3650,-14.96033977
20.3700,-14.98624937
20.3750,-15.01216439
20.3800,-15.03791281
20.3850,-15.06303225
20.3900,-15.08732986
20.3950,-15.11025194
20.4000,-15.13147418
20.4050,-15.15065382
20.4100,-15.16763546
20.4150,-15.18213075
20.4200,-15.19409491
20.4250,-15.20338955
20.4300,-15.20929602
20.4350,-15.21159484
20.4400,-15.20999795
20.4450,-15.20433171
20.4500,-15.19468977
20.4550,-15.18101239
20.4600,-15.16349895
20.4650,-15.14234127
20.4700,-15.11795328
20.4750,-15.09096133
20.4800,-15.06158934
20.4850,-15.03031632
20.4900,-14.99746036
20.4950,-14.96315135
20.5000,-14.9272035
20.5050,-14.88980763
20.5100,-14.85118131
20.5150,-14.81137228
20.5200,-14.77120497
20.5250,-14.73115956
20.5300,-14.69183307
20.5350,-14.65401944
20.5400,-14.618022
20.5450,-14.58443626
20.5500,-14.55372207
20.5550,-14.52634328
20.5600,-14.50278707
20.5650,-14.48314689
20.5700,-14.46777399
20.5750,-14.45645682
20.5800,-14.44892512
20.5850,-14.4446085
20.5900,-14.44315808
20.5950,-14.44366923
20.6000,-14.44570387
20.6050,-14.44863253
20.6100,-14.45218674
20.6150,-14.45575271
20.6200,-14.45932064
20.6250,-14.46217964
20.6300,-14.46396788
20.6350,-14.46427845
20.6400,-14.46296119
20.6450,-14.45965129
20.6500,-14.45428174
20.6550,-14.44690288
20.6600,-14.43783444
20.6650,-14.42724491
20.6700,-14.41537937
20.6750,-14.40220573
20.6800,-14.38789037
20.6850,-14.37249355
20.6900,-14.35600008
20.6950,-14.33842266
20.7000,-14.31987899
20.7050,-14.30023952
20.7100,-14.27927879
20.7150,-14.25687296
20.7200,-14.2327554
20.7250,-14.20656067
20.7300,-14.17806325
20.7350,-14.1472143
20.7400,-14.11417218
20.7450,-14.07878985
20.7500,-14.04123611
20.7550,-14.00158599
20.7600,-13.960023
20.7650,-13.9167269
20.7700,-13.87166521
20.7750,-13.82472698
20.7800,-13.776348
20.7850,-13.72690944
20.7900,-13.67654107
20.7950,-13.6255439
20.8000,-13.57408259
20.8050,-13.52228338
20.8100,-13.46994774
20.8150,-13.41695669
20.8200,-13.36272663
20.8250,-13.3073007
20.8300,-13.25043012
20.8350,-13.19232979
20.8400,-13.13305415
20.8450,-13.07301207
20.8500,-13.01234773
20.8550,-12.95149142
20.8600,-12.89055937
20.8650,-12.83000172
20.8700,-12.76984054
20.8750,-12.71034908
20.8800,-12.6517655
20.8850,-12.59404104
20.8900,-12.5371202
20.8950,-12.48144853
20.9000,-12.42659992
20.9050,-12.37239626
20.9100,-12.31857432
20.9150,-12.26474291
20.9200,-12.21042048
20.9250,-12.15558454
20.9300,-12.09989978
20.9350,-12.04287936
20.9400,-11.98428736
20.9450,-11.92419741
20.9500,-11.862607
20.9550,-11.79930781
20.9600,-11.73428345
20.9650,-11.66768552
20.9700,-11.59987755
20.9750,-11.53137388
20.9800,-11.46250631
20.9850,-11.39354087
20.9900,-11.32453898
20.9950,-11.25558947
21.0000,-11.18658829
21.0050,-11.11752442
21.0100,-11.04843126
21.0150,-10.9793864
21.0200,-10.91023015
21.0250,-10.8410394
21.0300,-10.77182635
21.0350,-10.70230206
21.0400,-10.63227033
21.0450,-10.56194677
21.0500,-10.49127215
21.0550,-10.42016559
21.0600,-10.34849825
21.0650,-10.27611164
21.0700,-10.20338603
21.0750,-10.13051086
21.0800,-10.05739802
21.0850,-9.98408038
21.0900,-9.910708652
21.0950,-9.837250673
21.1000,-9.763851174
21.1050,-9.69039264
21.1100,-9.616959202
21.1150,-9.5439303
21.1200,-9.471467005
21.1250,-9.399332703
21.1300,-9.327227685
21.1350,-9.254636983
21.1400,-9.181336419
21.1450,-9.107301328
21.1500,-9.03243688
21.1550,-8.956589442
21.1600,-8.879389913
21.1650,-8.800904044
21.1700,-8.721174927
21.1750,-8.640371386
21.1800,-8.558151483
21.1850,-8.474955157
21.1900,-8.39082314
21.1950,-8.30567784
21.2000,-8.219896133
21.2050,-8.133440664
21.2100,-8.046527971
21.2150,-7.959431276
21.2200,-7.872099446
21.2250,-7.784388199
21.2300,-7.696441153
21.2350,-7.608109284
21.2400,-7.519176052
21.2450,-7.429289811
21.2500,-7.338343056
21.2550,-7.246470165
21.2600,-7.153429036
21.2650,-7.059327903
21.2700,-6.963880276
21.2750,-6.866880099
21.2800,-6.768213047
21.2850,-6.6678863
21.2900,-6.56615503
21.2950,-6.463173326
21.3000,-6.359009936
21.3050,-6.253945369
21.3100,-6.147983984
21.3150,-6.04133998
21.3200,-5.934309746
21.3250,-5.826792836
21.3300,-5.719268343
21.3350,-5.612262886
21.3400,-5.505780928
21.3450,-5.399882837
21.3500,-5.294654879
21.3550,-5.190106868
21.3600,-5.086369017
21.3650,-4.983665182
21.3700,-4.882071267
21.3750,-4.781765682
21.3800,-4.683100663
21.3850,-4.586112393
21.3900,-4.491151132
21.3950,-4.398116654
21.4000,-4.307080111
21.4050,-4.217953271
21.4100,-4.130974002
21.4150,-4.045907683
21.4200,-3.962672565
21.4250,-3.88112972
21.4300,-3.801806529
21.4350,-3.724663502
21.4400,-3.649707505
21.4450,-3.576287355
21.4500,-3.504615267
21.4550,-3.434559867
21.4600,-3.366111896
21.4650,-3.299175073
21.4700,-3.233709125
21.4750,-3.169561016
21.4800,-3.107048034
21.4850,-3.04599884
21.4900,-2.986193642
21.4950,-2.927686879
21.5000,-2.870370041
21.5050,-2.814477103
21.5100,-2.759841627
21.5150,-2.706638869
21.5200,-2.654833167
21.5250,-2.60453248
21.5300,-2.555621185
21.5350,-2.508267311
21.5400,-2.462307342
21.5450,-2.418102526
21.5500,-2.375590478
21.5550,-2.334520569
21.5600,-2.29525194
21.5650,-2.257432953
21.5700,-2.221309589
21.5750,-2.187105238
21.5800,-2.154773153
21.5850,-2.124349913
21.5900,-2.095872457
21.5950,-2.069418467
21.6000,-2.045104477
21.6050,-2.022776909
21.6100,-2.002828204
21.6150,-1.985108694
21.6200,-1.969462636
21.6250,-1.955781667
21.6300,-1.94400754
21.6350,-1.933890498
21.6400,-1.92531761
21.6450,-1.918144295
21.6500,-1.912265539
21.6550,-1.907696182
21.6600,-1.904310622
21.6650,-1.901800912
21.6700,-1.900102829
21.6750,-1.898754326
21.6800,-1.89744672
21.6850,-1.896023131
21.6900,-1.894097606
21.6950,-1.891515291
21.7000,-1.888042269
21.7050,-1.883776003
21.7100,-1.878333919
21.7150,-1.871718414
21.7200,-1.864282354
21.7250,-1.856012409
21.7300,-1.84668612
21.7350,-1.836302005
21.7400,-1.825181031
21.7450,-1.813603378
21.7500,-1.801349956
21.7550,-1.788403805
21.7600,-1.774921044
21.7650,-1.760763134
21.7700,-1.745864593
21.7750,-1.730311555
21.7800,-1.714069992
21.7850,-1.697387227
21.7900,-1.680373334
21.7950,-1.663284363
21.8000,-1.646368813
21.8050,-1.629289321
21.8100,-1.612242334
21.8150,-1.595052327
21.8200,-1.577682648
21.8250,-1.560054841
21.8300,-1.542264883
21.8350,-1.52434218
21.8400,-1.506501359
21.8450,-1.48867219
21.8500,-1.471141787
21.8550,-1.454115167
21.8600,-1.437607514
21.8650,-1.421896285
21.8700,-1.406789948
21.8750,-1.392086809
21.8800,-1.378080143
21.8850,-1.364557818
21.8900,-1.351653886
21.8950,-1.339320657
21.9000,-1.327576259
21.9050,-1.316623998
21.9100,-1.306262346
21.9150,-1.29656011
21.9200,-1.287585247
21.9250,-1.279353152
21.9300,-1.271833542
21.9350,-1.265079366
21.9400,-1.259252175
21.9450,-1.254321553
21.9500,-1.250315725
21.9550,-1.246940697
21.9600,-1.244062683
21.9650,-1.241818534
21.9700,-1.239898506
21.9750,-1.238575729
21.9800,-1.237789714
21.9850,-1.237612839
21.9900,-1.237902907
21.9950,-1.238894975
22.0000,-1.240608174
22.0050,-1.242998829
22.0100,-1.246117671
22.0150,-1.249689286
22.0200,-1.253613035
22.0250,-1.257739861
22.0300,-1.262101836
22.0350,-1.266729258
22.0400,-1.271567727
22.0450,-1.276579889
22.0500,-1.281899727
22.0550,-1.287622724
22.0600,-1.293734414
22.0650,-1.300349564
22.0700,-1.307868217
22.0750,-1.316064487
22.0800,-1.325267094
22.0850,-1.335168807
22.0900,-1.346216593
22.0950,-1.358103836
22.1000,-1.370728389
22.1050,-1.38441645
22.1100,-1.399166425
22.1150,-1.414915268
22.1200,-1.432157218
22.1250,-1.450846243
22.1300,-1.470996448
22.1350,-1.492572946
22.1400,-1.515516237
22.1450,-1.539925975
22.1500,-1.565638962
22.1550,-1.59262808
22.1600,-1.620651148
22.1650,-1.649595692
22.1700,-1.679522683
22.1750,-1.710688489
22.1800,-1.742699855
22.1850,-1.775781062
22.1900,-1.809741672
22.1950,-1.84450267
22.2000,-1.879861313
22.2050,-1.915567793
22.2100,-1.951721922
22.2150,-1.988159369
22.2200,-2.024659794
22.2250,-2.061575516
22.2300,-2.098607365
22.2350,-2.135616455
22.2400,-2.172747767
22.2450,-2.209725754
22.2500,-2.246607178
22.2550,-2.283526408
22.2600,-2.320546957
22.2650,-2.357638303
22.2700,-2.395125075
22.2750,-2.432787939
22.2800,-2.470464903
22.2850,-2.508062328
22.2900,-2.54576557
22.2950,-2.583391686
22.3000,-2.621003661
22.3050,-2.658702797
22.3100,-2.696527737
22.3150,-2.734614237
22.3200,-2.772902891
22.3250,-2.811575117
22.3300,-2.850421989
22.3350,-2.889647615
22.3400,-2.929211372
22.3450,-2.969111761
22.3500,-3.009427465
22.3550,-3.050176767
22.3600,-3.091596419
22.3650,-3.133869509
22.3700,-3.176789101
22.3750,-3.220997187
22.3800,-3.266336584
22.3850,-3.3131503
22.3900,-3.361388126
22.3950,-3.411089475
22.4000,-3.462189185
22.4050,-3.514621832
22.4100,-3.568241503
22.4150,-3.622949132
22.4200,-3.678559812
22.4250,-3.734857968
22.4300,-3.791829548
22.4350,-3.849439027
22.4400,-3.907490565
22.4450,-3.966020411
22.4500,-4.024871979
22.4550,-4.084315246
22.4600,-4.144241931
22.4650,-4.204735059
22.4700,-4.265996748
22.4750,-4.327662936
22.4800,-4.38987236
22.4850,-4.452527131
22.4900,-4.515570008
22.4950,-4.579123212
22.5000,-4.643130955
22.5050,-4.707858115
22.5100,-4.773023609
22.5150,-4.83855936
22.5200,-4.904772527
22.5250,-4.971298857
22.5300,-5.038190634
22.5350,-5.105382697
22.5400,-5.172671543
22.5450,-5.240050831
22.5500,-5.30723235
22.5550,-5.374213487
22.5600,-5.440861591
22.5650,-5.506899464
22.5700,-5.572098896
22.5750,-5.636448477
22.5800,-5.700137773
22.5850,-5.763234287
22.5900,-5.825833388
22.5950,-5.88824545
22.6000,-5.950409339
22.6050,-6.012805216
22.6100,-6.07530767
22.6150,-6.138266714
22.6200,-6.201520287
22.6250,-6.26520186
22.6300,-6.329272719
22.6350,-6.393553404
22.6400,-6.458010601
22.6450,-6.522584492
22.6500,-6.587281277
22.6550,-6.652073224
22.6600,-6.716979641
22.6650,-6.782038617
22.6700,-6.847598042
22.6750,-6.913363431
22.6800,-6.979781786
22.6850,-7.046776057
22.6900,-7.114453119
22.6950,-7.183003605
22.7000,-7.252430143
22.7050,-7.322982891
22.7100,-7.394745695
22.7150,-7.467805952
22.7200,-7.542239213
22.7250,-7.618143286
22.7300,-7.695579822
22.7350,-7.774464504
22.7400,-7.85526034
22.7450,-7.937689199
22.7500,-8.021679281
22.7550,-8.106851338
22.7600,-8.192998678
22.7650,-8.279797806
22.7700,-8.366816044
22.7750,-8.453798843
22.7800,-8.540319838
22.7850,-8.626371348
22.7900,-8.711762498
22.7950,-8.796411502
22.8000,-8.880394245
22.8050,-8.963742743
22.8100,-9.046515745
22.8150,-9.12911644
22.8200,-9.211314773
22.8250,-9.293389718
22.8300,-9.375282702
22.8350,-9.4570565
22.8400,-9.538457752
22.8450,-9.619426978
22.8500,-9.699871323
22.8550,-9.779621752
22.8600,-9.858522018
22.8650,-9.936682499
22.8700,-10.01414209
22.8750,-10.09114723
22.8800,-10.16772118
22.8850,-10.24379343
22.8900,-10.31933022
22.8950,-10.3943362
22.9000,-10.46900462
22.9050,-10.54283504
22.9100,-10.61608161
22.9150,-10.68836515
22.9200,-10.75973959
22.9250,-10.83007242
22.9300,-10.89934753
22.9350,-10.9677583
22.9400,-11.03543762
22.9450,-11.10263695
22.9500,-11.16945423
22.9550,-11.23632557
22.9600,-11.30334714
22.9650,-11.37062569
22.9700,-11.43813464
22.9750,-11.50595861
22.9800,-11.57380485
22.9850,-11.64168827
22.9900,-11.70945223
22.9950,-11.77710321
23.0000,-11.84462371
23.0050,-11.91221001
23.0100,-11.9797742
23.0150,-12.04772793
23.0200,-12.11623
23.0250,-12.18545166
23.0300,-12.25557768
23.0350,-12.32662639
23.0400,-12.39826949
23.0450,-12.47050373
23.0500,-12.54327715
23.0550,-12.61631621
23.0600,-12.68966975
23.0650,-12.763045
23.0700,-12.83624186
23.0750,-12.90893607
23.0800,-12.98118934
23.0850,-13.05268285
23.0900,-13.12329659
23.0950,-13.19282708
23.1000,-13.26104158
23.1050,-13.32770748
23.1100,-13.39279987
23.1150,-13.45580397
23.1200,-13.5166447
23.1250,-13.57489665
23.1300,-13.63073808
23.1350,-13.68397017
23.1400,-13.73477136
23.1450,-13.78321385
23.1500,-13.82945027
23.1550,-13.87351936
23.1600,-13.91583862
23.1650,-13.95673641
23.1700,-13.99657056
23.1750,-14.03557792
23.1800,-14.07396434
23.1850,-14.11195841
23.1900,-14.14956118
23.1950,-14.18671263
23.2000,-14.22324473
23.2050,-14.25908752
23.2100,-14.29405415
23.2150,-14.32824513
23.2200,-14.36186054
23.2250,-14.39488984
23.2300,-14.42761496
23.2350,-14.46007589
23.2400,-14.4922712
23.2450,-14.52438016
23.2500,-14.55642738
23.2550,-14.58810904
23.2600,-14.61932943
23.2650,-14.64996671
23.2700,-14.6798729
23.2750,-14.70931353
23.2800,-14.73820465
23.2850,-14.76655507
23.2900,-14.79441746
23.2950,-14.82180474
23.3000,-14.84892382
23.3050,-14.87539533
23.3100,-14.90136348
23.3150,-14.92631513
23.3200,-14.95015192
23.3250,-14.97259421
23.3300,-14.99328592
23.3350,-15.01188714
23.3400,-15.02836538
23.3450,-15.04246226
23.3500,-15.05418271
23.3550,-15.06359447
23.3600,-15.07058426
23.3650,-15.07513333
23.3700,-15.07734637
23.3750,-15.07729475
23.3800,-15.07503857
23.3850,-15.07080475
23.3900,-15.06499757
23.3950,-15.05814003
23.4000,-15.05071342
23.4050,-15.04322387
23.4100,-15.03609313
23.4150,-15.02986144
23.4200,-15.02499406
23.4250,-15.02205918
23.4300,-15.02118967
23.4350,-15.02262353
23.4400,-15.02643438
23.4450,-15.03281364
23.4500,-15.04142011
23.4550,-15.05214061
23.4600,-15.06421697
23.4650,-15.07730696
23.4700,-15.09082249
23.4750,-15.10407432
23.4800,-15.11692893
23.4850,-15.12903995
23.4900,-15.14045879
23.4950,-15.15116583
23.5000,-15.16128312
23.5050,-15.17103492
23.5100,-15.18085715
23.5150,-15.1910754
23.5200,-15.20208841
23.5250,-15.21454622
23.5300,-15.22847336
23.5350,-15.24404765
23.5400,-15.2614403
23.5450,-15.28038899
23.5500,-15.30080959
23.5550,-15.3224062
23.5600,-15.34486119
23.5650,-15.36767743
23.5700,-15.39037655
23.5750,-15.41227831
23.5800,-15.43301325
23.5850,-15.45211875
23.5900,-15.46892804
23.5950,-15.48300902
23.6000,-15.49383815
23.6050,-15.501157
23.6100,-15.50471748
23.6150,-15.50444754
23.6200,-15.5002511
23.6250,-15.49216703
23.6300,-15.48032174
23.6350,-15.46503895
23.6400,-15.4464811
23.6450,-15.42489069
23.6500,-15.40053291
23.6550,-15.37370841
23.6600,-15.34491922
23.6650,-15.3146726
23.6700,-15.283336
23.6750,-15.25146738
23.6800,-15.21942787
23.6850,-15.18726582
23.6900,-15.15517966
23.6950,-15.12298942
23.7000,-15.0905629
23.7050,-15.05773735
23.7100,-15.0241548
23.7150,-14.98992977
23.7200,-14.95481966
23.7250,-14.91870802
23.7300,-14.88177963
23.7350,-14.84409341
23.7400,-14.80576158
23.7450,-14.76663482
23.7500,-14.72716113
23.7550,-14.68734988
23.7600,-14.6476965
23.7650,-14.60834526
23.7700,-14.56949556
23.7750,-14.53128103
23.7800,-14.49360015
23.7850,-14.4564157
23.7900,-14.41944526
23.7950,-14.38237097
23.8000,-14.34507927
23.8050,-14.30724742
23.8100,-14.26848339
23.8150,-14.22844473
23.8200,-14.18672694
23.8250,-14.14282195
23.8300,-14.09680784
23.8350,-14.0487675
23.8400,-13.99873061
23.8450,-13.9468738
23.8500,-13.8934635
23.8550,-13.8388145
23.8600,-13.78322283
23.8650,-13.72716194
23.8700,-13.67083856
23.8750,-13.6143059
23.8800,-13.55758809
23.8850,-13.50067837
23.8900,-13.44382502
23.8950,-13.38699735
23.9000,-13.33042169
23.9050,-13.2739173
23.9100,-13.21755561
23.9150,-13.1610546
23.9200,-13.10427248
23.9250,-13.04706091
23.9300,-12.98921016
23.9350,-12.93028117
23.9400,-12.87011294
23.9450,-12.80845435
23.9500,-12.74504239
23.9550,-12.67974024
23.9600,-12.6123675
23.9650,-12.54284222
23.9700,-12.47122826
23.9750,-12.39743835
23.9800,-12.32157104
23.9850,-12.24377861
23.9900,-12.16418514
23.9950,-12.08286177
24.0000,-12.00014025
24.0050,-11.91599141
24.0100,-11.83087436
24.0150,-11.74463379
24.0200,-11.65726987
24.0250,-11.56879799
24.0300,-11.47896607
24.0350,-11.38774663
24.0400,-11.29490818
24.0450,-11.20064312
24.0500,-11.10475182
24.0550,-11.00732869
24.0600,-10.90814229
24.0650,-10.80691265
24.0700,-10.70336801
24.0750,-10.59749729
24.0800,-10.48914104
24.0850,-10.37824759
24.0900,-10.26473775
24.0950,-10.1489253
24.1000,-10.03074833
24.1050,-9.910560981
24.1100,-9.788661429
24.1150,-9.665271832
24.1200,-9.540497639
24.1250,-9.414851268
24.1300,-9.288527944
24.1350,-9.161463839
24.1400,-9.033961403
24.1450,-8.906022642
24.1500,-8.77755693
24.1550,-8.648837371
24.1600,-8.519861549
24.1650,-8.390586049
24.1700,-8.261129062
24.1750,-8.131738146
24.1800,-8.002473115
24.1850,-7.87373191
24.1900,-7.745654702
24.1950,-7.618633996
24.2000,-7.492546059
24.2050,-7.367654521
24.2100,-7.243964959
24.2150,-7.121893177
24.2200,-7.001608317
24.2250,-6.883225506
24.2300,-6.766625764
24.2350,-6.652334646
24.2400,-6.540035641
24.2450,-6.430119473
24.2500,-6.322557491
24.2550,-6.217369208
24.2600,-6.114540285
24.2650,-6.014069943
24.2700,-5.915645498
24.2750,-5.819373812
24.2800,-5.72513041
24.2850,-5.632944575
24.2900,-5.542587734
24.2950,-5.454052805
24.3000,-5.367227908
24.3050,-5.282493088
24.3100,-5.199818951
24.3150,-5.119308895
24.3200,-5.041436582
24.3250,-4.966334311
24.3300,-4.893926669
24.3350,-4.824308602
24.3400,-4.757680488
24.3450,-4.693807642
24.3500,-4.632574698
24.3550,-4.573987844
24.3600,-4.517907685
24.3650,-4.464285424
24.3700,-4.413211068
24.3750,-4.364722984
24.3800,-4.318769106
24.3850,-4.275483177
24.3900,-4.235059786
24.3950,-4.197572994
24.4000,-4.163154586
24.4050,-4.131678943
24.4100,-4.103225385
24.4150,-4.077901324
24.4200,-4.05583884
24.4250,-4.036886654
24.4300,-4.021012729
24.4350,-4.008217797
24.4400,-3.998306696
24.4450,-3.991084482
24.4500,-3.986398142
24.4550,-3.983977101
24.4600,-3.983394953
24.4650,-3.984281584
24.4700,-3.986260761
24.4750,-3.988921295
24.4800,-3.99197053
24.4850,-3.994794517
24.4900,-3.997007266
24.4950,-3.998140528
24.5000,-3.997986325
24.5050,-3.996457688
24.5100,-3.993443452
24.5150,-3.988831129
24.5200,-3.982640843
24.5250,-3.975065839
24.5300,-3.966479454
24.5350,-3.956971941
24.5400,-3.947056177
24.5450,-3.936534459
24.5500,-3.925815878
24.5550,-3.915020208
24.5600,-3.904113563
24.5650,-3.893133174
24.5700,-3.882245233
24.5750,-3.87141153
24.5800,-3.860510068
24.5850,-3.849559596
24.5900,-3.838478574
24.5950,-3.827221794
24.6000,-3.815712456
24.6050,-3.803413342
24.6100,-3.790130351
24.6150,-3.775716911
24.6200,-3.759679762
24.6250,-3.74204049
24.6300,-3.722818699
24.6350,-3.702089939
24.6400,-3.679884919
24.6450,-3.656188232
24.6500,-3.631167374
24.6550,-3.604544422
24.6600,-3.576455204
24.6650,-3.546828613
24.6700,-3.515500172
24.6750,-3.48222155
24.6800,-3.447081096
24.6850,-3.409971648
24.6900,-3.370906161
24.6950,-3.329927542
24.7000,-3.287201154
24.7050,-3.242815443
24.7100,-3.196819949
24.7150,-3.149274514
24.7200,-3.100424752
24.7250,-3.050420734
24.7300,-2.999346931
24.7350,-2.947523074
24.7400,-2.895121605
24.7450,-2.842656156
24.7500,-2.790461006
24.7550,-2.739089475
24.7600,-2.689446749
24.7650,-2.642042179
24.7700,-2.597528926
24.7750,-2.556021481
24.7800,-2.517739433
24.7850,-2.48277918
24.7900,-2.451331214
24.7950,-2.42328316
24.8000,-2.398644786
24.8050,-2.377302279
24.8100,-2.359153889
24.8150,-2.344203743
24.8200,-2.33236825
24.8250,-2.323562409
24.8300,-2.317817752
24.8350,-2.314997426
24.8400,-2.315166096
24.8450,-2.318625246
24.8500,-2.325228013
24.8550,-2.335061943
24.8600,-2.348370124
24.8650,-2.365213453
24.8700,-2.385791481
24.8750,-2.410206828
24.8800,-2.43872239
24.8850,-2.471331314
24.8900,-2.508194661
24.8950,-2.549418014
24.9000,-2.595056904
24.9050,-2.645307059
24.9100,-2.700139681
24.9150,-2.759550842
24.9200,-2.823473526
24.9250,-2.89150706
24.9300,-2.963438206
24.9350,-3.03881235
24.9400,-3.117098399
24.9450,-3.197924207
24.9500,-3.280663889
24.9550,-3.364957597
24.9600,-3.450502801
24.9650,-3.536910693
24.9700,-3.6242383
24.9750,-3.712321442
24.9800,-3.801032665
24.9850,-3.890227474
24.9900,-3.979636607
24.9950,-4.069018438
25.0000,-4.157938873
25.0050,-4.24640856
25.0100,-4.334354363
25.0150,-4.421702507
25.0200,-4.508377912
25.0250,-4.594408263
25.0300,-4.680121481
25.0350,-4.765595358
25.0400,-4.850999597
25.0450,-4.936525754
25.0500,-5.022249995
25.0550,-5.108118019
25.0600,-5.193741315
25.0650,-5.279401716
25.0700,-5.364818398
25.0750,-5.450096008
25.0800,-5.535561833
25.0850,-5.621417918
25.0900,-5.707907992
25.0950,-5.795184506
25.1000,-5.883589635
25.1050,-5.973290903
25.1100,-6.064435177
25.1150,-6.157383766
25.1200,-6.252371589
25.1250,-6.349662361
25.1300,-6.449415581
25.1350,-6.551955403
25.1400,-6.65741857
25.1450,-6.765976431
25.1500,-6.877960587
25.1550,-6.993634111
25.1600,-7.113108579
25.1650,-7.236398903
25.1700,-7.363583161
25.1750,-7.494832892
25.1800,-7.63007927
25.1850,-7.769540402
25.1900,-7.913247829
25.1950,-7.972473664
25.2000,-8.036505479
25.2050,-8.105075626
25.2100,-8.17782375
25.2150,-8.254313191
25.2200,-8.334045316
25.2250,-8.416470985
25.2300,-8.50099906
25.2350,-8.587003824
25.2400,-8.67383264
25.2450,-8.760813521
25.2500,-8.847261925
25.2550,-8.932486466
25.2600,-9.015793514
25.2650,-9.096491511
25.2700,-9.173897038
25.2750,-9.247343826
25.2800,-9.316194536
25.2850,-9.379854979
25.2900,-9.437790888
25.2950,-9.489547573
25.3000,-9.534772861
25.3050,-9.573243269
25.3100,-9.604891828
25.3150,-9.629834366
25.3200,-9.648391947
25.3250,-9.661109575
25.3300,-9.668771983
25.3350,-9.672417689
