type,name,time_units,begin_time,frequency,count,units
signal,"Noraxon MyoMotion-Segments-Forearm RT-Pitch","s",0.0000,200,5068,"deg"

time,value
0.0000,11.01146766
0.0050,11.00755233
0.0100,11.00363672
0.0150,10.99972083
0.0200,10.99539759
0.0250,10.99067421
0.0300,10.98556458
0.0350,10.98008921
0.0400,10.97427456
0.0450,10.96815274
0.0500,10.96176168
0.0550,10.95514515
0.0600,10.94835201
0.0650,10.94143516
0.0700,10.93445033
0.0750,10.92745507
0.0800,10.92050779
0.0850,10.91366645
0.0900,10.90698651
0.0950,10.90051886
0.1000,10.8943084
0.1050,10.88839325
0.1100,10.88280444
0.1150,10.87756635
0.1200,10.87269751
0.1250,10.86821116
0.1300,10.86411607
0.1350,10.86041744
0.1400,10.85711707
0.1450,10.8542125
0.1500,10.85169584
0.1550,10.84636591
0.1600,10.84161467
0.1650,10.83748479
0.1700,10.83387715
0.1750,10.83058517
0.1800,10.82766177
0.1850,10.82515076
0.1900,10.82293303
0.1950,10.82094845
0.2000,10.81925359
0.2050,10.81792264
0.2100,10.81693116
0.2150,10.81623542
0.2200,10.81582349
0.2250,10.8157088
0.2300,10.81591239
0.2350,10.81644769
0.2400,10.81730019
0.2450,10.81843968
0.2500,10.81985147
0.2550,10.82150844
0.2600,10.82331202
0.2650,10.82531989
0.2700,10.82754156
0.2750,10.83001087
0.2800,10.83267343
0.2850,10.83553212
0.2900,10.83856855
0.2950,10.84173138
0.3000,10.84517283
0.3050,10.84859117
0.3100,10.85217276
0.3150,10.85574974
0.3200,10.85899359
0.3250,10.86203659
0.3300,10.86493369
0.3350,10.86734584
0.3400,10.86935105
0.3450,10.87111933
0.3500,10.87241991
0.3550,10.87335179
0.3600,10.87365422
0.3650,10.87360826
0.3700,10.8729541
0.3750,10.87172902
0.3800,10.86996312
0.3850,10.86761185
0.3900,10.86456131
0.3950,10.86098377
0.4000,10.85696091
0.4050,10.85255171
0.4100,10.84773805
0.4150,10.84268192
0.4200,10.83742122
0.4250,10.83206479
0.4300,10.82649159
0.4350,10.82074787
0.4400,10.81501315
0.4450,10.80913023
0.4500,10.80336603
0.4550,10.79757807
0.4600,10.79171731
0.4650,10.78582467
0.4700,10.77996777
0.4750,10.77412943
0.4800,10.76836941
0.4850,10.76259375
0.4900,10.75681268
0.4950,10.75099397
0.5000,10.74508551
0.5050,10.73894362
0.5100,10.73266274
0.5150,10.72629054
0.5200,10.71971087
0.5250,10.71289525
0.5300,10.7058238
0.5350,10.69855529
0.5400,10.691211
0.5450,10.68360841
0.5500,10.67578313
0.5550,10.66775696
0.5600,10.65968327
0.5650,10.65151043
0.5700,10.643131
0.5750,10.6345976
0.5800,10.62587928
0.5850,10.61704143
0.5900,10.6081312
0.5950,10.59911826
0.6000,10.58993591
0.6050,10.58074818
0.6100,10.57125118
0.6150,10.56173841
0.6200,10.55232949
0.6250,10.54284561
0.6300,10.53317519
0.6350,10.52360954
0.6400,10.51420476
0.6450,10.50470169
0.6500,10.49532278
0.6550,10.48603601
0.6600,10.47685516
0.6650,10.4677952
0.6700,10.45893332
0.6750,10.45030415
0.6800,10.44172783
0.6850,10.4335903
0.6900,10.42562287
0.6950,10.41771717
0.7000,10.41018005
0.7050,10.40288328
0.7100,10.39585455
0.7150,10.38911242
0.7200,10.38259141
0.7250,10.37633166
0.7300,10.37042464
0.7350,10.36487627
0.7400,10.35961819
0.7450,10.35458519
0.7500,10.3498335
0.7550,10.34524604
0.7600,10.34098917
0.7650,10.33705014
0.7700,10.33313106
0.7750,10.32954901
0.7800,10.32606864
0.7850,10.32285117
0.7900,10.31982756
0.7950,10.31690545
0.8000,10.3140914
0.8050,10.31151514
0.8100,10.30911253
0.8150,10.30678638
0.8200,10.30459129
0.8250,10.30254191
0.8300,10.30064697
0.8350,10.29887979
0.8400,10.29723663
0.8450,10.29587976
0.8500,10.29472145
0.8550,10.29379561
0.8600,10.29286479
0.8650,10.29210824
0.8700,10.29154229
0.8750,10.29105298
0.8800,10.29073463
0.8850,10.29052268
0.8900,10.2904504
0.8950,10.29054623
0.9000,10.29063183
0.9050,10.29073666
0.9100,10.29111609
0.9150,10.29149236
0.9200,10.29184659
0.9250,10.29232297
0.9300,10.29280953
0.9350,10.29330841
0.9400,10.29372423
0.9450,10.29422256
0.9500,10.29481275
0.9550,10.29539291
0.9600,10.29608392
0.9650,10.29677709
0.9700,10.29742293
0.9750,10.29819053
0.9800,10.29908258
0.9850,10.29995409
0.9900,10.30103218
0.9950,10.30238887
1.0000,10.30384306
1.0050,10.30539928
1.0100,10.30713645
1.0150,10.30896483
1.0200,10.31107721
1.0250,10.31330473
1.0300,10.31570087
1.0350,10.31827639
1.0400,10.3210384
1.0450,10.324062
1.0500,10.32725326
1.0550,10.33076393
1.0600,10.33429492
1.0650,10.33781725
1.0700,10.34162935
1.0750,10.34560139
1.0800,10.34976894
1.0850,10.35386963
1.0900,10.35810988
1.0950,10.36236741
1.1000,10.3667527
1.1050,10.37116071
1.1100,10.37537994
1.1150,10.37961709
1.1200,10.38372631
1.1250,10.38784807
1.1300,10.39197309
1.1350,10.39600218
1.1400,10.4000227
1.1450,10.40388745
1.1500,10.40778307
1.1550,10.41182138
1.1600,10.41588715
1.1650,10.41989789
1.1700,10.42396055
1.1750,10.4280482
1.1800,10.43192995
1.1850,10.43566363
1.1900,10.43922881
1.1950,10.44259337
1.2000,10.44584902
1.2050,10.44882495
1.2100,10.4515768
1.2150,10.45409029
1.2200,10.4563299
1.2250,10.45839052
1.2300,10.4604363
1.2350,10.4625544
1.2400,10.46468909
1.2450,10.46694215
1.2500,10.46935943
1.2550,10.4720374
1.2600,10.47492574
1.2650,10.47790089
1.2700,10.48113263
1.2750,10.48451346
1.2800,10.48798158
1.2850,10.49159678
1.2900,10.49532281
1.2950,10.49904178
1.3000,10.50294104
1.3050,10.50698995
1.3100,10.51110311
1.3150,10.51531843
1.3200,10.51976914
1.3250,10.52441301
1.3300,10.52948861
1.3350,10.53500341
1.3400,10.54120031
1.3450,10.54807317
1.3500,10.5555839
1.3550,10.56395124
1.3600,10.57327184
1.3650,10.58356769
1.3700,10.59483516
1.3750,10.60705143
1.3800,10.62025328
1.3850,10.63474699
1.3900,10.65021497
1.3950,10.66702479
1.4000,10.68500783
1.4050,10.70435337
1.4100,10.72518096
1.4150,10.74735341
1.4200,10.771212
1.4250,10.79660677
1.4300,10.82371214
1.4350,10.85260179
1.4400,10.88321172
1.4450,10.91571739
1.4500,10.95016267
1.4550,10.98631567
1.4600,11.02468312
1.4650,11.06510685
1.4700,11.1077214
1.4750,11.1524605
1.4800,11.19971167
1.4850,11.24938395
1.4900,11.30148318
1.4950,11.35609399
1.5000,11.41323633
1.5050,11.47310639
1.5100,11.53560116
1.5150,11.60088023
1.5200,11.66914287
1.5250,11.74016892
1.5300,11.81389615
1.5350,11.8903163
1.5400,11.96934434
1.5450,12.05100648
1.5500,12.13533007
1.5550,12.22210385
1.5600,12.31155097
1.5650,12.40367694
1.5700,12.49838957
1.5750,12.59564187
1.5800,12.69549658
1.5850,12.79782104
1.5900,12.90254972
1.5950,13.0099321
1.6000,13.11985716
1.6050,13.23233385
1.6100,13.34748389
1.6150,13.46550012
1.6200,13.58626658
1.6250,13.70996839
1.6300,13.8364444
1.6350,13.96613184
1.6400,14.09878264
1.6450,14.23464102
1.6500,14.37395401
1.6550,14.51677406
1.6600,14.66321637
1.6650,14.81349686
1.6700,14.96768841
1.6750,15.12579824
1.6800,15.28807778
1.6850,15.4543978
1.6900,15.62502071
1.6950,15.79985713
1.7000,15.97899746
1.7050,16.16227977
1.7100,16.34971436
1.7150,16.54126991
1.7200,16.73683538
1.7250,16.93612153
1.7300,17.13912237
1.7350,17.34555733
1.7400,17.5555019
1.7450,17.76856415
1.7500,17.98463288
1.7550,18.20380675
1.7600,18.42556173
1.7650,18.6500215
1.7700,18.87665985
1.7750,19.10571123
1.7800,19.33668388
1.7850,19.5696509
1.7900,19.80439704
1.7950,20.04064635
1.8000,20.27833325
1.8050,20.51717038
1.8100,20.7571447
1.8150,20.99796873
1.8200,21.23939975
1.8250,21.48140199
1.8300,21.7240513
1.8350,21.9671712
1.8400,22.21094156
1.8450,22.4550654
1.8500,22.6994193
1.8550,22.94410479
1.8600,23.18884702
1.8650,23.43360447
1.8700,23.67825504
1.8750,23.9228196
1.8800,24.16740344
1.8850,24.41202487
1.8900,24.65665435
1.8950,24.90118903
1.9000,25.145603
1.9050,25.39003379
1.9100,25.63446596
1.9150,25.87876244
1.9200,26.1230294
1.9250,26.36731993
1.9300,26.61175717
1.9350,26.85632793
1.9400,27.10115905
1.9450,27.34631681
1.9500,27.59182988
1.9550,27.83762394
1.9600,28.08403437
1.9650,28.33074713
1.9700,28.57803462
1.9750,28.82583732
1.9800,29.07410663
1.9850,29.32284187
1.9900,29.5719763
1.9950,29.82153195
2.0000,30.0713588
2.0050,30.32158445
2.0100,30.57219695
2.0150,30.82326988
2.0200,31.0747294
2.0250,31.32683736
2.0300,31.5795272
2.0350,31.83307516
2.0400,32.08727921
2.0450,32.34228906
2.0500,32.5981929
2.0550,32.85479698
2.0600,33.11221537
2.0650,33.37047268
2.0700,33.62961885
2.0750,33.88953866
2.0800,34.15034697
2.0850,34.41199104
2.0900,34.67462196
2.0950,34.93818132
2.1000,35.20272969
2.1050,35.4681943
2.1100,35.73438986
2.1150,36.00148627
2.1200,36.26934053
2.1250,36.53808613
2.1300,36.80757382
2.1350,37.07790825
2.1400,37.34878149
2.1450,37.62030412
2.1500,37.89231085
2.1550,38.16466208
2.1600,38.43744132
2.1650,38.71041553
2.1700,38.98377341
2.1750,39.25738392
2.1800,39.53101952
2.1850,39.80472969
2.1900,40.07850704
2.1950,40.35222295
2.2000,40.62583088
2.2050,40.89918313
2.2100,41.17250992
2.2150,41.44568577
2.2200,41.71879571
2.2250,41.99156979
2.2300,42.26405056
2.2350,42.53602642
2.2400,42.80755184
2.2450,43.07851003
2.2500,43.34862881
2.2550,43.61783499
2.2600,43.88580402
2.2650,44.15264611
2.2700,44.41824959
2.2750,44.68264189
2.2800,44.94573547
2.2850,45.20777814
2.2900,45.46880929
2.2950,45.7285634
2.3000,45.9869786
2.3050,46.24388695
2.3100,46.49914324
2.3150,46.75278163
2.3200,47.00470765
2.3250,47.25495576
2.3300,47.50315255
2.3350,47.7492755
2.3400,47.99323423
2.3450,48.23496674
2.3500,48.47424155
2.3550,48.71129028
2.3600,48.94596362
2.3650,49.17796113
2.3700,49.4072763
2.3750,49.63351623
2.3800,49.85642873
2.3850,50.07592554
2.3900,50.29160616
2.3950,50.50373769
2.4000,50.71201136
2.4050,50.91662419
2.4100,51.11750314
2.4150,51.31456878
2.4200,51.507905
2.4250,51.69730236
2.4300,51.88279315
2.4350,52.06437281
2.4400,52.242187
2.4450,52.41649348
2.4500,52.58710758
2.4550,52.75407584
2.4600,52.9173703
2.4650,53.0772822
2.4700,53.23349294
2.4750,53.38619211
2.4800,53.53515499
2.4850,53.6802695
2.4900,53.82141902
2.4950,53.9584924
2.5000,54.09142067
2.5050,54.22004256
2.5100,54.34411234
2.5150,54.46345164
2.5200,54.57791624
2.5250,54.68810205
2.5300,54.79389649
2.5350,54.8953574
2.5400,54.99241298
2.5450,55.08503463
2.5500,55.17318563
2.5550,55.25693235
2.5600,55.33611551
2.5650,55.41094437
2.5700,55.48136444
2.5750,55.54752607
2.5800,55.60946195
2.5850,55.66707685
2.5900,55.72012994
2.5950,55.76868807
2.6000,55.81266933
2.6050,55.85199012
2.6100,55.88674101
2.6150,55.91712062
2.6200,55.94352432
2.6250,55.96632141
2.6300,55.98571955
2.6350,56.00142217
2.6400,56.01357708
2.6450,56.0221006
2.6500,56.02703784
2.6550,56.02835712
2.6600,56.02634166
2.6650,56.02124455
2.6700,56.01307673
2.6750,56.00195691
2.6800,55.98798768
2.6850,55.97108328
2.6900,55.95138746
2.6950,55.92888718
2.7000,55.90368865
2.7050,55.87596371
2.7100,55.84602507
2.7150,55.81388519
2.7200,55.77964206
2.7250,55.7430148
2.7300,55.70395398
2.7350,55.66193246
2.7400,55.61703713
2.7450,55.56924702
2.7500,55.51887958
2.7550,55.46634873
2.7600,55.4117407
2.7650,55.35527086
2.7700,55.2968611
2.7750,55.23655422
2.7800,55.17444455
2.7850,55.1106503
2.7900,55.04501804
2.7950,54.97756149
2.8000,54.90841447
2.8050,54.83749852
2.8100,54.7648534
2.8150,54.69054912
2.8200,54.61466425
2.8250,54.53683039
2.8300,54.45710403
2.8350,54.37544022
2.8400,54.2920265
2.8450,54.20699873
2.8500,54.12063123
2.8550,54.03314627
2.8600,53.94485097
2.8650,53.85544701
2.8700,53.76497203
2.8750,53.67308435
2.8800,53.57971937
2.8850,53.48493678
2.8900,53.38845467
2.8950,53.29054469
2.9000,53.19147164
2.9050,53.09151126
2.9100,52.99077511
2.9150,52.8887778
2.9200,52.78531682
2.9250,52.68013904
2.9300,52.57322993
2.9350,52.46485984
2.9400,52.35500454
2.9450,52.24391134
2.9500,52.13152508
2.9550,52.01805657
2.9600,51.90337365
2.9650,51.78751028
2.9700,51.67092355
2.9750,51.55382663
2.9800,51.43596839
2.9850,51.31731589
2.9900,51.19781305
2.9950,51.07757367
3.0000,50.95643276
3.0050,50.8340074
3.0100,50.70998408
3.0150,50.58438074
3.0200,50.45697782
3.0250,50.32795932
3.0300,50.19700982
3.0350,50.06474103
3.0400,49.93141213
3.0450,49.79686717
3.0500,49.66126921
3.0550,49.52465705
3.0600,49.3872078
3.0650,49.24885339
3.0700,49.10967435
3.0750,48.96942721
3.0800,48.82805111
3.0850,48.6855422
3.0900,48.5420768
3.0950,48.39782758
3.1000,48.25302233
3.1050,48.10781604
3.1100,47.96225782
3.1150,47.81614384
3.1200,47.66952226
3.1250,47.52258443
3.1300,47.3754234
3.1350,47.22806866
3.1400,47.08059415
3.1450,46.93295338
3.1500,46.78512067
3.1550,46.63692428
3.1600,46.48835001
3.1650,46.33968541
3.1700,46.19094795
3.1750,46.04248622
3.1800,45.8944606
3.1850,45.74671367
3.1900,45.59997931
3.1950,45.45410493
3.2000,45.30908205
3.2050,45.164629
3.2100,45.0207375
3.2150,44.8774392
3.2200,44.73464864
3.2250,44.59223256
3.2300,44.45009012
3.2350,44.30822288
3.2400,44.16671908
3.2450,44.02531905
3.2500,43.88414829
3.2550,43.74292978
3.2600,43.60168607
3.2650,43.4603972
3.2700,43.31900107
3.2750,43.17740566
3.2800,43.03584081
3.2850,42.89445983
3.2900,42.75328988
3.2950,42.61207723
3.3000,42.47089306
3.3050,42.32976991
3.3100,42.18866136
3.3150,42.04780216
3.3200,41.90746119
3.3250,41.76781981
3.3300,41.6291158
3.3350,41.49108441
3.3400,41.35356491
3.3450,41.21644653
3.3500,41.07959157
3.3550,40.94282418
3.3600,40.80604568
3.3650,40.66918324
3.3700,40.5324305
3.3750,40.39580518
3.3800,40.25947348
3.3850,40.1234082
3.3900,39.98749718
3.3950,39.85172776
3.4000,39.71593869
3.4050,39.58012568
3.4100,39.44419657
3.4150,39.30841901
3.4200,39.17261398
3.4250,39.03681306
3.4300,38.90074538
3.4350,38.76441653
3.4400,38.62757866
3.4450,38.49035904
3.4500,38.35257557
3.4550,38.21450858
3.4600,38.07609284
3.4650,37.93714316
3.4700,37.79760248
3.4750,37.65727055
3.4800,37.51614494
3.4850,37.37433747
3.4900,37.2315694
3.4950,37.08792883
3.5000,36.94332902
3.5050,36.79797654
3.5100,36.6517369
3.5150,36.50479369
3.5200,36.35717914
3.5250,36.2089778
3.5300,36.06024011
3.5350,35.91113849
3.5400,35.76168423
3.5450,35.61208421
3.5500,35.46235237
3.5550,35.31269179
3.5600,35.16340988
3.5650,35.01457505
3.5700,34.86604348
3.5750,34.71811831
3.5800,34.57076632
3.5850,34.42420687
3.5900,34.27862529
3.5950,34.13414669
3.6000,33.99098956
3.6050,33.84910889
3.6100,33.70885678
3.6150,33.57016919
3.6200,33.43311429
3.6250,33.29763588
3.6300,33.16398041
3.6350,33.03220303
3.6400,32.90240313
3.6450,32.77479369
3.6500,32.64937966
3.6550,32.52638638
3.6600,32.40567918
3.6650,32.28732719
3.6700,32.17122651
3.6750,32.05738774
3.6800,31.9456761
3.6850,31.83629549
3.6900,31.72913957
3.6950,31.62418096
3.7000,31.5212468
3.7050,31.42036542
3.7100,31.3214575
3.7150,31.22431097
3.7200,31.12886557
3.7250,31.03520063
3.7300,30.9432363
3.7350,30.85294086
3.7400,30.76426672
3.7450,30.67708198
3.7500,30.59135366
3.7550,30.50703925
3.7600,30.42390101
3.7650,30.34194167
3.7700,30.26119181
3.7750,30.18142439
3.7800,30.10254891
3.7850,30.02469025
3.7900,29.94759772
3.7950,29.87124307
3.8000,29.7955809
3.8050,29.72053431
3.8100,29.64616143
3.8150,29.57243071
3.8200,29.49927005
3.8250,29.42665929
3.8300,29.35473162
3.8350,29.28332859
3.8400,29.21231561
3.8450,29.14194676
3.8500,29.07214079
3.8550,29.00293979
3.8600,28.93409829
3.8650,28.86581992
3.8700,28.79807673
3.8750,28.730655
3.8800,28.66359877
3.8850,28.59703931
3.8900,28.53075116
3.8950,28.46478815
3.9000,28.39920908
3.9050,28.33403133
3.9100,28.26925152
3.9150,28.20481044
3.9200,28.14071988
3.9250,28.07701279
3.9300,28.0137826
3.9350,27.95102858
3.9400,27.88875219
3.9450,27.82693966
3.9500,27.76567668
3.9550,27.70494864
3.9600,27.64501183
3.9650,27.58591378
3.9700,27.52761241
3.9750,27.47022988
3.9800,27.41405571
3.9850,27.35874733
3.9900,27.30460175
3.9950,27.25171239
4.0000,27.20012906
4.0050,27.14983532
4.0100,27.10121942
4.0150,27.05426009
4.0200,27.00915581
4.0250,26.9656407
4.0300,26.92396472
4.0350,26.88417919
4.0400,26.84619036
4.0450,26.81008077
4.0500,26.77607228
4.0550,26.74388274
4.0600,26.71395918
4.0650,26.68618736
4.0700,26.66044339
4.0750,26.63696379
4.0800,26.61588741
4.0850,26.59698275
4.0900,26.58029779
4.0950,26.56595491
4.1000,26.5539747
4.1050,26.54436983
4.1100,26.53718572
4.1150,26.53225742
4.1200,26.52986052
4.1250,26.52994164
4.1300,26.53242866
4.1350,26.53744429
4.1400,26.54513605
4.1450,26.55541801
4.1500,26.56841718
4.1550,26.58422222
4.1600,26.60299697
4.1650,26.62459511
4.1700,26.64917044
4.1750,26.67676808
4.1800,26.70758893
4.1850,26.74142616
4.1900,26.77863766
4.1950,26.8192203
4.2000,26.86302878
4.2050,26.91017
4.2100,26.96071755
4.2150,27.01473657
4.2200,27.07216611
4.2250,27.13304988
4.2300,27.19733412
4.2350,27.26502445
4.2400,27.33603886
4.2450,27.41027582
4.2500,27.48791669
4.2550,27.56878181
4.2600,27.6527992
4.2650,27.73992115
4.2700,27.83025693
4.2750,27.92398216
4.2800,28.02094936
4.2850,28.12100402
4.2900,28.22424606
4.2950,28.33064073
4.3000,28.44009295
4.3050,28.55253835
4.3100,28.66772117
4.3150,28.78552357
4.3200,28.90578147
4.3250,29.02862262
4.3300,29.1538106
4.3350,29.28124184
4.3400,29.41092001
4.3450,29.5426897
4.3500,29.67647926
4.3550,29.81234645
4.3600,29.94996758
4.3650,30.08941107
4.3700,30.23054708
4.3750,30.37313048
4.3800,30.51689456
4.3850,30.66185618
4.3900,30.80778469
4.3950,30.95456079
4.4000,31.10212264
4.4050,31.25026414
4.4100,31.39882011
4.4150,31.54778158
4.4200,31.69679925
4.4250,31.84607977
4.4300,31.99526138
4.4350,32.14417877
4.4400,32.2927936
4.4450,32.44084288
4.4500,32.58833565
4.4550,32.73491824
4.4600,32.88050395
4.4650,33.02500519
4.4700,33.16845725
4.4750,33.31081757
4.4800,33.45215703
4.4850,33.59246014
4.4900,33.73159948
4.4950,33.86982355
4.5000,34.0070242
4.5050,34.14334336
4.5100,34.27864695
4.5150,34.41305026
4.5200,34.54642897
4.5250,34.67890882
4.5300,34.81034188
4.5350,34.94101721
4.5400,35.0710828
4.5450,35.20060742
4.5500,35.32939558
4.5550,35.4577077
4.5600,35.58555654
4.5650,35.71278982
4.5700,35.83956469
4.5750,35.96566059
4.5800,36.09107825
4.5850,36.21615304
4.5900,36.34076326
4.5950,36.46503338
4.6000,36.58893085
4.6050,36.71258294
4.6100,36.8360162
4.6150,36.95959836
4.6200,37.08334008
4.6250,37.20738297
4.6300,37.3317828
4.6350,37.45670888
4.6400,37.58213977
4.6450,37.70841127
4.6500,37.83514566
4.6550,37.96245766
4.6600,38.09030726
4.6650,38.21872511
4.6700,38.34773343
4.6750,38.47742852
4.6800,38.6078503
4.6850,38.73883298
4.6900,38.87067229
4.6950,39.00322804
4.7000,39.13642621
4.7050,39.27026278
4.7100,39.40462576
4.7150,39.53970076
4.7200,39.6756198
4.7250,39.81226912
4.7300,39.94990917
4.7350,40.08844856
4.7400,40.22786503
4.7450,40.3683236
4.7500,40.50935061
4.7550,40.65128939
4.7600,40.79400946
4.7650,40.93751562
4.7700,41.08169139
4.7750,41.2266952
4.7800,41.37245325
4.7850,41.51888699
4.7900,41.66599093
4.7950,41.81347767
4.8000,41.96137364
4.8050,42.10965472
4.8100,42.2582448
4.8150,42.40690105
4.8200,42.55575733
4.8250,42.70478666
4.8300,42.85419395
4.8350,43.00385967
4.8400,43.15383374
4.8450,43.3041235
4.8500,43.45479958
4.8550,43.60584162
4.8600,43.75715302
4.8650,43.90884985
4.8700,44.06092159
4.8750,44.21346421
4.8800,44.36672961
4.8850,44.52066553
4.8900,44.67533113
4.8950,44.8305632
4.9000,44.98641094
4.9050,45.1428122
4.9100,45.29954718
4.9150,45.45654683
4.9200,45.61385486
4.9250,45.77124037
4.9300,45.92870541
4.9350,46.08608513
4.9400,46.24341407
4.9450,46.40056649
4.9500,46.55782756
4.9550,46.71487616
4.9600,46.87176104
4.9650,47.02845005
4.9700,47.18476451
4.9750,47.34071218
4.9800,47.49612279
4.9850,47.6508936
4.9900,47.80497424
4.9950,47.95839166
5.0000,48.11114882
5.0050,48.26317359
5.0100,48.41467591
5.0150,48.56556613
5.0200,48.71561365
5.0250,48.86483552
5.0300,49.01320442
5.0350,49.16080551
5.0400,49.30768282
5.0450,49.45359098
5.0500,49.59902572
5.0550,49.74389466
5.0600,49.88849615
5.0650,50.03270416
5.0700,50.17661064
5.0750,50.31993089
5.0800,50.46257874
5.0850,50.60436701
5.0900,50.74541925
5.0950,50.88586297
5.1000,51.02584019
5.1050,51.16538298
5.1100,51.30445587
5.1150,51.4431983
5.1200,51.58158236
5.1250,51.71948256
5.1300,51.85662164
5.1350,51.99292348
5.1400,52.12833548
5.1450,52.26318532
5.1500,52.39753331
5.1550,52.5314355
5.1600,52.66503137
5.1650,52.79834212
5.1700,52.93127798
5.1750,53.06362995
5.1800,53.19500152
5.1850,53.32508596
5.1900,53.45350156
5.1950,53.58023532
5.2000,53.70522327
5.2050,53.82859273
5.2100,53.9503981
5.2150,54.07052536
5.2200,54.18888675
5.2250,54.30528489
5.2300,54.4193843
5.2350,54.53093961
5.2400,54.63965845
5.2450,54.74528328
5.2500,54.84749249
