type,name,time_units,begin_time,frequency,count,units
signal,"Noraxon MyoMotion-Joints-Elbow RT-Flexion","s",0.0000,200,5068,"deg"

time,value
0.0000,2.167595218
0.0050,2.166034645
0.0100,2.164474176
0.0150,2.162913811
0.0200,2.161285722
0.0250,2.159606711
0.0300,2.157891709
0.0350,2.156153256
0.0400,2.154403194
0.0450,2.15265523
0.0500,2.150926354
0.0550,2.149236738
0.0600,2.147608976
0.0650,2.146066737
0.0700,2.14463274
0.0750,2.143327207
0.0800,2.142167585
0.0850,2.14116904
0.0900,2.140344545
0.0950,2.139704047
0.1000,2.139253325
0.1050,2.138992787
0.1100,2.138916377
0.1150,2.139011456
0.1200,2.139259673
0.1250,2.139638454
0.1300,2.14012339
0.1350,2.140690758
0.1400,2.141318405
0.1450,2.141984869
0.1500,2.142668117
0.1550,2.143610519
0.1600,2.144827822
0.1650,2.146390261
0.1700,2.148016004
0.1750,2.149737802
0.1800,2.151385846
0.1850,2.152933899
0.1900,2.154302531
0.1950,2.155535563
0.2000,2.156836077
0.2050,2.158047144
0.2100,2.159317364
0.2150,2.160735326
0.2200,2.162171485
0.2250,2.163724136
0.2300,2.16536319
0.2350,2.166937258
0.2400,2.168761571
0.2450,2.170773282
0.2500,2.1729288
0.2550,2.175353212
0.2600,2.17803164
0.2650,2.18079574
0.2700,2.183830131
0.2750,2.187012208
0.2800,2.190247374
0.2850,2.193515435
0.2900,2.197065072
0.2950,2.200664707
0.3000,2.204461108
0.3050,2.208163992
0.3100,2.212013229
0.3150,2.215814926
0.3200,2.219156984
0.3250,2.222299884
0.3300,2.225395556
0.3350,2.228209267
0.3400,2.230609432
0.3450,2.232911919
0.3500,2.234762582
0.3550,2.2363043
0.3600,2.237371129
0.3650,2.238162354
0.3700,2.238516805
0.3750,2.238532453
0.3800,2.23815829
0.3850,2.237496055
0.3900,2.236452891
0.3950,2.235026264
0.4000,2.233574785
0.4050,2.232090048
0.4100,2.230461656
0.4150,2.228921017
0.4200,2.227450286
0.4250,2.226099085
0.4300,2.224835554
0.4350,2.22373743
0.4400,2.222933113
0.4450,2.222091715
0.4500,2.22161278
0.4550,2.221256239
0.4600,2.220912236
0.4650,2.220469643
0.4700,2.220184013
0.4750,2.219903364
0.4800,2.21979692
0.4850,2.219593146
0.4900,2.219486721
0.4950,2.219183119
0.5000,2.218773411
0.5050,2.218272286
0.5100,2.217499167
0.5150,2.216628099
0.5200,2.215649366
0.5250,2.214436717
0.5300,2.213015129
0.5350,2.211571358
0.5400,2.210159944
0.5450,2.208716148
0.5500,2.207211685
0.5550,2.205521547
0.5600,2.203967002
0.5650,2.202472931
0.5700,2.200998312
0.5750,2.199482711
0.5800,2.198014481
0.5850,2.196731754
0.5900,2.195375799
0.5950,2.194085219
0.6000,2.192896472
0.6050,2.191751162
0.6100,2.190240945
0.6150,2.188791357
0.6200,2.187638198
0.6250,2.186389664
0.6300,2.184868447
0.6350,2.183338729
0.6400,2.181801932
0.6450,2.180101813
0.6500,2.17850139
0.6550,2.176779035
0.6600,2.17504688
0.6650,2.173399087
0.6700,2.171736245
0.6750,2.170196922
0.6800,2.168502383
0.6850,2.166886362
0.6900,2.165343944
0.6950,2.163727755
0.7000,2.162219824
0.7050,2.160669465
0.7100,2.159217036
0.7150,2.157670606
0.7200,2.156185709
0.7250,2.154767887
0.7300,2.153362141
0.7350,2.152027646
0.7400,2.150867071
0.7450,2.149756685
0.7500,2.148784977
0.7550,2.147836052
0.7600,2.146939195
0.7650,2.146160338
0.7700,2.145358818
0.7750,2.144676319
0.7800,2.143905643
0.7850,2.143218531
0.7900,2.142550436
0.7950,2.141916633
0.8000,2.141269454
0.8050,2.140688874
0.8100,2.140155044
0.8150,2.139474142
0.8200,2.13874621
0.8250,2.138082906
0.8300,2.137487355
0.8350,2.137004038
0.8400,2.136429715
0.8450,2.136077128
0.8500,2.135840793
0.8550,2.135792055
0.8600,2.135622594
0.8650,2.13557367
0.8700,2.135430495
0.8750,2.135309822
0.8800,2.135142123
0.8850,2.134892206
0.8900,2.134700847
0.8950,2.134486896
0.9000,2.13408053
0.9050,2.13371949
0.9100,2.133571918
0.9150,2.133300769
0.9200,2.132706827
0.9250,2.132163083
0.9300,2.131478683
0.9350,2.13064409
0.9400,2.129637061
0.9450,2.128517231
0.9500,2.127295561
0.9550,2.125982468
0.9600,2.124738887
0.9650,2.123169962
0.9700,2.121430078
0.9750,2.119742404
0.9800,2.118014033
0.9850,2.116269319
0.9900,2.114521458
0.9950,2.112906121
1.0000,2.111393352
1.0050,2.109873921
1.0100,2.108434894
1.0150,2.107027459
1.0200,2.105681262
1.0250,2.104400116
1.0300,2.103260426
1.0350,2.102191179
1.0400,2.101128364
1.0450,2.100381628
1.0500,2.099711278
1.0550,2.099222081
1.0600,2.098785417
1.0650,2.098357732
1.0700,2.098114842
1.0750,2.09791026
1.0800,2.098018419
1.0850,2.098022599
1.0900,2.09822033
1.0950,2.098401718
1.1000,2.098816912
1.1050,2.099197947
1.1100,2.099595055
1.1150,2.100269909
1.1200,2.100974373
1.1250,2.101894864
1.1300,2.102947423
1.1350,2.103850185
1.1400,2.104875193
1.1450,2.10573348
1.1500,2.106691466
1.1550,2.107964766
1.1600,2.109250116
1.1650,2.110570805
1.1700,2.112116963
1.1750,2.11382366
1.1800,2.115502999
1.1850,2.117153906
1.1900,2.118664175
1.1950,2.120272164
1.2000,2.121815675
1.2050,2.122986736
1.2100,2.123887528
1.2150,2.124413146
1.2200,2.124740105
1.2250,2.124911374
1.2300,2.125050867
1.2350,2.125167745
1.2400,2.12522144
1.2450,2.125422691
1.2500,2.12566023
1.2550,2.126050511
1.2600,2.126541966
1.2650,2.127340293
1.2700,2.128409008
1.2750,2.129532647
1.2800,2.131020405
1.2850,2.132677814
1.2900,2.134382601
1.2950,2.136108539
1.3000,2.138017434
1.3050,2.140002771
1.3100,2.142071441
1.3150,2.144172637
1.3200,2.146549916
1.3250,2.148982164
1.3300,2.151665222
1.3350,2.154631499
1.3400,2.158064098
1.3450,2.161927865
1.3500,2.166151864
1.3550,2.171130205
1.3600,2.176884524
1.3650,2.183496614
1.3700,2.190946649
1.3750,2.199466785
1.3800,2.208723599
1.3850,2.219257813
1.3900,2.230544963
1.3950,2.243359064
1.4000,2.257083954
1.4050,2.272258208
1.4100,2.288895129
1.4150,2.306891663
1.4200,2.326557622
1.4250,2.347656505
1.4300,2.370435383
1.4350,2.395037359
1.4400,2.421317042
1.4450,2.449516638
1.4500,2.479607117
1.4550,2.511402379
1.4600,2.545368386
1.4650,2.581338365
1.4700,2.619442839
1.4750,2.659596976
1.4800,2.702107987
1.4850,2.746916868
1.4900,2.793869685
1.4950,2.843008231
1.5000,2.894390555
1.5050,2.948320723
1.5100,3.004863741
1.5150,3.064071995
1.5200,3.126200234
1.5250,3.190831429
1.5300,3.258043115
1.5350,3.328081278
1.5400,3.400647077
1.5450,3.475845556
1.5500,3.553778147
1.5550,3.634262617
1.5600,3.717249838
1.5650,3.802739047
1.5700,3.89067635
1.5750,3.980883596
1.5800,4.073417349
1.5850,4.16816647
1.5900,4.265068889
1.5950,4.364410207
1.6000,4.465985044
1.6050,4.5699259
1.6100,4.676272178
1.6150,4.785347771
1.6200,4.896826737
1.6250,5.011092119
1.6300,5.127847187
1.6350,5.247697644
1.6400,5.370469473
1.6450,5.496146858
1.6500,5.625016273
1.6550,5.757165405
1.6600,5.892700314
1.6650,6.031753926
1.6700,6.174437008
1.6750,6.320647172
1.6800,6.470937784
1.6850,6.625088598
1.6900,6.783627808
1.6950,6.946153414
1.7000,7.113179146
1.7050,7.284414492
1.7100,7.459935538
1.7150,7.63964015
1.7200,7.823532103
1.7250,8.011282035
1.7300,8.20306632
1.7350,8.398728081
1.7400,8.598201412
1.7450,8.801172815
1.7500,9.00745197
1.7550,9.216932694
1.7600,9.429352762
1.7650,9.64465407
1.7700,9.862206016
1.7750,10.08217051
1.7800,10.30418236
1.7850,10.52811581
1.7900,10.75414122
1.7950,10.98172176
1.8000,11.21081402
1.8050,11.44113904
1.8100,11.67267714
1.8150,11.90526502
1.8200,12.1383397
1.8250,12.3720916
1.8300,12.60644359
1.8350,12.84108332
1.8400,13.07635807
1.8450,13.31191234
1.8500,13.54758938
1.8550,13.78354008
1.8600,14.01973981
1.8650,14.25609598
1.8700,14.49263603
1.8750,14.72953372
1.8800,14.96684305
1.8850,15.20462108
1.8900,15.44309767
1.8950,15.6821477
1.9000,15.92174872
1.9050,16.16215038
1.9100,16.4034324
1.9150,16.64536599
1.9200,16.88824645
1.9250,17.13196315
1.9300,17.37687261
1.9350,17.62264156
1.9400,17.86925906
1.9450,18.1168279
1.9500,18.36539245
1.9550,18.61466795
1.9600,18.86514416
1.9650,19.1164192
1.9700,19.36887798
1.9750,19.62239977
1.9800,19.87690128
1.9850,20.13246196
1.9900,20.38901589
1.9950,20.64672754
2.0000,20.90540867
2.0050,21.1651937
2.0100,21.42618199
2.0150,21.68833934
2.0200,21.95171415
2.0250,22.21656962
2.0300,22.482638
2.0350,22.75008482
2.0400,23.0186613
2.0450,23.28840592
2.0500,23.55959675
2.0550,23.83207797
2.0600,24.10581753
2.0650,24.38080975
2.0700,24.65720037
2.0750,24.93470586
2.0800,25.21349878
2.0850,25.49345374
2.0900,25.77434804
2.0950,26.0562591
2.1000,26.33939058
2.1050,26.62347861
2.1100,26.90847443
2.1150,27.19467832
2.1200,27.4820398
2.1250,27.77072531
2.1300,28.06097428
2.1350,28.35299146
2.1400,28.64650374
2.1450,28.9416883
2.1500,29.23862083
2.1550,29.53712046
2.1600,29.83737893
2.1650,30.13897795
2.1700,30.44212058
2.1750,30.74703146
2.1800,31.0531589
2.1850,31.36101898
2.1900,31.67061675
2.1950,31.98190967
2.2000,32.29485067
2.2050,32.60942702
2.2100,32.92573636
2.2150,33.24372533
2.2200,33.56326611
2.2250,33.88464014
2.2300,34.20784995
2.2350,34.53295246
2.2400,34.86008153
2.2450,35.18908515
2.2500,35.52005109
2.2550,35.85310196
2.2600,36.18769062
2.2650,36.52457053
2.2700,36.86324796
2.2750,37.20416453
2.2800,37.54705289
2.2850,37.89262022
2.2900,38.2409486
2.2950,38.59204019
2.3000,38.94636121
2.3050,39.30392526
2.3100,39.66424802
2.3150,40.02789945
2.3200,40.39462926
2.3250,40.76486545
2.3300,41.13848325
2.3350,41.51551423
2.3400,41.89645628
2.3450,42.28122205
2.3500,42.66948061
2.3550,43.06139252
2.3600,43.45677802
2.3650,43.85547241
2.3700,44.25791278
2.3750,44.66363386
2.3800,45.07238351
2.3850,45.48430013
2.3900,45.89926599
2.3950,46.31719995
2.4000,46.73772175
2.4050,47.1612948
2.4100,47.58764844
2.4150,48.01697783
2.4200,48.44921825
2.4250,48.88416124
2.4300,49.32201502
2.4350,49.76222949
2.4400,50.20526151
2.4450,50.6510569
2.4500,51.09977915
2.4550,51.55133323
2.4600,52.00547268
2.4650,52.46259485
2.4700,52.9220052
2.4750,53.38343093
2.4800,53.84700845
2.4850,54.3121453
2.4900,54.7784468
2.4950,55.24591662
2.5000,55.71442061
2.5050,56.18335381
2.5100,56.65273456
2.5150,57.12290607
2.5200,57.59375007
2.5250,58.06548542
2.5300,58.53773346
2.5350,59.01049695
2.5400,59.48364794
2.5450,59.95766122
2.5500,60.43226052
2.5550,60.90776337
2.5600,61.38437142
2.5650,61.86182895
2.5700,62.3404364
2.5750,62.81987609
2.5800,63.29994983
2.5850,63.77993671
2.5900,64.2590701
2.5950,64.73741477
2.6000,65.21398413
2.6050,65.68893048
2.6100,66.16296323
2.6150,66.63516926
2.6200,67.10614812
2.6250,67.57560255
2.6300,68.04327955
2.6350,68.50950534
2.6400,68.97411577
2.6450,69.43732036
2.6500,69.89926521
2.6550,70.36049292
2.6600,70.82168671
2.6650,71.28306646
2.6700,71.74499766
2.6750,72.20714371
2.6800,72.66959067
2.6850,73.13271288
2.6900,73.5969866
2.6950,74.06276253
2.7000,74.53059503
2.7050,75.00053486
2.7100,75.472391
2.7150,75.94591062
2.7200,76.42028937
2.7250,76.89573913
2.7300,77.37102848
2.7350,77.84738216
2.7400,78.32472562
2.7450,78.80347135
2.7500,79.28300834
2.7550,79.76364632
2.7600,80.24539091
2.7650,80.7284396
2.7700,81.21315866
2.7750,81.69900944
2.7800,82.18644631
2.7850,82.6746744
2.7900,83.16365046
2.7950,83.65322604
2.8000,84.142976
2.8050,84.6333188
2.8100,85.12400804
2.8150,85.61471767
2.8200,86.10491664
2.8250,86.59430898
2.8300,87.08265883
2.8350,87.57022698
2.8400,88.05635312
2.8450,88.54099143
2.8500,89.02439543
2.8550,89.5063969
2.8600,89.98658455
2.8650,90.46528959
2.8700,90.94204781
2.8750,91.41738702
2.8800,91.89170489
2.8850,92.36465585
2.8900,92.83748986
2.8950,93.30989942
2.9000,93.78182697
2.9050,94.25295356
2.9100,94.72309335
2.9150,95.19274379
2.9200,95.66145458
2.9250,96.12933787
2.9300,96.59713853
2.9350,97.06423416
2.9400,97.53033203
2.9450,97.99537683
2.9500,98.45951656
2.9550,98.9223598
2.9600,99.38468794
2.9650,99.84559286
2.9700,100.3049124
2.9750,100.7633767
2.9800,101.2211655
2.9850,101.6779619
2.9900,102.1338522
2.9950,102.5888507
3.0000,103.0421089
3.0050,103.4934703
3.0100,103.94274
3.0150,104.3891281
3.0200,104.8335336
3.0250,105.2755455
3.0300,105.7149606
3.0350,106.1517938
3.0400,106.5857101
3.0450,107.0166443
3.0500,107.4450328
3.0550,107.8708315
3.0600,108.2939839
3.0650,108.7139604
3.0700,109.1309899
3.0750,109.5448493
3.0800,109.9553186
3.0850,110.3631293
3.0900,110.7681745
3.0950,111.1700719
3.1000,111.5685412
3.1050,111.9630653
3.1100,112.3535901
3.1150,112.7400401
3.1200,113.1231051
3.1250,113.5020171
3.1300,113.8771181
3.1350,114.2473281
3.1400,114.6128834
3.1450,114.973361
3.1500,115.3285747
3.1550,115.6786383
3.1600,116.0235302
3.1650,116.3621496
3.1700,116.694514
3.1750,117.0208068
3.1800,117.3404898
3.1850,117.6539296
3.1900,117.9607121
3.1950,118.2613684
3.2000,118.5564012
3.2050,118.8462145
3.2100,119.1303136
3.2150,119.4097869
3.2200,119.6844475
3.2250,119.954146
3.2300,120.2193438
3.2350,120.480131
3.2400,120.73729
3.2450,120.9908185
3.2500,121.2410364
3.2550,121.4879676
3.2600,121.731473
3.2650,121.9723938
3.2700,122.2106185
3.2750,122.445874
3.2800,122.6781388
3.2850,122.9076097
3.2900,123.1345879
3.2950,123.358464
3.3000,123.5798374
3.3050,123.7983996
3.3100,124.0147
3.3150,124.22941
3.3200,124.4423756
3.3250,124.6542192
3.3300,124.8656655
3.3350,125.0764159
3.3400,125.2863073
3.3450,125.4958404
3.3500,125.7051567
3.3550,125.914139
3.3600,126.1231652
3.3650,126.3315468
3.3700,126.5397006
3.3750,126.7476783
3.3800,126.9549099
3.3850,127.1604475
3.3900,127.3647474
3.3950,127.5676833
3.4000,127.7687441
3.4050,127.9675469
3.4100,128.1636067
3.4150,128.3566996
3.4200,128.546343
3.4250,128.7325729
3.4300,128.9151081
3.4350,129.0942132
3.4400,129.270427
3.4450,129.4432444
3.4500,129.6131173
3.4550,129.7795421
3.4600,129.9429025
3.4650,130.1037982
3.4700,130.2624571
3.4750,130.4188107
3.4800,130.5736064
3.4850,130.7267243
3.4900,130.878463
3.4950,131.0286326
3.5000,131.177671
3.5050,131.3251567
3.5100,131.4721248
3.5150,131.61834
3.5200,131.7635666
3.5250,131.9079678
3.5300,132.0510727
3.5350,132.1934623
3.5400,132.3345906
3.5450,132.4751323
3.5500,132.614648
3.5550,132.7534307
3.5600,132.8911859
3.5650,133.0281866
3.5700,133.1639325
3.5750,133.2985907
3.5800,133.4326493
3.5850,133.5656893
3.5900,133.697746
3.5950,133.8287462
3.6000,133.9592982
3.6050,134.0894868
3.6100,134.2189427
3.6150,134.3480233
3.6200,134.4766443
3.6250,134.6048184
3.6300,134.7325071
3.6350,134.8601421
3.6400,134.9872551
3.6450,135.1139504
3.6500,135.2400247
3.6550,135.3653905
3.6600,135.489376
3.6650,135.6129919
3.6700,135.7352272
3.6750,135.8561793
3.6800,135.9763124
3.6850,136.0951729
3.6900,136.2127052
3.6950,136.3283976
3.7000,136.4426514
3.7050,136.5550954
3.7100,136.6659124
3.7150,136.7752031
3.7200,136.8824757
3.7250,136.987651
3.7300,137.0909293
3.7350,137.1925055
3.7400,137.2921673
3.7450,137.3900465
3.7500,137.486261
3.7550,137.5810413
3.7600,137.6747804
3.7650,137.7673905
3.7700,137.8591775
3.7750,137.9501208
3.7800,138.0398722
3.7850,138.1290948
3.7900,138.2168328
3.7950,138.3033471
3.8000,138.3885214
3.8050,138.4727398
3.8100,138.5554629
3.8150,138.6369219
3.8200,138.717381
3.8250,138.7966645
3.8300,138.8749875
3.8350,138.9518267
3.8400,139.0274369
3.8450,139.1011292
3.8500,139.173016
3.8550,139.2427293
3.8600,139.3104772
3.8650,139.3755384
3.8700,139.4385606
3.8750,139.4990739
3.8800,139.5571976
3.8850,139.6132587
3.8900,139.6673524
3.8950,139.7194359
3.9000,139.7693035
3.9050,139.8172851
3.9100,139.8636702
3.9150,139.9079001
3.9200,139.9499029
3.9250,139.9895924
3.9300,140.027184
3.9350,140.0624909
3.9400,140.0962465
3.9450,140.1277584
3.9500,140.1575891
3.9550,140.1857326
3.9600,140.2126963
3.9650,140.2377781
3.9700,140.2616836
3.9750,140.2847395
3.9800,140.3062086
3.9850,140.3270351
3.9900,140.3464653
3.9950,140.3650431
4.0000,140.3823459
4.0050,140.3986164
4.0100,140.4135942
4.0150,140.4273058
4.0200,140.43992
4.0250,140.45146
4.0300,140.4617885
4.0350,140.4706226
4.0400,140.4782812
4.0450,140.4850432
4.0500,140.4907597
4.0550,140.4951844
4.0600,140.4980244
4.0650,140.4993797
4.0700,140.499377
4.0750,140.4977362
4.0800,140.494395
4.0850,140.488753
4.0900,140.4814967
4.0950,140.4725172
4.1000,140.4614299
4.1050,140.4485811
4.1100,140.4340126
4.1150,140.4171782
4.1200,140.3978571
4.1250,140.3763124
4.1300,140.3520876
4.1350,140.3252044
4.1400,140.2954803
4.1450,140.263063
4.1500,140.2280055
4.1550,140.190434
4.1600,140.1504071
4.1650,140.1079459
4.1700,140.0629352
4.1750,140.015787
4.1800,139.9661624
4.1850,139.9144106
4.1900,139.8600825
4.1950,139.8035567
4.2000,139.7441284
4.2050,139.6821529
4.2100,139.6171542
4.2150,139.549716
4.2200,139.4797657
4.2250,139.4072903
4.2300,139.3318191
4.2350,139.2537927
4.2400,139.1725238
4.2450,139.0881715
4.2500,139.0007441
4.2550,138.9101916
4.2600,138.8159292
4.2650,138.7183443
4.2700,138.6168835
4.2750,138.5108379
4.2800,138.4008498
4.2850,138.2865119
4.2900,138.1680541
4.2950,138.0453294
4.3000,137.9183952
4.3050,137.787055
4.3100,137.6514444
4.3150,137.5111576
4.3200,137.3664873
4.3250,137.2172374
4.3300,137.063188
4.3350,136.9043145
4.3400,136.7403487
4.3450,136.5710184
4.3500,136.3966257
4.3550,136.2173734
4.3600,136.0336274
4.3650,135.845149
4.3700,135.6515377
4.3750,135.4533647
4.3800,135.2502749
4.3850,135.0430729
4.3900,134.8314624
4.3950,134.6155921
4.4000,134.3956286
4.4050,134.1715399
4.4100,133.9430912
4.4150,133.710275
4.4200,133.4739433
4.4250,133.234016
4.4300,132.9905334
4.4350,132.743718
4.4400,132.4936177
4.4450,132.240315
4.4500,131.9838991
4.4550,131.7249429
4.4600,131.4630438
4.4650,131.198663
4.4700,130.9320013
4.4750,130.6637144
4.4800,130.3937363
4.4850,130.122219
4.4900,129.85003
4.4950,129.5771924
4.5000,129.3044212
4.5050,129.0313609
4.5100,128.759033
4.5150,128.4867547
4.5200,128.2152314
4.5250,127.9440012
4.5300,127.6737001
4.5350,127.4030163
4.5400,127.132779
4.5450,126.8631349
4.5500,126.5932707
4.5550,126.3236762
4.5600,126.0545256
4.5650,125.7857154
4.5700,125.5172043
4.5750,125.2495048
4.5800,124.9823001
4.5850,124.7152115
4.5900,124.447968
4.5950,124.180407
4.6000,123.9122333
4.6050,123.643915
4.6100,123.3748475
4.6150,123.1051461
4.6200,122.8345073
4.6250,122.5628942
4.6300,122.2909527
4.6350,122.0185437
4.6400,121.7455149
4.6450,121.4718737
4.6500,121.1974493
4.6550,120.9220973
4.6600,120.6453541
4.6650,120.3674194
4.6700,120.0878944
4.6750,119.8066507
4.6800,119.5240071
4.6850,119.2389106
4.6900,118.9519304
4.6950,118.6627651
4.7000,118.3714812
4.7050,118.0776966
4.7100,117.7819346
4.7150,117.4845474
4.7200,117.1849211
4.7250,116.8827941
4.7300,116.5788041
4.7350,116.2725391
4.7400,115.9643869
4.7450,115.6543448
4.7500,115.3424634
4.7550,115.0277824
4.7600,114.7106211
4.7650,114.3908821
4.7700,114.0687912
4.7750,113.7438857
4.7800,113.417039
4.7850,113.0882533
4.7900,112.7578303
4.7950,112.42561
4.8000,112.0918459
4.8050,111.7566456
4.8100,111.4196173
4.8150,111.0813787
4.8200,110.7413217
4.8250,110.4002837
4.8300,110.0577107
4.8350,109.7146093
4.8400,109.3704201
4.8450,109.0250064
4.8500,108.679185
4.8550,108.3323791
4.8600,107.9849398
4.8650,107.636531
4.8700,107.286976
4.8750,106.9360907
4.8800,106.5837935
4.8850,106.2303404
4.8900,105.8758096
4.8950,105.5201923
4.9000,105.1635487
4.9050,104.8053119
4.9100,104.4463355
4.9150,104.0859088
4.9200,103.7241688
4.9250,103.3609102
4.9300,102.9961563
4.9350,102.6299696
4.9400,102.2623806
4.9450,101.8931601
4.9500,101.5219453
4.9550,101.1488124
4.9600,100.7740307
4.9650,100.397342
4.9700,100.0190161
4.9750,99.63881353
4.9800,99.25660581
4.9850,98.87246749
4.9900,98.48620271
4.9950,98.09818229
5.0000,97.70833783
5.0050,97.31682289
5.0100,96.92328588
5.0150,96.52746439
5.0200,96.12967211
5.0250,95.73002454
5.0300,95.32854771
5.0350,94.92540538
5.0400,94.51993618
5.0450,94.112333
5.0500,93.7022307
5.0550,93.29041694
5.0600,92.87684654
5.0650,92.46288744
5.0700,92.04769462
5.0750,91.63208027
5.0800,91.21564439
5.0850,90.79888239
5.0900,90.38207304
5.0950,89.96521165
5.1000,89.5483977
5.1050,89.13191699
5.1100,88.71579489
5.1150,88.300012
5.1200,87.88467367
5.1250,87.46972127
5.1300,87.05545669
5.1350,86.64153467
5.1400,86.22840415
5.1450,85.81640317
5.1500,85.40524212
5.1550,84.99522819
5.1600,84.58563451
5.1650,84.17688055
5.1700,83.76916243
5.1750,83.36277429
5.1800,82.95772609
5.1850,82.55416734
5.1900,82.15196032
5.1950,81.75086452
5.2000,81.35071061
5.2050,80.95178819
5.2100,80.55360402
5.2150,80.1570373
5.2200,79.76177927
5.2250,79.368104
5.2300,78.9761882
5.2350,78.5850173
5.2400,78.194995
5.2450,77.80633981
5.2500,77.4190448
5.2550,77.03297455
