type,name,time_units,begin_time,frequency,count,units
signal,"Noraxon Ultium-RT LAT. TRICEPS","s",0.00000,2000,50680,"uV"

time,value
0.00000,-4.967302084
0.00050,-4.356913269
0.00100,-2.83094123
0.00150,-1.304969192
0.00200,-0.9997747838
0.00250,-1.304969192
0.00300,-0.6945803761
0.00350,0.221002847
0.00400,0.8313916624
0.00450,1.13658607
0.00500,2.357363701
0.00550,3.883335739
0.00600,3.272946924
0.00650,1.441780478
0.00700,0.221002847
0.00750,0.5261972547
0.00800,0.8313916624
0.00850,0.221002847
0.00900,0.8313916624
0.00950,2.357363701
0.01000,2.967752516
0.01050,1.441780478
0.01100,0.221002847
0.01150,1.13658607
0.01200,2.052169293
0.01250,0.8313916624
0.01300,-0.9997747838
0.01350,-1.304969192
0.01400,-1.304969192
0.01450,-2.220552415
0.01500,-4.051718861
0.01550,-4.967302084
0.01600,-4.356913269
0.01650,-3.441330045
0.01700,-2.220552415
0.01750,-0.9997747838
0.01800,-0.08419156075
0.01850,-0.3893859684
0.01900,-0.3893859684
0.01950,1.13658607
0.02000,2.967752516
0.02050,2.662558109
0.02100,1.13658607
0.02150,0.221002847
0.02200,-0.08419156075
0.02250,-0.3893859684
0.02300,-1.304969192
0.02350,-1.304969192
0.02400,-0.6945803761
0.02450,-0.6945803761
0.02500,-0.6945803761
0.02550,-0.08419156075
0.02600,1.13658607
0.02650,1.13658607
0.02700,0.5261972547
0.02750,1.441780478
0.02800,3.272946924
0.02850,3.578141332
0.02900,1.13658607
0.02950,-1.610163599
0.03000,-2.525746822
0.03050,-1.610163599
0.03100,-0.08419156075
0.03150,1.13658607
0.03200,1.13658607
0.03250,0.221002847
0.03300,0.221002847
0.03350,1.13658607
0.03400,2.052169293
0.03450,1.746974885
0.03500,0.5261972547
0.03550,-0.3893859684
0.03600,-0.6945803761
0.03650,-0.08419156075
0.03700,1.13658607
0.03750,2.357363701
0.03800,2.967752516
0.03850,2.357363701
0.03900,1.746974885
0.03950,1.13658607
0.04000,0.5261972547
0.04050,-0.3893859684
0.04100,-0.9997747838
0.04150,-0.08419156075
0.04200,0.5261972547
0.04250,0.221002847
0.04300,-0.6945803761
0.04350,-1.304969192
0.04400,-1.610163599
0.04450,-1.610163599
0.04500,-1.915358007
0.04550,-1.915358007
0.04600,-0.9997747838
0.04650,0.5261972547
0.04700,2.967752516
0.04750,4.798918962
0.04800,5.409307778
0.04850,5.10411337
0.04900,4.798918962
0.04950,4.188530147
0.05000,3.272946924
0.05050,2.967752516
0.05100,2.662558109
0.05150,2.357363701
0.05200,1.13658607
0.05250,0.5261972547
0.05300,1.441780478
0.05350,3.578141332
0.05400,4.798918962
0.05450,4.798918962
0.05500,4.493724555
0.05550,4.188530147
0.05600,2.967752516
0.05650,1.13658607
0.05700,-0.08419156075
0.05750,0.5261972547
0.05800,0.8313916624
0.05850,-0.3893859684
0.05900,-2.525746822
0.05950,-2.83094123
0.06000,-0.9997747838
0.06050,0.221002847
0.06100,0.8313916624
0.06150,1.13658607
0.06200,1.13658607
0.06250,1.441780478
0.06300,2.357363701
0.06350,3.272946924
0.06400,3.883335739
0.06450,3.272946924
0.06500,1.441780478
0.06550,-0.08419156075
0.06600,-0.08419156075
0.06650,0.8313916624
0.06700,1.746974885
0.06750,1.13658607
0.06800,-0.08419156075
0.06850,-0.9997747838
0.06900,-0.9997747838
0.06950,-0.3893859684
0.07000,-1.304969192
0.07050,-2.525746822
0.07100,-3.746524453
0.07150,-3.441330045
0.07200,-2.525746822
0.07250,-2.220552415
0.07300,-2.220552415
0.07350,-2.220552415
0.07400,-1.610163599
0.07450,-0.9997747838
0.07500,-0.3893859684
0.07550,-0.08419156075
0.07600,-0.08419156075
0.07650,-0.9997747838
0.07700,-1.915358007
0.07750,-1.915358007
0.07800,-1.304969192
0.07850,-0.08419156075
0.07900,0.5261972547
0.07950,1.13658607
0.08000,1.13658607
0.08050,0.5261972547
0.08100,-0.08419156075
0.08150,-0.08419156075
0.08200,0.221002847
0.08250,0.5261972547
0.08300,0.221002847
0.08350,-0.08419156075
0.08400,-0.9997747838
0.08450,-0.9997747838
0.08500,-0.08419156075
0.08550,1.441780478
0.08600,0.8313916624
0.08650,-0.3893859684
0.08700,-0.6945803761
0.08750,1.441780478
0.08800,4.188530147
0.08850,4.188530147
0.08900,2.357363701
0.08950,0.5261972547
0.09000,-0.08419156075
0.09050,-1.915358007
0.09100,-4.051718861
0.09150,-4.051718861
0.09200,-2.220552415
0.09250,-0.9997747838
0.09300,-0.3893859684
0.09350,0.5261972547
0.09400,2.967752516
0.09450,5.10411337
0.09500,5.10411337
0.09550,3.883335739
0.09600,2.967752516
0.09650,1.746974885
0.09700,0.221002847
0.09750,-0.08419156075
0.09800,0.8313916624
0.09850,1.13658607
0.09900,-0.08419156075
0.09950,-1.610163599
0.10000,-1.304969192
0.10050,-0.08419156075
0.10100,0.221002847
0.10150,-0.08419156075
0.10200,-0.08419156075
0.10250,0.5261972547
0.10300,1.746974885
0.10350,1.746974885
0.10400,1.441780478
0.10450,1.13658607
0.10500,1.441780478
0.10550,2.052169293
0.10600,1.746974885
0.10650,0.221002847
0.10700,-0.6945803761
0.10750,-0.9997747838
0.10800,-0.08419156075
0.10850,-0.08419156075
0.10900,-1.915358007
0.10950,-3.746524453
0.11000,-4.356913269
0.11050,-3.136135638
0.11100,-0.9997747838
0.11150,0.221002847
0.11200,-0.3893859684
0.11250,-2.525746822
0.11300,-3.136135638
0.11350,-1.304969192
0.11400,0.5261972547
0.11450,0.221002847
0.11500,-1.915358007
0.11550,-3.441330045
0.11600,-2.220552415
0.11650,-0.9997747838
0.11700,-0.9997747838
0.11750,-1.610163599
0.11800,-1.610163599
0.11850,-1.304969192
0.11900,-0.9997747838
0.11950,-0.08419156075
0.12000,1.441780478
0.12050,1.746974885
0.12100,-0.08419156075
0.12150,-1.304969192
0.12200,-0.9997747838
0.12250,-0.08419156075
0.12300,-0.6945803761
0.12350,-1.304969192
0.12400,-0.3893859684
0.12450,0.221002847
0.12500,-0.08419156075
0.12550,-0.9997747838
0.12600,-1.915358007
0.12650,-2.220552415
0.12700,-2.83094123
0.12750,-2.83094123
0.12800,-1.610163599
0.12850,0.221002847
0.12900,1.13658607
0.12950,1.13658607
0.13000,1.441780478
0.13050,2.357363701
0.13100,1.746974885
0.13150,0.221002847
0.13200,0.221002847
0.13250,2.052169293
0.13300,2.967752516
0.13350,1.441780478
0.13400,-0.08419156075
0.13450,-0.08419156075
0.13500,0.5261972547
0.13550,0.5261972547
0.13600,0.221002847
0.13650,-0.08419156075
0.13700,-0.3893859684
0.13750,-1.304969192
0.13800,-1.915358007
0.13850,-0.9997747838
0.13900,-0.3893859684
0.13950,-0.9997747838
0.14000,-2.220552415
0.14050,-2.220552415
0.14100,-1.610163599
0.14150,-1.304969192
0.14200,-0.9997747838
0.14250,-0.9997747838
0.14300,-1.304969192
0.14350,-2.525746822
0.14400,-2.525746822
0.14450,-1.304969192
0.14500,-0.08419156075
0.14550,-0.08419156075
0.14600,-0.3893859684
0.14650,-0.08419156075
0.14700,0.8313916624
0.14750,0.8313916624
0.14800,0.8313916624
0.14850,1.746974885
0.14900,2.662558109
0.14950,2.357363701
0.15000,2.357363701
0.15050,3.883335739
0.15100,4.798918962
0.15150,3.578141332
0.15200,0.5261972547
0.15250,-0.08419156075
0.15300,2.357363701
0.15350,5.409307778
0.15400,6.630085409
0.15450,6.630085409
0.15500,6.019696593
0.15550,4.493724555
0.15600,2.662558109
0.15650,1.746974885
0.15700,2.662558109
0.15750,3.883335739
0.15800,4.188530147
0.15850,3.883335739
0.15900,3.578141332
0.15950,3.883335739
0.16000,3.578141332
0.16050,2.967752516
0.16100,2.052169293
0.16150,1.13658607
0.16200,1.441780478
0.16250,2.357363701
0.16300,2.662558109
0.16350,2.357363701
0.16400,2.662558109
0.16450,4.188530147
0.16500,5.714502186
0.16550,5.10411337
0.16600,3.883335739
0.16650,3.272946924
0.16700,2.662558109
0.16750,0.5261972547
0.16800,-0.9997747838
0.16850,-0.3893859684
0.16900,1.441780478
0.16950,2.662558109
0.17000,2.052169293
0.17050,2.052169293
0.17100,2.052169293
0.17150,0.5261972547
0.17200,-0.9997747838
0.17250,-0.9997747838
0.17300,0.221002847
0.17350,0.221002847
0.17400,-0.9997747838
0.17450,-1.304969192
0.17500,-0.3893859684
0.17550,-1.304969192
0.17600,-3.746524453
0.17650,-4.051718861
0.17700,-1.610163599
0.17750,-0.08419156075
0.17800,-0.9997747838
0.17850,-2.220552415
0.17900,-0.6945803761
0.17950,0.8313916624
0.18000,0.221002847
0.18050,-1.304969192
0.18100,-1.304969192
0.18150,-0.08419156075
0.18200,0.8313916624
0.18250,0.8313916624
0.18300,1.13658607
0.18350,1.13658607
0.18400,-0.08419156075
0.18450,-2.220552415
0.18500,-3.441330045
0.18550,-3.441330045
0.18600,-3.136135638
0.18650,-3.441330045
0.18700,-4.051718861
0.18750,-3.746524453
0.18800,-2.83094123
0.18850,-2.525746822
0.18900,-2.83094123
0.18950,-3.136135638
0.19000,-3.441330045
0.19050,-3.136135638
0.19100,-2.83094123
0.19150,-3.136135638
0.19200,-3.441330045
0.19250,-3.136135638
0.19300,-2.525746822
0.19350,-2.525746822
0.19400,-1.915358007
0.19450,-0.3893859684
0.19500,0.5261972547
0.19550,-0.08419156075
0.19600,-0.9997747838
0.19650,-0.9997747838
0.19700,0.221002847
0.19750,0.8313916624
0.19800,-0.08419156075
0.19850,-0.9997747838
0.19900,-0.6945803761
0.19950,0.221002847
0.20000,0.5261972547
0.20050,-0.6945803761
0.20100,-1.915358007
0.20150,-2.525746822
0.20200,-1.915358007
0.20250,-0.3893859684
0.20300,-0.08419156075
0.20350,-0.3893859684
0.20400,-1.304969192
0.20450,-1.610163599
0.20500,-1.304969192
0.20550,-0.9997747838
0.20600,-0.3893859684
0.20650,0.221002847
0.20700,0.221002847
0.20750,-0.3893859684
0.20800,-1.610163599
0.20850,-0.6945803761
0.20900,0.221002847
0.20950,0.221002847
0.21000,-0.9997747838
0.21050,-1.610163599
0.21100,-0.6945803761
0.21150,0.221002847
0.21200,0.221002847
0.21250,-0.3893859684
0.21300,-0.6945803761
0.21350,-0.9997747838
0.21400,-2.220552415
0.21450,-2.83094123
0.21500,-2.525746822
0.21550,-1.915358007
0.21600,-1.610163599
0.21650,-1.610163599
0.21700,-1.610163599
0.21750,-2.525746822
0.21800,-3.441330045
0.21850,-4.051718861
0.21900,-4.662107676
0.21950,-5.577690899
0.22000,-7.408857346
0.22050,-7.714051753
0.22100,-6.188079715
0.22150,-4.356913269
0.22200,-2.83094123
0.22250,-1.915358007
0.22300,-0.6945803761
0.22350,0.5261972547
0.22400,2.052169293
0.22450,2.662558109
0.22500,1.441780478
0.22550,-1.304969192
0.22600,-4.356913269
0.22650,-5.882885307
0.22700,-4.662107676
0.22750,-3.136135638
0.22800,-3.136135638
0.22850,-4.051718861
0.22900,-4.356913269
0.22950,-3.441330045
0.23000,-2.220552415
0.23050,-2.220552415
0.23100,-2.83094123
0.23150,-2.83094123
0.23200,-1.610163599
0.23250,-0.08419156075
0.23300,0.221002847
0.23350,-0.9997747838
0.23400,-2.83094123
0.23450,-4.051718861
0.23500,-4.356913269
0.23550,-4.356913269
0.23600,-3.746524453
0.23650,-2.83094123
0.23700,-2.220552415
0.23750,-1.915358007
0.23800,-1.915358007
0.23850,-2.220552415
0.23900,-3.136135638
0.23950,-3.441330045
0.24000,-2.83094123
0.24050,-2.525746822
0.24100,-3.136135638
0.24150,-4.051718861
0.24200,-4.356913269
0.24250,-3.136135638
0.24300,-2.525746822
0.24350,-3.136135638
0.24400,-4.662107676
0.24450,-5.272496492
0.24500,-5.272496492
0.24550,-4.356913269
0.24600,-3.441330045
0.24650,-3.136135638
0.24700,-4.051718861
0.24750,-4.356913269
0.24800,-4.051718861
0.24850,-3.746524453
0.24900,-4.051718861
0.24950,-4.967302084
0.25000,-4.356913269
0.25050,-2.83094123
0.25100,-1.610163599
0.25150,-1.915358007
0.25200,-2.220552415
0.25250,-1.610163599
0.25300,-0.6945803761
0.25350,0.221002847
0.25400,0.8313916624
0.25450,1.13658607
0.25500,0.5261972547
0.25550,-0.08419156075
0.25600,-0.08419156075
0.25650,0.8313916624
0.25700,1.746974885
0.25750,1.746974885
0.25800,1.746974885
0.25850,2.052169293
0.25900,1.746974885
0.25950,0.5261972547
0.26000,0.221002847
0.26050,0.8313916624
0.26100,1.746974885
0.26150,1.441780478
0.26200,1.13658607
0.26250,1.746974885
0.26300,2.967752516
0.26350,2.662558109
0.26400,1.13658607
0.26450,-0.08419156075
0.26500,-0.3893859684
0.26550,-0.08419156075
0.26600,1.13658607
0.26650,2.052169293
0.26700,2.052169293
0.26750,1.746974885
0.26800,2.052169293
0.26850,2.662558109
0.26900,2.357363701
0.26950,0.221002847
0.27000,-1.915358007
0.27050,-2.525746822
0.27100,-2.220552415
0.27150,-2.220552415
0.27200,-2.220552415
0.27250,-0.6945803761
0.27300,0.5261972547
0.27350,0.8313916624
0.27400,0.8313916624
0.27450,1.441780478
0.27500,2.357363701
0.27550,1.746974885
0.27600,0.5261972547
0.27650,0.5261972547
0.27700,1.441780478
0.27750,1.746974885
0.27800,1.746974885
0.27850,2.967752516
0.27900,3.883335739
0.27950,2.357363701
0.28000,-0.9997747838
0.28050,-3.136135638
0.28100,-2.220552415
0.28150,-0.9997747838
0.28200,-0.9997747838
0.28250,-1.304969192
0.28300,0.221002847
0.28350,2.662558109
0.28400,2.967752516
0.28450,1.746974885
0.28500,1.441780478
0.28550,2.662558109
0.28600,2.967752516
0.28650,1.441780478
0.28700,-0.3893859684
0.28750,-0.9997747838
0.28800,-0.08419156075
0.28850,0.221002847
0.28900,-0.08419156075
0.28950,-0.9997747838
0.29000,-1.304969192
0.29050,-0.6945803761
0.29100,0.5261972547
0.29150,1.746974885
0.29200,2.967752516
0.29250,3.272946924
0.29300,2.357363701
0.29350,0.221002847
0.29400,-0.6945803761
0.29450,-0.6945803761
0.29500,-0.08419156075
0.29550,-0.9997747838
0.29600,-2.220552415
0.29650,-1.610163599
0.29700,0.5261972547
0.29750,1.746974885
0.29800,0.8313916624
0.29850,-0.08419156075
0.29900,0.5261972547
0.29950,1.746974885
0.30000,2.052169293
0.30050,1.13658607
0.30100,0.5261972547
0.30150,0.8313916624
0.30200,0.8313916624
0.30250,0.5261972547
0.30300,0.8313916624
0.30350,1.746974885
0.30400,2.357363701
0.30450,1.441780478
0.30500,0.5261972547
0.30550,0.8313916624
0.30600,1.746974885
0.30650,2.662558109
0.30700,2.662558109
0.30750,2.357363701
0.30800,1.746974885
0.30850,0.8313916624
0.30900,-0.08419156075
0.30950,-0.9997747838
0.31000,-0.9997747838
0.31050,-0.08419156075
0.31100,0.5261972547
0.31150,0.221002847
0.31200,-0.08419156075
0.31250,-0.08419156075
0.31300,0.8313916624
0.31350,1.13658607
0.31400,0.5261972547
0.31450,0.221002847
0.31500,0.8313916624
0.31550,1.746974885
0.31600,2.967752516
0.31650,3.578141332
0.31700,3.272946924
0.31750,2.052169293
0.31800,1.13658607
0.31850,1.746974885
0.31900,2.357363701
0.31950,1.441780478
0.32000,-0.08419156075
0.32050,-0.08419156075
0.32100,2.052169293
0.32150,3.272946924
0.32200,1.441780478
0.32250,-0.3893859684
0.32300,-0.08419156075
0.32350,1.13658607
0.32400,1.13658607
0.32450,-0.08419156075
0.32500,-0.3893859684
0.32550,-0.08419156075
0.32600,0.221002847
0.32650,-0.08419156075
0.32700,-0.3893859684
0.32750,-0.3893859684
0.32800,-0.9997747838
0.32850,-1.610163599
0.32900,-1.610163599
0.32950,-0.6945803761
0.33000,-0.3893859684
0.33050,-1.304969192
0.33100,-1.915358007
0.33150,-0.9997747838
0.33200,0.221002847
0.33250,1.13658607
0.33300,0.8313916624
0.33350,0.221002847
0.33400,0.5261972547
0.33450,1.441780478
0.33500,1.746974885
0.33550,1.441780478
0.33600,1.746974885
0.33650,2.662558109
0.33700,3.272946924
0.33750,2.052169293
0.33800,-0.08419156075
0.33850,-0.9997747838
0.33900,-0.08419156075
0.33950,1.746974885
0.34000,2.967752516
0.34050,3.578141332
0.34100,3.272946924
0.34150,3.272946924
0.34200,3.272946924
0.34250,2.052169293
0.34300,0.5261972547
0.34350,-0.08419156075
0.34400,-0.08419156075
0.34450,1.441780478
0.34500,1.746974885
0.34550,1.13658607
0.34600,0.8313916624
0.34650,1.13658607
0.34700,0.8313916624
0.34750,-0.3893859684
0.34800,-0.6945803761
0.34850,0.8313916624
0.34900,2.967752516
0.34950,3.883335739
0.35000,4.188530147
0.35050,4.798918962
0.35100,4.798918962
0.35150,2.967752516
0.35200,1.13658607
0.35250,1.746974885
0.35300,4.188530147
0.35350,6.019696593
0.35400,6.935279816
0.35450,8.156057447
0.35500,9.987223893
0.35550,11.20800152
0.35600,10.59761271
0.35650,9.07164067
0.35700,7.850863039
0.35750,7.850863039
0.35800,9.376835078
0.35850,10.2924183
0.35900,8.461251855
0.35950,5.714502186
0.36000,4.493724555
0.36050,5.409307778
0.36100,6.019696593
0.36150,4.798918962
0.36200,4.188530147
0.36250,5.10411337
0.36300,6.630085409
0.36350,6.324891001
0.36400,4.798918962
0.36450,3.883335739
0.36500,3.578141332
0.36550,2.357363701
0.36600,1.441780478
0.36650,1.746974885
0.36700,2.052169293
0.36750,1.441780478
0.36800,0.221002847
0.36850,0.221002847
0.36900,1.13658607
0.36950,0.8313916624
0.37000,-0.08419156075
0.37050,-0.08419156075
0.37100,1.13658607
0.37150,1.441780478
0.37200,0.221002847
0.37250,-0.3893859684
0.37300,-0.08419156075
0.37350,-0.08419156075
0.37400,-0.9997747838
0.37450,-2.83094123
0.37500,-3.136135638
0.37550,-1.915358007
0.37600,-1.304969192
0.37650,-1.610163599
0.37700,-2.220552415
0.37750,-2.525746822
0.37800,-3.441330045
0.37850,-4.051718861
0.37900,-3.136135638
0.37950,-1.915358007
0.38000,-2.83094123
0.38050,-4.356913269
0.38100,-4.967302084
0.38150,-3.746524453
0.38200,-2.525746822
0.38250,-2.525746822
0.38300,-3.136135638
0.38350,-3.746524453
0.38400,-4.662107676
0.38450,-5.577690899
0.38500,-4.967302084
0.38550,-2.83094123
0.38600,-1.610163599
0.38650,-2.525746822
0.38700,-4.051718861
0.38750,-4.356913269
0.38800,-3.746524453
0.38850,-3.746524453
0.38900,-4.356913269
0.38950,-4.662107676
0.39000,-4.356913269
0.39050,-4.051718861
0.39100,-3.746524453
0.39150,-3.441330045
0.39200,-3.441330045
0.39250,-3.136135638
0.39300,-3.746524453
0.39350,-4.662107676
0.39400,-5.882885307
0.39450,-5.882885307
0.39500,-4.051718861
0.39550,-2.525746822
0.39600,-2.525746822
0.39650,-3.441330045
0.39700,-3.441330045
0.39750,-2.83094123
0.39800,-2.220552415
0.39850,-2.525746822
0.39900,-2.83094123
0.39950,-2.525746822
0.40000,-2.220552415
0.40050,-2.83094123
0.40100,-3.136135638
0.40150,-2.525746822
0.40200,-1.915358007
0.40250,-2.525746822
0.40300,-3.746524453
0.40350,-4.356913269
0.40400,-4.356913269
0.40450,-4.662107676
0.40500,-4.967302084
0.40550,-5.882885307
0.40600,-6.188079715
0.40650,-6.493274122
0.40700,-6.493274122
0.40750,-6.493274122
0.40800,-6.493274122
0.40850,-6.188079715
0.40900,-5.882885307
0.40950,-5.882885307
0.41000,-5.882885307
0.41050,-5.577690899
0.41100,-5.577690899
0.41150,-6.79846853
0.41200,-8.019246161
0.41250,-7.714051753
0.41300,-5.577690899
0.41350,-4.356913269
0.41400,-5.272496492
0.41450,-5.577690899
0.41500,-3.746524453
0.41550,-1.304969192
0.41600,-0.6945803761
0.41650,-1.915358007
0.41700,-2.525746822
0.41750,-1.915358007
0.41800,-1.610163599
0.41850,-1.915358007
0.41900,-1.304969192
0.41950,-0.08419156075
0.42000,0.8313916624
0.42050,0.5261972547
0.42100,0.221002847
0.42150,0.221002847
0.42200,-0.08419156075
0.42250,-0.6945803761
0.42300,-1.915358007
0.42350,-2.220552415
0.42400,-2.525746822
0.42450,-2.83094123
0.42500,-2.525746822
0.42550,-0.9997747838
0.42600,0.5261972547
0.42650,1.13658607
0.42700,-0.08419156075
0.42750,-0.3893859684
0.42800,-0.08419156075
0.42850,-0.08419156075
0.42900,-0.6945803761
0.42950,-1.304969192
0.43000,-1.304969192
0.43050,-1.610163599
0.43100,-3.136135638
0.43150,-4.051718861
0.43200,-3.136135638
0.43250,-0.6945803761
0.43300,0.5261972547
0.43350,-0.08419156075
0.43400,-0.9997747838
0.43450,-0.9997747838
0.43500,0.5261972547
0.43550,2.662558109
0.43600,3.272946924
0.43650,1.746974885
0.43700,-0.3893859684
0.43750,-0.9997747838
0.43800,-0.3893859684
0.43850,-0.3893859684
0.43900,-1.304969192
0.43950,-1.610163599
0.44000,-0.3893859684
0.44050,-0.08419156075
0.44100,-1.610163599
0.44150,-3.136135638
0.44200,-1.915358007
0.44250,0.5261972547
0.44300,1.746974885
0.44350,1.13658607
0.44400,0.8313916624
0.44450,0.221002847
0.44500,-0.9997747838
0.44550,-2.525746822
0.44600,-2.525746822
0.44650,-0.9997747838
0.44700,-0.08419156075
0.44750,-0.08419156075
0.44800,-0.08419156075
0.44850,-0.08419156075
0.44900,-0.08419156075
0.44950,-0.3893859684
0.45000,-0.3893859684
0.45050,-0.08419156075
0.45100,0.221002847
0.45150,-0.08419156075
0.45200,-0.9997747838
0.45250,-1.915358007
0.45300,-1.915358007
0.45350,-1.915358007
0.45400,-1.915358007
0.45450,-2.220552415
0.45500,-2.83094123
0.45550,-2.525746822
0.45600,-1.304969192
0.45650,-0.3893859684
0.45700,-1.304969192
0.45750,-3.136135638
0.45800,-3.746524453
0.45850,-3.136135638
0.45900,-2.220552415
0.45950,-1.610163599
0.46000,-0.9997747838
0.46050,-0.3893859684
0.46100,0.221002847
0.46150,1.441780478
0.46200,2.662558109
0.46250,2.662558109
0.46300,1.746974885
0.46350,1.746974885
0.46400,2.967752516
0.46450,3.272946924
0.46500,0.8313916624
0.46550,-1.915358007
0.46600,-2.525746822
0.46650,-0.6945803761
0.46700,-0.3893859684
0.46750,-2.525746822
0.46800,-4.967302084
0.46850,-4.662107676
0.46900,-2.220552415
0.46950,-0.6945803761
0.47000,-0.3893859684
0.47050,-0.6945803761
0.47100,-0.08419156075
0.47150,-0.08419156075
0.47200,-0.08419156075
0.47250,-0.08419156075
0.47300,-0.08419156075
0.47350,-0.3893859684
0.47400,-1.610163599
0.47450,-2.525746822
0.47500,-2.525746822
0.47550,-1.610163599
0.47600,-0.6945803761
0.47650,-0.3893859684
0.47700,-0.6945803761
0.47750,-0.9997747838
0.47800,-1.304969192
0.47850,-0.9997747838
0.47900,-0.6945803761
0.47950,-0.6945803761
0.48000,-0.3893859684
0.48050,-0.08419156075
0.48100,0.5261972547
0.48150,0.8313916624
0.48200,0.8313916624
0.48250,1.13658607
0.48300,1.746974885
0.48350,1.441780478
0.48400,0.221002847
0.48450,-0.3893859684
0.48500,-0.3893859684
0.48550,-0.3893859684
0.48600,-0.6945803761
0.48650,-1.304969192
0.48700,-1.610163599
0.48750,-1.610163599
0.48800,-1.610163599
0.48850,-1.915358007
0.48900,-2.220552415
0.48950,-2.525746822
0.49000,-2.525746822
0.49050,-1.915358007
0.49100,-1.610163599
0.49150,-1.915358007
0.49200,-2.525746822
0.49250,-2.525746822
0.49300,-1.610163599
0.49350,-0.9997747838
0.49400,-0.9997747838
0.49450,-1.304969192
0.49500,-1.304969192
0.49550,-0.6945803761
0.49600,-0.08419156075
0.49650,-0.08419156075
0.49700,-0.08419156075
0.49750,0.221002847
0.49800,1.746974885
0.49850,3.883335739
0.49900,5.10411337
0.49950,5.409307778
0.50000,5.10411337
0.50050,5.10411337
0.50100,5.714502186
0.50150,5.714502186
0.50200,5.10411337
0.50250,4.188530147
0.50300,2.967752516
0.50350,1.441780478
0.50400,0.221002847
0.50450,-0.08419156075
0.50500,-0.08419156075
0.50550,0.5261972547
0.50600,0.5261972547
0.50650,0.5261972547
0.50700,0.5261972547
0.50750,0.5261972547
0.50800,-0.08419156075
0.50850,-0.3893859684
0.50900,-0.6945803761
0.50950,-0.6945803761
0.51000,-1.610163599
0.51050,-2.220552415
0.51100,-0.9997747838
0.51150,1.13658607
0.51200,2.052169293
0.51250,0.221002847
0.51300,-0.9997747838
0.51350,-0.6945803761
0.51400,0.5261972547
0.51450,0.5261972547
0.51500,-0.08419156075
0.51550,-0.3893859684
0.51600,-0.08419156075
0.51650,0.221002847
0.51700,0.221002847
0.51750,-0.08419156075
0.51800,-0.3893859684
0.51850,-0.3893859684
0.51900,-0.08419156075
0.51950,0.221002847
0.52000,0.5261972547
0.52050,0.5261972547
0.52100,0.8313916624
0.52150,1.13658607
0.52200,1.746974885
0.52250,1.441780478
0.52300,0.5261972547
0.52350,-0.3893859684
0.52400,-1.610163599
0.52450,-1.610163599
0.52500,-0.08419156075
0.52550,1.746974885
0.52600,2.357363701
0.52650,1.746974885
0.52700,1.441780478
0.52750,1.441780478
0.52800,0.8313916624
0.52850,-0.6945803761
0.52900,-1.610163599
0.52950,-0.3893859684
0.53000,1.13658607
0.53050,2.357363701
0.53100,2.357363701
0.53150,1.441780478
0.53200,-0.08419156075
0.53250,-1.610163599
0.53300,-1.915358007
0.53350,-0.3893859684
0.53400,1.13658607
0.53450,1.441780478
0.53500,0.5261972547
0.53550,-0.08419156075
0.53600,-0.08419156075
0.53650,0.5261972547
0.53700,0.5261972547
0.53750,0.5261972547
0.53800,0.5261972547
0.53850,0.8313916624
0.53900,0.8313916624
0.53950,0.8313916624
0.54000,1.13658607
0.54050,1.441780478
0.54100,1.441780478
0.54150,0.221002847
0.54200,-1.610163599
0.54250,-2.525746822
0.54300,-1.610163599
0.54350,0.221002847
0.54400,0.8313916624
0.54450,-0.08419156075
0.54500,-0.6945803761
0.54550,-0.08419156075
0.54600,0.8313916624
0.54650,1.441780478
0.54700,1.13658607
0.54750,1.13658607
0.54800,1.441780478
0.54850,1.441780478
0.54900,0.221002847
0.54950,-0.08419156075
0.55000,-0.08419156075
0.55050,0.221002847
0.55100,0.5261972547
0.55150,0.5261972547
0.55200,0.5261972547
0.55250,0.221002847
0.55300,-0.08419156075
0.55350,0.5261972547
0.55400,1.746974885
0.55450,2.662558109
0.55500,2.052169293
0.55550,1.441780478
0.55600,2.357363701
0.55650,4.493724555
0.55700,5.10411337
0.55750,3.883335739
0.55800,2.357363701
0.55850,2.967752516
0.55900,4.188530147
0.55950,4.493724555
0.56000,3.578141332
0.56050,2.967752516
0.56100,3.272946924
0.56150,4.188530147
0.56200,4.493724555
0.56250,4.798918962
0.56300,4.493724555
0.56350,4.493724555
0.56400,4.188530147
0.56450,4.188530147
0.56500,4.798918962
0.56550,4.798918962
0.56600,4.493724555
0.56650,3.578141332
0.56700,3.272946924
0.56750,3.272946924
0.56800,3.272946924
0.56850,3.272946924
0.56900,3.272946924
0.56950,3.272946924
0.57000,2.662558109
0.57050,1.441780478
0.57100,1.13658607
0.57150,2.052169293
0.57200,2.967752516
0.57250,2.662558109
0.57300,2.357363701
0.57350,2.967752516
0.57400,3.883335739
0.57450,3.578141332
0.57500,3.272946924
0.57550,3.578141332
0.57600,3.883335739
0.57650,2.967752516
0.57700,1.746974885
0.57750,2.052169293
0.57800,3.272946924
0.57850,3.272946924
0.57900,2.052169293
0.57950,0.8313916624
0.58000,0.221002847
0.58050,-0.08419156075
0.58100,-0.08419156075
0.58150,-0.08419156075
0.58200,-0.08419156075
0.58250,-0.3893859684
0.58300,-0.08419156075
0.58350,1.13658607
0.58400,2.662558109
0.58450,2.357363701
0.58500,0.5261972547
0.58550,-0.08419156075
0.58600,0.221002847
0.58650,0.8313916624
0.58700,1.746974885
0.58750,3.272946924
0.58800,5.10411337
0.58850,4.798918962
0.58900,2.662558109
0.58950,1.441780478
0.59000,1.441780478
0.59050,0.8313916624
0.59100,-0.6945803761
0.59150,-1.915358007
0.59200,-1.915358007
0.59250,-0.9997747838
0.59300,-0.6945803761
0.59350,-0.08419156075
0.59400,0.8313916624
0.59450,2.052169293
0.59500,1.746974885
0.59550,1.13658607
0.59600,0.8313916624
0.59650,1.441780478
0.59700,1.746974885
0.59750,1.441780478
0.59800,1.13658607
0.59850,0.8313916624
0.59900,1.441780478
0.59950,2.052169293
0.60000,2.662558109
0.60050,2.662558109
0.60100,2.357363701
0.60150,2.357363701
0.60200,2.357363701
0.60250,1.13658607
0.60300,-0.3893859684
0.60350,-0.3893859684
0.60400,1.441780478
0.60450,2.967752516
0.60500,2.662558109
0.60550,1.13658607
0.60600,1.13658607
0.60650,2.967752516
0.60700,3.883335739
0.60750,2.967752516
0.60800,1.746974885
0.60850,2.052169293
0.60900,2.357363701
0.60950,1.441780478
0.61000,-0.08419156075
0.61050,-0.6945803761
0.61100,-0.3893859684
0.61150,0.221002847
0.61200,0.8313916624
0.61250,0.8313916624
0.61300,0.5261972547
0.61350,0.8313916624
0.61400,2.052169293
0.61450,2.662558109
0.61500,2.357363701
0.61550,1.746974885
0.61600,1.746974885
0.61650,2.357363701
0.61700,2.052169293
0.61750,1.441780478
0.61800,1.746974885
0.61850,2.967752516
0.61900,3.272946924
0.61950,2.662558109
0.62000,2.052169293
0.62050,2.357363701
0.62100,2.662558109
0.62150,3.578141332
0.62200,3.883335739
0.62250,3.272946924
0.62300,0.8313916624
0.62350,-1.610163599
0.62400,-1.610163599
0.62450,-0.08419156075
0.62500,0.5261972547
0.62550,-0.9997747838
0.62600,-2.83094123
0.62650,-1.915358007
0.62700,-0.3893859684
0.62750,-0.3893859684
0.62800,-1.610163599
0.62850,-1.304969192
0.62900,0.221002847
0.62950,0.8313916624
0.63000,-0.08419156075
0.63050,-0.9997747838
0.63100,-0.9997747838
0.63150,-0.08419156075
0.63200,1.13658607
0.63250,1.13658607
0.63300,0.8313916624
0.63350,1.13658607
0.63400,1.746974885
0.63450,2.052169293
0.63500,1.441780478
0.63550,-0.08419156075
0.63600,-0.9997747838
0.63650,-1.610163599
0.63700,-1.610163599
0.63750,-1.915358007
0.63800,-1.915358007
0.63850,-1.610163599
0.63900,-1.304969192
0.63950,-0.3893859684
0.64000,0.8313916624
0.64050,2.967752516
0.64100,3.883335739
0.64150,3.578141332
0.64200,2.662558109
0.64250,2.357363701
0.64300,2.052169293
0.64350,1.13658607
0.64400,0.221002847
0.64450,0.5261972547
0.64500,1.746974885
0.64550,2.052169293
0.64600,1.13658607
0.64650,0.221002847
0.64700,0.8313916624
0.64750,2.052169293
0.64800,2.357363701
0.64850,2.052169293
0.64900,2.357363701
0.64950,2.662558109
0.65000,2.662558109
0.65050,1.746974885
0.65100,1.13658607
0.65150,0.8313916624
0.65200,0.8313916624
0.65250,0.8313916624
0.65300,2.052169293
0.65350,2.662558109
0.65400,2.052169293
0.65450,0.5261972547
0.65500,-0.08419156075
0.65550,0.221002847
0.65600,-0.08419156075
0.65650,-0.3893859684
0.65700,-0.6945803761
0.65750,-0.08419156075
0.65800,0.221002847
0.65850,0.8313916624
0.65900,1.746974885
0.65950,2.052169293
0.66000,-0.08419156075
0.66050,-2.525746822
0.66100,-4.051718861
0.66150,-3.136135638
0.66200,-1.915358007
0.66250,-1.304969192
0.66300,-1.304969192
0.66350,-1.304969192
0.66400,-1.610163599
0.66450,-2.83094123
0.66500,-3.746524453
0.66550,-3.441330045
0.66600,-2.220552415
0.66650,-1.610163599
0.66700,-1.610163599
0.66750,-2.525746822
0.66800,-3.441330045
0.66850,-4.662107676
0.66900,-4.356913269
0.66950,-3.136135638
0.67000,-1.610163599
0.67050,-1.304969192
0.67100,-1.304969192
0.67150,-1.304969192
0.67200,-1.610163599
0.67250,-1.915358007
0.67300,-2.220552415
0.67350,-2.220552415
0.67400,-2.83094123
0.67450,-4.356913269
0.67500,-5.577690899
0.67550,-5.882885307
0.67600,-5.577690899
0.67650,-4.967302084
0.67700,-4.051718861
0.67750,-3.136135638
0.67800,-2.83094123
0.67850,-3.441330045
0.67900,-3.746524453
0.67950,-3.136135638
0.68000,-2.83094123
0.68050,-4.051718861
0.68100,-5.882885307
0.68150,-6.493274122
0.68200,-5.882885307
0.68250,-5.882885307
0.68300,-6.493274122
0.68350,-6.188079715
0.68400,-4.967302084
0.68450,-4.051718861
0.68500,-4.662107676
0.68550,-5.272496492
0.68600,-4.662107676
0.68650,-4.051718861
0.68700,-4.051718861
0.68750,-4.662107676
0.68800,-4.356913269
0.68850,-3.441330045
0.68900,-3.136135638
0.68950,-4.356913269
0.69000,-5.272496492
0.69050,-4.051718861
0.69100,-1.610163599
0.69150,0.221002847
0.69200,0.8313916624
0.69250,-0.08419156075
0.69300,-0.9997747838
0.69350,-1.610163599
0.69400,-1.610163599
0.69450,-1.304969192
0.69500,-1.304969192
0.69550,-1.610163599
0.69600,-1.915358007
0.69650,-2.525746822
0.69700,-3.746524453
0.69750,-4.356913269
0.69800,-3.441330045
0.69850,-2.220552415
0.69900,-2.525746822
0.69950,-3.746524453
0.70000,-3.441330045
0.70050,-1.915358007
0.70100,-0.6945803761
0.70150,-0.6945803761
0.70200,-1.610163599
0.70250,-1.304969192
0.70300,-1.304969192
0.70350,-1.915358007
0.70400,-2.525746822
0.70450,-2.525746822
0.70500,-1.915358007
0.70550,-0.9997747838
0.70600,0.5261972547
0.70650,1.746974885
0.70700,1.13658607
0.70750,-0.9997747838
0.70800,-3.441330045
0.70850,-4.051718861
0.70900,-4.051718861
0.70950,-4.662107676
0.71000,-5.272496492
0.71050,-4.662107676
0.71100,-3.746524453
0.71150,-3.746524453
0.71200,-4.356913269
0.71250,-3.746524453
0.71300,-2.220552415
0.71350,-2.220552415
0.71400,-4.051718861
0.71450,-5.272496492
0.71500,-4.356913269
0.71550,-2.220552415
0.71600,-0.6945803761
0.71650,-0.3893859684
0.71700,-1.304969192
0.71750,-1.915358007
0.71800,-1.915358007
0.71850,-1.304969192
0.71900,-0.6945803761
0.71950,0.221002847
0.72000,1.441780478
0.72050,1.746974885
0.72100,0.8313916624
0.72150,0.221002847
0.72200,-0.08419156075
0.72250,-0.08419156075
0.72300,-0.6945803761
0.72350,-1.915358007
0.72400,-1.610163599
0.72450,-0.6945803761
0.72500,-0.08419156075
0.72550,-0.3893859684
0.72600,-0.6945803761
0.72650,-0.08419156075
0.72700,0.5261972547
0.72750,0.5261972547
0.72800,0.8313916624
0.72850,1.441780478
0.72900,1.746974885
0.72950,1.746974885
0.73000,1.746974885
0.73050,2.052169293
0.73100,1.746974885
0.73150,0.221002847
0.73200,-0.6945803761
0.73250,-0.6945803761
0.73300,-0.08419156075
0.73350,0.221002847
0.73400,0.5261972547
0.73450,0.221002847
0.73500,-0.3893859684
0.73550,-1.304969192
0.73600,-1.304969192
0.73650,-0.6945803761
0.73700,-0.6945803761
0.73750,-0.6945803761
0.73800,0.221002847
0.73850,1.746974885
0.73900,1.746974885
0.73950,-0.08419156075
0.74000,-2.220552415
0.74050,-1.610163599
0.74100,-0.08419156075
0.74150,0.5261972547
0.74200,-0.08419156075
0.74250,-0.3893859684
0.74300,-0.6945803761
0.74350,-0.3893859684
0.74400,0.221002847
0.74450,0.8313916624
0.74500,1.441780478
0.74550,0.5261972547
0.74600,-0.3893859684
0.74650,-1.304969192
0.74700,-0.6945803761
0.74750,-0.08419156075
0.74800,-0.08419156075
0.74850,-0.08419156075
0.74900,-0.9997747838
0.74950,-1.304969192
0.75000,-0.9997747838
0.75050,-0.3893859684
0.75100,-0.08419156075
0.75150,0.221002847
0.75200,0.221002847
0.75250,-0.08419156075
0.75300,-0.9997747838
0.75350,-2.525746822
0.75400,-3.136135638
0.75450,-1.610163599
0.75500,0.221002847
0.75550,0.8313916624
0.75600,0.221002847
0.75650,-0.08419156075
0.75700,0.8313916624
0.75750,2.052169293
0.75800,2.662558109
0.75850,2.967752516
0.75900,3.578141332
0.75950,3.272946924
0.76000,1.441780478
0.76050,-0.3893859684
0.76100,-1.304969192
0.76150,-0.9997747838
0.76200,-0.3893859684
0.76250,-0.08419156075
0.76300,-0.08419156075
0.76350,-1.304969192
0.76400,-4.051718861
0.76450,-6.493274122
0.76500,-6.188079715
0.76550,-4.356913269
0.76600,-2.83094123
0.76650,-1.915358007
0.76700,-0.9997747838
0.76750,-0.9997747838
0.76800,-1.915358007
0.76850,-3.441330045
0.76900,-3.441330045
0.76950,-2.525746822
0.77000,-2.220552415
0.77050,-1.915358007
0.77100,-1.304969192
0.77150,-0.08419156075
0.77200,-0.3893859684
0.77250,-1.304969192
0.77300,-0.08419156075
0.77350,2.357363701
0.77400,3.272946924
0.77450,0.5261972547
0.77500,-2.525746822
0.77550,-3.136135638
0.77600,-1.610163599
0.77650,-0.6945803761
0.77700,-0.9997747838
0.77750,-1.610163599
0.77800,-0.6945803761
0.77850,0.221002847
0.77900,1.13658607
0.77950,1.13658607
0.78000,0.5261972547
0.78050,-0.3893859684
0.78100,-1.304969192
0.78150,-1.610163599
0.78200,-0.3893859684
0.78250,0.8313916624
0.78300,1.441780478
0.78350,0.8313916624
0.78400,-0.08419156075
0.78450,-0.6945803761
0.78500,-0.3893859684
0.78550,-0.6945803761
0.78600,-1.304969192
0.78650,-2.220552415
0.78700,-1.915358007
0.78750,-0.9997747838
0.78800,-0.08419156075
0.78850,0.221002847
0.78900,-0.08419156075
0.78950,0.221002847
0.79000,0.5261972547
0.79050,0.8313916624
0.79100,0.8313916624
0.79150,0.221002847
0.79200,-0.08419156075
0.79250,-0.08419156075
0.79300,-0.08419156075
0.79350,-0.08419156075
0.79400,-0.08419156075
0.79450,0.221002847
0.79500,1.441780478
0.79550,2.357363701
0.79600,2.357363701
0.79650,1.746974885
0.79700,2.357363701
0.79750,4.188530147
0.79800,4.798918962
0.79850,3.272946924
0.79900,1.13658607
0.79950,-0.08419156075
0.80000,0.8313916624
0.80050,1.441780478
0.80100,1.746974885
0.80150,2.357363701
0.80200,3.883335739
0.80250,5.409307778
0.80300,4.798918962
0.80350,3.578141332
0.80400,2.662558109
0.80450,2.967752516
0.80500,3.272946924
0.80550,3.272946924
0.80600,3.272946924
0.80650,4.188530147
0.80700,5.10411337
0.80750,5.409307778
0.80800,5.10411337
0.80850,3.883335739
0.80900,3.272946924
0.80950,3.272946924
0.81000,3.272946924
0.81050,2.967752516
0.81100,2.662558109
0.81150,2.662558109
0.81200,3.272946924
0.81250,3.883335739
0.81300,4.493724555
0.81350,4.798918962
0.81400,4.493724555
0.81450,3.578141332
0.81500,2.357363701
0.81550,1.441780478
0.81600,1.13658607
0.81650,1.13658607
0.81700,0.8313916624
0.81750,0.221002847
0.81800,0.5261972547
0.81850,2.052169293
0.81900,3.883335739
0.81950,4.188530147
0.82000,2.662558109
0.82050,1.441780478
0.82100,1.441780478
0.82150,2.357363701
0.82200,2.967752516
0.82250,3.272946924
0.82300,3.272946924
0.82350,2.662558109
0.82400,1.13658607
0.82450,-0.08419156075
0.82500,0.8313916624
0.82550,2.357363701
0.82600,3.272946924
0.82650,2.662558109
0.82700,1.746974885
0.82750,1.13658607
0.82800,0.5261972547
0.82850,-0.08419156075
0.82900,-0.6945803761
0.82950,-0.9997747838
0.83000,-0.9997747838
0.83050,-0.6945803761
0.83100,-0.08419156075
0.83150,0.221002847
0.83200,0.8313916624
0.83250,1.13658607
0.83300,1.441780478
0.83350,1.441780478
0.83400,0.8313916624
0.83450,0.5261972547
0.83500,1.441780478
0.83550,2.052169293
0.83600,1.13658607
0.83650,0.221002847
0.83700,0.221002847
0.83750,1.13658607
0.83800,1.441780478
0.83850,0.8313916624
0.83900,-0.08419156075
0.83950,-0.9997747838
0.84000,-1.915358007
0.84050,-1.304969192
0.84100,0.221002847
0.84150,2.662558109
0.84200,3.883335739
0.84250,3.578141332
0.84300,3.272946924
0.84350,3.578141332
0.84400,2.967752516
0.84450,1.441780478
0.84500,-0.08419156075
0.84550,-0.6945803761
0.84600,-0.3893859684
0.84650,0.221002847
0.84700,1.441780478
0.84750,2.052169293
0.84800,1.441780478
0.84850,0.221002847
0.84900,-0.08419156075
0.84950,-0.08419156075
0.85000,-0.08419156075
0.85050,-0.3893859684
0.85100,-0.3893859684
0.85150,0.221002847
0.85200,1.13658607
0.85250,0.8313916624
0.85300,-0.08419156075
0.85350,0.221002847
0.85400,1.441780478
0.85450,1.746974885
0.85500,1.13658607
0.85550,0.5261972547
0.85600,0.221002847
0.85650,-0.6945803761
0.85700,-2.220552415
0.85750,-2.83094123
0.85800,-1.915358007
0.85850,-1.304969192
0.85900,-1.915358007
0.85950,-2.220552415
0.86000,-0.9997747838
0.86050,-0.3893859684
0.86100,-0.6945803761
0.86150,-1.304969192
0.86200,-1.610163599
0.86250,-1.610163599
0.86300,-2.525746822
0.86350,-3.136135638
0.86400,-2.83094123
0.86450,-2.220552415
0.86500,-2.525746822
0.86550,-2.83094123
0.86600,-3.136135638
0.86650,-3.136135638
0.86700,-3.746524453
0.86750,-3.746524453
0.86800,-3.441330045
0.86850,-2.525746822
0.86900,-2.220552415
0.86950,-2.220552415
0.87000,-2.220552415
0.87050,-2.525746822
0.87100,-2.83094123
0.87150,-3.136135638
0.87200,-2.83094123
0.87250,-2.220552415
0.87300,-2.220552415
0.87350,-1.915358007
0.87400,-2.220552415
0.87450,-3.441330045
0.87500,-4.356913269
0.87550,-3.746524453
0.87600,-2.220552415
0.87650,-1.304969192
0.87700,-2.220552415
0.87750,-3.136135638
0.87800,-2.83094123
0.87850,-0.9997747838
0.87900,-0.08419156075
0.87950,0.221002847
0.88000,-0.08419156075
0.88050,-0.08419156075
0.88100,-0.3893859684
0.88150,-1.915358007
0.88200,-4.356913269
0.88250,-6.188079715
0.88300,-6.493274122
0.88350,-5.577690899
0.88400,-4.051718861
0.88450,-3.136135638
0.88500,-2.83094123
0.88550,-2.525746822
0.88600,-2.525746822
0.88650,-2.83094123
0.88700,-3.136135638
0.88750,-3.746524453
0.88800,-3.746524453
0.88850,-4.051718861
0.88900,-4.356913269
0.88950,-4.967302084
0.89000,-4.967302084
0.89050,-4.051718861
0.89100,-3.136135638
0.89150,-2.83094123
0.89200,-3.441330045
0.89250,-4.051718861
0.89300,-3.746524453
0.89350,-3.136135638
0.89400,-3.136135638
0.89450,-3.746524453
0.89500,-4.356913269
0.89550,-5.882885307
0.89600,-7.408857346
0.89650,-7.714051753
0.89700,-5.882885307
0.89750,-3.136135638
0.89800,-2.220552415
0.89850,-2.83094123
0.89900,-2.83094123
0.89950,-1.304969192
0.90000,0.221002847
0.90050,-0.08419156075
0.90100,-1.915358007
0.90150,-3.441330045
0.90200,-3.136135638
0.90250,-2.220552415
0.90300,-2.220552415
0.90350,-3.441330045
0.90400,-4.356913269
0.90450,-4.356913269
0.90500,-3.441330045
0.90550,-2.220552415
0.90600,-1.610163599
0.90650,-2.220552415
0.90700,-2.83094123
0.90750,-3.441330045
0.90800,-3.746524453
0.90850,-4.356913269
0.90900,-4.967302084
0.90950,-4.967302084
0.91000,-3.441330045
0.91050,-1.915358007
0.91100,-1.610163599
0.91150,-3.136135638
0.91200,-4.967302084
0.91250,-5.272496492
0.91300,-4.356913269
0.91350,-3.136135638
0.91400,-1.915358007
0.91450,-1.304969192
0.91500,-0.3893859684
0.91550,-0.3893859684
0.91600,-0.6945803761
0.91650,-0.08419156075
0.91700,1.13658607
0.91750,2.357363701
0.91800,2.662558109
0.91850,2.357363701
0.91900,2.662558109
0.91950,2.357363701
0.92000,1.13658607
0.92050,-0.08419156075
0.92100,-0.08419156075
0.92150,0.8313916624
0.92200,1.13658607
0.92250,0.8313916624
0.92300,1.746974885
0.92350,2.662558109
0.92400,2.967752516
0.92450,2.357363701
0.92500,1.746974885
0.92550,0.8313916624
0.92600,0.8313916624
0.92650,1.746974885
0.92700,3.272946924
0.92750,3.272946924
0.92800,1.441780478
0.92850,0.8313916624
0.92900,3.272946924
0.92950,5.10411337
0.93000,4.188530147
0.93050,1.746974885
0.93100,2.052169293
0.93150,4.493724555
0.93200,5.10411337
0.93250,3.578141332
0.93300,2.662558109
0.93350,3.272946924
0.93400,3.272946924
0.93450,2.662558109
0.93500,3.883335739
0.93550,6.019696593
0.93600,6.019696593
0.93650,3.883335739
0.93700,2.967752516
0.93750,3.272946924
0.93800,3.272946924
0.93850,1.746974885
0.93900,0.8313916624
0.93950,2.052169293
0.94000,2.662558109
0.94050,1.746974885
0.94100,1.13658607
0.94150,2.357363701
0.94200,4.188530147
0.94250,5.10411337
0.94300,5.714502186
0.94350,6.019696593
0.94400,4.493724555
0.94450,1.13658607
0.94500,-0.6945803761
0.94550,-0.08419156075
0.94600,1.746974885
0.94650,2.967752516
0.94700,3.578141332
0.94750,3.883335739
0.94800,3.578141332
0.94850,2.357363701
0.94900,1.746974885
0.94950,2.662558109
0.95000,3.883335739
0.95050,4.493724555
0.95100,4.188530147
0.95150,4.188530147
0.95200,4.188530147
0.95250,3.272946924
0.95300,2.662558109
0.95350,2.662558109
0.95400,2.662558109
0.95450,2.357363701
0.95500,2.357363701
0.95550,2.662558109
0.95600,2.052169293
0.95650,0.8313916624
0.95700,0.8313916624
0.95750,2.052169293
0.95800,3.272946924
0.95850,2.357363701
0.95900,1.746974885
0.95950,2.357363701
0.96000,3.272946924
0.96050,3.883335739
0.96100,3.578141332
0.96150,3.578141332
0.96200,3.578141332
0.96250,2.662558109
0.96300,0.8313916624
0.96350,-0.3893859684
0.96400,-0.9997747838
0.96450,-1.304969192
0.96500,-1.610163599
0.96550,-1.610163599
0.96600,-1.610163599
0.96650,-0.9997747838
0.96700,0.221002847
0.96750,1.441780478
0.96800,1.441780478
0.96850,0.5261972547
0.96900,0.5261972547
0.96950,0.8313916624
0.97000,0.5261972547
0.97050,-0.3893859684
0.97100,-0.9997747838
0.97150,-0.6945803761
0.97200,-0.6945803761
0.97250,-0.9997747838
0.97300,-0.9997747838
0.97350,-0.3893859684
0.97400,-0.3893859684
0.97450,-0.6945803761
0.97500,-0.6945803761
0.97550,-0.08419156075
0.97600,-0.3893859684
0.97650,-0.9997747838
0.97700,-0.08419156075
0.97750,2.662558109
0.97800,4.798918962
0.97850,3.883335739
0.97900,1.746974885
0.97950,0.8313916624
0.98000,1.13658607
0.98050,1.441780478
0.98100,1.13658607
0.98150,1.13658607
0.98200,0.5261972547
0.98250,-0.3893859684
0.98300,-2.220552415
0.98350,-2.525746822
0.98400,-1.610163599
0.98450,-0.6945803761
0.98500,-0.3893859684
0.98550,-0.6945803761
0.98600,-0.3893859684
0.98650,-0.08419156075
0.98700,-0.3893859684
0.98750,-0.3893859684
0.98800,-0.08419156075
0.98850,0.8313916624
0.98900,1.13658607
0.98950,1.13658607
0.99000,1.441780478
0.99050,2.052169293
0.99100,1.746974885
0.99150,0.221002847
0.99200,-0.9997747838
0.99250,-1.610163599
0.99300,-1.304969192
0.99350,-1.304969192
0.99400,-0.9997747838
0.99450,-0.3893859684
0.99500,-0.08419156075
0.99550,-0.6945803761
0.99600,-1.304969192
0.99650,-0.6945803761
0.99700,-0.08419156075
0.99750,-0.3893859684
0.99800,-0.9997747838
0.99850,0.5261972547
0.99900,2.967752516
0.99950,3.883335739
1.00000,2.052169293
1.00050,0.5261972547
1.00100,1.13658607
1.00150,2.662558109
1.00200,2.357363701
1.00250,0.8313916624
1.00300,-0.08419156075
1.00350,0.221002847
1.00400,0.8313916624
1.00450,0.221002847
1.00500,-0.3893859684
1.00550,-0.08419156075
1.00600,1.13658607
1.00650,1.13658607
1.00700,-0.3893859684
1.00750,-2.220552415
1.00800,-1.915358007
1.00850,0.221002847
1.00900,2.052169293
1.00950,1.441780478
1.01000,-0.6945803761
1.01050,-2.220552415
1.01100,-2.220552415
1.01150,-1.610163599
1.01200,-1.304969192
1.01250,-2.220552415
1.01300,-2.525746822
1.01350,-2.220552415
1.01400,-1.304969192
1.01450,-0.3893859684
1.01500,-0.08419156075
1.01550,-0.08419156075
1.01600,-0.08419156075
1.01650,-0.6945803761
1.01700,-1.610163599
1.01750,-1.915358007
1.01800,-1.915358007
1.01850,-2.220552415
1.01900,-2.220552415
1.01950,-1.304969192
1.02000,-0.08419156075
1.02050,-0.08419156075
1.02100,-0.3893859684
1.02150,-0.3893859684
1.02200,0.8313916624
1.02250,1.441780478
1.02300,-0.08419156075
1.02350,-0.6945803761
1.02400,-0.08419156075
1.02450,1.441780478
1.02500,1.441780478
1.02550,0.8313916624
1.02600,1.746974885
1.02650,2.967752516
1.02700,2.357363701
1.02750,0.221002847
1.02800,-0.08419156075
1.02850,1.441780478
1.02900,2.052169293
1.02950,0.5261972547
1.03000,-0.08419156075
1.03050,0.5261972547
1.03100,1.441780478
1.03150,0.8313916624
1.03200,-0.08419156075
1.03250,1.13658607
1.03300,2.052169293
1.03350,1.441780478
1.03400,0.221002847
1.03450,0.8313916624
1.03500,2.052169293
1.03550,2.052169293
1.03600,1.13658607
1.03650,1.441780478
1.03700,2.662558109
1.03750,2.662558109
1.03800,1.441780478
1.03850,0.8313916624
1.03900,1.13658607
1.03950,1.13658607
1.04000,0.8313916624
1.04050,0.221002847
1.04100,0.221002847
1.04150,1.441780478
1.04200,2.967752516
1.04250,3.883335739
1.04300,2.967752516
1.04350,0.5261972547
1.04400,-0.9997747838
1.04450,-0.6945803761
1.04500,0.8313916624
1.04550,2.662558109
1.04600,3.578141332
1.04650,3.272946924
1.04700,1.441780478
1.04750,-0.08419156075
1.04800,-1.304969192
1.04850,-1.610163599
1.04900,-1.610163599
1.04950,-2.83094123
1.05000,-4.051718861
1.05050,-3.441330045
1.05100,-1.915358007
1.05150,-1.304969192
1.05200,-1.610163599
1.05250,-0.9997747838
1.05300,0.221002847
1.05350,0.8313916624
1.05400,0.221002847
1.05450,-0.6945803761
1.05500,-1.304969192
1.05550,-1.304969192
1.05600,-1.610163599
1.05650,-1.915358007
1.05700,-1.610163599
1.05750,-0.9997747838
1.05800,-0.9997747838
1.05850,-0.9997747838
1.05900,-0.6945803761
1.05950,-0.08419156075
1.06000,-0.08419156075
1.06050,-0.9997747838
1.06100,-3.136135638
1.06150,-4.356913269
1.06200,-3.441330045
1.06250,-0.9997747838
1.06300,0.221002847
1.06350,-0.08419156075
1.06400,-1.610163599
1.06450,-1.915358007
1.06500,-0.6945803761
1.06550,0.5261972547
1.06600,1.746974885
1.06650,1.746974885
1.06700,-0.08419156075
1.06750,-2.525746822
1.06800,-4.356913269
1.06850,-2.83094123
1.06900,-0.6945803761
1.06950,-0.08419156075
1.07000,-1.304969192
1.07050,-1.915358007
1.07100,-0.3893859684
1.07150,0.5261972547
1.07200,0.5261972547
1.07250,-0.08419156075
1.07300,-0.08419156075
1.07350,0.8313916624
1.07400,0.8313916624
1.07450,0.221002847
1.07500,0.5261972547
1.07550,0.8313916624
1.07600,1.13658607
1.07650,0.8313916624
1.07700,0.8313916624
1.07750,0.8313916624
1.07800,0.5261972547
1.07850,0.5261972547
1.07900,1.441780478
1.07950,2.967752516
1.08000,3.272946924
1.08050,1.746974885
1.08100,-0.08419156075
1.08150,-1.304969192
1.08200,-1.610163599
1.08250,-1.610163599
1.08300,-1.304969192
1.08350,-1.610163599
1.08400,-1.915358007
1.08450,-1.304969192
1.08500,-0.08419156075
1.08550,0.221002847
1.08600,-0.08419156075
1.08650,-1.304969192
1.08700,-1.610163599
1.08750,-0.6945803761
1.08800,-0.08419156075
1.08850,0.5261972547
1.08900,0.8313916624
1.08950,0.5261972547
1.09000,0.221002847
1.09050,0.221002847
1.09100,0.221002847
1.09150,-0.08419156075
1.09200,-0.9997747838
1.09250,-2.525746822
1.09300,-3.441330045
1.09350,-3.441330045
1.09400,-2.525746822
1.09450,-1.610163599
1.09500,-0.6945803761
1.09550,-0.08419156075
1.09600,-0.08419156075
1.09650,-0.6945803761
1.09700,-0.9997747838
1.09750,-1.610163599
1.09800,-1.915358007
1.09850,-1.915358007
1.09900,-1.610163599
1.09950,-1.304969192
1.10000,-1.610163599
1.10050,-2.220552415
1.10100,-2.220552415
1.10150,-1.610163599
1.10200,-1.304969192
1.10250,-1.304969192
1.10300,-1.610163599
1.10350,-1.915358007
1.10400,-2.220552415
1.10450,-1.915358007
1.10500,-1.304969192
1.10550,-0.08419156075
1.10600,0.221002847
1.10650,-0.08419156075
1.10700,-0.3893859684
1.10750,-0.3893859684
1.10800,-0.08419156075
1.10850,-0.9997747838
1.10900,-2.525746822
1.10950,-3.441330045
1.11000,-3.441330045
1.11050,-3.746524453
1.11100,-4.051718861
1.11150,-3.136135638
1.11200,-2.220552415
1.11250,-2.220552415
1.11300,-2.83094123
1.11350,-2.220552415
1.11400,-0.3893859684
1.11450,0.221002847
1.11500,-0.6945803761
1.11550,-2.220552415
1.11600,-2.220552415
1.11650,-0.9997747838
1.11700,-0.3893859684
1.11750,-0.9997747838
1.11800,-1.610163599
1.11850,-1.304969192
1.11900,-0.3893859684
1.11950,0.5261972547
1.12000,1.441780478
1.12050,1.441780478
1.12100,1.441780478
1.12150,0.8313916624
1.12200,0.8313916624
1.12250,0.5261972547
1.12300,0.221002847
1.12350,0.221002847
1.12400,0.8313916624
1.12450,1.13658607
1.12500,1.13658607
1.12550,0.8313916624
1.12600,-0.08419156075
1.12650,-0.3893859684
1.12700,-0.3893859684
1.12750,-0.3893859684
1.12800,-0.08419156075
1.12850,-0.6945803761
1.12900,-1.304969192
1.12950,-1.610163599
1.13000,-1.304969192
1.13050,-0.6945803761
1.13100,-0.6945803761
1.13150,-0.6945803761
1.13200,-0.9997747838
1.13250,-1.610163599
1.13300,-2.83094123
1.13350,-3.746524453
1.13400,-3.746524453
1.13450,-3.746524453
1.13500,-3.136135638
1.13550,-2.220552415
1.13600,-0.6945803761
1.13650,-0.08419156075
1.13700,-1.304969192
1.13750,-3.441330045
1.13800,-3.746524453
1.13850,-1.610163599
1.13900,-0.08419156075
1.13950,-0.08419156075
1.14000,-0.6945803761
1.14050,-0.08419156075
1.14100,1.13658607
1.14150,1.746974885
1.14200,2.052169293
1.14250,3.272946924
1.14300,3.578141332
1.14350,1.746974885
1.14400,-0.9997747838
1.14450,-2.220552415
1.14500,-0.9997747838
1.14550,-0.08419156075
1.14600,-0.3893859684
1.14650,-0.9997747838
1.14700,0.221002847
1.14750,2.357363701
1.14800,2.967752516
1.14850,1.746974885
1.14900,-0.08419156075
1.14950,-1.304969192
1.15000,-1.610163599
1.15050,-1.610163599
1.15100,-1.610163599
1.15150,-2.525746822
1.15200,-4.356913269
1.15250,-4.967302084
1.15300,-3.136135638
1.15350,-0.9997747838
1.15400,-0.08419156075
1.15450,-0.3893859684
1.15500,-0.08419156075
1.15550,0.8313916624
1.15600,0.5261972547
1.15650,-1.304969192
1.15700,-3.441330045
1.15750,-3.441330045
1.15800,-2.220552415
1.15850,-0.9997747838
1.15900,-0.3893859684
1.15950,-0.08419156075
1.16000,0.8313916624
1.16050,0.8313916624
1.16100,0.5261972547
1.16150,0.221002847
1.16200,-0.08419156075
1.16250,-0.08419156075
1.16300,-0.6945803761
1.16350,-1.304969192
1.16400,-1.915358007
1.16450,-3.441330045
1.16500,-4.356913269
1.16550,-3.746524453
1.16600,-1.304969192
1.16650,0.221002847
1.16700,0.221002847
1.16750,-0.08419156075
1.16800,-0.08419156075
1.16850,-0.08419156075
1.16900,-0.08419156075
1.16950,-0.6945803761
1.17000,-0.3893859684
1.17050,-0.08419156075
1.17100,-0.08419156075
1.17150,-1.610163599
1.17200,-2.525746822
1.17250,-1.915358007
1.17300,-0.9997747838
1.17350,-0.6945803761
1.17400,-1.304969192
1.17450,-1.915358007
1.17500,-2.220552415
1.17550,-2.525746822
1.17600,-2.525746822
1.17650,-2.220552415
1.17700,-1.915358007
1.17750,-1.610163599
1.17800,-1.304969192
1.17850,-0.3893859684
1.17900,-0.08419156075
1.17950,0.221002847
1.18000,-0.3893859684
1.18050,-1.304969192
1.18100,-1.304969192
1.18150,-0.9997747838
1.18200,-0.6945803761
1.18250,-0.6945803761
1.18300,-0.3893859684
1.18350,-0.08419156075
1.18400,-0.08419156075
1.18450,0.5261972547
1.18500,0.5261972547
1.18550,0.221002847
1.18600,-0.3893859684
1.18650,-0.6945803761
1.18700,-0.08419156075
1.18750,0.5261972547
1.18800,0.221002847
1.18850,-0.3893859684
1.18900,-0.6945803761
1.18950,-0.08419156075
1.19000,-0.08419156075
1.19050,-0.08419156075
1.19100,-0.3893859684
1.19150,0.221002847
1.19200,0.8313916624
1.19250,0.5261972547
1.19300,-0.08419156075
1.19350,0.8313916624
1.19400,2.357363701
1.19450,2.967752516
1.19500,1.746974885
1.19550,-0.08419156075
1.19600,-0.6945803761
1.19650,-0.3893859684
1.19700,-0.08419156075
1.19750,-0.08419156075
1.19800,-0.08419156075
1.19850,1.13658607
1.19900,2.052169293
1.19950,2.967752516
1.20000,2.662558109
1.20050,2.052169293
1.20100,1.746974885
1.20150,1.746974885
1.20200,1.746974885
1.20250,1.746974885
1.20300,1.746974885
1.20350,2.357363701
1.20400,3.272946924
1.20450,3.883335739
1.20500,3.883335739
1.20550,3.578141332
1.20600,3.578141332
1.20650,3.883335739
1.20700,3.578141332
1.20750,2.662558109
1.20800,1.441780478
1.20850,1.441780478
1.20900,2.052169293
1.20950,2.357363701
1.21000,2.967752516
1.21050,3.578141332
1.21100,4.188530147
1.21150,4.493724555
1.21200,4.188530147
1.21250,3.883335739
1.21300,3.883335739
1.21350,4.188530147
1.21400,4.188530147
1.21450,4.493724555
1.21500,5.10411337
1.21550,5.10411337
1.21600,3.883335739
1.21650,2.357363701
1.21700,0.8313916624
1.21750,-0.08419156075
1.21800,-0.6945803761
1.21850,-0.6945803761
1.21900,0.221002847
1.21950,1.441780478
1.22000,2.357363701
1.22050,2.357363701
1.22100,1.13658607
1.22150,-0.08419156075
1.22200,-0.08419156075
1.22250,1.441780478
1.22300,3.578141332
1.22350,4.493724555
1.22400,4.493724555
1.22450,4.493724555
1.22500,5.10411337
1.22550,6.324891001
1.22600,7.240474224
1.22650,8.461251855
1.22700,9.376835078
1.22750,9.682029486
1.22800,9.07164067
1.22850,6.935279816
1.22900,4.798918962
1.22950,3.883335739
1.23000,4.798918962
1.23050,6.324891001
1.23100,6.630085409
1.23150,5.714502186
1.23200,3.883335739
1.23250,2.967752516
1.23300,2.662558109
1.23350,2.967752516
1.23400,3.578141332
1.23450,4.493724555
1.23500,4.798918962
1.23550,4.493724555
1.23600,3.883335739
1.23650,3.578141332
1.23700,3.883335739
1.23750,4.188530147
1.23800,4.188530147
1.23850,3.578141332
1.23900,3.883335739
1.23950,5.10411337
1.24000,5.409307778
1.24050,4.493724555
1.24100,3.272946924
1.24150,2.967752516
1.24200,3.272946924
1.24250,2.967752516
1.24300,1.746974885
1.24350,1.13658607
1.24400,0.5261972547
1.24450,-0.6945803761
1.24500,-3.441330045
1.24550,-5.882885307
1.24600,-7.103662938
1.24650,-8.019246161
1.24700,-9.240023792
1.24750,-10.46080142
1.24800,-10.15560701
1.24850,-8.629634976
1.24900,-7.408857346
1.24950,-7.103662938
1.25000,-8.019246161
1.25050,-9.545218199
1.25100,-11.37638465
1.25150,-13.5127455
1.25200,-14.12313432
1.25250,-13.20755109
1.25300,-11.37638465
1.25350,-10.15560701
1.25400,-10.46080142
1.25450,-10.76599583
1.25500,-9.850412607
1.25550,-8.629634976
1.25600,-8.629634976
1.25650,-9.240023792
1.25700,-8.934829384
1.25750,-7.408857346
1.25800,-6.188079715
1.25850,-6.79846853
1.25900,-8.324440569
1.25950,-9.240023792
1.26000,-8.629634976
1.26050,-5.882885307
1.26100,-2.83094123
1.26150,-1.915358007
1.26200,-2.220552415
1.26250,-2.220552415
1.26300,-0.9997747838
1.26350,-0.6945803761
1.26400,-2.525746822
1.26450,-4.662107676
1.26500,-4.051718861
1.26550,-2.220552415
1.26600,-2.525746822
1.26650,-4.356913269
1.26700,-3.746524453
1.26750,-0.9997747838
1.26800,0.221002847
1.26850,-0.3893859684
1.26900,-0.3893859684
1.26950,1.746974885
1.27000,3.883335739
1.27050,3.272946924
1.27100,2.357363701
1.27150,3.578141332
1.27200,5.714502186
1.27250,6.019696593
1.27300,4.798918962
1.27350,3.883335739
1.27400,4.798918962
1.27450,6.019696593
1.27500,6.630085409
1.27550,6.324891001
1.27600,4.188530147
1.27650,1.746974885
1.27700,0.221002847
1.27750,0.8313916624
1.27800,2.357363701
1.27850,1.746974885
1.27900,0.221002847
1.27950,-0.08419156075
1.28000,0.8313916624
1.28050,2.357363701
1.28100,2.662558109
1.28150,2.052169293
1.28200,1.441780478
1.28250,1.13658607
1.28300,1.13658607
1.28350,1.746974885
1.28400,2.662558109
1.28450,2.967752516
1.28500,2.967752516
1.28550,2.967752516
1.28600,3.883335739
1.28650,5.10411337
1.28700,5.10411337
1.28750,4.493724555
1.28800,3.578141332
1.28850,3.578141332
1.28900,4.188530147
1.28950,5.10411337
1.29000,5.10411337
1.29050,4.493724555
1.29100,4.188530147
1.29150,5.10411337
1.29200,6.019696593
1.29250,5.409307778
1.29300,3.883335739
1.29350,2.052169293
1.29400,1.13658607
1.29450,1.441780478
1.29500,2.052169293
1.29550,2.357363701
1.29600,2.052169293
1.29650,2.052169293
1.29700,2.357363701
1.29750,2.967752516
1.29800,3.578141332
1.29850,4.188530147
1.29900,5.10411337
1.29950,6.324891001
1.30000,6.935279816
1.30050,6.019696593
1.30100,4.188530147
1.30150,2.662558109
1.30200,2.357363701
1.30250,3.272946924
1.30300,4.493724555
1.30350,6.019696593
1.30400,7.545668632
1.30450,8.156057447
1.30500,6.935279816
1.30550,4.493724555
1.30600,2.967752516
1.30650,3.578141332
1.30700,5.409307778
1.30750,6.324891001
1.30800,4.798918962
1.30850,2.967752516
1.30900,2.357363701
1.30950,3.272946924
1.31000,4.188530147
1.31050,3.883335739
1.31100,3.883335739
1.31150,4.493724555
1.31200,4.798918962
1.31250,5.10411337
1.31300,6.019696593
1.31350,7.850863039
1.31400,9.07164067
1.31450,8.156057447
1.31500,6.324891001
1.31550,6.324891001
1.31600,7.850863039
1.31650,9.376835078
1.31700,10.2924183
1.31750,10.90280712
1.31800,11.81839034
1.31850,12.42877916
1.31900,12.42877916
1.31950,12.12358475
1.32000,11.51319593
1.32050,11.20800152
1.32100,10.59761271
1.32150,10.90280712
1.32200,12.12358475
1.32250,13.34436238
1.32300,14.2599456
1.32350,13.95475119
1.32400,13.34436238
1.32450,13.34436238
1.32500,13.64955679
1.32550,14.56514001
1.32600,14.56514001
1.32650,13.03916797
1.32700,10.2924183
1.32750,7.545668632
1.32800,5.714502186
1.32850,3.578141332
1.32900,1.441780478
1.32950,0.8313916624
1.33000,1.746974885
1.33050,2.357363701
1.33100,0.8313916624
1.33150,-0.6945803761
1.33200,-0.3893859684
1.33250,-0.08419156075
1.33300,-1.915358007
1.33350,-6.79846853
1.33400,-11.98677346
1.33450,-15.34391195
1.33500,-17.78546721
1.33550,-19.61663365
1.33600,-21.14260569
1.33650,-22.36338332
1.33700,-24.49974418
1.33750,-26.94129944
1.33800,-29.07766029
1.33850,-30.60363233
1.33900,-32.73999318
1.33950,-33.96077082
1.34000,-32.12960437
1.34050,-27.85688266
1.34100,-24.49974418
1.34150,-23.88935536
1.34200,-24.19454977
1.34250,-23.58416095
1.34300,-22.66857773
1.34350,-22.97377214
1.34400,-23.88935536
1.34450,-23.88935536
1.34500,-23.58416095
1.34550,-23.27896655
1.34600,-22.05818892
1.34650,-19.31143925
1.34700,-16.56468958
1.34750,-15.95430076
1.34800,-16.86988398
1.34850,-18.39585602
1.34900,-18.70105043
1.34950,-17.4802728
1.35000,-16.25949517
1.35050,-15.95430076
1.35100,-17.17507839
1.35150,-18.70105043
1.35200,-18.70105043
1.35250,-16.86988398
1.35300,-15.03871754
1.35350,-13.5127455
1.35400,-12.29196787
1.35450,-11.37638465
1.35500,-10.76599583
1.35550,-11.07119024
1.35600,-11.68157905
1.35650,-12.59716228
1.35700,-14.12313432
1.35750,-15.95430076
1.35800,-17.78546721
1.35850,-19.00624484
1.35900,-18.70105043
1.35950,-16.86988398
1.36000,-13.81793991
1.36050,-11.37638465
1.36100,-10.76599583
1.36150,-11.68157905
1.36200,-11.68157905
1.36250,-10.15560701
1.36300,-8.019246161
1.36350,-7.408857346
1.36400,-8.324440569
1.36450,-8.324440569
1.36500,-6.188079715
1.36550,-2.525746822
1.36600,0.5261972547
1.36650,2.052169293
1.36700,2.967752516
1.36750,2.967752516
1.36800,2.662558109
1.36850,1.746974885
1.36900,0.8313916624
1.36950,1.13658607
1.37000,2.052169293
1.37050,2.357363701
1.37100,2.052169293
1.37150,2.357363701
1.37200,4.188530147
1.37250,6.630085409
1.37300,7.850863039
1.37350,7.850863039
1.37400,8.461251855
1.37450,9.987223893
1.37500,10.90280712
1.37550,10.59761271
1.37600,9.987223893
1.37650,9.987223893
1.37700,10.59761271
1.37750,11.51319593
1.37800,13.03916797
1.37850,13.64955679
1.37900,13.03916797
1.37950,10.90280712
1.38000,9.376835078
1.38050,9.376835078
1.38100,10.2924183
1.38150,10.90280712
1.38200,10.2924183
1.38250,8.766446263
1.38300,6.935279816
1.38350,6.019696593
1.38400,7.240474224
1.38450,8.766446263
1.38500,8.461251855
1.38550,6.935279816
1.38600,6.935279816
1.38650,8.156057447
1.38700,8.461251855
1.38750,5.409307778
1.38800,0.8313916624
1.38850,-1.915358007
1.38900,-4.051718861
1.38950,-6.79846853
1.39000,-9.850412607
1.39050,-11.37638465
1.39100,-11.37638465
1.39150,-11.07119024
1.39200,-11.07119024
1.39250,-9.850412607
1.39300,-6.493274122
1.39350,-3.441330045
1.39400,-2.525746822
1.39450,-2.83094123
1.39500,-2.525746822
1.39550,-1.304969192
1.39600,-0.08419156075
1.39650,0.5261972547
1.39700,1.441780478
1.39750,2.357363701
1.39800,2.052169293
1.39850,0.8313916624
1.39900,-0.08419156075
1.39950,0.8313916624
1.40000,2.357363701
1.40050,3.272946924
1.40100,2.967752516
1.40150,2.662558109
1.40200,3.883335739
1.40250,5.714502186
1.40300,6.630085409
1.40350,6.630085409
1.40400,6.630085409
1.40450,8.156057447
1.40500,9.987223893
1.40550,10.59761271
1.40600,9.987223893
1.40650,9.987223893
1.40700,10.90280712
1.40750,11.81839034
1.40800,11.81839034
1.40850,11.81839034
1.40900,12.73397356
1.40950,14.2599456
1.41000,14.87033442
1.41050,15.48072323
1.41100,17.00669527
1.41150,18.83786172
1.41200,18.83786172
1.41250,17.61708409
1.41300,17.92227849
1.41350,20.97422257
1.41400,24.02616665
1.41450,25.85733309
1.41500,26.1625275
1.41550,26.1625275
1.41600,26.46772191
1.41650,25.85733309
1.41700,24.94174987
1.41750,22.80538902
1.41800,19.14305612
1.41850,14.87033442
1.41900,10.90280712
1.41950,7.545668632
1.42000,4.188530147
1.42050,1.13658607
1.42100,0.8313916624
1.42150,2.357363701
1.42200,3.272946924
1.42250,3.272946924
1.42300,4.188530147
1.42350,6.019696593
1.42400,5.409307778
1.42450,-0.08419156075
1.42500,-5.577690899
1.42550,-7.714051753
1.42600,-5.577690899
1.42650,-3.136135638
1.42700,-2.525746822
1.42750,-3.746524453
1.42800,-3.746524453
1.42850,-2.220552415
1.42900,-0.9997747838
1.42950,-0.9997747838
1.43000,-2.525746822
1.43050,-3.746524453
1.43100,-4.967302084
1.43150,-7.103662938
1.43200,-10.15560701
1.43250,-12.90235668
1.43300,-14.12313432
1.43350,-15.64910635
1.43400,-18.39585602
1.43450,-20.22702247
1.43500,-18.70105043
1.43550,-15.64910635
1.43600,-14.73352313
1.43650,-15.64910635
1.43700,-16.56468958
1.43750,-17.4802728
1.43800,-19.92182806
1.43850,-22.97377214
1.43900,-23.27896655
1.43950,-21.14260569
1.44000,-20.22702247
1.44050,-21.4478001
1.44100,-20.83741128
1.44150,-17.17507839
1.44200,-14.42832872
1.44250,-14.12313432
1.44300,-14.12313432
1.44350,-11.07119024
1.44400,-7.714051753
1.44450,-7.408857346
1.44500,-9.850412607
1.44550,-11.37638465
1.44600,-11.37638465
1.44650,-11.98677346
1.44700,-14.12313432
1.44750,-16.25949517
1.44800,-17.4802728
1.44850,-18.70105043
1.44900,-19.31143925
1.44950,-19.31143925
1.45000,-17.78546721
1.45050,-14.42832872
1.45100,-11.07119024
1.45150,-9.240023792
1.45200,-10.46080142
1.45250,-12.90235668
1.45300,-14.42832872
1.45350,-14.73352313
1.45400,-15.64910635
1.45450,-16.56468958
1.45500,-15.64910635
1.45550,-11.98677346
1.45600,-8.019246161
1.45650,-6.493274122
1.45700,-6.79846853
1.45750,-6.188079715
1.45800,-4.967302084
1.45850,-4.356913269
1.45900,-5.272496492
1.45950,-6.188079715
1.46000,-6.493274122
1.46050,-5.577690899
1.46100,-2.525746822
1.46150,1.13658607
1.46200,3.272946924
1.46250,2.357363701
1.46300,0.5261972547
1.46350,0.221002847
1.46400,1.13658607
1.46450,1.746974885
1.46500,1.746974885
1.46550,2.357363701
1.46600,2.662558109
1.46650,2.357363701
1.46700,1.441780478
1.46750,1.441780478
1.46800,2.357363701
1.46850,2.967752516
1.46900,2.662558109
1.46950,2.662558109
1.47000,4.188530147
1.47050,6.630085409
1.47100,8.766446263
1.47150,9.987223893
1.47200,9.682029486
1.47250,8.766446263
1.47300,8.156057447
1.47350,8.461251855
1.47400,8.461251855
1.47450,7.545668632
1.47500,7.545668632
1.47550,9.07164067
1.47600,10.90280712
1.47650,12.12358475
1.47700,13.34436238
1.47750,14.87033442
1.47800,15.78591764
1.47850,14.87033442
1.47900,14.2599456
1.47950,15.48072323
1.48000,17.61708409
1.48050,18.2274729
1.48100,18.53266731
1.48150,20.36383376
1.48200,22.80538902
1.48250,23.41577783
1.48300,21.58461139
1.48350,20.36383376
1.48400,21.58461139
1.48450,22.80538902
1.48500,21.88980579
1.48550,19.44825053
1.48600,18.53266731
1.48650,17.92227849
1.48700,17.31188968
1.48750,16.09111205
1.48800,15.78591764
1.48850,15.48072323
1.48900,15.17552882
1.48950,14.56514001
1.49000,14.56514001
1.49050,14.87033442
1.49100,13.95475119
1.49150,13.95475119
1.49200,15.78591764
1.49250,18.53266731
1.49300,19.14305612
1.49350,17.92227849
1.49400,18.2274729
1.49450,20.05863935
1.49500,20.97422257
1.49550,18.53266731
1.49600,15.48072323
1.49650,14.2599456
1.49700,14.2599456
1.49750,13.64955679
1.49800,12.12358475
1.49850,10.90280712
1.49900,8.766446263
1.49950,3.883335739
1.50000,-1.304969192
1.50050,-3.746524453
1.50100,-3.441330045
1.50150,-3.441330045
1.50200,-5.272496492
1.50250,-6.79846853
1.50300,-5.272496492
1.50350,-2.525746822
1.50400,-0.9997747838
1.50450,-1.610163599
1.50500,-1.610163599
1.50550,-0.08419156075
1.50600,2.662558109
1.50650,4.493724555
1.50700,5.714502186
1.50750,7.545668632
1.50800,8.766446263
1.50850,8.461251855
1.50900,6.324891001
1.50950,3.883335739
1.51000,0.8313916624
1.51050,-3.136135638
1.51100,-9.545218199
1.51150,-16.86988398
1.51200,-22.36338332
1.51250,-25.72052181
1.51300,-27.55168825
1.51350,-29.07766029
1.51400,-29.99324352
1.51450,-29.07766029
1.51500,-26.63610503
1.51550,-22.66857773
1.51600,-17.78546721
1.51650,-12.90235668
1.51700,-8.629634976
1.51750,-6.188079715
1.51800,-5.577690899
1.51850,-5.577690899
1.51900,-5.272496492
1.51950,-4.967302084
1.52000,-4.356913269
1.52050,-3.746524453
1.52100,-2.83094123
1.52150,-2.220552415
1.52200,-2.220552415
1.52250,-1.610163599
1.52300,-0.08419156075
1.52350,2.662558109
1.52400,4.188530147
1.52450,5.409307778
1.52500,6.324891001
1.52550,6.630085409
1.52600,4.798918962
1.52650,1.746974885
1.52700,-0.6945803761
1.52750,-2.525746822
1.52800,-3.441330045
1.52850,-3.136135638
1.52900,-1.610163599
1.52950,-1.304969192
1.53000,-3.746524453
1.53050,-8.019246161
1.53100,-11.37638465
1.53150,-13.5127455
1.53200,-16.86988398
1.53250,-21.4478001
1.53300,-23.88935536
1.53350,-23.27896655
1.53400,-21.75299451
1.53450,-22.05818892
1.53500,-23.27896655
1.53550,-22.66857773
1.53600,-20.22702247
1.53650,-16.86988398
1.53700,-14.12313432
1.53750,-11.98677346
1.53800,-10.46080142
1.53850,-9.545218199
1.53900,-8.629634976
1.53950,-7.714051753
1.54000,-7.103662938
1.54050,-7.714051753
1.54100,-7.408857346
1.54150,-5.272496492
1.54200,-1.610163599
1.54250,1.441780478
1.54300,3.883335739
1.54350,6.019696593
1.54400,8.461251855
1.54450,11.20800152
1.54500,13.34436238
1.54550,15.48072323
1.54600,16.09111205
1.54650,15.17552882
1.54700,12.42877916
1.54750,10.2924183
1.54800,10.59761271
1.54850,12.12358475
1.54900,12.12358475
1.54950,9.376835078
1.55000,5.10411337
1.55050,1.441780478
1.55100,-0.6945803761
1.55150,-2.83094123
1.55200,-4.967302084
1.55250,-5.882885307
1.55300,-6.188079715
1.55350,-6.493274122
1.55400,-6.493274122
1.55450,-5.577690899
1.55500,-4.356913269
1.55550,-4.967302084
1.55600,-7.408857346
1.55650,-9.545218199
1.55700,-10.15560701
1.55750,-8.629634976
1.55800,-6.188079715
1.55850,-3.746524453
1.55900,-0.9997747838
1.55950,1.13658607
1.56000,2.662558109
1.56050,2.967752516
1.56100,1.746974885
1.56150,0.221002847
1.56200,-0.6945803761
1.56250,-0.6945803761
1.56300,0.5261972547
1.56350,2.662558109
1.56400,5.409307778
1.56450,7.850863039
1.56500,8.156057447
1.56550,7.545668632
1.56600,7.240474224
1.56650,8.156057447
1.56700,9.07164067
1.56750,9.376835078
1.56800,10.59761271
1.56850,13.95475119
1.56900,17.00669527
1.56950,19.14305612
1.57000,20.36383376
1.57050,22.50019461
1.57100,24.63655546
1.57150,24.33136106
1.57200,22.1950002
1.57250,20.36383376
1.57300,19.44825053
1.57350,19.14305612
1.57400,18.2274729
1.57450,18.53266731
1.57500,19.14305612
1.57550,19.44825053
1.57600,19.44825053
1.57650,20.05863935
1.57700,21.27941698
1.57750,22.50019461
1.57800,22.50019461
1.57850,22.50019461
1.57900,23.41577783
1.57950,24.63655546
1.58000,25.55213869
1.58050,25.85733309
1.58100,26.1625275
1.58150,26.77291632
1.58200,27.07811072
1.58250,26.46772191
1.58300,24.02616665
1.58350,20.05863935
1.58400,15.17552882
1.58450,10.2924183
1.58500,5.714502186
1.58550,2.052169293
1.58600,-0.08419156075
1.58650,-0.3893859684
1.58700,-0.08419156075
1.58750,0.221002847
1.58800,-0.9997747838
1.58850,-3.441330045
1.58900,-4.051718861
1.58950,-2.220552415
1.59000,-0.08419156075
1.59050,0.8313916624
1.59100,0.8313916624
1.59150,1.441780478
1.59200,2.357363701
1.59250,2.662558109
1.59300,2.662558109
1.59350,4.188530147
1.59400,6.324891001
1.59450,6.935279816
1.59500,6.019696593
1.59550,4.493724555
1.59600,2.967752516
1.59650,0.5261972547
1.59700,-3.136135638
1.59750,-6.79846853
1.59800,-8.934829384
1.59850,-11.37638465
1.59900,-15.03871754
1.59950,-19.31143925
1.60000,-21.14260569
1.60050,-19.92182806
1.60100,-17.17507839
1.60150,-15.03871754
1.60200,-13.5127455
1.60250,-12.29196787
1.60300,-11.68157905
1.60350,-12.29196787
1.60400,-13.20755109
1.60450,-12.90235668
1.60500,-11.68157905
1.60550,-11.07119024
1.60600,-11.37638465
1.60650,-11.07119024
1.60700,-8.629634976
1.60750,-5.577690899
1.60800,-4.967302084
1.60850,-6.493274122
1.60900,-6.79846853
1.60950,-4.051718861
1.61000,-1.610163599
1.61050,-1.915358007
1.61100,-5.272496492
1.61150,-6.79846853
1.61200,-4.967302084
1.61250,-1.304969192
1.61300,0.8313916624
1.61350,1.13658607
1.61400,1.746974885
1.61450,3.578141332
1.61500,4.798918962
1.61550,3.578141332
1.61600,0.5261972547
1.61650,-1.304969192
1.61700,-0.9997747838
1.61750,-0.3893859684
1.61800,-0.08419156075
1.61850,0.5261972547
1.61900,1.746974885
1.61950,2.662558109
1.62000,1.746974885
1.62050,-0.08419156075
1.62100,-0.6945803761
1.62150,-1.304969192
1.62200,-2.83094123
1.62250,-5.272496492
1.62300,-6.493274122
1.62350,-5.272496492
1.62400,-3.746524453
1.62450,-3.441330045
1.62500,-3.441330045
1.62550,-1.610163599
1.62600,0.5261972547
1.62650,2.662558109
1.62700,3.883335739
1.62750,4.798918962
1.62800,6.630085409
1.62850,7.545668632
1.62900,6.935279816
1.62950,4.188530147
1.63000,1.441780478
1.63050,-0.3893859684
1.63100,-1.610163599
1.63150,-1.915358007
1.63200,-1.915358007
1.63250,-3.441330045
1.63300,-6.493274122
1.63350,-9.240023792
1.63400,-10.15560701
1.63450,-9.850412607
1.63500,-10.46080142
1.63550,-12.59716228
1.63600,-15.03871754
1.63650,-15.34391195
1.63700,-14.42832872
1.63750,-13.20755109
1.63800,-12.90235668
1.63850,-13.5127455
1.63900,-15.03871754
1.63950,-15.03871754
1.64000,-13.20755109
1.64050,-11.37638465
1.64100,-11.37638465
1.64150,-11.98677346
1.64200,-11.07119024
1.64250,-8.019246161
1.64300,-5.577690899
1.64350,-5.272496492
1.64400,-5.577690899
1.64450,-4.967302084
1.64500,-4.356913269
1.64550,-4.356913269
1.64600,-4.356913269
1.64650,-3.746524453
1.64700,-3.746524453
1.64750,-5.272496492
1.64800,-7.103662938
1.64850,-7.408857346
1.64900,-7.103662938
1.64950,-7.408857346
1.65000,-8.019246161
1.65050,-8.324440569
1.65100,-7.714051753
1.65150,-8.019246161
1.65200,-9.240023792
1.65250,-9.850412607
1.65300,-9.545218199
1.65350,-8.324440569
1.65400,-7.408857346
1.65450,-7.103662938
1.65500,-8.324440569
1.65550,-10.15560701
1.65600,-11.68157905
1.65650,-12.59716228
1.65700,-12.29196787
1.65750,-11.07119024
1.65800,-9.850412607
1.65850,-8.629634976
1.65900,-7.408857346
1.65950,-5.577690899
1.66000,-3.441330045
1.66050,-0.6945803761
1.66100,1.13658607
1.66150,2.967752516
1.66200,4.798918962
1.66250,7.545668632
1.66300,10.90280712
1.66350,13.64955679
1.66400,14.56514001
1.66450,13.95475119
1.66500,13.34436238
1.66550,14.2599456
1.66600,17.00669527
1.66650,18.83786172
1.66700,17.92227849
1.66750,14.2599456
1.66800,9.987223893
1.66850,5.714502186
1.66900,1.441780478
1.66950,-2.525746822
1.67000,-5.272496492
1.67050,-4.967302084
1.67100,-2.525746822
1.67150,-0.08419156075
1.67200,2.967752516
1.67250,5.714502186
1.67300,7.545668632
1.67350,8.461251855
1.67400,9.376835078
1.67450,10.90280712
1.67500,12.42877916
1.67550,13.34436238
1.67600,12.73397356
1.67650,13.03916797
1.67700,14.2599456
1.67750,16.70150086
1.67800,19.44825053
1.67850,20.97422257
1.67900,20.97422257
1.67950,18.2274729
1.68000,14.2599456
1.68050,10.90280712
1.68100,9.682029486
1.68150,8.766446263
1.68200,6.630085409
1.68250,3.578141332
1.68300,0.5261972547
1.68350,-1.610163599
1.68400,-3.746524453
1.68450,-5.577690899
1.68500,-6.493274122
1.68550,-8.019246161
1.68600,-11.68157905
1.68650,-17.4802728
1.68700,-22.05818892
1.68750,-22.66857773
1.68800,-19.61663365
1.68850,-16.56468958
1.68900,-15.95430076
1.68950,-17.4802728
1.69000,-19.00624484
1.69050,-19.61663365
1.69100,-19.31143925
1.69150,-19.31143925
1.69200,-19.00624484
1.69250,-16.25949517
1.69300,-11.37638465
1.69350,-6.493274122
1.69400,-3.136135638
1.69450,-1.915358007
1.69500,-0.6945803761
1.69550,1.13658607
1.69600,3.272946924
1.69650,4.798918962
1.69700,6.630085409
1.69750,9.376835078
1.69800,12.42877916
1.69850,14.56514001
1.69900,15.78591764
1.69950,16.70150086
1.70000,17.00669527
1.70050,17.00669527
1.70100,17.00669527
1.70150,16.09111205
1.70200,13.03916797
1.70250,7.545668632
1.70300,2.357363701
1.70350,-1.304969192
1.70400,-4.662107676
1.70450,-8.324440569
1.70500,-11.68157905
1.70550,-13.5127455
1.70600,-14.42832872
1.70650,-16.56468958
1.70700,-19.00624484
1.70750,-19.92182806
1.70800,-19.31143925
1.70850,-19.00624484
1.70900,-19.00624484
1.70950,-18.09066162
1.71000,-15.03871754
1.71050,-11.98677346
1.71100,-9.545218199
1.71150,-7.408857346
1.71200,-3.746524453
1.71250,-0.08419156075
1.71300,1.746974885
1.71350,4.188530147
1.71400,7.850863039
1.71450,11.81839034
1.71500,13.03916797
1.71550,11.20800152
1.71600,9.376835078
1.71650,9.07164067
1.71700,9.376835078
1.71750,8.461251855
1.71800,8.156057447
1.71850,9.07164067
1.71900,11.51319593
1.71950,13.03916797
1.72000,13.03916797
1.72050,11.81839034
1.72100,9.987223893
1.72150,5.714502186
1.72200,0.221002847
1.72250,-4.967302084
1.72300,-7.103662938
1.72350,-6.79846853
1.72400,-7.103662938
1.72450,-9.240023792
1.72500,-10.76599583
1.72550,-9.545218199
1.72600,-7.408857346
1.72650,-7.103662938
1.72700,-9.240023792
1.72750,-11.07119024
1.72800,-11.07119024
1.72850,-10.15560701
1.72900,-9.545218199
1.72950,-9.850412607
1.73000,-10.76599583
1.73050,-11.37638465
1.73100,-9.850412607
1.73150,-6.79846853
1.73200,-4.356913269
1.73250,-4.356913269
1.73300,-5.272496492
1.73350,-4.967302084
1.73400,-2.220552415
1.73450,0.221002847
1.73500,1.13658607
1.73550,1.746974885
1.73600,4.188530147
1.73650,8.156057447
1.73700,12.12358475
1.73750,13.95475119
1.73800,15.17552882
1.73850,16.70150086
1.73900,18.2274729
1.73950,18.53266731
1.74000,17.61708409
1.74050,16.09111205
1.74100,13.34436238
1.74150,8.766446263
1.74200,2.967752516
1.74250,-0.9997747838
1.74300,-2.220552415
1.74350,-2.83094123
1.74400,-5.272496492
1.74450,-9.850412607
1.74500,-14.12313432
1.74550,-15.95430076
1.74600,-15.64910635
1.74650,-14.12313432
1.74700,-12.29196787
1.74750,-9.850412607
1.74800,-7.408857346
1.74850,-4.967302084
1.74900,-2.525746822
1.74950,-0.3893859684
1.75000,-0.08419156075
1.75050,-1.304969192
1.75100,-4.356913269
1.75150,-7.714051753
1.75200,-9.850412607
1.75250,-10.76599583
1.75300,-11.68157905
1.75350,-12.90235668
1.75400,-14.42832872
1.75450,-15.03871754
1.75500,-13.5127455
1.75550,-10.76599583
1.75600,-8.324440569
1.75650,-6.493274122
1.75700,-4.662107676
1.75750,-2.83094123
1.75800,-0.6945803761
1.75850,0.5261972547
1.75900,1.746974885
1.75950,2.357363701
1.76000,2.967752516
1.76050,5.714502186
1.76100,10.2924183
1.76150,13.03916797
1.76200,11.20800152
1.76250,6.324891001
1.76300,2.967752516
1.76350,2.967752516
1.76400,4.493724555
1.76450,5.409307778
1.76500,6.324891001
1.76550,7.240474224
1.76600,7.850863039
1.76650,6.935279816
1.76700,6.630085409
1.76750,8.156057447
1.76800,10.2924183
1.76850,11.81839034
1.76900,12.12358475
1.76950,11.81839034
1.77000,11.20800152
1.77050,9.376835078
1.77100,7.545668632
1.77150,6.324891001
1.77200,3.272946924
1.77250,-2.83094123
1.77300,-10.46080142
1.77350,-15.03871754
1.77400,-14.73352313
1.77450,-12.59716228
1.77500,-13.5127455
1.77550,-16.56468958
1.77600,-17.4802728
1.77650,-13.5127455
1.77700,-7.714051753
1.77750,-5.882885307
1.77800,-8.934829384
1.77850,-11.37638465
1.77900,-9.850412607
1.77950,-5.577690899
1.78000,-3.136135638
1.78050,-2.83094123
1.78100,-2.525746822
1.78150,-1.304969192
1.78200,-0.3893859684
1.78250,-1.610163599
1.78300,-4.051718861
1.78350,-5.577690899
1.78400,-4.662107676
1.78450,-2.83094123
1.78500,-2.220552415
1.78550,-4.662107676
1.78600,-9.240023792
1.78650,-11.98677346
1.78700,-11.07119024
1.78750,-7.714051753
1.78800,-4.356913269
1.78850,-2.220552415
1.78900,-0.3893859684
1.78950,1.441780478
1.79000,2.967752516
1.79050,2.967752516
1.79100,1.746974885
1.79150,-0.08419156075
1.79200,-1.610163599
1.79250,-1.915358007
1.79300,-1.610163599
1.79350,-1.610163599
1.79400,-1.610163599
1.79450,-0.9997747838
1.79500,0.8313916624
1.79550,2.662558109
1.79600,3.883335739
1.79650,5.714502186
1.79700,8.156057447
1.79750,9.987223893
1.79800,9.682029486
1.79850,9.07164067
1.79900,9.07164067
1.79950,8.156057447
1.80000,4.798918962
1.80050,1.746974885
1.80100,2.052169293
1.80150,3.883335739
1.80200,3.578141332
1.80250,-0.08419156075
1.80300,-3.136135638
1.80350,-4.051718861
1.80400,-4.356913269
1.80450,-6.493274122
1.80500,-8.934829384
1.80550,-10.15560701
1.80600,-9.545218199
1.80650,-9.545218199
1.80700,-10.15560701
1.80750,-9.850412607
1.80800,-9.240023792
1.80850,-9.545218199
1.80900,-9.545218199
1.80950,-8.019246161
1.81000,-5.577690899
1.81050,-4.662107676
1.81100,-6.493274122
1.81150,-10.76599583
1.81200,-14.42832872
1.81250,-16.25949517
1.81300,-14.42832872
1.81350,-10.15560701
1.81400,-6.79846853
1.81450,-6.188079715
1.81500,-8.019246161
1.81550,-9.545218199
1.81600,-9.240023792
1.81650,-8.629634976
1.81700,-7.408857346
1.81750,-5.272496492
1.81800,-2.525746822
1.81850,-1.610163599
1.81900,-3.136135638
1.81950,-4.356913269
1.82000,-2.525746822
1.82050,2.662558109
1.82100,8.461251855
1.82150,10.90280712
1.82200,10.2924183
1.82250,9.07164067
1.82300,9.682029486
1.82350,10.90280712
1.82400,9.682029486
1.82450,6.324891001
1.82500,3.272946924
1.82550,2.357363701
1.82600,2.052169293
1.82650,0.221002847
1.82700,-1.915358007
1.82750,-2.525746822
1.82800,-1.304969192
1.82850,-0.9997747838
1.82900,-1.610163599
1.82950,-1.915358007
1.83000,-1.304969192
1.83050,-0.9997747838
1.83100,-0.9997747838
1.83150,-0.3893859684
1.83200,0.221002847
1.83250,-0.08419156075
1.83300,-1.610163599
1.83350,-1.915358007
1.83400,-0.3893859684
1.83450,0.8313916624
1.83500,1.13658607
1.83550,1.441780478
1.83600,2.357363701
1.83650,2.357363701
1.83700,1.441780478
1.83750,1.746974885
1.83800,4.188530147
1.83850,6.324891001
1.83900,5.714502186
1.83950,2.967752516
1.84000,1.441780478
1.84050,2.967752516
1.84100,5.409307778
1.84150,6.324891001
1.84200,4.798918962
1.84250,3.883335739
1.84300,5.714502186
1.84350,8.461251855
1.84400,8.766446263
1.84450,6.630085409
1.84500,6.019696593
1.84550,8.766446263
1.84600,12.12358475
1.84650,12.73397356
1.84700,12.42877916
1.84750,13.34436238
1.84800,14.87033442
1.84850,14.2599456
1.84900,13.03916797
1.84950,13.34436238
1.85000,14.2599456
1.85050,11.81839034
1.85100,6.935279816
1.85150,4.493724555
1.85200,7.545668632
1.85250,12.73397356
1.85300,15.48072323
1.85350,13.64955679
1.85400,8.766446263
1.85450,2.967752516
1.85500,-1.915358007
1.85550,-5.272496492
1.85600,-7.103662938
1.85650,-8.629634976
1.85700,-9.240023792
1.85750,-8.934829384
1.85800,-7.408857346
1.85850,-6.493274122
1.85900,-7.103662938
1.85950,-7.103662938
1.86000,-6.493274122
1.86050,-6.79846853
1.86100,-9.240023792
1.86150,-11.37638465
1.86200,-12.90235668
1.86250,-14.12313432
1.86300,-16.25949517
1.86350,-17.4802728
1.86400,-16.56468958
1.86450,-13.81793991
1.86500,-11.68157905
1.86550,-11.07119024
1.86600,-10.46080142
1.86650,-10.46080142
1.86700,-11.68157905
1.86750,-13.20755109
1.86800,-12.90235668
1.86850,-10.46080142
1.86900,-7.714051753
1.86950,-5.577690899
1.87000,-3.136135638
1.87050,1.441780478
1.87100,6.935279816
1.87150,8.461251855
1.87200,4.798918962
1.87250,-0.08419156075
1.87300,-1.915358007
1.87350,-0.6945803761
1.87400,2.052169293
1.87450,5.409307778
1.87500,9.987223893
1.87550,13.95475119
1.87600,15.48072323
1.87650,14.87033442
1.87700,15.17552882
1.87750,17.31188968
1.87800,20.36383376
1.87850,20.97422257
1.87900,20.36383376
1.87950,19.44825053
1.88000,18.2274729
1.88050,15.48072323
1.88100,11.51319593
1.88150,8.461251855
1.88200,6.630085409
1.88250,4.798918962
1.88300,2.052169293
1.88350,-0.6945803761
1.88400,-1.915358007
1.88450,-0.9997747838
1.88500,0.5261972547
1.88550,1.441780478
1.88600,0.5261972547
1.88650,-0.9997747838
1.88700,-2.525746822
1.88750,-4.051718861
1.88800,-4.967302084
1.88850,-5.577690899
1.88900,-6.493274122
1.88950,-7.714051753
1.89000,-8.324440569
1.89050,-7.408857346
1.89100,-5.272496492
1.89150,-3.441330045
1.89200,-2.83094123
1.89250,-2.525746822
1.89300,-2.83094123
1.89350,-3.441330045
1.89400,-4.662107676
1.89450,-4.967302084
1.89500,-3.746524453
1.89550,-1.610163599
1.89600,0.221002847
1.89650,2.662558109
1.89700,6.630085409
1.89750,10.59761271
1.89800,13.95475119
1.89850,16.39630646
1.89900,17.92227849
1.89950,17.92227849
1.90000,15.17552882
1.90050,11.81839034
1.90100,10.90280712
1.90150,13.03916797
1.90200,16.09111205
1.90250,16.70150086
1.90300,14.87033442
1.90350,12.42877916
1.90400,11.51319593
1.90450,11.51319593
1.90500,10.59761271
1.90550,8.156057447
1.90600,5.409307778
1.90650,4.188530147
1.90700,3.883335739
1.90750,3.578141332
1.90800,2.967752516
1.90850,2.662558109
1.90900,4.188530147
1.90950,7.240474224
1.91000,10.59761271
1.91050,12.73397356
1.91100,12.73397356
1.91150,10.59761271
1.91200,8.461251855
1.91250,8.461251855
1.91300,9.376835078
1.91350,8.766446263
1.91400,6.019696593
1.91450,3.883335739
1.91500,4.798918962
1.91550,8.461251855
1.91600,12.12358475
1.91650,13.64955679
1.91700,14.2599456
1.91750,15.78591764
1.91800,18.2274729
1.91850,19.44825053
1.91900,17.92227849
1.91950,15.48072323
1.92000,12.73397356
1.92050,9.07164067
1.92100,4.188530147
1.92150,-0.08419156075
1.92200,-2.525746822
1.92250,-3.441330045
1.92300,-3.746524453
1.92350,-3.441330045
1.92400,-2.220552415
1.92450,-0.9997747838
1.92500,-2.220552415
1.92550,-4.356913269
1.92600,-4.356913269
1.92650,-2.220552415
1.92700,-1.915358007
1.92750,-5.272496492
1.92800,-8.934829384
1.92850,-10.76599583
1.92900,-11.68157905
1.92950,-13.20755109
1.93000,-15.03871754
1.93050,-14.73352313
1.93100,-12.29196787
1.93150,-9.850412607
1.93200,-8.934829384
1.93250,-7.408857346
1.93300,-4.051718861
1.93350,-0.3893859684
1.93400,0.8313916624
1.93450,-0.08419156075
1.93500,-0.3893859684
1.93550,0.221002847
1.93600,1.441780478
1.93650,0.5261972547
1.93700,-2.220552415
1.93750,-4.967302084
1.93800,-6.188079715
1.93850,-6.188079715
1.93900,-5.577690899
1.93950,-3.746524453
1.94000,0.221002847
1.94050,6.019696593
1.94100,11.81839034
1.94150,17.00669527
1.94200,20.66902816
1.94250,20.36383376
1.94300,16.09111205
1.94350,10.2924183
1.94400,7.850863039
1.94450,8.461251855
1.94500,8.461251855
1.94550,5.10411337
1.94600,-0.9997747838
1.94650,-7.408857346
1.94700,-13.5127455
1.94750,-19.92182806
1.94800,-26.63610503
1.94850,-31.82440996
1.94900,-33.96077082
1.94950,-34.26596522
1.95000,-34.57115963
1.95050,-35.48674285
1.95100,-34.87635404
1.95150,-31.51921555
1.95200,-26.33091062
1.95250,-21.75299451
1.95300,-18.39585602
1.95350,-15.03871754
1.95400,-12.59716228
1.95450,-10.46080142
1.95500,-8.019246161
1.95550,-4.662107676
1.95600,-0.6945803761
1.95650,1.441780478
1.95700,2.967752516
1.95750,5.10411337
1.95800,6.935279816
1.95850,7.545668632
1.95900,6.324891001
1.95950,5.409307778
1.96000,6.324891001
1.96050,7.240474224
1.96100,7.545668632
1.96150,7.850863039
1.96200,8.156057447
1.96250,8.461251855
1.96300,8.766446263
1.96350,9.987223893
1.96400,11.81839034
1.96450,13.03916797
1.96500,14.2599456
1.96550,15.48072323
1.96600,15.48072323
1.96650,13.03916797
1.96700,9.987223893
1.96750,7.850863039
1.96800,6.935279816
1.96850,4.798918962
1.96900,1.746974885
1.96950,-0.3893859684
1.97000,-0.9997747838
1.97050,-1.915358007
1.97100,-3.746524453
1.97150,-3.746524453
1.97200,-1.304969192
1.97250,2.357363701
1.97300,5.409307778
1.97350,6.935279816
1.97400,8.156057447
1.97450,9.376835078
1.97500,10.90280712
1.97550,13.03916797
1.97600,15.48072323
1.97650,17.61708409
1.97700,19.14305612
1.97750,20.66902816
1.97800,21.88980579
1.97850,20.97422257
1.97900,17.00669527
1.97950,12.73397356
1.98000,11.51319593
1.98050,12.12358475
1.98100,12.73397356
1.98150,11.81839034
1.98200,11.51319593
1.98250,12.42877916
1.98300,13.34436238
1.98350,11.81839034
1.98400,7.240474224
1.98450,0.5261972547
1.98500,-6.79846853
1.98550,-11.98677346
1.98600,-13.5127455
1.98650,-12.90235668
1.98700,-13.20755109
1.98750,-15.34391195
1.98800,-15.95430076
1.98850,-12.90235668
1.98900,-8.324440569
1.98950,-4.662107676
1.99000,-2.220552415
1.99050,-0.3893859684
1.99100,1.13658607
1.99150,2.052169293
1.99200,2.967752516
1.99250,6.019696593
1.99300,11.51319593
1.99350,16.09111205
1.99400,17.61708409
1.99450,15.78591764
1.99500,13.34436238
1.99550,11.20800152
1.99600,10.59761271
1.99650,11.51319593
1.99700,12.73397356
1.99750,11.51319593
1.99800,8.766446263
1.99850,6.324891001
1.99900,6.324891001
1.99950,7.545668632
2.00000,8.156057447
2.00050,7.850863039
2.00100,8.461251855
2.00150,9.987223893
2.00200,11.81839034
2.00250,13.34436238
2.00300,13.64955679
2.00350,13.34436238
2.00400,12.42877916
2.00450,11.20800152
2.00500,7.850863039
2.00550,2.967752516
2.00600,-1.304969192
2.00650,-3.136135638
2.00700,-2.83094123
2.00750,-2.525746822
2.00800,-3.746524453
2.00850,-4.967302084
2.00900,-4.356913269
2.00950,-3.136135638
2.01000,-2.83094123
2.01050,-3.136135638
2.01100,-3.441330045
2.01150,-4.051718861
2.01200,-6.188079715
2.01250,-8.629634976
2.01300,-9.240023792
2.01350,-8.019246161
2.01400,-6.79846853
2.01450,-5.882885307
2.01500,-5.272496492
2.01550,-3.441330045
2.01600,-1.304969192
2.01650,0.5261972547
2.01700,2.052169293
2.01750,1.441780478
2.01800,-1.304969192
2.01850,-4.662107676
2.01900,-4.967302084
2.01950,-2.83094123
2.02000,-1.610163599
2.02050,-4.662107676
2.02100,-10.15560701
2.02150,-14.42832872
2.02200,-15.95430076
2.02250,-16.25949517
2.02300,-17.17507839
2.02350,-18.39585602
2.02400,-18.39585602
2.02450,-18.09066162
2.02500,-19.00624484
2.02550,-20.53221688
2.02600,-20.22702247
2.02650,-16.56468958
2.02700,-12.90235668
2.02750,-11.98677346
2.02800,-13.5127455
2.02850,-14.73352313
2.02900,-16.56468958
2.02950,-19.31143925
2.03000,-22.66857773
2.03050,-23.88935536
2.03100,-22.05818892
2.03150,-19.31143925
2.03200,-16.56468958
2.03250,-13.20755109
2.03300,-8.629634976
2.03350,-4.967302084
2.03400,-3.441330045
2.03450,-3.441330045
2.03500,-4.356913269
2.03550,-6.188079715
2.03600,-7.408857346
2.03650,-6.188079715
2.03700,-4.051718861
2.03750,-4.051718861
2.03800,-6.493274122
2.03850,-7.714051753
2.03900,-5.882885307
2.03950,-4.662107676
2.04000,-7.714051753
2.04050,-14.12313432
2.04100,-18.39585602
2.04150,-18.39585602
2.04200,-16.86988398
2.04250,-15.64910635
2.04300,-15.03871754
2.04350,-12.90235668
2.04400,-9.240023792
2.04450,-5.577690899
2.04500,-4.356913269
2.04550,-6.79846853
2.04600,-11.37638465
2.04650,-15.34391195
2.04700,-17.4802728
2.04750,-18.09066162
2.04800,-18.09066162
2.04850,-17.78546721
2.04900,-16.56468958
2.04950,-14.12313432
2.05000,-11.37638465
2.05050,-9.240023792
2.05100,-6.79846853
2.05150,-2.83094123
2.05200,0.5261972547
2.05250,1.441780478
2.05300,-1.610163599
2.05350,-6.493274122
2.05400,-9.850412607
2.05450,-11.37638465
2.05500,-12.90235668
2.05550,-15.64910635
2.05600,-18.39585602
2.05650,-19.92182806
2.05700,-19.61663365
2.05750,-17.4802728
2.05800,-13.20755109
2.05850,-8.324440569
2.05900,-5.577690899
2.05950,-6.493274122
2.06000,-9.545218199
2.06050,-11.07119024
2.06100,-9.545218199
2.06150,-5.577690899
2.06200,-0.6945803761
2.06250,2.662558109
2.06300,2.662558109
2.06350,0.5261972547
2.06400,-0.6945803761
2.06450,0.221002847
2.06500,2.662558109
2.06550,3.883335739
2.06600,3.578141332
2.06650,2.357363701
2.06700,2.052169293
2.06750,2.357363701
2.06800,3.272946924
2.06850,3.883335739
2.06900,4.798918962
2.06950,5.714502186
2.07000,6.019696593
2.07050,5.409307778
2.07100,4.798918962
2.07150,6.324891001
2.07200,10.59761271
2.07250,14.87033442
2.07300,17.00669527
2.07350,17.31188968
2.07400,18.83786172
2.07450,21.88980579
2.07500,24.33136106
2.07550,24.94174987
2.07600,24.02616665
2.07650,22.50019461
2.07700,20.66902816
2.07750,18.53266731
2.07800,16.09111205
2.07850,12.73397356
2.07900,6.630085409
2.07950,-0.08419156075
2.08000,-4.967302084
2.08050,-4.662107676
2.08100,-1.915358007
2.08150,0.221002847
2.08200,0.8313916624
2.08250,0.221002847
2.08300,-0.9997747838
2.08350,-4.051718861
2.08400,-7.714051753
2.08450,-10.46080142
2.08500,-11.98677346
2.08550,-11.98677346
2.08600,-11.07119024
2.08650,-9.240023792
2.08700,-8.629634976
2.08750,-8.934829384
2.08800,-8.324440569
2.08850,-4.356913269
2.08900,0.5261972547
2.08950,5.10411337
2.09000,8.766446263
2.09050,12.12358475
2.09100,13.95475119
2.09150,13.03916797
2.09200,10.2924183
2.09250,8.156057447
2.09300,7.545668632
2.09350,6.324891001
2.09400,4.493724555
2.09450,2.662558109
2.09500,0.8313916624
2.09550,-0.6945803761
2.09600,-1.915358007
2.09650,-1.915358007
2.09700,-0.08419156075
2.09750,1.746974885
2.09800,4.188530147
2.09850,5.409307778
2.09900,4.493724555
2.09950,2.662558109
2.10000,1.441780478
2.10050,1.13658607
2.10100,-0.08419156075
2.10150,-2.525746822
2.10200,-3.441330045
2.10250,-3.136135638
2.10300,-4.662107676
2.10350,-9.545218199
2.10400,-14.12313432
2.10450,-13.81793991
2.10500,-10.15560701
2.10550,-7.408857346
2.10600,-6.493274122
2.10650,-4.662107676
2.10700,-0.3893859684
2.10750,3.578141332
2.10800,5.10411337
2.10850,4.188530147
2.10900,3.578141332
2.10950,3.883335739
2.11000,4.798918962
2.11050,5.409307778
2.11100,4.798918962
2.11150,2.967752516
2.11200,0.221002847
2.11250,-2.83094123
2.11300,-7.103662938
2.11350,-11.98677346
2.11400,-15.03871754
2.11450,-15.03871754
2.11500,-14.73352313
2.11550,-15.64910635
2.11600,-16.56468958
2.11650,-14.42832872
2.11700,-10.76599583
2.11750,-9.545218199
2.11800,-12.29196787
2.11850,-15.34391195
2.11900,-16.25949517
2.11950,-15.64910635
2.12000,-14.42832872
2.12050,-12.29196787
2.12100,-9.240023792
2.12150,-6.79846853
2.12200,-7.103662938
2.12250,-8.324440569
2.12300,-8.019246161
2.12350,-7.408857346
2.12400,-9.850412607
2.12450,-14.73352313
2.12500,-19.31143925
2.12550,-20.22702247
2.12600,-17.4802728
2.12650,-12.29196787
2.12700,-7.103662938
2.12750,-5.272496492
2.12800,-7.408857346
2.12850,-10.76599583
2.12900,-11.07119024
2.12950,-7.103662938
2.13000,-0.9997747838
2.13050,4.493724555
2.13100,8.766446263
2.13150,11.20800152
2.13200,11.51319593
2.13250,10.59761271
2.13300,9.987223893
2.13350,10.90280712
2.13400,11.81839034
2.13450,12.42877916
2.13500,13.95475119
2.13550,16.70150086
2.13600,18.83786172
2.13650,17.31188968
2.13700,13.03916797
2.13750,9.987223893
2.13800,8.461251855
2.13850,7.545668632
2.13900,6.324891001
2.13950,6.935279816
2.14000,9.987223893
2.14050,13.64955679
2.14100,15.17552882
2.14150,14.87033442
2.14200,13.64955679
2.14250,11.51319593
2.14300,8.461251855
2.14350,4.493724555
2.14400,0.221002847
2.14450,-4.051718861
2.14500,-8.019246161
2.14550,-9.850412607
2.14600,-9.240023792
2.14650,-7.714051753
2.14700,-6.79846853
2.14750,-5.272496492
2.14800,-0.3893859684
2.14850,6.324891001
2.14900,11.81839034
2.14950,15.17552882
2.15000,17.31188968
2.15050,19.44825053
2.15100,20.36383376
2.15150,19.14305612
2.15200,17.00669527
2.15250,15.48072323
2.15300,15.17552882
2.15350,16.39630646
2.15400,19.44825053
2.15450,22.50019461
2.15500,23.72097224
2.15550,24.63655546
2.15600,25.85733309
2.15650,27.68849954
2.15700,27.38330513
2.15750,24.33136106
2.15800,19.44825053
2.15850,15.17552882
2.15900,12.42877916
2.15950,10.90280712
2.16000,8.766446263
2.16050,5.10411337
2.16100,0.8313916624
2.16150,-0.9997747838
2.16200,-0.9997747838
2.16250,-1.304969192
2.16300,-2.525746822
2.16350,-3.136135638
2.16400,-2.525746822
2.16450,-2.83094123
2.16500,-4.967302084
2.16550,-5.882885307
2.16600,-3.136135638
2.16650,-0.08419156075
2.16700,-0.3893859684
2.16750,-3.136135638
2.16800,-4.051718861
2.16850,-2.83094123
2.16900,-2.525746822
2.16950,-4.662107676
2.17000,-6.79846853
2.17050,-7.103662938
2.17100,-6.79846853
2.17150,-5.577690899
2.17200,-2.83094123
2.17250,1.13658607
2.17300,5.10411337
2.17350,8.156057447
2.17400,11.51319593
2.17450,14.56514001
2.17500,15.78591764
2.17550,15.48072323
2.17600,15.48072323
2.17650,15.48072323
2.17700,14.87033442
2.17750,12.73397356
2.17800,9.987223893
2.17850,8.766446263
2.17900,8.766446263
2.17950,9.987223893
2.18000,10.59761271
2.18050,9.682029486
2.18100,6.324891001
2.18150,2.662558109
2.18200,0.8313916624
2.18250,0.5261972547
2.18300,1.13658607
2.18350,2.052169293
2.18400,3.578141332
2.18450,4.798918962
2.18500,4.493724555
2.18550,2.357363701
2.18600,0.5261972547
2.18650,0.5261972547
2.18700,2.052169293
2.18750,2.662558109
2.18800,0.5261972547
2.18850,-2.525746822
2.18900,-3.746524453
2.18950,-0.6945803761
2.19000,3.272946924
2.19050,6.019696593
2.19100,7.240474224
2.19150,8.461251855
2.19200,9.376835078
2.19250,7.545668632
2.19300,3.578141332
2.19350,1.441780478
2.19400,3.272946924
2.19450,6.935279816
2.19500,8.461251855
2.19550,5.10411337
2.19600,-3.136135638
2.19650,-13.5127455
2.19700,-21.14260569
2.19750,-23.27896655
2.19800,-22.97377214
2.19850,-24.80493858
2.19900,-28.16207707
2.19950,-29.68804911
2.20000,-27.24649385
2.20050,-22.97377214
2.20100,-19.31143925
2.20150,-15.64910635
2.20200,-10.46080142
2.20250,-4.662107676
2.20300,-0.3893859684
2.20350,0.8313916624
2.20400,0.8313916624
2.20450,-0.08419156075
2.20500,-1.304969192
2.20550,-1.915358007
2.20600,-0.9997747838
2.20650,0.221002847
2.20700,-0.3893859684
2.20750,-5.272496492
2.20800,-12.59716228
2.20850,-17.78546721
2.20900,-18.09066162
2.20950,-14.12313432
2.21000,-8.934829384
2.21050,-4.662107676
2.21100,-0.9997747838
2.21150,2.662558109
2.21200,6.935279816
2.21250,9.682029486
2.21300,11.51319593
2.21350,12.12358475
2.21400,12.12358475
2.21450,12.12358475
2.21500,13.34436238
2.21550,14.56514001
2.21600,14.87033442
2.21650,14.56514001
2.21700,16.09111205
2.21750,19.14305612
2.21800,19.44825053
2.21850,13.64955679
2.21900,3.272946924
2.21950,-4.967302084
2.22000,-8.629634976
2.22050,-8.934829384
2.22100,-6.79846853
2.22150,-1.610163599
2.22200,4.798918962
2.22250,9.987223893
2.22300,13.34436238
2.22350,17.92227849
2.22400,24.33136106
2.22450,27.68849954
2.22500,26.1625275
2.22550,23.11058342
2.22600,24.63655546
2.22650,28.90927717
2.22700,29.21447158
2.22750,23.72097224
2.22800,16.39630646
2.22850,12.42877916
2.22900,12.42877916
2.22950,14.56514001
2.23000,17.31188968
2.23050,20.36383376
2.23100,22.80538902
2.23150,24.63655546
2.23200,25.85733309
2.23250,24.63655546
2.23300,18.83786172
2.23350,9.682029486
2.23400,1.441780478
2.23450,-2.83094123
2.23500,-4.967302084
2.23550,-5.882885307
2.23600,-4.967302084
2.23650,-2.220552415
2.23700,0.221002847
2.23750,1.746974885
2.23800,1.13658607
2.23850,-0.9997747838
2.23900,-4.051718861
2.23950,-6.79846853
2.24000,-7.714051753
2.24050,-8.019246161
2.24100,-8.629634976
2.24150,-9.240023792
2.24200,-8.629634976
2.24250,-7.103662938
2.24300,-6.188079715
2.24350,-6.79846853
2.24400,-7.103662938
2.24450,-6.79846853
2.24500,-6.79846853
2.24550,-6.79846853
2.24600,-5.577690899
2.24650,-3.441330045
2.24700,-2.525746822
2.24750,-4.051718861
2.24800,-7.103662938
2.24850,-9.545218199
2.24900,-10.15560701
2.24950,-10.46080142
2.25000,-10.76599583
2.25050,-11.07119024
2.25100,-10.15560701
2.25150,-6.79846853
2.25200,-1.610163599
2.25250,2.662558109
2.25300,5.409307778
2.25350,6.324891001
2.25400,6.630085409
2.25450,6.324891001
2.25500,5.714502186
2.25550,5.409307778
2.25600,5.714502186
2.25650,5.714502186
2.25700,3.883335739
2.25750,0.8313916624
2.25800,-0.9997747838
2.25850,-1.610163599
2.25900,-1.915358007
2.25950,-2.220552415
2.26000,-2.220552415
2.26050,-0.6945803761
2.26100,2.662558109
2.26150,8.156057447
2.26200,13.34436238
2.26250,14.87033442
2.26300,11.20800152
2.26350,3.883335739
2.26400,-2.525746822
2.26450,-8.019246161
2.26500,-13.5127455
2.26550,-19.61663365
2.26600,-24.19454977
2.26650,-26.02571622
2.26700,-26.33091062
2.26750,-26.33091062
2.26800,-25.4153274
2.26850,-24.19454977
2.26900,-22.97377214
2.26950,-21.4478001
2.27000,-18.39585602
2.27050,-15.03871754
2.27100,-13.20755109
2.27150,-14.12313432
2.27200,-15.95430076
2.27250,-18.09066162
2.27300,-21.14260569
2.27350,-24.49974418
2.27400,-25.11013299
2.27450,-22.97377214
2.27500,-21.4478001
2.27550,-23.27896655
2.27600,-26.63610503
2.27650,-27.55168825
2.27700,-25.11013299
2.27750,-22.66857773
2.27800,-21.75299451
2.27850,-20.53221688
2.27900,-17.17507839
2.27950,-12.29196787
2.28000,-7.103662938
2.28050,-2.83094123
2.28100,-0.3893859684
2.28150,0.5261972547
2.28200,1.746974885
2.28250,2.357363701
2.28300,-0.08419156075
2.28350,-5.577690899
2.28400,-11.37638465
2.28450,-12.59716228
2.28500,-8.934829384
2.28550,-4.356913269
2.28600,-0.9997747838
2.28650,0.5261972547
2.28700,1.746974885
2.28750,2.052169293
2.28800,1.441780478
2.28850,0.221002847
2.28900,0.221002847
2.28950,1.441780478
2.29000,3.578141332
2.29050,5.714502186
2.29100,6.019696593
2.29150,2.967752516
2.29200,-0.9997747838
2.29250,-2.83094123
2.29300,-2.220552415
2.29350,-1.610163599
2.29400,-3.441330045
2.29450,-4.356913269
2.29500,-2.525746822
2.29550,-0.08419156075
2.29600,0.221002847
2.29650,-2.220552415
2.29700,-5.577690899
2.29750,-6.79846853
2.29800,-6.188079715
2.29850,-3.441330045
2.29900,-0.08419156075
2.29950,1.13658607
2.30000,-0.3893859684
2.30050,-4.051718861
2.30100,-5.577690899
2.30150,-4.967302084
2.30200,-4.051718861
2.30250,-4.051718861
2.30300,-4.051718861
2.30350,-2.220552415
2.30400,1.441780478
2.30450,5.409307778
2.30500,8.766446263
2.30550,9.987223893
2.30600,9.07164067
2.30650,6.630085409
2.30700,3.272946924
2.30750,-0.3893859684
2.30800,-4.967302084
2.30850,-10.15560701
2.30900,-15.34391195
2.30950,-19.31143925
2.31000,-19.61663365
2.31050,-15.95430076
2.31100,-10.46080142
2.31150,-6.79846853
2.31200,-6.188079715
2.31250,-7.714051753
2.31300,-8.019246161
2.31350,-6.188079715
2.31400,-2.83094123
2.31450,-0.08419156075
2.31500,1.13658607
2.31550,0.221002847
2.31600,-0.08419156075
2.31650,0.8313916624
2.31700,3.272946924
2.31750,4.188530147
2.31800,3.578141332
2.31850,3.272946924
2.31900,3.578141332
2.31950,2.357363701
2.32000,0.221002847
2.32050,1.746974885
2.32100,8.766446263
2.32150,16.70150086
2.32200,19.44825053
2.32250,17.00669527
2.32300,14.2599456
2.32350,13.64955679
2.32400,13.95475119
2.32450,12.73397356
2.32500,11.51319593
2.32550,11.81839034
2.32600,13.95475119
2.32650,16.39630646
2.32700,18.53266731
2.32750,18.83786172
2.32800,17.00669527
2.32850,14.87033442
2.32900,13.64955679
2.32950,12.12358475
2.33000,8.156057447
2.33050,3.272946924
2.33100,1.13658607
2.33150,1.746974885
2.33200,1.441780478
2.33250,-3.136135638
2.33300,-11.68157905
2.33350,-18.39585602
2.33400,-20.22702247
2.33450,-15.95430076
2.33500,-8.324440569
2.33550,-0.3893859684
2.33600,4.798918962
2.33650,6.630085409
2.33700,6.935279816
2.33750,7.545668632
2.33800,7.545668632
2.33850,5.10411337
2.33900,0.8313916624
2.33950,-1.610163599
2.34000,-0.6945803761
2.34050,1.441780478
2.34100,1.441780478
2.34150,-0.08419156075
2.34200,-0.08419156075
2.34250,4.188530147
2.34300,9.682029486
2.34350,13.03916797
2.34400,15.17552882
2.34450,18.53266731
2.34500,21.58461139
2.34550,20.97422257
2.34600,16.70150086
2.34650,11.81839034
2.34700,9.376835078
2.34750,6.630085409
2.34800,0.8313916624
2.34850,-8.019246161
2.34900,-15.95430076
2.34950,-19.00624484
2.35000,-16.25949517
2.35050,-10.76599583
2.35100,-5.882885307
2.35150,-3.441330045
2.35200,-3.441330045
2.35250,-5.577690899
2.35300,-10.15560701
2.35350,-17.17507839
2.35400,-25.72052181
2.35450,-33.96077082
2.35500,-40.98024219
2.35550,-44.94776949
2.35600,-43.11660305
2.35650,-36.09713167
2.35700,-26.94129944
2.35750,-19.61663365
2.35800,-13.5127455
2.35850,-8.019246161
2.35900,-3.746524453
2.35950,-1.915358007
2.36000,-0.3893859684
2.36050,2.967752516
2.36100,7.545668632
2.36150,9.07164067
2.36200,6.935279816
2.36250,4.798918962
2.36300,5.10411337
2.36350,3.883335739
2.36400,-0.08419156075
2.36450,-4.967302084
2.36500,-5.577690899
2.36550,-2.220552415
2.36600,0.5261972547
2.36650,0.8313916624
2.36700,1.441780478
2.36750,3.883335739
2.36800,4.493724555
2.36850,0.5261972547
2.36900,-4.967302084
2.36950,-6.79846853
2.37000,-3.441330045
2.37050,-0.3893859684
2.37100,-0.9997747838
2.37150,-4.356913269
2.37200,-6.188079715
2.37250,-5.577690899
2.37300,-4.356913269
2.37350,-4.356913269
2.37400,-4.356913269
2.37450,-3.746524453
2.37500,-1.915358007
2.37550,-0.08419156075
2.37600,1.13658607
2.37650,1.441780478
2.37700,2.357363701
2.37750,4.798918962
2.37800,7.545668632
2.37850,8.461251855
2.37900,6.324891001
2.37950,4.493724555
2.38000,6.019696593
2.38050,8.766446263
2.38100,9.376835078
2.38150,8.156057447
2.38200,6.935279816
2.38250,7.240474224
2.38300,8.156057447
2.38350,8.766446263
2.38400,8.461251855
2.38450,6.324891001
2.38500,2.357363701
2.38550,-1.610163599
2.38600,-3.441330045
2.38650,-2.525746822
2.38700,-1.915358007
2.38750,-3.136135638
2.38800,-5.272496492
2.38850,-5.882885307
2.38900,-5.272496492
2.38950,-3.746524453
2.39000,-0.9997747838
2.39050,2.662558109
2.39100,5.409307778
2.39150,6.324891001
2.39200,6.935279816
2.39250,9.07164067
2.39300,11.20800152
2.39350,10.59761271
2.39400,9.376835078
2.39450,9.987223893
2.39500,11.81839034
2.39550,11.51319593
2.39600,9.682029486
2.39650,9.987223893
2.39700,13.95475119
2.39750,17.31188968
2.39800,16.39630646
2.39850,13.95475119
2.39900,13.34436238
2.39950,14.56514001
2.40000,13.34436238
2.40050,8.461251855
2.40100,2.662558109
2.40150,-0.6945803761
2.40200,-2.525746822
2.40250,-4.662107676
2.40300,-5.882885307
2.40350,-4.967302084
2.40400,-1.304969192
2.40450,0.8313916624
2.40500,-1.915358007
2.40550,-9.240023792
2.40600,-15.95430076
2.40650,-17.78546721
2.40700,-15.03871754
2.40750,-11.37638465
2.40800,-9.240023792
2.40850,-8.019246161
2.40900,-5.882885307
2.40950,-2.525746822
2.41000,2.662558109
2.41050,9.376835078
2.41100,14.56514001
2.41150,14.56514001
2.41200,11.20800152
2.41250,8.461251855
2.41300,9.376835078
2.41350,11.81839034
2.41400,11.81839034
2.41450,9.682029486
2.41500,7.240474224
2.41550,6.324891001
2.41600,7.240474224
2.41650,8.156057447
2.41700,7.545668632
2.41750,6.630085409
2.41800,7.240474224
2.41850,10.90280712
2.41900,15.48072323
2.41950,19.14305612
2.42000,20.05863935
2.42050,18.2274729
2.42100,13.95475119
2.42150,7.240474224
2.42200,0.8313916624
2.42250,-3.746524453
2.42300,-8.934829384
2.42350,-14.12313432
2.42400,-16.56468958
2.42450,-13.20755109
2.42500,-5.272496492
2.42550,1.13658607
2.42600,5.10411337
2.42650,8.156057447
2.42700,10.90280712
2.42750,12.42877916
2.42800,11.81839034
2.42850,10.2924183
2.42900,9.682029486
2.42950,9.987223893
2.43000,9.682029486
2.43050,7.240474224
2.43100,3.272946924
2.43150,-0.3893859684
2.43200,-2.525746822
2.43250,-2.83094123
2.43300,-2.525746822
2.43350,-2.83094123
2.43400,-2.220552415
2.43450,-0.08419156075
2.43500,0.5261972547
2.43550,-2.220552415
2.43600,-8.019246161
2.43650,-13.20755109
2.43700,-16.86988398
2.43750,-20.83741128
2.43800,-22.66857773
2.43850,-19.31143925
2.43900,-11.98677346
2.43950,-6.79846853
2.44000,-6.188079715
2.44050,-7.103662938
2.44100,-5.272496492
2.44150,-1.304969192
2.44200,2.662558109
2.44250,7.850863039
2.44300,13.95475119
2.44350,17.92227849
2.44400,16.39630646
2.44450,9.987223893
2.44500,4.188530147
2.44550,2.662558109
2.44600,5.714502186
2.44650,9.987223893
2.44700,12.73397356
2.44750,12.42877916
2.44800,9.987223893
2.44850,6.630085409
2.44900,2.357363701
2.44950,-2.220552415
2.45000,-4.356913269
2.45050,-3.136135638
2.45100,-2.83094123
2.45150,-6.493274122
2.45200,-11.68157905
2.45250,-11.37638465
2.45300,-3.746524453
2.45350,4.798918962
2.45400,8.766446263
2.45450,7.240474224
2.45500,2.967752516
2.45550,-1.610163599
2.45600,-4.967302084
2.45650,-4.967302084
2.45700,-1.915358007
2.45750,-0.08419156075
2.45800,-0.6945803761
2.45850,-2.220552415
2.45900,-2.220552415
2.45950,-1.304969192
2.46000,-0.08419156075
2.46050,2.357363701
2.46100,4.798918962
2.46150,4.188530147
2.46200,-0.9997747838
2.46250,-8.019246161
2.46300,-11.68157905
2.46350,-11.37638465
2.46400,-7.408857346
2.46450,-2.220552415
2.46500,2.357363701
2.46550,4.188530147
2.46600,3.883335739
2.46650,4.493724555
2.46700,8.766446263
2.46750,13.95475119
2.46800,18.53266731
2.46850,21.88980579
2.46900,24.33136106
2.46950,23.41577783
2.47000,18.2274729
2.47050,13.34436238
2.47100,12.42877916
2.47150,13.64955679
2.47200,11.81839034
2.47250,8.766446263
2.47300,10.2924183
2.47350,15.48072323
2.47400,17.00669527
2.47450,12.42877916
2.47500,7.240474224
2.47550,8.156057447
2.47600,12.12358475
2.47650,12.42877916
2.47700,7.240474224
2.47750,0.221002847
2.47800,-4.967302084
2.47850,-9.240023792
2.47900,-11.68157905
2.47950,-11.07119024
2.48000,-9.240023792
2.48050,-9.850412607
2.48100,-13.5127455
2.48150,-16.25949517
2.48200,-15.34391195
2.48250,-13.81793991
2.48300,-15.64910635
2.48350,-19.31143925
2.48400,-21.75299451
2.48450,-20.53221688
2.48500,-17.4802728
2.48550,-13.20755109
2.48600,-7.714051753
2.48650,-0.9997747838
2.48700,5.409307778
2.48750,10.59761271
2.48800,12.42877916
2.48850,11.81839034
2.48900,11.20800152
2.48950,12.42877916
2.49000,13.34436238
2.49050,12.12358475
2.49100,10.2924183
2.49150,11.81839034
2.49200,15.78591764
2.49250,16.39630646
2.49300,8.766446263
2.49350,-1.610163599
2.49400,-7.408857346
2.49450,-6.79846853
2.49500,-5.272496492
2.49550,-7.714051753
2.49600,-11.37638465
2.49650,-10.46080142
2.49700,-4.662107676
2.49750,0.221002847
2.49800,1.441780478
2.49850,1.441780478
2.49900,3.883335739
2.49950,6.630085409
2.50000,5.714502186
2.50050,1.746974885
2.50100,-0.3893859684
2.50150,2.357363701
2.50200,7.545668632
2.50250,9.987223893
2.50300,9.682029486
2.50350,9.376835078
2.50400,10.90280712
2.50450,11.20800152
2.50500,8.156057447
2.50550,3.578141332
2.50600,0.5261972547
2.50650,-1.610163599
2.50700,-6.493274122
2.50750,-16.25949517
2.50800,-27.55168825
2.50850,-35.79193726
2.50900,-39.14907575
2.50950,-39.45427015
2.51000,-38.53868693
2.51050,-36.70752048
2.51100,-32.12960437
2.51150,-24.80493858
2.51200,-15.64910635
2.51250,-7.103662938
2.51300,-0.3893859684
2.51350,3.883335739
2.51400,5.714502186
2.51450,5.409307778
2.51500,4.188530147
2.51550,4.798918962
2.51600,7.240474224
2.51650,10.59761271
2.51700,14.56514001
2.51750,19.75344494
2.51800,25.24694428
2.51850,26.77291632
2.51900,22.80538902
2.51950,14.87033442
2.52000,7.545668632
2.52050,3.883335739
2.52100,1.441780478
2.52150,-2.220552415
2.52200,-8.934829384
2.52250,-15.34391195
2.52300,-17.78546721
2.52350,-16.56468958
2.52400,-13.81793991
2.52450,-11.37638465
2.52500,-8.934829384
2.52550,-6.493274122
2.52600,-5.577690899
2.52650,-6.188079715
2.52700,-5.577690899
2.52750,-2.525746822
2.52800,1.13658607
2.52850,2.052169293
2.52900,0.8313916624
2.52950,0.221002847
2.53000,1.441780478
2.53050,3.272946924
2.53100,5.409307778
2.53150,9.07164067
2.53200,13.64955679
2.53250,17.61708409
2.53300,19.14305612
2.53350,19.14305612
2.53400,18.53266731
2.53450,16.09111205
2.53500,12.73397356
2.53550,10.2924183
2.53600,9.682029486
2.53650,9.376835078
2.53700,6.019696593
2.53750,-0.08419156075
2.53800,-6.188079715
2.53850,-10.46080142
2.53900,-13.5127455
2.53950,-17.17507839
2.54000,-21.4478001
2.54050,-22.36338332
2.54100,-18.70105043
2.54150,-14.12313432
2.54200,-12.59716228
2.54250,-13.5127455
2.54300,-11.68157905
2.54350,-6.79846853
2.54400,-2.83094123
2.54450,-3.136135638
2.54500,-6.188079715
2.54550,-9.850412607
2.54600,-14.73352313
2.54650,-20.83741128
2.54700,-24.49974418
2.54750,-22.36338332
2.54800,-16.86988398
2.54850,-12.29196787
2.54900,-10.46080142
2.54950,-8.324440569
2.55000,-4.662107676
2.55050,-1.610163599
2.55100,-0.6945803761
2.55150,-0.08419156075
2.55200,1.441780478
2.55250,4.493724555
2.55300,7.850863039
2.55350,9.987223893
2.55400,9.987223893
2.55450,8.461251855
2.55500,7.240474224
2.55550,6.935279816
2.55600,6.935279816
2.55650,5.409307778
2.55700,3.578141332
2.55750,3.883335739
2.55800,7.240474224
2.55850,11.81839034
2.55900,15.17552882
2.55950,17.61708409
2.56000,19.14305612
2.56050,19.75344494
2.56100,18.83786172
2.56150,16.39630646
2.56200,13.03916797
2.56250,7.850863039
2.56300,2.662558109
2.56350,0.221002847
2.56400,2.052169293
2.56450,6.019696593
2.56500,9.376835078
2.56550,10.90280712
2.56600,12.12358475
2.56650,13.95475119
2.56700,13.34436238
2.56750,7.545668632
2.56800,-2.83094123
2.56850,-14.12313432
2.56900,-21.14260569
2.56950,-22.97377214
2.57000,-22.36338332
2.57050,-22.66857773
2.57100,-22.66857773
2.57150,-21.14260569
2.57200,-17.17507839
2.57250,-12.90235668
2.57300,-11.37638465
2.57350,-11.98677346
2.57400,-13.20755109
2.57450,-13.5127455
2.57500,-11.98677346
2.57550,-9.545218199
2.57600,-8.019246161
2.57650,-8.324440569
2.57700,-9.545218199
2.57750,-9.850412607
2.57800,-6.79846853
2.57850,-2.220552415
2.57900,-0.08419156075
2.57950,-1.304969192
2.58000,-4.051718861
2.58050,-4.662107676
2.58100,-3.136135638
2.58150,-2.525746822
2.58200,-3.441330045
2.58250,-4.356913269
2.58300,-4.051718861
2.58350,-3.441330045
2.58400,-2.220552415
2.58450,-0.08419156075
2.58500,2.967752516
2.58550,4.798918962
2.58600,4.493724555
2.58650,3.883335739
2.58700,5.714502186
2.58750,8.461251855
2.58800,9.376835078
2.58850,6.935279816
2.58900,3.272946924
2.58950,0.8313916624
2.59000,-0.9997747838
2.59050,-4.662107676
2.59100,-8.629634976
2.59150,-8.934829384
2.59200,-4.662107676
2.59250,-0.3893859684
2.59300,-0.6945803761
2.59350,-5.577690899
2.59400,-8.934829384
2.59450,-6.79846853
2.59500,-1.915358007
2.59550,-1.304969192
2.59600,-7.408857346
2.59650,-16.25949517
2.59700,-21.4478001
2.59750,-20.53221688
2.59800,-16.56468958
2.59850,-12.90235668
2.59900,-10.46080142
2.59950,-8.324440569
2.60000,-7.103662938
2.60050,-8.019246161
2.60100,-10.15560701
2.60150,-9.850412607
2.60200,-4.967302084
2.60250,1.746974885
2.60300,5.714502186
2.60350,5.714502186
2.60400,5.10411337
2.60450,5.409307778
2.60500,5.409307778
2.60550,2.662558109
2.60600,-1.915358007
2.60650,-4.662107676
2.60700,-4.051718861
2.60750,-0.3893859684
2.60800,3.578141332
2.60850,6.630085409
2.60900,6.019696593
2.60950,1.746974885
2.61000,-4.356913269
2.61050,-8.629634976
2.61100,-9.850412607
2.61150,-7.714051753
2.61200,-3.441330045
2.61250,1.746974885
2.61300,6.019696593
2.61350,7.240474224
2.61400,6.324891001
2.61450,6.935279816
2.61500,11.81839034
2.61550,17.92227849
2.61600,20.05863935
2.61650,14.56514001
2.61700,4.188530147
2.61750,-4.356913269
2.61800,-8.019246161
2.61850,-8.324440569
2.61900,-8.629634976
2.61950,-9.545218199
2.62000,-7.714051753
2.62050,-0.9997747838
2.62100,5.409307778
2.62150,6.019696593
2.62200,1.441780478
2.62250,-2.525746822
2.62300,-3.746524453
2.62350,-4.967302084
2.62400,-9.545218199
2.62450,-14.12313432
2.62500,-13.5127455
2.62550,-8.629634976
2.62600,-4.356913269
2.62650,-4.967302084
2.62700,-8.629634976
2.62750,-10.15560701
2.62800,-6.493274122
2.62850,0.221002847
2.62900,6.019696593
2.62950,8.156057447
2.63000,6.324891001
2.63050,4.188530147
2.63100,3.272946924
2.63150,2.967752516
2.63200,1.746974885
2.63250,0.5261972547
2.63300,-0.08419156075
2.63350,-0.08419156075
2.63400,-0.08419156075
2.63450,0.5261972547
2.63500,3.883335739
2.63550,9.682029486
2.63600,13.95475119
2.63650,13.34436238
2.63700,7.850863039
2.63750,0.8313916624
2.63800,-2.220552415
2.63850,0.221002847
2.63900,7.545668632
2.63950,13.95475119
2.64000,16.39630646
2.64050,14.87033442
2.64100,11.51319593
2.64150,6.324891001
2.64200,0.8313916624
2.64250,-1.915358007
2.64300,-1.610163599
2.64350,-0.9997747838
2.64400,-2.83094123
2.64450,-4.967302084
2.64500,-1.304969192
2.64550,6.630085409
2.64600,13.34436238
2.64650,13.34436238
2.64700,9.682029486
2.64750,8.766446263
2.64800,10.90280712
2.64850,12.12358475
2.64900,9.07164067
2.64950,2.357363701
2.65000,-5.882885307
2.65050,-13.81793991
2.65100,-19.61663365
2.65150,-22.05818892
2.65200,-19.92182806
2.65250,-13.5127455
2.65300,-3.136135638
2.65350,6.630085409
2.65400,13.03916797
2.65450,14.56514001
2.65500,13.95475119
2.65550,13.03916797
2.65600,12.42877916
2.65650,12.42877916
2.65700,13.64955679
2.65750,15.48072323
2.65800,15.17552882
2.65850,11.81839034
2.65900,6.019696593
2.65950,0.5261972547
2.66000,-3.441330045
2.66050,-4.356913269
2.66100,-0.9997747838
2.66150,4.798918962
2.66200,7.545668632
2.66250,4.493724555
2.66300,-1.610163599
2.66350,-6.493274122
2.66400,-9.545218199
2.66450,-12.59716228
2.66500,-16.25949517
2.66550,-19.31143925
2.66600,-20.53221688
2.66650,-21.4478001
2.66700,-22.97377214
2.66750,-23.88935536
2.66800,-22.66857773
2.66850,-18.09066162
2.66900,-9.850412607
2.66950,-0.08419156075
2.67000,9.682029486
2.67050,17.92227849
2.67100,23.72097224
2.67150,27.38330513
2.67200,28.29888836
2.67250,26.77291632
2.67300,23.11058342
2.67350,17.31188968
2.67400,11.20800152
2.67450,7.240474224
2.67500,5.714502186
2.67550,2.967752516
2.67600,-1.915358007
2.67650,-6.493274122
2.67700,-7.714051753
2.67750,-7.103662938
2.67800,-8.324440569
2.67850,-10.76599583
2.67900,-9.850412607
2.67950,-6.493274122
2.68000,-7.408857346
2.68050,-15.34391195
2.68100,-25.11013299
2.68150,-29.07766029
2.68200,-28.16207707
2.68250,-26.94129944
2.68300,-25.4153274
2.68350,-20.53221688
2.68400,-12.59716228
2.68450,-5.882885307
2.68500,-1.304969192
2.68550,2.357363701
2.68600,5.714502186
2.68650,4.798918962
2.68700,-0.08419156075
2.68750,-3.441330045
2.68800,-2.525746822
2.68850,0.221002847
2.68900,1.13658607
2.68950,0.8313916624
2.69000,2.052169293
2.69050,4.798918962
2.69100,6.630085409
2.69150,7.545668632
2.69200,9.07164067
2.69250,9.682029486
2.69300,6.935279816
2.69350,1.13658607
2.69400,-4.051718861
2.69450,-7.103662938
2.69500,-7.103662938
2.69550,-5.272496492
2.69600,-1.610163599
2.69650,4.493724555
2.69700,12.12358475
2.69750,18.53266731
2.69800,21.27941698
2.69850,20.05863935
2.69900,17.31188968
2.69950,13.95475119
2.70000,8.766446263
2.70050,0.8313916624
2.70100,-5.577690899
2.70150,-6.79846853
2.70200,-3.746524453
2.70250,-2.220552415
2.70300,-4.967302084
2.70350,-7.103662938
2.70400,-4.662107676
2.70450,0.5261972547
2.70500,5.409307778
2.70550,8.156057447
2.70600,9.07164067
2.70650,6.324891001
2.70700,0.221002847
2.70750,-4.662107676
2.70800,-5.577690899
2.70850,-4.051718861
2.70900,-4.051718861
2.70950,-5.577690899
2.71000,-4.356913269
2.71050,-0.6945803761
2.71100,0.8313916624
2.71150,-1.915358007
2.71200,-7.408857346
2.71250,-10.76599583
2.71300,-10.46080142
2.71350,-6.79846853
2.71400,-1.915358007
2.71450,2.357363701
2.71500,5.714502186
2.71550,9.07164067
2.71600,13.34436238
2.71650,17.31188968
2.71700,19.75344494
2.71750,20.36383376
2.71800,19.44825053
2.71850,17.61708409
2.71900,17.00669527
2.71950,18.83786172
2.72000,20.97422257
2.72050,20.05863935
2.72100,15.78591764
2.72150,10.90280712
2.72200,7.240474224
2.72250,3.272946924
2.72300,-1.915358007
2.72350,-7.103662938
2.72400,-10.76599583
2.72450,-14.12313432
2.72500,-16.56468958
2.72550,-14.12313432
2.72600,-5.272496492
2.72650,3.578141332
2.72700,7.240474224
2.72750,7.545668632
2.72800,10.59761271
2.72850,15.17552882
2.72900,13.34436238
2.72950,3.272946924
2.73000,-5.882885307
2.73050,-6.188079715
2.73100,-0.08419156075
2.73150,3.578141332
2.73200,3.272946924
2.73250,2.967752516
2.73300,5.10411337
2.73350,6.935279816
2.73400,5.714502186
2.73450,1.746974885
2.73500,-3.441330045
2.73550,-9.850412607
2.73600,-16.86988398
2.73650,-19.92182806
2.73700,-15.95430076
2.73750,-5.882885307
2.73800,1.441780478
2.73850,-0.08419156075
2.73900,-10.15560701
2.73950,-21.75299451
2.74000,-28.46727148
2.74050,-29.07766029
2.74100,-27.55168825
2.74150,-25.72052181
2.74200,-23.27896655
2.74250,-18.70105043
2.74300,-11.68157905
2.74350,-4.356913269
2.74400,1.746974885
2.74450,7.240474224
2.74500,10.90280712
2.74550,11.81839034
2.74600,10.2924183
2.74650,7.850863039
2.74700,5.409307778
2.74750,3.883335739
2.74800,4.493724555
2.74850,6.324891001
2.74900,8.156057447
2.74950,8.461251855
2.75000,10.2924183
2.75050,14.87033442
2.75100,19.14305612
2.75150,18.2274729
2.75200,12.42877916
2.75250,6.935279816
2.75300,3.272946924
2.75350,-1.304969192
2.75400,-8.629634976
2.75450,-14.42832872
2.75500,-16.25949517
2.75550,-16.86988398
2.75600,-18.39585602
2.75650,-16.25949517
2.75700,-7.714051753
2.75750,2.967752516
2.75800,8.766446263
2.75850,9.376835078
2.75900,10.59761271
2.75950,14.56514001
2.76000,17.92227849
2.76050,19.44825053
2.76100,20.66902816
2.76150,21.88980579
2.76200,19.14305612
2.76250,10.59761271
2.76300,0.221002847
2.76350,-6.79846853
2.76400,-9.850412607
2.76450,-10.15560701
2.76500,-9.545218199
2.76550,-11.68157905
2.76600,-18.09066162
2.76650,-26.94129944
2.76700,-33.96077082
2.76750,-35.48674285
2.76800,-32.43479878
2.76850,-27.55168825
2.76900,-23.88935536
2.76950,-21.75299451
2.77000,-20.53221688
2.77050,-16.56468958
2.77100,-9.240023792
2.77150,-1.915358007
2.77200,1.441780478
2.77250,1.746974885
2.77300,2.357363701
2.77350,5.10411337
2.77400,7.545668632
2.77450,8.766446263
2.77500,8.156057447
2.77550,6.019696593
2.77600,0.5261972547
2.77650,-6.188079715
2.77700,-11.98677346
2.77750,-15.64910635
2.77800,-17.78546721
2.77850,-17.78546721
2.77900,-14.42832872
2.77950,-8.629634976
2.78000,-4.356913269
2.78050,-2.220552415
2.78100,-0.6945803761
2.78150,0.5261972547
2.78200,1.441780478
2.78250,2.052169293
2.78300,5.714502186
2.78350,11.20800152
2.78400,14.87033442
2.78450,15.48072323
2.78500,15.48072323
2.78550,17.92227849
2.78600,21.27941698
2.78650,21.88980579
2.78700,18.83786172
2.78750,14.2599456
2.78800,11.51319593
2.78850,11.81839034
2.78900,13.34436238
2.78950,13.64955679
2.79000,10.2924183
2.79050,4.188530147
2.79100,0.5261972547
2.79150,2.662558109
2.79200,9.987223893
2.79250,18.53266731
2.79300,24.63655546
2.79350,27.38330513
2.79400,29.51966599
2.79450,32.87680447
2.79500,35.31835973
2.79550,31.04563802
2.79600,15.48072323
2.79650,-6.79846853
2.79700,-26.63610503
2.79750,-36.40232608
2.79800,-37.01271489
2.79850,-35.48674285
2.79900,-35.18154845
2.79950,-35.48674285
2.80000,-35.18154845
2.80050,-34.26596522
2.80100,-33.350382
2.80150,-29.3828547
2.80200,-21.4478001
2.80250,-13.5127455
2.80300,-10.46080142
2.80350,-10.46080142
2.80400,-8.019246161
2.80450,-2.220552415
2.80500,1.441780478
2.80550,0.8313916624
2.80600,-0.9997747838
2.80650,-0.08419156075
2.80700,3.272946924
2.80750,5.10411337
2.80800,5.409307778
2.80850,6.630085409
2.80900,9.376835078
2.80950,12.42877916
2.81000,14.87033442
2.81050,17.31188968
2.81100,20.05863935
2.81150,22.1950002
2.81200,22.50019461
2.81250,18.83786172
2.81300,10.59761271
2.81350,0.5261972547
2.81400,-4.662107676
2.81450,-4.662107676
2.81500,-4.356913269
2.81550,-8.019246161
2.81600,-12.59716228
2.81650,-12.90235668
2.81700,-9.850412607
2.81750,-8.324440569
2.81800,-9.545218199
2.81850,-10.46080142
2.81900,-11.37638465
2.81950,-12.90235668
2.82000,-12.59716228
2.82050,-5.577690899
2.82100,6.324891001
2.82150,15.78591764
2.82200,19.14305612
2.82250,20.36383376
2.82300,22.50019461
2.82350,22.80538902
2.82400,20.36383376
2.82450,18.53266731
2.82500,20.05863935
2.82550,20.97422257
2.82600,17.31188968
2.82650,11.20800152
2.82700,6.324891001
2.82750,2.052169293
2.82800,-2.83094123
2.82850,-6.493274122
2.82900,-6.79846853
2.82950,-7.103662938
2.83000,-10.76599583
2.83050,-15.95430076
2.83100,-18.39585602
2.83150,-18.70105043
2.83200,-19.92182806
2.83250,-20.83741128
2.83300,-16.86988398
2.83350,-7.408857346
2.83400,2.357363701
2.83450,9.376835078
2.83500,13.64955679
2.83550,15.17552882
2.83600,14.56514001
2.83650,14.2599456
2.83700,17.31188968
2.83750,21.88980579
2.83800,23.11058342
2.83850,18.2274729
2.83900,8.766446263
2.83950,-2.525746822
2.84000,-13.5127455
2.84050,-20.53221688
2.84100,-20.83741128
2.84150,-16.25949517
2.84200,-11.68157905
2.84250,-9.545218199
2.84300,-8.629634976
2.84350,-9.240023792
2.84400,-11.37638465
2.84450,-12.90235668
2.84500,-11.37638465
2.84550,-8.019246161
2.84600,-8.019246161
2.84650,-12.90235668
2.84700,-17.4802728
2.84750,-17.4802728
2.84800,-14.42832872
2.84850,-14.12313432
2.84900,-21.75299451
2.84950,-35.79193726
2.85000,-48.91529679
2.85050,-54.40879613
2.85100,-49.83088002
2.85150,-39.14907575
2.85200,-27.24649385
2.85250,-15.64910635
2.85300,-4.051718861
2.85350,6.324891001
2.85400,14.87033442
2.85450,22.1950002
2.85500,27.68849954
2.85550,28.90927717
2.85600,26.1625275
2.85650,23.41577783
2.85700,23.41577783
2.85750,25.24694428
2.85800,26.46772191
2.85850,27.07811072
2.85900,27.38330513
2.85950,27.07811072
2.86000,25.55213869
2.86050,23.11058342
2.86100,18.53266731
2.86150,8.461251855
2.86200,-6.79846853
2.86250,-20.53221688
2.86300,-24.80493858
2.86350,-19.92182806
2.86400,-11.37638465
2.86450,-3.441330045
2.86500,2.967752516
2.86550,8.766446263
2.86600,13.34436238
2.86650,16.39630646
2.86700,19.14305612
2.86750,21.27941698
2.86800,22.1950002
2.86850,24.63655546
2.86900,28.90927717
2.86950,31.96122125
2.87000,30.74044362
2.87050,26.46772191
2.87100,22.50019461
2.87150,20.97422257
2.87200,19.44825053
2.87250,16.39630646
2.87300,11.51319593
2.87350,5.409307778
2.87400,-0.9997747838
2.87450,-6.79846853
2.87500,-12.59716228
2.87550,-21.14260569
2.87600,-30.90882674
2.87650,-36.40232608
2.87700,-31.82440996
2.87750,-21.14260569
2.87800,-13.5127455
2.87850,-11.68157905
2.87900,-10.76599583
2.87950,-6.188079715
2.88000,-0.6945803761
2.88050,1.441780478
2.88100,2.052169293
2.88150,3.578141332
2.88200,6.935279816
2.88250,9.682029486
2.88300,11.51319593
2.88350,13.95475119
2.88400,16.39630646
2.88450,17.31188968
2.88500,16.70150086
2.88550,14.87033442
2.88600,11.81839034
2.88650,7.850863039
2.88700,4.798918962
2.88750,4.493724555
2.88800,4.798918962
2.88850,4.188530147
2.88900,1.746974885
2.88950,-0.08419156075
2.89000,-0.08419156075
2.89050,-0.9997747838
2.89100,-7.714051753
2.89150,-19.31143925
2.89200,-30.90882674
2.89250,-37.01271489
2.89300,-35.48674285
2.89350,-29.07766029
2.89400,-21.75299451
2.89450,-15.95430076
2.89500,-10.76599583
2.89550,-4.967302084
2.89600,0.5261972547
2.89650,6.324891001
2.89700,12.42877916
2.89750,17.00669527
2.89800,18.83786172
2.89850,17.92227849
