type,name,time_units,begin_time,frequency,count,units
signal_3d,"Noraxon MyoMotion-Segments-Forearm RT-Sensor Acceleration","s",0.0000,200,5068,"mG"

time,x,y,z
0.0000,-969.7265625,156.25,166.9921875
0.0050,-983.3984375,149.4140625,167.96875
0.0100,-978.515625,153.8085938,163.0859375
0.0150,-971.6796875,153.8085938,159.1796875
0.0200,-973.6328125,148.9257813,164.5507813
0.0250,-968.2617188,145.9960938,152.34375
0.0300,-974.1210938,137.2070313,147.4609375
0.0350,-974.1210938,145.5078125,149.4140625
0.0400,-980.9570313,150.8789063,150.8789063
0.0450,-980.46875,161.1328125,149.9023438
0.0500,-984.375,159.1796875,141.1132813
0.0550,-973.6328125,166.5039063,158.203125
0.0600,-980.46875,166.015625,146.484375
0.0650,-974.1210938,154.296875,152.8320313
0.0700,-964.84375,150.390625,151.8554688
0.0750,-965.3320313,137.6953125,141.6015625
0.0800,-960.4492188,144.53125,148.9257813
0.0850,-969.7265625,140.1367188,147.9492188
0.0900,-968.75,155.2734375,164.5507813
0.0950,-971.1914063,145.9960938,163.5742188
0.1000,-974.609375,145.5078125,158.6914063
0.1050,-976.0742188,142.0898438,163.5742188
0.1100,-967.2851563,149.9023438,157.2265625
0.1150,-967.7734375,138.1835938,162.5976563
0.1200,-964.84375,130.3710938,161.1328125
0.1250,-954.1015625,120.1171875,154.7851563
0.1300,-949.21875,124.5117188,159.6679688
0.1350,-954.5898438,115.7226563,173.3398438
0.1400,-959.4726563,120.6054688,158.203125
0.1450,-965.3320313,132.3242188,153.3203125
0.1500,-977.5390625,132.8125,166.5039063
0.1550,-977.0507813,145.0195313,143.0664063
0.1600,-975.5859375,156.25,157.7148438
0.1650,-981.9335938,159.6679688,157.7148438
0.1700,-989.2578125,155.2734375,166.9921875
0.1750,-978.0273438,162.5976563,160.6445313
0.1800,-984.8632813,154.7851563,156.7382813
0.1850,-981.9335938,156.7382813,160.15625
0.1900,-989.7460938,146.484375,159.6679688
0.1950,-979.4921875,153.8085938,158.6914063
0.2000,-982.421875,148.9257813,154.7851563
0.2050,-987.7929688,146.9726563,162.109375
0.2100,-997.0703125,146.9726563,149.9023438
0.2150,-985.3515625,149.9023438,154.7851563
0.2200,-987.3046875,149.9023438,145.9960938
0.2250,-995.1171875,140.625,169.4335938
0.2300,-993.1640625,150.390625,142.0898438
0.2350,-979.0039063,154.296875,164.5507813
0.2400,-966.3085938,154.296875,158.6914063
0.2450,-968.2617188,142.0898438,147.9492188
0.2500,-960.4492188,130.3710938,161.6210938
0.2550,-953.6132813,131.3476563,162.109375
0.2600,-953.6132813,133.3007813,157.7148438
0.2650,-952.6367188,134.765625,169.921875
0.2700,-970.2148438,132.8125,163.5742188
0.2750,-964.84375,142.0898438,164.5507813
0.2800,-973.6328125,136.71875,154.7851563
0.2850,-961.9140625,150.8789063,162.5976563
0.2900,-969.2382813,146.9726563,173.3398438
0.2950,-952.1484375,153.3203125,168.9453125
0.3000,-962.890625,154.296875,169.921875
0.3050,-958.984375,148.4375,170.4101563
0.3100,-964.84375,139.1601563,172.3632813
0.3150,-956.5429688,137.2070313,166.015625
0.3200,-959.9609375,139.6484375,164.0625
0.3250,-956.5429688,145.9960938,166.9921875
0.3300,-966.796875,145.5078125,160.15625
0.3350,-970.2148438,148.4375,154.7851563
0.3400,-983.3984375,145.5078125,159.1796875
0.3450,-979.9804688,161.1328125,145.0195313
0.3500,-985.8398438,167.4804688,155.2734375
0.3550,-982.9101563,172.8515625,154.7851563
0.3600,-991.2109375,172.8515625,153.8085938
0.3650,-984.375,178.2226563,157.7148438
0.3700,-985.8398438,179.1992188,150.8789063
0.3750,-977.0507813,173.828125,165.0390625
0.3800,-976.0742188,173.3398438,153.8085938
0.3850,-979.9804688,160.15625,147.9492188
0.3900,-962.890625,154.296875,141.1132813
0.3950,-959.9609375,135.2539063,143.5546875
0.4000,-955.078125,137.6953125,153.8085938
0.4050,-969.2382813,122.5585938,146.484375
0.4100,-974.609375,125.9765625,156.25
0.4150,-976.5625,130.3710938,133.3007813
0.4200,-979.4921875,134.2773438,145.9960938
0.4250,-981.9335938,137.2070313,143.0664063
0.4300,-978.0273438,145.5078125,144.0429688
0.4350,-973.6328125,148.4375,145.5078125
0.4400,-975.5859375,148.9257813,145.9960938
0.4450,-962.890625,160.15625,154.296875
0.4500,-966.796875,155.7617188,160.15625
0.4550,-961.9140625,154.296875,153.8085938
0.4600,-967.2851563,148.9257813,173.828125
0.4650,-970.2148438,139.1601563,163.5742188
0.4700,-967.7734375,139.6484375,172.8515625
0.4750,-959.4726563,140.625,163.0859375
0.4800,-965.3320313,145.9960938,166.9921875
0.4850,-971.6796875,142.0898438,168.4570313
0.4900,-968.2617188,154.296875,154.296875
0.4950,-968.75,155.7617188,161.1328125
0.5000,-978.0273438,157.2265625,153.3203125
0.5050,-980.46875,160.15625,164.5507813
0.5100,-978.0273438,164.5507813,161.1328125
0.5150,-970.703125,164.5507813,145.0195313
0.5200,-972.1679688,168.4570313,148.9257813
0.5250,-970.2148438,164.5507813,149.9023438
0.5300,-975.5859375,165.0390625,153.8085938
0.5350,-972.65625,162.109375,141.6015625
0.5400,-976.0742188,156.7382813,142.578125
0.5450,-979.0039063,153.3203125,136.71875
0.5500,-984.375,149.4140625,145.0195313
0.5550,-980.46875,155.7617188,142.0898438
0.5600,-976.0742188,156.7382813,148.4375
0.5650,-974.609375,164.0625,146.9726563
0.5700,-979.0039063,153.8085938,144.0429688
0.5750,-966.3085938,159.1796875,147.9492188
0.5800,-978.515625,150.390625,151.8554688
0.5850,-969.7265625,160.6445313,158.203125
0.5900,-973.6328125,159.1796875,158.6914063
0.5950,-979.4921875,150.8789063,163.5742188
0.6000,-982.421875,147.9492188,151.8554688
0.6050,-985.3515625,150.390625,155.2734375
0.6100,-982.421875,157.7148438,154.296875
0.6150,-981.4453125,149.4140625,147.9492188
0.6200,-974.609375,155.7617188,156.25
0.6250,-980.46875,151.8554688,145.0195313
0.6300,-974.609375,154.296875,154.296875
0.6350,-971.1914063,149.4140625,140.625
0.6400,-976.0742188,147.4609375,156.7382813
0.6450,-968.2617188,158.203125,146.484375
0.6500,-978.0273438,156.7382813,153.8085938
0.6550,-972.65625,164.5507813,148.4375
0.6600,-979.9804688,161.1328125,151.3671875
0.6650,-979.4921875,161.1328125,149.4140625
0.6700,-976.0742188,166.015625,151.8554688
0.6750,-976.5625,163.0859375,147.9492188
0.6800,-979.4921875,157.7148438,149.4140625
0.6850,-976.5625,157.2265625,148.9257813
0.6900,-967.2851563,162.109375,154.296875
0.6950,-973.1445313,154.296875,148.9257813
0.7000,-979.0039063,144.53125,151.8554688
0.7050,-969.7265625,152.8320313,147.4609375
0.7100,-976.5625,146.484375,146.484375
0.7150,-977.5390625,148.4375,145.0195313
0.7200,-983.3984375,151.3671875,145.9960938
0.7250,-984.375,153.3203125,148.9257813
0.7300,-979.9804688,157.7148438,148.4375
0.7350,-977.5390625,160.6445313,156.25
0.7400,-991.2109375,149.4140625,163.5742188
0.7450,-979.0039063,162.109375,150.390625
0.7500,-987.3046875,153.3203125,147.9492188
0.7550,-984.8632813,151.3671875,159.1796875
0.7600,-972.65625,157.2265625,154.296875
0.7650,-982.421875,146.9726563,145.5078125
0.7700,-988.28125,149.9023438,147.4609375
0.7750,-982.421875,146.9726563,151.8554688
0.7800,-982.421875,154.296875,137.2070313
0.7850,-984.8632813,151.3671875,136.2304688
0.7900,-980.9570313,156.7382813,145.9960938
0.7950,-990.7226563,152.34375,136.2304688
0.8000,-979.4921875,166.9921875,150.390625
0.8050,-981.4453125,162.5976563,143.0664063
0.8100,-982.421875,157.7148438,146.484375
0.8150,-974.609375,157.7148438,148.4375
0.8200,-979.9804688,154.7851563,153.3203125
0.8250,-977.0507813,154.7851563,150.8789063
0.8300,-982.9101563,150.8789063,144.53125
0.8350,-979.9804688,145.5078125,147.4609375
0.8400,-989.2578125,143.5546875,154.296875
0.8450,-982.9101563,150.390625,153.3203125
0.8500,-989.7460938,147.9492188,148.4375
0.8550,-980.9570313,149.9023438,136.71875
0.8600,-981.9335938,153.8085938,147.4609375
0.8650,-979.9804688,156.25,147.9492188
0.8700,-979.4921875,153.3203125,156.25
0.8750,-976.5625,155.2734375,143.5546875
0.8800,-987.3046875,149.4140625,147.4609375
0.8850,-980.46875,147.9492188,154.7851563
0.8900,-969.2382813,153.3203125,147.9492188
0.8950,-985.3515625,140.625,144.53125
0.9000,-977.5390625,156.7382813,144.53125
0.9050,-978.0273438,161.6210938,146.484375
0.9100,-975.0976563,163.5742188,147.4609375
0.9150,-981.4453125,159.1796875,149.4140625
0.9200,-978.0273438,164.5507813,150.390625
0.9250,-973.1445313,166.5039063,155.2734375
0.9300,-973.1445313,165.0390625,151.8554688
0.9350,-982.9101563,150.8789063,148.9257813
0.9400,-979.9804688,146.9726563,153.8085938
0.9450,-984.8632813,151.8554688,147.4609375
0.9500,-990.234375,150.390625,158.203125
0.9550,-984.8632813,150.8789063,142.0898438
0.9600,-990.234375,148.9257813,144.53125
0.9650,-978.0273438,159.6679688,147.4609375
0.9700,-989.7460938,156.7382813,135.7421875
0.9750,-979.4921875,160.15625,143.5546875
0.9800,-980.46875,161.6210938,142.578125
0.9850,-978.0273438,163.5742188,150.390625
0.9900,-978.515625,156.25,149.9023438
0.9950,-982.421875,146.484375,154.296875
1.0000,-970.703125,155.2734375,153.8085938
1.0050,-978.0273438,144.53125,145.5078125
1.0100,-982.9101563,138.671875,153.8085938
1.0150,-972.65625,145.0195313,145.9960938
1.0200,-979.4921875,140.1367188,144.53125
1.0250,-977.0507813,145.0195313,143.0664063
1.0300,-979.4921875,150.8789063,152.8320313
1.0350,-972.1679688,146.9726563,147.9492188
1.0400,-978.0273438,144.53125,145.9960938
1.0450,-971.1914063,153.3203125,157.7148438
1.0500,-970.703125,145.9960938,151.3671875
1.0550,-976.5625,140.1367188,156.7382813
1.0600,-972.65625,142.0898438,140.625
1.0650,-972.1679688,139.6484375,157.2265625
1.0700,-977.5390625,140.625,147.4609375
1.0750,-974.609375,152.8320313,146.9726563
1.0800,-979.0039063,152.8320313,149.9023438
1.0850,-977.5390625,153.3203125,151.8554688
1.0900,-975.5859375,149.4140625,152.34375
1.0950,-973.6328125,146.484375,138.671875
1.1000,-972.65625,152.8320313,138.671875
1.1050,-972.65625,145.5078125,129.8828125
1.1100,-970.703125,147.4609375,140.625
1.1150,-969.2382813,145.9960938,142.0898438
1.1200,-977.0507813,152.34375,134.765625
1.1250,-981.4453125,152.34375,148.4375
1.1300,-985.3515625,153.8085938,135.7421875
1.1350,-979.4921875,157.2265625,154.296875
1.1400,-978.0273438,158.203125,150.390625
1.1450,-974.609375,157.2265625,158.6914063
1.1500,-968.75,164.0625,149.9023438
1.1550,-976.5625,147.4609375,157.7148438
1.1600,-975.0976563,142.578125,160.6445313
1.1650,-978.515625,139.6484375,151.8554688
1.1700,-978.0273438,139.6484375,152.34375
1.1750,-979.9804688,138.671875,145.9960938
1.1800,-977.0507813,148.9257813,151.3671875
1.1850,-970.2148438,152.34375,145.5078125
1.1900,-971.6796875,153.8085938,142.578125
1.1950,-971.1914063,157.7148438,146.484375
1.2000,-971.6796875,155.7617188,152.34375
1.2050,-970.2148438,152.34375,145.5078125
1.2100,-968.75,148.4375,132.3242188
1.2150,-973.6328125,152.8320313,152.34375
1.2200,-975.5859375,155.7617188,144.0429688
1.2250,-981.4453125,151.3671875,152.8320313
1.2300,-975.5859375,160.15625,150.8789063
1.2350,-972.1679688,160.15625,150.390625
1.2400,-974.1210938,159.6679688,148.4375
1.2450,-979.9804688,157.7148438,141.6015625
1.2500,-978.0273438,157.2265625,148.9257813
1.2550,-972.1679688,153.3203125,142.578125
1.2600,-982.9101563,149.4140625,143.5546875
1.2650,-981.9335938,149.4140625,128.90625
1.2700,-979.0039063,148.4375,131.8359375
1.2750,-980.9570313,142.578125,137.2070313
1.2800,-973.6328125,146.484375,125.4882813
1.2850,-974.609375,139.1601563,135.2539063
1.2900,-976.0742188,131.3476563,134.2773438
1.2950,-979.4921875,128.90625,143.0664063
1.3000,-971.6796875,141.1132813,150.390625
1.3050,-973.1445313,149.4140625,146.484375
1.3100,-973.1445313,148.9257813,161.1328125
1.3150,-973.1445313,151.3671875,138.1835938
1.3200,-976.5625,155.7617188,151.8554688
1.3250,-972.1679688,159.6679688,150.390625
1.3300,-978.0273438,151.8554688,152.8320313
1.3350,-969.7265625,157.2265625,142.578125
1.3400,-974.609375,162.109375,147.9492188
1.3450,-972.1679688,160.15625,157.2265625
1.3500,-973.6328125,164.5507813,144.0429688
1.3550,-988.28125,160.6445313,134.2773438
1.3600,-995.1171875,172.8515625,130.859375
1.3650,-990.7226563,180.6640625,142.0898438
1.3700,-989.2578125,179.1992188,137.2070313
1.3750,-990.7226563,173.3398438,137.6953125
1.3800,-988.7695313,164.0625,133.7890625
1.3850,-976.5625,164.5507813,135.7421875
1.3900,-962.890625,170.4101563,128.4179688
1.3950,-959.9609375,161.6210938,135.7421875
1.4000,-956.5429688,156.25,142.0898438
1.4050,-962.4023438,149.4140625,137.6953125
1.4100,-972.1679688,150.8789063,137.2070313
1.4150,-983.8867188,149.9023438,150.390625
1.4200,-977.5390625,170.8984375,130.859375
1.4250,-968.75,198.2421875,147.9492188
1.4300,-959.9609375,209.9609375,140.1367188
1.4350,-958.4960938,216.3085938,145.0195313
1.4400,-967.2851563,219.7265625,136.2304688
1.4450,-982.9101563,218.2617188,139.6484375
1.4500,-981.9335938,230.9570313,141.6015625
1.4550,-973.6328125,241.6992188,137.6953125
1.4600,-968.75,234.8632813,129.3945313
1.4650,-952.1484375,239.2578125,116.2109375
1.4700,-945.8007813,228.0273438,118.6523438
1.4750,-935.546875,208.4960938,104.9804688
1.4800,-940.9179688,182.1289063,114.7460938
1.4850,-939.453125,164.0625,103.0273438
1.4900,-954.1015625,148.9257813,114.7460938
1.4950,-958.0078125,142.578125,114.2578125
1.5000,-964.84375,135.2539063,123.5351563
1.5050,-979.9804688,128.90625,139.1601563
1.5100,-983.8867188,143.5546875,145.9960938
1.5150,-987.3046875,161.6210938,157.2265625
1.5200,-986.328125,183.59375,165.5273438
1.5250,-979.4921875,208.984375,162.109375
1.5300,-980.9570313,225.0976563,154.296875
1.5350,-984.8632813,233.8867188,152.8320313
1.5400,-979.4921875,258.7890625,139.6484375
1.5450,-978.515625,271.484375,122.0703125
1.5500,-974.609375,277.8320313,121.5820313
1.5550,-973.1445313,270.0195313,113.28125
1.5600,-970.2148438,260.2539063,101.5625
1.5650,-965.3320313,261.2304688,90.8203125
1.5700,-966.796875,262.6953125,95.703125
1.5750,-976.0742188,259.765625,103.0273438
1.5800,-978.0273438,257.8125,117.6757813
1.5850,-983.8867188,245.6054688,125.9765625
1.5900,-979.9804688,244.6289063,122.0703125
1.5950,-984.375,228.515625,148.4375
1.6000,-983.8867188,220.2148438,157.7148438
1.6050,-990.7226563,211.4257813,156.7382813
1.6100,-983.8867188,226.0742188,159.1796875
1.6150,-979.4921875,247.5585938,146.9726563
1.6200,-977.5390625,278.8085938,166.015625
1.6250,-968.75,312.9882813,144.53125
1.6300,-955.5664063,352.0507813,145.9960938
1.6350,-957.03125,356.9335938,144.53125
1.6400,-944.8242188,370.1171875,145.5078125
1.6450,-949.21875,357.9101563,121.09375
1.6500,-946.7773438,337.890625,120.6054688
1.6550,-947.7539063,318.359375,116.2109375
1.6600,-949.7070313,312.0117188,109.8632813
1.6650,-946.2890625,301.2695313,110.3515625
1.6700,-947.7539063,297.3632813,104.0039063
1.6750,-949.7070313,299.8046875,122.0703125
1.6800,-956.0546875,311.0351563,126.4648438
1.6850,-953.125,320.3125,122.5585938
1.6900,-943.359375,338.8671875,126.4648438
1.6950,-942.8710938,350.5859375,125.9765625
1.7000,-950.6835938,355.46875,140.625
1.7050,-973.1445313,336.4257813,142.578125
1.7100,-972.1679688,345.2148438,133.3007813
1.7150,-977.5390625,352.0507813,133.7890625
1.7200,-968.75,359.8632813,136.71875
1.7250,-962.890625,364.2578125,137.6953125
1.7300,-964.3554688,375.9765625,127.4414063
1.7350,-968.2617188,374.0234375,108.8867188
1.7400,-959.4726563,390.625,105.9570313
1.7450,-949.7070313,405.2734375,112.7929688
1.7500,-950.6835938,416.5039063,115.234375
1.7550,-947.7539063,426.7578125,112.7929688
1.7600,-953.125,427.734375,118.1640625
1.7650,-944.3359375,430.6640625,117.1875
1.7700,-945.3125,430.6640625,124.5117188
1.7750,-937.9882813,451.6601563,125
1.7800,-926.2695313,465.8203125,129.3945313
1.7850,-912.5976563,475.0976563,129.3945313
1.7900,-907.2265625,472.65625,144.0429688
1.7950,-909.6679688,473.6328125,125.4882813
1.8000,-910.6445313,472.65625,135.2539063
1.8050,-900.8789063,482.421875,146.9726563
1.8100,-897.9492188,487.3046875,110.3515625
1.8150,-891.6015625,499.5117188,124.5117188
1.8200,-895.5078125,505.3710938,125.9765625
1.8250,-881.8359375,524.4140625,122.5585938
1.8300,-885.7421875,528.8085938,124.5117188
1.8350,-889.1601563,526.8554688,123.5351563
1.8400,-893.5546875,525.8789063,125.4882813
1.8450,-882.3242188,522.9492188,130.859375
1.8500,-875.4882813,522.9492188,138.1835938
1.8550,-885.7421875,505.859375,115.7226563
1.8600,-867.6757813,533.203125,123.5351563
1.8650,-865.7226563,536.6210938,120.6054688
1.8700,-874.0234375,537.5976563,120.1171875
1.8750,-869.6289063,556.1523438,120.6054688
1.8800,-873.5351563,567.8710938,124.5117188
1.8850,-866.6992188,586.9140625,118.6523438
1.8900,-849.1210938,601.5625,112.3046875
1.8950,-836.4257813,606.9335938,113.28125
1.9000,-843.2617188,605.46875,114.7460938
1.9050,-842.7734375,614.7460938,132.3242188
1.9100,-835.4492188,625.4882813,126.4648438
1.9150,-846.6796875,616.6992188,128.4179688
1.9200,-847.1679688,613.7695313,128.90625
1.9250,-835.4492188,621.5820313,127.9296875
1.9300,-835.9375,611.8164063,130.3710938
1.9350,-829.1015625,609.8632813,130.3710938
1.9400,-830.078125,599.1210938,131.8359375
1.9450,-829.1015625,586.9140625,136.2304688
1.9500,-821.7773438,588.8671875,141.6015625
1.9550,-818.8476563,600.5859375,131.3476563
1.9600,-814.453125,616.6992188,129.8828125
1.9650,-799.8046875,636.71875,111.8164063
1.9700,-794.4335938,644.0429688,136.71875
1.9750,-798.3398438,645.0195313,128.4179688
1.9800,-791.9921875,662.5976563,129.8828125
1.9850,-792.96875,663.5742188,130.859375
1.9900,-791.5039063,672.3632813,137.2070313
1.9950,-793.4570313,675.78125,133.7890625
2.0000,-788.5742188,690.9179688,125.4882813
2.0050,-772.4609375,715.3320313,117.1875
2.0100,-763.671875,723.1445313,117.1875
2.0150,-758.3007813,712.4023438,128.4179688
2.0200,-759.2773438,710.9375,127.9296875
2.0250,-755.859375,704.5898438,131.3476563
2.0300,-772.9492188,690.9179688,131.8359375
2.0350,-763.671875,690.4296875,136.2304688
2.0400,-750.4882813,694.8242188,136.71875
2.0450,-752.4414063,687.5,145.0195313
2.0500,-744.6289063,697.265625,131.3476563
2.0550,-732.9101563,710.4492188,135.2539063
2.0600,-738.7695313,720.703125,141.6015625
2.0650,-738.28125,727.0507813,146.9726563
2.0700,-729.9804688,750,159.6679688
2.0750,-722.1679688,764.1601563,142.578125
2.0800,-721.6796875,775.390625,148.4375
2.0850,-718.2617188,788.0859375,142.0898438
2.0900,-698.7304688,806.640625,131.8359375
2.0950,-686.0351563,805.1757813,139.6484375
2.1000,-690.4296875,786.1328125,148.9257813
2.1050,-688.9648438,774.9023438,145.5078125
2.1100,-695.8007813,758.7890625,145.9960938
2.1150,-692.8710938,756.8359375,133.7890625
2.1200,-682.6171875,763.671875,123.5351563
2.1250,-678.7109375,776.8554688,132.8125
2.1300,-662.5976563,791.5039063,135.7421875
2.1350,-650.390625,804.6875,130.859375
2.1400,-637.6953125,813.9648438,135.7421875
2.1450,-636.71875,815.9179688,149.9023438
2.1500,-636.71875,822.7539063,134.2773438
2.1550,-638.671875,823.7304688,147.9492188
2.1600,-631.8359375,833.0078125,149.4140625
2.1650,-620.1171875,844.7265625,146.9726563
2.1700,-612.7929688,857.421875,147.4609375
2.1750,-608.8867188,861.328125,155.7617188
2.1800,-603.515625,854.0039063,156.25
2.1850,-603.515625,843.75,145.9960938
2.1900,-598.6328125,849.609375,140.1367188
2.1950,-593.2617188,845.2148438,138.671875
2.2000,-591.796875,838.3789063,142.0898438
2.2050,-579.5898438,841.3085938,151.3671875
2.2100,-570.8007813,850.5859375,151.8554688
2.2150,-569.3359375,860.3515625,150.390625
2.2200,-562.5,870.1171875,147.4609375
2.2250,-553.2226563,874.0234375,133.3007813
2.2300,-544.4335938,892.578125,137.2070313
2.2350,-539.5507813,901.8554688,132.8125
2.2400,-527.34375,895.9960938,134.765625
2.2450,-517.578125,884.2773438,139.6484375
2.2500,-512.6953125,879.8828125,143.5546875
2.2550,-501.4648438,898.9257813,131.3476563
2.2600,-504.3945313,916.015625,138.671875
2.2650,-490.7226563,932.6171875,134.765625
2.2700,-477.0507813,926.7578125,156.25
2.2750,-480.46875,900.8789063,141.6015625
2.2800,-470.2148438,897.4609375,156.25
2.2850,-464.84375,892.0898438,140.625
2.2900,-459.4726563,902.8320313,153.8085938
2.2950,-450.6835938,899.4140625,152.8320313
2.3000,-423.828125,920.4101563,145.0195313
2.3050,-415.5273438,924.8046875,153.3203125
2.3100,-404.7851563,940.9179688,143.0664063
2.3150,-422.3632813,941.40625,161.1328125
2.3200,-424.3164063,951.171875,154.7851563
2.3250,-422.8515625,942.8710938,138.671875
2.3300,-396.9726563,930.6640625,162.109375
2.3350,-387.6953125,910.6445313,135.2539063
2.3400,-378.90625,928.2226563,151.8554688
2.3450,-384.765625,948.2421875,154.7851563
2.3500,-376.953125,962.4023438,152.34375
2.3550,-353.515625,945.8007813,163.0859375
2.3600,-337.4023438,921.875,158.6914063
2.3650,-336.9140625,911.6210938,165.5273438
2.3700,-332.03125,945.3125,157.7148438
2.3750,-313.9648438,972.1679688,163.0859375
2.3800,-297.8515625,961.9140625,162.109375
2.3850,-275.390625,953.125,171.875
2.3900,-272.9492188,938.4765625,153.8085938
2.3950,-272.9492188,945.3125,155.2734375
2.4000,-267.578125,961.4257813,166.5039063
2.4050,-256.8359375,972.65625,160.15625
2.4100,-241.6992188,972.65625,176.2695313
2.4150,-235.8398438,969.7265625,167.96875
2.4200,-246.09375,968.2617188,187.0117188
2.4250,-246.5820313,973.1445313,191.40625
2.4300,-241.6992188,961.4257813,191.8945313
2.4350,-228.0273438,935.546875,178.2226563
2.4400,-204.1015625,936.5234375,166.015625
2.4450,-185.0585938,941.8945313,180.6640625
2.4500,-173.3398438,957.03125,178.2226563
2.4550,-175.2929688,957.5195313,183.59375
2.4600,-177.734375,963.8671875,211.4257813
2.4650,-176.7578125,962.890625,200.1953125
2.4700,-151.8554688,971.6796875,203.125
2.4750,-131.3476563,978.515625,202.6367188
2.4800,-132.3242188,976.0742188,201.6601563
2.4850,-134.2773438,984.8632813,199.7070313
2.4900,-131.8359375,1000.976563,197.265625
2.4950,-122.5585938,993.6523438,198.2421875
2.5000,-106.9335938,975.0976563,197.7539063
2.5050,-100.0976563,939.9414063,200.1953125
2.5100,-103.515625,924.8046875,190.9179688
2.5150,-109.8632813,923.3398438,180.6640625
2.5200,-103.515625,933.1054688,183.1054688
2.5250,-89.35546875,935.0585938,196.2890625
2.5300,-70.80078125,953.6132813,195.8007813
2.5350,-49.31640625,977.5390625,213.8671875
2.5400,-52.734375,968.75,203.125
2.5450,-54.19921875,961.9140625,205.5664063
2.5500,-50.78125,960.9375,198.2421875
2.5550,-45.41015625,960.9375,199.21875
2.5600,-27.83203125,972.65625,181.1523438
2.5650,-9.765625,975.5859375,194.8242188
2.5700,-12.6953125,974.609375,196.2890625
2.5750,-9.765625,981.9335938,206.0546875
2.5800,0.9765625,958.0078125,207.03125
2.5850,-7.32421875,918.4570313,207.03125
2.5900,-3.41796875,909.6679688,190.4296875
2.5950,1.953125,924.3164063,196.2890625
2.6000,20.01953125,953.125,196.7773438
2.6050,42.48046875,957.5195313,208.4960938
2.6100,62.01171875,947.7539063,200.1953125
2.6150,66.40625,932.6171875,197.265625
2.6200,71.2890625,928.2226563,205.078125
2.6250,75.68359375,921.3867188,214.3554688
2.6300,66.40625,909.6679688,221.6796875
2.6350,84.9609375,904.7851563,211.9140625
2.6400,101.5625,906.7382813,212.4023438
2.6450,106.9335938,918.4570313,216.3085938
2.6500,106.4453125,941.40625,230.46875
2.6550,111.328125,947.7539063,222.65625
2.6600,114.2578125,961.9140625,228.515625
2.6650,125,975.0976563,242.1875
2.6700,137.6953125,957.03125,233.8867188
2.6750,144.0429688,911.1328125,242.1875
2.6800,123.5351563,894.0429688,223.6328125
2.6850,116.2109375,918.9453125,219.7265625
2.6900,114.2578125,929.1992188,213.8671875
2.6950,143.5546875,933.59375,202.1484375
2.7000,152.34375,935.546875,208.0078125
2.7050,167.4804688,948.2421875,210.4492188
2.7100,156.25,946.7773438,211.4257813
2.7150,157.2265625,945.3125,232.421875
2.7200,162.109375,930.1757813,230.9570313
2.7250,155.2734375,891.6015625,238.28125
2.7300,165.0390625,870.6054688,232.421875
2.7350,188.4765625,875.4882813,222.1679688
2.7400,204.5898438,897.4609375,208.984375
2.7450,209.9609375,922.8515625,240.7226563
2.7500,205.078125,946.2890625,236.328125
2.7550,207.5195313,982.421875,253.4179688
2.7600,222.65625,1005.371094,242.6757813
2.7650,239.2578125,977.0507813,248.046875
2.7700,241.2109375,916.015625,249.5117188
2.7750,230.9570313,883.7890625,234.8632813
2.7800,210.9375,867.1875,239.7460938
2.7850,217.2851563,882.8125,215.8203125
2.7900,237.3046875,926.7578125,223.6328125
2.7950,266.6015625,955.5664063,229.0039063
2.8000,268.0664063,935.546875,248.046875
2.8050,273.4375,893.5546875,245.1171875
2.8100,263.671875,857.421875,247.0703125
2.8150,257.3242188,851.5625,243.1640625
2.8200,270.5078125,875,243.6523438
2.8250,291.015625,889.6484375,241.6992188
2.8300,305.1757813,914.0625,242.6757813
2.8350,322.7539063,958.984375,256.3476563
2.8400,334.9609375,968.2617188,246.5820313
2.8450,342.7734375,926.7578125,262.2070313
2.8500,335.9375,880.3710938,268.5546875
2.8550,321.2890625,846.6796875,255.3710938
2.8600,312.9882813,827.6367188,255.3710938
2.8650,329.1015625,833.0078125,258.3007813
2.8700,351.0742188,854.0039063,235.3515625
2.8750,366.2109375,877.9296875,235.8398438
2.8800,370.1171875,897.4609375,255.859375
2.8850,373.046875,913.0859375,258.7890625
2.8900,359.8632813,904.296875,261.2304688
2.8950,360.8398438,915.0390625,257.3242188
2.9000,366.2109375,918.9453125,256.3476563
2.9050,372.0703125,905.2734375,270.0195313
2.9100,368.6523438,887.6953125,266.6015625
2.9150,366.2109375,878.4179688,260.7421875
2.9200,381.3476563,874.0234375,259.2773438
2.9250,395.5078125,861.8164063,261.71875
2.9300,389.1601563,850.5859375,270.5078125
2.9350,395.9960938,858.8867188,261.2304688
2.9400,385.7421875,852.0507813,266.1132813
2.9450,419.921875,883.3007813,254.8828125
2.9500,424.3164063,873.046875,262.6953125
2.9550,433.59375,863.7695313,253.4179688
2.9600,442.3828125,873.046875,255.859375
2.9650,429.6875,864.7460938,261.2304688
2.9700,435.546875,873.046875,250.4882813
2.9750,451.171875,867.1875,266.6015625
2.9800,463.8671875,850.0976563,264.1601563
2.9850,452.1484375,843.2617188,273.4375
2.9900,442.8710938,873.046875,279.7851563
2.9950,453.6132813,874.5117188,286.6210938
3.0000,465.3320313,845.703125,278.8085938
3.0050,458.0078125,833.4960938,270.9960938
3.0100,459.4726563,844.2382813,251.4648438
3.0150,472.1679688,828.125,246.5820313
3.0200,492.6757813,801.2695313,241.6992188
3.0250,497.0703125,793.9453125,234.375
3.0300,479.9804688,804.6875,238.7695313
3.0350,479.0039063,833.984375,251.953125
3.0400,497.0703125,849.1210938,263.671875
3.0450,513.1835938,820.3125,288.5742188
3.0500,511.2304688,783.203125,269.53125
3.0550,505.859375,783.203125,264.6484375
3.0600,500.9765625,808.1054688,257.3242188
3.0650,524.9023438,824.21875,282.7148438
3.0700,529.7851563,811.0351563,291.5039063
3.0750,527.34375,808.1054688,277.8320313
3.0800,519.0429688,820.3125,264.6484375
3.0850,520.9960938,814.9414063,257.8125
3.0900,523.4375,789.0625,273.4375
3.0950,519.0429688,775.8789063,256.8359375
3.1000,513.671875,820.8007813,241.2109375
3.1050,535.15625,881.3476563,249.5117188
3.1100,549.8046875,861.328125,267.578125
3.1150,540.5273438,779.7851563,265.625
3.1200,533.6914063,761.2304688,252.9296875
3.1250,523.4375,785.6445313,237.3046875
3.1300,554.1992188,800.78125,266.1132813
3.1350,577.6367188,738.7695313,286.1328125
3.1400,579.5898438,689.9414063,291.015625
3.1450,564.453125,676.7578125,276.3671875
3.1500,571.2890625,699.21875,278.3203125
3.1550,587.4023438,694.8242188,279.7851563
3.1600,604.0039063,670.8984375,289.0625
3.1650,618.1640625,669.921875,253.4179688
3.1700,620.1171875,721.6796875,263.671875
3.1750,621.09375,763.1835938,253.90625
3.1800,631.3476563,787.5976563,282.2265625
3.1850,617.6757813,794.4335938,287.5976563
3.1900,606.9335938,814.453125,267.578125
3.1950,604.4921875,802.734375,271.9726563
3.2000,619.6289063,733.8867188,283.6914063
3.2050,596.6796875,641.6015625,279.7851563
3.2100,594.7265625,632.3242188,250
3.2150,596.6796875,661.6210938,248.046875
3.2200,612.3046875,689.453125,245.6054688
3.2250,639.1601563,710.4492188,273.9257813
3.2300,623.5351563,703.6132813,273.9257813
3.2350,604.4921875,711.9140625,262.2070313
3.2400,613.28125,730.9570313,262.2070313
3.2450,642.0898438,706.5429688,267.0898438
3.2500,637.2070313,656.7382813,268.0664063
3.2550,635.2539063,675.2929688,248.046875
3.2600,624.0234375,715.8203125,247.5585938
3.2650,631.3476563,713.3789063,256.8359375
3.2700,647.9492188,684.0820313,272.9492188
3.2750,658.203125,660.15625,262.2070313
3.2800,647.9492188,644.0429688,258.7890625
3.2850,651.8554688,634.2773438,265.1367188
3.2900,662.5976563,635.2539063,266.1132813
3.2950,673.3398438,645.0195313,254.3945313
3.3000,673.828125,655.2734375,247.0703125
3.3050,667.96875,628.90625,273.4375
3.3100,663.0859375,600.0976563,262.6953125
3.3150,685.546875,637.6953125,247.5585938
3.3200,688.4765625,687.9882813,251.4648438
3.3250,693.8476563,725.0976563,255.3710938
3.3300,689.453125,705.5664063,276.3671875
3.3350,687.9882813,647.4609375,274.4140625
3.3400,684.0820313,612.7929688,257.3242188
3.3450,693.8476563,613.7695313,263.1835938
3.3500,704.1015625,632.3242188,258.3007813
3.3550,702.6367188,625.4882813,274.9023438
3.3600,695.8007813,637.2070313,259.2773438
3.3650,703.6132813,662.5976563,280.2734375
3.3700,703.125,659.1796875,264.6484375
3.3750,710.4492188,636.71875,271.484375
3.3800,706.0546875,610.3515625,263.671875
3.3850,709.4726563,610.8398438,249.5117188
3.3900,712.4023438,605.46875,248.046875
3.3950,714.84375,600.0976563,245.1171875
3.4000,720.703125,614.7460938,240.234375
3.4050,747.0703125,665.5273438,242.6757813
3.4100,763.671875,661.6210938,249.0234375
3.4150,754.3945313,581.0546875,270.9960938
3.4200,761.2304688,547.3632813,254.8828125
3.4250,764.6484375,557.6171875,246.5820313
3.4300,774.9023438,582.5195313,250
3.4350,790.5273438,569.3359375,298.3398438
3.4400,782.2265625,551.2695313,270.5078125
3.4450,775.8789063,575.6835938,253.90625
3.4500,787.109375,629.8828125,236.328125
3.4550,791.9921875,622.5585938,277.34375
3.4600,774.9023438,583.984375,281.7382813
3.4650,761.2304688,570.3125,243.6523438
3.4700,754.3945313,577.6367188,247.0703125
3.4750,777.34375,587.890625,214.84375
3.4800,790.0390625,568.359375,225.5859375
3.4850,786.1328125,555.6640625,228.515625
3.4900,767.0898438,553.2226563,216.796875
3.4950,777.34375,566.40625,231.4453125
3.5000,782.2265625,571.2890625,235.8398438
3.5050,784.1796875,569.3359375,247.0703125
3.5100,782.7148438,564.453125,259.765625
3.5150,791.9921875,558.1054688,251.953125
3.5200,791.9921875,554.1992188,254.3945313
3.5250,777.34375,538.0859375,250
3.5300,786.1328125,561.0351563,264.1601563
3.5350,792.96875,549.3164063,259.2773438
3.5400,793.9453125,515.1367188,258.7890625
3.5450,792.4804688,498.5351563,241.6992188
3.5500,793.4570313,531.7382813,228.0273438
3.5550,812.5,559.0820313,235.3515625
3.5600,809.0820313,545.4101563,244.6289063
3.5650,805.6640625,528.3203125,231.4453125
3.5700,793.4570313,537.5976563,208.0078125
3.5750,803.2226563,562.0117188,230.46875
3.5800,809.0820313,557.6171875,243.1640625
3.5850,794.921875,500.4882813,251.953125
3.5900,802.2460938,500,235.8398438
3.5950,804.6875,507.3242188,261.71875
3.6000,801.2695313,504.8828125,250
3.6050,801.2695313,496.09375,241.2109375
3.6100,796.3867188,495.1171875,253.90625
3.6150,802.734375,497.0703125,244.140625
3.6200,802.734375,505.3710938,244.140625
3.6250,797.3632813,490.7226563,252.4414063
3.6300,800.78125,485.3515625,255.3710938
3.6350,802.2460938,491.6992188,245.1171875
3.6400,810.546875,501.4648438,253.4179688
3.6450,814.453125,516.1132813,235.8398438
3.6500,803.7109375,508.3007813,242.6757813
3.6550,798.828125,477.5390625,251.953125
3.6600,792.4804688,466.3085938,253.90625
3.6650,796.3867188,471.6796875,246.5820313
3.6700,807.1289063,486.8164063,239.7460938
3.6750,811.0351563,499.0234375,254.3945313
3.6800,813.4765625,479.4921875,256.3476563
3.6850,797.3632813,437.0117188,250.4882813
3.6900,807.1289063,433.59375,243.6523438
3.6950,825.1953125,443.359375,239.7460938
3.7000,825.6835938,435.0585938,262.6953125
3.7050,823.7304688,422.3632813,239.2578125
3.7100,840.3320313,418.4570313,253.4179688
3.7150,835.4492188,405.7617188,235.3515625
3.7200,837.890625,449.21875,240.234375
3.7250,828.125,492.1875,224.1210938
3.7300,835.9375,512.2070313,242.1875
3.7350,842.2851563,480.46875,253.90625
3.7400,833.4960938,426.2695313,250
3.7450,842.7734375,402.34375,245.6054688
3.7500,851.0742188,416.9921875,238.28125
3.7550,857.421875,442.3828125,233.3984375
3.7600,869.140625,456.0546875,243.6523438
3.7650,862.3046875,423.828125,268.0664063
3.7700,845.2148438,402.34375,247.5585938
3.7750,851.0742188,423.828125,233.8867188
3.7800,876.953125,450.6835938,244.140625
3.7850,878.4179688,439.453125,238.7695313
3.7900,868.1640625,414.0625,227.5390625
3.7950,875.4882813,429.1992188,211.9140625
3.8000,873.5351563,433.1054688,224.1210938
3.8050,886.71875,433.1054688,224.1210938
3.8100,878.90625,422.3632813,222.65625
3.8150,880.3710938,423.828125,230.9570313
3.8200,879.3945313,434.5703125,230.9570313
3.8250,883.3007813,421.3867188,239.2578125
3.8300,869.140625,393.0664063,240.7226563
3.8350,873.5351563,402.34375,213.8671875
3.8400,898.9257813,422.3632813,210.9375
3.8450,893.5546875,409.1796875,227.0507813
3.8500,880.859375,382.8125,230.9570313
3.8550,874.5117188,378.90625,210.9375
3.8600,888.671875,387.6953125,224.1210938
3.8650,885.2539063,384.2773438,216.796875
3.8700,875,403.3203125,221.6796875
3.8750,881.3476563,421.3867188,233.3984375
3.8800,881.8359375,387.2070313,235.3515625
3.8850,863.7695313,355.46875,234.375
3.8900,862.3046875,376.953125,230.9570313
3.8950,876.4648438,386.71875,234.8632813
3.9000,878.90625,357.9101563,236.8164063
3.9050,881.8359375,327.6367188,237.7929688
3.9100,889.1601563,357.9101563,225.0976563
3.9150,875,375,232.9101563
3.9200,886.71875,390.625,238.7695313
3.9250,886.2304688,361.8164063,233.8867188
3.9300,882.3242188,327.6367188,250.9765625
3.9350,886.2304688,338.3789063,228.515625
3.9400,886.71875,386.71875,229.0039063
3.9450,873.046875,401.3671875,242.6757813
3.9500,854.9804688,385.2539063,259.2773438
3.9550,854.4921875,373.046875,240.7226563
3.9600,879.3945313,384.765625,244.6289063
3.9650,887.2070313,351.0742188,245.1171875
3.9700,882.8125,316.40625,240.234375
3.9750,874.0234375,313.9648438,257.8125
3.9800,876.4648438,352.0507813,241.6992188
3.9850,875.4882813,372.0703125,253.90625
3.9900,882.8125,378.90625,251.953125
3.9950,881.8359375,390.625,240.7226563
4.0000,870.6054688,389.6484375,249.0234375
4.0050,874.5117188,373.5351563,237.3046875
4.0100,875.9765625,347.1679688,247.0703125
4.0150,888.1835938,349.609375,220.2148438
4.0200,892.0898438,388.1835938,232.9101563
4.0250,882.8125,393.5546875,244.140625
4.0300,880.859375,376.953125,253.90625
4.0350,874.5117188,356.9335938,248.046875
4.0400,885.7421875,367.6757813,247.5585938
4.0450,884.765625,374.5117188,253.4179688
4.0500,877.4414063,361.8164063,260.7421875
4.0550,872.0703125,347.1679688,246.09375
4.0600,871.5820313,350.0976563,235.3515625
4.0650,886.2304688,362.3046875,240.234375
4.0700,878.90625,357.9101563,238.28125
4.0750,884.2773438,375.9765625,234.375
4.0800,877.9296875,381.3476563,236.8164063
4.0850,889.1601563,382.3242188,230.9570313
4.0900,887.2070313,363.28125,225.5859375
4.0950,885.2539063,360.3515625,230.9570313
4.1000,882.3242188,370.1171875,242.1875
4.1050,877.9296875,364.7460938,210.9375
4.1100,886.2304688,359.375,230.9570313
4.1150,891.1132813,351.0742188,222.65625
4.1200,886.71875,347.65625,237.7929688
4.1250,877.9296875,346.1914063,230.9570313
4.1300,874.0234375,345.2148438,228.515625
4.1350,889.1601563,352.0507813,228.515625
4.1400,894.53125,363.7695313,230.46875
4.1450,889.6484375,368.1640625,233.3984375
4.1500,874.5117188,361.328125,243.6523438
4.1550,872.5585938,351.0742188,228.515625
4.1600,875.9765625,363.7695313,222.1679688
4.1650,882.3242188,369.6289063,210.9375
4.1700,882.3242188,356.9335938,206.5429688
4.1750,883.3007813,348.6328125,217.2851563
4.1800,867.1875,346.6796875,219.7265625
4.1850,871.09375,367.1875,217.7734375
4.1900,874.5117188,383.3007813,223.1445313
4.1950,870.6054688,370.1171875,227.0507813
4.2000,861.328125,362.7929688,229.4921875
4.2050,853.0273438,360.3515625,223.1445313
4.2100,844.2382813,369.6289063,228.0273438
4.2150,847.1679688,367.6757813,226.0742188
4.2200,854.0039063,356.4453125,228.0273438
4.2250,865.234375,354.9804688,224.609375
4.2300,852.5390625,352.0507813,216.3085938
4.2350,840.8203125,368.6523438,219.7265625
4.2400,836.4257813,398.9257813,212.890625
4.2450,842.2851563,419.4335938,211.4257813
4.2500,850.5859375,408.6914063,225.5859375
4.2550,853.515625,384.765625,201.171875
4.2600,837.890625,368.6523438,204.5898438
4.2650,836.9140625,382.8125,207.03125
4.2700,835.4492188,397.4609375,191.8945313
4.2750,850.0976563,395.5078125,211.9140625
4.2800,843.75,368.1640625,219.2382813
4.2850,845.2148438,372.0703125,213.8671875
4.2900,832.03125,390.625,208.0078125
4.2950,834.4726563,410.6445313,212.890625
4.3000,843.2617188,415.5273438,226.5625
4.3050,835.9375,392.0898438,217.7734375
4.3100,830.5664063,380.859375,216.3085938
4.3150,842.2851563,393.0664063,210.4492188
4.3200,846.6796875,404.296875,210.4492188
4.3250,853.0273438,405.2734375,217.7734375
4.3300,845.2148438,401.8554688,222.65625
4.3350,842.2851563,408.203125,215.3320313
4.3400,846.6796875,417.4804688,210.4492188
4.3450,846.6796875,426.7578125,226.0742188
4.3500,843.2617188,438.4765625,216.796875
4.3550,852.0507813,444.8242188,219.7265625
4.3600,851.5625,438.9648438,219.2382813
4.3650,847.65625,428.7109375,218.75
4.3700,840.3320313,418.4570313,221.6796875
4.3750,852.5390625,425.78125,196.2890625
4.3800,855.46875,434.5703125,200.6835938
4.3850,852.5390625,441.8945313,214.3554688
4.3900,838.8671875,448.2421875,220.2148438
4.3950,844.2382813,460.9375,222.65625
4.4000,841.3085938,457.5195313,227.0507813
4.4050,850.5859375,461.4257813,224.609375
4.4100,849.1210938,454.5898438,242.1875
4.4150,857.9101563,460.4492188,231.9335938
4.4200,846.1914063,458.4960938,237.3046875
4.4250,851.5625,478.0273438,232.421875
4.4300,861.8164063,498.046875,217.7734375
4.4350,856.4453125,496.09375,234.8632813
4.4400,845.703125,484.8632813,225.5859375
4.4450,854.4921875,479.4921875,216.3085938
4.4500,870.1171875,476.5625,205.078125
4.4550,877.9296875,456.0546875,190.4296875
4.4600,875.9765625,465.3320313,197.265625
4.4650,873.046875,487.7929688,203.6132813
4.4700,846.1914063,494.140625,208.984375
4.4750,858.8867188,520.9960938,207.5195313
4.4800,855.9570313,523.4375,222.1679688
4.4850,869.140625,538.0859375,228.515625
4.4900,858.8867188,531.25,221.1914063
4.4950,845.703125,512.6953125,243.6523438
4.5000,839.3554688,510.2539063,236.328125
4.5050,834.4726563,511.2304688,225.0976563
4.5100,838.8671875,519.53125,214.3554688
4.5150,848.1445313,537.109375,229.9804688
4.5200,826.171875,534.6679688,224.609375
4.5250,814.453125,539.5507813,224.609375
4.5300,806.640625,550.2929688,229.4921875
4.5350,810.0585938,552.2460938,236.328125
4.5400,805.1757813,540.5273438,231.9335938
4.5450,803.7109375,543.9453125,230.46875
4.5500,799.3164063,555.6640625,249.5117188
4.5550,797.3632813,557.6171875,229.0039063
4.5600,794.4335938,555.6640625,238.28125
4.5650,792.4804688,558.59375,238.28125
4.5700,782.2265625,569.8242188,228.0273438
4.5750,773.9257813,586.9140625,222.1679688
4.5800,770.0195313,591.796875,229.0039063
4.5850,773.9257813,586.9140625,234.375
4.5900,773.4375,567.8710938,228.515625
4.5950,770.5078125,554.1992188,232.9101563
4.6000,762.6953125,564.453125,227.0507813
4.6050,763.671875,577.6367188,233.8867188
4.6100,752.4414063,582.5195313,227.0507813
4.6150,748.5351563,582.03125,228.515625
4.6200,750.9765625,595.703125,233.3984375
4.6250,750,602.0507813,227.5390625
4.6300,740.234375,604.0039063,239.7460938
4.6350,743.1640625,597.65625,233.8867188
4.6400,745.1171875,599.609375,229.4921875
4.6450,747.5585938,603.515625,224.609375
4.6500,750,612.3046875,231.4453125
4.6550,743.1640625,609.375,218.75
4.6600,737.7929688,603.515625,232.9101563
4.6650,724.609375,593.75,236.8164063
4.6700,729.9804688,606.4453125,228.515625
4.6750,733.8867188,622.0703125,238.28125
4.6800,729.4921875,625.9765625,238.7695313
4.6850,725.5859375,628.4179688,239.2578125
4.6900,726.0742188,637.6953125,227.0507813
4.6950,718.75,653.3203125,219.2382813
4.7000,711.9140625,662.109375,224.1210938
4.7050,708.984375,642.0898438,234.375
4.7100,702.6367188,627.9296875,242.6757813
4.7150,711.4257813,631.8359375,225.0976563
4.7200,703.6132813,635.7421875,224.609375
4.7250,702.1484375,642.578125,220.703125
4.7300,708.0078125,660.15625,225.0976563
4.7350,688.4765625,655.2734375,230.46875
4.7400,688.4765625,679.6875,226.5625
4.7450,692.3828125,682.1289063,221.1914063
4.7500,682.6171875,668.9453125,224.1210938
4.7550,676.2695313,649.4140625,233.8867188
4.7600,685.0585938,659.6679688,234.375
4.7650,684.5703125,666.9921875,240.234375
4.7700,673.3398438,664.5507813,230.46875
4.7750,675.78125,666.5039063,236.8164063
4.7800,669.921875,665.0390625,235.3515625
4.7850,667.4804688,670.8984375,227.0507813
4.7900,668.4570313,687.5,228.0273438
4.7950,665.0390625,701.171875,228.0273438
4.8000,650.390625,695.3125,224.1210938
4.8050,650.390625,703.6132813,227.0507813
4.8100,649.4140625,698.2421875,221.1914063
4.8150,654.296875,687.0117188,220.703125
4.8200,657.7148438,689.453125,218.75
4.8250,640.1367188,679.1992188,229.4921875
4.8300,648.4375,691.40625,230.46875
4.8350,641.1132813,687.9882813,241.6992188
4.8400,641.1132813,703.6132813,240.234375
4.8450,637.2070313,727.0507813,233.3984375
4.8500,634.765625,748.5351563,245.1171875
4.8550,625.9765625,747.0703125,256.8359375
4.8600,621.5820313,741.2109375,260.7421875
4.8650,617.1875,729.4921875,255.3710938
4.8700,628.4179688,740.234375,242.6757813
4.8750,621.09375,747.0703125,235.3515625
4.8800,613.7695313,753.90625,259.765625
4.8850,600.0976563,749.0234375,232.421875
4.8900,596.6796875,751.953125,229.4921875
4.8950,595.2148438,740.7226563,228.515625
4.9000,593.2617188,745.1171875,228.0273438
4.9050,590.8203125,769.53125,240.234375
4.9100,588.8671875,796.875,238.7695313
4.9150,583.984375,805.1757813,242.6757813
4.9200,576.171875,792.96875,249.0234375
4.9250,587.4023438,769.0429688,249.5117188
4.9300,580.078125,736.8164063,260.7421875
4.9350,585.4492188,724.609375,240.234375
4.9400,581.0546875,749.5117188,228.515625
4.9450,574.7070313,764.6484375,229.4921875
4.9500,568.359375,771.9726563,240.234375
4.9550,555.1757813,779.296875,237.3046875
4.9600,559.0820313,813.4765625,229.0039063
4.9650,568.359375,827.1484375,236.328125
4.9700,560.0585938,812.9882813,229.9804688
4.9750,557.6171875,796.875,247.5585938
4.9800,542.96875,779.7851563,236.328125
4.9850,526.8554688,764.6484375,229.4921875
4.9900,526.8554688,770.0195313,220.703125
4.9950,524.4140625,774.9023438,227.5390625
5.0000,519.0429688,777.8320313,229.4921875
5.0050,520.5078125,788.5742188,231.9335938
5.0100,516.6015625,805.1757813,248.046875
5.0150,511.71875,822.265625,238.28125
5.0200,503.4179688,829.5898438,255.3710938
5.0250,503.4179688,825.6835938,242.1875
5.0300,502.9296875,816.8945313,244.140625
5.0350,500.9765625,820.3125,241.2109375
5.0400,491.6992188,815.4296875,228.0273438
5.0450,483.8867188,807.6171875,227.0507813
5.0500,486.8164063,809.0820313,235.8398438
5.0550,481.9335938,794.921875,232.9101563
5.0600,477.5390625,791.5039063,247.0703125
5.0650,472.65625,805.6640625,241.6992188
5.0700,472.1679688,840.3320313,245.6054688
5.0750,459.4726563,854.9804688,256.3476563
5.0800,456.5429688,860.3515625,261.2304688
5.0850,448.2421875,838.8671875,257.3242188
5.0900,440.9179688,836.9140625,259.2773438
5.0950,450.1953125,856.9335938,242.1875
5.1000,437.5,864.7460938,250
5.1050,420.4101563,849.609375,251.4648438
5.1100,420.8984375,833.0078125,241.2109375
5.1150,423.828125,824.7070313,235.8398438
5.1200,429.1992188,838.3789063,244.6289063
5.1250,411.1328125,851.5625,238.28125
5.1300,399.9023438,876.4648438,243.1640625
5.1350,395.9960938,878.4179688,248.5351563
5.1400,396.484375,884.2773438,244.6289063
5.1450,393.0664063,880.859375,255.3710938
5.1500,388.671875,882.8125,254.3945313
5.1550,380.3710938,883.3007813,256.3476563
5.1600,371.5820313,883.7890625,250.9765625
5.1650,376.4648438,891.1132813,258.3007813
5.1700,379.8828125,882.8125,248.046875
5.1750,378.90625,874.5117188,250
5.1800,358.3984375,877.4414063,244.140625
5.1850,355.46875,903.8085938,235.3515625
5.1900,356.9335938,936.0351563,253.90625
5.1950,347.1679688,931.640625,246.5820313
5.2000,355.9570313,921.875,250.9765625
5.2050,343.2617188,886.2304688,246.09375
5.2100,338.8671875,865.7226563,234.8632813
5.2150,320.8007813,859.375,236.8164063
5.2200,319.8242188,878.90625,244.6289063
5.2250,311.0351563,894.53125,237.7929688
5.2300,310.0585938,910.6445313,244.140625
5.2350,313.4765625,909.6679688,246.09375
5.2400,307.6171875,901.8554688,241.6992188
5.2450,307.1289063,920.4101563,231.9335938
5.2500,296.875,923.828125,250.4882813
5.2550,282.7148438,905.2734375,251.953125
5.2600,283.203125,875,251.4648438
5.2650,295.4101563,862.3046875,233.8867188
5.2700,298.3398438,877.9296875,221.6796875
5.2750,290.5273438,924.3164063,219.2382813
5.2800,280.2734375,960.4492188,228.0273438
5.2850,268.5546875,950.1953125,236.328125
5.2900,258.3007813,933.1054688,237.3046875
5.2950,251.953125,926.2695313,241.6992188
5.3000,241.2109375,925.78125,237.3046875
5.3050,233.8867188,921.875,227.5390625
5.3100,237.3046875,924.8046875,215.3320313
5.3150,229.0039063,911.6210938,211.9140625
5.3200,229.9804688,905.7617188,229.4921875
5.3250,225.5859375,896.9726563,227.5390625
5.3300,216.3085938,914.5507813,226.5625
5.3350,217.2851563,932.1289063,232.9101563
5.3400,216.3085938,958.984375,244.140625
5.3450,220.703125,990.7226563,239.2578125
5.3500,223.6328125,1005.371094,255.859375
5.3550,218.2617188,982.9101563,263.671875
5.3600,212.890625,958.0078125,280.7617188
5.3650,200.6835938,933.1054688,277.8320313
5.3700,207.03125,933.1054688,275.390625
5.3750,204.5898438,925.78125,279.7851563
5.3800,206.5429688,935.546875,288.0859375
5.3850,191.40625,951.6601563,293.4570313
5.3900,169.4335938,970.703125,287.109375
5.3950,171.3867188,978.515625,269.53125
5.4000,167.4804688,964.3554688,286.6210938
5.4050,163.0859375,959.4726563,259.2773438
5.4100,153.3203125,970.703125,242.6757813
5.4150,143.5546875,985.3515625,232.9101563
5.4200,132.8125,996.5820313,224.609375
5.4250,133.3007813,993.1640625,235.8398438
5.4300,111.328125,985.3515625,223.1445313
5.4350,107.9101563,988.28125,220.703125
5.4400,110.8398438,981.9335938,245.1171875
5.4450,108.3984375,953.125,250.4882813
5.4500,102.5390625,944.3359375,255.3710938
5.4550,96.6796875,954.5898438,254.3945313
5.4600,86.9140625,956.0546875,264.1601563
5.4650,85.9375,946.7773438,256.8359375
5.4700,85.44921875,924.3164063,255.3710938
5.4750,77.1484375,915.0390625,224.609375
5.4800,67.3828125,943.359375,213.8671875
5.4850,65.91796875,996.5820313,197.265625
5.4900,69.3359375,1040.527344,227.0507813
5.4950,52.734375,1032.714844,224.609375
5.5000,49.31640625,1012.695313,247.0703125
5.5050,48.828125,977.5390625,232.421875
5.5100,49.8046875,953.6132813,231.4453125
5.5150,43.45703125,935.546875,224.1210938
5.5200,31.73828125,934.0820313,215.8203125
5.5250,10.25390625,937.9882813,222.1679688
5.5300,-3.90625,960.9375,220.2148438
5.5350,-8.7890625,985.8398438,220.703125
5.5400,-19.53125,981.4453125,227.0507813
5.5450,-5.37109375,988.28125,238.28125
5.5500,-21.484375,973.6328125,234.375
5.5550,-21.484375,977.0507813,219.7265625
5.5600,-24.4140625,969.7265625,215.3320313
5.5650,-24.4140625,967.2851563,196.7773438
5.5700,-41.9921875,963.3789063,189.453125
5.5750,-41.9921875,967.7734375,194.3359375
5.5800,-34.66796875,972.1679688,209.4726563
5.5850,-31.25,967.7734375,208.4960938
5.5900,-43.45703125,978.515625,218.75
5.5950,-69.82421875,991.6992188,225.5859375
5.6000,-79.1015625,1001.953125,215.3320313
5.6050,-70.3125,997.0703125,233.3984375
5.6100,-54.6875,978.515625,229.4921875
5.6150,-60.05859375,956.0546875,213.8671875
5.6200,-80.078125,940.9179688,215.3320313
5.6250,-83.984375,960.9375,206.0546875
5.6300,-85.9375,976.0742188,219.2382813
5.6350,-77.63671875,978.0273438,225.0976563
5.6400,-72.75390625,991.2109375,226.5625
5.6450,-76.66015625,1004.882813,217.2851563
5.6500,-87.40234375,1014.648438,236.8164063
5.6550,-107.421875,995.6054688,223.1445313
5.6600,-106.4453125,988.7695313,224.609375
5.6650,-119.6289063,975.5859375,217.2851563
5.6700,-121.5820313,977.5390625,203.6132813
5.6750,-130.3710938,975.5859375,210.9375
5.6800,-125,974.609375,227.0507813
5.6850,-117.1875,946.7773438,238.7695313
5.6900,-119.140625,942.3828125,230.9570313
5.6950,-121.5820313,965.8203125,221.6796875
5.7000,-153.3203125,981.9335938,235.8398438
5.7050,-164.0625,977.5390625,228.0273438
5.7100,-148.4375,952.1484375,226.5625
5.7150,-137.6953125,922.8515625,227.5390625
5.7200,-135.7421875,931.1523438,217.2851563
5.7250,-151.8554688,975.0976563,203.125
5.7300,-161.6210938,1046.386719,220.2148438
5.7350,-182.1289063,1040.527344,217.7734375
5.7400,-191.40625,991.2109375,225.5859375
5.7450,-191.40625,964.3554688,204.1015625
5.7500,-196.7773438,969.7265625,188.4765625
5.7550,-209.4726563,955.5664063,204.5898438
5.7600,-210.4492188,935.0585938,213.8671875
5.7650,-210.9375,918.4570313,212.4023438
5.7700,-234.375,910.6445313,233.8867188
5.7750,-235.3515625,926.7578125,216.796875
5.7800,-242.1875,929.1992188,215.8203125
5.7850,-229.0039063,943.8476563,213.8671875
5.7900,-231.9335938,952.1484375,233.8867188
5.7950,-233.8867188,974.1210938,216.3085938
5.8000,-240.7226563,998.046875,228.515625
5.8050,-250,1010.742188,197.265625
5.8100,-248.046875,1010.253906,203.6132813
5.8150,-264.1601563,977.5390625,219.2382813
5.8200,-267.578125,951.6601563,225.5859375
5.8250,-265.625,930.6640625,224.1210938
5.8300,-280.7617188,906.25,195.3125
5.8350,-285.6445313,897.9492188,194.8242188
5.8400,-295.8984375,884.2773438,192.3828125
5.8450,-300.2929688,876.953125,190.4296875
5.8500,-309.0820313,895.0195313,183.1054688
5.8550,-310.546875,951.171875,172.8515625
5.8600,-318.359375,1017.578125,200.1953125
5.8650,-322.7539063,1027.832031,204.1015625
5.8700,-318.8476563,990.234375,210.4492188
5.8750,-337.4023438,934.0820313,200.6835938
5.8800,-340.3320313,920.8984375,188.9648438
5.8850,-346.6796875,909.6679688,193.359375
5.8900,-341.3085938,903.3203125,191.8945313
5.8950,-348.1445313,891.1132813,191.40625
5.9000,-358.8867188,901.3671875,186.5234375
5.9050,-371.09375,918.4570313,193.359375
5.9100,-366.6992188,946.2890625,189.453125
5.9150,-375.9765625,948.7304688,201.171875
5.9200,-375.9765625,960.9375,191.8945313
5.9250,-381.8359375,951.6601563,178.2226563
5.9300,-386.71875,946.7773438,177.734375
5.9350,-392.578125,937.5,159.6679688
5.9400,-386.71875,920.4101563,166.015625
5.9450,-396.9726563,885.2539063,177.734375
5.9500,-407.7148438,886.2304688,177.734375
5.9550,-416.015625,906.7382813,177.734375
5.9600,-417.4804688,914.5507813,180.1757813
5.9650,-405.2734375,905.2734375,187.9882813
5.9700,-405.7617188,887.6953125,179.6875
5.9750,-404.7851563,889.1601563,177.734375
5.9800,-427.734375,908.203125,171.3867188
5.9850,-436.0351563,953.125,166.015625
5.9900,-442.8710938,972.65625,174.3164063
5.9950,-437.9882813,949.7070313,185.546875
6.0000,-441.40625,920.8984375,169.921875
6.0050,-441.8945313,910.6445313,159.1796875
6.0100,-456.0546875,883.3007813,156.25
6.0150,-460.4492188,863.7695313,158.6914063
6.0200,-460.9375,856.4453125,171.875
6.0250,-474.1210938,840.3320313,164.5507813
6.0300,-478.0273438,855.9570313,173.3398438
6.0350,-465.8203125,878.90625,163.0859375
6.0400,-459.9609375,885.2539063,164.5507813
6.0450,-459.9609375,881.3476563,162.109375
6.0500,-460.9375,889.1601563,147.9492188
6.0550,-463.3789063,891.6015625,148.4375
6.0600,-465.8203125,901.8554688,150.8789063
6.0650,-467.2851563,905.2734375,162.5976563
6.0700,-482.9101563,885.2539063,173.828125
6.0750,-480.46875,877.4414063,186.5234375
6.0800,-491.6992188,863.28125,198.2421875
6.0850,-484.375,872.0703125,188.4765625
6.0900,-496.5820313,874.0234375,192.8710938
6.0950,-502.4414063,875.4882813,190.4296875
6.1000,-501.953125,853.0273438,212.4023438
6.1050,-501.4648438,837.4023438,198.2421875
6.1100,-510.7421875,841.796875,195.8007813
6.1150,-516.6015625,851.5625,179.6875
6.1200,-516.1132813,871.09375,193.359375
6.1250,-527.34375,877.4414063,187.0117188
6.1300,-538.0859375,871.09375,201.6601563
6.1350,-521.9726563,863.7695313,198.2421875
6.1400,-519.53125,867.6757813,183.1054688
6.1450,-510.7421875,887.6953125,186.0351563
6.1500,-516.6015625,895.5078125,205.5664063
6.1550,-534.1796875,874.0234375,195.8007813
6.1600,-545.8984375,858.3984375,187.9882813
6.1650,-553.7109375,843.75,192.8710938
6.1700,-559.5703125,825.1953125,182.1289063
6.1750,-568.8476563,804.1992188,194.3359375
6.1800,-572.7539063,784.1796875,198.7304688
6.1850,-579.5898438,763.1835938,197.265625
6.1900,-588.8671875,779.296875,198.7304688
6.1950,-598.1445313,800.2929688,183.1054688
6.2000,-584.4726563,840.3320313,167.4804688
6.2050,-574.7070313,848.1445313,185.0585938
6.2100,-574.21875,824.7070313,176.7578125
6.2150,-580.5664063,807.1289063,158.6914063
6.2200,-582.03125,815.9179688,146.484375
6.2250,-591.3085938,821.2890625,154.296875
6.2300,-601.5625,803.2226563,163.0859375
6.2350,-617.6757813,785.15625,178.7109375
6.2400,-618.6523438,787.109375,168.4570313
6.2450,-626.4648438,784.6679688,169.921875
6.2500,-623.046875,781.7382813,179.1992188
6.2550,-621.5820313,771.484375,166.015625
6.2600,-634.765625,759.765625,165.5273438
6.2650,-641.6015625,750.9765625,165.5273438
6.2700,-646.9726563,749.5117188,157.7148438
6.2750,-653.3203125,758.3007813,160.6445313
6.2800,-647.9492188,773.4375,139.6484375
6.2850,-649.9023438,767.578125,148.4375
6.2900,-657.7148438,742.1875,133.7890625
6.2950,-651.8554688,735.3515625,128.4179688
6.3000,-655.7617188,756.3476563,105.9570313
6.3050,-641.6015625,785.15625,107.421875
6.3100,-645.9960938,773.9257813,136.71875
6.3150,-672.3632813,751.953125,122.5585938
6.3200,-683.59375,751.953125,142.578125
6.3250,-676.7578125,754.8828125,122.5585938
6.3300,-669.4335938,747.0703125,142.578125
6.3350,-685.0585938,717.2851563,143.5546875
6.3400,-688.9648438,693.359375,172.3632813
6.3450,-697.265625,670.8984375,158.6914063
6.3500,-702.1484375,674.8046875,141.6015625
6.3550,-698.7304688,693.359375,126.953125
6.3600,-700.1953125,713.3789063,110.8398438
6.3650,-698.7304688,724.1210938,111.8164063
6.3700,-713.3789063,711.4257813,102.5390625
6.3750,-711.4257813,723.6328125,82.03125
6.3800,-706.0546875,734.8632813,65.4296875
6.3850,-712.4023438,724.1210938,73.2421875
6.3900,-718.2617188,719.2382813,79.58984375
6.3950,-717.7734375,716.796875,83.0078125
6.4000,-721.1914063,718.75,96.19140625
6.4050,-722.65625,723.6328125,119.140625
6.4100,-731.9335938,715.3320313,141.1132813
6.4150,-721.1914063,695.3125,156.25
6.4200,-717.2851563,665.5273438,143.0664063
6.4250,-728.515625,639.1601563,158.203125
6.4300,-724.1210938,644.0429688,144.53125
6.4350,-739.7460938,625.9765625,147.9492188
6.4400,-737.7929688,623.5351563,125
6.4450,-738.28125,633.7890625,130.3710938
6.4500,-747.5585938,645.0195313,110.3515625
6.4550,-745.1171875,662.5976563,103.515625
6.4600,-744.6289063,675.78125,107.9101563
6.4650,-741.2109375,690.9179688,105.9570313
6.4700,-751.4648438,691.8945313,109.375
6.4750,-746.5820313,703.6132813,102.5390625
6.4800,-752.9296875,693.359375,115.234375
6.4850,-757.8125,681.1523438,113.28125
6.4900,-760.2539063,670.8984375,120.1171875
6.4950,-766.6015625,647.4609375,123.046875
6.5000,-760.2539063,643.5546875,118.6523438
6.5050,-756.3476563,647.9492188,127.9296875
6.5100,-771.9726563,636.71875,125.9765625
6.5150,-779.296875,624.0234375,143.5546875
6.5200,-785.15625,613.7695313,144.0429688
6.5250,-779.296875,618.6523438,128.90625
6.5300,-775.8789063,625.9765625,136.2304688
6.5350,-777.34375,635.2539063,128.90625
6.5400,-788.0859375,631.8359375,130.859375
6.5450,-790.0390625,624.5117188,143.0664063
6.5500,-784.6679688,637.2070313,130.859375
6.5550,-787.109375,643.5546875,111.328125
6.5600,-784.6679688,654.7851563,113.7695313
6.5650,-799.3164063,631.8359375,114.2578125
6.5700,-805.1757813,617.1875,125.9765625
6.5750,-815.4296875,612.3046875,127.4414063
6.5800,-822.265625,607.9101563,129.8828125
6.5850,-820.3125,602.5390625,137.6953125
6.5900,-812.5,604.4921875,128.4179688
6.5950,-822.265625,588.3789063,149.4140625
6.6000,-814.9414063,582.5195313,140.625
6.6050,-820.8007813,578.125,139.1601563
6.6100,-818.8476563,583.0078125,146.484375
6.6150,-828.6132813,580.5664063,137.6953125
6.6200,-821.2890625,596.1914063,146.484375
6.6250,-831.0546875,588.3789063,132.3242188
6.6300,-823.2421875,590.8203125,130.859375
6.6350,-823.2421875,586.4257813,120.1171875
6.6400,-825.6835938,589.84375,134.2773438
6.6450,-841.796875,591.796875,118.1640625
6.6500,-841.796875,594.2382813,119.140625
6.6550,-827.6367188,597.65625,118.6523438
6.6600,-828.6132813,577.6367188,114.2578125
6.6650,-826.171875,557.6171875,116.6992188
6.6700,-837.4023438,532.2265625,134.2773438
6.6750,-857.421875,512.6953125,141.1132813
6.6800,-853.0273438,520.0195313,125.9765625
6.6850,-840.8203125,537.5976563,120.6054688
6.6900,-843.75,541.5039063,125.4882813
6.6950,-850.5859375,529.296875,132.3242188
6.7000,-872.0703125,531.25,129.8828125
6.7050,-868.6523438,544.4335938,120.1171875
6.7100,-868.6523438,541.5039063,107.9101563
6.7150,-859.8632813,530.7617188,122.5585938
6.7200,-859.375,510.2539063,132.8125
6.7250,-867.1875,508.3007813,106.4453125
6.7300,-871.5820313,529.7851563,104.4921875
6.7350,-862.3046875,548.828125,109.8632813
6.7400,-848.1445313,551.7578125,107.421875
6.7450,-852.5390625,532.2265625,116.2109375
6.7500,-868.6523438,513.1835938,118.6523438
6.7550,-882.3242188,495.1171875,105.46875
6.7600,-881.3476563,502.4414063,109.375
6.7650,-876.953125,495.1171875,104.0039063
6.7700,-875,482.9101563,112.7929688
6.7750,-884.2773438,473.1445313,105.46875
6.7800,-901.8554688,467.7734375,122.5585938
6.7850,-904.296875,472.1679688,112.3046875
6.7900,-894.0429688,478.515625,122.0703125
6.7950,-889.6484375,471.1914063,105.9570313
6.8000,-889.1601563,468.75,115.234375
6.8050,-899.9023438,460.4492188,116.6992188
6.8100,-899.9023438,460.4492188,106.4453125
6.8150,-895.5078125,470.2148438,93.26171875
6.8200,-891.6015625,473.6328125,89.35546875
6.8250,-888.1835938,469.7265625,94.23828125
6.8300,-900.390625,453.125,93.75
6.8350,-902.8320313,445.3125,93.26171875
6.8400,-906.7382813,442.8710938,84.9609375
6.8450,-900.8789063,442.3828125,90.8203125
6.8500,-905.7617188,435.0585938,93.75
6.8550,-893.5546875,442.3828125,87.890625
6.8600,-902.34375,433.59375,96.6796875
6.8650,-900.8789063,425.78125,85.9375
6.8700,-908.6914063,412.109375,96.19140625
6.8750,-906.7382813,420.4101563,94.23828125
6.8800,-907.7148438,428.7109375,91.796875
6.8850,-906.25,428.7109375,95.703125
6.8900,-910.6445313,416.015625,100.5859375
6.8950,-916.015625,398.4375,96.19140625
6.9000,-907.2265625,400.390625,89.84375
6.9050,-912.109375,397.4609375,88.37890625
6.9100,-912.109375,412.5976563,80.56640625
6.9150,-911.6210938,420.4101563,85.9375
6.9200,-910.15625,430.6640625,80.078125
6.9250,-909.1796875,433.59375,83.49609375
6.9300,-913.0859375,432.6171875,82.51953125
6.9350,-916.9921875,432.1289063,79.1015625
6.9400,-921.3867188,426.2695313,86.42578125
6.9450,-930.6640625,403.8085938,92.28515625
6.9500,-924.3164063,402.8320313,89.35546875
6.9550,-916.5039063,399.9023438,95.21484375
6.9600,-921.3867188,395.9960938,94.7265625
6.9650,-917.96875,396.484375,107.9101563
6.9700,-924.8046875,392.0898438,95.703125
6.9750,-919.921875,393.5546875,98.14453125
6.9800,-926.2695313,391.6015625,104.4921875
6.9850,-932.6171875,392.0898438,100.0976563
6.9900,-930.6640625,396.484375,86.42578125
6.9950,-922.3632813,407.2265625,81.0546875
7.0000,-913.0859375,411.6210938,79.58984375
7.0050,-914.5507813,403.3203125,71.2890625
7.0100,-924.3164063,385.2539063,82.03125
7.0150,-925.2929688,381.3476563,83.49609375
7.0200,-928.2226563,383.7890625,75.68359375
7.0250,-933.59375,387.2070313,90.8203125
7.0300,-927.2460938,411.6210938,79.1015625
7.0350,-936.5234375,412.5976563,91.796875
7.0400,-944.8242188,414.5507813,102.5390625
7.0450,-950.6835938,405.7617188,117.6757813
7.0500,-950.6835938,396.484375,101.5625
7.0550,-932.1289063,390.625,100.0976563
7.0600,-922.3632813,380.3710938,98.14453125
7.0650,-925.2929688,369.6289063,95.21484375
7.0700,-941.40625,368.1640625,98.6328125
7.0750,-939.453125,368.6523438,88.37890625
7.0800,-937.9882813,368.6523438,90.8203125
7.0850,-921.3867188,385.7421875,95.703125
7.0900,-934.0820313,369.140625,105.46875
7.0950,-933.1054688,373.5351563,95.21484375
7.1000,-932.1289063,374.5117188,96.6796875
7.1050,-929.6875,373.046875,111.328125
7.1100,-928.2226563,365.234375,112.7929688
7.1150,-933.59375,358.3984375,119.6289063
7.1200,-936.5234375,354.4921875,128.90625
7.1250,-938.4765625,351.0742188,139.6484375
7.1300,-950.1953125,344.7265625,146.484375
7.1350,-946.7773438,344.7265625,142.578125
7.1400,-948.7304688,339.84375,138.1835938
7.1450,-936.0351563,345.703125,153.8085938
7.1500,-945.8007813,336.4257813,161.1328125
7.1550,-950.6835938,323.2421875,147.4609375
7.1600,-951.171875,317.3828125,165.5273438
7.1650,-945.8007813,315.4296875,128.90625
7.1700,-946.2890625,321.7773438,129.3945313
7.1750,-939.453125,326.6601563,117.1875
7.1800,-940.4296875,330.078125,112.3046875
7.1850,-940.4296875,332.03125,111.328125
7.1900,-943.8476563,349.1210938,89.84375
7.1950,-944.3359375,353.0273438,93.26171875
7.2000,-943.8476563,368.6523438,81.54296875
7.2050,-942.3828125,375.4882813,91.30859375
7.2100,-945.3125,379.3945313,82.51953125
7.2150,-940.4296875,394.0429688,83.49609375
7.2200,-954.1015625,401.8554688,95.21484375
7.2250,-959.4726563,407.7148438,86.9140625
7.2300,-956.5429688,406.25,99.609375
7.2350,-939.9414063,406.7382813,74.21875
7.2400,-937.5,384.2773438,84.47265625
7.2450,-937.0117188,375.4882813,68.359375
7.2500,-946.7773438,348.1445313,69.82421875
7.2550,-945.3125,338.8671875,58.59375
7.2600,-952.1484375,328.6132813,66.40625
7.2650,-951.171875,326.171875,60.546875
7.2700,-941.8945313,339.3554688,58.59375
7.2750,-938.9648438,343.2617188,68.84765625
7.2800,-941.8945313,356.9335938,70.80078125
7.2850,-941.40625,363.7695313,76.66015625
7.2900,-940.9179688,369.6289063,81.54296875
7.2950,-935.546875,369.6289063,84.9609375
7.3000,-945.8007813,357.421875,78.61328125
7.3050,-947.265625,350.0976563,77.1484375
7.3100,-948.2421875,352.5390625,75.1953125
7.3150,-950.1953125,354.4921875,59.5703125
7.3200,-942.3828125,370.6054688,79.58984375
7.3250,-944.3359375,373.5351563,76.171875
7.3300,-942.8710938,368.1640625,82.51953125
7.3350,-944.3359375,375.4882813,89.35546875
7.3400,-939.9414063,392.578125,77.1484375
7.3450,-938.9648438,390.1367188,64.94140625
7.3500,-942.8710938,388.1835938,77.1484375
7.3550,-932.6171875,384.765625,69.3359375
7.3600,-930.6640625,375,70.3125
7.3650,-932.6171875,361.328125,82.51953125
7.3700,-927.2460938,355.9570313,87.40234375
7.3750,-925.2929688,339.84375,88.8671875
7.3800,-933.1054688,336.4257813,89.84375
7.3850,-921.875,352.0507813,88.8671875
7.3900,-921.3867188,371.5820313,88.37890625
7.3950,-920.8984375,378.4179688,104.0039063
7.4000,-929.6875,379.3945313,107.421875
7.4050,-937.9882813,379.3945313,104.9804688
7.4100,-933.1054688,392.0898438,93.26171875
7.4150,-927.734375,405.7617188,96.6796875
7.4200,-921.3867188,415.0390625,94.23828125
7.4250,-923.3398438,417.4804688,90.33203125
7.4300,-930.1757813,417.96875,90.33203125
7.4350,-926.2695313,416.5039063,93.26171875
7.4400,-921.875,414.0625,85.9375
7.4450,-922.3632813,416.9921875,85.44921875
7.4500,-924.3164063,418.4570313,85.9375
7.4550,-926.7578125,410.6445313,90.8203125
7.4600,-915.0390625,416.5039063,88.37890625
7.4650,-916.9921875,406.7382813,102.5390625
7.4700,-921.875,408.6914063,103.0273438
7.4750,-920.4101563,426.7578125,101.5625
7.4800,-924.3164063,445.3125,110.8398438
7.4850,-911.1328125,466.3085938,113.7695313
7.4900,-908.6914063,468.2617188,117.1875
7.4950,-912.109375,453.6132813,105.9570313
7.5000,-908.203125,446.7773438,108.3984375
7.5050,-899.9023438,441.40625,98.14453125
7.5100,-900.390625,445.8007813,106.4453125
7.5150,-905.2734375,446.7773438,95.21484375
7.5200,-906.25,465.3320313,94.7265625
7.5250,-899.4140625,472.65625,98.14453125
7.5300,-891.6015625,479.0039063,86.42578125
7.5350,-895.9960938,477.5390625,91.796875
7.5400,-899.4140625,488.28125,105.46875
7.5450,-884.765625,500.4882813,104.9804688
7.5500,-889.1601563,497.5585938,105.9570313
7.5550,-887.2070313,492.6757813,111.328125
7.5600,-879.3945313,504.8828125,109.8632813
7.5650,-882.8125,500.4882813,103.515625
7.5700,-877.4414063,504.3945313,107.9101563
7.5750,-879.3945313,494.6289063,112.3046875
7.5800,-881.3476563,504.3945313,110.3515625
7.5850,-877.4414063,522.9492188,102.0507813
7.5900,-875.9765625,524.9023438,114.2578125
7.5950,-867.6757813,523.4375,102.0507813
7.6000,-863.28125,522.9492188,98.14453125
7.6050,-871.5820313,514.6484375,102.0507813
7.6100,-879.3945313,503.90625,95.703125
7.6150,-871.5820313,516.1132813,87.40234375
7.6200,-874.0234375,518.5546875,108.8867188
7.6250,-864.7460938,530.7617188,96.6796875
7.6300,-863.7695313,529.7851563,104.0039063
7.6350,-856.4453125,528.3203125,112.3046875
7.6400,-861.8164063,526.8554688,105.46875
7.6450,-869.140625,524.9023438,121.09375
7.6500,-874.0234375,529.7851563,124.5117188
7.6550,-868.6523438,522.4609375,122.5585938
7.6600,-867.1875,530.7617188,120.1171875
7.6650,-865.7226563,535.15625,108.8867188
7.6700,-874.5117188,528.8085938,111.328125
7.6750,-865.234375,532.7148438,102.5390625
7.6800,-859.8632813,552.2460938,99.609375
7.6850,-860.3515625,559.0820313,97.65625
7.6900,-858.8867188,575.1953125,99.609375
7.6950,-862.3046875,572.265625,104.9804688
7.7000,-859.8632813,575.1953125,108.3984375
7.7050,-844.7265625,575.6835938,112.3046875
7.7100,-842.7734375,572.265625,111.328125
7.7150,-834.4726563,580.5664063,107.421875
7.7200,-842.2851563,585.4492188,108.3984375
7.7250,-840.8203125,592.7734375,120.1171875
7.7300,-836.4257813,595.2148438,118.1640625
7.7350,-830.5664063,598.1445313,118.6523438
7.7400,-832.5195313,598.6328125,115.7226563
7.7450,-837.4023438,601.5625,117.6757813
7.7500,-833.0078125,626.4648438,118.6523438
7.7550,-823.2421875,642.0898438,116.6992188
7.7600,-810.546875,647.9492188,115.234375
7.7650,-811.5234375,635.2539063,123.046875
7.7700,-805.1757813,632.8125,103.0273438
7.7750,-809.0820313,630.3710938,114.2578125
7.7800,-809.5703125,649.9023438,110.8398438
7.7850,-798.828125,666.5039063,116.6992188
7.7900,-794.4335938,667.4804688,118.1640625
7.7950,-793.4570313,648.4375,134.2773438
7.8000,-785.6445313,641.6015625,126.953125
7.8050,-770.0195313,659.1796875,133.3007813
7.8100,-771.9726563,669.921875,127.9296875
7.8150,-761.71875,683.1054688,134.2773438
7.8200,-758.7890625,679.6875,147.4609375
7.8250,-751.953125,680.6640625,136.71875
7.8300,-757.8125,685.546875,133.7890625
7.8350,-751.4648438,684.0820313,140.625
7.8400,-739.7460938,677.734375,133.3007813
7.8450,-733.8867188,677.2460938,134.765625
7.8500,-739.7460938,685.546875,134.765625
7.8550,-745.6054688,697.7539063,146.9726563
7.8600,-737.7929688,714.84375,163.0859375
7.8650,-725.0976563,721.6796875,145.9960938
7.8700,-723.6328125,719.7265625,149.9023438
7.8750,-714.3554688,726.5625,145.9960938
7.8800,-720.2148438,718.75,150.390625
7.8850,-716.3085938,724.1210938,156.7382813
7.8900,-730.46875,703.125,152.8320313
7.8950,-716.796875,708.984375,145.5078125
7.9000,-716.3085938,719.7265625,138.1835938
7.9050,-713.3789063,737.3046875,140.625
7.9100,-710.9375,738.7695313,145.5078125
7.9150,-711.9140625,718.75,147.9492188
7.9200,-703.125,706.5429688,155.7617188
7.9250,-701.6601563,710.9375,139.1601563
7.9300,-701.171875,735.3515625,134.765625
7.9350,-686.5234375,770.5078125,132.8125
7.9400,-687.0117188,774.9023438,135.2539063
7.9450,-689.9414063,761.2304688,150.8789063
7.9500,-686.0351563,748.046875,153.3203125
7.9550,-690.4296875,737.7929688,137.2070313
7.9600,-680.1757813,750.4882813,141.6015625
7.9650,-677.734375,757.8125,135.2539063
7.9700,-671.875,761.71875,146.9726563
7.9750,-666.015625,758.3007813,138.671875
7.9800,-657.2265625,762.2070313,124.0234375
7.9850,-643.5546875,767.578125,116.2109375
7.9900,-650.390625,782.7148438,129.3945313
7.9950,-648.9257813,792.4804688,128.4179688
8.0000,-648.4375,799.8046875,123.046875
8.0050,-643.0664063,795.4101563,141.6015625
8.0100,-636.71875,793.9453125,142.0898438
8.0150,-625.9765625,790.5273438,133.3007813
8.0200,-618.6523438,783.6914063,155.7617188
8.0250,-603.0273438,791.015625,134.2773438
8.0300,-608.8867188,796.875,148.9257813
8.0350,-603.515625,812.0117188,148.4375
8.0400,-607.9101563,828.125,137.6953125
8.0450,-596.1914063,844.2382813,153.8085938
8.0500,-594.7265625,841.3085938,163.0859375
8.0550,-575.6835938,849.609375,161.6210938
8.0600,-571.2890625,844.2382813,150.390625
8.0650,-571.2890625,833.4960938,147.9492188
8.0700,-556.640625,829.5898438,157.2265625
8.0750,-548.828125,838.3789063,143.5546875
8.0800,-548.3398438,844.7265625,143.5546875
8.0850,-546.3867188,856.9335938,140.625
8.0900,-544.921875,856.4453125,142.578125
8.0950,-526.8554688,868.6523438,154.7851563
8.1000,-518.5546875,867.1875,162.109375
8.1050,-520.5078125,857.9101563,167.96875
8.1100,-515.625,867.1875,173.828125
8.1150,-504.3945313,885.7421875,170.8984375
8.1200,-496.09375,893.5546875,181.640625
8.1250,-489.2578125,884.2773438,180.6640625
8.1300,-474.1210938,879.3945313,182.1289063
8.1350,-472.1679688,887.2070313,171.875
8.1400,-473.1445313,895.9960938,179.6875
8.1450,-467.7734375,887.2070313,188.4765625
8.1500,-456.0546875,893.5546875,180.1757813
8.1550,-457.03125,901.3671875,165.5273438
8.1600,-456.5429688,916.015625,180.1757813
8.1650,-438.4765625,914.5507813,188.4765625
8.1700,-435.546875,891.6015625,181.640625
8.1750,-427.2460938,879.3945313,182.1289063
8.1800,-425.2929688,905.2734375,182.1289063
8.1850,-428.2226563,927.734375,201.171875
8.1900,-421.3867188,951.171875,187.0117188
8.1950,-412.5976563,946.2890625,207.03125
8.2000,-400.8789063,935.546875,202.1484375
8.2050,-392.0898438,920.4101563,199.21875
8.2100,-392.0898438,910.6445313,195.8007813
8.2150,-392.0898438,910.15625,195.3125
8.2200,-387.6953125,914.0625,195.3125
8.2250,-389.6484375,930.6640625,182.6171875
8.2300,-386.2304688,953.6132813,200.6835938
8.2350,-365.7226563,968.75,189.453125
8.2400,-364.7460938,942.8710938,203.125
8.2450,-356.9335938,938.9648438,194.8242188
8.2500,-369.6289063,952.6367188,197.7539063
8.2550,-363.7695313,971.1914063,190.9179688
8.2600,-362.7929688,968.2617188,196.2890625
8.2650,-350.0976563,958.4960938,209.9609375
8.2700,-351.0742188,941.40625,196.7773438
8.2750,-340.3320313,937.0117188,203.125
8.2800,-343.2617188,918.9453125,201.171875
8.2850,-321.2890625,923.828125,201.6601563
8.2900,-305.1757813,938.9648438,199.7070313
8.2950,-302.2460938,942.3828125,195.8007813
8.3000,-303.7109375,941.8945313,206.5429688
8.3050,-293.9453125,940.9179688,208.984375
8.3100,-287.5976563,944.8242188,205.078125
8.3150,-274.9023438,957.5195313,190.4296875
8.3200,-265.625,969.2382813,207.5195313
8.3250,-258.3007813,978.0273438,210.4492188
8.3300,-254.3945313,981.4453125,217.7734375
8.3350,-250.9765625,978.0273438,225.5859375
8.3400,-242.1875,969.7265625,219.7265625
8.3450,-229.0039063,958.0078125,234.375
8.3500,-222.65625,950.6835938,215.3320313
8.3550,-225.0976563,954.5898438,211.4257813
8.3600,-211.4257813,973.6328125,213.8671875
8.3650,-200.1953125,962.4023438,226.5625
8.3700,-191.8945313,946.7773438,227.0507813
8.3750,-183.1054688,969.2382813,241.2109375
8.3800,-180.1757813,1002.929688,220.2148438
8.3850,-169.921875,1019.53125,239.2578125
8.3900,-159.1796875,1002.441406,242.6757813
8.3950,-150.390625,986.8164063,239.7460938
8.4000,-143.0664063,987.3046875,241.6992188
8.4050,-143.5546875,1001.464844,239.2578125
8.4100,-136.71875,1015.136719,237.3046875
8.4150,-123.5351563,995.6054688,231.9335938
8.4200,-119.6289063,966.796875,235.3515625
8.4250,-119.140625,961.9140625,245.1171875
8.4300,-105.46875,982.9101563,239.2578125
8.4350,-93.26171875,988.7695313,240.234375
8.4400,-88.37890625,987.7929688,252.9296875
8.4450,-82.51953125,993.1640625,252.9296875
8.4500,-81.0546875,995.6054688,238.7695313
8.4550,-84.47265625,1004.394531,226.5625
8.4600,-74.21875,1019.042969,230.9570313
8.4650,-57.6171875,986.328125,240.7226563
8.4700,-39.0625,953.125,230.46875
8.4750,-41.9921875,941.8945313,232.421875
8.4800,-43.9453125,969.7265625,239.7460938
8.4850,-44.921875,986.328125,234.8632813
8.4900,-39.0625,990.234375,243.1640625
8.4950,-10.25390625,991.6992188,244.140625
8.5000,0.9765625,979.0039063,235.8398438
8.5050,1.953125,982.9101563,236.328125
8.5100,-3.41796875,985.8398438,241.6992188
8.5150,-3.41796875,972.65625,239.7460938
8.5200,10.7421875,972.65625,239.7460938
8.5250,21.97265625,973.1445313,236.328125
8.5300,23.4375,973.1445313,242.1875
8.5350,31.25,970.2148438,263.1835938
8.5400,33.203125,960.9375,253.4179688
8.5450,43.9453125,959.9609375,240.234375
8.5500,62.01171875,970.2148438,251.4648438
8.5550,70.3125,951.171875,257.8125
8.5600,80.078125,933.1054688,251.953125
8.5650,85.44921875,951.171875,241.2109375
8.5700,81.0546875,973.1445313,235.8398438
8.5750,98.6328125,965.8203125,255.859375
8.5800,106.9335938,927.2460938,250.9765625
8.5850,120.1171875,911.1328125,254.8828125
8.5900,122.0703125,923.3398438,249.5117188
8.5950,123.5351563,938.9648438,266.1132813
8.6000,126.4648438,931.1523438,273.4375
8.6050,143.0664063,906.25,273.9257813
8.6100,164.5507813,898.4375,263.1835938
8.6150,176.2695313,913.5742188,249.5117188
8.6200,187.9882813,965.8203125,270.0195313
8.6250,182.1289063,993.1640625,285.6445313
8.6300,185.546875,982.421875,290.0390625
8.6350,187.5,945.3125,287.5976563
8.6400,191.40625,921.3867188,276.3671875
8.6450,193.359375,908.203125,263.671875
8.6500,186.5234375,896.484375,261.2304688
8.6550,207.5195313,906.25,251.953125
8.6600,208.4960938,892.578125,264.1601563
8.6650,212.4023438,872.0703125,271.484375
8.6700,226.0742188,879.8828125,265.1367188
8.6750,235.3515625,910.15625,274.4140625
8.6800,234.375,915.0390625,287.109375
8.6850,236.328125,893.0664063,297.8515625
8.6900,237.3046875,868.1640625,310.546875
8.6950,235.8398438,875,300.2929688
8.7000,241.2109375,926.7578125,285.6445313
8.7050,245.6054688,940.9179688,310.546875
8.7100,252.4414063,910.6445313,299.3164063
8.7150,259.2773438,889.6484375,279.7851563
8.7200,258.3007813,881.8359375,250
8.7250,255.859375,866.6992188,268.0664063
8.7300,269.0429688,836.4257813,266.6015625
8.7350,281.25,833.0078125,257.8125
8.7400,279.7851563,865.234375,240.7226563
8.7450,273.9257813,904.296875,269.53125
8.7500,270.0195313,925.78125,280.7617188
8.7550,277.8320313,902.34375,286.6210938
8.7600,278.8085938,835.4492188,289.0625
8.7650,292.4804688,804.1992188,270.9960938
8.7700,296.3867188,831.5429688,270.0195313
8.7750,304.1992188,875.9765625,267.578125
8.7800,313.9648438,883.7890625,297.3632813
8.7850,321.2890625,824.7070313,305.1757813
8.7900,323.2421875,778.8085938,300.2929688
8.7950,318.359375,791.9921875,273.9257813
8.8000,329.5898438,863.7695313,269.0429688
8.8050,350.5859375,910.15625,277.34375
8.8100,363.7695313,875.9765625,299.8046875
8.8150,361.8164063,809.5703125,298.828125
8.8200,358.3984375,794.4335938,270.9960938
8.8250,362.7929688,830.5664063,278.3203125
8.8300,370.6054688,845.703125,276.8554688
8.8350,382.3242188,817.3828125,283.203125
8.8400,395.5078125,804.1992188,282.7148438
8.8450,394.0429688,808.1054688,267.578125
8.8500,374.0234375,837.4023438,270.9960938
8.8550,394.0429688,871.09375,276.8554688
8.8600,404.7851563,850.5859375,291.5039063
8.8650,416.9921875,792.4804688,291.5039063
8.8700,420.4101563,777.34375,290.0390625
8.8750,422.3632813,817.3828125,288.5742188
8.8800,421.3867188,851.0742188,299.8046875
8.8850,420.8984375,820.3125,340.8203125
8.8900,436.5234375,780.2734375,321.2890625
8.8950,440.4296875,783.6914063,306.1523438
8.9000,456.0546875,849.609375,290.0390625
8.9050,439.9414063,861.328125,316.40625
8.9100,436.0351563,824.7070313,329.1015625
8.9150,462.890625,782.2265625,306.1523438
8.9200,467.7734375,783.203125,296.3867188
8.9250,471.1914063,815.9179688,298.3398438
8.9300,469.2382813,827.6367188,304.1992188
8.9350,467.2851563,812.5,319.3359375
8.9400,474.1210938,819.8242188,292.4804688
8.9450,484.375,846.6796875,292.96875
8.9500,475.0976563,828.6132813,308.1054688
8.9550,479.9804688,776.3671875,310.546875
8.9600,496.09375,760.7421875,301.7578125
8.9650,485.3515625,764.6484375,296.875
8.9700,497.0703125,780.2734375,311.0351563
8.9750,506.3476563,759.765625,319.3359375
8.9800,511.2304688,760.2539063,334.9609375
8.9850,516.1132813,798.3398438,315.4296875
8.9900,517.0898438,825.6835938,315.9179688
8.9950,522.4609375,807.1289063,319.3359375
9.0000,530.7617188,781.7382813,314.453125
9.0050,524.4140625,766.1132813,302.734375
9.0100,510.7421875,774.9023438,299.8046875
9.0150,513.671875,792.96875,285.15625
9.0200,525.390625,776.8554688,294.4335938
9.0250,539.0625,741.2109375,304.6875
9.0300,531.7382813,712.4023438,300.2929688
9.0350,535.6445313,746.5820313,291.015625
9.0400,546.3867188,793.4570313,304.1992188
9.0450,535.15625,769.53125,329.5898438
9.0500,541.9921875,733.3984375,338.3789063
9.0550,554.1992188,726.0742188,312.5
9.0600,562.5,735.8398438,292.96875
9.0650,572.265625,757.3242188,298.3398438
9.0700,577.6367188,760.7421875,297.8515625
9.0750,576.6601563,737.7929688,304.6875
9.0800,571.2890625,687.5,303.7109375
9.0850,590.3320313,672.3632813,289.5507813
9.0900,599.1210938,702.1484375,270.9960938
9.0950,603.515625,744.140625,298.828125
9.1000,595.703125,757.3242188,311.0351563
9.1050,608.3984375,754.3945313,318.359375
9.1100,613.28125,736.328125,324.7070313
9.1150,605.9570313,745.6054688,310.0585938
9.1200,592.7734375,756.3476563,313.4765625
9.1250,596.6796875,747.5585938,350.0976563
9.1300,604.9804688,718.2617188,335.9375
9.1350,614.7460938,731.9335938,318.8476563
9.1400,613.7695313,758.7890625,308.59375
9.1450,627.9296875,755.3710938,323.2421875
9.1500,628.4179688,721.1914063,321.2890625
9.1550,629.8828125,700.6835938,302.734375
9.1600,619.140625,713.8671875,293.9453125
9.1650,625.4882813,734.8632813,286.1328125
9.1700,639.1601563,723.1445313,310.0585938
9.1750,649.9023438,681.640625,330.078125
9.1800,648.9257813,653.3203125,321.7773438
9.1850,657.2265625,658.203125,311.5234375
9.1900,672.8515625,692.8710938,300.2929688
9.1950,685.0585938,699.21875,323.2421875
9.2000,687.0117188,706.5429688,324.21875
9.2050,672.3632813,712.4023438,321.2890625
9.2100,687.9882813,713.3789063,330.078125
9.2150,690.4296875,676.2695313,327.1484375
9.2200,691.40625,644.53125,319.8242188
9.2250,706.5429688,651.3671875,295.8984375
9.2300,718.75,664.0625,291.5039063
9.2350,711.9140625,647.4609375,293.9453125
9.2400,700.1953125,622.0703125,294.921875
9.2450,710.9375,635.2539063,302.2460938
9.2500,716.796875,657.7148438,285.15625
9.2550,724.609375,679.6875,298.828125
9.2600,726.5625,685.0585938,310.546875
9.2650,715.3320313,664.5507813,312.9882813
9.2700,704.1015625,632.3242188,324.7070313
9.2750,710.9375,617.1875,312.9882813
9.2800,721.6796875,615.7226563,311.5234375
9.2850,729.9804688,616.2109375,323.7304688
9.2900,724.1210938,619.140625,326.171875
9.2950,731.9335938,624.0234375,303.2226563
9.3000,727.5390625,613.7695313,306.640625
9.3050,731.4453125,591.796875,291.5039063
9.3100,741.2109375,568.8476563,287.5976563
9.3150,745.6054688,561.5234375,275.8789063
9.3200,741.6992188,560.0585938,277.34375
9.3250,738.7695313,563.9648438,284.6679688
9.3300,753.4179688,584.4726563,282.7148438
9.3350,754.8828125,601.5625,299.8046875
9.3400,743.6523438,604.0039063,305.1757813
9.3450,731.4453125,588.3789063,311.0351563
9.3500,735.3515625,573.2421875,311.5234375
9.3550,749.5117188,562.0117188,310.0585938
9.3600,759.765625,547.8515625,295.8984375
9.3650,753.90625,547.8515625,294.921875
9.3700,740.7226563,560.546875,298.828125
9.3750,735.3515625,573.2421875,316.8945313
9.3800,739.7460938,571.7773438,309.0820313
9.3850,746.5820313,557.6171875,291.015625
9.3900,752.9296875,569.8242188,284.1796875
9.3950,756.3476563,576.171875,280.7617188
9.4000,742.6757813,538.0859375,290.0390625
9.4050,742.1875,496.5820313,284.1796875
9.4100,763.1835938,486.8164063,279.7851563
9.4150,777.8320313,501.4648438,273.9257813
9.4200,780.7617188,531.7382813,266.1132813
9.4250,775.390625,551.7578125,287.5976563
9.4300,768.0664063,544.4335938,296.875
9.4350,765.1367188,512.2070313,303.2226563
9.4400,775.390625,491.6992188,297.3632813
9.4450,791.9921875,493.1640625,291.015625
9.4500,780.7617188,490.234375,286.6210938
9.4550,776.8554688,499.5117188,305.1757813
9.4600,783.203125,496.5820313,291.5039063
9.4650,779.7851563,491.6992188,283.203125
9.4700,790.5273438,512.6953125,275.390625
9.4750,786.1328125,488.28125,273.9257813
9.4800,792.96875,471.6796875,275.8789063
9.4850,810.0585938,456.5429688,256.8359375
9.4900,816.8945313,457.03125,259.765625
9.4950,825.6835938,469.2382813,270.9960938
9.5000,820.3125,472.1679688,286.1328125
9.5050,818.359375,469.2382813,291.015625
9.5100,825.1953125,469.2382813,290.5273438
9.5150,833.4960938,468.75,303.7109375
9.5200,834.4726563,465.8203125,291.9921875
9.5250,822.7539063,451.6601563,312.9882813
9.5300,818.8476563,443.8476563,306.1523438
9.5350,824.21875,430.1757813,287.109375
9.5400,831.0546875,434.0820313,270.5078125
9.5450,836.4257813,449.7070313,262.6953125
9.5500,832.03125,461.4257813,252.4414063
9.5550,828.125,443.359375,265.1367188
9.5600,839.3554688,429.1992188,258.7890625
9.5650,846.1914063,426.2695313,244.6289063
9.5700,857.421875,448.7304688,233.8867188
9.5750,860.8398438,449.7070313,283.6914063
9.5800,842.7734375,428.2226563,283.203125
9.5850,842.7734375,429.1992188,281.25
9.5900,844.2382813,442.8710938,280.2734375
9.5950,857.421875,449.21875,291.015625
9.6000,846.1914063,429.1992188,304.6875
9.6050,861.328125,416.5039063,291.015625
9.6100,861.8164063,402.34375,283.6914063
9.6150,860.3515625,401.8554688,266.6015625
9.6200,855.9570313,396.484375,297.8515625
9.6250,861.8164063,383.3007813,278.8085938
9.6300,861.8164063,377.4414063,272.4609375
9.6350,876.953125,409.1796875,261.2304688
9.6400,869.140625,429.6875,270.5078125
9.6450,866.2109375,423.828125,265.1367188
9.6500,868.6523438,396.484375,273.4375
9.6550,866.6992188,375.9765625,282.2265625
9.6600,871.09375,383.7890625,261.71875
9.6650,877.4414063,395.0195313,272.4609375
9.6700,881.8359375,393.5546875,284.6679688
9.6750,871.5820313,365.234375,277.34375
9.6800,863.7695313,346.1914063,270.5078125
9.6850,878.90625,355.9570313,250
9.6900,882.3242188,364.2578125,260.7421875
9.6950,879.3945313,348.6328125,277.34375
9.7000,869.6289063,320.3125,269.0429688
9.7050,870.1171875,345.2148438,247.5585938
9.7100,878.90625,354.0039063,253.90625
9.7150,889.6484375,377.4414063,254.3945313
9.7200,887.2070313,361.8164063,255.859375
9.7250,876.4648438,332.03125,256.3476563
9.7300,876.4648438,315.9179688,260.2539063
9.7350,877.9296875,326.171875,252.9296875
9.7400,890.625,336.9140625,248.5351563
9.7450,898.9257813,328.6132813,250.4882813
9.7500,895.0195313,323.2421875,264.1601563
9.7550,901.8554688,328.6132813,250.4882813
9.7600,891.1132813,326.6601563,261.71875
9.7650,890.1367188,312.0117188,260.2539063
9.7700,885.7421875,300.78125,261.2304688
9.7750,899.9023438,307.1289063,263.1835938
9.7800,904.296875,317.3828125,248.046875
9.7850,910.6445313,311.0351563,237.7929688
9.7900,902.34375,307.6171875,242.1875
9.7950,909.1796875,296.3867188,244.6289063
9.8000,901.8554688,280.2734375,249.0234375
9.8050,908.203125,280.7617188,242.6757813
9.8100,922.8515625,278.3203125,245.1171875
9.8150,940.9179688,249.0234375,277.34375
9.8200,928.7109375,222.1679688,267.578125
9.8250,938.9648438,239.2578125,280.2734375
9.8300,955.5664063,272.9492188,264.6484375
9.8350,958.4960938,277.8320313,286.6210938
9.8400,943.359375,268.0664063,286.1328125
9.8450,944.8242188,258.3007813,270.0195313
9.8500,943.8476563,251.4648438,247.0703125
9.8550,950.6835938,248.046875,243.1640625
9.8600,963.3789063,235.3515625,235.3515625
9.8650,957.03125,211.4257813,235.3515625
9.8700,955.5664063,217.7734375,220.2148438
9.8750,945.8007813,220.703125,236.328125
9.8800,947.265625,219.7265625,238.28125
9.8850,958.984375,233.8867188,220.703125
9.8900,958.4960938,236.8164063,229.9804688
9.8950,944.3359375,216.3085938,251.953125
9.9000,924.8046875,218.2617188,234.375
9.9050,934.5703125,247.5585938,244.6289063
9.9100,937.5,256.3476563,248.5351563
9.9150,934.0820313,242.6757813,249.5117188
9.9200,922.8515625,217.2851563,232.9101563
9.9250,927.734375,194.8242188,237.7929688
9.9300,939.453125,194.8242188,227.0507813
9.9350,942.3828125,200.6835938,218.2617188
9.9400,930.6640625,217.2851563,222.65625
9.9450,925.2929688,246.5820313,206.0546875
9.9500,918.9453125,260.7421875,221.1914063
9.9550,918.4570313,249.0234375,226.0742188
9.9600,905.2734375,238.28125,219.2382813
9.9650,910.15625,237.7929688,218.75
9.9700,925.78125,233.3984375,227.0507813
9.9750,907.7148438,211.9140625,229.9804688
9.9800,899.4140625,228.515625,217.7734375
9.9850,905.7617188,241.6992188,228.515625
9.9900,896.9726563,220.703125,231.4453125
9.9950,900.8789063,204.1015625,219.7265625
10.0000,912.5976563,220.2148438,209.9609375
10.0050,910.6445313,235.8398438,201.171875
10.0100,894.0429688,222.1679688,202.6367188
10.0150,897.9492188,226.0742188,193.8476563
10.0200,903.8085938,247.5585938,197.7539063
10.0250,895.5078125,227.5390625,203.125
10.0300,897.9492188,190.9179688,201.6601563
10.0350,909.1796875,183.59375,214.84375
10.0400,905.2734375,187.5,212.890625
10.0450,911.6210938,205.5664063,214.84375
10.0500,902.34375,228.515625,237.3046875
10.0550,886.71875,221.6796875,241.2109375
10.0600,892.578125,210.9375,264.6484375
10.0650,908.6914063,208.0078125,243.6523438
10.0700,908.6914063,214.3554688,231.4453125
10.0750,902.34375,207.5195313,221.1914063
10.0800,900.390625,189.453125,229.0039063
10.0850,906.7382813,169.4335938,215.3320313
10.0900,913.0859375,176.7578125,230.46875
10.0950,906.25,193.8476563,213.8671875
10.1000,913.5742188,211.9140625,240.234375
10.1050,927.2460938,200.6835938,241.6992188
10.1100,923.3398438,181.640625,250
10.1150,918.4570313,168.9453125,254.3945313
10.1200,921.875,188.9648438,256.3476563
10.1250,932.1289063,211.4257813,261.2304688
10.1300,928.7109375,205.078125,269.0429688
10.1350,918.4570313,192.8710938,264.6484375
10.1400,920.8984375,190.9179688,277.34375
10.1450,922.8515625,191.40625,268.0664063
10.1500,921.3867188,206.0546875,263.671875
10.1550,925.2929688,214.3554688,253.90625
10.1600,930.6640625,207.03125,257.8125
10.1650,929.6875,203.6132813,250.4882813
10.1700,934.0820313,223.1445313,251.4648438
10.1750,933.59375,226.0742188,243.6523438
10.1800,935.546875,220.2148438,256.3476563
10.1850,937.0117188,210.4492188,262.6953125
10.1900,939.453125,217.2851563,246.5820313
10.1950,942.3828125,217.7734375,260.7421875
10.2000,942.8710938,204.5898438,263.1835938
10.2050,949.7070313,202.1484375,256.8359375
10.2100,948.2421875,207.03125,253.90625
10.2150,959.4726563,220.2148438,253.90625
10.2200,945.8007813,210.9375,254.8828125
10.2250,949.7070313,217.7734375,239.7460938
10.2300,946.2890625,216.3085938,247.5585938
10.2350,952.6367188,221.1914063,230.9570313
10.2400,945.8007813,215.3320313,223.6328125
10.2450,948.7304688,221.1914063,238.7695313
10.2500,947.7539063,227.0507813,223.1445313
10.2550,951.6601563,227.5390625,232.421875
10.2600,951.171875,228.515625,229.4921875
10.2650,951.171875,218.75,225.0976563
10.2700,950.1953125,212.4023438,233.8867188
10.2750,956.5429688,211.4257813,237.3046875
10.2800,953.125,212.890625,225.0976563
10.2850,951.171875,220.703125,228.0273438
10.2900,948.7304688,235.3515625,234.8632813
10.2950,948.7304688,242.1875,230.46875
10.3000,940.9179688,234.375,223.1445313
10.3050,938.9648438,225.0976563,224.1210938
10.3100,944.3359375,236.328125,214.3554688
10.3150,937.5,237.7929688,219.2382813
10.3200,935.546875,257.8125,213.3789063
10.3250,934.5703125,255.859375,214.84375
10.3300,936.5234375,240.7226563,225.5859375
10.3350,934.0820313,224.1210938,220.703125
10.3400,934.5703125,235.8398438,220.703125
10.3450,944.3359375,257.3242188,218.2617188
10.3500,944.3359375,265.1367188,216.796875
10.3550,930.1757813,247.0703125,229.9804688
10.3600,922.8515625,250.4882813,240.234375
10.3650,927.2460938,258.7890625,229.9804688
10.3700,922.8515625,265.1367188,229.4921875
10.3750,927.2460938,275.8789063,228.0273438
10.3800,937.9882813,277.8320313,232.9101563
10.3850,933.59375,261.71875,239.2578125
10.3900,929.1992188,252.9296875,233.3984375
10.3950,928.2226563,249.5117188,229.0039063
10.4000,929.1992188,257.3242188,227.0507813
10.4050,930.6640625,261.71875,220.703125
10.4100,931.640625,273.9257813,222.65625
10.4150,934.0820313,282.7148438,224.609375
10.4200,929.6875,300.2929688,212.890625
10.4250,925.2929688,303.7109375,223.6328125
10.4300,925.2929688,313.9648438,220.2148438
10.4350,916.015625,299.8046875,244.140625
10.4400,920.4101563,300.78125,231.9335938
10.4450,921.875,289.5507813,227.5390625
10.4500,933.59375,292.4804688,218.75
10.4550,930.6640625,288.0859375,224.1210938
10.4600,920.4101563,284.6679688,233.8867188
10.4650,916.9921875,298.3398438,228.515625
10.4700,917.4804688,311.0351563,225.5859375
10.4750,928.7109375,306.1523438,228.515625
10.4800,924.8046875,298.3398438,235.3515625
10.4850,910.15625,288.5742188,238.28125
10.4900,916.5039063,299.8046875,224.1210938
10.4950,916.5039063,310.546875,223.1445313
10.5000,915.5273438,320.3125,229.9804688
10.5050,923.828125,339.3554688,222.1679688
10.5100,910.15625,337.4023438,236.8164063
10.5150,901.8554688,322.265625,231.4453125
10.5200,903.3203125,312.0117188,231.4453125
10.5250,909.1796875,307.6171875,229.0039063
10.5300,913.0859375,312.0117188,214.84375
10.5350,916.5039063,326.171875,222.65625
10.5400,910.6445313,338.8671875,221.6796875
10.5450,901.8554688,328.6132813,240.7226563
10.5500,902.34375,334.4726563,213.3789063
10.5550,902.8320313,344.2382813,222.1679688
10.5600,911.6210938,357.421875,224.1210938
10.5650,900.390625,352.5390625,235.3515625
10.5700,881.3476563,356.9335938,239.7460938
10.5750,884.765625,356.9335938,224.609375
10.5800,894.53125,362.3046875,233.8867188
10.5850,902.34375,353.515625,223.1445313
10.5900,900.390625,348.6328125,214.3554688
10.5950,887.2070313,337.890625,216.796875
10.6000,883.7890625,342.7734375,219.2382813
10.6050,883.7890625,354.4921875,213.8671875
10.6100,882.3242188,370.6054688,216.3085938
10.6150,889.1601563,384.2773438,212.4023438
10.6200,882.8125,393.5546875,237.7929688
10.6250,876.953125,402.34375,225.0976563
10.6300,870.6054688,410.6445313,222.1679688
10.6350,872.0703125,416.015625,235.8398438
10.6400,861.328125,409.1796875,232.9101563
10.6450,863.28125,399.9023438,228.0273438
10.6500,863.28125,397.4609375,222.1679688
10.6550,872.5585938,404.7851563,226.0742188
10.6600,862.7929688,405.2734375,221.1914063
10.6650,859.375,399.4140625,212.890625
10.6700,860.8398438,397.9492188,220.703125
10.6750,859.375,394.0429688,218.75
10.6800,868.1640625,414.5507813,199.7070313
10.6850,860.8398438,424.8046875,217.2851563
10.6900,856.4453125,424.8046875,218.2617188
10.6950,842.7734375,413.0859375,222.1679688
10.7000,844.2382813,418.9453125,234.8632813
10.7050,858.3984375,426.2695313,229.9804688
10.7100,858.8867188,429.1992188,238.7695313
10.7150,857.421875,428.2226563,226.5625
10.7200,846.6796875,439.453125,229.9804688
10.7250,849.609375,450.1953125,230.46875
10.7300,843.75,442.3828125,222.1679688
10.7350,842.2851563,428.7109375,227.5390625
10.7400,848.6328125,425.78125,204.5898438
10.7450,845.2148438,421.3867188,206.0546875
10.7500,844.2382813,440.4296875,212.890625
10.7550,833.984375,434.0820313,220.703125
10.7600,832.5195313,429.1992188,230.46875
10.7650,832.5195313,434.0820313,215.3320313
10.7700,845.2148438,455.078125,220.2148438
10.7750,832.03125,472.65625,225.0976563
10.7800,821.2890625,488.7695313,229.0039063
10.7850,821.7773438,491.2109375,231.9335938
10.7900,817.3828125,474.1210938,248.046875
10.7950,832.5195313,471.1914063,241.2109375
10.8000,828.125,484.375,224.609375
10.8050,828.125,494.140625,229.4921875
10.8100,813.4765625,484.375,238.28125
10.8150,811.5234375,480.9570313,240.234375
10.8200,810.546875,487.3046875,237.3046875
10.8250,819.3359375,500.4882813,229.0039063
10.8300,812.9882813,499.0234375,256.8359375
10.8350,813.9648438,505.859375,251.4648438
10.8400,807.1289063,523.4375,238.28125
10.8450,810.546875,529.296875,233.8867188
10.8500,802.2460938,521.484375,248.046875
10.8550,805.1757813,508.7890625,232.9101563
10.8600,803.2226563,510.2539063,236.8164063
10.8650,807.1289063,514.6484375,222.65625
10.8700,800.2929688,523.9257813,240.234375
10.8750,800.78125,525.8789063,237.3046875
10.8800,792.4804688,524.9023438,233.3984375
10.8850,790.0390625,534.1796875,234.8632813
10.8900,799.8046875,563.4765625,231.9335938
10.8950,793.9453125,565.9179688,231.4453125
10.9000,792.4804688,564.453125,234.375
10.9050,800.2929688,563.9648438,232.9101563
10.9100,796.3867188,544.4335938,226.0742188
10.9150,800.78125,538.0859375,224.1210938
10.9200,793.9453125,536.6210938,218.75
10.9250,790.0390625,540.5273438,211.4257813
10.9300,781.25,554.6875,216.796875
10.9350,782.7148438,575.1953125,213.3789063
10.9400,783.203125,595.703125,233.8867188
10.9450,777.8320313,608.8867188,224.1210938
10.9500,771.9726563,611.8164063,240.234375
10.9550,767.0898438,599.609375,241.6992188
10.9600,762.6953125,580.5664063,252.4414063
10.9650,765.625,566.8945313,237.7929688
10.9700,769.53125,566.8945313,229.9804688
10.9750,774.9023438,569.8242188,217.7734375
10.9800,754.8828125,573.2421875,208.4960938
10.9850,758.7890625,589.84375,211.4257813
10.9900,747.0703125,588.8671875,213.3789063
10.9950,739.7460938,577.1484375,228.0273438
11.0000,750.4882813,577.6367188,210.4492188
11.0050,765.625,605.9570313,218.2617188
11.0100,753.4179688,623.046875,232.9101563
11.0150,740.234375,631.3476563,244.6289063
11.0200,729.0039063,628.4179688,244.6289063
11.0250,729.0039063,619.6289063,237.3046875
11.0300,736.8164063,610.8398438,237.7929688
11.0350,735.3515625,592.2851563,241.2109375
11.0400,733.3984375,595.2148438,247.0703125
11.0450,729.9804688,609.8632813,252.4414063
11.0500,724.1210938,637.2070313,248.5351563
11.0550,711.9140625,647.4609375,252.9296875
11.0600,710.9375,662.109375,244.140625
11.0650,701.6601563,642.578125,265.1367188
11.0700,703.6132813,624.5117188,256.3476563
11.0750,715.8203125,614.7460938,250
11.0800,712.4023438,635.2539063,231.9335938
11.0850,709.4726563,663.5742188,241.6992188
11.0900,684.5703125,668.9453125,252.4414063
11.0950,677.734375,664.5507813,272.4609375
11.1000,677.734375,663.5742188,257.3242188
11.1050,682.6171875,670.4101563,260.7421875
11.1100,681.1523438,669.4335938,260.7421875
11.1150,673.828125,659.1796875,264.6484375
11.1200,665.5273438,666.9921875,263.1835938
11.1250,658.6914063,678.2226563,269.53125
11.1300,659.6679688,682.6171875,252.9296875
11.1350,661.1328125,684.0820313,270.9960938
11.1400,659.6679688,672.3632813,261.2304688
11.1450,662.109375,683.1054688,255.3710938
11.1500,650.390625,692.3828125,247.5585938
11.1550,647.4609375,699.7070313,252.9296875
11.1600,635.7421875,700.1953125,253.4179688
11.1650,629.3945313,692.3828125,248.046875
11.1700,631.3476563,687.0117188,249.5117188
11.1750,638.1835938,684.5703125,244.6289063
11.1800,635.7421875,690.9179688,247.5585938
11.1850,629.8828125,708.0078125,251.4648438
11.1900,622.5585938,722.1679688,242.1875
11.1950,624.0234375,719.7265625,247.0703125
11.2000,621.5820313,714.84375,241.2109375
11.2050,619.140625,712.890625,242.1875
11.2100,613.28125,709.9609375,243.6523438
11.2150,610.8398438,702.6367188,253.4179688
11.2200,609.8632813,708.0078125,251.4648438
11.2250,597.65625,720.2148438,252.9296875
11.2300,603.515625,745.6054688,258.7890625
11.2350,599.609375,753.90625,266.6015625
11.2400,588.8671875,747.0703125,263.1835938
11.2450,589.3554688,763.1835938,246.09375
11.2500,581.0546875,773.4375,244.140625
11.2550,569.3359375,764.6484375,253.4179688
11.2600,560.546875,752.9296875,246.5820313
11.2650,555.1757813,745.1171875,249.0234375
11.2700,560.0585938,754.3945313,238.28125
11.2750,560.0585938,764.1601563,239.2578125
11.2800,551.7578125,761.71875,243.1640625
11.2850,549.3164063,758.3007813,237.3046875
11.2900,540.5273438,732.9101563,254.3945313
11.2950,536.6210938,726.0742188,237.7929688
11.3000,532.7148438,735.8398438,249.0234375
11.3050,546.3867188,768.0664063,249.0234375
11.3100,538.0859375,779.296875,253.90625
11.3150,529.7851563,773.4375,267.578125
11.3200,516.1132813,769.53125,272.4609375
11.3250,515.1367188,771.9726563,264.6484375
11.3300,513.671875,786.1328125,256.3476563
11.3350,515.625,787.5976563,252.4414063
11.3400,503.4179688,785.6445313,266.1132813
11.3450,500.4882813,786.6210938,259.765625
11.3500,492.1875,793.9453125,241.2109375
11.3550,482.421875,798.828125,256.8359375
11.3600,472.65625,795.8984375,250.4882813
11.3650,475.5859375,803.7109375,252.4414063
11.3700,477.0507813,804.1992188,246.09375
11.3750,465.3320313,798.3398438,250.4882813
11.3800,458.4960938,798.828125,266.1132813
11.3850,448.7304688,800.78125,262.2070313
11.3900,441.40625,805.1757813,261.2304688
11.3950,440.9179688,814.9414063,255.3710938
11.4000,436.0351563,819.8242188,261.71875
11.4050,443.8476563,839.84375,252.4414063
11.4100,432.6171875,844.7265625,250
11.4150,419.921875,848.6328125,255.3710938
11.4200,407.7148438,846.6796875,253.90625
11.4250,415.0390625,836.9140625,249.5117188
11.4300,424.3164063,816.8945313,250.9765625
11.4350,428.7109375,808.1054688,247.5585938
11.4400,419.4335938,830.5664063,240.7226563
11.4450,411.6210938,870.6054688,253.90625
11.4500,387.2070313,865.7226563,263.671875
11.4550,392.0898438,837.890625,267.578125
11.4600,408.6914063,824.21875,263.671875
11.4650,414.5507813,840.8203125,251.953125
11.4700,395.5078125,861.328125,265.1367188
11.4750,377.4414063,877.9296875,259.2773438
11.4800,360.8398438,880.859375,261.71875
11.4850,366.2109375,881.3476563,250.4882813
11.4900,357.9101563,880.3710938,238.7695313
11.4950,364.2578125,916.015625,246.09375
11.5000,340.8203125,919.4335938,253.90625
11.5050,322.7539063,896.484375,267.578125
11.5100,318.8476563,872.0703125,262.6953125
11.5150,326.171875,850.5859375,247.5585938
11.5200,331.5429688,863.28125,244.6289063
11.5250,329.1015625,874.0234375,242.6757813
11.5300,315.9179688,873.5351563,258.3007813
11.5350,307.1289063,873.5351563,251.953125
11.5400,294.4335938,883.3007813,242.1875
11.5450,285.15625,901.8554688,237.3046875
11.5500,281.25,937.5,245.6054688
11.5550,274.9023438,946.7773438,243.1640625
11.5600,270.9960938,929.6875,262.6953125
11.5650,267.0898438,892.578125,256.8359375
11.5700,274.4140625,886.71875,249.5117188
11.5750,269.0429688,883.3007813,243.6523438
11.5800,256.8359375,895.9960938,243.6523438
11.5850,243.1640625,894.53125,255.3710938
11.5900,238.7695313,901.3671875,245.1171875
11.5950,234.375,910.6445313,245.1171875
11.6000,235.3515625,934.5703125,249.0234375
11.6050,225.0976563,934.5703125,271.484375
11.6100,212.890625,937.0117188,263.671875
11.6150,213.8671875,942.3828125,257.8125
11.6200,215.3320313,952.1484375,249.0234375
11.6250,214.84375,958.4960938,244.140625
11.6300,194.8242188,950.1953125,247.0703125
11.6350,191.40625,954.5898438,240.234375
11.6400,178.2226563,963.8671875,246.5820313
11.6450,174.3164063,967.2851563,237.7929688
11.6500,167.4804688,951.6601563,259.765625
11.6550,170.8984375,939.453125,263.671875
11.6600,170.4101563,937.0117188,263.1835938
11.6650,150.390625,942.3828125,260.2539063
11.6700,145.5078125,952.1484375,254.3945313
11.6750,145.0195313,954.5898438,260.7421875
11.6800,135.2539063,969.2382813,260.2539063
11.6850,128.90625,1019.53125,246.09375
11.6900,121.5820313,1059.082031,239.7460938
11.6950,120.6054688,1043.457031,251.4648438
11.7000,127.4414063,974.609375,233.8867188
11.7050,145.0195313,926.7578125,229.0039063
11.7100,146.484375,908.6914063,212.4023438
11.7150,130.859375,899.4140625,222.1679688
11.7200,118.6523438,918.4570313,231.4453125
11.7250,110.8398438,947.265625,234.8632813
11.7300,99.12109375,1014.160156,247.0703125
11.7350,88.8671875,1040.527344,263.671875
11.7400,80.56640625,1009.765625,276.8554688
11.7450,83.0078125,941.40625,296.3867188
11.7500,80.56640625,907.2265625,269.0429688
11.7550,73.73046875,946.2890625,239.2578125
11.7600,50.29296875,1018.066406,244.140625
11.7650,31.73828125,1059.570313,231.9335938
11.7700,32.2265625,1044.921875,222.1679688
11.7750,65.91796875,1023.925781,223.1445313
11.7800,76.171875,1021.484375,195.8007813
11.7850,45.8984375,1013.671875,205.078125
11.7900,-9.765625,960.4492188,241.6992188
11.7950,-48.828125,894.0429688,224.1210938
11.8000,-37.59765625,888.1835938,211.9140625
11.8050,-17.08984375,940.9179688,191.40625
11.8100,-18.06640625,1003.417969,206.5429688
11.8150,-30.2734375,1031.25,233.3984375
11.8200,-43.9453125,1005.371094,261.71875
11.8250,-69.3359375,950.1953125,254.3945313
11.8300,-74.21875,951.6601563,240.7226563
11.8350,-63.4765625,995.6054688,219.7265625
11.8400,-69.82421875,1023.925781,218.75
11.8450,-79.1015625,1027.832031,224.1210938
11.8500,-89.35546875,1029.785156,204.1015625
11.8550,-105.9570313,1026.367188,216.3085938
11.8600,-110.3515625,1035.15625,198.7304688
11.8650,-123.046875,1013.671875,192.3828125
11.8700,-136.71875,974.1210938,184.0820313
11.8750,-141.1132813,924.3164063,181.640625
11.8800,-147.4609375,899.9023438,178.7109375
11.8850,-153.3203125,912.109375,172.8515625
11.8900,-163.0859375,973.1445313,161.6210938
11.8950,-179.1992188,1026.367188,187.0117188
11.9000,-200.6835938,1021.484375,215.3320313
11.9050,-203.6132813,977.0507813,228.0273438
11.9100,-193.359375,946.7773438,212.890625
11.9150,-173.828125,953.125,203.125
11.9200,-185.546875,965.3320313,200.1953125
11.9250,-191.40625,984.8632813,210.4492188
11.9300,-206.0546875,974.1210938,205.5664063
11.9350,-206.0546875,965.3320313,194.8242188
11.9400,-211.9140625,959.9609375,196.7773438
11.9450,-219.7265625,971.1914063,178.2226563
11.9500,-226.5625,997.0703125,190.9179688
11.9550,-225.0976563,1001.953125,200.1953125
11.9600,-232.421875,974.609375,223.6328125
11.9650,-249.5117188,949.21875,212.890625
11.9700,-246.09375,944.3359375,218.75
11.9750,-238.28125,921.3867188,224.1210938
11.9800,-245.1171875,905.2734375,226.0742188
11.9850,-264.6484375,918.4570313,214.3554688
11.9900,-273.9257813,960.9375,216.3085938
11.9950,-279.7851563,990.234375,225.0976563
12.0000,-281.25,986.328125,225.5859375
12.0050,-288.0859375,975.5859375,210.9375
12.0100,-289.0625,976.0742188,204.5898438
12.0150,-287.5976563,972.65625,210.4492188
12.0200,-295.4101563,950.1953125,222.65625
12.0250,-301.2695313,935.0585938,205.078125
12.0300,-314.9414063,929.1992188,206.0546875
12.0350,-323.7304688,959.9609375,191.8945313
12.0400,-330.078125,988.7695313,185.0585938
12.0450,-338.8671875,959.9609375,201.6601563
12.0500,-357.421875,901.3671875,204.5898438
12.0550,-352.5390625,878.90625,179.1992188
12.0600,-365.7226563,891.1132813,177.2460938
12.0650,-377.4414063,910.6445313,164.0625
12.0700,-387.2070313,916.5039063,178.2226563
12.0750,-395.5078125,903.8085938,187.0117188
12.0800,-399.9023438,905.7617188,198.2421875
12.0850,-395.9960938,925.78125,167.4804688
12.0900,-406.7382813,954.5898438,168.4570313
12.0950,-402.34375,976.5625,186.0351563
12.1000,-407.7148438,949.21875,198.7304688
12.1050,-416.9921875,909.1796875,182.1289063
12.1100,-413.5742188,895.0195313,166.5039063
12.1150,-420.4101563,895.5078125,134.765625
12.1200,-433.1054688,897.4609375,145.9960938
12.1250,-450.6835938,889.6484375,154.296875
12.1300,-472.1679688,880.3710938,142.0898438
12.1350,-482.421875,861.328125,148.4375
12.1400,-474.609375,857.9101563,152.34375
12.1450,-464.84375,852.0507813,143.0664063
12.1500,-467.2851563,863.28125,155.2734375
12.1550,-471.1914063,878.4179688,162.109375
12.1600,-474.609375,894.0429688,170.4101563
12.1650,-483.8867188,887.2070313,161.1328125
12.1700,-481.4453125,891.1132813,175.2929688
12.1750,-493.1640625,883.3007813,181.640625
12.1800,-493.1640625,889.1601563,187.0117188
12.1850,-492.1875,876.4648438,184.0820313
12.1900,-486.328125,867.6757813,185.546875
12.1950,-487.3046875,867.6757813,178.2226563
12.2000,-499.0234375,877.4414063,189.453125
12.2050,-507.8125,872.5585938,187.9882813
12.2100,-515.625,866.6992188,198.2421875
12.2150,-516.1132813,859.375,193.8476563
12.2200,-519.0429688,864.2578125,192.8710938
12.2250,-525.8789063,873.046875,195.8007813
12.2300,-524.4140625,858.8867188,193.359375
12.2350,-530.7617188,846.6796875,184.0820313
12.2400,-540.0390625,848.6328125,182.6171875
12.2450,-538.5742188,875,155.7617188
12.2500,-544.921875,884.765625,163.5742188
12.2550,-552.734375,869.6289063,177.2460938
12.2600,-565.4296875,854.0039063,172.8515625
12.2650,-570.3125,848.6328125,186.5234375
12.2700,-584.9609375,836.4257813,184.5703125
12.2750,-591.796875,826.6601563,192.8710938
12.2800,-583.4960938,827.1484375,190.4296875
12.2850,-583.4960938,810.546875,197.265625
12.2900,-593.2617188,795.8984375,192.8710938
12.2950,-605.9570313,785.15625,173.3398438
12.3000,-608.8867188,791.015625,177.734375
12.3050,-621.09375,787.109375,180.1757813
12.3100,-623.5351563,803.2226563,175.2929688
12.3150,-631.8359375,811.5234375,163.0859375
12.3200,-623.046875,831.5429688,172.8515625
12.3250,-630.3710938,822.7539063,172.3632813
12.3300,-627.4414063,834.4726563,178.7109375
12.3350,-644.0429688,822.7539063,167.4804688
12.3400,-635.2539063,805.6640625,167.96875
12.3450,-631.3476563,785.6445313,152.8320313
12.3500,-638.671875,781.25,154.296875
12.3550,-653.8085938,767.0898438,152.8320313
12.3600,-664.5507813,754.3945313,148.9257813
12.3650,-665.5273438,743.6523438,147.4609375
12.3700,-657.7148438,731.4453125,154.296875
12.3750,-651.8554688,740.7226563,145.5078125
12.3800,-674.3164063,737.3046875,156.7382813
12.3850,-679.1992188,750,141.1132813
12.3900,-676.7578125,773.4375,151.3671875
12.3950,-667.96875,765.625,157.2265625
12.4000,-674.3164063,748.046875,172.3632813
12.4050,-683.1054688,724.1210938,168.4570313
12.4100,-693.8476563,720.703125,166.9921875
12.4150,-695.3125,727.5390625,147.4609375
12.4200,-698.7304688,737.7929688,144.53125
12.4250,-708.0078125,742.6757813,146.9726563
12.4300,-724.1210938,734.8632813,150.390625
12.4350,-736.328125,739.7460938,136.2304688
12.4400,-712.890625,735.3515625,133.7890625
12.4450,-702.6367188,726.5625,122.0703125
12.4500,-712.890625,736.328125,119.6289063
12.4550,-709.4726563,732.9101563,131.8359375
12.4600,-720.2148438,704.1015625,143.0664063
12.4650,-718.2617188,704.5898438,144.0429688
12.4700,-711.9140625,725.0976563,144.53125
12.4750,-712.4023438,736.328125,151.8554688
12.4800,-722.1679688,728.0273438,165.0390625
12.4850,-730.46875,708.0078125,173.828125
12.4900,-731.9335938,679.1992188,153.8085938
12.4950,-724.1210938,665.5273438,147.4609375
12.5000,-728.515625,662.5976563,145.0195313
12.5050,-758.7890625,660.6445313,145.5078125
12.5100,-750.4882813,651.8554688,157.2265625
12.5150,-752.9296875,666.015625,152.8320313
12.5200,-759.765625,681.1523438,133.7890625
12.5250,-763.1835938,684.5703125,132.3242188
12.5300,-763.1835938,687.9882813,144.0429688
12.5350,-760.7421875,666.5039063,149.4140625
12.5400,-766.6015625,648.9257813,161.6210938
12.5450,-777.34375,647.9492188,157.7148438
12.5500,-781.25,649.4140625,146.484375
12.5550,-777.34375,656.7382813,141.6015625
12.5600,-773.4375,664.5507813,144.53125
12.5650,-784.6679688,649.4140625,150.390625
12.5700,-793.9453125,638.1835938,141.1132813
12.5750,-799.8046875,621.5820313,133.3007813
12.5800,-791.9921875,625.4882813,122.5585938
12.5850,-796.875,616.6992188,126.4648438
12.5900,-806.640625,611.8164063,134.2773438
12.5950,-816.8945313,607.421875,122.0703125
12.6000,-816.40625,613.7695313,108.8867188
12.6050,-823.2421875,599.609375,124.0234375
12.6100,-817.8710938,594.2382813,125.4882813
12.6150,-823.2421875,578.125,118.1640625
12.6200,-838.8671875,565.4296875,122.5585938
12.6250,-841.3085938,560.0585938,125.9765625
12.6300,-840.8203125,554.6875,107.9101563
12.6350,-845.2148438,545.8984375,109.8632813
12.6400,-849.609375,553.7109375,115.7226563
12.6450,-851.0742188,563.9648438,117.1875
12.6500,-846.6796875,569.3359375,105.9570313
12.6550,-839.84375,566.40625,113.28125
12.6600,-861.328125,552.734375,122.0703125
12.6650,-863.7695313,550.78125,134.2773438
12.6700,-857.421875,559.5703125,123.5351563
12.6750,-841.3085938,565.9179688,109.375
12.6800,-833.0078125,567.8710938,115.234375
12.6850,-834.4726563,556.640625,117.1875
12.6900,-848.6328125,550.78125,111.8164063
12.6950,-852.5390625,546.875,108.8867188
12.7000,-843.2617188,546.875,119.140625
12.7050,-841.796875,546.3867188,111.328125
12.7100,-847.1679688,553.7109375,119.6289063
12.7150,-854.4921875,543.4570313,117.1875
12.7200,-841.796875,551.2695313,113.28125
12.7250,-846.6796875,539.0625,109.375
12.7300,-844.2382813,540.5273438,114.7460938
12.7350,-841.3085938,555.1757813,117.1875
12.7400,-858.8867188,548.3398438,115.234375
12.7450,-856.4453125,560.546875,95.21484375
12.7500,-853.515625,565.4296875,104.9804688
12.7550,-841.3085938,558.1054688,107.9101563
12.7600,-854.9804688,524.4140625,111.8164063
12.7650,-875,506.8359375,116.6992188
12.7700,-878.90625,509.765625,120.1171875
12.7750,-866.6992188,514.1601563,118.1640625
12.7800,-866.6992188,520.0195313,118.1640625
12.7850,-867.6757813,523.9257813,116.2109375
12.7900,-875.4882813,516.1132813,126.4648438
12.7950,-875,508.3007813,119.6289063
12.8000,-878.90625,506.8359375,128.90625
12.8050,-881.3476563,512.2070313,128.90625
12.8100,-878.90625,522.4609375,115.7226563
12.8150,-874.5117188,528.8085938,112.3046875
12.8200,-877.9296875,523.9257813,105.46875
12.8250,-887.6953125,513.1835938,115.7226563
12.8300,-887.6953125,517.0898438,104.4921875
12.8350,-883.3007813,512.2070313,120.1171875
12.8400,-892.578125,502.9296875,120.6054688
12.8450,-877.4414063,504.3945313,111.328125
12.8500,-884.765625,479.0039063,111.8164063
12.8550,-885.7421875,461.4257813,115.234375
12.8600,-893.0664063,438.4765625,107.9101563
12.8650,-899.9023438,416.015625,98.14453125
12.8700,-899.9023438,416.015625,109.375
12.8750,-892.578125,418.9453125,99.12109375
12.8800,-897.4609375,416.9921875,103.515625
12.8850,-898.9257813,421.875,106.4453125
12.8900,-906.7382813,425.78125,113.28125
12.8950,-908.203125,432.1289063,116.2109375
12.9000,-913.5742188,446.2890625,117.6757813
12.9050,-905.2734375,462.890625,114.2578125
12.9100,-913.0859375,461.9140625,114.2578125
12.9150,-901.8554688,459.4726563,110.8398438
12.9200,-904.7851563,443.8476563,108.8867188
12.9250,-910.6445313,426.7578125,106.9335938
12.9300,-912.5976563,412.109375,107.9101563
12.9350,-910.6445313,399.4140625,100.5859375
12.9400,-915.5273438,391.1132813,112.7929688
12.9450,-922.8515625,387.6953125,105.46875
12.9500,-927.734375,391.6015625,111.328125
12.9550,-926.2695313,392.0898438,104.4921875
12.9600,-924.3164063,401.8554688,103.0273438
12.9650,-927.2460938,411.1328125,105.46875
12.9700,-921.875,421.3867188,104.9804688
12.9750,-928.7109375,416.9921875,101.5625
12.9800,-921.875,432.1289063,94.23828125
12.9850,-927.734375,423.3398438,95.21484375
12.9900,-916.015625,439.453125,100.0976563
12.9950,-914.5507813,431.1523438,102.0507813
13.0000,-924.8046875,424.3164063,102.5390625
13.0050,-923.828125,415.0390625,117.1875
13.0100,-927.734375,415.5273438,112.3046875
13.0150,-924.3164063,409.6679688,111.8164063
13.0200,-923.828125,405.7617188,109.8632813
13.0250,-914.5507813,399.9023438,104.9804688
13.0300,-927.2460938,377.9296875,111.328125
13.0350,-928.2226563,371.09375,110.3515625
13.0400,-931.1523438,372.0703125,104.9804688
13.0450,-932.6171875,376.953125,107.421875
13.0500,-929.6875,383.7890625,105.46875
13.0550,-925.2929688,385.7421875,102.0507813
13.0600,-930.1757813,392.578125,100.5859375
13.0650,-926.2695313,397.9492188,112.3046875
13.0700,-933.59375,398.4375,116.2109375
13.0750,-930.6640625,404.296875,108.8867188
13.0800,-930.6640625,407.7148438,120.6054688
13.0850,-923.828125,412.109375,110.3515625
13.0900,-923.828125,413.5742188,117.1875
13.0950,-917.4804688,408.6914063,118.6523438
13.1000,-923.828125,400.390625,104.4921875
13.1050,-921.3867188,401.8554688,113.7695313
13.1100,-925.78125,395.5078125,112.7929688
13.1150,-926.7578125,395.5078125,96.19140625
13.1200,-925.2929688,398.4375,104.0039063
13.1250,-933.59375,398.4375,110.8398438
13.1300,-938.4765625,399.9023438,121.09375
13.1350,-938.9648438,409.1796875,107.421875
13.1400,-945.8007813,406.7382813,110.3515625
13.1450,-941.8945313,406.25,128.4179688
13.1500,-936.0351563,392.0898438,125.9765625
13.1550,-946.2890625,364.2578125,114.2578125
13.1600,-954.1015625,342.2851563,129.3945313
13.1650,-954.5898438,332.03125,133.7890625
13.1700,-964.84375,320.3125,129.8828125
13.1750,-967.2851563,307.6171875,140.1367188
13.1800,-971.1914063,307.1289063,127.9296875
13.1850,-970.2148438,310.0585938,132.3242188
13.1900,-971.6796875,312.9882813,122.5585938
13.1950,-964.3554688,321.7773438,127.4414063
13.2000,-961.4257813,322.7539063,116.2109375
13.2050,-960.4492188,320.3125,114.2578125
13.2100,-955.5664063,316.8945313,123.046875
13.2150,-957.03125,301.7578125,108.8867188
13.2200,-951.6601563,297.3632813,112.3046875
13.2250,-958.984375,291.015625,96.19140625
13.2300,-963.8671875,296.3867188,105.9570313
13.2350,-957.5195313,316.8945313,86.9140625
13.2400,-964.3554688,345.703125,85.9375
13.2450,-958.0078125,370.6054688,82.03125
13.2500,-947.7539063,398.4375,92.28515625
13.2550,-948.7304688,388.1835938,88.37890625
13.2600,-950.1953125,382.3242188,105.9570313
13.2650,-963.3789063,371.5820313,82.03125
13.2700,-959.9609375,380.859375,100.5859375
13.2750,-964.3554688,375.4882813,99.12109375
13.2800,-947.7539063,376.953125,90.8203125
13.2850,-949.7070313,367.1875,84.47265625
13.2900,-946.7773438,365.234375,73.73046875
13.2950,-950.6835938,361.8164063,80.56640625
13.3000,-940.9179688,375.4882813,84.9609375
13.3050,-927.2460938,371.09375,75.1953125
13.3100,-926.7578125,360.3515625,94.7265625
13.3150,-922.8515625,348.1445313,82.51953125
13.3200,-932.6171875,345.703125,88.37890625
13.3250,-928.7109375,349.1210938,103.0273438
13.3300,-923.3398438,354.0039063,83.984375
13.3350,-925.78125,357.421875,92.7734375
13.3400,-933.1054688,362.3046875,110.3515625
13.3450,-937.9882813,367.1875,95.21484375
13.3500,-942.8710938,367.6757813,83.984375
13.3550,-939.9414063,374.0234375,89.35546875
13.3600,-931.1523438,392.0898438,78.125
13.3650,-930.6640625,393.5546875,78.125
13.3700,-927.2460938,388.1835938,87.890625
13.3750,-936.0351563,390.625,77.63671875
13.3800,-942.8710938,393.0664063,83.49609375
13.3850,-938.4765625,397.9492188,87.890625
13.3900,-930.6640625,411.1328125,83.49609375
13.3950,-931.1523438,420.8984375,90.33203125
13.4000,-927.734375,421.3867188,104.4921875
13.4050,-921.875,423.828125,94.7265625
13.4100,-925.2929688,424.3164063,103.0273438
13.4150,-935.0585938,421.3867188,100.0976563
13.4200,-924.8046875,434.0820313,84.9609375
13.4250,-918.9453125,433.1054688,108.8867188
13.4300,-909.6679688,433.59375,93.75
13.4350,-915.5273438,418.9453125,109.8632813
13.4400,-927.2460938,413.0859375,110.8398438
13.4450,-923.3398438,415.0390625,113.28125
13.4500,-906.7382813,422.8515625,107.9101563
13.4550,-903.3203125,428.7109375,102.5390625
13.4600,-906.7382813,440.9179688,101.5625
13.4650,-913.5742188,443.8476563,119.140625
13.4700,-919.4335938,450.1953125,119.140625
13.4750,-906.25,464.84375,123.5351563
13.4800,-917.96875,465.8203125,110.8398438
13.4850,-905.2734375,477.5390625,115.7226563
13.4900,-902.34375,467.2851563,117.6757813
13.4950,-899.4140625,462.4023438,130.3710938
13.5000,-908.203125,456.0546875,124.0234375
13.5050,-916.015625,449.21875,118.6523438
13.5100,-903.8085938,468.75,111.328125
13.5150,-898.4375,466.796875,106.9335938
13.5200,-897.9492188,475.0976563,116.6992188
13.5250,-895.5078125,489.7460938,107.9101563
13.5300,-895.5078125,493.6523438,124.0234375
13.5350,-889.1601563,491.2109375,113.28125
13.5400,-889.1601563,485.3515625,106.4453125
13.5450,-891.1132813,483.8867188,123.5351563
13.5500,-897.4609375,478.515625,127.4414063
13.5550,-892.0898438,474.609375,125.9765625
13.5600,-891.1132813,464.84375,130.3710938
13.5650,-888.1835938,459.9609375,128.4179688
13.5700,-893.0664063,464.3554688,116.2109375
13.5750,-892.578125,470.2148438,131.3476563
13.5800,-887.2070313,485.3515625,123.046875
13.5850,-888.671875,491.6992188,130.3710938
13.5900,-889.1601563,501.953125,120.1171875
13.5950,-883.7890625,505.3710938,122.5585938
13.6000,-884.2773438,513.671875,120.6054688
13.6050,-878.90625,518.5546875,112.7929688
13.6100,-871.09375,529.7851563,119.140625
13.6150,-874.0234375,527.8320313,121.09375
13.6200,-867.6757813,529.296875,117.6757813
13.6250,-864.7460938,525.390625,117.6757813
13.6300,-867.6757813,523.4375,107.9101563
13.6350,-866.2109375,531.7382813,118.6523438
13.6400,-864.2578125,535.15625,114.2578125
13.6450,-844.7265625,545.4101563,120.1171875
13.6500,-843.75,552.734375,122.0703125
13.6550,-847.65625,550.78125,133.7890625
13.6600,-842.2851563,559.0820313,126.953125
13.6650,-834.9609375,558.1054688,120.1171875
13.6700,-840.3320313,555.6640625,132.3242188
13.6750,-829.5898438,567.3828125,144.0429688
13.6800,-830.078125,570.3125,131.3476563
13.6850,-837.890625,567.8710938,128.4179688
13.6900,-837.890625,587.4023438,124.5117188
13.6950,-839.3554688,594.7265625,120.6054688
13.7000,-830.5664063,601.5625,127.4414063
13.7050,-831.0546875,593.75,116.6992188
13.7100,-828.6132813,593.75,126.4648438
13.7150,-821.7773438,596.6796875,122.5585938
13.7200,-824.21875,591.3085938,130.859375
13.7250,-817.8710938,591.3085938,109.8632813
13.7300,-819.8242188,592.7734375,110.3515625
13.7350,-819.3359375,599.1210938,112.7929688
13.7400,-802.734375,615.7226563,112.3046875
13.7450,-811.0351563,613.7695313,103.515625
13.7500,-804.1992188,624.0234375,123.046875
13.7550,-790.0390625,631.8359375,115.234375
13.7600,-791.5039063,625.9765625,115.7226563
13.7650,-789.0625,641.1132813,116.6992188
13.7700,-796.3867188,657.2265625,129.3945313
13.7750,-790.0390625,682.1289063,138.1835938
13.7800,-774.4140625,692.3828125,144.0429688
13.7850,-765.1367188,673.3398438,141.6015625
13.7900,-766.6015625,651.3671875,144.0429688
13.7950,-777.8320313,634.765625,148.4375
13.8000,-765.625,641.6015625,118.1640625
13.8050,-762.2070313,649.4140625,137.2070313
13.8100,-752.4414063,661.1328125,124.5117188
13.8150,-751.953125,660.6445313,124.5117188
13.8200,-745.6054688,673.828125,119.140625
13.8250,-737.3046875,679.1992188,128.90625
13.8300,-729.0039063,687.5,124.0234375
13.8350,-733.3984375,684.0820313,126.4648438
13.8400,-726.5625,693.8476563,130.859375
13.8450,-718.2617188,706.5429688,125.9765625
13.8500,-715.3320313,714.84375,131.3476563
13.8550,-716.796875,717.7734375,150.390625
13.8600,-710.9375,728.0273438,144.53125
13.8650,-701.171875,718.75,146.484375
13.8700,-694.3359375,713.3789063,153.8085938
13.8750,-698.7304688,698.7304688,140.625
13.8800,-690.9179688,722.1679688,151.3671875
13.8850,-693.359375,722.65625,150.390625
13.8900,-670.4101563,750.9765625,157.7148438
13.8950,-675.2929688,743.1640625,154.296875
13.9000,-666.5039063,755.859375,152.8320313
13.9050,-651.8554688,765.1367188,157.7148438
13.9100,-647.4609375,767.0898438,152.34375
13.9150,-643.0664063,774.9023438,142.578125
13.9200,-651.8554688,783.203125,154.296875
13.9250,-650.8789063,780.2734375,146.484375
13.9300,-644.0429688,762.6953125,157.2265625
13.9350,-642.0898438,728.515625,146.484375
13.9400,-646.484375,709.4726563,157.7148438
13.9450,-652.34375,714.3554688,146.484375
13.9500,-653.3203125,737.3046875,149.9023438
13.9550,-653.3203125,759.765625,160.6445313
13.9600,-654.7851563,771.484375,148.9257813
13.9650,-653.8085938,761.71875,167.96875
13.9700,-651.3671875,743.6523438,166.015625
13.9750,-660.6445313,716.796875,165.0390625
13.9800,-652.34375,729.4921875,163.5742188
13.9850,-659.1796875,752.9296875,148.4375
13.9900,-651.3671875,788.5742188,144.0429688
13.9950,-652.8320313,798.828125,150.8789063
14.0000,-645.5078125,791.9921875,151.8554688
14.0050,-644.53125,769.53125,137.6953125
14.0100,-635.2539063,769.53125,141.6015625
14.0150,-626.953125,772.9492188,122.5585938
14.0200,-631.8359375,779.296875,129.8828125
14.0250,-624.0234375,796.3867188,138.671875
14.0300,-615.234375,796.875,147.4609375
14.0350,-616.2109375,780.2734375,143.5546875
14.0400,-611.328125,788.0859375,135.7421875
14.0450,-609.8632813,791.015625,144.53125
14.0500,-591.796875,802.2460938,134.2773438
14.0550,-593.2617188,781.25,150.8789063
14.0600,-581.5429688,786.1328125,152.8320313
14.0650,-587.4023438,789.5507813,146.484375
14.0700,-578.125,806.640625,144.53125
14.0750,-567.8710938,802.2460938,142.578125
14.0800,-565.9179688,807.1289063,157.2265625
14.0850,-573.7304688,822.7539063,141.6015625
14.0900,-564.9414063,848.6328125,154.296875
14.0950,-549.3164063,852.0507813,160.6445313
14.1000,-539.5507813,840.3320313,153.8085938
14.1050,-532.7148438,834.4726563,139.6484375
14.1100,-527.8320313,849.1210938,155.2734375
14.1150,-516.1132813,856.9335938,153.3203125
14.1200,-515.625,851.5625,156.7382813
14.1250,-508.7890625,864.7460938,154.296875
14.1300,-492.1875,880.859375,157.2265625
14.1350,-489.2578125,878.90625,170.4101563
14.1400,-476.5625,877.9296875,170.4101563
14.1450,-467.7734375,876.953125,169.4335938
14.1500,-456.5429688,884.2773438,184.0820313
14.1550,-446.7773438,895.5078125,195.3125
14.1600,-449.21875,903.3203125,189.453125
