type,name,time_units,begin_time,frequency,count,units
signal,"Noraxon MyoMotion-Segments-Forearm RT-Course","s",0.0000,200,5068,"deg"

time,value
0.0000,-16.31195673
0.0050,-16.31892102
0.0100,-16.32588504
0.0150,-16.3328488
0.0200,-16.34060331
0.0250,-16.34915824
0.0300,-16.35851928
0.0350,-16.36868803
0.0400,-16.37966115
0.0450,-16.3914282
0.0500,-16.40396843
0.0550,-16.41724787
0.0600,-16.43121822
0.0650,-16.44581739
0.0700,-16.46097123
0.0750,-16.47659605
0.0800,-16.49260182
0.0850,-16.50889463
0.0900,-16.52537713
0.0950,-16.54194803
0.1000,-16.55850173
0.1050,-16.57492844
0.1100,-16.59111542
0.1150,-16.60694866
0.1200,-16.62231479
0.1250,-16.63710373
0.1300,-16.65121177
0.1350,-16.66454386
0.1400,-16.67701541
0.1450,-16.68855426
0.1500,-16.69910317
0.1550,-16.71724917
0.1600,-16.73417521
0.1650,-16.74982875
0.1700,-16.76425217
0.1750,-16.77748735
0.1800,-16.7894797
0.1850,-16.80031532
0.1900,-16.80985287
0.1950,-16.81823531
0.2000,-16.82544126
0.2050,-16.8314413
0.2100,-16.8360975
0.2150,-16.83945774
0.2200,-16.84188578
0.2250,-16.84310104
0.2300,-16.84343623
0.2350,-16.84337256
0.2400,-16.8429618
0.2450,-16.84206456
0.2500,-16.84099301
0.2550,-16.8396855
0.2600,-16.83813447
0.2650,-16.83641552
0.2700,-16.83458293
0.2750,-16.83235994
0.2800,-16.83001729
0.2850,-16.82729814
0.2900,-16.82445146
0.2950,-16.82139966
0.3000,-16.81805165
0.3050,-16.81463362
0.3100,-16.81128932
0.3150,-16.80789447
0.3200,-16.80470154
0.3250,-16.80148548
0.3300,-16.79822502
0.3350,-16.79499151
0.3400,-16.79174176
0.3450,-16.78858668
0.3500,-16.78549495
0.3550,-16.78228159
0.3600,-16.77899044
0.3650,-16.77577021
0.3700,-16.77254842
0.3750,-16.76929632
0.3800,-16.76627884
0.3850,-16.76331256
0.3900,-16.76040286
0.3950,-16.75750865
0.4000,-16.75421854
0.4050,-16.75045
0.4100,-16.74620542
0.4150,-16.74121531
0.4200,-16.7357659
0.4250,-16.72975619
0.4300,-16.7232398
0.4350,-16.71627167
0.4400,-16.70881729
0.4450,-16.70089858
0.4500,-16.69261079
0.4550,-16.6841247
0.4600,-16.67524518
0.4650,-16.66603705
0.4700,-16.65633281
0.4750,-16.64617332
0.4800,-16.63561538
0.4850,-16.62458453
0.4900,-16.61323983
0.4950,-16.60158416
0.5000,-16.58965933
0.5050,-16.57736515
0.5100,-16.56490419
0.5150,-16.55233891
0.5200,-16.53953035
0.5250,-16.52661731
0.5300,-16.51349066
0.5350,-16.50010856
0.5400,-16.48640833
0.5450,-16.4726891
0.5500,-16.45872073
0.5550,-16.44471137
0.5600,-16.43078266
0.5650,-16.4169302
0.5700,-16.40304176
0.5750,-16.38936488
0.5800,-16.37572779
0.5850,-16.36246626
0.5900,-16.34933872
0.5950,-16.33643193
0.6000,-16.32389527
0.6050,-16.31158689
0.6100,-16.29937686
0.6150,-16.28708432
0.6200,-16.2748267
0.6250,-16.26270777
0.6300,-16.2506992
0.6350,-16.23866007
0.6400,-16.22667158
0.6450,-16.2148252
0.6500,-16.20305198
0.6550,-16.19137563
0.6600,-16.18008838
0.6650,-16.16908326
0.6700,-16.15860744
0.6750,-16.14848974
0.6800,-16.13868722
0.6850,-16.12939243
0.6900,-16.12062548
0.6950,-16.11215264
0.7000,-16.10408614
0.7050,-16.09647204
0.7100,-16.08935216
0.7150,-16.0825327
0.7200,-16.07589612
0.7250,-16.06957157
0.7300,-16.06344861
0.7350,-16.05747923
0.7400,-16.05166716
0.7450,-16.04599787
0.7500,-16.0404025
0.7550,-16.03473416
0.7600,-16.02915089
0.7650,-16.02362411
0.7700,-16.01819246
0.7750,-16.01277632
0.7800,-16.00753093
0.7850,-16.00240332
0.7900,-15.99740879
0.7950,-15.99262398
0.8000,-15.98801913
0.8050,-15.98378074
0.8100,-15.97980989
0.8150,-15.97584932
0.8200,-15.97214698
0.8250,-15.96855378
0.8300,-15.96505796
0.8350,-15.96136488
0.8400,-15.95785965
0.8450,-15.95429356
0.8500,-15.95076912
0.8550,-15.94720874
0.8600,-15.94382343
0.8650,-15.94045472
0.8700,-15.93732131
0.8750,-15.93433091
0.8800,-15.93165164
0.8850,-15.92908034
0.8900,-15.92681232
0.8950,-15.92478527
0.9000,-15.92295127
0.9050,-15.92138062
0.9100,-15.92009172
0.9150,-15.9193846
0.9200,-15.9190643
0.9250,-15.91904807
0.9300,-15.91947121
0.9350,-15.92047185
0.9400,-15.92202108
0.9450,-15.92409886
0.9500,-15.92668259
0.9550,-15.92989569
0.9600,-15.93356195
0.9650,-15.9375755
0.9700,-15.94180523
0.9750,-15.94622438
0.9800,-15.95095422
0.9850,-15.95572945
0.9900,-15.96050068
0.9950,-15.96533508
1.0000,-15.97029326
1.0050,-15.97537061
1.0100,-15.98049385
1.0150,-15.98576629
1.0200,-15.99110262
1.0250,-15.99642114
1.0300,-16.00159874
1.0350,-16.00661278
1.0400,-16.01145578
1.0450,-16.01617764
1.0500,-16.02061665
1.0550,-16.02489221
1.0600,-16.02894712
1.0650,-16.0328234
1.0700,-16.03651002
1.0750,-16.04003985
1.0800,-16.04329185
1.0850,-16.04625917
1.0900,-16.04915323
1.0950,-16.05187106
1.1000,-16.05437744
1.1050,-16.0566639
1.1100,-16.05884696
1.1150,-16.0610615
1.1200,-16.06316831
1.1250,-16.06534476
1.1300,-16.06763077
1.1350,-16.07003346
1.1400,-16.07211137
1.1450,-16.07408896
1.1500,-16.07589673
1.1550,-16.07738051
1.1600,-16.07830371
1.1650,-16.07897363
1.1700,-16.07936932
1.1750,-16.07967648
1.1800,-16.07994389
1.1850,-16.08029005
1.1900,-16.08063276
1.1950,-16.08106189
1.2000,-16.08185174
1.2050,-16.08278804
1.2100,-16.08398415
1.2150,-16.08521053
1.2200,-16.08653626
1.2250,-16.08793883
1.2300,-16.0893779
1.2350,-16.09047274
1.2400,-16.09119767
1.2450,-16.09137749
1.2500,-16.0908556
1.2550,-16.08958676
1.2600,-16.08751174
1.2650,-16.08485784
1.2700,-16.08141073
1.2750,-16.07737191
1.2800,-16.07245678
1.2850,-16.06672053
1.2900,-16.06021047
1.2950,-16.05317042
1.3000,-16.04537171
1.3050,-16.03686216
1.3100,-16.02770614
1.3150,-16.01792168
1.3200,-16.00756071
1.3250,-15.99660954
1.3300,-15.98525137
1.3350,-15.97337438
1.3400,-15.96102727
1.3450,-15.94801632
1.3500,-15.93459649
1.3550,-15.92051268
1.3600,-15.90582175
1.3650,-15.89026681
1.3700,-15.87389749
1.3750,-15.8566758
1.3800,-15.83867091
1.3850,-15.81990629
1.3900,-15.80030294
1.3950,-15.77986346
1.4000,-15.75866032
1.4050,-15.73664764
1.4100,-15.71397727
1.4150,-15.69082483
1.4200,-15.66709904
1.4250,-15.64293445
1.4300,-15.61858291
1.4350,-15.59430034
1.4400,-15.57056541
1.4450,-15.54753029
1.4500,-15.525535
1.4550,-15.50457753
1.4600,-15.48485332
1.4650,-15.46625884
1.4700,-15.44870413
1.4750,-15.43164417
1.4800,-15.41516254
1.4850,-15.39894838
1.4900,-15.38317616
1.4950,-15.36765604
1.5000,-15.35221414
1.5050,-15.33699034
1.5100,-15.32196587
1.5150,-15.30712773
1.5200,-15.29222141
1.5250,-15.2771665
1.5300,-15.262003
1.5350,-15.24678397
1.5400,-15.23162689
1.5450,-15.21661969
1.5500,-15.20211009
1.5550,-15.18827138
1.5600,-15.1751858
1.5650,-15.1629714
1.5700,-15.15184664
1.5750,-15.14191292
1.5800,-15.13324353
1.5850,-15.12602512
1.5900,-15.12013378
1.5950,-15.11519172
1.6000,-15.11122894
1.6050,-15.10806655
1.6100,-15.10550824
1.6150,-15.1036697
1.6200,-15.10247233
1.6250,-15.10164868
1.6300,-15.10126602
1.6350,-15.10117777
1.6400,-15.10135742
1.6450,-15.10181391
1.6500,-15.10244784
1.6550,-15.10324676
1.6600,-15.10410691
1.6650,-15.1051169
1.6700,-15.10625728
1.6750,-15.10741284
1.6800,-15.10889718
1.6850,-15.11047756
1.6900,-15.11235726
1.6950,-15.11470307
1.7000,-15.11762035
1.7050,-15.12103015
1.7100,-15.12482128
1.7150,-15.12877512
1.7200,-15.13282163
1.7250,-15.13663793
1.7300,-15.13986178
1.7350,-15.14216268
1.7400,-15.14313655
1.7450,-15.14254421
1.7500,-15.14001785
1.7550,-15.13559164
1.7600,-15.12910731
1.7650,-15.12053302
1.7700,-15.11000631
1.7750,-15.0979764
1.7800,-15.08449932
1.7850,-15.06978559
1.7900,-15.05361477
1.7950,-15.03603168
1.8000,-15.01710143
1.8050,-14.9966184
1.8100,-14.97448526
1.8150,-14.95076334
1.8200,-14.92546737
1.8250,-14.89856528
1.8300,-14.87006738
1.8350,-14.84002557
1.8400,-14.80837638
1.8450,-14.77490651
1.8500,-14.7395371
1.8550,-14.70171415
1.8600,-14.66156338
1.8650,-14.61862548
1.8700,-14.57305132
1.8750,-14.52475154
1.8800,-14.47377307
1.8850,-14.42009438
1.8900,-14.36387641
1.8950,-14.30545485
1.9000,-14.24474002
1.9050,-14.18210453
1.9100,-14.11737281
1.9150,-14.05061658
1.9200,-13.98175143
1.9250,-13.91115098
1.9300,-13.83875853
1.9350,-13.76483803
1.9400,-13.68934708
1.9450,-13.61217846
1.9500,-13.53345562
1.9550,-13.45343519
1.9600,-13.37210732
1.9650,-13.28964757
1.9700,-13.20595097
1.9750,-13.12129346
1.9800,-13.0351304
1.9850,-12.94765461
1.9900,-12.85863027
1.9950,-12.76788854
2.0000,-12.67531263
2.0050,-12.58115288
2.0100,-12.48521966
2.0150,-12.38772074
2.0200,-12.2886018
2.0250,-12.18814047
2.0300,-12.08625275
2.0350,-11.98309789
2.0400,-11.87880015
2.0450,-11.77324491
2.0500,-11.66648682
2.0550,-11.55836593
2.0600,-11.44892083
2.0650,-11.33814954
2.0700,-11.22591937
2.0750,-11.11230985
2.0800,-10.99697227
2.0850,-10.8800409
2.0900,-10.76156803
2.0950,-10.64141721
2.1000,-10.51937233
2.1050,-10.39558763
2.1100,-10.26980262
2.1150,-10.14181876
2.1200,-10.01169417
2.1250,-9.879384883
2.1300,-9.744634755
2.1350,-9.607405816
2.1400,-9.46734987
2.1450,-9.324450569
2.1500,-9.178540145
2.1550,-9.02963565
2.1600,-8.877604203
2.1650,-8.722401604
2.1700,-8.563650019
2.1750,-8.401050074
2.1800,-8.234962472
2.1850,-8.065058369
2.1900,-7.891320488
2.1950,-7.713670541
2.2000,-7.532223029
2.2050,-7.346727177
2.2100,-7.157686684
2.2150,-6.965005579
2.2200,-6.768928829
2.2250,-6.569146037
2.2300,-6.365509659
2.2350,-6.158098809
2.2400,-5.946954161
2.2450,-5.732169654
2.2500,-5.513423593
2.2550,-5.290282608
2.2600,-5.062863061
2.2650,-4.830641474
2.2700,-4.593829984
2.2750,-4.352127725
2.2800,-4.105894269
2.2850,-3.854928005
2.2900,-3.599089555
2.2950,-3.338419813
2.3000,-3.072551965
2.3050,-2.801207884
2.3100,-2.524700875
2.3150,-2.242573039
2.3200,-1.954998419
2.3250,-1.661523669
2.3300,-1.362269489
2.3350,-1.05734929
2.3400,-0.7463172903
2.3450,-0.4293270946
2.3500,-0.1066171796
2.3550,0.2218735866
2.3600,0.5560012413
2.3650,0.8956845944
2.3700,1.241063069
2.3750,1.592023311
2.3800,1.948597732
2.3850,2.310723881
2.3900,2.67841546
2.3950,3.05145491
2.4000,3.429422042
2.4050,3.812465511
2.4100,4.2002823
2.4150,4.592689922
2.4200,4.989859908
2.4250,5.391694512
2.4300,5.798015814
2.4350,6.208267209
2.4400,6.622445833
2.4450,7.039983272
2.4500,7.460949332
2.4550,7.885202838
2.4600,8.312671346
2.4650,8.743218779
2.4700,9.176435617
2.4750,9.61207627
2.4800,10.05052111
2.4850,10.49136784
2.4900,10.93437322
2.4950,11.3797628
2.5000,11.82737566
2.5050,12.27678342
2.5100,12.72817816
2.5150,13.18158357
2.5200,13.63695387
2.5250,14.09448391
2.5300,14.55350641
2.5350,15.01391746
2.5400,15.47562345
2.5450,15.93852997
2.5500,16.40249369
2.5550,16.86731941
2.5600,17.33299636
2.5650,17.79915391
2.5700,18.26550714
2.5750,18.73202206
2.5800,19.19840861
2.5850,19.66417791
2.5900,20.1287154
2.5950,20.59218378
2.6000,21.05381251
2.6050,21.51323758
2.6100,21.97076443
2.6150,22.42572974
2.6200,22.87816979
2.6250,23.32768811
2.6300,23.77413678
2.6350,24.21734226
2.6400,24.65707753
2.6450,25.09322257
2.6500,25.52576854
2.6550,25.95459366
2.6600,26.37991724
2.6650,26.80161183
2.6700,27.21985448
2.6750,27.634664
2.6800,28.04568849
2.6850,28.45313112
2.6900,28.85711078
2.6950,29.25765036
2.7000,29.65507118
2.7050,30.04945967
2.7100,30.44058802
2.7150,30.82867209
2.7200,31.21326464
2.7250,31.59438055
2.7300,31.97168899
2.7350,32.34560094
2.7400,32.71574555
2.7450,33.08246963
2.7500,33.44564301
2.7550,33.8055912
2.7600,34.16230045
2.7650,34.51584406
2.7700,34.86653363
2.7750,35.21404924
2.7800,35.55869029
2.7850,35.90021902
2.7900,36.23871022
2.7950,36.57426419
2.8000,36.90659613
2.8050,37.23634299
2.8100,37.56323766
2.8150,37.88735391
2.8200,38.20845391
2.8250,38.52611268
2.8300,38.84067744
2.8350,39.15257133
2.8400,39.4614655
2.8450,39.76764741
2.8500,40.07139902
2.8550,40.37278362
2.8600,40.67208712
2.8650,40.96907539
2.8700,41.26389497
2.8750,41.55619283
2.8800,41.84647657
2.8850,42.13450939
2.8900,42.42061458
2.8950,42.70489554
2.9000,42.98790716
2.9050,43.26998839
2.9100,43.55115357
2.9150,43.83104087
2.9200,44.10938258
2.9250,44.38568751
2.9300,44.66012416
2.9350,44.93306136
2.9400,45.2044577
2.9450,45.47453659
2.9500,45.74351925
2.9550,46.01105201
2.9600,46.27751506
2.9650,46.54313977
2.9700,46.80826742
2.9750,47.07340844
2.9800,47.33879045
2.9850,47.60405625
2.9900,47.86945314
2.9950,48.13468901
3.0000,48.39947872
3.0050,48.66311573
3.0100,48.92564879
3.0150,49.18659786
3.0200,49.44605876
3.0250,49.70375793
3.0300,49.95973558
3.0350,50.21420278
3.0400,50.46743449
3.0450,50.71917817
3.0500,50.97002259
3.0550,51.21994703
3.0600,51.46923266
3.0650,51.71755498
3.0700,51.96505484
3.0750,52.21137201
3.0800,52.45621622
3.0850,52.69991179
3.0900,52.94262766
3.0950,53.18444164
3.1000,53.42567004
3.1050,53.6663774
3.1100,53.90640097
3.1150,54.14532487
3.1200,54.38324366
3.1250,54.62014879
3.1300,54.85566512
3.1350,55.08928438
3.1400,55.32098949
3.1450,55.55016038
3.1500,55.77640905
3.1550,55.99928177
3.1600,56.21844012
3.1650,56.43434015
3.1700,56.64669001
3.1750,56.8556036
3.1800,57.06132685
3.1850,57.26430924
3.1900,57.46533156
3.1950,57.66460362
3.2000,57.86187449
3.2050,58.05693548
3.2100,58.24937075
3.2150,58.4397247
3.2200,58.62801234
3.2250,58.8143802
3.2300,58.99883049
3.2350,59.18144498
3.2400,59.36214113
3.2450,59.54099003
3.2500,59.71769985
3.2550,59.89210431
3.2600,60.06367709
3.2650,60.23237029
3.2700,60.3979767
3.2750,60.56034112
3.2800,60.71930623
3.2850,60.87505279
3.2900,61.02716489
3.2950,61.17576242
3.3000,61.32078117
3.3050,61.46213533
3.3100,61.60020306
3.3150,61.73560288
3.3200,61.86851758
3.3250,61.99935305
3.3300,62.12856235
3.3350,62.25586039
3.3400,62.38121616
3.3450,62.50447253
3.3500,62.62510271
3.3550,62.74305492
3.3600,62.85820012
3.3650,62.97067803
3.3700,63.08080782
3.3750,63.18901393
3.3800,63.29558052
3.3850,63.40016652
3.3900,63.5031466
3.3950,63.60446272
3.4000,63.7038245
3.4050,63.80092326
3.4100,63.8959863
3.4150,63.98946549
3.4200,64.08132846
3.4250,64.17114159
3.4300,64.25890233
3.4350,64.34468662
3.4400,64.42873917
3.4450,64.51110916
3.4500,64.59208359
3.4550,64.67187753
3.4600,64.75059989
3.4650,64.82804536
3.4700,64.90421297
3.4750,64.97926163
3.4800,65.05298628
3.4850,65.12539696
3.4900,65.19608489
3.4950,65.26481356
3.5000,65.3319969
3.5050,65.39794787
3.5100,65.46282404
3.5150,65.52649939
3.5200,65.5888707
3.5250,65.64998823
3.5300,65.70974523
3.5350,65.76819292
3.5400,65.82559478
3.5450,65.88188545
3.5500,65.93701186
3.5550,65.99127985
3.5600,66.04474966
3.5650,66.09714686
3.5700,66.14820495
3.5750,66.19767863
3.5800,66.24552223
3.5850,66.29174658
3.5900,66.33685475
3.5950,66.38093243
3.6000,66.42416047
3.6050,66.46669229
3.6100,66.50797721
3.6150,66.54805024
3.6200,66.5868563
3.6250,66.62439727
3.6300,66.66050928
3.6350,66.69554001
3.6400,66.72950001
3.6450,66.76281195
3.6500,66.79574806
3.6550,66.82828606
3.6600,66.86026443
3.6650,66.89182139
3.6700,66.92280957
3.6750,66.95319794
3.6800,66.98336092
3.6850,67.01341815
3.6900,67.04283781
3.6950,67.071649
3.7000,67.10005809
3.7050,67.12815298
3.7100,67.15578873
3.7150,67.18289144
3.7200,67.20928765
3.7250,67.23531993
3.7300,67.26089118
3.7350,67.2864598
3.7400,67.31185796
3.7450,67.33706626
3.7500,67.36189631
3.7550,67.38657251
3.7600,67.4111179
3.7650,67.43524082
3.7700,67.45910998
3.7750,67.48285615
3.7800,67.50670486
3.7850,67.5306667
3.7900,67.55486174
3.7950,67.57903703
3.8000,67.60318271
3.8050,67.62723528
3.8100,67.65137255
3.8150,67.6754164
3.8200,67.69963816
3.8250,67.72379956
3.8300,67.74774916
3.8350,67.77099067
3.8400,67.793432
3.8450,67.81512229
3.8500,67.83632239
3.8550,67.85698896
3.8600,67.87724336
3.8650,67.89704791
3.8700,67.91637645
3.8750,67.93500528
3.8800,67.95330756
3.8850,67.97149893
3.8900,67.98915253
3.8950,68.00599146
3.9000,68.0219496
3.9050,68.03747106
3.9100,68.05261529
3.9150,68.06720599
3.9200,68.08132863
3.9250,68.09501991
3.9300,68.1083681
3.9350,68.12136359
3.9400,68.13409144
3.9450,68.14649506
3.9500,68.15856722
3.9550,68.17039452
3.9600,68.18196265
3.9650,68.1934615
3.9700,68.20484041
3.9750,68.21655626
3.9800,68.22813997
3.9850,68.23963481
3.9900,68.25128552
3.9950,68.26318047
4.0000,68.27530469
4.0050,68.28778286
4.0100,68.30062554
4.0150,68.31409002
4.0200,68.32822455
4.0250,68.34302283
4.0300,68.35861507
4.0350,68.37457438
4.0400,68.390899
4.0450,68.40771959
4.0500,68.42520363
4.0550,68.44311302
4.0600,68.4612945
4.0650,68.48008697
4.0700,68.49948112
4.0750,68.51941909
4.0800,68.53964705
4.0850,68.55986342
4.0900,68.58005829
4.0950,68.60041256
4.1000,68.62071575
4.1050,68.64089386
4.1100,68.66077355
4.1150,68.68053011
4.1200,68.69974252
4.1250,68.71844258
4.1300,68.73681468
4.1350,68.75515538
4.1400,68.77318371
4.1450,68.79077578
4.1500,68.80786677
4.1550,68.82440482
4.1600,68.84023715
4.1650,68.85556971
4.1700,68.87007214
4.1750,68.88410901
4.1800,68.89760363
4.1850,68.91024426
4.1900,68.92216293
4.1950,68.93348601
4.2000,68.94410754
4.2050,68.95390547
4.2100,68.96310924
4.2150,68.97159128
4.2200,68.97962462
4.2250,68.98728322
4.2300,68.99459238
4.2350,69.00136792
4.2400,69.00753816
4.2450,69.01316746
4.2500,69.01810345
4.2550,69.02224533
4.2600,69.02597665
4.2650,69.02911977
4.2700,69.03163885
4.2750,69.03343791
4.2800,69.03472155
4.2850,69.035448
4.2900,69.03561238
4.2950,69.03512496
4.3000,69.03399586
4.3050,69.03208775
4.3100,69.02953184
4.3150,69.02576168
4.3200,69.02082639
4.3250,69.01452801
4.3300,69.00703948
4.3350,68.99853702
4.3400,68.98914571
4.3450,68.97894906
4.3500,68.96792456
4.3550,68.95624709
4.3600,68.94394898
4.3650,68.93088448
4.3700,68.91701731
4.3750,68.9023161
4.3800,68.88654669
4.3850,68.870039
4.3900,68.85245925
4.3950,68.83398777
4.4000,68.81469247
4.4050,68.79437422
4.4100,68.77306776
4.4150,68.75046355
4.4200,68.72694098
4.4250,68.7022928
4.4300,68.67623429
4.4350,68.64867684
4.4400,68.61956336
4.4450,68.58916874
4.4500,68.55729894
4.4550,68.52364291
4.4600,68.48814569
4.4650,68.45083424
4.4700,68.41184822
4.4750,68.37120357
4.4800,68.32873284
4.4850,68.28464122
4.4900,68.23894593
4.4950,68.19147573
4.5000,68.14248692
4.5050,68.09158868
4.5100,68.03877378
4.5150,67.98387894
4.5200,67.92674338
4.5250,67.86730024
4.5300,67.8055332
4.5350,67.74158688
4.5400,67.67587935
4.5450,67.60847066
4.5500,67.53932205
4.5550,67.46869992
4.5600,67.39640003
4.5650,67.32248851
4.5700,67.24694575
4.5750,67.16973467
4.5800,67.09065403
4.5850,67.00992944
4.5900,66.92734984
4.5950,66.84319592
4.6000,66.75738289
4.6050,66.66995541
4.6100,66.5809693
4.6150,66.49060042
4.6200,66.39895151
4.6250,66.3062453
4.6300,66.21232862
4.6350,66.11698906
4.6400,66.02010799
4.6450,65.9216059
4.6500,65.82132538
4.6550,65.71919112
4.6600,65.61533071
4.6650,65.50989666
4.6700,65.40286793
4.6750,65.29446843
4.6800,65.18500875
4.6850,65.07420714
4.6900,64.96238282
4.6950,64.84944419
4.7000,64.73543636
4.7050,64.62030451
4.7100,64.50424945
4.7150,64.38751822
4.7200,64.26992074
4.7250,64.15174993
4.7300,64.03327314
4.7350,63.91426273
4.7400,63.79506594
4.7450,63.67512627
4.7500,63.55441893
4.7550,63.4331226
4.7600,63.31082221
4.7650,63.18747059
4.7700,63.06322854
4.7750,62.93800286
4.7800,62.81199537
4.7850,62.68518925
4.7900,62.55714806
4.7950,62.42775037
4.8000,62.2964458
4.8050,62.16351161
4.8100,62.02875472
4.8150,61.8921931
4.8200,61.75366464
4.8250,61.61348011
4.8300,61.47189609
4.8350,61.32908353
4.8400,61.18491156
4.8450,61.03902847
4.8500,60.89187917
4.8550,60.74319459
4.8600,60.59285596
4.8650,60.44080854
4.8700,60.28722914
4.8750,60.13219336
4.8800,59.9761812
4.8850,59.81903245
4.8900,59.66121666
4.8950,59.50238702
4.9000,59.34228641
4.9050,59.18058562
4.9100,59.01729538
4.9150,58.85216606
4.9200,58.68501794
4.9250,58.51566977
4.9300,58.34380227
4.9350,58.16973864
4.9400,57.99326787
4.9450,57.81450133
4.9500,57.63337552
4.9550,57.44967979
4.9600,57.26343706
4.9650,57.07451856
4.9700,56.88294429
4.9750,56.68843519
4.9800,56.49074691
4.9850,56.29004108
4.9900,56.08624472
4.9950,55.87945639
5.0000,55.66966333
5.0050,55.45699719
5.0100,55.24134898
5.0150,55.02248536
5.0200,54.80042211
5.0250,54.57514385
5.0300,54.34668655
5.0350,54.11507173
5.0400,53.87993084
5.0450,53.64137653
5.0500,53.3995166
5.0550,53.15450288
5.0600,52.90683156
5.0650,52.65625099
5.0700,52.40258384
5.0750,52.14572558
5.0800,51.88544123
5.0850,51.62144028
5.0900,51.35414283
5.0950,51.08345856
5.1000,50.80981322
5.1050,50.53322353
5.1100,50.25366541
5.1150,49.97121905
5.1200,49.68588154
5.1250,49.39750516
5.1300,49.10580969
5.1350,48.81062365
5.1400,48.51205143
5.1450,48.21067603
5.1500,47.90631796
5.1550,47.59957731
5.1600,47.29036846
5.1650,46.9789134
5.1700,46.66519804
5.1750,46.34903115
5.1800,46.03016106
5.1850,45.70851902
5.1900,45.38370962
5.1950,45.0558606
5.2000,44.72497305
5.2050,44.39132813
5.2100,44.05491258
5.2150,43.71615721
5.2200,43.37481203
5.2250,43.03077825
5.2300,42.68415348
5.2350,42.33401777
5.2400,41.98046546
5.2450,41.62324115
5.2500,41.26243111
5.2550,40.89826281
5.2600,40.53026323
5.2650,40.1586536
5.2700,39.78348366
5.2750,39.40502906
5.2800,39.02380834
5.2850,38.63966669
5.2900,38.25327395
5.2950,37.86451815
5.3000,37.47389134
5.3050,37.08138882
5.3100,36.68735481
5.3150,36.29217902
5.3200,35.89578349
5.3250,35.49847646
5.3300,35.10021787
5.3350,34.70094978
5.3400,34.30063431
5.3450,33.89947492
5.3500,33.49763106
5.3550,33.09509305
5.3600,32.69142959
5.3650,32.28677466
5.3700,31.88096031
5.3750,31.47356995
5.3800,31.06494208
5.3850,30.6545786
5.3900,30.24250289
5.3950,29.8290204
5.4000,29.41416086
5.4050,28.99798936
5.4100,28.58053113
5.4150,28.16206939
5.4200,27.74252574
5.4250,27.32238217
5.4300,26.90158005
5.4350,26.48038019
5.4400,26.0589054
5.4450,25.63719394
5.4500,25.21508504
5.4550,24.79241006
5.4600,24.36954634
5.4650,23.94649772
5.4700,23.52325962
5.4750,23.09977679
5.4800,22.6760656
5.4850,22.25200799
5.4900,21.82773996
5.4950,21.40325001
5.5000,20.97850783
5.5050,20.55373448
5.5100,20.12853877
5.5150,19.70322687
5.5200,19.27818732
5.5250,18.85370512
5.5300,18.43016681
5.5350,18.00821807
5.5400,17.58758475
5.5450,17.16881659
5.5500,16.75188599
5.5550,16.33669089
5.5600,15.92406978
5.5650,15.51412562
5.5700,15.10677687
5.5750,14.70213752
5.5800,14.29996244
5.5850,13.90056806
5.5900,13.50379816
5.5950,13.10965446
5.6000,12.71814449
5.6050,12.32923033
5.6100,11.94298906
5.6150,11.55921407
5.6200,11.1782539
5.6250,10.80025424
5.6300,10.42475562
5.6350,10.05187057
5.6400,9.681560112
5.6450,9.313755678
5.6500,8.948052527
5.6550,8.584482812
5.6600,8.223640542
5.6650,7.865162777
5.6700,7.509462034
5.6750,7.15630088
5.6800,6.805222033
5.6850,6.456590989
5.6900,6.110123496
5.6950,5.76588225
5.7000,5.423924663
5.7050,5.084549843
5.7100,4.748098707
5.7150,4.414845789
5.7200,4.084628956
5.7250,3.757053128
5.7300,3.431913088
5.7350,3.109234037
5.7400,2.78864511
5.7450,2.470407774
5.7500,2.154729185
5.7550,1.841659227
5.7600,1.531295324
5.7650,1.223641221
5.7700,0.9186815759
5.7750,0.6165107136
5.7800,0.316530506
5.7850,0.01862560501
5.7900,-0.2772963827
5.7950,-0.5712988025
5.8000,-0.8629749506
5.8050,-1.152344197
5.8100,-1.43910758
5.8150,-1.723729843
5.8200,-2.005963529
5.8250,-2.286124207
5.8300,-2.564339119
5.8350,-2.840537798
5.8400,-3.114593627
5.8450,-3.386365587
5.8500,-3.656158538
5.8550,-3.923968127
5.8600,-4.190289951
5.8650,-4.454845127
5.8700,-4.717686898
5.8750,-4.978768761
5.8800,-5.238127183
5.8850,-5.495702966
5.8900,-5.751561417
5.8950,-6.005444373
5.9000,-6.257537965
5.9050,-6.507656067
5.9100,-6.756164062
5.9150,-7.002705367
5.9200,-7.247490001
5.9250,-7.49063569
5.9300,-7.731705162
5.9350,-7.971080807
5.9400,-8.208606759
5.9450,-8.443964784
5.9500,-8.67696072
5.9550,-8.907711821
5.9600,-9.136223802
5.9650,-9.362190523
5.9700,-9.585494181
5.9750,-9.805476006
5.9800,-10.02171335
5.9850,-10.23439923
5.9900,-10.44314226
5.9950,-10.64801473
6.0000,-10.84880645
6.0050,-11.04557951
6.0100,-11.23830276
6.0150,-11.42732812
6.0200,-11.61198934
6.0250,-11.79173445
6.0300,-11.96602274
6.0350,-12.13495174
6.0400,-12.2983324
6.0450,-12.45648402
6.0500,-12.60916036
6.0550,-12.75663355
6.0600,-12.89940128
6.0650,-13.03813466
6.0700,-13.17260663
6.0750,-13.30330556
6.0800,-13.42993032
6.0850,-13.55293083
6.0900,-13.67245127
6.0950,-13.78887175
6.1000,-13.90276901
6.1050,-14.01430578
6.1100,-14.12399499
6.1150,-14.23195379
6.1200,-14.33849071
6.1250,-14.44387357
6.1300,-14.54831516
6.1350,-14.65217143
6.1400,-14.75583169
6.1450,-14.85936277
6.1500,-14.96276316
6.1550,-15.06581847
6.1600,-15.16829609
6.1650,-15.27057751
6.1700,-15.37283282
6.1750,-15.47530302
6.1800,-15.5782457
6.1850,-15.68175512
6.1900,-15.78583593
6.1950,-15.89093615
6.2000,-15.99696658
6.2050,-16.10435253
6.2100,-16.21279175
6.2150,-16.32260731
6.2200,-16.43362688
6.2250,-16.5458415
6.2300,-16.65935286
6.2350,-16.77373155
6.2400,-16.88857026
6.2450,-17.00411093
6.2500,-17.11993457
6.2550,-17.23583575
6.2600,-17.3513224
6.2650,-17.46629967
6.2700,-17.58098228
6.2750,-17.69520928
6.2800,-17.80898764
6.2850,-17.92211472
6.2900,-18.03462034
6.2950,-18.14605316
6.3000,-18.25620541
6.3050,-18.36510126
6.3100,-18.47209529
6.3150,-18.5766743
6.3200,-18.6786459
6.3250,-18.77788019
6.3300,-18.87418356
6.3350,-18.96744029
6.3400,-19.05758001
6.3450,-19.14455143
6.3500,-19.22842086
6.3550,-19.30889179
6.3600,-19.38574329
6.3650,-19.45882617
6.3700,-19.52828927
6.3750,-19.59413074
6.3800,-19.65679154
6.3850,-19.71634958
6.3900,-19.77308435
6.3950,-19.82723709
6.4000,-19.87927071
6.4050,-19.92978601
6.4100,-19.97910664
6.4150,-20.02728682
6.4200,-20.07507082
6.4250,-20.12248126
6.4300,-20.16988871
6.4350,-20.21733011
6.4400,-20.26492817
6.4450,-20.31297553
6.4500,-20.36134156
6.4550,-20.41053808
6.4600,-20.46069722
6.4650,-20.51165513
6.4700,-20.56333872
6.4750,-20.61585716
6.4800,-20.66886644
6.4850,-20.7224673
6.4900,-20.77665085
6.4950,-20.83082418
6.5000,-20.8849302
6.5050,-20.93857678
6.5100,-20.99187465
6.5150,-21.04460005
6.5200,-21.09678398
6.5250,-21.14837393
6.5300,-21.1993664
6.5350,-21.24978432
6.5400,-21.29974528
6.5450,-21.34910605
6.5500,-21.39808784
6.5550,-21.44673554
6.5600,-21.49513751
6.5650,-21.54329989
6.5700,-21.59093005
6.5750,-21.63799027
6.5800,-21.68446637
6.5850,-21.73020314
6.5900,-21.77507168
6.5950,-21.81926448
6.6000,-21.86286218
6.6050,-21.90592777
6.6100,-21.94890659
6.6150,-21.99189119
6.6200,-22.03495342
6.6250,-22.07826286
6.6300,-22.12169613
6.6350,-22.16524132
6.6400,-22.20888064
6.6450,-22.25245349
6.6500,-22.29617355
6.6550,-22.34008528
6.6600,-22.38419285
6.6650,-22.42837615
6.6700,-22.47272748
6.6750,-22.51720891
6.6800,-22.56171125
6.6850,-22.60646729
6.6900,-22.65145097
6.6950,-22.69656473
6.7000,-22.74174782
6.7050,-22.78693993
6.7100,-22.83202722
6.7150,-22.8773144
6.7200,-22.92261376
6.7250,-22.96795957
6.7300,-23.01352305
6.7350,-23.05924921
6.7400,-23.10521605
6.7450,-23.15151903
6.7500,-23.19813485
6.7550,-23.24497601
6.7600,-23.29192236
6.7650,-23.33889358
6.7700,-23.38584248
6.7750,-23.43255155
6.7800,-23.47923966
6.7850,-23.52567172
6.7900,-23.57185194
6.7950,-23.61788746
6.8000,-23.66360057
6.8050,-23.70912691
6.8100,-23.75413671
6.8150,-23.79880346
6.8200,-23.84291709
6.8250,-23.88633484
6.8300,-23.92905664
6.8350,-23.97088073
6.8400,-24.01194469
6.8450,-24.05220436
6.8500,-24.0913807
6.8550,-24.12926517
6.8600,-24.16591988
6.8650,-24.2011404
6.8700,-24.23499988
6.8750,-24.26725925
6.8800,-24.29811927
6.8850,-24.32748952
6.8900,-24.35540852
6.8950,-24.38180639
6.9000,-24.40679781
6.9050,-24.4302387
6.9100,-24.45209738
6.9150,-24.47255912
6.9200,-24.49151289
6.9250,-24.50881947
6.9300,-24.52453228
6.9350,-24.53861651
6.9400,-24.55100719
6.9450,-24.56166793
6.9500,-24.5704911
6.9550,-24.5775144
6.9600,-24.58274199
6.9650,-24.58607314
6.9700,-24.58751239
6.9750,-24.58715158
6.9800,-24.58500487
6.9850,-24.58089045
6.9900,-24.57484193
6.9950,-24.56706238
7.0000,-24.55739955
7.0050,-24.54594025
7.0100,-24.53286044
7.0150,-24.51821118
7.0200,-24.50222592
7.0250,-24.48488343
7.0300,-24.46620496
7.0350,-24.44611611
7.0400,-24.42444584
7.0450,-24.40094042
7.0500,-24.37559748
7.0550,-24.34811242
7.0600,-24.3184891
7.0650,-24.2868319
7.0700,-24.25294377
7.0750,-24.21673844
7.0800,-24.1782714
7.0850,-24.1377158
7.0900,-24.09501584
7.0950,-24.05052114
7.1000,-24.0046883
7.1050,-23.95752889
7.1100,-23.9092828
7.1150,-23.8599492
7.1200,-23.80990289
7.1250,-23.75928447
7.1300,-23.70829581
7.1350,-23.65727566
7.1400,-23.60658687
7.1450,-23.55658989
7.1500,-23.50777343
7.1550,-23.46077955
7.1600,-23.41576404
7.1650,-23.37309528
7.1700,-23.33269981
7.1750,-23.29484683
7.1800,-23.25942355
7.1850,-23.22672899
7.1900,-23.19683696
7.1950,-23.16961588
7.2000,-23.14502189
7.2050,-23.12292747
7.2100,-23.10352054
7.2150,-23.08660619
7.2200,-23.07214455
7.2250,-23.06033254
7.2300,-23.05128645
7.2350,-23.04488119
7.2400,-23.04103522
7.2450,-23.03968493
7.2500,-23.04076537
7.2550,-23.04415848
7.2600,-23.04970453
7.2650,-23.05739274
7.2700,-23.06691263
7.2750,-23.0782016
7.2800,-23.09128141
7.2850,-23.10612027
7.2900,-23.12279399
7.2950,-23.14103376
7.3000,-23.16085349
7.3050,-23.18205273
7.3100,-23.20434916
7.3150,-23.22730501
7.3200,-23.25052503
7.3250,-23.27405258
7.3300,-23.29741036
7.3350,-23.32059907
7.3400,-23.34348256
7.3450,-23.36616545
7.3500,-23.38855543
7.3550,-23.41078047
7.3600,-23.43267398
7.3650,-23.45426871
7.3700,-23.47531696
7.3750,-23.49582786
7.3800,-23.51547899
7.3850,-23.53396107
7.3900,-23.55136405
7.3950,-23.56736008
7.4000,-23.58163477
7.4050,-23.59432096
7.4100,-23.6055046
7.4150,-23.61511263
7.4200,-23.62333058
7.4250,-23.63034418
7.4300,-23.6359941
7.4350,-23.64055081
7.4400,-23.64383507
7.4450,-23.64584781
7.4500,-23.64663098
7.4550,-23.64586017
7.4600,-23.64362472
7.4650,-23.63986882
7.4700,-23.6347014
7.4750,-23.62833631
7.4800,-23.62061705
7.4850,-23.61145347
7.4900,-23.60106681
7.4950,-23.58962903
7.5000,-23.57728429
7.5050,-23.56409669
7.5100,-23.54987879
7.5150,-23.5349536
7.5200,-23.5194077
7.5250,-23.50311972
7.5300,-23.48611527
7.5350,-23.4684502
7.5400,-23.45020334
7.5450,-23.43101324
7.5500,-23.41098641
7.5550,-23.39008288
7.5600,-23.36823316
7.5650,-23.34545454
7.5700,-23.32170632
7.5750,-23.29686001
7.5800,-23.27065115
7.5850,-23.24323467
7.5900,-23.21433149
7.5950,-23.18394184
7.6000,-23.15198249
7.6050,-23.11826144
7.6100,-23.08294898
7.6150,-23.04619002
7.6200,-23.00800177
7.6250,-22.96830295
7.6300,-22.92737671
7.6350,-22.88531007
7.6400,-22.84191033
7.6450,-22.79714561
7.6500,-22.75115253
7.6550,-22.70376537
7.6600,-22.65515387
7.6650,-22.60503379
7.6700,-22.5537883
7.6750,-22.50156501
7.6800,-22.44854645
7.6850,-22.39509184
7.6900,-22.34097888
7.6950,-22.2862797
7.7000,-22.23099146
7.7050,-22.17472203
7.7100,-22.11748217
7.7150,-22.05953579
7.7200,-22.00077249
7.7250,-21.94129685
7.7300,-21.88129837
7.7350,-21.8207217
7.7400,-21.75981792
7.7450,-21.69848134
7.7500,-21.63685887
7.7550,-21.57493634
7.7600,-21.51251121
7.7650,-21.44963806
7.7700,-21.38645399
7.7750,-21.3230223
7.7800,-21.2596296
7.7850,-21.19630721
7.7900,-21.13301449
7.7950,-21.07001196
7.8000,-21.00727635
7.8050,-20.94513661
7.8100,-20.88358481
7.8150,-20.8222852
7.8200,-20.76115167
7.8250,-20.70028513
7.8300,-20.63953162
7.8350,-20.57903322
7.8400,-20.51864097
7.8450,-20.45854321
7.8500,-20.39850021
7.8550,-20.33829731
7.8600,-20.27803216
7.8650,-20.21754219
7.8700,-20.1569447
7.8750,-20.09619531
7.8800,-20.03531737
7.8850,-19.9740469
7.8900,-19.91232996
7.8950,-19.84998301
7.9000,-19.78668197
7.9050,-19.72271937
7.9100,-19.65767462
7.9150,-19.59155548
7.9200,-19.52436599
7.9250,-19.4561233
7.9300,-19.38632085
7.9350,-19.31486035
7.9400,-19.24172233
7.9450,-19.16668051
7.9500,-19.08951
7.9550,-19.01024866
7.9600,-18.92849607
7.9650,-18.84443322
7.9700,-18.75775604
7.9750,-18.66829616
7.9800,-18.57595626
7.9850,-18.48060688
7.9900,-18.38243697
7.9950,-18.28104997
8.0000,-18.17674228
8.0050,-18.06954857
8.0100,-17.95955971
8.0150,-17.84681482
8.0200,-17.73117986
8.0250,-17.61258251
8.0300,-17.49092656
8.0350,-17.36595765
8.0400,-17.2375699
8.0450,-17.10568181
8.0500,-16.97023831
8.0550,-16.83141601
8.0600,-16.68954272
8.0650,-16.54450176
8.0700,-16.39634843
8.0750,-16.24501754
8.0800,-16.09005933
8.0850,-15.93150372
8.0900,-15.76914391
8.0950,-15.6030562
8.1000,-15.43329096
8.1050,-15.25962649
8.1100,-15.08202032
8.1150,-14.90084687
8.1200,-14.71638906
8.1250,-14.52858468
8.1300,-14.33745509
8.1350,-14.14276018
8.1400,-13.94447514
8.1450,-13.74291714
8.1500,-13.53795064
8.1550,-13.32965379
8.1600,-13.11791878
8.1650,-12.90299015
8.1700,-12.68420414
8.1750,-12.46174313
8.1800,-12.23555141
8.1850,-12.00537878
8.1900,-11.77141266
8.1950,-11.53371744
8.2000,-11.29246447
8.2050,-11.04735587
8.2100,-10.79819525
8.2150,-10.54449736
8.2200,-10.28600897
8.2250,-10.02233562
8.2300,-9.753735934
8.2350,-9.479943688
8.2400,-9.200799142
8.2450,-8.916316502
8.2500,-8.626638162
8.2550,-8.331478452
8.2600,-8.030898552
8.2650,-7.72449184
8.2700,-7.412284147
8.2750,-7.094037378
8.2800,-6.769406283
8.2850,-6.438075006
8.2900,-6.099802182
8.2950,-5.755005634
8.3000,-5.403618358
8.3050,-5.045940233
8.3100,-4.682033502
8.3150,-4.311542394
8.3200,-3.934869702
8.3250,-3.552123162
8.3300,-3.163520767
8.3350,-2.769478996
8.3400,-2.369941764
8.3450,-1.965324908
8.3500,-1.555668924
8.3550,-1.141059428
8.3600,-0.7214775278
8.3650,-0.297388964
8.3700,0.1312809405
8.3750,0.5644840275
8.3800,1.001450835
8.3850,1.442417904
8.3900,1.886895601
8.3950,2.335032835
8.4000,2.786759721
8.4050,3.241924333
8.4100,3.700782156
8.4150,4.163207332
8.4200,4.629119195
8.4250,5.098875246
8.4300,5.572406203
8.4350,6.049836095
8.4400,6.531152472
8.4450,7.016721446
8.4500,7.506501969
8.4550,8.000503012
8.4600,8.498852423
8.4650,9.001858753
8.4700,9.50927644
8.4750,10.02118593
8.4800,10.53743274
8.4850,11.05807645
8.4900,11.58314906
8.4950,12.11251002
8.5000,12.64607096
8.5050,13.18397947
8.5100,13.72591855
8.5150,14.27158494
8.5200,14.82099258
8.5250,15.37395076
8.5300,15.93021878
8.5350,16.48955981
8.5400,17.05107568
8.5450,17.61488852
8.5500,18.18064016
8.5550,18.74778891
8.5600,19.31618855
8.5650,19.885394
8.5700,20.45501357
8.5750,21.02445239
8.5800,21.59334646
8.5850,22.16148632
8.5900,22.72847183
8.5950,23.29362
8.6000,23.85679558
8.6050,24.41787037
8.6100,24.97660649
8.6150,25.53298979
8.6200,26.08617464
8.6250,26.63621851
8.6300,27.18290115
8.6350,27.72581377
8.6400,28.26505225
8.6450,28.80057838
8.6500,29.33174838
8.6550,29.85815332
8.6600,30.37978252
8.6650,30.89674236
8.6700,31.40891991
8.6750,31.91592338
8.6800,32.41787082
8.6850,32.91429182
8.6900,33.40569798
8.6950,33.89190533
8.7000,34.3727193
8.7050,34.84806075
8.7100,35.31771011
8.7150,35.7819683
8.7200,36.24092016
8.7250,36.69464096
8.7300,37.14255771
8.7350,37.58468507
8.7400,38.02118428
8.7450,38.45232936
8.7500,38.87828795
8.7550,39.29910842
8.7600,39.71428655
8.7650,40.12442559
8.7700,40.52917662
8.7750,40.92871031
8.7800,41.32263423
8.7850,41.71037615
8.7900,42.09193173
8.7950,42.46732304
8.8000,42.83660608
8.8050,43.19979697
8.8100,43.5574007
8.8150,43.9095703
8.8200,44.2561564
8.8250,44.59704749
8.8300,44.93274984
8.8350,45.26271958
8.8400,45.587384
8.8450,45.90667953
8.8500,46.22114371
8.8550,46.53120043
8.8600,46.83686531
8.8650,47.13821725
8.8700,47.43505868
8.8750,47.72770799
8.8800,48.01647589
8.8850,48.30147412
8.8900,48.58303751
8.8950,48.86143722
8.9000,49.13734839
8.9050,49.41104181
8.9100,49.68276078
8.9150,49.95190948
8.9200,50.21901071
8.9250,50.48418197
8.9300,50.74776164
8.9350,51.00991497
8.9400,51.27027153
8.9450,51.52822882
8.9500,51.78382109
8.9550,52.03721353
8.9600,52.28848689
8.9650,52.53775089
8.9700,52.78451376
8.9750,53.02912603
8.9800,53.27160519
8.9850,53.51208732
8.9900,53.75029888
8.9950,53.98625183
9.0000,54.2202332
9.0050,54.45250998
9.0100,54.68299128
9.0150,54.91118943
9.0200,55.13685343
9.0250,55.35978817
9.0300,55.5802711
9.0350,55.7984071
9.0400,56.01371713
9.0450,56.22539679
9.0500,56.43336372
9.0550,56.63773106
9.0600,56.83862734
9.0650,57.03572538
9.0700,57.22922338
9.0750,57.41943034
9.0800,57.60653316
9.0850,57.79069389
9.0900,57.97134572
9.0950,58.14865992
9.1000,58.3226491
9.1050,58.49358839
9.1100,58.66105442
9.1150,58.8253716
9.1200,58.98732551
9.1250,59.14731108
9.1300,59.3056924
9.1350,59.46305932
9.1400,59.61929656
9.1450,59.77460654
9.1500,59.9289914
9.1550,60.08234508
9.1600,60.23473951
9.1650,60.38599768
9.1700,60.53606571
9.1750,60.68461777
9.1800,60.83137313
9.1850,60.97619537
9.1900,61.11900536
9.1950,61.26032565
9.2000,61.40014214
9.2050,61.53815934
9.2100,61.67438269
9.2150,61.80899675
9.2200,61.94210886
9.2250,62.07369286
9.2300,62.20362894
9.2350,62.33241986
9.2400,62.46019979
9.2450,62.58745088
9.2500,62.71455626
9.2550,62.84219232
9.2600,62.97034621
9.2650,63.09838886
9.2700,63.22618242
9.2750,63.3537602
9.2800,63.48113334
9.2850,63.60785577
9.2900,63.73407185
9.2950,63.8596382
9.3000,63.98413533
9.3050,64.10696978
9.3100,64.22807552
9.3150,64.34742093
9.3200,64.46502535
9.3250,64.58076708
9.3300,64.69470384
9.3350,64.8068655
9.3400,64.91718591
9.3450,65.02567912
9.3500,65.13228536
9.3550,65.23716419
9.3600,65.34033354
9.3650,65.4418726
9.3700,65.54170358
9.3750,65.63963112
9.3800,65.73608211
9.3850,65.83131744
9.3900,65.92550438
9.3950,66.01871378
9.4000,66.11090522
9.4050,66.20210027
9.4100,66.29244768
9.4150,66.38188173
9.4200,66.470154
9.4250,66.55719584
9.4300,66.64285271
9.4350,66.72711062
9.4400,66.810193
9.4450,66.8920519
9.4500,66.97243564
9.4550,67.05164046
9.4600,67.12984251
9.4650,67.2071205
9.4700,67.28351375
9.4750,67.35936236
9.4800,67.43509644
9.4850,67.51068761
9.4900,67.58604914
9.4950,67.66080773
9.5000,67.73514831
9.5050,67.80919146
9.5100,67.88285282
9.5150,67.95606149
9.5200,68.02872835
9.5250,68.10117777
9.5300,68.17344974
9.5350,68.24535962
9.5400,68.31684337
9.5450,68.38764804
9.5500,68.45758853
9.5550,68.52665604
9.5600,68.594396
9.5650,68.66122191
9.5700,68.72735823
9.5750,68.79293176
9.5800,68.8582333
9.5850,68.92340269
9.5900,68.98810707
9.5950,69.05241333
9.6000,69.11657672
9.6050,69.18047935
9.6100,69.24413215
9.6150,69.30754871
9.6200,69.37057923
9.6250,69.43333873
9.6300,69.49548278
9.6350,69.55693215
9.6400,69.61796864
9.6450,69.67882671
9.6500,69.73962728
9.6550,69.80022528
9.6600,69.86051268
9.6650,69.92021789
9.6700,69.97945106
9.6750,70.03815772
9.6800,70.09595448
9.6850,70.15240309
9.6900,70.20776343
9.6950,70.26214966
9.7000,70.31564593
9.7050,70.36829467
9.7100,70.42020593
9.7150,70.47120481
9.7200,70.52133393
9.7250,70.57043066
9.7300,70.61860881
9.7350,70.66582348
9.7400,70.71184296
9.7450,70.75678696
9.7500,70.8006363
9.7550,70.84317671
9.7600,70.88410083
9.7650,70.92345526
9.7700,70.96183478
9.7750,70.99911476
9.7800,71.03537624
9.7850,71.07064934
9.7900,71.10513488
9.7950,71.13881814
9.8000,71.17150899
9.8050,71.20305028
9.8100,71.23359558
9.8150,71.26352455
9.8200,71.29281819
9.8250,71.32139819
9.8300,71.34925596
9.8350,71.37617731
9.8400,71.40207106
9.8450,71.42715535
9.8500,71.45162697
9.8550,71.47515982
9.8600,71.49777123
9.8650,71.51948823
9.8700,71.54016145
9.8750,71.55952395
9.8800,71.57721388
9.8850,71.59345931
9.8900,71.60824446
9.8950,71.62117371
9.9000,71.6321324
9.9050,71.64114582
9.9100,71.64812529
9.9150,71.65307254
9.9200,71.65616326
9.9250,71.65740527
9.9300,71.65679421
9.9350,71.65424302
9.9400,71.64971402
9.9450,71.64326081
9.9500,71.63451724
9.9550,71.62371852
9.9600,71.61114054
9.9650,71.596883
9.9700,71.58074556
9.9750,71.56259364
9.9800,71.54280859
9.9850,71.52156436
9.9900,71.49854904
9.9950,71.47371254
10.0000,71.44714061
10.0050,71.41853924
10.0100,71.38807924
10.0150,71.35580503
10.0200,71.32199845
10.0250,71.28668941
10.0300,71.24972811
10.0350,71.21150864
10.0400,71.17219883
10.0450,71.13185672
10.0500,71.09083807
10.0550,71.0491843
10.0600,71.00698969
10.0650,70.96451253
10.0700,70.92156003
10.0750,70.87827705
10.0800,70.83471028
10.0850,70.79110007
10.0900,70.74767243
10.0950,70.70468203
10.1000,70.66215947
10.1050,70.62039208
10.1100,70.57955452
10.1150,70.53945633
10.1200,70.50037404
10.1250,70.46231453
10.1300,70.42529585
10.1350,70.38950165
10.1400,70.35502863
10.1450,70.32172512
10.1500,70.28958583
10.1550,70.2588846
10.1600,70.22968872
10.1650,70.20204557
10.1700,70.17604603
10.1750,70.15170689
10.1800,70.12919426
10.1850,70.10822968
10.1900,70.089107
10.1950,70.07171842
10.2000,70.0559847
10.2050,70.04198364
10.2100,70.02959393
10.2150,70.01855011
10.2200,70.00866596
10.2250,69.99962857
10.2300,69.99152046
10.2350,69.9842939
10.2400,69.97792375
10.2450,69.97241362
10.2500,69.96805434
10.2550,69.96433455
10.2600,69.9612214
10.2650,69.95848961
10.2700,69.95610375
10.2750,69.95410169
10.2800,69.95236135
10.2850,69.95076135
10.2900,69.94932748
10.2950,69.94806437
10.3000,69.946871
10.3050,69.94599852
10.3100,69.9451552
10.3150,69.94436729
10.3200,69.94348421
10.3250,69.9426358
10.3300,69.94215813
10.3350,69.94178895
10.3400,69.94154228
10.3450,69.94147921
10.3500,69.94118226
10.3550,69.94085085
10.3600,69.94039511
10.3650,69.93988397
10.3700,69.93926106
10.3750,69.93868406
10.3800,69.93804922
10.3850,69.9371414
10.3900,69.93595207
10.3950,69.93449152
10.4000,69.9328757
10.4050,69.93104412
10.4100,69.92883362
10.4150,69.92636661
10.4200,69.92350973
10.4250,69.92035815
10.4300,69.91692016
10.4350,69.91324248
10.4400,69.90952396
10.4450,69.90583849
10.4500,69.90209273
10.4550,69.8979605
10.4600,69.89330864
10.4650,69.88805919
10.4700,69.88214285
10.4750,69.87575576
10.4800,69.86901866
10.4850,69.86178282
10.4900,69.85415026
10.4950,69.84644095
10.5000,69.83861289
10.5050,69.83064172
10.5100,69.82248429
10.5150,69.81407783
10.5200,69.80536425
10.5250,69.79657604
10.5300,69.78755607
10.5350,69.77809659
10.5400,69.76804751
10.5450,69.75734641
10.5500,69.74583128
10.5550,69.73382535
10.5600,69.72105601
10.5650,69.70764265
10.5700,69.69370095
10.5750,69.6792424
10.5800,69.66412798
10.5850,69.64856964
10.5900,69.63264787
10.5950,69.61615422
10.6000,69.59901035
10.6050,69.58111041
10.6100,69.56257387
10.6150,69.54343844
10.6200,69.52385139
10.6250,69.50390357
10.6300,69.48303121
10.6350,69.46148799
10.6400,69.43931023
10.6450,69.41660889
10.6500,69.39357026
10.6550,69.36991667
10.6600,69.34585428
10.6650,69.32108858
10.6700,69.29575912
10.6750,69.26981338
10.6800,69.24290494
10.6850,69.21528613
10.6900,69.18656862
10.6950,69.1570688
10.7000,69.12660302
10.7050,69.09513096
10.7100,69.06260048
10.7150,69.02899433
10.7200,68.99424381
10.7250,68.95814254
10.7300,68.92058229
10.7350,68.88123183
10.7400,68.83995354
10.7450,68.79657804
10.7500,68.75118668
10.7550,68.70399092
10.7600,68.65533669
10.7650,68.60513868
10.7700,68.55327863
10.7750,68.49979127
10.7800,68.44437299
10.7850,68.38698767
10.7900,68.32719665
10.7950,68.26501442
10.8000,68.20067068
10.8050,68.13432825
10.8100,68.06625006
10.8150,67.99674479
10.8200,67.92601446
10.8250,67.85395373
10.8300,67.78076386
10.8350,67.70667992
10.8400,67.63151807
10.8450,67.55532291
10.8500,67.47812144
10.8550,67.39975114
10.8600,67.32027091
10.8650,67.23946586
10.8700,67.1573865
10.8750,67.0741275
10.8800,66.9897004
10.8850,66.90402689
10.8900,66.81687752
10.8950,66.72824242
10.9000,66.63827909
10.9050,66.54706864
10.9100,66.45462703
10.9150,66.3609678
10.9200,66.2663678
10.9250,66.17075365
10.9300,66.0747455
10.9350,65.97786832
10.9400,65.88007521
10.9450,65.78124276
10.9500,65.68145558
10.9550,65.58073958
10.9600,65.47920425
10.9650,65.37690302
10.9700,65.27351015
10.9750,65.16906459
10.9800,65.06353498
10.9850,64.95685316
10.9900,64.84925125
10.9950,64.74030622
11.0000,64.62998055
11.0050,64.51839389
11.0100,64.40543182
11.0150,64.29092448
11.0200,64.1752017
11.0250,64.05824849
11.0300,63.94017558
11.0350,63.82109055
11.0400,63.70092027
11.0450,63.57980335
11.0500,63.45760972
11.0550,63.33466138
11.0600,63.21063754
11.0650,63.08559643
11.0700,62.95974924
11.0750,62.83287896
11.0800,62.70526241
11.0850,62.57682033
11.0900,62.44827809
11.0950,62.31971741
11.1000,62.19102116
11.1050,62.06210695
11.1100,61.93276413
11.1150,61.80305073
11.1200,61.67257868
11.1250,61.54142375
11.1300,61.40947865
11.1350,61.27660871
11.1400,61.14304023
11.1450,61.00857618
11.1500,60.87306579
11.1550,60.73642452
11.1600,60.59841438
11.1650,60.45926664
11.1700,60.31860714
11.1750,60.17645702
11.1800,60.03279268
11.1850,59.88724246
11.1900,59.73992583
11.1950,59.59097734
11.2000,59.44037316
11.2050,59.28795389
11.2100,59.13377089
11.2150,58.9776238
11.2200,58.81921111
11.2250,58.65867067
11.2300,58.49544047
11.2350,58.33004121
11.2400,58.16268617
11.2450,57.99305585
11.2500,57.82094878
11.2550,57.64637085
11.2600,57.46905554
11.2650,57.28876032
11.2700,57.10547665
11.2750,56.91885878
11.2800,56.72894614
11.2850,56.53548056
11.2900,56.33826147
11.2950,56.13704952
11.3000,55.93159209
11.3050,55.72175991
11.3100,55.50773043
11.3150,55.28971058
11.3200,55.06727704
11.3250,54.84032048
11.3300,54.60892375
11.3350,54.37307056
11.3400,54.1328496
11.3450,53.88848669
11.3500,53.63957067
11.3550,53.38581131
11.3600,53.12745055
11.3650,52.86472411
11.3700,52.59760209
11.3750,52.3261517
11.3800,52.05022211
11.3850,51.77019093
11.3900,51.4856428
11.3950,51.19640472
11.4000,50.9024078
11.4050,50.60340279
11.4100,50.29955772
11.4150,49.99065932
11.4200,49.67703465
11.4250,49.35868501
11.4300,49.03538094
11.4350,48.7071897
11.4400,48.37390867
11.4450,48.03570174
11.4500,47.69245436
11.4550,47.34440643
11.4600,46.99160245
11.4650,46.6340781
11.4700,46.27213539
11.4750,45.90563623
11.4800,45.53445392
11.4850,45.15887384
11.4900,44.77913205
11.4950,44.39488531
11.5000,44.00604714
11.5050,43.61295208
11.5100,43.2152299
11.5150,42.81302241
11.5200,42.40632075
11.5250,41.99478745
11.5300,41.57908274
11.5350,41.15840874
11.5400,40.73283735
11.5450,40.30245106
11.5500,39.8673861
11.5550,39.42791084
11.5600,38.98407979
11.5650,38.53601666
11.5700,38.08302324
11.5750,37.62499729
11.5800,37.16172823
11.5850,36.69345874
11.5900,36.22022407
11.5950,35.74274139
11.6000,35.26128878
11.6050,34.77570609
11.6100,34.28602344
11.6150,33.79207563
11.6200,33.29418501
11.6250,32.79254378
11.6300,32.28769455
11.6350,31.77991981
11.6400,31.269183
11.6450,30.75555926
11.6500,30.23923446
11.6550,29.72008901
11.6600,29.19792746
11.6650,28.67250436
11.6700,28.14452597
11.6750,27.61375287
11.6800,27.08054207
11.6850,26.5447204
11.6900,26.00676546
11.6950,25.46690034
11.7000,24.92527416
11.7050,24.38215573
11.7100,23.837978
11.7150,23.2928108
11.7200,22.74716873
11.7250,22.20130923
11.7300,21.65559243
11.7350,21.11027071
11.7400,20.56565035
11.7450,20.02180036
11.7500,19.47920841
11.7550,18.93823126
11.7600,18.39915968
11.7650,17.86232055
11.7700,17.32745401
11.7750,16.79504171
11.7800,16.26513829
11.7850,15.73803489
11.7900,15.21314499
11.7950,14.69111377
11.8000,14.17192561
11.8050,13.65559608
11.8100,13.1423614
11.8150,12.63208686
11.8200,12.12474831
11.8250,11.62062049
11.8300,11.11953397
11.8350,10.62181086
11.8400,10.12773208
11.8450,9.637463289
11.8500,9.151378629
11.8550,8.669687102
11.8600,8.192173478
11.8650,7.719104124
11.8700,7.250805688
11.8750,6.787685393
11.8800,6.329646195
11.8850,5.876400676
11.8900,5.428265614
11.8950,4.985149453
11.9000,4.547175482
11.9050,4.114466302
11.9100,3.68698325
11.9150,3.264636639
11.9200,2.847363088
11.9250,2.435116101
11.9300,2.027707359
11.9350,1.625216122
11.9400,1.227377591
11.9450,0.8339312455
11.9500,0.4446221155
11.9550,0.05942953873
11.9600,-0.3222451369
11.9650,-0.7009254989
11.9700,-1.076996342
11.9750,-1.449951563
11.9800,-1.819958283
11.9850,-2.187074304
11.9900,-2.551480086
11.9950,-2.913064345
12.0000,-3.272156473
12.0050,-3.628313522
12.0100,-3.98186054
12.0150,-4.332827538
12.0200,-4.680914508
12.0250,-5.026246764
12.0300,-5.369044483
12.0350,-5.709397196
12.0400,-6.047582314
12.0450,-6.383654488
12.0500,-6.717750612
12.0550,-7.049710834
12.0600,-7.3795832
12.0650,-7.706894975
12.0700,-8.031344945
12.0750,-8.352795408
12.0800,-8.671354799
12.0850,-8.986732556
12.0900,-9.298912711
12.0950,-9.60787742
12.1000,-9.91328363
12.1050,-10.21518659
12.1100,-10.51327321
12.1150,-10.80703517
12.1200,-11.09628119
12.1250,-11.3810156
12.1300,-11.66118073
12.1350,-11.93641873
12.1400,-12.20692458
12.1450,-12.47324436
12.1500,-12.73529676
12.1550,-12.99292258
12.1600,-13.24629976
12.1650,-13.49555331
12.1700,-13.7408867
12.1750,-13.98279157
12.1800,-14.22147214
12.1850,-14.45699033
12.1900,-14.68963772
12.1950,-14.91955904
12.2000,-15.14672815
12.2050,-15.37130972
12.2100,-15.59325092
12.2150,-15.81280313
12.2200,-16.03010641
12.2250,-16.2451188
12.2300,-16.4579642
12.2350,-16.6688124
12.2400,-16.87746377
12.2450,-17.08405019
12.2500,-17.28837914
12.2550,-17.49072264
12.2600,-17.69079289
12.2650,-17.88830012
12.2700,-18.08348877
12.2750,-18.27659141
12.2800,-18.46742444
12.2850,-18.65626002
12.2900,-18.843139
12.2950,-19.02830758
12.3000,-19.2117265
12.3050,-19.39367942
12.3100,-19.5741556
12.3150,-19.75272698
12.3200,-19.9297857
12.3250,-20.10517992
12.3300,-20.27850097
12.3350,-20.4499331
12.3400,-20.61939357
12.3450,-20.78688131
12.3500,-20.9522021
12.3550,-21.11533986
12.3600,-21.27581829
12.3650,-21.4336973
12.3700,-21.58879218
12.3750,-21.74081063
12.3800,-21.88970243
12.3850,-22.03561442
12.3900,-22.17826757
12.3950,-22.31770748
12.4000,-22.4541092
12.4050,-22.58773407
12.4100,-22.71857558
12.4150,-22.84657929
12.4200,-22.97189538
12.4250,-23.09467256
12.4300,-23.21472596
12.4350,-23.33218654
12.4400,-23.44706061
12.4450,-23.55912228
12.4500,-23.66853937
12.4550,-23.77553637
12.4600,-23.88017368
12.4650,-23.98270834
12.4700,-24.08334241
12.4750,-24.18211903
12.4800,-24.27904498
12.4850,-24.37406569
12.4900,-24.46760603
12.4950,-24.55953475
12.5000,-24.64982925
12.5050,-24.73851798
12.5100,-24.82580833
12.5150,-24.91172369
12.5200,-24.99649418
12.5250,-25.08018805
12.5300,-25.16298147
12.5350,-25.24483107
12.5400,-25.32593751
12.5450,-25.40628726
12.5500,-25.48590214
12.5550,-25.5645711
12.5600,-25.64186003
12.5650,-25.71785113
12.5700,-25.7921434
12.5750,-25.86464806
12.5800,-25.93525223
12.5850,-26.00347612
12.5900,-26.0694193
12.5950,-26.13281389
12.6000,-26.19360886
12.6050,-26.25183985
12.6100,-26.30741956
12.6150,-26.36072627
12.6200,-26.41163633
12.6250,-26.46026205
12.6300,-26.50692017
12.6350,-26.55154535
12.6400,-26.59402367
12.6450,-26.6345564
12.6500,-26.6734115
12.6550,-26.71064783
12.6600,-26.74644682
12.6650,-26.7809959
12.6700,-26.81467223
12.6750,-26.84758734
12.6800,-26.8800141
12.6850,-26.91157938
12.6900,-26.94255189
12.6950,-26.97292376
12.7000,-27.00265574
12.7050,-27.0316786
12.7100,-27.06003924
12.7150,-27.08771628
12.7200,-27.114445
12.7250,-27.13993077
12.7300,-27.1641435
12.7350,-27.18697557
12.7400,-27.20851441
12.7450,-27.22905349
12.7500,-27.24849959
12.7550,-27.26692168
12.7600,-27.28457644
12.7650,-27.30145906
12.7700,-27.31786511
12.7750,-27.33402003
12.7800,-27.35022386
12.7850,-27.36663277
12.7900,-27.38311054
12.7950,-27.399994
12.8000,-27.41727184
12.8050,-27.43508125
12.8100,-27.45332094
12.8150,-27.47212538
12.8200,-27.49139629
12.8250,-27.51129548
12.8300,-27.53179352
12.8350,-27.55269632
12.8400,-27.57393019
12.8450,-27.59540865
12.8500,-27.61716486
12.8550,-27.63920991
12.8600,-27.66166911
12.8650,-27.68454007
12.8700,-27.707881
12.8750,-27.73166952
12.8800,-27.75627983
12.8850,-27.78175587
12.8900,-27.8079004
12.8950,-27.83483999
12.9000,-27.86255379
12.9050,-27.89107108
12.9100,-27.92062142
12.9150,-27.95102643
12.9200,-27.98225056
12.9250,-28.01428694
12.9300,-28.04717547
12.9350,-28.08071826
12.9400,-28.11493589
12.9450,-28.14961431
12.9500,-28.18463765
12.9550,-28.22015901
12.9600,-28.25596473
12.9650,-28.29200491
12.9700,-28.32802985
12.9750,-28.36388444
12.9800,-28.39931103
12.9850,-28.43452495
12.9900,-28.46915274
12.9950,-28.50328828
13.0000,-28.53687472
13.0050,-28.56987417
13.0100,-28.60235384
13.0150,-28.63433136
13.0200,-28.66579707
13.0250,-28.69693423
13.0300,-28.72777327
13.0350,-28.75825796
13.0400,-28.78830576
13.0450,-28.81754576
13.0500,-28.84596554
13.0550,-28.8734626
13.0600,-28.89960341
13.0650,-28.92431456
13.0700,-28.94728433
13.0750,-28.96830843
13.0800,-28.98709308
13.0850,-29.0035359
13.0900,-29.01732883
13.0950,-29.02808539
13.1000,-29.03581924
13.1050,-29.04036418
13.1100,-29.0417016
13.1150,-29.03994193
13.1200,-29.03515594
13.1250,-29.02750749
13.1300,-29.01709385
13.1350,-29.00428595
13.1400,-28.98928745
13.1450,-28.97232613
13.1500,-28.95363637
13.1550,-28.93327318
13.1600,-28.91154157
13.1650,-28.88868998
13.1700,-28.86509624
13.1750,-28.84104412
13.1800,-28.81669184
13.1850,-28.79222856
13.1900,-28.76814678
13.1950,-28.74470763
13.2000,-28.72205329
13.2050,-28.70044677
13.2100,-28.68008848
13.2150,-28.66100456
13.2200,-28.64334897
13.2250,-28.62731154
13.2300,-28.61283176
13.2350,-28.60008958
13.2400,-28.58899995
13.2450,-28.57956508
13.2500,-28.57174684
13.2550,-28.56544477
13.2600,-28.56086686
13.2650,-28.55799033
13.2700,-28.55665924
13.2750,-28.55699175
13.2800,-28.55902158
13.2850,-28.56264105
13.2900,-28.56779167
13.2950,-28.57419904
13.3000,-28.581719
13.3050,-28.5899303
13.3100,-28.59847252
13.3150,-28.60725365
13.3200,-28.61602784
13.3250,-28.62443729
13.3300,-28.63233934
13.3350,-28.63968534
13.3400,-28.64615282
13.3450,-28.65184723
13.3500,-28.65663029
13.3550,-28.66035976
13.3600,-28.66314188
13.3650,-28.66459631
13.3700,-28.66457091
13.3750,-28.6628399
13.3800,-28.65928714
13.3850,-28.65381193
13.3900,-28.6465549
13.3950,-28.63766459
13.4000,-28.6270341
13.4050,-28.61462519
13.4100,-28.60068985
13.4150,-28.58493554
13.4200,-28.56758015
13.4250,-28.54847776
13.4300,-28.52772321
13.4350,-28.5052718
13.4400,-28.48126939
13.4450,-28.45577306
13.4500,-28.4289759
13.4550,-28.40119911
13.4600,-28.37263105
13.4650,-28.34329083
13.4700,-28.31336613
13.4750,-28.2830013
13.4800,-28.25220103
13.4850,-28.22129628
13.4900,-28.19020157
13.4950,-28.15905389
13.5000,-28.12787312
13.5050,-28.09659609
13.5100,-28.065137
13.5150,-28.03388437
13.5200,-28.00283126
13.5250,-27.97195364
13.5300,-27.94119074
13.5350,-27.91064721
13.5400,-27.88037202
13.5450,-27.85040242
13.5500,-27.82071782
13.5550,-27.79115384
13.5600,-27.76188974
13.5650,-27.73277736
13.5700,-27.70377858
13.5750,-27.67472929
13.5800,-27.64554366
13.5850,-27.61615158
13.5900,-27.58656145
13.5950,-27.55679417
13.6000,-27.526566
13.6050,-27.49587546
13.6100,-27.46477117
13.6150,-27.43309175
13.6200,-27.40057126
13.6250,-27.36737541
13.6300,-27.333442
13.6350,-27.29865864
13.6400,-27.26329662
13.6450,-27.22708114
13.6500,-27.19030537
13.6550,-27.15279167
13.6600,-27.11435145
13.6650,-27.07509128
13.6700,-27.03511577
13.6750,-26.99433867
13.6800,-26.9526651
13.6850,-26.90999816
13.6900,-26.86617665
13.6950,-26.82102709
13.7000,-26.77442749
13.7050,-26.72637608
13.7100,-26.676352
13.7150,-26.62445398
13.7200,-26.57055918
13.7250,-26.51459802
13.7300,-26.45632568
13.7350,-26.3958201
13.7400,-26.33284236
13.7450,-26.26766364
13.7500,-26.20001478
13.7550,-26.13006603
13.7600,-26.05793504
13.7650,-25.98359512
13.7700,-25.90713637
13.7750,-25.82857188
13.7800,-25.74817981
13.7850,-25.66593144
13.7900,-25.58193176
13.7950,-25.49589643
13.8000,-25.40787009
13.8050,-25.31766025
13.8100,-25.22542436
13.8150,-25.13070287
13.8200,-25.0337522
13.8250,-24.93449625
13.8300,-24.83322106
13.8350,-24.7298567
13.8400,-24.62433455
13.8450,-24.51693001
13.8500,-24.40772942
13.8550,-24.29722072
13.8600,-24.18558167
13.8650,-24.07283983
13.8700,-23.95940296
13.8750,-23.84563983
13.8800,-23.73137427
13.8850,-23.61715086
13.8900,-23.50311657
13.8950,-23.38916592
13.9000,-23.27589493
13.9050,-23.16338225
13.9100,-23.05161799
13.9150,-22.94068966
13.9200,-22.83081477
13.9250,-22.72168225
13.9300,-22.61330596
13.9350,-22.50548346
13.9400,-22.3978248
13.9450,-22.29033297
13.9500,-22.18278935
13.9550,-22.07513865
13.9600,-21.96743175
13.9650,-21.85962701
13.9700,-21.75139036
13.9750,-21.64266995
13.9800,-21.53349801
13.9850,-21.42361265
13.9900,-21.31312621
13.9950,-21.20179743
14.0000,-21.08978866
14.0050,-20.97665349
14.0100,-20.86243328
14.0150,-20.7469522
14.0200,-20.63000124
14.0250,-20.51134159
14.0300,-20.39112828
14.0350,-20.26920021
14.0400,-20.14575708
14.0450,-20.0205917
14.0500,-19.89399049
14.0550,-19.76561516
14.0600,-19.63514559
14.0650,-19.50261456
14.0700,-19.36768919
14.0750,-19.23027247
14.0800,-19.09007281
14.0850,-18.9470829
14.0900,-18.80125993
14.0950,-18.65288867
14.1000,-18.50182655
14.1050,-18.34880152
14.1100,-18.19349503
14.1150,-18.03624252
14.1200,-17.87666625
14.1250,-17.71485582
14.1300,-17.55058199
14.1350,-17.38422028
14.1400,-17.21623036
14.1450,-17.04670778
14.1500,-16.87543114
14.1550,-16.70240132
14.1600,-16.52740221
14.1650,-16.35067276
14.1700,-16.17224126
14.1750,-15.99193001
14.1800,-15.81043858
14.1850,-15.62697658
14.1900,-15.44144172
14.1950,-15.2536154
14.2000,-15.06265476
14.2050,-14.86798188
14.2100,-14.66910941
14.2150,-14.46565776
14.2200,-14.25749254
14.2250,-14.04463001
14.2300,-13.82643375
14.2350,-13.60296787
14.2400,-13.37392019
14.2450,-13.13942782
14.2500,-12.89909749
14.2550,-12.65318966
14.2600,-12.40187143
14.2650,-12.14523988
14.2700,-11.8834802
14.2750,-11.61742257
14.2800,-11.34673698
14.2850,-11.07171627
14.2900,-10.79235108
14.2950,-10.50917358
14.3000,-10.22233475
14.3050,-9.932268313
14.3100,-9.639354924
14.3150,-9.343545001
14.3200,-9.044760755
14.3250,-8.742844371
14.3300,-8.437715313
14.3350,-8.129308703
14.3400,-7.817176124
14.3450,-7.501305006
14.3500,-7.181107373
14.3550,-6.856785476
14.3600,-6.528206072
14.3650,-6.195362195
14.3700,-5.85864715
14.3750,-5.517930363
14.3800,-5.17313544
14.3850,-4.824274314
14.3900,-4.471771494
14.3950,-4.11518696
14.4000,-3.754936944
14.4050,-3.390580287
14.4100,-3.022890712
14.4150,-2.651949707
14.4200,-2.277542799
14.4250,-1.900087524
14.4300,-1.519903774
14.4350,-1.136836086
14.4400,-0.7511133219
14.4450,-0.3627053781
14.4500,0.02788057938
14.4550,0.4205876057
14.4600,0.8155418305
14.4650,1.212776058
14.4700,1.612529452
14.4750,2.014910292
14.4800,2.42039651
14.4850,2.82890395
14.4900,3.240592559
14.4950,3.655219887
14.5000,4.072650755
14.5050,4.492497026
14.5100,4.914641217
14.5150,5.338984118
14.5200,5.7656395
14.5250,6.195014696
14.5300,6.626817061
14.5350,7.06126006
14.5400,7.497984423
14.5450,7.937206668
14.5500,8.37843853
14.5550,8.821651337
14.5600,9.266982706
14.5650,9.714159343
14.5700,10.16291663
14.5750,10.61353943
14.5800,11.06534143
14.5850,11.51804971
14.5900,11.97140208
14.5950,12.42555728
14.6000,12.88054209
14.6050,13.33627593
14.6100,13.79257001
14.6150,14.24952879
14.6200,14.70667604
14.6250,15.16439063
14.6300,15.62237259
14.6350,16.08028199
14.6400,16.53785786
14.6450,16.99503177
14.6500,17.45141791
14.6550,17.90708192
14.6600,18.36181395
14.6650,18.81559347
14.6700,19.26835701
14.6750,19.71996604
14.6800,20.17059606
14.6850,20.61993842
14.6900,21.06839468
14.6950,21.51575096
14.7000,21.96225826
14.7050,22.40787587
14.7100,22.85329213
14.7150,23.29832021
14.7200,23.74279258
14.7250,24.18718372
14.7300,24.6312617
14.7350,25.07526376
14.7400,25.51921794
14.7450,25.96282009
14.7500,26.40610868
14.7550,26.84911043
14.7600,27.29147119
14.7650,27.73326389
14.7700,28.174282
14.7750,28.61436982
14.7800,29.05348135
14.7850,29.49159087
14.7900,29.92839283
14.7950,30.36414578
14.8000,30.79814636
14.8050,31.23020364
14.8100,31.66033917
14.8150,32.08870145
14.8200,32.51528665
14.8250,32.93985955
14.8300,33.36242264
14.8350,33.78368712
14.8400,34.20391097
14.8450,34.62363791
14.8500,35.04336909
14.8550,35.46306575
14.8600,35.88252715
14.8650,36.3015651
14.8700,36.72022619
14.8750,37.1381824
14.8800,37.55536633
14.8850,37.9714094
14.8900,38.38580177
14.8950,38.79810192
14.9000,39.20821778
14.9050,39.6160636
14.9100,40.02165083
14.9150,40.42415709
14.9200,40.82429705
14.9250,41.22102985
14.9300,41.6147705
14.9350,42.00555081
14.9400,42.39361667
14.9450,42.77883206
14.9500,43.1614581
14.9550,43.54070863
14.9600,43.91641921
14.9650,44.2884042
14.9700,44.6569456
14.9750,45.02228606
14.9800,45.38443502
14.9850,45.7439127
14.9900,46.10097009
14.9950,46.45580285
15.0000,46.80875035
15.0050,47.1594266
15.0100,47.50730208
15.0150,47.85197238
15.0200,48.19279255
15.0250,48.52956233
15.0300,48.86224071
15.0350,49.19098032
15.0400,49.51576338
15.0450,49.83652297
15.0500,50.15318565
15.0550,50.46607282
15.0600,50.77497179
15.0650,51.08027468
15.0700,51.38229779
15.0750,51.68147471
15.0800,51.97787204
15.0850,52.27172468
15.0900,52.56302912
15.0950,52.85145986
15.1000,53.13780425
15.1050,53.42272525
15.1100,53.70628601
15.1150,53.98874263
15.1200,54.27022655
15.1250,54.55040426
15.1300,54.82947945
15.1350,55.10665113
15.1400,55.38147013
15.1450,55.65310778
15.1500,55.92126762
15.1550,56.18533626
15.1600,56.44548499
15.1650,56.70158063
15.1700,56.95373055
15.1750,57.20176879
15.1800,57.44560108
15.1850,57.68553558
15.1900,57.92195128
15.1950,58.15498739
15.2000,58.38465726
15.2050,58.6109007
15.2100,58.83383601
15.2150,59.05388002
15.2200,59.27086676
15.2250,59.48496737
15.2300,59.69616267
15.2350,59.90430374
15.2400,60.10879505
15.2450,60.30942195
15.2500,60.50591834
15.2550,60.69884046
15.2600,60.88823224
15.2650,61.07457313
15.2700,61.25804274
15.2750,61.43820866
15.2800,61.61504572
15.2850,61.7886994
15.2900,61.95880089
15.2950,62.12533901
15.3000,62.28753177
15.3050,62.44506484
15.3100,62.59797482
15.3150,62.74639736
15.3200,62.89084898
15.3250,63.03181116
15.3300,63.169855
15.3350,63.30503449
15.3400,63.43797956
15.3450,63.56917327
15.3500,63.69891253
15.3550,63.82758118
15.3600,63.95539323
15.3650,64.0821125
15.3700,64.20755826
15.3750,64.33095043
15.3800,64.45249746
15.3850,64.57221231
15.3900,64.69037351
15.3950,64.8069967
15.4000,64.92232527
15.4050,65.03613745
15.4100,65.14867456
15.4150,65.2603949
15.4200,65.37129409
15.4250,65.48189713
15.4300,65.59221752
15.4350,65.70222558
15.4400,65.81196665
15.4450,65.92168588
15.4500,66.03133559
15.4550,66.14095808
15.4600,66.25073388
15.4650,66.36036659
15.4700,66.46940085
15.4750,66.57811463
15.4800,66.68631489
15.4850,66.794293
15.4900,66.90154766
15.4950,67.00826889
15.5000,67.11447681
15.5050,67.22000716
15.5100,67.32470463
15.5150,67.42809533
15.5200,67.52973163
15.5250,67.62986045
15.5300,67.72816229
15.5350,67.82434619
15.5400,67.91851821
15.5450,68.01106761
15.5500,68.10226087
15.5550,68.19243619
15.5600,68.28157519
15.5650,68.36952685
15.5700,68.45624097
15.5750,68.54187211
15.5800,68.62662433
15.5850,68.7103405
15.5900,68.79308569
15.5950,68.87473077
15.6000,68.95561785
15.6050,69.03605318
15.6100,69.11626904
15.6150,69.19641992
15.6200,69.27647625
15.6250,69.35600091
15.6300,69.43503397
15.6350,69.5136853
15.6400,69.59177818
15.6450,69.66943835
15.6500,69.74654668
15.6550,69.82248557
15.6600,69.89725984
15.6650,69.97073814
15.6700,70.04273689
15.6750,70.11342524
15.6800,70.18265718
15.6850,70.25027374
15.6900,70.316171
15.6950,70.38043219
15.7000,70.44297429
15.7050,70.50401556
15.7100,70.56348133
15.7150,70.62125209
15.7200,70.67717268
15.7250,70.7315824
15.7300,70.78435856
15.7350,70.83543609
15.7400,70.88482106
15.7450,70.93279506
15.7500,70.97943996
15.7550,71.02518492
15.7600,71.06984603
15.7650,71.11379078
15.7700,71.15721699
15.7750,71.20023098
15.7800,71.24322344
15.7850,71.2860394
15.7900,71.32900867
15.7950,71.37202271
15.8000,71.41489852
15.8050,71.4576677
15.8100,71.50029567
15.8150,71.54290119
15.8200,71.5853785
15.8250,71.62748606
15.8300,71.66932445
15.8350,71.71085944
15.8400,71.75214949
15.8450,71.79341158
15.8500,71.83478274
15.8550,71.87612469
15.8600,71.91744162
15.8650,71.95890682
15.8700,72.00022897
15.8750,72.0413569
15.8800,72.08172477
15.8850,72.12131752
15.8900,72.16033109
15.8950,72.19843141
15.9000,72.23554246
15.9050,72.27130703
15.9100,72.30590559
15.9150,72.33935529
15.9200,72.37148517
15.9250,72.4023841
15.9300,72.43192455
15.9350,72.46022818
15.9400,72.4873237
15.9450,72.51295043
15.9500,72.53707236
15.9550,72.55943291
15.9600,72.57995856
15.9650,72.59873268
15.9700,72.61555092
15.9750,72.63065553
15.9800,72.64401574
15.9850,72.65594785
15.9900,72.66666476
15.9950,72.67624236
16.0000,72.68471133
16.0050,72.69170292
16.0100,72.69742931
16.0150,72.70166782
16.0200,72.70475366
16.0250,72.70658028
16.0300,72.70716282
16.0350,72.70680514
16.0400,72.7057531
16.0450,72.70372553
16.0500,72.70094968
16.0550,72.69752298
16.0600,72.69382512
16.0650,72.68993282
16.0700,72.6858996
16.0750,72.68192974
16.0800,72.67833229
16.0850,72.67531416
16.0900,72.67282844
16.0950,72.6710547
16.1000,72.66970935
16.1050,72.66856907
16.1100,72.66774736
16.1150,72.66733669
16.1200,72.6673828
16.1250,72.66792388
16.1300,72.66898263
16.1350,72.67068578
16.1400,72.67295734
16.1450,72.67548264
16.1500,72.67808405
16.1550,72.68058093
16.1600,72.68322663
16.1650,72.68574059
16.1700,72.68818426
16.1750,72.69075156
16.1800,72.69335586
16.1850,72.69581851
16.1900,72.69778435
16.1950,72.69960583
16.2000,72.70124867
16.2050,72.70281894
16.2100,72.70419171
16.2150,72.70518515
16.2200,72.70602387
16.2250,72.70684401
16.2300,72.70733807
16.2350,72.70713421
16.2400,72.70596663
16.2450,72.7040114
16.2500,72.70123242
16.2550,72.69778045
16.2600,72.69386286
16.2650,72.68910334
16.2700,72.68390963
16.2750,72.67796229
16.2800,72.67146243
16.2850,72.66418422
16.2900,72.65625744
16.2950,72.6476125
16.3000,72.63822885
16.3050,72.62840053
16.3100,72.61785796
16.3150,72.60672297
16.3200,72.59498149
16.3250,72.58243072
16.3300,72.56941467
16.3350,72.55567431
16.3400,72.54119132
16.3450,72.52617548
16.3500,72.51037239
16.3550,72.49353334
16.3600,72.47561602
16.3650,72.4567223
16.3700,72.43720231
16.3750,72.4169721
16.3800,72.39588181
16.3850,72.37360904
16.3900,72.35017907
16.3950,72.32552364
16.4000,72.29994024
16.4050,72.27340524
16.4100,72.24591356
16.4150,72.21705465
16.4200,72.18696785
16.4250,72.15560173
16.4300,72.12299542
16.4350,72.08923417
16.4400,72.05435374
16.4450,72.01848184
16.4500,71.9816555
16.4550,71.94406088
16.4600,71.90548405
16.4650,71.86587904
16.4700,71.82510331
16.4750,71.78296882
16.4800,71.73955826
16.4850,71.69466585
16.4900,71.64826597
16.4950,71.60051129
16.5000,71.55143725
16.5050,71.50132473
16.5100,71.45040087
16.5150,71.39893387
16.5200,71.34660498
16.5250,71.29315573
16.5300,71.23856469
16.5350,71.18280725
16.5400,71.12590823
16.5450,71.06779819
16.5500,71.00854442
16.5550,70.94822932
16.5600,70.88641928
16.5650,70.82345636
16.5700,70.75916994
16.5750,70.69394288
16.5800,70.62746975
16.5850,70.55964634
16.5900,70.49008195
16.5950,70.41895498
16.6000,70.34590311
16.6050,70.27116839
16.6100,70.1946107
16.6150,70.11621456
16.6200,70.03631838
16.6250,69.9548959
16.6300,69.87190319
16.6350,69.78765549
16.6400,69.70192129
16.6450,69.61438301
16.6500,69.5249239
16.6550,69.43347302
16.6600,69.33993497
16.6650,69.2443635
16.6700,69.1467074
16.6750,69.04706071
16.6800,68.94538894
16.6850,68.84200534
16.6900,68.73707546
16.6950,68.63051688
16.7000,68.52207373
16.7050,68.41187098
16.7100,68.29993318
16.7150,68.18656142
16.7200,68.07162436
16.7250,67.95550701
16.7300,67.83806553
16.7350,67.71922156
16.7400,67.59894532
16.7450,67.47741401
16.7500,67.35455664
16.7550,67.23017803
16.7600,67.10435586
16.7650,66.97732134
16.7700,66.84907904
16.7750,66.71951412
16.7800,66.58865183
16.7850,66.45691117
16.7900,66.32422336
16.7950,66.19022475
16.8000,66.05488128
16.8050,65.9184826
16.8100,65.78068935
16.8150,65.64161058
16.8200,65.50133915
16.8250,65.3599978
16.8300,65.2180412
16.8350,65.07557964
16.8400,64.93282871
16.8450,64.78977151
16.8500,64.6464989
16.8550,64.50292607
16.8600,64.35912741
16.8650,64.21500171
16.8700,64.07016523
16.8750,63.92456566
16.8800,63.7780865
16.8850,63.63069803
16.8900,63.48259514
16.8950,63.33344215
16.9000,63.18357819
16.9050,63.03260014
16.9100,62.8807741
16.9150,62.72810434
16.9200,62.57427135
16.9250,62.41931177
16.9300,62.26307442
16.9350,62.10572492
16.9400,61.94740322
16.9450,61.7882888
16.9500,61.62834453
16.9550,61.46792826
16.9600,61.3068706
16.9650,61.14507356
16.9700,60.98251858
16.9750,60.81942115
16.9800,60.65555986
16.9850,60.49076526
16.9900,60.32503601
16.9950,60.158402
17.0000,59.9911661
17.0050,59.82317695
17.0100,59.65460444
17.0150,59.48540809
17.0200,59.31585316
17.0250,59.14549272
17.0300,58.97429336
17.0350,58.80238576
17.0400,58.62981454
17.0450,58.4563178
17.0500,58.2820346
17.0550,58.1070526
17.0600,57.93125409
17.0650,57.75437642
17.0700,57.57651295
17.0750,57.39772635
17.0800,57.2180844
17.0850,57.03727865
17.0900,56.85515571
17.0950,56.67166168
17.1000,56.4870067
17.1050,56.30076972
17.1100,56.11334249
17.1150,55.9245264
17.1200,55.73466414
17.1250,55.54364263
17.1300,55.35132906
17.1350,55.15746213
17.1400,54.96207606
17.1450,54.76497567
17.1500,54.56613018
17.1550,54.36539754
17.1600,54.1632144
17.1650,53.95961719
17.1700,53.75499109
17.1750,53.54934416
17.1800,53.34252943
17.1850,53.13484735
17.1900,52.92634412
17.1950,52.7170459
17.2000,52.50670165
17.2050,52.29530064
17.2100,52.08270539
17.2150,51.86854512
17.2200,51.65278268
17.2250,51.435291
17.2300,51.21590487
17.2350,50.9945106
17.2400,50.77077793
17.2450,50.54472007
17.2500,50.31668016
17.2550,50.08665398
17.2600,49.85470999
17.2650,49.62081853
17.2700,49.38501797
17.2750,49.14709739
17.2800,48.90727782
17.2850,48.66562026
17.2900,48.42223666
17.2950,48.17717902
17.3000,47.93061541
17.3050,47.68258032
17.3100,47.43331906
17.3150,47.18287351
17.3200,46.93138574
17.3250,46.67893794
17.3300,46.42583885
17.3350,46.17206167
17.3400,45.91758362
17.3450,45.66205783
17.3500,45.4053773
17.3550,45.14742241
17.3600,44.88837331
17.3650,44.6283757
17.3700,44.36718835
17.3750,44.10491426
17.3800,43.84168741
17.3850,43.57756355
17.3900,43.31290675
17.3950,43.04764358
17.4000,42.7817011
17.4050,42.51531187
17.4100,42.24816923
17.4150,41.98040115
17.4200,41.71189383
17.4250,41.44314328
17.4300,41.17425902
17.4350,40.90525874
17.4400,40.63599048
17.4450,40.36714685
17.4500,40.09844644
17.4550,39.83023749
17.4600,39.56224534
17.4650,39.29435414
17.4700,39.02654217
17.4750,38.7586705
17.4800,38.49088539
17.4850,38.22295381
17.4900,37.9545534
17.4950,37.68575486
17.5000,37.41646311
17.5050,37.14665728
17.5100,36.87594898
17.5150,36.60435597
17.5200,36.33188339
17.5250,36.05853237
17.5300,35.78408218
17.5350,35.50803669
17.5400,35.23059788
17.5450,34.95176328
17.5500,34.67092571
17.5550,34.38810926
17.5600,34.10348816
17.5650,33.81675898
17.5700,33.5279475
17.5750,33.23690926
17.5800,32.94338148
17.5850,32.64755777
17.5900,32.34899105
17.5950,32.04808226
17.6000,31.74443029
17.6050,31.43852285
17.6100,31.1299101
17.6150,30.81835395
17.6200,30.50380037
17.6250,30.18644539
17.6300,29.86628929
17.6350,29.54294603
17.6400,29.21642255
17.6450,28.88705975
17.6500,28.55470488
17.6550,28.21917643
17.6600,27.88042326
17.6650,27.53830361
17.6700,27.19276194
17.6750,26.84347273
17.6800,26.49010606
17.6850,26.13289112
17.6900,25.77139146
17.6950,25.40587205
17.7000,25.03620554
17.7050,24.66235819
17.7100,24.28439977
17.7150,23.90246166
17.7200,23.51664428
17.7250,23.12647284
17.7300,22.73193225
17.7350,22.33323084
17.7400,21.93086531
17.7450,21.52401097
17.7500,21.11343886
17.7550,20.69877588
17.7600,20.28036922
17.7650,19.8583053
17.7700,19.43245386
17.7750,19.00288418
17.7800,18.56985464
17.7850,18.13356825
17.7900,17.69415808
17.7950,17.25184425
17.8000,16.80693599
17.8050,16.35938344
17.8100,15.90955357
17.8150,15.45764359
17.8200,15.00378302
17.8250,14.54828972
17.8300,14.09167766
17.8350,13.63432314
17.8400,13.17647532
17.8450,12.71812976
17.8500,12.26043646
17.8550,11.80319862
17.8600,11.34695462
17.8650,10.89238598
17.8700,10.43962513
17.8750,9.989179443
17.8800,9.541989417
17.8850,9.098322703
17.8900,8.65887368
17.8950,8.22368246
17.9000,7.793192762
17.9050,7.36744036
17.9100,6.946600294
17.9150,6.531103429
17.9200,6.121111511
17.9250,5.717014757
17.9300,5.318989493
17.9350,4.927581018
17.9400,4.542932135
17.9450,4.164898919
17.9500,3.793764072
17.9550,3.43001812
17.9600,3.073661529
17.9650,2.724524574
17.9700,2.382592964
17.9750,2.048079206
17.9800,1.720921051
17.9850,1.400698669
17.9900,1.087577798
17.9950,0.7814522302
18.0000,0.4827767294
18.0050,0.1916212586
18.0100,-0.09170128895
18.0150,-0.3676476999
18.0200,-0.6366236883
18.0250,-0.8986339221
18.0300,-1.154383159
18.0350,-1.40424554
18.0400,-1.648820368
18.0450,-1.887983087
18.0500,-2.122315303
18.0550,-2.351901441
18.0600,-2.577137721
18.0650,-2.798202456
18.0700,-3.01546621
18.0750,-3.229214401
18.0800,-3.439697528
18.0850,-3.647344608
18.0900,-3.852574453
18.0950,-4.055716638
18.1000,-4.257301795
18.1050,-4.457450706
18.1100,-4.656415545
18.1150,-4.854434652
18.1200,-5.052001808
18.1250,-5.24968424
18.1300,-5.447458714
18.1350,-5.64548719
18.1400,-5.843895329
18.1450,-6.043145388
18.1500,-6.243251239
18.1550,-6.444259161
18.1600,-6.64658794
18.1650,-6.850909917
18.1700,-7.056863719
18.1750,-7.264484705
18.1800,-7.474402374
18.1850,-7.68676554
18.1900,-7.901833369
18.1950,-8.119762208
18.2000,-8.340142356
18.2050,-8.562731889
18.2100,-8.787168734
18.2150,-9.013548948
18.2200,-9.241692688
18.2250,-9.471771472
18.2300,-9.703820733
18.2350,-9.937673015
18.2400,-10.17363409
18.2450,-10.41149097
18.2500,-10.65093157
18.2550,-10.89188051
18.2600,-11.13442415
18.2650,-11.37871411
18.2700,-11.62444742
18.2750,-11.87164483
18.2800,-12.12008056
18.2850,-12.36916847
18.2900,-12.61887103
18.2950,-12.8688529
18.3000,-13.11938366
18.3050,-13.37039188
18.3100,-13.62182578
18.3150,-13.87376693
18.3200,-14.12575402
18.3250,-14.37804944
18.3300,-14.63029603
18.3350,-14.88221916
18.3400,-15.1339342
18.3450,-15.38561913
18.3500,-15.63741415
18.3550,-15.8889679
18.3600,-16.14057826
18.3650,-16.39236998
18.3700,-16.64410034
18.3750,-16.89577025
18.3800,-17.14725805
18.3850,-17.39830116
18.3900,-17.64894941
18.3950,-17.89912235
18.4000,-18.14856024
18.4050,-18.39726878
18.4100,-18.64481637
18.4150,-18.89097773
18.4200,-19.13532389
18.4250,-19.37754393
18.4300,-19.61754555
18.4350,-19.85509786
18.4400,-20.09014132
18.4450,-20.32234664
18.4500,-20.55181392
18.4550,-20.77801798
18.4600,-21.00078154
18.4650,-21.21958534
18.4700,-21.43454628
18.4750,-21.64543542
18.4800,-21.85166178
18.4850,-22.05275978
18.4900,-22.24836254
18.4950,-22.43802807
18.5000,-22.62163587
18.5050,-22.79869232
18.5100,-22.968915
18.5150,-23.13209336
18.5200,-23.28823179
18.5250,-23.43733586
18.5300,-23.57906999
18.5350,-23.7139076
18.5400,-23.84167445
18.5450,-23.9623943
18.5500,-24.07637655
18.5550,-24.18392673
18.5600,-24.28505628
18.5650,-24.37952292
18.5700,-24.46778993
18.5750,-24.55018863
18.5800,-24.62694877
18.5850,-24.69850753
18.5900,-24.76515189
18.5950,-24.82743754
18.6000,-24.8854062
18.6050,-24.9393211
18.6100,-24.98949914
18.6150,-25.03585387
18.6200,-25.07873521
18.6250,-25.11784108
18.6300,-25.15325489
18.6350,-25.18529897
18.6400,-25.21381932
18.6450,-25.23927069
18.6500,-25.2617647
18.6550,-25.28152711
18.6600,-25.29857885
18.6650,-25.31313922
18.6700,-25.32575279
18.6750,-25.3367242
18.6800,-25.34645075
18.6850,-25.3555334
18.6900,-25.364042
18.6950,-25.37244179
18.7000,-25.3811237
18.7050,-25.39020543
18.7100,-25.40017001
18.7150,-25.41146386
18.7200,-25.42428053
18.7250,-25.43880136
18.7300,-25.45519912
18.7350,-25.47387975
18.7400,-25.4944961
18.7450,-25.51719402
18.7500,-25.54197347
18.7550,-25.568846
18.7600,-25.59774694
18.7650,-25.62854529
18.7700,-25.66090845
18.7750,-25.69507015
18.7800,-25.7309179
18.7850,-25.76833136
18.7900,-25.80697799
18.7950,-25.84689028
18.8000,-25.8879579
18.8050,-25.93017607
18.8100,-25.97378758
18.8150,-26.01842846
18.8200,-26.06415066
18.8250,-26.11062251
18.8300,-26.15795365
18.8350,-26.20580138
18.8400,-26.25405766
18.8450,-26.30259309
18.8500,-26.35135773
18.8550,-26.40018894
18.8600,-26.44891004
18.8650,-26.49777533
18.8700,-26.54637875
18.8750,-26.5946315
18.8800,-26.64256207
18.8850,-26.69010957
18.8900,-26.73710173
18.8950,-26.78348961
18.9000,-26.82920261
18.9050,-26.87390812
18.9100,-26.91762703
18.9150,-26.96021136
18.9200,-27.00132848
18.9250,-27.0410013
18.9300,-27.07935827
18.9350,-27.11616763
18.9400,-27.15178031
18.9450,-27.18597096
18.9500,-27.21888421
18.9550,-27.2506032
18.9600,-27.28160816
18.9650,-27.31192602
18.9700,-27.34156104
18.9750,-27.37063563
18.9800,-27.39931219
18.9850,-27.42771913
18.9900,-27.4560489
18.9950,-27.48424816
19.0000,-27.51242331
19.0050,-27.54062245
19.0100,-27.56886458
19.0150,-27.59700672
19.0200,-27.62501402
19.0250,-27.65303509
19.0300,-27.68115778
19.0350,-27.70920083
19.0400,-27.7372857
19.0450,-27.76533961
19.0500,-27.79348442
19.0550,-27.82170025
19.0600,-27.84996644
19.0650,-27.87837085
19.0700,-27.90715933
19.0750,-27.93639792
19.0800,-27.9660812
19.0850,-27.99621173
19.0900,-28.02713858
19.0950,-28.05866165
19.1000,-28.09107653
19.1050,-28.12432366
19.1100,-28.15838817
19.1150,-28.19334636
19.1200,-28.22903036
19.1250,-28.26545449
19.1300,-28.30255331
19.1350,-28.34033671
19.1400,-28.37866565
19.1450,-28.41746896
19.1500,-28.45659033
19.1550,-28.49599653
19.1600,-28.53564255
19.1650,-28.57513522
19.1700,-28.61460054
19.1750,-28.65352968
19.1800,-28.69190815
19.1850,-28.72940424
19.1900,-28.76585858
19.1950,-28.80078177
19.2000,-28.83404058
19.2050,-28.86546506
19.2100,-28.89468162
19.2150,-28.92125643
19.2200,-28.944857
19.2250,-28.96537491
19.2300,-28.98252542
19.2350,-28.99626358
19.2400,-29.00646939
19.2450,-29.01309275
19.2500,-29.01593743
19.2550,-29.01500146
19.2600,-29.01028368
19.2650,-29.00175207
19.2700,-28.98946395
19.2750,-28.97366129
19.2800,-28.95444264
19.2850,-28.93194783
19.2900,-28.90616437
19.2950,-28.87752546
19.3000,-28.84627745
19.3050,-28.81281676
19.3100,-28.77732886
19.3150,-28.74031289
19.3200,-28.70218208
19.3250,-28.66309917
19.3300,-28.62325919
19.3350,-28.58292897
19.3400,-28.54238354
19.3450,-28.50162456
19.3500,-28.46083916
19.3550,-28.4201253
19.3600,-28.3795935
19.3650,-28.33940104
19.3700,-28.29957746
19.3750,-28.26029506
19.3800,-28.22162262
19.3850,-28.18404379
19.3900,-28.14741292
19.3950,-28.11215678
19.4000,-28.0782938
19.4050,-28.04597244
19.4100,-28.0151889
19.4150,-27.98621718
19.4200,-27.95906504
19.4250,-27.93376491
19.4300,-27.91012228
19.4350,-27.88794799
19.4400,-27.86688614
19.4450,-27.84691657
19.4500,-27.82771606
19.4550,-27.8089159
19.4600,-27.79053663
19.4650,-27.77244502
19.4700,-27.75440077
19.4750,-27.73641209
19.4800,-27.71810617
19.4850,-27.69950255
19.4900,-27.6802768
19.4950,-27.66009548
19.5000,-27.6387921
19.5050,-27.61627543
19.5100,-27.59202164
19.5150,-27.56605187
19.5200,-27.53844053
19.5250,-27.5090499
19.5300,-27.47779281
19.5350,-27.44471045
19.5400,-27.40955884
19.5450,-27.37236076
19.5500,-27.33300502
19.5550,-27.29142476
19.5600,-27.24731484
19.5650,-27.20082258
19.5700,-27.151859
19.5750,-27.10037351
19.5800,-27.04653906
19.5850,-26.99047869
19.5900,-26.932524
19.5950,-26.87268323
19.6000,-26.81112733
19.6050,-26.74809091
19.6100,-26.68389009
19.6150,-26.6186737
19.6200,-26.55254495
19.6250,-26.48574464
19.6300,-26.41873046
19.6350,-26.3513908
19.6400,-26.2840398
19.6450,-26.21698813
19.6500,-26.14993663
19.6550,-26.08303213
19.6600,-26.01631055
19.6650,-25.94961894
19.6700,-25.88322948
19.6750,-25.81679237
19.6800,-25.75051422
19.6850,-25.6843585
19.6900,-25.61841245
19.6950,-25.55271493
19.7000,-25.48698266
19.7050,-25.42129196
19.7100,-25.35536722
19.7150,-25.28904169
19.7200,-25.22205746
19.7250,-25.1543016
19.7300,-25.08578912
19.7350,-25.01628591
19.7400,-24.94588703
19.7450,-24.87437757
19.7500,-24.80189857
19.7550,-24.72844742
19.7600,-24.65393684
19.7650,-24.57808599
19.7700,-24.50057037
19.7750,-24.4211025
19.7800,-24.33932826
19.7850,-24.25482184
19.7900,-24.16762703
19.7950,-24.07798725
19.8000,-23.98546579
19.8050,-23.88993663
19.8100,-23.79151444
19.8150,-23.69015438
19.8200,-23.58607548
19.8250,-23.47927267
19.8300,-23.36963903
19.8350,-23.25702151
19.8400,-23.14153184
19.8450,-23.02324907
19.8500,-22.90205987
19.8550,-22.77820373
19.8600,-22.65168617
19.8650,-22.52245964
19.8700,-22.39065278
19.8750,-22.25623932
19.8800,-22.11942481
19.8850,-21.98009629
19.8900,-21.83833143
19.8950,-21.69426541
19.9000,-21.54788245
19.9050,-21.39907872
19.9100,-21.24797497
19.9150,-21.09452646
19.9200,-20.93893826
19.9250,-20.78114273
19.9300,-20.62081174
19.9350,-20.45827273
19.9400,-20.29356049
19.9450,-20.12650636
19.9500,-19.95749404
19.9550,-19.78652838
19.9600,-19.61385125
19.9650,-19.43979707
19.9700,-19.26431999
19.9750,-19.08798314
19.9800,-18.91083851
19.9850,-18.73288223
19.9900,-18.55413738
19.9950,-18.37430015
20.0000,-18.19350488
20.0050,-18.01180071
20.0100,-17.82943195
20.0150,-17.64628322
20.0200,-17.46262698
20.0250,-17.27830064
20.0300,-17.09339768
20.0350,-16.907984
20.0400,-16.72202128
20.0450,-16.53537334
20.0500,-16.34774729
20.0550,-16.15915502
20.0600,-15.96900442
20.0650,-15.77711997
20.0700,-15.58369129
20.0750,-15.38846423
20.0800,-15.19137595
20.0850,-14.99258002
20.0900,-14.79157948
20.0950,-14.58809192
20.1000,-14.38224316
20.1050,-14.17393941
20.1100,-13.96311588
20.1150,-13.74993307
20.1200,-13.53384896
20.1250,-13.31483021
20.1300,-13.09271775
20.1350,-12.86766254
20.1400,-12.6393593
20.1450,-12.40771027
20.1500,-12.17258642
20.1550,-11.93359122
20.1600,-11.690737
20.1650,-11.44399221
20.1700,-11.19277049
20.1750,-10.93728658
20.1800,-10.67702775
20.1850,-10.41204162
20.1900,-10.14248753
20.1950,-9.868167597
20.2000,-9.589373076
20.2050,-9.306401377
20.2100,-9.019054706
20.2150,-8.727791545
20.2200,-8.432457023
20.2250,-8.133526375
20.2300,-7.830872569
20.2350,-7.524424569
20.2400,-7.214111731
20.2450,-6.900043348
20.2500,-6.582183235
20.2550,-6.260783864
20.2600,-5.935705076
20.2650,-5.607196407
20.2700,-5.274950804
20.2750,-4.938698323
20.2800,-4.598532005
20.2850,-4.254502757
20.2900,-3.906496528
20.2950,-3.554699135
20.3000,-3.199377078
20.3050,-2.840638345
20.3100,-2.478438817
20.3150,-2.113273946
20.3200,-1.74494414
20.3250,-1.373980836
20.3300,-1.000665566
20.3350,-0.6251285667
20.3400,-0.2475986833
20.3450,0.1315281861
20.3500,0.5120901749
20.3550,0.8943081511
20.3600,1.277507234
20.3650,1.661601269
20.3700,2.04693024
20.3750,2.4332659
20.3800,2.820414668
20.3850,3.208752125
20.3900,3.597938702
20.3950,3.988242203
20.4000,4.379883741
20.4050,4.77288476
20.4100,5.166897528
20.4150,5.562160421
20.4200,5.958730968
20.4250,6.356608273
20.4300,6.755849162
20.4350,7.156490841
20.4400,7.558340667
20.4450,7.961814786
20.4500,8.366524996
20.4550,8.772018427
20.4600,9.178670667
20.4650,9.586418116
20.4700,9.994836812
20.4750,10.40405346
20.4800,10.81379437
20.4850,11.22441171
20.4900,11.63562736
20.4950,12.04773391
20.5000,12.46043859
20.5050,12.87381025
20.5100,13.28774018
20.5150,13.70276188
20.5200,14.11811768
20.5250,14.53422954
20.5300,14.95079557
20.5350,15.36768077
20.5400,15.78528868
20.5450,16.2028062
20.5500,16.62039863
20.5550,17.03790582
20.5600,17.45532892
20.5650,17.87274052
20.5700,18.28987907
20.5750,18.70687013
20.5800,19.12388685
20.5850,19.54083644
20.5900,19.95749853
20.5950,20.37390256
20.6000,20.78998337
20.6050,21.20583952
20.6100,21.62116044
20.6150,22.03611086
20.6200,22.45059507
20.6250,22.86441017
20.6300,23.27810364
20.6350,23.69138151
20.6400,24.10439899
20.6450,24.51704359
20.6500,24.92935807
20.6550,25.3410686
20.6600,25.75235521
20.6650,26.16360127
20.6700,26.57422716
20.6750,26.98418863
20.6800,27.39404631
20.6850,27.80293813
20.6900,28.21121723
20.6950,28.61874569
20.7000,29.02562033
20.7050,29.43152944
20.7100,29.83675535
20.7150,30.24129073
20.7200,30.64491635
20.7250,31.0476791
20.7300,31.44908248
20.7350,31.84933391
20.7400,32.24851794
20.7450,32.64682859
20.7500,33.04437254
20.7550,33.44146274
20.7600,33.83802828
20.7650,34.23415531
20.7700,34.63014668
20.7750,35.02587551
20.7800,35.42154151
20.7850,35.81682977
20.7900,36.2121349
20.7950,36.60695328
20.8000,37.00128926
20.8050,37.3950747
20.8100,37.78831358
20.8150,38.1805185
20.8200,38.57144502
20.8250,38.96108818
20.8300,39.3491217
20.8350,39.73536583
20.8400,40.11971379
20.8450,40.50272818
20.8500,40.88428176
20.8550,41.26436413
20.8600,41.64291739
20.8650,42.02007833
20.8700,42.39604965
20.8750,42.77061935
20.8800,43.1438171
20.8850,43.51525126
20.8900,43.88491714
20.8950,44.25291618
20.9000,44.6196895
20.9050,44.98496294
20.9100,45.34853029
20.9150,45.70992828
20.9200,46.06865831
20.9250,46.42503155
20.9300,46.77876304
20.9350,47.12958006
20.9400,47.47678371
20.9450,47.82075383
20.9500,48.16121327
20.9550,48.4982879
20.9600,48.83238859
20.9650,49.16293516
20.9700,49.49045472
20.9750,49.81510337
20.9800,50.13625199
20.9850,50.45458135
20.9900,50.76992709
20.9950,51.08248461
21.0000,51.39213525
21.0050,51.69898237
21.0100,52.00293228
21.0150,52.30415449
21.0200,52.60257392
21.0250,52.8981911
21.0300,53.19117121
21.0350,53.48130103
21.0400,53.76860184
21.0450,54.05253746
21.0500,54.33315465
21.0550,54.61082936
21.0600,54.88555603
21.0650,55.15726718
21.0700,55.42557207
21.0750,55.69054201
21.0800,55.95232238
21.0850,56.21111674
21.0900,56.46712279
21.0950,56.72033727
21.1000,56.97096064
21.1050,57.21869526
21.1100,57.4633026
21.1150,57.70420923
21.1200,57.94206254
21.1250,58.17684645
21.1300,58.40840388
21.1350,58.6367081
21.1400,58.86134808
21.1450,59.08204393
21.1500,59.29833478
21.1550,59.51008513
21.1600,59.71705154
21.1650,59.91933283
21.1700,60.11677654
21.1750,60.30945218
21.1800,60.49770601
21.1850,60.68202494
21.1900,60.86268382
21.1950,61.03938336
21.2000,61.21193988
21.2050,61.38048776
21.2100,61.54555692
21.2150,61.70780579
21.2200,61.86755809
21.2250,62.02492783
21.2300,62.18015171
21.2350,62.33315398
21.2400,62.4842666
21.2450,62.6335053
21.2500,62.7808413
21.2550,62.92605382
21.2600,63.06939307
21.2650,63.21113725
21.2700,63.35130826
21.2750,63.49021025
21.2800,63.62795035
21.2850,63.76463506
21.2900,63.9004822
21.2950,64.03582081
21.3000,64.17040313
21.3050,64.30424731
21.3100,64.43729966
21.3150,64.56957138
21.3200,64.70118218
21.3250,64.832213
21.3300,64.96291147
21.3350,65.09339298
21.3400,65.22340042
21.3450,65.35322767
21.3500,65.48267494
21.3550,65.61136041
21.3600,65.73908986
21.3650,65.86580171
21.3700,65.99140378
21.3750,66.11571997
21.3800,66.23838035
21.3850,66.35939583
21.3900,66.47871553
21.3950,66.59615202
21.4000,66.71153904
21.4050,66.8247208
21.4100,66.9354409
21.4150,67.04374862
21.4200,67.14965301
21.4250,67.25248029
21.4300,67.35237482
21.4350,67.44941472
21.4400,67.5436671
21.4450,67.63512297
21.4500,67.72359103
21.4550,67.80900617
21.4600,67.89142252
21.4650,67.97083485
21.4700,68.04726661
21.4750,68.12066755
21.4800,68.19087821
21.4850,68.25793984
21.4900,68.32183279
21.4950,68.38285132
21.5000,68.44112014
21.5050,68.49661362
21.5100,68.54920593
21.5150,68.59879005
21.5200,68.64553356
21.5250,68.68930111
21.5300,68.73003278
21.5350,68.768036
21.5400,68.80339977
21.5450,68.83622325
21.5500,68.86680044
21.5550,68.89537777
21.5600,68.92151308
21.5650,68.94553323
21.5700,68.96744366
21.5750,68.98718367
21.5800,69.00514829
21.5850,69.02120778
21.5900,69.03559279
21.5950,69.04817542
21.6000,69.0591463
21.6050,69.06866084
21.6100,69.07702729
21.6150,69.08445855
21.6200,69.09085851
21.6250,69.0962287
21.6300,69.10056874
21.6350,69.1040248
21.6400,69.10683793
21.6450,69.10878978
21.6500,69.10986205
21.6550,69.1098834
21.6600,69.1092729
21.6650,69.10839746
21.6700,69.10742216
21.6750,69.10610896
21.6800,69.10477828
21.6850,69.10345937
21.6900,69.10193565
21.6950,69.10018648
21.7000,69.09805029
21.7050,69.09576567
21.7100,69.09337142
21.7150,69.09120044
21.7200,69.08884394
21.7250,69.08682766
21.7300,69.08508514
21.7350,69.08369095
21.7400,69.0825193
21.7450,69.08174664
21.7500,69.08144098
21.7550,69.08157115
21.7600,69.08228195
21.7650,69.08346766
21.7700,69.0851185
21.7750,69.08710634
21.7800,69.08959258
21.7850,69.09223378
21.7900,69.09512485
21.7950,69.0980078
21.8000,69.10086469
21.8050,69.10356683
21.8100,69.10618209
21.8150,69.10876034
21.8200,69.11110843
21.8250,69.11323167
21.8300,69.11530896
21.8350,69.1170813
21.8400,69.11875278
21.8450,69.12006863
21.8500,69.12082365
21.8550,69.1210345
21.8600,69.12103699
21.8650,69.12095014
21.8700,69.12056921
21.8750,69.12002198
21.8800,69.11900501
21.8850,69.1174317
21.8900,69.11523778
21.8950,69.1125529
21.9000,69.10957927
21.9050,69.10623798
21.9100,69.10261294
21.9150,69.09858288
21.9200,69.09464307
21.9250,69.09068514
21.9300,69.08660371
21.9350,69.08223043
21.9400,69.07781793
21.9450,69.07358906
21.9500,69.06976434
21.9550,69.06660102
21.9600,69.0637151
21.9650,69.06083902
21.9700,69.05811667
21.9750,69.05597375
21.9800,69.05433634
21.9850,69.0530676
21.9900,69.05236735
21.9950,69.0525263
22.0000,69.0535955
22.0050,69.05533308
22.0100,69.05771305
22.0150,69.06046357
22.0200,69.06383616
22.0250,69.06755734
22.0300,69.07147055
22.0350,69.07530758
22.0400,69.07911635
22.0450,69.08293628
22.0500,69.08694219
22.0550,69.09115609
22.0600,69.09554198
22.0650,69.09994639
22.0700,69.1042741
22.0750,69.10841433
22.0800,69.11199728
22.0850,69.11513472
22.0900,69.11761164
22.0950,69.11951469
22.1000,69.12081139
22.1050,69.12161154
22.1100,69.12173426
22.1150,69.12093633
22.1200,69.11920107
22.1250,69.11652862
22.1300,69.11272557
22.1350,69.1079932
22.1400,69.10219411
22.1450,69.0955246
22.1500,69.08795208
22.1550,69.0797869
22.1600,69.07091541
22.1650,69.06096881
22.1700,69.05007123
22.1750,69.0381622
22.1800,69.02546774
22.1850,69.01211199
22.1900,68.99806722
22.1950,68.98319894
22.2000,68.96744935
22.2050,68.95081753
22.2100,68.93323773
22.2150,68.91479026
22.2200,68.89501416
22.2250,68.87390207
22.2300,68.85165757
22.2350,68.82828128
22.2400,68.80374034
22.2450,68.77795298
22.2500,68.75107664
22.2550,68.72322423
22.2600,68.69424582
22.2650,68.66428849
22.2700,68.63333667
22.2750,68.60142176
22.2800,68.56857075
22.2850,68.53490035
22.2900,68.50001705
22.2950,68.46361488
22.3000,68.42598864
22.3050,68.38691208
22.3100,68.34630974
22.3150,68.30414939
22.3200,68.26035231
22.3250,68.21498906
22.3300,68.16813403
22.3350,68.1196146
22.3400,68.06956766
22.3450,68.01772348
22.3500,67.96387123
22.3550,67.90822332
22.3600,67.85047394
22.3650,67.79065042
22.3700,67.72858355
22.3750,67.66442102
22.3800,67.59823675
22.3850,67.53006003
22.3900,67.46014156
22.3950,67.38846937
22.4000,67.31503295
22.4050,67.23997658
22.4100,67.16312498
22.4150,67.08442972
22.4200,67.0038522
22.4250,66.92145619
22.4300,66.83740499
22.4350,66.75161315
22.4400,66.66419528
22.4450,66.57522161
22.4500,66.48507256
22.4550,66.39352149
22.4600,66.30036855
22.4650,66.20566379
22.4700,66.10966986
22.4750,66.01204788
22.4800,65.91284155
22.4850,65.81182723
22.4900,65.70925738
22.4950,65.60508726
22.5000,65.49937219
22.5050,65.39197853
22.5100,65.28266177
22.5150,65.1710925
22.5200,65.05766454
22.5250,64.94227347
22.5300,64.82491802
22.5350,64.70566824
22.5400,64.58444955
22.5450,64.46149003
22.5500,64.3367407
22.5550,64.21042716
22.5600,64.08263484
22.5650,63.95320872
22.5700,63.82182099
22.5750,63.68845063
22.5800,63.55290669
22.5850,63.41506074
22.5900,63.27516604
22.5950,63.13342452
22.6000,62.98965237
22.6050,62.84421574
22.6100,62.6971437
22.6150,62.54872
22.6200,62.39864532
22.6250,62.24711971
22.6300,62.0939745
22.6350,61.93901454
22.6400,61.78228741
22.6450,61.62361864
22.6500,61.46297424
22.6550,61.29992811
22.6600,61.13474285
22.6650,60.96732767
22.6700,60.79799443
22.6750,60.6263104
22.6800,60.45244997
22.6850,60.27623786
22.6900,60.09764479
22.6950,59.91675105
22.7000,59.73343011
22.7050,59.54737796
22.7100,59.35901188
22.7150,59.16828567
22.7200,58.97511812
22.7250,58.7797282
22.7300,58.5820434
22.7350,58.38226024
22.7400,58.18042634
22.7450,57.9764125
22.7500,57.77011644
22.7550,57.56140141
22.7600,57.35060958
22.7650,57.13768587
22.7700,56.92236589
22.7750,56.70480574
22.7800,56.48482342
22.7850,56.26245588
22.7900,56.03711628
22.7950,55.80909571
22.8000,55.57824389
22.8050,55.3446631
22.8100,55.10865776
22.8150,54.8702227
22.8200,54.62928739
22.8250,54.38606259
22.8300,54.14002458
22.8350,53.89106327
22.8400,53.6387506
22.8450,53.38291339
22.8500,53.12360222
22.8550,52.86033484
22.8600,52.59311811
22.8650,52.3218402
22.8700,52.04690231
22.8750,51.76825821
22.8800,51.48612779
22.8850,51.20029478
22.8900,50.91082547
22.8950,50.61763413
22.9000,50.32095231
22.9050,50.02041492
22.9100,49.71612629
22.9150,49.40775331
22.9200,49.09525281
22.9250,48.77847784
22.9300,48.45701444
22.9350,48.13118437
22.9400,47.80072376
22.9450,47.46587016
22.9500,47.12648452
22.9550,46.7827291
22.9600,46.43425706
22.9650,46.08084264
22.9700,45.72209018
22.9750,45.35823317
22.9800,44.98892096
22.9850,44.61430842
22.9900,44.23400407
22.9950,43.84768637
23.0000,43.45555072
23.0050,43.05805513
23.0100,42.65485372
23.0150,42.24648121
23.0200,41.83314825
23.0250,41.41503479
23.0300,40.99205324
23.0350,40.56416825
23.0400,40.1311451
23.0450,39.69283608
23.0500,39.24934919
23.0550,38.80053836
23.0600,38.34628495
23.0650,37.88679549
23.0700,37.42200233
23.0750,36.95215743
23.0800,36.47731816
23.0850,35.99781797
23.0900,35.51411286
23.0950,35.02575824
23.1000,34.53276883
23.1050,34.03514817
23.1100,33.53232445
23.1150,33.02473952
23.1200,32.51251395
23.1250,31.99581737
23.1300,31.47484347
23.1350,30.94980683
23.1400,30.42113208
23.1450,29.88873712
23.1500,29.35279257
23.1550,28.81406107
23.1600,28.27286166
23.1650,27.72949594
23.1700,27.18390958
23.1750,26.63642252
23.1800,26.08741634
23.1850,25.53734239
23.1900,24.98648825
23.1950,24.43511859
23.2000,23.88334841
23.2050,23.33192328
23.2100,22.78087846
23.2150,22.23023773
23.2200,21.6803583
23.2250,21.13140161
23.2300,20.58358531
23.2350,20.03686114
23.2400,19.49130315
23.2450,18.9468221
23.2500,18.40339535
23.2550,17.86077782
23.2600,17.31873205
23.2650,16.77747305
23.2700,16.2367186
23.2750,15.69624736
23.2800,15.15616745
23.2850,14.61639834
23.2900,14.07676592
23.2950,13.53727624
23.3000,12.99806549
23.3050,12.45891048
23.3100,11.92006832
23.3150,11.38130811
23.3200,10.84310382
23.3250,10.30553008
23.3300,9.768911311
23.3350,9.233410966
23.3400,8.699124175
23.3450,8.165906083
23.3500,7.634021492
23.3550,7.103473971
23.3600,6.574383977
23.3650,6.046745956
23.3700,5.520774951
23.3750,4.996091165
23.3800,4.472538534
23.3850,3.950230162
23.3900,3.429266808
23.3950,2.909985074
23.4000,2.392321745
23.4050,1.876572396
23.4100,1.362443803
23.4150,0.8503488738
23.4200,0.3405055149
23.4250,-0.1672018073
23.4300,-0.6723119682
23.4350,-1.174439504
23.4400,-1.673419536
23.4450,-2.168865116
23.4500,-2.660506442
23.4550,-3.148363768
23.4600,-3.631461599
23.4650,-4.109769825
23.4700,-4.582565286
23.4750,-5.050123963
23.4800,-5.512389607
23.4850,-5.969131674
23.4900,-6.420858501
23.4950,-6.867809713
23.5000,-7.310223131
23.5050,-7.748528024
23.5100,-8.18323844
23.5150,-8.614253819
23.5200,-9.042042874
23.5250,-9.46670458
23.5300,-9.888083574
23.5350,-10.30607291
23.5400,-10.7208576
23.5450,-11.13257594
23.5500,-11.54131079
23.5550,-11.94702234
23.5600,-12.34938155
23.5650,-12.74885732
23.5700,-13.1453191
23.5750,-13.53858652
23.5800,-13.92873128
23.5850,-14.31539912
23.5900,-14.69827738
23.5950,-15.07685724
23.6000,-15.45090143
23.6050,-15.82014872
23.6100,-16.18437494
23.6150,-16.54307927
23.6200,-16.89634956
23.6250,-17.2437145
23.6300,-17.58559542
23.6350,-17.92192824
23.6400,-18.25267932
23.6450,-18.57758432
23.6500,-18.89679497
23.6550,-19.21026331
23.6600,-19.51787349
23.6650,-19.81957416
23.6700,-20.11497314
23.6750,-20.40381817
23.6800,-20.68564946
23.6850,-20.96026363
23.6900,-21.22770113
23.6950,-21.48766345
23.7000,-21.74059678
23.7050,-21.98638743
23.7100,-22.22495935
23.7150,-22.45652166
23.7200,-22.68149398
23.7250,-22.90015478
23.7300,-23.11296474
23.7350,-23.32008732
23.7400,-23.52163657
23.7450,-23.71766949
23.7500,-23.9081405
23.7550,-24.09311368
23.7600,-24.27304397
23.7650,-24.44799645
23.7700,-24.61816783
23.7750,-24.78382766
23.7800,-24.94523407
23.7850,-25.10254898
23.7900,-25.25580155
23.7950,-25.40493054
23.8000,-25.54997419
23.8050,-25.69052251
23.8100,-25.82624977
23.8150,-25.95740466
23.8200,-26.08373453
23.8250,-26.20544379
23.8300,-26.32291769
23.8350,-26.43626159
23.8400,-26.54578626
23.8450,-26.65160327
23.8500,-26.75406814
23.8550,-26.85315578
23.8600,-26.94898941
23.8650,-27.04120208
23.8700,-27.12974845
23.8750,-27.21462885
23.8800,-27.29558648
23.8850,-27.37291053
23.8900,-27.44635629
23.8950,-27.51602886
23.9000,-27.58187781
23.9050,-27.64391184
23.9100,-27.70201327
23.9150,-27.75612512
23.9200,-27.80621426
23.9250,-27.85256496
23.9300,-27.89492568
23.9350,-27.93326171
23.9400,-27.96758175
23.9450,-27.9979122
23.9500,-28.0244069
23.9550,-28.04696368
23.9600,-28.06576614
23.9650,-28.08107231
23.9700,-28.09310146
23.9750,-28.10176909
23.9800,-28.1075311
23.9850,-28.11068272
23.9900,-28.11136792
23.9950,-28.1100502
24.0000,-28.10667892
24.0050,-28.10142917
24.0100,-28.09438439
24.0150,-28.08574897
24.0200,-28.07531782
24.0250,-28.06297915
24.0300,-28.04861985
24.0350,-28.03241804
24.0400,-28.01457873
24.0450,-27.9953014
24.0500,-27.97495965
24.0550,-27.95365327
24.0600,-27.93154746
24.0650,-27.90885152
24.0700,-27.88602838
24.0750,-27.86303138
24.0800,-27.83995593
24.0850,-27.81708482
24.0900,-27.79448718
24.0950,-27.7722271
24.1000,-27.75044816
24.1050,-27.72944616
24.1100,-27.70904721
24.1150,-27.68932205
24.1200,-27.67029201
24.1250,-27.65192067
24.1300,-27.63412592
24.1350,-27.61698638
24.1400,-27.60060054
24.1450,-27.58489178
24.1500,-27.5699876
24.1550,-27.55573005
24.1600,-27.54213783
24.1650,-27.52915875
24.1700,-27.51682294
24.1750,-27.50498988
24.1800,-27.49398673
24.1850,-27.48356317
24.1900,-27.47349822
24.1950,-27.46403683
24.2000,-27.45492697
24.2050,-27.44618456
24.2100,-27.43797051
24.2150,-27.4300259
24.2200,-27.42247027
24.2250,-27.41518906
24.2300,-27.40812556
24.2350,-27.40112319
24.2400,-27.39426855
24.2450,-27.38746362
24.2500,-27.38061483
24.2550,-27.37402796
24.2600,-27.36764648
24.2650,-27.36152378
24.2700,-27.35577247
24.2750,-27.35055031
24.2800,-27.34581153
24.2850,-27.34126171
24.2900,-27.33720799
24.2950,-27.33367993
24.3000,-27.33055082
24.3050,-27.32826417
24.3100,-27.32671981
24.3150,-27.32608376
24.3200,-27.32634758
24.3250,-27.32752563
24.3300,-27.32957204
24.3350,-27.33248921
24.3400,-27.33628129
24.3450,-27.34081966
24.3500,-27.34608728
24.3550,-27.35215754
24.3600,-27.35886666
24.3650,-27.36629994
24.3700,-27.37419344
24.3750,-27.38248174
24.3800,-27.39131278
24.3850,-27.40046483
24.3900,-27.40985906
24.3950,-27.41940677
24.4000,-27.42884463
24.4050,-27.43799798
24.4100,-27.44690087
24.4150,-27.45514183
24.4200,-27.46255363
24.4250,-27.46885089
24.4300,-27.47356588
24.4350,-27.47641627
24.4400,-27.47676809
24.4450,-27.47447481
24.4500,-27.46883663
24.4550,-27.45948192
24.4600,-27.44638331
24.4650,-27.42921757
24.4700,-27.40769887
24.4750,-27.38182954
24.4800,-27.35127326
24.4850,-27.31610925
24.4900,-27.27641051
24.4950,-27.23221012
24.5000,-27.18387921
24.5050,-27.13162982
24.5100,-27.07595245
24.5150,-27.01728907
24.5200,-26.95611814
24.5250,-26.89304253
24.5300,-26.82861264
24.5350,-26.76356607
24.5400,-26.69820536
24.5450,-26.63305263
24.5500,-26.56856717
24.5550,-26.50486279
24.5600,-26.44233808
24.5650,-26.38118376
24.5700,-26.3217365
24.5750,-26.26412692
24.5800,-26.20856991
24.5850,-26.15539955
24.5900,-26.10441179
24.5950,-26.05539347
24.6000,-26.00828461
24.6050,-25.96268357
24.6100,-25.91838641
24.6150,-25.87488718
24.6200,-25.83219935
24.6250,-25.79021381
24.6300,-25.74887379
24.6350,-25.70808969
24.6400,-25.6677892
24.6450,-25.62775993
24.6500,-25.58796125
24.6550,-25.54817882
24.6600,-25.50846942
24.6650,-25.46852992
24.6700,-25.4283702
24.6750,-25.38780138
24.6800,-25.34657574
24.6850,-25.30470671
24.6900,-25.26209451
24.6950,-25.21867085
24.7000,-25.1743882
24.7050,-25.12924928
24.7100,-25.08324545
24.7150,-25.03648896
24.7200,-24.98914621
24.7250,-24.94165121
24.7300,-24.89424296
24.7350,-24.84706954
24.7400,-24.80042401
24.7450,-24.75461651
24.7500,-24.70984998
24.7550,-24.66657483
24.7600,-24.62457511
24.7650,-24.58401531
24.7700,-24.54524889
24.7750,-24.50820732
24.7800,-24.47318104
24.7850,-24.44009773
24.7900,-24.40926537
24.7950,-24.38040588
24.8000,-24.3534596
24.8050,-24.32849399
24.8100,-24.305227
24.8150,-24.28363805
24.8200,-24.26355545
24.8250,-24.24479173
24.8300,-24.22733309
24.8350,-24.21095216
24.8400,-24.19588305
24.8450,-24.18201714
24.8500,-24.16948549
24.8550,-24.15847065
24.8600,-24.14901343
24.8650,-24.14140241
24.8700,-24.13569704
24.8750,-24.13188758
24.8800,-24.12994595
24.8850,-24.1299288
24.8900,-24.13205613
24.8950,-24.13641821
24.9000,-24.14333273
24.9050,-24.15280707
24.9100,-24.16509549
24.9150,-24.18028519
24.9200,-24.19838874
24.9250,-24.21920895
24.9300,-24.24251778
24.9350,-24.26812307
24.9400,-24.29567914
24.9450,-24.32521391
24.9500,-24.35647894
24.9550,-24.3895639
24.9600,-24.42424337
24.9650,-24.46081859
24.9700,-24.49901362
24.9750,-24.53902098
24.9800,-24.58089047
24.9850,-24.62466758
24.9900,-24.67043927
24.9950,-24.71794254
25.0000,-24.76719556
25.0050,-24.81810388
25.0100,-24.8701833
25.0150,-24.92324013
25.0200,-24.97697829
25.0250,-25.03115519
25.0300,-25.08591538
25.0350,-25.14124463
25.0400,-25.19721449
25.0450,-25.25364337
25.0500,-25.31061971
25.0550,-25.36812892
25.0600,-25.42621635
25.0650,-25.48490161
25.0700,-25.54371164
25.0750,-25.6025929
25.0800,-25.66106161
25.0850,-25.71899122
25.0900,-25.77581882
25.0950,-25.83179968
25.1000,-25.88677944
25.1050,-25.94085474
25.1100,-25.99362517
25.1150,-26.04508167
25.1200,-26.09518463
25.1250,-26.14355843
25.1300,-26.18983856
25.1350,-26.23360124
25.1400,-26.27425828
25.1450,-26.31143621
25.1500,-26.34463072
25.1550,-26.37332641
25.1600,-26.39697911
25.1650,-26.41505358
25.1700,-26.42734786
25.1750,-26.43352466
25.1800,-26.43324925
25.1850,-26.42589317
25.1900,-26.41079273
25.1950,-26.40033348
25.2000,-26.38538529
25.2050,-26.36574901
25.2100,-26.34127224
25.2150,-26.31186624
25.2200,-26.27752156
25.2250,-26.23832051
25.2300,-26.19444512
25.2350,-26.14617956
25.2400,-26.09390684
25.2450,-26.0381014
25.2500,-25.97932044
25.2550,-25.91819598
25.2600,-25.85542704
25.2650,-25.7917712
25.2700,-25.72803614
25.2750,-25.66507083
25.2800,-25.60375427
25.2850,-25.54497928
25.2900,-25.48963044
25.2950,-25.43855632
25.3000,-25.39253611
25.3050,-25.35224012
25.3100,-25.31818349
25.3150,-25.290674
25.3200,-25.26975826
25.3250,-25.25516902
25.3300,-25.24627316
25.3350,-25.2420184
