type,name,time_units,begin_time,frequency,count,units
signal,"Noraxon MyoMotion-Segments-Upper arm RT-Pitch","s",0.0000,200,5068,"deg"

time,value
0.0000,8.579812262
0.0050,8.578198296
0.0100,8.576584235
0.0150,8.574970081
0.0200,8.573126667
0.0250,8.571048932
0.0300,8.568738271
0.0350,8.566202608
0.0400,8.563453996
0.0450,8.560505546
0.0500,8.557369781
0.0550,8.554058463
0.0600,8.550582914
0.0650,8.546954819
0.0700,8.543187682
0.0750,8.539298085
0.0800,8.535305763
0.0850,8.531232402
0.0900,8.527099947
0.0950,8.522929463
0.1000,8.518741031
0.1050,8.514554568
0.1100,8.510391268
0.1150,8.506274959
0.1200,8.502232453
0.1250,8.498292731
0.1300,8.494485248
0.1350,8.490838176
0.1400,8.487377469
0.1450,8.484126686
0.1500,8.481106928
0.1550,8.475338688
0.1600,8.469716389
0.1650,8.464281071
0.1700,8.459170616
0.1750,8.45424873
0.1800,8.44964819
0.1850,8.445436297
0.1900,8.441676157
0.1950,8.438206892
0.2000,8.434897678
0.2050,8.431968683
0.2100,8.429232125
0.2150,8.426600049
0.2200,8.42418274
0.2250,8.421914471
0.2300,8.419843698
0.2350,8.41814048
0.2400,8.41654833
0.2450,8.41505695
0.2500,8.413646545
0.2550,8.412226676
0.2600,8.41066596
0.2650,8.409238343
0.2700,8.407769975
0.2750,8.406439002
0.2800,8.405265165
0.2850,8.404271237
0.2900,8.403180513
0.2950,8.402179163
0.3000,8.401270237
0.3050,8.400393341
0.3100,8.399549269
0.3150,8.398753523
0.3200,8.39809987
0.3250,8.397503811
0.3300,8.39689398
0.3350,8.396144743
0.3400,8.395432673
0.3450,8.394645011
0.3500,8.393898389
0.3550,8.393122278
0.3600,8.3922738
0.3650,8.391347249
0.3700,8.390291671
0.3750,8.389098014
0.3800,8.38775671
0.3850,8.38614539
0.3900,8.384257635
0.3950,8.382232379
0.4000,8.379807572
0.4050,8.377032663
0.4100,8.373998389
0.4150,8.370610224
0.4200,8.366890308
0.4250,8.362818287
0.4300,8.358401373
0.4350,8.353578787
0.4400,8.348431487
0.4450,8.343109068
0.4500,8.337442423
0.4550,8.331552374
0.4600,8.325527924
0.4650,8.319449858
0.4700,8.313220603
0.4750,8.306858203
0.4800,8.30033582
0.4850,8.293843818
0.4900,8.28717424
0.4950,8.280588238
0.5000,8.274016087
0.5050,8.267298493
0.5100,8.260666175
0.5150,8.254017882
0.5200,8.24725143
0.5250,8.240492064
0.5300,8.233708182
0.5350,8.226771287
0.5400,8.219733158
0.5450,8.212482325
0.5500,8.205165046
0.5550,8.197843777
0.5600,8.190365614
0.5650,8.182782987
0.5700,8.175018553
0.5750,8.167145411
0.5800,8.159064109
0.5850,8.150686927
0.5900,8.142366136
0.5950,8.13384589
0.6000,8.125055656
0.6050,8.116250544
0.6100,8.107508803
0.6150,8.098698685
0.6200,8.089705823
0.6250,8.080743369
0.6300,8.071805068
0.6350,8.063035588
0.6400,8.054413818
0.6450,8.045828968
0.6500,8.037248907
0.6550,8.028910858
0.6600,8.020696675
0.6650,8.012558892
0.6700,8.004608527
0.6750,7.996763342
0.6800,7.989110273
0.6850,7.981833897
0.6900,7.974675164
0.6950,7.967633035
0.7000,7.960877884
0.7050,7.954383252
0.7100,7.947976984
0.7150,7.941896373
0.7200,7.93595282
0.7250,7.930199006
0.7300,7.924714655
0.7350,7.91946641
0.7400,7.914304125
0.7450,7.909252568
0.7500,7.904337278
0.7550,7.899545135
0.7600,7.895004267
0.7650,7.89063928
0.7700,7.886274539
0.7750,7.882152055
0.7800,7.87818954
0.7850,7.874378547
0.7900,7.870730142
0.7950,7.867144008
0.8000,7.863703379
0.8050,7.860409568
0.8100,7.857257295
0.8150,7.854335903
0.8200,7.851560793
0.8250,7.848836102
0.8300,7.846169704
0.8350,7.843469128
0.8400,7.840991396
0.8450,7.838564238
0.8500,7.836192585
0.8550,7.833903967
0.8600,7.831764705
0.8650,7.829657411
0.8700,7.827834996
0.8750,7.82615032
0.8800,7.824703451
0.8850,7.823510837
0.8900,7.822401198
0.8950,7.821573319
0.9000,7.82101162
0.9050,7.820483375
0.9100,7.820065589
0.9150,7.819818854
0.9200,7.819933243
0.9250,7.820125646
0.9300,7.820576524
0.9350,7.821168931
0.9400,7.821939459
0.9450,7.822959439
0.9500,7.824219191
0.9550,7.825556404
0.9600,7.826964747
0.9650,7.828675099
0.9700,7.830516923
0.9750,7.832413638
0.9800,7.834456404
0.9850,7.836463086
0.9900,7.83861711
0.9950,7.84089029
1.0000,7.843124791
1.0050,7.845405213
1.0100,7.847790402
1.0150,7.850188316
1.0200,7.852767461
1.0250,7.855350505
1.0300,7.857935552
1.0350,7.860603919
1.0400,7.863329685
1.0450,7.865954199
1.0500,7.868634489
1.0550,7.871359153
1.0600,7.873981044
1.0650,7.876482866
1.0700,7.879030948
1.0750,7.881640367
1.0800,7.884132636
1.0850,7.886590847
1.0900,7.888974805
1.0950,7.891369797
1.1000,7.893601928
1.1050,7.895826897
1.1100,7.897879745
1.1150,7.899655608
1.1200,7.901308283
1.1250,7.902795302
1.1300,7.904198448
1.1350,7.90569483
1.1400,7.907045934
1.1450,7.908452791
1.1500,7.909754329
1.1550,7.91085693
1.1600,7.91198391
1.1650,7.913018241
1.1700,7.913898101
1.1750,7.914633484
1.1800,7.915248332
1.1850,7.915761511
1.1900,7.916358953
1.1950,7.916720717
1.2000,7.91710984
1.2050,7.917686256
1.2100,7.918361018
1.2150,7.919230601
1.2200,7.920027222
1.2250,7.92084316
1.2300,7.921574013
1.2350,7.922313946
1.2400,7.922958293
1.2450,7.923392323
1.2500,7.923703973
1.2550,7.923877609
1.2600,7.923912527
1.2650,7.923539305
1.2700,7.9229429
1.2750,7.922212307
1.2800,7.921031899
1.2850,7.91964983
1.2900,7.918130066
1.2950,7.916407809
1.3000,7.914462944
1.3050,7.912381636
1.3100,7.910091603
1.3150,7.907678393
1.3200,7.904991984
1.3250,7.902161954
1.3300,7.899188696
1.3350,7.895958204
1.3400,7.892565926
1.3450,7.888944969
1.3500,7.885076607
1.3550,7.880803529
1.3600,7.876197558
1.3650,7.871181938
1.3700,7.865731978
1.3750,7.859615265
1.3800,7.853136687
1.3850,7.846127481
1.3900,7.838704397
1.3950,7.830522289
1.4000,7.821978888
1.4050,7.812717904
1.4100,7.802810998
1.4150,7.792190941
1.4200,7.780902292
1.4250,7.769005096
1.4300,7.756373978
1.4350,7.74295604
1.4400,7.728843383
1.4450,7.71396714
1.4500,7.698446939
1.4550,7.682213659
1.4600,7.665244457
1.4650,7.647594839
1.4700,7.62924673
1.4750,7.61015334
1.4800,7.590352005
1.4850,7.569819143
1.4900,7.548629707
1.4950,7.526857999
1.5000,7.50443914
1.5050,7.481280112
1.5100,7.457270524
1.5150,7.432495912
1.5200,7.40688621
1.5250,7.380712342
1.5300,7.353823692
1.5350,7.325986578
1.5400,7.297452141
1.5450,7.268181761
1.5500,7.238117458
1.5550,7.207288235
1.5600,7.175910186
1.5650,7.144053556
1.5700,7.111779827
1.5750,7.079214478
1.5800,7.046402465
1.5850,7.013329194
1.5900,6.980045047
1.5950,6.946493946
1.6000,6.912804616
1.6050,6.878835263
1.6100,6.844619926
1.6150,6.809995591
1.6200,6.775109285
1.6250,6.739847964
1.6300,6.704327766
1.6350,6.668375772
1.6400,6.631929978
1.6450,6.595221513
1.6500,6.558140779
1.6550,6.52058074
1.6600,6.482498705
1.6650,6.443954956
1.6700,6.404857878
1.6750,6.365310966
1.6800,6.324997295
1.6850,6.284028074
1.6900,6.242252525
1.6950,6.199958194
1.7000,6.156824117
1.7050,6.113104158
1.7100,6.068801445
1.7150,6.024170486
1.7200,5.979092008
1.7250,5.933690746
1.7300,5.887964272
1.7350,5.841819757
1.7400,5.795459953
1.7450,5.748933659
1.7500,5.702350118
1.7550,5.655954967
1.7600,5.609600697
1.7650,5.5634945
1.7700,5.517863578
1.7750,5.472885079
1.7800,5.428639717
1.7850,5.3853281
1.7900,5.342764358
1.7950,5.301310633
1.8000,5.260937135
1.8050,5.221824402
1.8100,5.18399563
1.8150,5.147378238
1.8200,5.112318654
1.8250,5.078445498
1.8300,5.045953806
1.8350,5.014942356
1.8400,4.985200641
1.8450,4.956825374
1.8500,4.929808004
1.8550,4.904257057
1.8600,4.879933588
1.8650,4.857008975
1.8700,4.835215333
1.8750,4.814571696
1.8800,4.795044236
1.8850,4.776632597
1.8900,4.759014542
1.8950,4.742302032
1.9000,4.726501525
1.9050,4.71156521
1.9100,4.69740233
1.9150,4.684127425
1.9200,4.671578965
1.9250,4.659784968
1.9300,4.648540991
1.9350,4.638124267
1.9400,4.628592425
1.9450,4.619944784
1.9500,4.612209515
1.9550,4.605560954
1.9600,4.599888894
1.9650,4.595211207
1.9700,4.591517147
1.9750,4.588785868
1.9800,4.587305738
1.9850,4.586881561
1.9900,4.587659852
1.9950,4.589537962
2.0000,4.592730572
2.0050,4.59711786
2.0100,4.602812418
2.0150,4.609735486
2.0200,4.61794772
2.0250,4.627365181
2.0300,4.638137526
2.0350,4.650395404
2.0400,4.66415666
2.0450,4.679437595
2.0500,4.696234876
2.0550,4.714543753
2.0600,4.734521889
2.0650,4.756229244
2.0700,4.77952461
2.0750,4.804481122
2.0800,4.831121343
2.0850,4.859450202
2.0900,4.889581642
2.0950,4.92138036
2.1000,4.954766091
2.1050,4.989655178
2.1100,5.026037425
2.1150,5.063769724
2.1200,5.102834627
2.1250,5.143158313
2.1300,5.184611142
2.1350,5.22714854
2.1400,5.270801628
2.1450,5.315487114
2.1500,5.36110099
2.1550,5.407528303
2.1600,5.454648242
2.1650,5.502454672
2.1700,5.551107187
2.1750,5.60041602
2.1800,5.650492555
2.1850,5.701160188
2.1900,5.752528664
2.1950,5.804601141
2.2000,5.857291795
2.2050,5.910624069
2.2100,5.964591226
2.2150,6.019249166
2.2200,6.074782485
2.2250,6.131077561
2.2300,6.188221197
2.2350,6.246013021
2.2400,6.304400513
2.2450,6.363344185
2.2500,6.422650486
2.2550,6.48230152
2.2600,6.542332454
2.2650,6.602536009
2.2700,6.663128319
2.2750,6.724077864
2.2800,6.785343449
2.2850,6.846850371
2.2900,6.908627458
2.2950,6.970675567
2.3000,7.032700135
2.3050,7.094871211
2.3100,7.157083121
2.3150,7.21942006
2.3200,7.281875463
2.3250,7.344533958
2.3300,7.407409418
2.3350,7.470585486
2.3400,7.534022225
2.3450,7.597927923
2.3500,7.662250941
2.3550,7.727178367
2.3600,7.79278884
2.3650,7.859069646
2.3700,7.926089869
2.3750,7.993803427
2.3800,8.062262219
2.3850,8.131542698
2.3900,8.201550118
2.3950,8.272543928
2.4000,8.344449295
2.4050,8.417347389
2.4100,8.491376371
2.4150,8.566360082
2.4200,8.642333278
2.4250,8.719324984
2.4300,8.79734564
2.4350,8.876276429
2.4400,8.956321602
2.4450,9.037335788
2.4500,9.119421115
2.4550,9.202499644
2.4600,9.286777047
2.4650,9.37201311
2.4700,9.458321287
2.4750,9.545514548
2.4800,9.633501462
2.4850,9.722274028
2.4900,9.811811349
2.4950,9.902019317
2.5000,9.992915055
2.5050,10.08445246
2.5100,10.17664217
2.5150,10.26926051
2.5200,10.36207171
2.5250,10.45524739
2.5300,10.54850169
2.5350,10.64187733
2.5400,10.73524409
2.5450,10.82837248
2.5500,10.92141324
2.5550,11.01425162
2.5600,11.10675972
2.5650,11.19894621
2.5700,11.29034336
2.5750,11.38093636
2.5800,11.47057669
2.5850,11.55947168
2.5900,11.64765515
2.5950,11.7351743
2.6000,11.82219577
2.6050,11.90861506
2.6100,11.99466264
2.6150,12.0806304
2.6200,12.16639667
2.6250,12.25194309
2.6300,12.33729717
2.6350,12.4224674
2.6400,12.50737445
2.6450,12.59214237
2.6500,12.67680321
2.6550,12.7613314
2.6600,12.84562509
2.6650,12.9295629
2.6700,13.01303147
2.6750,13.0960676
2.6800,13.17869521
2.6850,13.26068175
2.6900,13.34236503
2.6950,13.42361345
2.7000,13.50442796
2.7050,13.58465708
2.7100,13.66412255
2.7150,13.74279137
2.7200,13.82050285
2.7250,13.89743753
2.7300,13.97361656
2.7350,14.04936225
2.7400,14.12443569
2.7450,14.19903555
2.7500,14.27304095
2.7550,14.34677188
2.7600,14.42010497
2.7650,14.4929986
2.7700,14.5652454
2.7750,14.63711411
2.7800,14.70845838
2.7850,14.77932362
2.7900,14.84972929
2.7950,14.91964971
2.8000,14.98900458
2.8050,15.05776461
2.8100,15.12598179
2.8150,15.19373813
2.8200,15.26106761
2.8250,15.32785723
2.8300,15.39451229
2.8350,15.46092785
2.8400,15.52719889
2.8450,15.5935781
2.8500,15.66002315
2.8550,15.7267986
2.8600,15.79396278
2.8650,15.86168585
2.8700,15.93020558
2.8750,15.99939663
2.8800,16.06900846
2.8850,16.13882871
2.8900,16.20872326
2.8950,16.27880034
2.9000,16.3490815
2.9050,16.41963978
2.9100,16.4901861
2.9150,16.56047659
2.9200,16.63087099
2.9250,16.70127251
2.9300,16.77163672
2.9350,16.84170468
2.9400,16.91189644
2.9450,16.98201915
2.9500,17.05216933
2.9550,17.12224072
2.9600,17.19216453
2.9650,17.26219342
2.9700,17.33233254
2.9750,17.4024141
2.9800,17.47238986
2.9850,17.54241867
2.9900,17.61239692
2.9950,17.6819707
3.0000,17.75124836
3.0050,17.81998627
3.0100,17.88847065
3.0150,17.95685877
3.0200,18.02493657
3.0250,18.09269107
3.0300,18.16033335
3.0350,18.22775901
3.0400,18.2949531
3.0450,18.36213441
3.0500,18.42940458
3.0550,18.49656252
3.0600,18.56353518
3.0650,18.63032557
3.0700,18.69685704
3.0750,18.76292571
3.0800,18.8287943
3.0850,18.89416119
3.0900,18.9589311
3.0950,19.02330221
3.1000,19.0871659
3.1050,19.15032878
3.1100,19.21264263
3.1150,19.27414931
3.1200,19.33510643
3.1250,19.39561298
3.1300,19.45560099
3.1350,19.51543893
3.1400,19.57522384
3.1450,19.63489789
3.1500,19.69450069
3.1550,19.75388237
3.1600,19.81327664
3.1650,19.87266738
3.1700,19.93206156
3.1750,19.99144964
3.1800,20.05139165
3.1850,20.11194551
3.1900,20.17289555
3.1950,20.23396433
3.2000,20.29494389
3.2050,20.35579609
3.2100,20.41654025
3.2150,20.47683705
3.2200,20.53642788
3.2250,20.59528956
3.2300,20.65335877
3.2350,20.71072599
3.2400,20.76690044
3.2450,20.82197153
3.2500,20.87574153
3.2550,20.92828382
3.2600,20.97986019
3.2650,21.03045627
3.2700,21.08004172
3.2750,21.12893815
3.2800,21.17728959
3.2850,21.22517209
3.2900,21.272653
3.2950,21.32001442
3.3000,21.36743927
3.3050,21.41527228
3.3100,21.46337501
3.3150,21.51181308
3.3200,21.56066184
3.3250,21.60989521
3.3300,21.65933772
3.3350,21.70898804
3.3400,21.75875762
3.3450,21.80842453
3.3500,21.85791645
3.3550,21.90739346
3.3600,21.95684064
3.3650,22.00649977
3.3700,22.05659032
3.3750,22.10702118
3.3800,22.15785414
3.3850,22.20935532
3.3900,22.2614745
3.3950,22.3140421
3.4000,22.3670912
3.4050,22.42080128
3.4100,22.47532602
3.4150,22.53077462
3.4200,22.58677393
3.4250,22.64359754
3.4300,22.70116744
3.4350,22.75931408
3.4400,22.81782816
3.4450,22.87667671
3.4500,22.9358029
3.4550,22.99501553
3.4600,23.05416529
3.4650,23.11303181
3.4700,23.17145585
3.4750,23.22938915
3.4800,23.28630706
3.4850,23.34206333
3.4900,23.39660483
3.4950,23.44996294
3.5000,23.50213207
3.5050,23.55302121
3.5100,23.60237504
3.5150,23.65028909
3.5200,23.6967733
3.5250,23.74170562
3.5300,23.78511508
3.5350,23.827042
3.5400,23.86755695
3.5450,23.90646477
3.5500,23.94402629
3.5550,23.98017466
3.5600,24.01499793
3.5650,24.04842176
3.5700,24.08086331
3.5750,24.11233405
3.5800,24.14285046
3.5850,24.17251915
3.5900,24.2013142
3.5950,24.22935857
3.6000,24.25654747
3.6050,24.28274291
3.6100,24.30815997
3.6150,24.33285174
3.6200,24.35712978
3.6250,24.38080776
3.6300,24.40394271
3.6350,24.42656851
3.6400,24.4490412
3.6450,24.47135533
3.6500,24.49370748
3.6550,24.51597433
3.6600,24.53837316
3.6650,24.56062154
3.6700,24.58276453
3.6750,24.6050397
3.6800,24.62718763
3.6850,24.64932554
3.6900,24.67144384
3.6950,24.69381576
3.7000,24.71646879
3.7050,24.73950066
3.7100,24.7630327
3.7150,24.78701291
3.7200,24.81187903
3.7250,24.83736989
3.7300,24.86365566
3.7350,24.89063693
3.7400,24.9184615
3.7450,24.94716369
3.7500,24.97671499
3.7550,25.00702378
3.7600,25.03791308
3.7650,25.06927748
3.7700,25.10115175
3.7750,25.13338265
3.7800,25.16593884
3.7850,25.19853705
3.7900,25.23140545
3.7950,25.26440528
3.8000,25.29742906
3.8050,25.33025808
3.8100,25.36272693
3.8150,25.39467945
3.8200,25.42598861
3.8250,25.45668792
3.8300,25.48650025
3.8350,25.51533262
3.8400,25.54318395
3.8450,25.5701922
3.8500,25.59608432
3.8550,25.62112865
3.8600,25.64507315
3.8650,25.667984
3.8700,25.6896989
3.8750,25.71039843
3.8800,25.72982994
3.8850,25.74788098
3.8900,25.76462008
3.8950,25.78002892
3.9000,25.79410826
3.9050,25.80701617
3.9100,25.81842169
3.9150,25.82841874
3.9200,25.83691357
3.9250,25.84415903
3.9300,25.85017001
3.9350,25.85493697
3.9400,25.85836156
3.9450,25.86068548
3.9500,25.86171513
3.9550,25.86160067
3.9600,25.86019462
3.9650,25.85783016
3.9700,25.85431912
3.9750,25.84959855
3.9800,25.84393088
3.9850,25.83710476
3.9900,25.8294241
3.9950,25.82071197
4.0000,25.81128394
4.0050,25.80127751
4.0100,25.79076309
4.0150,25.7797096
4.0200,25.7682309
4.0250,25.75649279
4.0300,25.74442376
4.0350,25.73230996
4.0400,25.72003621
4.0450,25.70752043
4.0500,25.69475887
4.0550,25.68195568
4.0600,25.66907114
4.0650,25.65614817
4.0700,25.64302773
4.0750,25.62974448
4.0800,25.61640496
4.0850,25.60315286
4.0900,25.58972095
4.0950,25.57614753
4.1000,25.56235022
4.1050,25.54825799
4.1100,25.53392544
4.1150,25.51943565
4.1200,25.50463537
4.1250,25.48937008
4.1300,25.4738742
4.1350,25.45795325
4.1400,25.44164936
4.1450,25.42486984
4.1500,25.40767831
4.1550,25.38983502
4.1600,25.37139001
4.1650,25.35244501
4.1700,25.33286217
4.1750,25.31237273
4.1800,25.29128997
4.1850,25.26947843
4.1900,25.24678267
4.1950,25.22319921
4.2000,25.19874048
4.2050,25.17341459
4.2100,25.14725436
4.2150,25.12017007
4.2200,25.09229481
4.2250,25.06332723
4.2300,25.033355
4.2350,25.00234146
4.2400,24.97026315
4.2450,24.93693676
4.2500,24.90251193
4.2550,24.86682162
4.2600,24.83006488
4.2650,24.79215243
4.2700,24.7531322
4.2750,24.71327304
4.2800,24.67253273
4.2850,24.63112762
4.2900,24.58901101
4.2950,24.54636312
4.3000,24.50307568
4.3050,24.45934322
4.3100,24.41500958
4.3150,24.37046202
4.3200,24.32548416
4.3250,24.28019966
4.3300,24.23471946
4.3350,24.18909454
4.3400,24.143551
4.3450,24.09817034
4.3500,24.05300181
4.3550,24.00808157
4.3600,23.96325807
4.3650,23.91861064
4.3700,23.8744357
4.3750,23.83056362
4.3800,23.78710119
4.3850,23.74402256
4.3900,23.70149281
4.3950,23.65948995
4.4000,23.61821156
4.4050,23.57755861
4.4100,23.53785637
4.4150,23.4990647
4.4200,23.46121006
4.4250,23.42432283
4.4300,23.38834928
4.4350,23.35351822
4.4400,23.31972172
4.4450,23.28683207
4.4500,23.25493515
4.4550,23.22373469
4.4600,23.19344576
4.4650,23.16378159
4.4700,23.13474277
4.4750,23.1063822
4.4800,23.07842363
4.4850,23.05079082
4.4900,23.02347797
4.4950,22.99640409
4.5000,22.96951823
4.5050,22.94276362
4.5100,22.91611378
4.5150,22.88956317
4.5200,22.86285246
4.5250,22.83625521
4.5300,22.80965326
4.5350,22.78321338
4.5400,22.75679448
4.5450,22.73042069
4.5500,22.70413217
4.5550,22.67798295
4.5600,22.65198835
4.5650,22.62597149
4.5700,22.60005523
4.5750,22.57391181
4.5800,22.54755505
4.5850,22.52076283
4.5900,22.49364029
4.5950,22.46606645
4.6000,22.43815338
4.6050,22.40947803
4.6100,22.38034745
4.6150,22.35065347
4.6200,22.32035602
4.6250,22.28951749
4.6300,22.25808876
4.6350,22.22612074
4.6400,22.19341186
4.6450,22.16004558
4.6500,22.12602061
4.6550,22.09138499
4.6600,22.05624775
4.6650,22.02084558
4.6700,21.98499228
4.6750,21.94875478
4.6800,21.91206117
4.6850,21.87504803
4.6900,21.83759012
4.6950,21.79963254
4.7000,21.76102693
4.7050,21.72204109
4.7100,21.68255703
4.7150,21.64259592
4.7200,21.60223289
4.7250,21.56160037
4.7300,21.52051631
4.7350,21.47902205
4.7400,21.43700013
4.7450,21.39437106
4.7500,21.35115169
4.7550,21.30749797
4.7600,21.26319314
4.7650,21.21835676
4.7700,21.17296404
4.7750,21.12713026
4.7800,21.08085084
4.7850,21.03423564
4.7900,20.98714854
4.7950,20.93962933
4.8000,20.89163065
4.8050,20.84309827
4.8100,20.7941508
4.8150,20.74485627
4.8200,20.69530459
4.8250,20.64553341
4.8300,20.59569509
4.8350,20.54578824
4.8400,20.49597205
4.8450,20.44632534
4.8500,20.39660461
4.8550,20.34693107
4.8600,20.29711444
4.8650,20.24741719
4.8700,20.19779025
4.8750,20.14838205
4.8800,20.09930764
4.8850,20.05052224
4.8900,20.00197465
4.8950,19.95370273
4.9000,19.90557228
4.9050,19.85769058
4.9100,19.80998906
4.9150,19.76242762
4.9200,19.71503118
4.9250,19.66780539
4.9300,19.62062219
4.9350,19.57340708
4.9400,19.52636153
4.9450,19.47936092
4.9500,19.43243416
4.9550,19.38542767
4.9600,19.33834871
4.9650,19.29110511
4.9700,19.24353802
4.9750,19.19575372
4.9800,19.14770499
4.9850,19.09938656
4.9900,19.0508633
4.9950,19.00193326
5.0000,18.95279862
5.0050,18.90329401
5.0100,18.85341713
5.0150,18.80316908
5.0200,18.75262584
5.0250,18.70181017
5.0300,18.65075179
5.0350,18.59935435
5.0400,18.54773196
5.0450,18.49609544
5.0500,18.44438938
5.0550,18.39264666
5.0600,18.3409968
5.0650,18.28939368
5.0700,18.23789171
5.0750,18.1863825
5.0800,18.13496155
5.0850,18.08367177
5.0900,18.03245556
5.0950,17.98138923
5.1000,17.93043885
5.1050,17.87946782
5.1100,17.82842247
5.1150,17.77716654
5.1200,17.7257294
5.1250,17.67403969
5.1300,17.62202024
5.1350,17.56968798
5.1400,17.51704478
5.1450,17.46412041
5.1500,17.41115449
5.1550,17.35808772
5.1600,17.30513101
5.1650,17.25197149
5.1700,17.19861438
5.1750,17.14485137
5.1800,17.09053477
5.1850,17.03570357
5.1900,16.98024057
5.1950,16.92399317
5.2000,16.86706448
5.2050,16.80961228
5.2100,16.75158576
5.2150,16.69276949
5.2200,16.63314809
5.2250,16.57263538
5.2300,16.51116656
5.2350,16.44877443
5.2400,16.38527348
5.2450,16.32065773
5.2500,16.2549038
5.2550,16.18805502
5.2600,16.12015876
5.2650,16.05099058
5.2700,15.98058508
5.2750,15.90913846
5.2800,15.83641367
5.2850,15.76248323
5.2900,15.68715977
5.2950,15.61063327
5.3000,15.53269786
5.3050,15.45338483
5.3100,15.37269053
5.3150,15.29078794
5.3200,15.20778917
5.3250,15.12385768
5.3300,15.03934157
5.3350,14.95449589
5.3400,14.86965873
5.3450,14.78504896
5.3500,14.70102965
5.3550,14.61795869
5.3600,14.53614336
5.3650,14.45590621
5.3700,14.37774201
5.3750,14.30187366
5.3800,14.22838335
5.3850,14.15734889
5.3900,14.08904208
5.3950,14.02325315
5.4000,13.96001484
5.4050,13.89938552
5.4100,13.8412662
5.4150,13.78551111
5.4200,13.73196546
5.4250,13.68057185
5.4300,13.63113978
5.4350,13.58325497
5.4400,13.5368402
5.4450,13.49162201
5.4500,13.44743217
5.4550,13.40409923
5.4600,13.36126746
5.4650,13.31903244
5.4700,13.27729003
5.4750,13.23610434
5.4800,13.19534103
5.4850,13.15499003
5.4900,13.11507277
5.4950,13.07548981
5.5000,13.03614691
5.5050,12.99692686
5.5100,12.95760118
5.5150,12.91821192
5.5200,12.87867816
5.5250,12.83878248
5.5300,12.79845713
5.5350,12.75752662
5.5400,12.71604587
5.5450,12.67389398
5.5500,12.63084485
5.5550,12.58681388
5.5600,12.54182811
5.5650,12.49590093
5.5700,12.44913456
5.5750,12.40125793
5.5800,12.35258445
5.5850,12.30312025
5.5900,12.25310551
5.5950,12.20252286
5.6000,12.15149996
5.6050,12.10033927
5.6100,12.0490861
5.6150,11.99775954
5.6200,11.94638045
5.6250,11.89505604
5.6300,11.84390177
5.6350,11.79310668
5.6400,11.74274409
5.6450,11.69302823
5.6500,11.64390602
5.6550,11.59546176
5.6600,11.54765153
5.6650,11.5005925
5.6700,11.45420428
5.6750,11.4085041
5.6800,11.36370562
5.6850,11.31993308
5.6900,11.27723532
5.6950,11.235817
5.7000,11.19553591
5.7050,11.15650586
5.7100,11.11853876
5.7150,11.08177459
5.7200,11.04599506
5.7250,11.01102414
5.7300,10.97679835
5.7350,10.94331379
5.7400,10.91050329
5.7450,10.8783051
5.7500,10.8466819
5.7550,10.81552997
5.7600,10.78509257
5.7650,10.75535149
5.7700,10.72612261
5.7750,10.69752222
5.7800,10.66960462
5.7850,10.64244488
5.7900,10.61583546
5.7950,10.58993067
5.8000,10.56463623
5.8050,10.53985606
5.8100,10.51565874
5.8150,10.49212325
5.8200,10.46923653
5.8250,10.44705964
5.8300,10.42548881
5.8350,10.4046854
5.8400,10.3844653
5.8450,10.36468058
5.8500,10.34522714
5.8550,10.32609021
5.8600,10.30714433
5.8650,10.28829141
5.8700,10.26943693
5.8750,10.25071344
5.8800,10.23210084
5.8850,10.21345163
5.8900,10.19467567
5.8950,10.17586442
5.9000,10.15693717
5.9050,10.13793862
5.9100,10.11888269
5.9150,10.09967674
5.9200,10.08038777
5.9250,10.06075812
5.9300,10.04082565
5.9350,10.02042541
5.9400,9.999537416
5.9450,9.978094913
5.9500,9.95599062
5.9550,9.933402358
5.9600,9.910429229
5.9650,9.886862793
5.9700,9.862915801
5.9750,9.838450491
5.9800,9.813450666
5.9850,9.78774567
5.9900,9.761239626
5.9950,9.733778732
6.0000,9.705502224
6.0050,9.676321751
6.0100,9.646474208
6.0150,9.615888799
6.0200,9.584743183
6.0250,9.55300906
6.0300,9.520699229
6.0350,9.488001359
6.0400,9.454960639
6.0450,9.421779027
6.0500,9.38856089
6.0550,9.355450632
6.0600,9.322311623
6.0650,9.289386029
6.0700,9.256840381
6.0750,9.224744647
6.0800,9.193293122
6.0850,9.162510307
6.0900,9.132701673
6.0950,9.10406777
6.1000,9.076668332
6.1050,9.050854932
6.1100,9.026640694
6.1150,9.004164894
6.1200,8.983398232
6.1250,8.964398732
6.1300,8.94730628
6.1350,8.931794939
6.1400,8.918044551
6.1450,8.905928825
6.1500,8.895537619
6.1550,8.886754001
6.1600,8.879406439
6.1650,8.873590096
6.1700,8.869283407
6.1750,8.866273043
6.1800,8.864343313
6.1850,8.863517322
6.1900,8.863734279
6.1950,8.864883679
6.2000,8.86704681
6.2050,8.870060495
6.2100,8.873751738
6.2150,8.878316164
6.2200,8.883585829
6.2250,8.889736293
6.2300,8.896505395
6.2350,8.903817944
6.2400,8.911727282
6.2450,8.919960866
6.2500,8.928329911
6.2550,8.936566737
6.2600,8.944368651
6.2650,8.951761263
6.2700,8.958358477
6.2750,8.964248338
6.2800,8.969202609
6.2850,8.973434087
6.2900,8.97675629
6.2950,8.97916066
6.3000,8.980738472
6.3050,8.98136341
6.3100,8.98093809
6.3150,8.979397652
6.3200,8.976820826
6.3250,8.973102175
6.3300,8.96823625
6.3350,8.962133389
6.3400,8.954689209
6.3450,8.945871263
6.3500,8.935591568
6.3550,8.92373323
6.3600,8.910330782
6.3650,8.895420719
6.3700,8.878928043
6.3750,8.860793259
6.3800,8.841125695
6.3850,8.819783648
6.3900,8.797077017
6.3950,8.772852817
6.4000,8.747483803
6.4050,8.720878607
6.4100,8.693326107
6.4150,8.66486484
6.4200,8.635885733
6.4250,8.606405283
6.4300,8.576713459
6.4350,8.546979623
6.4400,8.517306385
6.4450,8.487844565
6.4500,8.458682843
6.4550,8.429828553
6.4600,8.401448027
6.4650,8.37338982
6.4700,8.345740954
6.4750,8.318580735
6.4800,8.29193992
6.4850,8.265713361
6.4900,8.24004495
6.4950,8.214811171
6.5000,8.189991468
6.5050,8.165604603
6.5100,8.141692108
6.5150,8.11785603
6.5200,8.094152719
6.5250,8.070605987
6.5300,8.047253141
6.5350,8.023992178
6.5400,8.000747971
6.5450,7.977671884
6.5500,7.954923508
6.5550,7.932471782
6.5600,7.910441984
6.5650,7.888891666
6.5700,7.867830712
6.5750,7.847116262
6.5800,7.826762694
6.5850,7.806590349
6.5900,7.786849603
6.5950,7.767350407
6.6000,7.747997994
6.6050,7.728887217
6.6100,7.710126893
6.6150,7.691666141
6.6200,7.673429569
6.6250,7.655510542
6.6300,7.637924342
6.6350,7.620587631
6.6400,7.60368258
6.6450,7.587107709
6.6500,7.570929608
6.6550,7.555035876
6.6600,7.539590679
6.6650,7.524332911
6.6700,7.509404508
6.6750,7.494862148
6.6800,7.480543459
6.6850,7.466719636
6.6900,7.453084829
6.6950,7.439893522
6.7000,7.426842048
6.7050,7.414297344
6.7100,7.40211322
6.7150,7.390208706
6.7200,7.378672775
6.7250,7.36743331
6.7300,7.356376496
6.7350,7.345568585
6.7400,7.334909411
6.7450,7.324525176
6.7500,7.314361398
6.7550,7.304387382
6.7600,7.294563238
6.7650,7.284854658
6.7700,7.275207061
6.7750,7.265524112
6.7800,7.25567667
6.7850,7.245676473
6.7900,7.235383108
6.7950,7.224942444
6.8000,7.214253321
6.8050,7.203071684
6.8100,7.191515798
6.8150,7.179589093
6.8200,7.167314244
6.8250,7.154598965
6.8300,7.141529331
6.8350,7.12825762
6.8400,7.114719654
6.8450,7.100804124
6.8500,7.086605976
6.8550,7.071978854
6.8600,7.056908944
6.8650,7.041384385
6.8700,7.025179625
6.8750,7.008481686
6.8800,6.991231604
6.8850,6.973321857
6.8900,6.954876779
6.8950,6.935977316
6.9000,6.916628067
6.9050,6.896881763
6.9100,6.876651784
6.9150,6.856096833
6.9200,6.835129236
6.9250,6.813956714
6.9300,6.792559659
6.9350,6.771080442
6.9400,6.749245804
6.9450,6.727197744
6.9500,6.704826446
6.9550,6.682294715
6.9600,6.659375099
6.9650,6.636122643
6.9700,6.612482683
6.9750,6.58849066
6.9800,6.564109407
6.9850,6.539283569
6.9900,6.514202113
6.9950,6.488779224
7.0000,6.463083051
7.0050,6.436871649
7.0100,6.410404716
7.0150,6.383753513
7.0200,6.357006378
7.0250,6.330328439
7.0300,6.303913968
7.0350,6.277952305
7.0400,6.252474328
7.0450,6.227502621
7.0500,6.203119994
7.0550,6.179477792
7.0600,6.156722881
7.0650,6.134793492
7.0700,6.113704659
7.0750,6.093650642
7.0800,6.074648395
7.0850,6.05674782
7.0900,6.039857299
7.0950,6.023950657
7.1000,6.008990526
7.1050,5.995109572
7.1100,5.982143892
7.1150,5.970199598
7.1200,5.9592003
7.1250,5.9490505
7.1300,5.939699631
7.1350,5.931072136
7.1400,5.923136622
7.1450,5.915825693
7.1500,5.909155561
7.1550,5.903283054
7.1600,5.898313299
7.1650,5.894107012
7.1700,5.890945639
7.1750,5.888722545
7.1800,5.887573383
7.1850,5.88764939
7.1900,5.88869844
7.1950,5.890867947
7.2000,5.894084548
7.2050,5.898427922
7.2100,5.903718183
7.2150,5.909960785
7.2200,5.917081447
7.2250,5.925031205
7.2300,5.933615585
7.2350,5.942837185
7.2400,5.952575621
7.2450,5.962783369
7.2500,5.973405584
7.2550,5.98430895
7.2600,5.995596248
7.2650,6.007139224
7.2700,6.018844434
7.2750,6.030748971
7.2800,6.042842059
7.2850,6.05497837
7.2900,6.067100864
7.2950,6.07914333
7.3000,6.091262665
7.3050,6.103479034
7.3100,6.115648323
7.3150,6.127896692
7.3200,6.139793758
7.3250,6.151490075
7.3300,6.16289986
7.3350,6.173924639
7.3400,6.184514215
7.3450,6.194791224
7.3500,6.204626518
7.3550,6.213988887
7.3600,6.222750712
7.3650,6.231045254
7.3700,6.238771974
7.3750,6.245695912
7.3800,6.251989331
7.3850,6.25754777
7.3900,6.262621494
7.3950,6.267032261
7.4000,6.270944783
7.4050,6.274013685
7.4100,6.276475359
7.4150,6.27835416
7.4200,6.279446542
7.4250,6.279933354
7.4300,6.279907312
7.4350,6.279310767
7.4400,6.278241941
7.4450,6.276976378
7.4500,6.275539523
7.4550,6.274030903
7.4600,6.272282769
7.4650,6.270527162
7.4700,6.268911413
7.4750,6.267414606
7.4800,6.266277229
7.4850,6.265374508
7.4900,6.265006504
7.4950,6.2651366
7.5000,6.266028934
7.5050,6.26751687
7.5100,6.269992246
7.5150,6.273364206
7.5200,6.278062983
7.5250,6.283881136
7.5300,6.291031525
7.5350,6.299370098
7.5400,6.308965944
7.5450,6.319768825
7.5500,6.331851803
7.5550,6.345200879
7.5600,6.359652752
7.5650,6.375259174
7.5700,6.392074932
7.5750,6.409802789
7.5800,6.428431726
7.5850,6.448066097
7.5900,6.468606417
7.5950,6.489906876
7.6000,6.511715213
7.6050,6.534035344
7.6100,6.556739311
7.6150,6.579716795
7.6200,6.603070806
7.6250,6.626574503
7.6300,6.650157551
7.6350,6.67357799
7.6400,6.696835873
7.6450,6.719788171
7.6500,6.74231441
7.6550,6.764336764
7.6600,6.785686076
7.6650,6.806293262
7.6700,6.826203138
7.6750,6.845432011
7.6800,6.863847568
7.6850,6.8815896
7.6900,6.898286056
7.6950,6.91420511
7.7000,6.929230153
7.7050,6.943675902
7.7100,6.957528625
7.7150,6.970808082
7.7200,6.983883368
7.7250,6.996923789
7.7300,7.0097724
7.7350,7.022681279
7.7400,7.035719255
7.7450,7.048928008
7.7500,7.062306097
7.7550,7.075707498
7.7600,7.089608272
7.7650,7.103859456
7.7700,7.11842892
7.7750,7.133519317
7.7800,7.149199795
7.7850,7.165556363
7.7900,7.182535447
7.7950,7.200271327
7.8000,7.218859618
7.8050,7.238374042
7.8100,7.258810674
7.8150,7.280342626
7.8200,7.302612843
7.8250,7.325706378
7.8300,7.349735629
7.8350,7.374786393
7.8400,7.400874754
7.8450,7.428028994
7.8500,7.456151664
7.8550,7.485162051
7.8600,7.515053387
7.8650,7.545730718
7.8700,7.577068972
7.8750,7.608988492
7.8800,7.641621715
7.8850,7.674711439
7.8900,7.708273345
7.8950,7.742418511
7.9000,7.777157334
7.9050,7.812370903
7.9100,7.847891107
7.9150,7.883863946
7.9200,7.920074182
7.9250,7.956534913
7.9300,7.993244114
7.9350,8.030047023
7.9400,8.066903206
7.9450,8.103791137
7.9500,8.140717628
7.9550,8.17745252
7.9600,8.214202509
7.9650,8.250856434
7.9700,8.287371857
7.9750,8.323639076
7.9800,8.359641044
7.9850,8.395344753
7.9900,8.43091286
7.9950,8.466394387
8.0000,8.501894757
8.0050,8.537489033
8.0100,8.573075413
8.0150,8.608850176
8.0200,8.644833646
8.0250,8.680884565
8.0300,8.717193006
8.0350,8.75372969
8.0400,8.790486646
8.0450,8.827443054
8.0500,8.86462314
8.0550,8.902182393
8.0600,8.939953478
8.0650,8.978173588
8.0700,9.016760954
8.0750,9.055856565
8.0800,9.09516086
8.0850,9.134882655
8.0900,9.175047932
8.0950,9.215706398
8.1000,9.256714128
8.1050,9.298219998
8.1100,9.340220342
8.1150,9.382709696
8.1200,9.425911696
8.1250,9.47000893
8.1300,9.514912367
8.1350,9.560664233
8.1400,9.607301562
8.1450,9.654807521
8.1500,9.703105571
8.1550,9.752498974
8.1600,9.802878998
8.1650,9.854278375
8.1700,9.906665222
8.1750,9.96007061
8.1800,10.01421441
8.1850,10.06913284
8.1900,10.1247734
8.1950,10.18092432
8.2000,10.23762263
8.2050,10.29482503
8.2100,10.35254698
8.2150,10.41053238
8.2200,10.46875776
8.2250,10.52701486
8.2300,10.58522305
8.2350,10.64350089
8.2400,10.7017867
8.2450,10.75991405
8.2500,10.8179021
8.2550,10.87575209
8.2600,10.93319426
8.2650,10.99030399
8.2700,11.04703669
8.2750,11.10338576
8.2800,11.15956383
8.2850,11.21527541
8.2900,11.27064593
8.2950,11.32550172
8.3000,11.37969373
8.3050,11.43333815
8.3100,11.48646796
8.3150,11.53929682
8.3200,11.59197992
8.3250,11.64471246
8.3300,11.6976661
8.3350,11.75069637
8.3400,11.80403356
8.3450,11.85767736
8.3500,11.91189486
8.3550,11.96694571
8.3600,12.02299157
8.3650,12.08013283
8.3700,12.13861932
8.3750,12.19834536
8.3800,12.25963237
8.3850,12.3226461
8.3900,12.38741896
8.3950,12.45419959
8.4000,12.5231403
8.4050,12.59425632
8.4100,12.66753562
8.4150,12.74292857
8.4200,12.82047035
8.4250,12.8999326
8.4300,12.98126298
8.4350,13.06446518
8.4400,13.14942587
8.4450,13.2358316
8.4500,13.32366776
8.4550,13.41243598
8.4600,13.50221385
8.4650,13.592961
8.4700,13.68453683
8.4750,13.77678664
8.4800,13.86978996
8.4850,13.96367206
8.4900,14.05811177
8.4950,14.15314501
8.5000,14.24857107
8.5050,14.34409039
8.5100,14.43975869
8.5150,14.53520956
8.5200,14.63052694
8.5250,14.72562692
8.5300,14.82016723
8.5350,14.91405714
8.5400,15.00726886
8.5450,15.09966473
8.5500,15.19121193
8.5550,15.28189628
8.5600,15.37173906
8.5650,15.460839
8.5700,15.54929113
8.5750,15.6369928
8.5800,15.72381953
8.5850,15.809992
8.5900,15.89547985
8.5950,15.98041493
8.6000,16.06500291
8.6050,16.14950025
8.6100,16.23438124
8.6150,16.31974008
8.6200,16.40575255
8.6250,16.49271345
8.6300,16.58086295
8.6350,16.67072529
8.6400,16.76213263
8.6450,16.85515554
8.6500,16.94967509
8.6550,17.04565334
8.6600,17.14317371
8.6650,17.24210185
8.6700,17.34232836
8.6750,17.44399995
8.6800,17.54708245
8.6850,17.65155222
8.6900,17.75755605
8.6950,17.86456455
8.7000,17.97241613
8.7050,18.08070628
8.7100,18.18921316
8.7150,18.29770367
8.7200,18.40574088
8.7250,18.51321666
8.7300,18.61989183
8.7350,18.72543908
8.7400,18.82981615
8.7450,18.93292739
8.7500,19.03449987
8.7550,19.13451452
8.7600,19.23286822
8.7650,19.32951234
8.7700,19.42456008
8.7750,19.51785775
8.7800,19.60910948
8.7850,19.69798258
8.7900,19.78445339
8.7950,19.86862455
8.8000,19.95072884
8.8050,20.03091619
8.8100,20.10931992
8.8150,20.18601205
8.8200,20.26108371
8.8250,20.33482945
8.8300,20.40751621
8.8350,20.47918334
8.8400,20.54986499
8.8450,20.61983543
8.8500,20.68926905
8.8550,20.75829398
8.8600,20.82704954
8.8650,20.89558819
8.8700,20.96404371
8.8750,21.0324811
8.8800,21.10104035
8.8850,21.16966399
8.8900,21.23852192
8.8950,21.30786571
8.9000,21.37799666
8.9050,21.44890514
8.9100,21.52046365
8.9150,21.59283416
8.9200,21.66590671
8.9250,21.73941377
8.9300,21.81320128
8.9350,21.88712812
8.9400,21.96112562
8.9450,22.03536202
8.9500,22.10988513
8.9550,22.18484701
8.9600,22.2599575
8.9650,22.33518786
8.9700,22.41037979
8.9750,22.48539491
8.9800,22.56028245
8.9850,22.6346978
8.9900,22.70837656
8.9950,22.78156891
9.0000,22.85415292
9.0050,22.92615622
9.0100,22.99720501
9.0150,23.06693988
9.0200,23.13517484
9.0250,23.20192151
9.0300,23.26693247
9.0350,23.3302728
9.0400,23.39183777
9.0450,23.45164278
9.0500,23.50971436
9.0550,23.56614648
9.0600,23.62084225
9.0650,23.67380464
9.0700,23.72491026
9.0750,23.7743376
9.0800,23.82229533
9.0850,23.86905862
9.0900,23.91485058
9.0950,23.95971509
9.1000,24.00346846
9.1050,24.04621026
9.1100,24.08802299
9.1150,24.12898449
9.1200,24.16918153
9.1250,24.20868652
9.1300,24.2477007
9.1350,24.28629037
9.1400,24.32454247
9.1450,24.36236644
9.1500,24.39971159
9.1550,24.43663391
9.1600,24.47296833
9.1650,24.50869516
9.1700,24.54346812
9.1750,24.57775998
9.1800,24.6116712
9.1850,24.64575604
9.1900,24.6801872
9.1950,24.71505532
9.2000,24.75053419
9.2050,24.78667945
9.2100,24.82362414
9.2150,24.8612661
9.2200,24.89953113
9.2250,24.93867993
9.2300,24.97872818
9.2350,25.01976779
9.2400,25.06213788
9.2450,25.10563367
9.2500,25.15008761
9.2550,25.19512939
9.2600,25.24065997
9.2650,25.28672369
9.2700,25.33338957
9.2750,25.38057461
9.2800,25.42825574
9.2850,25.47626858
9.2900,25.52448379
9.2950,25.5728671
9.3000,25.62112169
9.3050,25.66929245
9.3100,25.71763503
9.3150,25.76641989
9.3200,25.81578055
9.3250,25.86542852
9.3300,25.91538027
9.3350,25.96537882
9.3400,26.01527141
9.3450,26.06506376
9.3500,26.11476655
9.3550,26.16423361
9.3600,26.21362141
9.3650,26.2626735
9.3700,26.31143063
9.3750,26.35985572
9.3800,26.40764425
9.3850,26.45462634
9.3900,26.50060308
9.3950,26.54551504
9.4000,26.58952187
9.4050,26.63263665
9.4100,26.67476536
9.4150,26.7158152
9.4200,26.75579832
9.4250,26.7945567
9.4300,26.8319994
9.4350,26.86815203
9.4400,26.90300048
9.4450,26.9366257
9.4500,26.96910258
9.4550,27.00021235
9.4600,27.03017955
9.4650,27.05906929
9.4700,27.08699111
9.4750,27.11398968
9.4800,27.14013393
9.4850,27.16533185
9.4900,27.18973665
9.4950,27.21326456
9.5000,27.23582676
9.5050,27.25736568
9.5100,27.27793802
9.5150,27.2975862
9.5200,27.31644975
9.5250,27.3343803
9.5300,27.35167673
9.5350,27.36803786
9.5400,27.38332099
9.5450,27.39752108
9.5500,27.41084325
9.5550,27.4233518
9.5600,27.43503958
9.5650,27.4460762
9.5700,27.4564578
9.5750,27.46631171
9.5800,27.47520856
9.5850,27.48349736
9.5900,27.49121845
9.5950,27.49843734
9.6000,27.50531416
9.6050,27.51181788
9.6100,27.51793714
9.6150,27.5236745
9.6200,27.52897589
9.6250,27.53409564
9.6300,27.53937586
9.6350,27.54476166
9.6400,27.55041686
9.6450,27.55635254
9.6500,27.56243139
9.6550,27.56866867
9.6600,27.57475649
9.6650,27.58097566
9.6700,27.58726339
9.6750,27.59344629
9.6800,27.59961146
9.6850,27.60593068
9.6900,27.61235922
9.6950,27.61877429
9.7000,27.62510152
9.7050,27.6312956
9.7100,27.63731488
9.7150,27.6433503
9.7200,27.64932671
9.7250,27.65528147
9.7300,27.66133052
9.7350,27.66738141
9.7400,27.67338692
9.7450,27.6792111
9.7500,27.68486846
9.7550,27.69053891
9.7600,27.69625906
9.7650,27.70199287
9.7700,27.70818878
9.7750,27.71470491
9.7800,27.72169234
9.7850,27.72909534
9.7900,27.73699134
9.7950,27.74557185
9.8000,27.75497419
9.8050,27.76552492
9.8100,27.77733853
9.8150,27.79047026
9.8200,27.804907
9.8250,27.82066803
9.8300,27.83758493
9.8350,27.85584392
9.8400,27.8754015
9.8450,27.89612214
9.8500,27.91781793
9.8550,27.94042853
9.8600,27.96389962
9.8650,27.98791328
9.8700,28.01231398
9.8750,28.03700485
9.8800,28.06191894
9.8850,28.08699108
9.8900,28.11213267
9.8950,28.13699754
9.9000,28.16160541
9.9050,28.18574814
9.9100,28.20941466
9.9150,28.23273099
9.9200,28.2555463
9.9250,28.27766008
9.9300,28.29882029
9.9350,28.31916605
9.9400,28.33843828
9.9450,28.35669602
9.9500,28.37406118
9.9550,28.39040691
9.9600,28.40587139
9.9650,28.42017955
9.9700,28.43325701
9.9750,28.4451834
9.9800,28.45591508
9.9850,28.46541197
9.9900,28.47362315
9.9950,28.48054859
10.0000,28.48606962
10.0050,28.49008882
10.0100,28.49251666
10.0150,28.4932866
10.0200,28.49246305
10.0250,28.49006206
10.0300,28.48599719
10.0350,28.48034796
10.0400,28.47306357
10.0450,28.46428659
10.0500,28.45382744
10.0550,28.44194964
10.0600,28.42850018
10.0650,28.41357653
10.0700,28.39703656
10.0750,28.37914115
10.0800,28.35978483
10.0850,28.33915134
10.0900,28.31740265
10.0950,28.29468263
10.1000,28.27106408
10.1050,28.24652683
10.1100,28.22123029
10.1150,28.19526535
10.1200,28.16871962
10.1250,28.1418528
10.1300,28.11471452
10.1350,28.08734747
10.1400,28.05978167
10.1450,28.0322448
10.1500,28.00471314
10.1550,27.97730429
10.1600,27.94998406
10.1650,27.92271126
10.1700,27.89562693
10.1750,27.86863651
10.1800,27.84204434
10.1850,27.81582816
10.1900,27.78993887
10.1950,27.76456034
10.2000,27.73954433
10.2050,27.71516643
10.2100,27.69130455
10.2150,27.66776903
10.2200,27.6447206
10.2250,27.62217291
10.2300,27.60000565
10.2350,27.57823856
10.2400,27.5571045
10.2450,27.53654518
10.2500,27.51644257
10.2550,27.49700094
10.2600,27.47787803
10.2650,27.45926277
10.2700,27.44094494
10.2750,27.42309664
10.2800,27.40561828
10.2850,27.38826467
10.2900,27.37110895
10.2950,27.35413367
10.3000,27.33724089
10.3050,27.32037971
10.3100,27.30373784
10.3150,27.28726447
10.3200,27.2708953
10.3250,27.25460824
10.3300,27.23834646
10.3350,27.22213784
10.3400,27.20615989
10.3450,27.19020878
10.3500,27.17432502
10.3550,27.15855467
10.3600,27.14296628
10.3650,27.12783969
10.3700,27.11312374
10.3750,27.09878726
10.3800,27.08493732
10.3850,27.07142759
10.3900,27.0582977
10.3950,27.04537328
10.4000,27.03269169
10.4050,27.02023787
10.4100,27.00781306
10.4150,26.99550984
10.4200,26.98342419
10.4250,26.97137272
10.4300,26.95936204
10.4350,26.94732949
10.4400,26.93531542
10.4450,26.92327165
10.4500,26.91112245
10.4550,26.89877851
10.4600,26.88626812
10.4650,26.87373509
10.4700,26.86117626
10.4750,26.84861913
10.4800,26.836037
10.4850,26.82345802
10.4900,26.81106894
10.4950,26.79881435
10.5000,26.78699274
10.5050,26.77552361
10.5100,26.76450271
10.5150,26.754007
10.5200,26.74392347
10.5250,26.73423406
10.5300,26.72510195
10.5350,26.71626509
10.5400,26.70750169
10.5450,26.69888621
10.5500,26.69045862
10.5550,26.68225344
10.5600,26.67445596
10.5650,26.66699691
10.5700,26.65997745
10.5750,26.65327967
10.5800,26.64696935
10.5850,26.64107569
10.5900,26.63544229
10.5950,26.63001949
10.6000,26.62477343
10.6050,26.61975626
10.6100,26.61475477
10.6150,26.61006873
10.6200,26.6056365
10.6250,26.60139974
10.6300,26.59730351
10.6350,26.5932436
10.6400,26.58920154
10.6450,26.58537989
10.6500,26.58167681
10.6550,26.57797143
10.6600,26.57411887
10.6650,26.56987891
10.6700,26.5650904
10.6750,26.55956417
10.6800,26.55345819
10.6850,26.54694443
10.6900,26.53970066
10.6950,26.53187263
10.7000,26.52363315
10.7050,26.51496021
10.7100,26.50588541
10.7150,26.49621973
10.7200,26.48578236
10.7250,26.47464031
10.7300,26.46271575
10.7350,26.44997922
10.7400,26.43645136
10.7450,26.42208985
10.7500,26.40686107
10.7550,26.39094107
10.7600,26.374334
10.7650,26.35720117
10.7700,26.33936688
10.7750,26.32087993
10.7800,26.30178031
10.7850,26.2820127
10.7900,26.26157115
10.7950,26.24059322
10.8000,26.21907892
10.8050,26.19691776
10.8100,26.17427364
10.8150,26.15121555
10.8200,26.12786888
10.8250,26.1043098
10.8300,26.08041195
10.8350,26.05647137
10.8400,26.03266321
10.8450,26.00862467
10.8500,25.98453093
10.8550,25.96018632
10.8600,25.93561386
10.8650,25.91064472
10.8700,25.88530956
10.8750,25.85965183
10.8800,25.83380541
10.8850,25.8078218
10.8900,25.78170251
10.8950,25.75548275
10.9000,25.72930236
10.9050,25.70289345
10.9100,25.67640413
10.9150,25.64962925
10.9200,25.62259745
10.9250,25.59531288
10.9300,25.567817
10.9350,25.54021521
10.9400,25.51239472
10.9450,25.48428564
10.9500,25.45588367
10.9550,25.42684058
10.9600,25.39744122
10.9650,25.36747107
10.9700,25.33714744
10.9750,25.30644242
10.9800,25.27524135
10.9850,25.24342897
10.9900,25.2111153
10.9950,25.17837412
11.0000,25.14507746
11.0050,25.11109183
11.0100,25.07662025
11.0150,25.04169886
11.0200,25.00650694
11.0250,24.97092683
11.0300,24.93501224
11.0350,24.89883274
11.0400,24.86228103
11.0450,24.82542608
11.0500,24.78837724
11.0550,24.75112137
11.0600,24.71358966
11.0650,24.67556913
11.0700,24.63736566
11.0750,24.59900151
11.0800,24.56051411
11.0850,24.52205591
11.0900,24.48364695
11.0950,24.44517643
11.1000,24.40670865
11.1050,24.36833707
11.1100,24.33002284
11.1150,24.29168976
11.1200,24.25335274
11.1250,24.21509482
11.1300,24.17683863
11.1350,24.13846115
11.1400,24.09992374
11.1450,24.06146022
11.1500,24.02286634
11.1550,23.98416858
11.1600,23.9454024
11.1650,23.90659365
11.1700,23.86770696
11.1750,23.82862942
11.1800,23.78927367
11.1850,23.74957469
11.1900,23.70964804
11.1950,23.66936122
11.2000,23.62893223
11.2050,23.58841449
11.2100,23.54787694
11.2150,23.50719107
11.2200,23.46629557
11.2250,23.42523715
11.2300,23.38412943
11.2350,23.3428432
11.2400,23.30141727
11.2450,23.25983181
11.2500,23.21811338
11.2550,23.17617492
11.2600,23.1338131
11.2650,23.09114127
11.2700,23.04789532
11.2750,23.00403527
11.2800,22.95949099
11.2850,22.91416353
11.2900,22.86807626
11.2950,22.82108484
11.3000,22.77311325
11.3050,22.72425409
11.3100,22.67451687
11.3150,22.623809
11.3200,22.5721039
11.3250,22.51943955
11.3300,22.46562755
11.3350,22.41088267
11.3400,22.35519066
11.3450,22.29848756
11.3500,22.2409336
11.3550,22.18230359
11.3600,22.1227229
11.3650,22.06226992
11.3700,22.0008707
11.3750,21.93845666
11.3800,21.8750216
11.3850,21.81039519
11.3900,21.74466185
11.3950,21.67787726
11.4000,21.60995961
11.4050,21.54096998
11.4100,21.47084413
11.4150,21.39971457
11.4200,21.32772478
11.4250,21.25481348
11.4300,21.18127735
11.4350,21.10707305
11.4400,21.03235453
11.4450,20.95702837
11.4500,20.88107011
11.4550,20.80470865
11.4600,20.7278336
11.4650,20.65027218
11.4700,20.57236154
11.4750,20.49404956
11.4800,20.41530921
11.4850,20.33618738
11.4900,20.25672607
11.4950,20.17696415
11.5000,20.0966728
11.5050,20.0160405
11.5100,19.93484067
11.5150,19.8533722
11.5200,19.77150219
11.5250,19.68940624
11.5300,19.60680071
11.5350,19.52385456
11.5400,19.44032906
11.5450,19.35624353
11.5500,19.27170963
11.5550,19.18681162
11.5600,19.10158267
11.5650,19.0160315
11.5700,18.93010351
11.5750,18.84407464
11.5800,18.75781021
11.5850,18.67151199
11.5900,18.58528675
11.5950,18.49921345
11.6000,18.41330295
11.6050,18.32779562
11.6100,18.24250856
11.6150,18.15760979
11.6200,18.07335921
11.6250,17.98982451
11.6300,17.90740649
11.6350,17.82613539
11.6400,17.74617493
11.6450,17.66761787
11.6500,17.59016547
11.6550,17.5139917
11.6600,17.43908319
11.6650,17.36545378
11.6700,17.29327401
11.6750,17.22258553
11.6800,17.1532288
11.6850,17.08534481
11.6900,17.0191259
11.6950,16.95477839
11.7000,16.8923976
11.7050,16.83212008
11.7100,16.7739522
11.7150,16.71795981
11.7200,16.66399331
11.7250,16.61200843
11.7300,16.56182239
11.7350,16.51365687
11.7400,16.46736386
11.7450,16.4229082
11.7500,16.38025977
11.7550,16.33903138
11.7600,16.29919233
11.7650,16.26078194
11.7700,16.22338287
11.7750,16.18696852
11.7800,16.15135636
11.7850,16.11618943
11.7900,16.08154023
11.7950,16.04718159
11.8000,16.01310528
11.8050,15.97926463
11.8100,15.94541991
11.8150,15.91132786
11.8200,15.87726871
11.8250,15.84294846
11.8300,15.80854011
11.8350,15.77380225
11.8400,15.73903936
11.8450,15.70416194
11.8500,15.66908392
11.8550,15.63388594
11.8600,15.59859757
11.8650,15.56291043
11.8700,15.52703633
11.8750,15.49034966
11.8800,15.45283261
11.8850,15.41439234
11.8900,15.37486505
11.8950,15.3342422
11.9000,15.29247533
11.9050,15.24942817
11.9100,15.20547876
11.9150,15.16058769
11.9200,15.11497818
11.9250,15.0687034
11.9300,15.02180894
11.9350,14.97438078
11.9400,14.92645858
11.9450,14.87847277
11.9500,14.83071932
11.9550,14.78329008
11.9600,14.73630474
11.9650,14.68994023
11.9700,14.6442256
11.9750,14.59938992
11.9800,14.55565054
11.9850,14.51319854
11.9900,14.47188121
11.9950,14.43155069
12.0000,14.39216366
12.0050,14.3534719
12.0100,14.3154315
12.0150,14.27786683
12.0200,14.24067689
12.0250,14.20377199
12.0300,14.16706345
12.0350,14.13039147
12.0400,14.09376607
12.0450,14.0570484
12.0500,14.0203466
12.0550,13.98372163
12.0600,13.94706891
12.0650,13.91036815
12.0700,13.87364113
12.0750,13.83667968
12.0800,13.7994252
12.0850,13.76201224
12.0900,13.72419103
12.0950,13.68606284
12.1000,13.64737017
12.1050,13.6079442
12.1100,13.56788685
12.1150,13.5269998
12.1200,13.48509117
12.1250,13.44214854
12.1300,13.39819869
12.1350,13.35327962
12.1400,13.30718601
12.1450,13.25999723
12.1500,13.21159872
12.1550,13.16221564
12.1600,13.11166341
12.1650,13.0603395
12.1700,13.00824662
12.1750,12.95575634
12.1800,12.90306319
12.1850,12.85032446
12.1900,12.79753411
12.1950,12.74490894
12.2000,12.69256079
12.2050,12.64060205
12.2100,12.58897242
12.2150,12.53773105
12.2200,12.48694216
12.2250,12.43669065
12.2300,12.38697345
12.2350,12.33755409
12.2400,12.28860442
12.2450,12.2398951
12.2500,12.19162996
12.2550,12.14361559
12.2600,12.09595883
12.2650,12.04868749
12.2700,12.00179688
12.2750,11.95528906
12.2800,11.90913945
12.2850,11.86329444
12.2900,11.81795415
12.2950,11.77329869
12.3000,11.72910745
12.3050,11.68559794
12.3100,11.64292271
12.3150,11.60091969
12.3200,11.55959505
12.3250,11.51901988
12.3300,11.47920631
12.3350,11.43989185
12.3400,11.40111414
12.3450,11.36268692
12.3500,11.32475669
12.3550,11.28711007
12.3600,11.24981118
12.3650,11.2126692
12.3700,11.17569378
12.3750,11.1390062
12.3800,11.1025662
12.3850,11.06628195
12.3900,11.03012805
12.3950,10.99402862
12.4000,10.95791028
12.4050,10.9219717
12.4100,10.88612075
12.4150,10.85049945
12.4200,10.81527857
12.4250,10.780512
12.4300,10.74620941
12.4350,10.71229171
12.4400,10.67895253
12.4450,10.6460353
12.4500,10.61352849
12.4550,10.581194
12.4600,10.54916136
12.4650,10.51717676
12.4700,10.48529008
12.4750,10.45363458
12.4800,10.42220167
12.4850,10.39083145
12.4900,10.3597732
12.4950,10.3289362
12.5000,10.29850803
12.5050,10.26853255
12.5100,10.23908575
12.5150,10.21021039
12.5200,10.18175083
12.5250,10.15372476
12.5300,10.12614257
12.5350,10.09917693
12.5400,10.07270354
12.5450,10.04665634
12.5500,10.0209192
12.5550,9.99553789
12.5600,9.970363705
12.5650,9.945281984
12.5700,9.92027573
12.5750,9.89508616
12.5800,9.869676212
12.5850,9.84380086
12.5900,9.817036762
12.5950,9.789228173
12.6000,9.760434507
12.6050,9.730420623
12.6100,9.699017073
12.6150,9.666360671
12.6200,9.632441976
12.6250,9.597413148
12.6300,9.56100282
12.6350,9.523544112
12.6400,9.485028449
12.6450,9.445797999
12.6500,9.405572778
12.6550,9.364712662
12.6600,9.323277855
12.6650,9.281584988
12.6700,9.239766139
12.6750,9.197781524
12.6800,9.155831003
12.6850,9.113943823
12.6900,9.072205955
12.6950,9.030632197
12.7000,8.989529156
12.7050,8.948586824
12.7100,8.908018531
12.7150,8.867919043
12.7200,8.828044388
12.7250,8.78838118
12.7300,8.748886369
12.7350,8.709614567
12.7400,8.670529412
12.7450,8.631642569
12.7500,8.593142652
12.7550,8.555161003
12.7600,8.51755361
12.7650,8.480434769
12.7700,8.443906877
12.7750,8.408021709
12.7800,8.372950087
12.7850,8.338717242
12.7900,8.30531888
12.7950,8.272844836
12.8000,8.24125854
12.8050,8.210463481
12.8100,8.180355936
12.8150,8.151105533
12.8200,8.122575937
12.8250,8.094781052
12.8300,8.067517652
12.8350,8.040701946
12.8400,8.014255318
12.8450,7.988010312
12.8500,7.961842019
12.8550,7.935691246
12.8600,7.909701587
12.8650,7.883648181
12.8700,7.85739091
12.8750,7.831147524
12.8800,7.804718809
12.8850,7.778181839
12.8900,7.751680707
12.8950,7.724960917
12.9000,7.698157872
12.9050,7.67117664
12.9100,7.644282501
12.9150,7.617335717
12.9200,7.590431279
12.9250,7.563479821
12.9300,7.536739862
12.9350,7.510064526
12.9400,7.48339508
12.9450,7.456831237
12.9500,7.430486869
12.9550,7.404464496
12.9600,7.378646667
12.9650,7.352989019
12.9700,7.327530101
12.9750,7.302419436
12.9800,7.277662153
12.9850,7.253322424
12.9900,7.229509329
12.9950,7.206235604
13.0000,7.183444143
13.0050,7.161335761
13.0100,7.139804552
13.0150,7.118954259
13.0200,7.098780131
13.0250,7.079552277
13.0300,7.061011558
13.0350,7.043412902
13.0400,7.026567359
13.0450,7.0106693
13.0500,6.995735606
13.0550,6.981512249
13.0600,6.968329113
13.0650,6.956058823
13.0700,6.944739509
13.0750,6.934300275
13.0800,6.924600603
13.0850,6.915907536
13.0900,6.90821206
13.0950,6.901349144
13.1000,6.895536201
13.1050,6.890854857
13.1100,6.887262095
13.1150,6.884874762
13.1200,6.883600527
13.1250,6.883505346
13.1300,6.884629889
13.1350,6.886946874
13.1400,6.890311028
13.1450,6.894915205
13.1500,6.900658297
13.1550,6.907321717
13.1600,6.91472031
13.1650,6.922790471
13.1700,6.931463519
13.1750,6.940520197
13.1800,6.950145963
13.1850,6.960095229
13.1900,6.970326384
13.1950,6.980928378
13.2000,6.99165986
13.2050,7.00277299
13.2100,7.013836211
13.2150,7.024948109
13.2200,7.036072063
13.2250,7.047031641
13.2300,7.057962484
13.2350,7.068938792
13.2400,7.079804612
13.2450,7.09065423
13.2500,7.101329679
13.2550,7.111713122
13.2600,7.122062681
13.2650,7.132379387
13.2700,7.142547052
13.2750,7.152561893
13.2800,7.162378396
13.2850,7.172023173
13.2900,7.181364305
13.2950,7.190487967
13.3000,7.199151508
13.3050,7.207529463
13.3100,7.215685882
13.3150,7.223396414
13.3200,7.230994991
13.3250,7.238184858
13.3300,7.245241313
13.3350,7.25216279
13.3400,7.259170824
13.3450,7.266207198
13.3500,7.273167219
13.3550,7.280358431
13.3600,7.287573791
13.3650,7.295162426
13.3700,7.302970055
13.3750,7.31112232
13.3800,7.319677681
13.3850,7.32849883
13.3900,7.33781105
13.3950,7.347531262
13.4000,7.357472326
13.4050,7.367628671
13.4100,7.37814488
13.4150,7.388756629
13.4200,7.399620222
13.4250,7.410691853
13.4300,7.421874596
13.4350,7.433122689
13.4400,7.444649799
13.4450,7.456320073
13.4500,7.468064736
13.4550,7.480103359
13.4600,7.492533448
13.4650,7.505534125
13.4700,7.519056434
13.4750,7.533109242
13.4800,7.547692391
13.4850,7.562757116
13.4900,7.578373997
13.4950,7.594372734
13.5000,7.610970722
13.5050,7.6278085
13.5100,7.644880801
13.5150,7.662232247
13.5200,7.679776663
13.5250,7.697537423
13.5300,7.715373814
13.5350,7.733062804
13.5400,7.750778006
13.5450,7.768223494
13.5500,7.785684594
13.5550,7.803122069
13.5600,7.820418612
13.5650,7.837465708
13.5700,7.854467727
13.5750,7.871453179
13.5800,7.888259541
13.5850,7.905017787
13.5900,7.921734483
13.5950,7.938348291
13.6000,7.955157486
13.6050,7.971845913
13.6100,7.988398993
13.6150,8.005017737
13.6200,8.02165376
13.6250,8.038329601
13.6300,8.055040539
13.6350,8.071675517
13.6400,8.088162466
13.6450,8.104484491
13.6500,8.120902359
13.6550,8.137172039
13.6600,8.15357353
13.6650,8.169867157
13.6700,8.186141444
13.6750,8.202552805
13.6800,8.219079146
13.6850,8.235660305
13.6900,8.252169604
13.6950,8.268730073
13.7000,8.285373153
13.7050,8.302080882
13.7100,8.318921726
13.7150,8.33584948
13.7200,8.352645512
13.7250,8.369298387
13.7300,8.385907097
13.7350,8.402341467
13.7400,8.418724574
13.7450,8.434989136
13.7500,8.451414364
13.7550,8.467849487
13.7600,8.484527825
13.7650,8.501321527
13.7700,8.518370823
13.7750,8.535813611
13.7800,8.553651324
13.7850,8.572159169
13.7900,8.591251315
13.7950,8.611069048
13.8000,8.631519009
13.8050,8.652712858
13.8100,8.674770806
13.8150,8.697664942
13.8200,8.721173866
13.8250,8.745530253
13.8300,8.770549517
13.8350,8.796472255
13.8400,8.823372668
13.8450,8.851377713
13.8500,8.880424332
13.8550,8.910661315
13.8600,8.942121264
13.8650,8.975082476
13.8700,9.009377563
13.8750,9.045074659
13.8800,9.082307688
13.8850,9.120973191
13.8900,9.161075177
13.8950,9.202619441
13.9000,9.245434515
13.9050,9.289633139
13.9100,9.335047655
13.9150,9.381476512
13.9200,9.428683827
13.9250,9.476586695
13.9300,9.524928656
13.9350,9.573551529
13.9400,9.622305686
13.9450,9.671104914
13.9500,9.71952786
13.9550,9.767683739
13.9600,9.815252209
13.9650,9.862216019
13.9700,9.908446955
13.9750,9.953528998
13.9800,9.997448576
13.9850,10.04011384
13.9900,10.08155216
13.9950,10.12173735
14.0000,10.16060696
14.0050,10.19800195
14.0100,10.23377608
14.0150,10.26798743
14.0200,10.30063676
14.0250,10.33169304
14.0300,10.36117374
14.0350,10.38922617
14.0400,10.41576906
14.0450,10.44098072
14.0500,10.46465521
14.0550,10.48710006
14.0600,10.50830099
14.0650,10.52845222
14.0700,10.54759356
14.0750,10.56584815
14.0800,10.58335812
14.0850,10.6002236
14.0900,10.61661614
14.0950,10.63271288
14.1000,10.64862123
14.1050,10.66463076
14.1100,10.68077284
14.1150,10.69717331
14.1200,10.71423164
14.1250,10.7321661
14.1300,10.75126417
14.1350,10.77181291
14.1400,10.79392588
14.1450,10.81774564
14.1500,10.84332221
14.1550,10.87079148
14.1600,10.900242
14.1650,10.93181726
14.1700,10.96564249
14.1750,11.00171452
14.1800,11.03991059
14.1850,11.08028931
14.1900,11.12283601
14.1950,11.16750149
14.2000,11.21409091
14.2050,11.26218286
14.2100,11.31169154
14.2150,11.36233213
14.2200,11.41386073
14.2250,11.46594148
14.2300,11.5184034
14.2350,11.57103079
14.2400,11.62365005
14.2450,11.67597748
14.2500,11.72792656
14.2550,11.77935768
14.2600,11.83007641
14.2650,11.88010111
14.2700,11.92943626
14.2750,11.97815916
14.2800,12.02634691
14.2850,12.07410289
14.2900,12.12131195
14.2950,12.16802271
14.3000,12.21429138
14.3050,12.26038472
14.3100,12.30647252
14.3150,12.35237046
14.3200,12.39819745
14.3250,12.44401434
14.3300,12.48985803
14.3350,12.53551175
14.3400,12.58086726
14.3450,12.62593488
14.3500,12.67069501
14.3550,12.71527687
14.3600,12.75952941
14.3650,12.80348608
14.3700,12.8473344
14.3750,12.89099182
14.3800,12.93455037
14.3850,12.97819013
14.3900,13.02180943
14.3950,13.0656856
14.4000,13.10980987
14.4050,13.15450031
14.4100,13.19984143
14.4150,13.24609881
14.4200,13.2933947
14.4250,13.34179085
14.4300,13.39136322
14.4350,13.44200233
14.4400,13.49374098
14.4450,13.54667176
14.4500,13.60090418
14.4550,13.65643044
14.4600,13.71329656
14.4650,13.77127141
14.4700,13.8302521
14.4750,13.89033318
14.4800,13.95147058
14.4850,14.01350914
14.4900,14.07630466
14.4950,14.13980016
14.5000,14.20390449
14.5050,14.26863869
14.5100,14.33391836
14.5150,14.39971774
14.5200,14.46591926
14.5250,14.53255009
14.5300,14.59948601
14.5350,14.66674333
14.5400,14.73398737
14.5450,14.80132178
14.5500,14.86858215
14.5550,14.93570573
14.5600,15.00304955
14.5650,15.0706386
14.5700,15.13874469
14.5750,15.20754063
14.5800,15.27717304
14.5850,15.34754418
14.5900,15.41867873
14.5950,15.49067165
14.6000,15.56349779
14.6050,15.6371125
14.6100,15.71130902
14.6150,15.78632502
14.6200,15.86210962
14.6250,15.93842818
14.6300,16.01540351
14.6350,16.09305968
14.6400,16.17133658
14.6450,16.25005495
14.6500,16.32929376
14.6550,16.40879732
14.6600,16.48869666
14.6650,16.5688648
14.6700,16.64930989
14.6750,16.72996113
14.6800,16.81091729
14.6850,16.89188622
14.6900,16.97298476
14.6950,17.05408196
14.7000,17.13536189
14.7050,17.21655736
14.7100,17.29791288
14.7150,17.37916375
14.7200,17.46014531
14.7250,17.54059645
14.7300,17.62048101
14.7350,17.69976092
14.7400,17.77808396
14.7450,17.85534619
14.7500,17.9314861
14.7550,18.0063502
14.7600,18.08008702
14.7650,18.15263566
14.7700,18.22405643
14.7750,18.29416124
14.7800,18.36318519
14.7850,18.4310212
14.7900,18.49769308
14.7950,18.56328423
14.8000,18.627714
14.8050,18.69128819
14.8100,18.75405623
14.8150,18.8161028
14.8200,18.87757279
14.8250,18.93843713
14.8300,18.99900843
14.8350,19.05935748
14.8400,19.1197372
14.8450,19.18002736
14.8500,19.24040641
14.8550,19.30092535
14.8600,19.36126993
14.8650,19.42129675
14.8700,19.48083594
14.8750,19.5397476
14.8800,19.59789721
14.8850,19.65526934
14.8900,19.71195972
14.8950,19.76787488
14.9000,19.8232018
14.9050,19.8780401
14.9100,19.93258571
14.9150,19.98714785
14.9200,20.04177778
14.9250,20.09684775
14.9300,20.1522816
14.9350,20.20832548
14.9400,20.26499214
14.9450,20.32244315
14.9500,20.38078494
14.9550,20.44006803
14.9600,20.50019983
14.9650,20.56129316
14.9700,20.62333803
14.9750,20.68639537
14.9800,20.75011008
14.9850,20.81462532
14.9900,20.88000426
14.9950,20.94645402
15.0000,21.01384872
15.0050,21.08212336
15.0100,21.15107051
15.0150,21.22049588
15.0200,21.29060546
15.0250,21.36145538
15.0300,21.43299827
15.0350,21.5051839
15.0400,21.57833123
15.0450,21.65265029
15.0500,21.72841684
15.0550,21.80587871
15.0600,21.88491476
15.0650,21.96563027
15.0700,22.0480294
15.0750,22.13214712
15.0800,22.21752392
15.0850,22.30408599
15.0900,22.39159609
15.0950,22.48009371
15.1000,22.56947962
15.1050,22.65922726
15.1100,22.74915979
15.1150,22.83889684
15.1200,22.92790779
15.1250,23.01604357
15.1300,23.10287939
15.1350,23.18821969
15.1400,23.27193208
15.1450,23.35390973
15.1500,23.43396213
15.1550,23.5121203
15.1600,23.58861927
15.1650,23.66340328
15.1700,23.73651222
15.1750,23.80821757
15.1800,23.87846332
15.1850,23.94760999
15.1900,24.01582081
15.1950,24.08318716
15.2000,24.14961476
15.2050,24.21525633
15.2100,24.27983798
15.2150,24.34301293
15.2200,24.4047531
15.2250,24.46481576
15.2300,24.52298198
15.2350,24.57922374
15.2400,24.63359163
15.2450,24.68609589
15.2500,24.73641238
15.2550,24.78469414
15.2600,24.8310696
15.2650,24.87571149
15.2700,24.91858782
15.2750,24.96011447
15.2800,25.00066172
15.2850,25.04055109
15.2900,25.07988678
15.2950,25.11861724
15.3000,25.15683275
15.3050,25.19473382
15.3100,25.23267838
15.3150,25.27103819
15.3200,25.30980195
15.3250,25.34895583
15.3300,25.38873589
15.3350,25.42912934
15.3400,25.47011311
15.3450,25.51167203
15.3500,25.55364498
15.3550,25.59575041
15.3600,25.63795787
15.3650,25.68010987
15.3700,25.72194474
15.3750,25.76334831
15.3800,25.8046837
15.3850,25.84595939
15.3900,25.88718043
15.3950,25.92809443
15.4000,25.96864815
15.4050,26.00936248
15.4100,26.05025707
15.4150,26.09155442
15.4200,26.13342783
15.4250,26.17592281
15.4300,26.21900022
15.4350,26.26269954
15.4400,26.30699947
15.4450,26.35189465
15.4500,26.39751969
15.4550,26.44358845
15.4600,26.48983588
15.4650,26.53607611
15.4700,26.58215621
15.4750,26.62786883
15.4800,26.67322335
15.4850,26.71814926
15.4900,26.76253026
15.4950,26.80625991
15.5000,26.84932889
15.5050,26.89165333
15.5100,26.9332206
15.5150,26.97398247
15.5200,27.01402095
15.5250,27.05314125
15.5300,27.09147796
15.5350,27.12888579
15.5400,27.16545152
15.5450,27.20110307
15.5500,27.23604627
15.5550,27.2703586
15.5600,27.30376475
15.5650,27.33616469
15.5700,27.36758645
15.5750,27.39792038
15.5800,27.42709706
15.5850,27.45500306
15.5900,27.48180777
15.5950,27.50738997
15.6000,27.53207593
15.6050,27.5558678
15.6100,27.5786828
15.6150,27.60062053
15.6200,27.62185117
15.6250,27.64255657
15.6300,27.66270765
15.6350,27.68238265
15.6400,27.7016762
15.6450,27.72059636
15.6500,27.73906912
15.6550,27.75719505
15.6600,27.7748832
15.6650,27.79215968
15.6700,27.80919823
15.6750,27.82587552
15.6800,27.84188436
15.6850,27.85731534
15.6900,27.8722119
15.6950,27.88642072
15.7000,27.90030496
15.7050,27.91352034
15.7100,27.92597224
15.7150,27.93769705
15.7200,27.94894503
15.7250,27.95968086
15.7300,27.97016517
15.7350,27.98043477
15.7400,27.99053603
15.7450,28.0008097
15.7500,28.01125938
15.7550,28.02200775
15.7600,28.03324896
15.7650,28.04528771
15.7700,28.05811505
15.7750,28.0719645
15.7800,28.08678355
15.7850,28.1025878
15.7900,28.11933284
15.7950,28.13721461
15.8000,28.15617872
15.8050,28.17608407
15.8100,28.19700438
15.8150,28.21867384
15.8200,28.24105565
15.8250,28.26431381
15.8300,28.28822743
15.8350,28.31303876
15.8400,28.33868777
15.8450,28.36503819
15.8500,28.39203187
15.8550,28.41946074
15.8600,28.44739744
15.8650,28.47598936
15.8700,28.50507922
15.8750,28.53437459
15.8800,28.56406943
15.8850,28.59411191
15.8900,28.62426328
15.8950,28.65441322
15.9000,28.68418732
15.9050,28.71353421
15.9100,28.74232927
15.9150,28.77027554
15.9200,28.79716352
15.9250,28.82285681
15.9300,28.84746278
15.9350,28.87072713
15.9400,28.89259766
15.9450,28.91284875
15.9500,28.93132935
15.9550,28.94786636
15.9600,28.96239381
15.9650,28.97468255
15.9700,28.98479552
15.9750,28.99266867
15.9800,28.99851834
15.9850,29.00235442
15.9900,29.00421025
15.9950,29.00423068
16.0000,29.00227456
16.0050,28.99861618
16.0100,28.99333015
16.0150,28.98667938
16.0200,28.97862674
16.0250,28.96944796
16.0300,28.95908572
16.0350,28.9477984
16.0400,28.93581775
16.0450,28.92315477
16.0500,28.90999858
16.0550,28.89651149
16.0600,28.88274008
16.0650,28.86884374
16.0700,28.85504723
16.0750,28.8413843
16.0800,28.82806086
16.0850,28.81528355
16.0900,28.8031043
16.0950,28.79140651
16.1000,28.78028249
16.1050,28.76979798
16.1100,28.7598244
16.1150,28.75069966
16.1200,28.7421268
16.1250,28.73408966
16.1300,28.72677513
16.1350,28.71989125
16.1400,28.71323834
16.1450,28.70684924
16.1500,28.70084841
16.1550,28.69506846
16.1600,28.6896146
16.1650,28.68400189
16.1700,28.67846294
16.1750,28.67292366
16.1800,28.66716428
16.1850,28.66104602
16.1900,28.65453856
16.1950,28.64778966
16.2000,28.64064472
16.2050,28.63307142
16.2100,28.62492858
16.2150,28.61641438
16.2200,28.60731771
16.2250,28.59751127
16.2300,28.58666416
16.2350,28.57491108
16.2400,28.56217527
16.2450,28.54844147
16.2500,28.5335719
16.2550,28.51770098
16.2600,28.50060632
16.2650,28.48238031
16.2700,28.4626734
16.2750,28.44176989
16.2800,28.4195884
16.2850,28.39605213
16.2900,28.37121048
16.2950,28.34520182
16.3000,28.31812012
16.3050,28.28977924
16.3100,28.26052481
16.3150,28.23022114
16.3200,28.19900022
16.3250,28.16691988
16.3300,28.13440157
16.3350,28.10135438
16.3400,28.067787
16.3450,28.03386287
16.3500,27.99954333
16.3550,27.9649619
16.3600,27.9303152
16.3650,27.89570319
16.3700,27.86118439
16.3750,27.8268389
16.3800,27.79265287
16.3850,27.75856642
16.3900,27.7245839
16.3950,27.69094419
16.4000,27.65759935
16.4050,27.62442863
16.4100,27.59149761
16.4150,27.55878708
16.4200,27.52636699
16.4250,27.49440892
16.4300,27.46271268
16.4350,27.43142647
16.4400,27.40076504
16.4450,27.37060587
16.4500,27.34099931
16.4550,27.31199108
16.4600,27.28333231
16.4650,27.25524715
16.4700,27.22743648
16.4750,27.20005672
16.4800,27.17298652
16.4850,27.14635527
16.4900,27.12006959
16.4950,27.09406745
16.5000,27.06862362
16.5050,27.04366352
16.5100,27.0192205
16.5150,26.99513132
16.5200,26.97147402
16.5250,26.94824009
16.5300,26.9255934
16.5350,26.90340385
16.5400,26.88149594
16.5450,26.85990112
16.5500,26.83881009
16.5550,26.81784184
16.5600,26.79726399
16.5650,26.77718595
16.5700,26.75766818
16.5750,26.73838225
16.5800,26.71943482
16.5850,26.70061254
16.5900,26.68191761
16.5950,26.66320741
16.6000,26.64438602
16.6050,26.62559907
16.6100,26.60662686
16.6150,26.5876022
16.6200,26.56847196
16.6250,26.54925102
16.6300,26.52957386
16.6350,26.50952873
16.6400,26.48903257
16.6450,26.46801098
16.6500,26.44640998
16.6550,26.42437179
16.6600,26.40179155
16.6650,26.37868954
16.6700,26.35499021
16.6750,26.33063005
16.6800,26.30562123
16.6850,26.28002521
16.6900,26.25391175
16.6950,26.22719885
16.7000,26.20000281
16.7050,26.17226853
16.7100,26.14404254
16.7150,26.11525456
16.7200,26.08596563
16.7250,26.05596434
16.7300,26.02513875
16.7350,25.99350259
16.7400,25.96083162
16.7450,25.9273575
16.7500,25.89295071
16.7550,25.85757803
16.7600,25.82135129
16.7650,25.78439132
16.7700,25.74684895
16.7750,25.70877253
16.7800,25.6702265
16.7850,25.63121566
16.7900,25.59185187
16.7950,25.55216041
16.8000,25.51222077
16.8050,25.47220821
16.8100,25.43225717
16.8150,25.39238969
16.8200,25.35282776
16.8250,25.31365954
16.8300,25.27475296
16.8350,25.23629586
16.8400,25.19826109
16.8450,25.1604845
16.8500,25.1229298
16.8550,25.0857281
16.8600,25.04870255
16.8650,25.01161084
16.8700,24.97453233
16.8750,24.93752269
16.8800,24.90030486
16.8850,24.8631703
16.8900,24.82591359
16.8950,24.78862663
16.9000,24.75146843
16.9050,24.71438828
16.9100,24.6773245
16.9150,24.6402726
16.9200,24.60344386
16.9250,24.56653656
16.9300,24.52988875
16.9350,24.49326617
16.9400,24.45684271
16.9450,24.42043381
16.9500,24.38418499
16.9550,24.34768677
16.9600,24.31113133
16.9650,24.27424136
16.9700,24.23705644
16.9750,24.19951868
16.9800,24.16152528
16.9850,24.12295262
16.9900,24.08381861
16.9950,24.04400298
17.0000,24.00338452
17.0050,23.96205059
17.0100,23.9200214
17.0150,23.8771609
17.0200,23.83362428
17.0250,23.78943009
17.0300,23.74476468
17.0350,23.69957425
17.0400,23.65385566
17.0450,23.60756153
17.0500,23.5607132
17.0550,23.5132391
17.0600,23.46521425
17.0650,23.41635176
17.0700,23.36673836
17.0750,23.31630768
17.0800,23.2651806
17.0850,23.21331561
17.0900,23.16076782
17.0950,23.10765098
17.1000,23.05394928
17.1050,22.99972344
17.1100,22.94519211
17.1150,22.89058193
17.1200,22.83576258
17.1250,22.78093279
17.1300,22.72607473
17.1350,22.67129443
17.1400,22.61662196
17.1450,22.56240996
17.1500,22.50834896
17.1550,22.45457693
17.1600,22.40104501
17.1650,22.34790767
17.1700,22.29515441
17.1750,22.24274445
17.1800,22.19071521
17.1850,22.13896008
17.1900,22.08747975
17.1950,22.03613627
17.2000,21.98476424
17.2050,21.93334674
17.2100,21.88172876
17.2150,21.83001915
17.2200,21.77791588
17.2250,21.72557119
17.2300,21.67269144
17.2350,21.61939895
17.2400,21.56568657
17.2450,21.51162537
17.2500,21.45723681
17.2550,21.40289238
17.2600,21.34828776
17.2650,21.29360931
17.2700,21.23879852
17.2750,21.18389402
17.2800,21.12896419
17.2850,21.07390402
17.2900,21.01872189
17.2950,20.96347662
17.3000,20.90809521
17.3050,20.85254484
17.3100,20.79660629
17.3150,20.74041728
17.3200,20.68378105
17.3250,20.6266703
17.3300,20.56897699
17.3350,20.51064055
17.3400,20.45148489
17.3450,20.39138824
17.3500,20.33038439
17.3550,20.26833373
17.3600,20.20542848
17.3650,20.14183592
17.3700,20.07750701
17.3750,20.01271214
17.3800,19.94749334
17.3850,19.8820048
17.3900,19.81646072
17.3950,19.75100889
17.4000,19.68577799
17.4050,19.62095193
17.4100,19.55654062
17.4150,19.49273774
17.4200,19.42978222
17.4250,19.36759917
17.4300,19.30648602
17.4350,19.24648648
17.4400,19.18765581
17.4450,19.12989217
17.4500,19.07352476
17.4550,19.01839365
17.4600,18.96457861
17.4650,18.91210432
17.4700,18.86076898
17.4750,18.81061142
17.4800,18.76167364
17.4850,18.71378979
17.4900,18.66702889
17.4950,18.62137696
17.5000,18.57672164
17.5050,18.53287053
17.5100,18.49009859
17.5150,18.44810547
17.5200,18.40697892
17.5250,18.36678795
17.5300,18.32766308
17.5350,18.28947679
17.5400,18.25219621
17.5450,18.21586163
17.5500,18.18026257
17.5550,18.14523388
17.5600,18.11070445
17.5650,18.07663475
17.5700,18.04290835
17.5750,18.00933855
17.5800,17.97579808
17.5850,17.94230262
17.5900,17.90869428
17.5950,17.87482913
17.6000,17.84059381
17.6050,17.80601515
17.6100,17.77073811
17.6150,17.73496678
17.6200,17.69833929
17.6250,17.66088848
17.6300,17.62271499
17.6350,17.58365192
17.6400,17.5438279
17.6450,17.50339308
17.6500,17.46223747
17.6550,17.42073342
17.6600,17.37868548
17.6650,17.3362269
17.6700,17.29345485
17.6750,17.25020957
17.6800,17.20658889
17.6850,17.16260858
17.6900,17.11830339
17.6950,17.07370389
17.7000,17.02889389
17.7050,16.98381137
17.7100,16.93857351
17.7150,16.89310896
17.7200,16.84750917
17.7250,16.80194366
17.7300,16.75635657
17.7350,16.71059407
17.7400,16.66486788
17.7450,16.61902558
17.7500,16.57311648
17.7550,16.52723793
17.7600,16.48132601
17.7650,16.43545219
17.7700,16.38951729
17.7750,16.34339478
17.7800,16.29713141
17.7850,16.25057114
17.7900,16.20364256
17.7950,16.15623057
17.8000,16.10825415
17.8050,16.05980352
17.8100,16.01072515
17.8150,15.96091138
17.8200,15.91047312
17.8250,15.85931896
17.8300,15.80733809
17.8350,15.75460212
17.8400,15.70071281
17.8450,15.64564149
17.8500,15.58941416
17.8550,15.53184126
17.8600,15.47294514
17.8650,15.41269867
17.8700,15.3508176
17.8750,15.28738686
17.8800,15.22223319
17.8850,15.15532308
17.8900,15.08651776
17.8950,15.01587428
17.9000,14.94339073
17.9050,14.86882139
17.9100,14.79259769
17.9150,14.71431703
17.9200,14.63432658
17.9250,14.55239957
17.9300,14.468585
17.9350,14.38313617
17.9400,14.29628616
17.9450,14.20789405
17.9500,14.1181015
17.9550,14.02692972
17.9600,13.93468586
17.9650,13.84136046
17.9700,13.74717605
17.9750,13.65224684
17.9800,13.556755
17.9850,13.4609062
17.9900,13.36482313
17.9950,13.26873098
18.0000,13.17271647
18.0050,13.07673673
18.0100,12.98098993
18.0150,12.88566756
18.0200,12.79076692
18.0250,12.69643269
18.0300,12.60277817
18.0350,12.51016515
18.0400,12.41861715
18.0450,12.32840362
18.0500,12.23957694
18.0550,12.15217281
18.0600,12.06639407
18.0650,11.98221717
18.0700,11.89986741
18.0750,11.81945808
18.0800,11.7408573
18.0850,11.66436385
18.0900,11.58999735
18.0950,11.51783394
18.1000,11.44807315
18.1050,11.38080907
18.1100,11.31586382
18.1150,11.25343423
18.1200,11.19331971
18.1250,11.13569205
18.1300,11.0804009
18.1350,11.02735512
18.1400,10.97682231
18.1450,10.92868917
18.1500,10.88282306
18.1550,10.83915817
18.1600,10.79759335
18.1650,10.75804311
18.1700,10.72064178
18.1750,10.68517177
18.1800,10.65156202
18.1850,10.61976189
18.1900,10.58974623
18.1950,10.56145279
18.2000,10.534808
18.2050,10.50969128
18.2100,10.48599845
18.2150,10.46365447
18.2200,10.44251264
18.2250,10.42259287
18.2300,10.40371609
18.2350,10.38569362
18.2400,10.36843813
18.2450,10.35204472
18.2500,10.33639779
18.2550,10.32153928
18.2600,10.30695579
18.2650,10.29294063
18.2700,10.27907002
18.2750,10.26540883
18.2800,10.25187981
18.2850,10.23833236
18.2900,10.22472492
18.2950,10.21111716
18.3000,10.19734086
18.3050,10.18375843
18.3100,10.17013486
18.3150,10.15658287
18.3200,10.14314746
18.3250,10.12982154
18.3300,10.11663475
18.3350,10.10351723
18.3400,10.0906728
18.3450,10.07796751
18.3500,10.06544301
18.3550,10.0533441
18.3600,10.0416697
18.3650,10.03051243
18.3700,10.01979533
18.3750,10.00974879
18.3800,10.00031803
18.3850,9.991369029
18.3900,9.982929124
18.3950,9.975025305
18.4000,9.967446084
18.4050,9.959963943
18.4100,9.95253261
18.4150,9.945060546
18.4200,9.937484071
18.4250,9.929599102
18.4300,9.921446689
18.4350,9.912928319
18.4400,9.903974683
18.4450,9.894365109
18.4500,9.884100299
18.4550,9.873158678
18.4600,9.861494229
18.4650,9.848882583
18.4700,9.835361097
18.4750,9.820734849
18.4800,9.805012756
18.4850,9.78786983
18.4900,9.769238601
18.4950,9.748868177
18.5000,9.726405151
18.5050,9.701877015
18.5100,9.674977776
18.5150,9.645671067
18.5200,9.613894679
18.5250,9.57945499
18.5300,9.542391638
18.5350,9.502861757
18.5400,9.460762575
18.5450,9.416233043
18.5500,9.369396895
18.5550,9.320543882
18.5600,9.270081516
18.5650,9.217970688
18.5700,9.164745378
18.5750,9.110577725
18.5800,9.055537254
18.5850,8.999890612
18.5900,8.944025631
18.5950,8.887906972
18.6000,8.831814253
18.6050,8.775870213
18.6100,8.720354148
18.6150,8.665367243
18.6200,8.611131787
18.6250,8.557828774
18.6300,8.505700451
18.6350,8.45493421
18.6400,8.405633296
18.6450,8.358200368
18.6500,8.312724281
18.6550,8.269126985
18.6600,8.227697675
18.6650,8.188376196
18.6700,8.151306669
18.6750,8.116489035
18.6800,8.083918253
18.6850,8.053753717
18.6900,8.025980338
18.6950,8.000572036
18.7000,7.977729734
18.7050,7.957521446
18.7100,7.940020459
18.7150,7.925224754
18.7200,7.913128892
18.7250,7.903736315
18.7300,7.896842923
18.7350,7.892442508
18.7400,7.890348653
18.7450,7.890549313
18.7500,7.892813548
18.7550,7.897114476
18.7600,7.903139107
18.7650,7.910853344
18.7700,7.919845877
18.7750,7.930082319
18.7800,7.94135632
18.7850,7.95353947
18.7900,7.966487771
18.7950,7.979967031
18.8000,7.993974636
18.8050,8.008224625
18.8100,8.022630984
18.8150,8.036895786
18.8200,8.050822423
18.8250,8.06447002
18.8300,8.077596778
18.8350,8.090090277
18.8400,8.10184961
18.8450,8.112740019
18.8500,8.122819305
18.8550,8.131702384
18.8600,8.139427238
18.8650,8.145885952
18.8700,8.150955339
18.8750,8.154644524
18.8800,8.156918852
18.8850,8.157795286
18.8900,8.15696962
18.8950,8.15451545
18.9000,8.150502178
18.9050,8.144820832
18.9100,8.137479405
18.9150,8.12845883
18.9200,8.117771926
18.9250,8.105273266
18.9300,8.091151922
18.9350,8.075231866
18.9400,8.057682063
18.9450,8.038447527
18.9500,8.017739609
18.9550,7.995686198
18.9600,7.972368227
18.9650,7.947944143
18.9700,7.922765157
18.9750,7.896935977
18.9800,7.870881641
18.9850,7.84472592
18.9900,7.818632418
18.9950,7.792780343
19.0000,7.767254691
19.0050,7.742058767
19.0100,7.717259716
19.0150,7.692850823
19.0200,7.668771016
19.0250,7.644909145
19.0300,7.621234737
19.0350,7.597874523
19.0400,7.574793516
19.0450,7.551761555
19.0500,7.529048512
19.0550,7.506303452
19.0600,7.483895314
19.0650,7.46155827
19.0700,7.439530757
19.0750,7.417669143
19.0800,7.395821865
19.0850,7.374168073
19.0900,7.352554202
19.0950,7.330940633
19.1000,7.309310532
19.1050,7.287569859
19.1100,7.265646615
19.1150,7.24359901
19.1200,7.221281161
19.1250,7.198541849
19.1300,7.175308992
19.1350,7.15155301
19.1400,7.127149101
19.1450,7.102206584
19.1500,7.076412919
19.1550,7.049939186
19.1600,7.022455604
19.1650,6.994039987
19.1700,6.964750328
19.1750,6.93435924
19.1800,6.903072023
19.1850,6.870922484
19.1900,6.838097485
19.1950,6.804732025
19.2000,6.77098743
19.2050,6.736980936
19.2100,6.703038995
19.2150,6.66917029
19.2200,6.635730569
19.2250,6.602897225
19.2300,6.570770596
19.2350,6.539691694
19.2400,6.50974923
19.2450,6.4811085
19.2500,6.453836752
19.2550,6.428201714
19.2600,6.404201866
19.2650,6.382196754
19.2700,6.36190069
19.2750,6.343460703
19.2800,6.326867956
19.2850,6.311882604
19.2900,6.298593902
19.2950,6.287023016
19.3000,6.276761617
19.3050,6.267784158
19.3100,6.260081099
19.3150,6.253260602
19.3200,6.247394657
19.3250,6.242012769
19.3300,6.237328071
19.3350,6.23291334
19.3400,6.228551974
19.3450,6.224288884
19.3500,6.219812078
19.3550,6.21523076
19.3600,6.210224319
19.3650,6.204893631
19.3700,6.199103674
19.3750,6.192924213
19.3800,6.186491592
19.3850,6.179794973
19.3900,6.172836416
19.3950,6.165822833
19.4000,6.158791975
19.4050,6.151835683
19.4100,6.145205374
19.4150,6.138915214
19.4200,6.133325512
19.4250,6.128409338
19.4300,6.124174378
19.4350,6.12039761
19.4400,6.117199455
19.4450,6.114246463
19.4500,6.111694477
19.4550,6.109177819
19.4600,6.106992272
19.4650,6.10517812
19.4700,6.103432433
19.4750,6.102209158
19.4800,6.101423772
19.4850,6.101056127
19.4900,6.101116503
19.4950,6.101509657
19.5000,6.102313104
19.5050,6.10351848
19.5100,6.104834428
19.5150,6.106619487
19.5200,6.108563189
19.5250,6.110950847
19.5300,6.113760808
19.5350,6.116997612
19.5400,6.120609461
19.5450,6.124551628
19.5500,6.128770161
19.5550,6.133357737
19.5600,6.138131555
19.5650,6.142778386
19.5700,6.147486724
19.5750,6.151908885
19.5800,6.156025037
19.5850,6.159906884
19.5900,6.163278734
19.5950,6.165921724
19.6000,6.168015395
19.6050,6.169482761
19.6100,6.170213762
19.6150,6.17045155
19.6200,6.170094508
19.6250,6.169419652
19.6300,6.168237895
19.6350,6.166698082
19.6400,6.16504927
19.6450,6.163342793
19.6500,6.16164832
19.6550,6.159959233
19.6600,6.158424399
19.6650,6.157241174
19.6700,6.156429719
19.6750,6.156024798
19.6800,6.15611253
19.6850,6.156640026
19.6900,6.157512032
19.6950,6.158834605
19.7000,6.160474068
19.7050,6.162488972
19.7100,6.164632134
19.7150,6.166909611
19.7200,6.169020249
19.7250,6.17076057
19.7300,6.172467794
19.7350,6.17386313
19.7400,6.175005831
19.7450,6.176041533
19.7500,6.176760501
19.7550,6.177459807
19.7600,6.178073009
19.7650,6.178495163
19.7700,6.179108901
19.7750,6.179618722
19.7800,6.179955664
19.7850,6.180258976
19.7900,6.180563164
19.7950,6.181022552
19.8000,6.181601677
19.8050,6.182408634
19.8100,6.183713693
19.8150,6.185248174
19.8200,6.187342486
19.8250,6.189954302
19.8300,6.192932374
19.8350,6.196539174
19.8400,6.200794566
19.8450,6.205723044
19.8500,6.211513816
19.8550,6.217743909
19.8600,6.224767264
19.8650,6.232602406
19.8700,6.241234609
19.8750,6.25074234
19.8800,6.261179143
19.8850,6.272595346
19.8900,6.285185758
19.8950,6.299049447
19.9000,6.314239867
19.9050,6.330759688
19.9100,6.3487298
19.9150,6.368243293
19.9200,6.38930699
19.9250,6.412078795
19.9300,6.436591534
19.9350,6.462788947
19.9400,6.490742732
19.9450,6.520490441
19.9500,6.551938129
19.9550,6.585326862
19.9600,6.620466882
19.9650,6.657225427
19.9700,6.695629832
19.9750,6.735589533
19.9800,6.777207176
19.9850,6.820430311
19.9900,6.865402983
19.9950,6.911963865
20.0000,6.96011539
20.0050,7.009883794
20.0100,7.061141707
20.0150,7.113812836
20.0200,7.167689138
20.0250,7.222988556
20.0300,7.279523361
20.0350,7.337372652
20.0400,7.396411627
20.0450,7.456568672
20.0500,7.517996196
20.0550,7.580542565
20.0600,7.644190719
20.0650,7.708912245
20.0700,7.774557941
20.0750,7.840965077
20.0800,7.908466773
20.0850,7.97679928
20.0900,8.046125552
20.0950,8.116250033
20.1000,8.187161453
20.1050,8.258797302
20.1100,8.33107135
20.1150,8.404147822
20.1200,8.477949628
20.1250,8.552582639
20.1300,8.628169197
20.1350,8.704605361
20.1400,8.781897724
20.1450,8.859837888
20.1500,8.938426271
20.1550,9.017846201
20.1600,9.097747979
20.1650,9.178136162
20.1700,9.258936888
20.1750,9.340032229
20.1800,9.421301468
20.1850,9.502831499
20.1900,9.584504629
20.1950,9.66638433
20.2000,9.748664894
20.2050,9.831514785
20.2100,9.914888368
20.2150,9.998782362
20.2200,10.08313888
20.2250,10.16807247
20.2300,10.25341871
20.2350,10.33920443
20.2400,10.42531077
20.2450,10.51180403
20.2500,10.59876603
20.2550,10.68622158
20.2600,10.77407534
20.2650,10.86245269
20.2700,10.95130424
20.2750,11.04058943
20.2800,11.13007317
20.2850,11.21964834
20.2900,11.30924506
20.2950,11.3989081
20.3000,11.48872735
20.3050,11.57858794
20.3100,11.66860984
20.3150,11.75868857
20.3200,11.84892178
20.3250,11.93934753
20.3300,12.02997354
20.3350,12.12118678
20.3400,12.21294411
20.3450,12.30528458
20.3500,12.39812982
20.3550,12.491413
20.3600,12.5850059
20.3650,12.67895546
20.3700,12.77318871
20.3750,12.86781182
20.3800,12.96273998
20.3850,13.05818173
20.3900,13.15395354
20.3950,13.25018676
20.4000,13.34690361
20.4050,13.44401836
20.4100,13.54147117
20.4150,13.63899153
20.4200,13.73646557
20.4250,13.83385335
20.4300,13.93114842
20.4350,14.02794948
20.4400,14.12408238
20.4450,14.21965426
20.4500,14.31422815
20.4550,14.40773674
20.4600,14.50021191
20.4650,14.591523
20.4700,14.68169403
20.4750,14.77062666
20.4800,14.85831133
20.4850,14.94442774
20.4900,15.02909266
20.4950,15.11219742
20.5000,15.19363748
20.5050,15.27351977
20.5100,15.35180075
20.5150,15.42856857
20.5200,15.5040205
20.5250,15.57826743
20.5300,15.65161511
20.5350,15.72437003
20.5400,15.79658211
20.5450,15.86834741
20.5500,15.93983604
20.5550,16.0110853
20.5600,16.08246794
20.5650,16.1538164
20.5700,16.22523894
20.5750,16.29696196
20.5800,16.36902905
20.5850,16.44154168
20.5900,16.51439443
20.5950,16.58739023
20.6000,16.66030109
20.6050,16.73305308
20.6100,16.80571955
20.6150,16.87821696
20.6200,16.95041103
20.6250,17.02222769
20.6300,17.09365155
20.6350,17.16466365
20.6400,17.23543382
20.6450,17.3057867
20.6500,17.37588653
20.6550,17.4458534
20.6600,17.51595106
20.6650,17.58621229
20.6700,17.65672263
20.6750,17.72771724
20.6800,17.79898978
20.6850,17.8702472
20.6900,17.94165906
20.6950,18.01316135
20.7000,18.08494805
20.7050,18.15722847
20.7100,18.23025021
20.7150,18.30415402
20.7200,18.37921461
20.7250,18.45514054
20.7300,18.53185791
20.7350,18.60959573
20.7400,18.68816403
20.7450,18.76764917
20.7500,18.84805256
20.7550,18.92950092
20.7600,19.01190852
20.7650,19.09518271
20.7700,19.17921812
20.7750,19.26394939
20.7800,19.3491831
20.7850,19.43486412
20.7900,19.52070625
20.7950,19.60666055
20.8000,19.69265209
20.8050,19.77881565
20.8100,19.86504175
20.8150,19.95105393
20.8200,20.03683889
20.8250,20.12232695
20.8300,20.20777961
20.8350,20.29329818
20.8400,20.37916343
20.8450,20.46537491
20.8500,20.55196168
20.8550,20.63891347
20.8600,20.72613357
20.8650,20.81377106
20.8700,20.90144014
20.8750,20.98896011
20.8800,21.07621008
20.8850,21.16304136
20.8900,21.24940164
20.8950,21.33508905
20.9000,21.42010299
20.9050,21.50436218
20.9100,21.58737984
20.9150,21.66932307
20.9200,21.75022944
20.9250,21.8300766
20.9300,21.90910843
20.9350,21.98712372
20.9400,22.06442107
20.9450,22.14122568
20.9500,22.21775282
20.9550,22.2940484
20.9600,22.36997398
20.9650,22.44590706
20.9700,22.52212468
20.9750,22.59847167
20.9800,22.67524252
20.9850,22.7526772
20.9900,22.83058103
20.9950,22.90886794
21.0000,22.98723369
21.0050,23.06585064
21.0100,23.14437084
21.0150,23.22277625
21.0200,23.30094709
21.0250,23.37879352
21.0300,23.45621624
21.0350,23.53308794
21.0400,23.6094609
21.0450,23.68550645
21.0500,23.7614044
21.0550,23.8369746
21.0600,23.91247263
21.0650,23.98777393
21.0700,24.06286826
21.0750,24.13768782
21.0800,24.21243191
21.0850,24.28720494
21.0900,24.36201447
21.0950,24.43680732
21.1000,24.51153378
21.1050,24.58565109
21.1100,24.65953273
21.1150,24.73334934
21.1200,24.80694726
21.1250,24.88021107
21.1300,24.95275023
21.1350,25.02435545
21.1400,25.09495437
21.1450,25.16457864
21.1500,25.23335677
21.1550,25.30116026
21.1600,25.36803436
21.1650,25.43394346
21.1700,25.49929864
21.1750,25.56411618
21.1800,25.62834058
21.1850,25.69211564
21.1900,25.75550645
21.1950,25.81861299
21.2000,25.88156461
21.2050,25.94440611
21.2100,26.0074259
21.2150,26.07046045
21.2200,26.13357054
21.2250,26.19663647
21.2300,26.25936626
21.2350,26.32188509
21.2400,26.38372512
21.2450,26.44498846
21.2500,26.50537616
21.2550,26.56496857
21.2600,26.62399045
21.2650,26.68203079
21.2700,26.73892865
21.2750,26.79480472
21.2800,26.84958282
21.2850,26.90320804
21.2900,26.95580633
21.2950,27.00757426
21.3000,27.05852628
21.3050,27.1083389
21.3100,27.15718691
21.3150,27.20510537
21.3200,27.25205122
21.3250,27.2983008
21.3300,27.34402713
21.3350,27.38953081
21.3400,27.43509236
21.3450,27.48045914
21.3500,27.52569284
21.3550,27.57085146
21.3600,27.61571636
21.3650,27.66060679
21.3700,27.70548664
21.3750,27.75081945
21.3800,27.79641621
21.3850,27.84237199
21.3900,27.88863403
21.3950,27.93499932
21.4000,27.98117445
21.4050,28.02712333
21.4100,28.07239877
21.4150,28.1169104
21.4200,28.16048774
21.4250,28.20286811
21.4300,28.24411069
21.4350,28.28409638
21.4400,28.32253448
21.4450,28.3590645
21.4500,28.39329898
21.4550,28.4252745
21.4600,28.4550351
21.4650,28.48249432
21.4700,28.50747274
21.4750,28.52999124
21.4800,28.55009198
21.4850,28.56769266
21.4900,28.58260757
21.4950,28.59483989
21.5000,28.60444519
21.5050,28.6114743
21.5100,28.61607447
21.5150,28.61830812
21.5200,28.61830241
21.5250,28.61618204
21.5300,28.61199652
21.5350,28.60568858
21.5400,28.59752456
21.5450,28.58755547
21.5500,28.57602537
21.5550,28.5628816
21.5600,28.54808347
21.5650,28.53165587
21.5700,28.51357539
21.5750,28.49377967
21.5800,28.47222005
21.5850,28.44905142
21.5900,28.42426355
21.5950,28.39788516
21.6000,28.36992299
21.6050,28.34083301
21.6100,28.3106053
21.6150,28.27941988
21.6200,28.24738115
21.6250,28.21438021
21.6300,28.18069549
21.6350,28.14617642
21.6400,28.11096801
21.6450,28.07521997
21.6500,28.03911502
21.6550,28.00276794
21.6600,27.96629177
21.6650,27.92978456
21.6700,27.89326057
21.6750,27.8567414
21.6800,27.82034453
21.6850,27.78406843
21.6900,27.74795798
21.6950,27.71221459
21.7000,27.6769901
21.7050,27.64235938
21.7100,27.60840471
21.7150,27.57516735
21.7200,27.54275989
21.7250,27.51117389
21.7300,27.48022825
21.7350,27.4499849
21.7400,27.42050587
21.7450,27.39209076
21.7500,27.36474478
21.7550,27.33845782
21.7600,27.31307623
21.7650,27.28860354
21.7700,27.26489236
21.7750,27.24180583
21.7800,27.21917655
21.7850,27.19699667
21.7900,27.1753961
21.7950,27.15417444
21.8000,27.13323252
21.8050,27.11261722
21.8100,27.09203428
21.8150,27.07144375
21.8200,27.05068864
21.8250,27.0296922
21.8300,27.00845692
21.8350,26.98702241
21.8400,26.96528978
21.8450,26.94320978
21.8500,26.92068121
21.8550,26.89778235
21.8600,26.87458071
21.8650,26.85109986
21.8700,26.82737856
21.8750,26.80343571
21.8800,26.77932615
21.8850,26.7552378
21.8900,26.73117729
21.8950,26.70726755
21.9000,26.68367961
21.9050,26.66030718
21.9100,26.63730634
21.9150,26.61464217
21.9200,26.59225144
21.9250,26.57022103
21.9300,26.54867259
21.9350,26.5276394
21.9400,26.50711072
21.9450,26.48725778
21.9500,26.46775666
21.9550,26.4486605
21.9600,26.42980387
21.9650,26.41122978
21.9700,26.39312757
21.9750,26.37519664
21.9800,26.35749253
21.9850,26.33996932
21.9900,26.32259813
21.9950,26.30533784
22.0000,26.28827457
22.0050,26.27139809
22.0100,26.25475825
22.0150,26.23827427
22.0200,26.22185025
22.0250,26.20561889
22.0300,26.1895637
22.0350,26.1739002
22.0400,26.15847339
22.0450,26.14317683
22.0500,26.12792735
22.0550,26.11278905
22.0600,26.09772522
22.0650,26.08252083
22.0700,26.06730675
22.0750,26.05204311
22.0800,26.03685785
22.0850,26.02156646
22.0900,26.00623625
22.0950,25.99087862
22.1000,25.97537932
22.1050,25.95954283
22.1100,25.94356263
22.1150,25.92766837
22.1200,25.91189317
22.1250,25.89638984
22.1300,25.88119878
22.1350,25.86632977
22.1400,25.85189366
22.1450,25.83791397
22.1500,25.82464513
22.1550,25.8120306
22.1600,25.7998579
22.1650,25.78833047
22.1700,25.77724592
22.1750,25.76683639
22.1800,25.75713827
22.1850,25.74799412
22.1900,25.73940867
22.1950,25.73146317
22.2000,25.72407031
22.2050,25.71716725
22.2100,25.71066164
22.2150,25.70446018
22.2200,25.69872697
22.2250,25.69341296
22.2300,25.68836084
22.2350,25.68356309
22.2400,25.67905668
22.2450,25.67476306
22.2500,25.67069568
22.2550,25.66691014
22.2600,25.6634623
22.2650,25.66029719
22.2700,25.65729746
22.2750,25.65448164
22.2800,25.65167515
22.2850,25.64870708
22.2900,25.64552199
22.2950,25.6421706
22.3000,25.63836664
22.3050,25.63414986
22.3100,25.62929744
22.3150,25.62377385
22.3200,25.61764559
22.3250,25.61086125
22.3300,25.60368479
22.3350,25.59581424
22.3400,25.58740106
22.3450,25.57834434
22.3500,25.56886639
22.3550,25.55891899
22.3600,25.54842269
22.3650,25.53748742
22.3700,25.52595054
22.3750,25.51372683
22.3800,25.50075544
22.3850,25.48703481
22.3900,25.4726417
22.3950,25.45759418
22.4000,25.44186589
22.4050,25.42533159
22.4100,25.40789194
22.4150,25.38943308
22.4200,25.37008974
22.4250,25.34977395
22.4300,25.32847379
22.4350,25.30639974
22.4400,25.28339614
22.4450,25.25956509
22.4500,25.2347287
22.4550,25.20900257
22.4600,25.18248982
22.4650,25.15514717
22.4700,25.12731658
22.4750,25.09894556
22.4800,25.06997509
22.4850,25.04046325
22.4900,25.01046457
22.4950,24.97988213
22.5000,24.94863224
22.5050,24.91666582
22.5100,24.8838506
22.5150,24.85031571
22.5200,24.81604585
22.5250,24.78105064
22.5300,24.74524442
22.5350,24.70876858
22.5400,24.67169526
22.5450,24.63385409
22.5500,24.59553642
22.5550,24.55658519
22.5600,24.51719507
22.5650,24.47709254
22.5700,24.43631002
22.5750,24.39498726
22.5800,24.3530263
22.5850,24.31058904
22.5900,24.26788077
22.5950,24.22482018
22.6000,24.18156164
22.6050,24.13808536
22.6100,24.0945543
22.6150,24.05096878
22.6200,24.0072497
22.6250,23.9631498
22.6300,23.91852665
22.6350,23.8732891
22.6400,23.82743952
22.6450,23.78097816
22.6500,23.73377069
22.6550,23.68563567
22.6600,23.63670434
22.6650,23.58683483
22.6700,23.53615401
22.6750,23.48482267
22.6800,23.4328074
22.6850,23.38015223
22.6900,23.32655924
22.6950,23.27223548
22.7000,23.21720417
22.7050,23.16163914
22.7100,23.1055147
22.7150,23.04864645
22.7200,22.99104336
22.7250,22.93265921
22.7300,22.87359054
22.7350,22.81379448
22.7400,22.75340241
22.7450,22.69238779
22.7500,22.630887
22.7550,22.56893119
22.7600,22.50657411
22.7650,22.44380426
22.7700,22.38053172
22.7750,22.31684611
22.7800,22.25283714
22.7850,22.18837588
22.7900,22.12375729
22.7950,22.05911907
22.8000,21.99474028
22.8050,21.93058999
22.8100,21.86715377
22.8150,21.80431419
22.8200,21.74213437
22.8250,21.68070039
22.8300,21.61995389
22.8350,21.55987981
22.8400,21.50050971
22.8450,21.44169809
22.8500,21.38320262
22.8550,21.32502829
22.8600,21.26703639
22.8650,21.20934385
22.8700,21.15182087
22.8750,21.0944872
22.8800,21.03735035
22.8850,20.98045961
22.8900,20.92358782
22.8950,20.86671381
22.9000,20.8097658
22.9050,20.75277567
22.9100,20.69553467
22.9150,20.63790973
22.9200,20.57985983
22.9250,20.52160417
22.9300,20.46304816
22.9350,20.40424868
22.9400,20.34516377
22.9450,20.28582025
22.9500,20.22638216
22.9550,20.16676918
22.9600,20.10688089
22.9650,20.04672828
22.9700,19.98641248
22.9750,19.92591787
22.9800,19.8652599
22.9850,19.80449545
22.9900,19.74367473
22.9950,19.6827346
23.0000,19.62168473
23.0050,19.56066463
23.0100,19.49986312
23.0150,19.43957117
23.0200,19.37971616
23.0250,19.3206266
23.0300,19.26212877
23.0350,19.20426294
23.0400,19.14687262
23.0450,19.09000127
23.0500,19.03331609
23.0550,18.97681125
23.0600,18.92029896
23.0650,18.86354836
23.0700,18.80649241
23.0750,18.74891166
23.0800,18.69072323
23.0850,18.63206472
23.0900,18.57240253
23.0950,18.51156858
23.1000,18.44934881
23.1050,18.38558307
23.1100,18.31997077
23.1150,18.2524403
23.1200,18.18277359
23.1250,18.11102476
23.1300,18.03725561
23.1350,17.9613583
23.1400,17.88318071
23.1450,17.80287405
23.1500,17.72069118
23.1550,17.63675259
23.1600,17.55109252
23.1650,17.46380698
23.1700,17.37515644
23.1750,17.28507128
23.1800,17.19376506
23.1850,17.10118545
23.1900,17.00754207
23.1950,16.91271047
23.2000,16.81675789
23.2050,16.71972013
23.2100,16.62168277
23.2150,16.52298564
23.2200,16.42386052
23.2250,16.32442588
23.2300,16.22483671
23.2350,16.1253849
23.2400,16.02611518
23.2450,15.92718419
23.2500,15.8285447
23.2550,15.73049387
23.2600,15.63317104
23.2650,15.5368768
23.2700,15.44177056
23.2750,15.34806795
23.2800,15.25602408
23.2850,15.16588573
23.2900,15.07799159
23.2950,14.99243415
23.3000,14.90942072
23.3050,14.82894967
23.3100,14.7508964
23.3150,14.67527868
23.3200,14.60211012
23.3250,14.53120687
23.3300,14.46253541
23.3350,14.39573175
23.3400,14.33091182
23.3450,14.26792131
23.3500,14.20677129
23.3550,14.14729768
23.3600,14.08957724
23.3650,14.03354952
23.3700,13.979097
23.3750,13.92614474
23.3800,13.87453295
23.3850,13.82433312
23.3900,13.77545058
23.3950,13.72784301
23.4000,13.68183948
23.4050,13.6374002
23.4100,13.59438766
23.4150,13.55281888
23.4200,13.51260389
23.4250,13.47350133
23.4300,13.43539403
23.4350,13.39835411
23.4400,13.36209833
23.4450,13.32667436
23.4500,13.29175402
23.4550,13.25698162
23.4600,13.22233411
23.4650,13.18765075
23.4700,13.15262602
23.4750,13.11721581
23.4800,13.08143264
23.4850,13.04516839
23.4900,13.00837327
23.4950,12.97123111
23.5000,12.93383258
23.5050,12.89605622
23.5100,12.85834811
23.5150,12.82058679
23.5200,12.78301223
23.5250,12.74569067
23.5300,12.70870967
23.5350,12.67204658
23.5400,12.63579835
23.5450,12.60001629
23.5500,12.56481624
23.5550,12.53011863
23.5600,12.4960381
23.5650,12.46257199
23.5700,12.42953573
23.5750,12.39693611
23.5800,12.36463931
23.5850,12.33255403
23.5900,12.30062727
23.5950,12.2687688
23.6000,12.2366831
23.6050,12.20428181
23.6100,12.1716996
23.6150,12.13869619
23.6200,12.10542178
23.6250,12.07169851
23.6300,12.03751942
23.6350,12.00305643
23.6400,11.96818609
23.6450,11.9328799
23.6500,11.89710379
23.6550,11.8608011
23.6600,11.82387674
23.6650,11.78630882
23.6700,11.74806928
23.6750,11.70895725
23.6800,11.66890266
23.6850,11.6276077
23.6900,11.5851201
23.6950,11.54123578
23.7000,11.49557741
23.7050,11.44824369
23.7100,11.3992159
23.7150,11.34853673
23.7200,11.29611222
23.7250,11.24217828
23.7300,11.18667568
23.7350,11.12968541
23.7400,11.07148801
23.7450,11.012075
23.7500,10.95157289
23.7550,10.89024504
23.7600,10.82815326
23.7650,10.76524147
23.7700,10.70177157
23.7750,10.63773049
23.7800,10.57295647
23.7850,10.50771585
23.7900,10.44198824
23.7950,10.3759032
23.8000,10.30948002
23.8050,10.24288769
23.8100,10.17602683
23.8150,10.10893838
23.8200,10.04142421
23.8250,9.973673939
23.8300,9.905610201
23.8350,9.837349672
23.8400,9.769050485
23.8450,9.700647715
23.8500,9.632394932
23.8550,9.564463886
23.8600,9.496820071
23.8650,9.4295679
23.8700,9.362857914
23.8750,9.296530759
23.8800,9.230846812
23.8850,9.165624863
23.8900,9.10085433
23.8950,9.036706864
23.9000,8.973110606
23.9050,8.910121733
23.9100,8.84751679
23.9150,8.785377258
23.9200,8.723622825
23.9250,8.662185551
23.9300,8.601198887
23.9350,8.540526897
23.9400,8.480283711
23.9450,8.420400582
23.9500,8.36099033
23.9550,8.302113225
23.9600,8.243734969
23.9650,8.186133527
23.9700,8.129311671
23.9750,8.073437981
23.9800,8.01868995
23.9850,7.965260967
23.9900,7.913353161
23.9950,7.863183223
24.0000,7.814768998
24.0050,7.768243353
24.0100,7.723658341
24.0150,7.681069175
24.0200,7.640710045
24.0250,7.602615617
24.0300,7.566732664
24.0350,7.533100064
24.0400,7.501585023
24.0450,7.472157641
24.0500,7.444920561
24.0550,7.41975411
24.0600,7.3965759
24.0650,7.375549754
24.0700,7.356495796
24.0750,7.339632154
24.0800,7.325013713
24.0850,7.312438604
24.0900,7.301925303
24.0950,7.293469902
24.1000,7.287074247
24.1050,7.282911691
24.1100,7.280687403
24.1150,7.280389004
24.1200,7.282055231
24.1250,7.285429078
24.1300,7.290618042
24.1350,7.297371455
24.1400,7.30557731
24.1450,7.315233646
24.1500,7.326088789
24.1550,7.337931836
24.1600,7.35076186
24.1650,7.364335855
24.1700,7.378736106
24.1750,7.393796639
24.1800,7.409203021
24.1850,7.425135986
24.1900,7.441366706
24.1950,7.457776685
24.2000,7.474360327
24.2050,7.491105212
24.2100,7.507896125
24.2150,7.524741456
24.2200,7.541417178
24.2250,7.558181082
24.2300,7.574729593
24.2350,7.591146875
24.2400,7.607443252
24.2450,7.623633766
24.2500,7.639601219
24.2550,7.655470655
24.2600,7.671236697
24.2650,7.686692808
24.2700,7.702039049
24.2750,7.717265215
24.2800,7.732276394
24.2850,7.746968882
24.2900,7.76147053
24.2950,7.775610136
24.3000,7.789608098
24.3050,7.803326489
24.3100,7.8169649
24.3150,7.830362777
24.3200,7.843515568
24.3250,7.856403119
24.3300,7.869053284
24.3350,7.881323326
24.3400,7.893311293
24.3450,7.904971496
24.3500,7.916015264
24.3550,7.926481081
24.3600,7.936367207
24.3650,7.945429649
24.3700,7.953914142
24.3750,7.961482017
24.3800,7.968181324
24.3850,7.973908951
24.3900,7.978656086
24.3950,7.982069232
24.4000,7.984189635
24.4050,7.984804326
24.4100,7.983976621
24.4150,7.981433228
24.4200,7.977180082
24.4250,7.971096772
24.4300,7.963134606
24.4350,7.95314692
24.4400,7.94115672
24.4450,7.92713866
24.4500,7.911136788
24.4550,7.892977712
24.4600,7.872735271
24.4650,7.850415186
24.4700,7.825868846
24.4750,7.799295583
24.4800,7.770816281
24.4850,7.740390583
24.4900,7.708136375
24.4950,7.674013764
24.5000,7.638266211
24.5050,7.600952681
24.5100,7.562227598
24.5150,7.522132855
24.5200,7.480965935
24.5250,7.438624313
24.5300,7.395322542
24.5350,7.351247603
24.5400,7.306374389
24.5450,7.260815472
24.5500,7.214762266
24.5550,7.168201955
24.5600,7.121335468
24.5650,7.07415575
24.5700,7.026672626
24.5750,6.978876969
24.5800,6.93094038
24.5850,6.883060006
24.5900,6.835202365
24.5950,6.787432306
24.6000,6.739840316
24.6050,6.692577766
24.6100,6.645665969
24.6150,6.599404325
24.6200,6.554053722
24.6250,6.509629768
24.6300,6.466568654
24.6350,6.424974255
24.6400,6.38510873
24.6450,6.346982138
24.6500,6.31102447
24.6550,6.277251185
24.6600,6.245646512
24.6650,6.216627963
24.6700,6.190078306
24.6750,6.165934756
24.6800,6.144309272
24.6850,6.125167477
24.6900,6.108380849
24.6950,6.093957731
24.7000,6.081822588
24.7050,6.071686638
24.7100,6.063316882
24.7150,6.056794035
24.7200,6.051792984
24.7250,6.048394721
24.7300,6.046150175
24.7350,6.045063927
24.7400,6.044808083
24.7450,6.04525867
24.7500,6.04629531
24.7550,6.047928102
24.7600,6.049877362
24.7650,6.052186985
24.7700,6.054750091
24.7750,6.057412952
24.7800,6.060212953
24.7850,6.062936826
24.7900,6.065566672
24.7950,6.068143725
24.8000,6.070725416
24.8050,6.073025291
24.8100,6.075020873
24.8150,6.076612703
24.8200,6.07776486
24.8250,6.07844356
24.8300,6.078540241
24.8350,6.07792664
24.8400,6.076478684
24.8450,6.07417877
24.8500,6.070947097
24.8550,6.066817475
24.8600,6.06158321
24.8650,6.055345889
24.8700,6.047975028
24.8750,6.039754981
24.8800,6.030578433
24.8850,6.0204127
24.8900,6.009263779
24.8950,5.997492886
24.9000,5.984890348
24.9050,5.971700031
24.9100,5.958027985
24.9150,5.943912597
24.9200,5.92944344
24.9250,5.914936843
24.9300,5.900409589
24.9350,5.886209104
24.9400,5.87245541
24.9450,5.859441677
24.9500,5.847359772
24.9550,5.836363154
24.9600,5.826866836
24.9650,5.818767987
24.9700,5.812351357
24.9750,5.807955497
24.9800,5.805592102
24.9850,5.805581656
24.9900,5.808053382
24.9950,5.813104143
25.0000,5.82069013
25.0050,5.830842075
25.0100,5.843801033
25.0150,5.859363584
25.0200,5.87774964
25.0250,5.898642018
25.0300,5.922076939
25.0350,5.947664022
25.0400,5.975401553
25.0450,6.004931593
25.0500,6.03584932
25.0550,6.067966492
25.0600,6.101209818
25.0650,6.134953477
25.0700,6.168992017
25.0750,6.203096275
25.0800,6.236705103
25.0850,6.269637689
25.0900,6.301378954
25.0950,6.331477256
25.1000,6.359503875
25.1050,6.385197267
25.1100,6.408299526
25.1150,6.428402857
25.1200,6.445356692
25.1250,6.458854918
25.1300,6.468510656
25.1350,6.474127761
25.1400,6.475528365
25.1450,6.47221857
25.1500,6.464061003
25.1550,6.450685962
25.1600,6.431719806
25.1650,6.407029973
25.1700,6.37644502
25.1750,6.33957435
25.1800,6.296381349
25.1850,6.246894364
25.1900,6.191114786
25.1950,6.155388432
25.2000,6.115134342
25.2050,6.070569298
25.2100,6.021970965
25.2150,5.96967366
25.2200,5.914063697
25.2250,5.855574435
25.2300,5.794681437
25.2350,5.731897322
25.2400,5.667765877
25.2450,5.602855162
25.2500,5.53775004
25.2550,5.473044724
25.2600,5.409335158
25.2650,5.347211211
25.2700,5.287249748
25.2750,5.230008949
25.2800,5.176022017
25.2850,5.125788813
25.2900,5.079765773
25.2950,5.038353574
25.3000,5.001881928
25.3050,4.970592027
25.3100,4.944615973
25.3150,4.92395241
25.3200,4.908439214
25.3250,4.8977239
25.3300,4.891232203
25.3350,4.888136226
