type,name,time_units,begin_time,frequency,count,units
signal,"Noraxon MyoMotion-Segments-Upper arm RT-Pitch","s",0.0000,200,5068,"deg"

time,value
0.0000,8.579812262
0.0050,8.578198296
0.0100,8.576584235
0.0150,8.574970081
0.0200,8.573126667
0.0250,8.571048932
0.0300,8.568738271
0.0350,8.566202608
0.0400,8.563453996
0.0450,8.560505546
0.0500,8.557369781
0.0550,8.554058463
0.0600,8.550582914
0.0650,8.546954819
0.0700,8.543187682
0.0750,8.539298085
0.0800,8.535305763
0.0850,8.531232402
0.0900,8.527099947
0.0950,8.522929463
0.1000,8.518741031
0.1050,8.514554568
0.1100,8.510391268
0.1150,8.506274959
0.1200,8.502232453
0.1250,8.498292731
0.1300,8.494485248
0.1350,8.490838176
0.1400,8.487377469
0.1450,8.484126686
0.1500,8.481106928
0.1550,8.475338688
0.1600,8.469716389
0.1650,8.464281071
0.1700,8.459170616
0.1750,8.45424873
0.1800,8.44964819
0.1850,8.445436297
0.1900,8.441676157
0.1950,8.438206892
0.2000,8.434897678
0.2050,8.431968683
0.2100,8.429232125
0.2150,8.426600049
0.2200,8.42418274
0.2250,8.421914471
0.2300,8.419843698
0.2350,8.41814048
0.2400,8.41654833
0.2450,8.41505695
0.2500,8.413646545
0.2550,8.412226676
0.2600,8.41066596
0.2650,8.409238343
0.2700,8.407769975
0.2750,8.406439002
0.2800,8.405265165
0.2850,8.404271237
0.2900,8.403180513
0.2950,8.402179163
0.3000,8.401270237
0.3050,8.400393341
0.3100,8.399549269
0.3150,8.398753523
0.3200,8.39809987
0.3250,8.397503811
0.3300,8.39689398
0.3350,8.396144743
0.3400,8.395432673
0.3450,8.394645011
0.3500,8.393898389
0.3550,8.393122278
0.3600,8.3922738
0.3650,8.391347249
0.3700,8.390291671
0.3750,8.389098014
0.3800,8.38775671
0.3850,8.38614539
0.3900,8.384257635
0.3950,8.382232379
0.4000,8.379807572
0.4050,8.377032663
0.4100,8.373998389
0.4150,8.370610224
0.4200,8.366890308
0.4250,8.362818287
0.4300,8.358401373
0.4350,8.353578787
0.4400,8.348431487
0.4450,8.343109068
0.4500,8.337442423
0.4550,8.331552374
0.4600,8.325527924
0.4650,8.319449858
0.4700,8.313220603
0.4750,8.306858203
0.4800,8.30033582
0.4850,8.293843818
0.4900,8.28717424
0.4950,8.280588238
0.5000,8.274016087
0.5050,8.267298493
0.5100,8.260666175
0.5150,8.254017882
0.5200,8.24725143
0.5250,8.240492064
0.5300,8.233708182
0.5350,8.226771287
0.5400,8.219733158
0.5450,8.212482325
0.5500,8.205165046
0.5550,8.197843777
0.5600,8.190365614
0.5650,8.182782987
0.5700,8.175018553
0.5750,8.167145411
0.5800,8.159064109
0.5850,8.150686927
0.5900,8.142366136
0.5950,8.13384589
0.6000,8.125055656
0.6050,8.116250544
0.6100,8.107508803
0.6150,8.098698685
0.6200,8.089705823
0.6250,8.080743369
0.6300,8.071805068
0.6350,8.063035588
0.6400,8.054413818
0.6450,8.045828968
0.6500,8.037248907
0.6550,8.028910858
0.6600,8.020696675
0.6650,8.012558892
0.6700,8.004608527
0.6750,7.996763342
0.6800,7.989110273
0.6850,7.981833897
0.6900,7.974675164
0.6950,7.967633035
0.7000,7.960877884
0.7050,7.954383252
0.7100,7.947976984
0.7150,7.941896373
0.7200,7.93595282
0.7250,7.930199006
0.7300,7.924714655
0.7350,7.91946641
0.7400,7.914304125
0.7450,7.909252568
0.7500,7.904337278
0.7550,7.899545135
0.7600,7.895004267
0.7650,7.89063928
0.7700,7.886274539
0.7750,7.882152055
0.7800,7.87818954
0.7850,7.874378547
0.7900,7.870730142
0.7950,7.867144008
0.8000,7.863703379
0.8050,7.860409568
0.8100,7.857257295
0.8150,7.854335903
0.8200,7.851560793
0.8250,7.848836102
0.8300,7.846169704
0.8350,7.843469128
0.8400,7.840991396
0.8450,7.838564238
0.8500,7.836192585
0.8550,7.833903967
0.8600,7.831764705
0.8650,7.829657411
0.8700,7.827834996
0.8750,7.82615032
0.8800,7.824703451
0.8850,7.823510837
0.8900,7.822401198
0.8950,7.821573319
0.9000,7.82101162
0.9050,7.820483375
0.9100,7.820065589
0.9150,7.819818854
0.9200,7.819933243
0.9250,7.820125646
0.9300,7.820576524
0.9350,7.821168931
0.9400,7.821939459
0.9450,7.822959439
0.9500,7.824219191
0.9550,7.825556404
0.9600,7.826964747
0.9650,7.828675099
0.9700,7.830516923
0.9750,7.832413638
0.9800,7.834456404
0.9850,7.836463086
0.9900,7.83861711
0.9950,7.84089029
1.0000,7.843124791
1.0050,7.845405213
1.0100,7.847790402
1.0150,7.850188316
1.0200,7.852767461
1.0250,7.855350505
1.0300,7.857935552
1.0350,7.860603919
1.0400,7.863329685
1.0450,7.865954199
1.0500,7.868634489
1.0550,7.871359153
1.0600,7.873981044
1.0650,7.876482866
1.0700,7.879030948
1.0750,7.881640367
1.0800,7.884132636
1.0850,7.886590847
1.0900,7.888974805
1.0950,7.891369797
1.1000,7.893601928
1.1050,7.895826897
1.1100,7.897879745
1.1150,7.899655608
1.1200,7.901308283
1.1250,7.902795302
1.1300,7.904198448
1.1350,7.90569483
1.1400,7.907045934
1.1450,7.908452791
1.1500,7.909754329
1.1550,7.91085693
1.1600,7.91198391
1.1650,7.913018241
1.1700,7.913898101
1.1750,7.914633484
1.1800,7.915248332
1.1850,7.915761511
1.1900,7.916358953
1.1950,7.916720717
1.2000,7.91710984
1.2050,7.917686256
1.2100,7.918361018
1.2150,7.919230601
1.2200,7.920027222
1.2250,7.92084316
1.2300,7.921574013
1.2350,7.922313946
1.2400,7.922958293
1.2450,7.923392323
1.2500,7.923703973
1.2550,7.923877609
1.2600,7.923912527
1.2650,7.923539305
1.2700,7.9229429
1.2750,7.922212307
1.2800,7.921031899
1.2850,7.91964983
1.2900,7.918130066
1.2950,7.916407809
1.3000,7.914462944
1.3050,7.912381636
1.3100,7.910091603
1.3150,7.907678393
1.3200,7.904991984
1.3250,7.902161954
1.3300,7.899188696
1.3350,7.895958204
1.3400,7.892565926
1.3450,7.888944969
1.3500,7.885076607
1.3550,7.880803529
1.3600,7.876197558
1.3650,7.871181938
1.3700,7.865731978
1.3750,7.859615265
1.3800,7.853136687
1.3850,7.846127481
1.3900,7.838704397
1.3950,7.830522289
1.4000,7.821978888
1.4050,7.812717904
1.4100,7.802810998
1.4150,7.792190941
1.4200,7.780902292
1.4250,7.769005096
1.4300,7.756373978
1.4350,7.74295604
1.4400,7.728843383
1.4450,7.71396714
1.4500,7.698446939
1.4550,7.682213659
1.4600,7.665244457
1.4650,7.647594839
1.4700,7.62924673
1.4750,7.61015334
1.4800,7.590352005
1.4850,7.569819143
1.4900,7.548629707
1.4950,7.526857999
1.5000,7.50443914
1.5050,7.481280112
1.5100,7.457270524
1.5150,7.432495912
1.5200,7.40688621
1.5250,7.380712342
1.5300,7.353823692
1.5350,7.325986578
1.5400,7.297452141
1.5450,7.268181761
1.5500,7.238117458
1.5550,7.207288235
1.5600,7.175910186
1.5650,7.144053556
1.5700,7.111779827
1.5750,7.079214478
1.5800,7.046402465
1.5850,7.013329194
1.5900,6.980045047
1.5950,6.946493946
1.6000,6.912804616
1.6050,6.878835263
1.6100,6.844619926
1.6150,6.809995591
1.6200,6.775109285
1.6250,6.739847964
1.6300,6.704327766
1.6350,6.668375772
1.6400,6.631929978
1.6450,6.595221513
1.6500,6.558140779
1.6550,6.52058074
1.6600,6.482498705
1.6650,6.443954956
1.6700,6.404857878
1.6750,6.365310966
1.6800,6.324997295
1.6850,6.284028074
1.6900,6.242252525
1.6950,6.199958194
1.7000,6.156824117
1.7050,6.113104158
1.7100,6.068801445
1.7150,6.024170486
1.7200,5.979092008
1.7250,5.933690746
1.7300,5.887964272
1.7350,5.841819757
1.7400,5.795459953
1.7450,5.748933659
1.7500,5.702350118
1.7550,5.655954967
1.7600,5.609600697
1.7650,5.5634945
1.7700,5.517863578
1.7750,5.472885079
1.7800,5.428639717
1.7850,5.3853281
1.7900,5.342764358
1.7950,5.301310633
1.8000,5.260937135
1.8050,5.221824402
1.8100,5.18399563
1.8150,5.147378238
1.8200,5.112318654
1.8250,5.078445498
1.8300,5.045953806
1.8350,5.014942356
1.8400,4.985200641
1.8450,4.956825374
1.8500,4.929808004
1.8550,4.904257057
1.8600,4.879933588
1.8650,4.857008975
1.8700,4.835215333
1.8750,4.814571696
1.8800,4.795044236
1.8850,4.776632597
1.8900,4.759014542
1.8950,4.742302032
1.9000,4.726501525
1.9050,4.71156521
1.9100,4.69740233
1.9150,4.684127425
1.9200,4.671578965
1.9250,4.659784968
1.9300,4.648540991
1.9350,4.638124267
1.9400,4.628592425
1.9450,4.619944784
1.9500,4.612209515
1.9550,4.605560954
1.9600,4.599888894
1.9650,4.595211207
1.9700,4.591517147
1.9750,4.588785868
1.9800,4.587305738
1.9850,4.586881561
1.9900,4.587659852
1.9950,4.589537962
2.0000,4.592730572
2.0050,4.59711786
2.0100,4.602812418
2.0150,4.609735486
2.0200,4.61794772
2.0250,4.627365181
2.0300,4.638137526
2.0350,4.650395404
2.0400,4.66415666
2.0450,4.679437595
2.0500,4.696234876
2.0550,4.714543753
2.0600,4.734521889
2.0650,4.756229244
2.0700,4.77952461
2.0750,4.804481122
2.0800,4.831121343
2.0850,4.859450202
2.0900,4.889581642
2.0950,4.92138036
2.1000,4.954766091
2.1050,4.989655178
2.1100,5.026037425
2.1150,5.063769724
2.1200,5.102834627
2.1250,5.143158313
2.1300,5.184611142
2.1350,5.22714854
2.1400,5.270801628
2.1450,5.315487114
2.1500,5.36110099
2.1550,5.407528303
2.1600,5.454648242
2.1650,5.502454672
2.1700,5.551107187
2.1750,5.60041602
2.1800,5.650492555
2.1850,5.701160188
2.1900,5.752528664
2.1950,5.804601141
2.2000,5.857291795
2.2050,5.910624069
2.2100,5.964591226
2.2150,6.019249166
2.2200,6.074782485
2.2250,6.131077561
2.2300,6.188221197
2.2350,6.246013021
2.2400,6.304400513
2.2450,6.363344185
2.2500,6.422650486
2.2550,6.48230152
2.2600,6.542332454
2.2650,6.602536009
2.2700,6.663128319
2.2750,6.724077864
2.2800,6.785343449
2.2850,6.846850371
2.2900,6.908627458
2.2950,6.970675567
2.3000,7.032700135
2.3050,7.094871211
2.3100,7.157083121
2.3150,7.21942006
2.3200,7.281875463
2.3250,7.344533958
2.3300,7.407409418
2.3350,7.470585486
2.3400,7.534022225
2.3450,7.597927923
2.3500,7.662250941
2.3550,7.727178367
2.3600,7.79278884
2.3650,7.859069646
2.3700,7.926089869
2.3750,7.993803427
2.3800,8.062262219
2.3850,8.131542698
2.3900,8.201550118
2.3950,8.272543928
2.4000,8.344449295
2.4050,8.417347389
2.4100,8.491376371
2.4150,8.566360082
2.4200,8.642333278
2.4250,8.719324984
2.4300,8.79734564
2.4350,8.876276429
2.4400,8.956321602
2.4450,9.037335788
2.4500,9.119421115
2.4550,9.202499644
2.4600,9.286777047
2.4650,9.37201311
2.4700,9.458321287
2.4750,9.545514548
2.4800,9.633501462
2.4850,9.722274028
2.4900,9.811811349
2.4950,9.902019317
2.5000,9.992915055
2.5050,10.08445246
2.5100,10.17664217
2.5150,10.26926051
2.5200,10.36207171
2.5250,10.45524739
2.5300,10.54850169
2.5350,10.64187733
2.5400,10.73524409
2.5450,10.82837248
2.5500,10.92141324
2.5550,11.01425162
2.5600,11.10675972
2.5650,11.19894621
2.5700,11.29034336
2.5750,11.38093636
2.5800,11.47057669
2.5850,11.55947168
2.5900,11.64765515
2.5950,11.7351743
2.6000,11.82219577
2.6050,11.90861506
2.6100,11.99466264
2.6150,12.0806304
2.6200,12.16639667
2.6250,12.25194309
2.6300,12.33729717
2.6350,12.4224674
2.6400,12.50737445
2.6450,12.59214237
2.6500,12.67680321
2.6550,12.7613314
2.6600,12.84562509
2.6650,12.9295629
2.6700,13.01303147
2.6750,13.0960676
2.6800,13.17869521
2.6850,13.26068175
2.6900,13.34236503
2.6950,13.42361345
2.7000,13.50442796
2.7050,13.58465708
2.7100,13.66412255
2.7150,13.74279137
2.7200,13.82050285
2.7250,13.89743753
2.7300,13.97361656
2.7350,14.04936225
2.7400,14.12443569
2.7450,14.19903555
2.7500,14.27304095
2.7550,14.34677188
2.7600,14.42010497
2.7650,14.4929986
2.7700,14.5652454
2.7750,14.63711411
2.7800,14.70845838
2.7850,14.77932362
2.7900,14.84972929
2.7950,14.91964971
2.8000,14.98900458
2.8050,15.05776461
2.8100,15.12598179
2.8150,15.19373813
2.8200,15.26106761
2.8250,15.32785723
2.8300,15.39451229
2.8350,15.46092785
2.8400,15.52719889
2.8450,15.5935781
2.8500,15.66002315
2.8550,15.7267986
2.8600,15.79396278
2.8650,15.86168585
2.8700,15.93020558
2.8750,15.99939663
2.8800,16.06900846
2.8850,16.13882871
2.8900,16.20872326
2.8950,16.27880034
2.9000,16.3490815
2.9050,16.41963978
2.9100,16.4901861
2.9150,16.56047659
2.9200,16.63087099
2.9250,16.70127251
2.9300,16.77163672
2.9350,16.84170468
2.9400,16.91189644
2.9450,16.98201915
2.9500,17.05216933
2.9550,17.12224072
2.9600,17.19216453
2.9650,17.26219342
2.9700,17.33233254
2.9750,17.4024141
2.9800,17.47238986
2.9850,17.54241867
2.9900,17.61239692
2.9950,17.6819707
3.0000,17.75124836
3.0050,17.81998627
3.0100,17.88847065
3.0150,17.95685877
3.0200,18.02493657
3.0250,18.09269107
3.0300,18.16033335
3.0350,18.22775901
3.0400,18.2949531
3.0450,18.36213441
3.0500,18.42940458
3.0550,18.49656252
3.0600,18.56353518
3.0650,18.63032557
3.0700,18.69685704
3.0750,18.76292571
3.0800,18.8287943
3.0850,18.89416119
3.0900,18.9589311
3.0950,19.02330221
3.1000,19.0871659
3.1050,19.15032878
3.1100,19.21264263
3.1150,19.27414931
3.1200,19.33510643
3.1250,19.39561298
3.1300,19.45560099
3.1350,19.51543893
3.1400,19.57522384
3.1450,19.63489789
3.1500,19.69450069
3.1550,19.75388237
3.1600,19.81327664
3.1650,19.87266738
3.1700,19.93206156
3.1750,19.99144964
3.1800,20.05139165
3.1850,20.11194551
3.1900,20.17289555
3.1950,20.23396433
3.2000,20.29494389
3.2050,20.35579609
3.2100,20.41654025
3.2150,20.47683705
3.2200,20.53642788
3.2250,20.59528956
3.2300,20.65335877
3.2350,20.71072599
3.2400,20.76690044
3.2450,20.82197153
3.2500,20.87574153
3.2550,20.92828382
3.2600,20.97986019
3.2650,21.03045627
3.2700,21.08004172
3.2750,21.12893815
3.2800,21.17728959
3.2850,21.22517209
3.2900,21.272653
3.2950,21.32001442
3.3000,21.36743927
3.3050,21.41527228
3.3100,21.46337501
3.3150,21.51181308
3.3200,21.56066184
3.3250,21.60989521
3.3300,21.65933772
3.3350,21.70898804
3.3400,21.75875762
3.3450,21.80842453
3.3500,21.85791645
3.3550,21.90739346
3.3600,21.95684064
3.3650,22.00649977
3.3700,22.05659032
3.3750,22.10702118
3.3800,22.15785414
3.3850,22.20935532
3.3900,22.2614745
3.3950,22.3140421
3.4000,22.3670912
3.4050,22.42080128
3.4100,22.47532602
3.4150,22.53077462
3.4200,22.58677393
3.4250,22.64359754
3.4300,22.70116744
3.4350,22.75931408
3.4400,22.81782816
3.4450,22.87667671
3.4500,22.9358029
3.4550,22.99501553
3.4600,23.05416529
3.4650,23.11303181
3.4700,23.17145585
3.4750,23.22938915
3.4800,23.28630706
3.4850,23.34206333
3.4900,23.39660483
3.4950,23.44996294
3.5000,23.50213207
3.5050,23.55302121
3.5100,23.60237504
3.5150,23.65028909
3.5200,23.6967733
3.5250,23.74170562
3.5300,23.78511508
3.5350,23.827042
3.5400,23.86755695
3.5450,23.90646477
3.5500,23.94402629
3.5550,23.98017466
3.5600,24.01499793
3.5650,24.04842176
3.5700,24.08086331
3.5750,24.11233405
3.5800,24.14285046
3.5850,24.17251915
3.5900,24.2013142
3.5950,24.22935857
3.6000,24.25654747
3.6050,24.28274291
3.6100,24.30815997
3.6150,24.33285174
3.6200,24.35712978
3.6250,24.38080776
3.6300,24.40394271
3.6350,24.42656851
3.6400,24.4490412
3.6450,24.47135533
3.6500,24.49370748
3.6550,24.51597433
3.6600,24.53837316
3.6650,24.56062154
3.6700,24.58276453
3.6750,24.6050397
3.6800,24.62718763
3.6850,24.64932554
3.6900,24.67144384
3.6950,24.69381576
3.7000,24.71646879
3.7050,24.73950066
3.7100,24.7630327
3.7150,24.78701291
3.7200,24.81187903
3.7250,24.83736989
3.7300,24.86365566
3.7350,24.89063693
3.7400,24.9184615
3.7450,24.94716369
3.7500,24.97671499
3.7550,25.00702378
3.7600,25.03791308
3.7650,25.06927748
3.7700,25.10115175
3.7750,25.13338265
3.7800,25.16593884
3.7850,25.19853705
3.7900,25.23140545
3.7950,25.26440528
3.8000,25.29742906
3.8050,25.33025808
3.8100,25.36272693
3.8150,25.39467945
3.8200,25.42598861
3.8250,25.45668792
3.8300,25.48650025
3.8350,25.51533262
3.8400,25.54318395
3.8450,25.5701922
3.8500,25.59608432
3.8550,25.62112865
3.8600,25.64507315
3.8650,25.667984
3.8700,25.6896989
3.8750,25.71039843
3.8800,25.72982994
3.8850,25.74788098
3.8900,25.76462008
3.8950,25.78002892
3.9000,25.79410826
3.9050,25.80701617
3.9100,25.81842169
3.9150,25.82841874
3.9200,25.83691357
3.9250,25.84415903
3.9300,25.85017001
3.9350,25.85493697
3.9400,25.85836156
3.9450,25.86068548
3.9500,25.86171513
3.9550,25.86160067
3.9600,25.86019462
3.9650,25.85783016
3.9700,25.85431912
3.9750,25.84959855
3.9800,25.84393088
3.9850,25.83710476
3.9900,25.8294241
3.9950,25.82071197
4.0000,25.81128394
4.0050,25.80127751
4.0100,25.79076309
4.0150,25.7797096
4.0200,25.7682309
4.0250,25.75649279
4.0300,25.74442376
4.0350,25.73230996
4.0400,25.72003621
4.0450,25.70752043
4.0500,25.69475887
4.0550,25.68195568
4.0600,25.66907114
4.0650,25.65614817
4.0700,25.64302773
4.0750,25.62974448
4.0800,25.61640496
4.0850,25.60315286
4.0900,25.58972095
4.0950,25.57614753
4.1000,25.56235022
4.1050,25.54825799
4.1100,25.53392544
4.1150,25.51943565
4.1200,25.50463537
4.1250,25.48937008
4.1300,25.4738742
4.1350,25.45795325
4.1400,25.44164936
4.1450,25.42486984
4.1500,25.40767831
4.1550,25.38983502
4.1600,25.37139001
4.1650,25.35244501
4.1700,25.33286217
4.1750,25.31237273
4.1800,25.29128997
4.1850,25.26947843
4.1900,25.24678267
4.1950,25.22319921
4.2000,25.19874048
4.2050,25.17341459
4.2100,25.14725436
4.2150,25.12017007
4.2200,25.09229481
4.2250,25.06332723
4.2300,25.033355
4.2350,25.00234146
4.2400,24.97026315
4.2450,24.93693676
4.2500,24.90251193
4.2550,24.86682162
4.2600,24.83006488
4.2650,24.79215243
4.2700,24.7531322
4.2750,24.71327304
4.2800,24.67253273
4.2850,24.63112762
4.2900,24.58901101
4.2950,24.54636312
4.3000,24.50307568
4.3050,24.45934322
4.3100,24.41500958
4.3150,24.37046202
4.3200,24.32548416
4.3250,24.28019966
4.3300,24.23471946
4.3350,24.18909454
4.3400,24.143551
4.3450,24.09817034
4.3500,24.05300181
4.3550,24.00808157
4.3600,23.96325807
4.3650,23.91861064
4.3700,23.8744357
4.3750,23.83056362
4.3800,23.78710119
4.3850,23.74402256
4.3900,23.70149281
4.3950,23.65948995
4.4000,23.61821156
4.4050,23.57755861
4.4100,23.53785637
4.4150,23.4990647
4.4200,23.46121006
4.4250,23.42432283
4.4300,23.38834928
4.4350,23.35351822
4.4400,23.31972172
4.4450,23.28683207
4.4500,23.25493515
4.4550,23.22373469
4.4600,23.19344576
4.4650,23.16378159
4.4700,23.13474277
4.4750,23.1063822
4.4800,23.07842363
4.4850,23.05079082
4.4900,23.02347797
4.4950,22.99640409
4.5000,22.96951823
4.5050,22.94276362
4.5100,22.91611378
4.5150,22.88956317
4.5200,22.86285246
4.5250,22.83625521
4.5300,22.80965326
4.5350,22.78321338
4.5400,22.75679448
4.5450,22.73042069
4.5500,22.70413217
4.5550,22.67798295
4.5600,22.65198835
4.5650,22.62597149
4.5700,22.60005523
4.5750,22.57391181
4.5800,22.54755505
4.5850,22.52076283
4.5900,22.49364029
4.5950,22.46606645
4.6000,22.43815338
4.6050,22.40947803
4.6100,22.38034745
4.6150,22.35065347
4.6200,22.32035602
4.6250,22.28951749
4.6300,22.25808876
4.6350,22.22612074
4.6400,22.19341186
4.6450,22.16004558
4.6500,22.12602061
4.6550,22.09138499
4.6600,22.05624775
4.6650,22.02084558
4.6700,21.98499228
4.6750,21.94875478
4.6800,21.91206117
4.6850,21.87504803
4.6900,21.83759012
4.6950,21.79963254
4.7000,21.76102693
4.7050,21.72204109
4.7100,21.68255703
4.7150,21.64259592
4.7200,21.60223289
4.7250,21.56160037
4.7300,21.52051631
4.7350,21.47902205
4.7400,21.43700013
4.7450,21.39437106
4.7500,21.35115169
4.7550,21.30749797
4.7600,21.26319314
4.7650,21.21835676
4.7700,21.17296404
4.7750,21.12713026
4.7800,21.08085084
4.7850,21.03423564
4.7900,20.98714854
4.7950,20.93962933
4.8000,20.89163065
4.8050,20.84309827
4.8100,20.7941508
4.8150,20.74485627
4.8200,20.69530459
4.8250,20.64553341
4.8300,20.59569509
4.8350,20.54578824
4.8400,20.49597205
4.8450,20.44632534
4.8500,20.39660461
4.8550,20.34693107
4.8600,20.29711444
4.8650,20.24741719
4.8700,20.19779025
4.8750,20.14838205
4.8800,20.09930764
4.8850,20.05052224
4.8900,20.00197465
4.8950,19.95370273
4.9000,19.90557228
4.9050,19.85769058
4.9100,19.80998906
4.9150,19.76242762
4.9200,19.71503118
4.9250,19.66780539
4.9300,19.62062219
4.9350,19.57340708
4.9400,19.52636153
4.9450,19.47936092
4.9500,19.43243416
4.9550,19.38542767
4.9600,19.33834871
4.9650,19.29110511
4.9700,19.24353802
4.9750,19.19575372
4.9800,19.14770499
4.9850,19.09938656
4.9900,19.0508633
4.9950,19.00193326
5.0000,18.95279862
5.0050,18.90329401
5.0100,18.85341713
5.0150,18.80316908
5.0200,18.75262584
5.0250,18.70181017
5.0300,18.65075179
5.0350,18.59935435
5.0400,18.54773196
5.0450,18.49609544
5.0500,18.44438938
5.0550,18.39264666
5.0600,18.3409968
5.0650,18.28939368
5.0700,18.23789171
5.0750,18.1863825
5.0800,18.13496155
5.0850,18.08367177
5.0900,18.03245556
5.0950,17.98138923
5.1000,17.93043885
5.1050,17.87946782
5.1100,17.82842247
5.1150,17.77716654
5.1200,17.7257294
5.1250,17.67403969
5.1300,17.62202024
5.1350,17.56968798
5.1400,17.51704478
5.1450,17.46412041
5.1500,17.41115449
5.1550,17.35808772
5.1600,17.30513101
5.1650,17.25197149
5.1700,17.19861438
5.1750,17.14485137
5.1800,17.09053477
5.1850,17.03570357
5.1900,16.98024057
5.1950,16.92399317
5.2000,16.86706448
5.2050,16.80961228
5.2100,16.75158576
5.2150,16.69276949
5.2200,16.63314809
5.2250,16.57263538
5.2300,16.51116656
5.2350,16.44877443
5.2400,16.38527348
5.2450,16.32065773
