type,name,time_units,begin_time,frequency,count,units
signal,"Noraxon Ultium-RT BRACHIORAD.","s",0.00000,2000,50680,"uV"

time,value
0.00000,8.863602104
0.00050,4.285685988
0.00100,5.811658027
0.00150,6.72724125
0.00200,5.201269211
0.00250,4.590880396
0.00300,6.422046842
0.00350,7.94801888
0.00400,6.72724125
0.00450,4.285685988
0.00500,2.75971395
0.00550,0.9285475033
0.00600,-1.818202166
0.00650,-5.175340651
0.00700,-7.616895912
0.00750,-9.448062359
0.00800,-10.66883999
0.00850,-10.36364558
0.00900,-7.616895912
0.00950,-4.259757428
0.01000,-2.733785389
0.01050,-4.259757428
0.01100,-6.090923874
0.01150,-5.480535058
0.01200,-1.818202166
0.01250,2.149325134
0.01300,3.98049158
0.01350,3.370102765
0.01400,1.538936319
0.01450,0.3181586879
0.01500,-0.9026189429
0.01550,-3.344174205
0.01600,-6.396118282
0.01650,-9.448062359
0.01700,-12.50000644
0.01750,-16.46753374
0.01800,-20.43506104
0.01850,-22.8766163
0.01900,-22.57142189
0.01950,-19.51947781
0.02000,-16.46753374
0.02050,-17.07792255
0.02100,-21.35064426
0.02150,-25.31817156
0.02200,-24.70778274
0.02250,-20.74025544
0.02300,-16.77272814
0.02350,-12.19481203
0.02400,-6.090923874
0.02450,-0.2922301275
0.02500,1.844130726
0.02550,2.149325134
0.02600,4.896074803
0.02650,6.72724125
0.02700,-0.9026189429
0.02750,-20.74025544
0.02800,-40.57789194
0.02850,-48.20775214
0.02900,-42.7142528
0.02950,-34.16880938
0.03000,-29.28569886
0.03050,-30.50647649
0.03100,-36.61036464
0.03150,-44.54541924
0.03200,-47.59736332
0.03250,-39.35711431
0.03300,-21.96103307
0.03350,-4.564951835
0.03400,7.642824473
0.03450,17.71423993
0.03500,30.22721064
0.03550,43.65576458
0.03600,52.201208
0.03650,50.98043037
0.03700,42.74018136
0.03750,35.11032117
0.03800,34.49993235
0.03850,38.16226524
0.03900,40.2986261
0.03950,38.16226524
0.04000,34.19473794
0.04050,30.83759946
0.04100,27.17526657
0.04150,21.68176723
0.04200,16.4934623
0.04250,14.05190703
0.04300,13.13632381
0.04350,13.13632381
0.04400,12.8311294
0.04450,12.8311294
0.04500,11.30515737
0.04550,7.94801888
0.04600,5.201269211
0.04650,5.811658027
0.04700,8.558407696
0.04750,10.69476855
0.04800,9.473990919
0.04850,6.72724125
0.04900,4.285685988
0.04950,3.370102765
0.05000,2.149325134
0.05050,0.3181586879
0.05100,-0.2922301275
0.05150,0.6233530956
0.05200,3.370102765
0.05250,5.506463619
0.05300,4.590880396
0.05350,1.538936319
0.05400,-0.9026189429
0.05450,-2.733785389
0.05500,-4.259757428
0.05550,-7.311701505
0.05600,-10.05845117
0.05650,-10.05845117
0.05700,-6.090923874
0.05750,-0.5974245352
0.05800,1.844130726
0.05850,0.3181586879
0.05900,-3.038979797
0.05950,-3.649368612
0.06000,-1.207813351
0.06050,0.3181586879
0.06100,0.3181586879
0.06150,0.3181586879
0.06200,0.9285475033
0.06250,1.844130726
0.06300,0.3181586879
0.06350,-4.259757428
0.06400,-10.9740344
0.06450,-17.38311696
0.06500,-21.35064426
0.06550,-21.04544985
0.06600,-18.29870018
0.06650,-16.77272814
0.06700,-15.85714492
0.06750,-12.80520084
0.06800,-7.92209032
0.06850,-4.564951835
0.06900,-3.95456302
0.06950,-1.818202166
0.07000,3.370102765
0.07050,9.168796511
0.07100,13.13632381
0.07150,16.4934623
0.07200,19.24021197
0.07250,17.40904552
0.07300,10.08437973
0.07350,3.064908357
0.07400,1.844130726
0.07450,3.370102765
0.07500,2.454519542
0.07550,0.3181586879
0.07600,0.3181586879
0.07650,0.3181586879
0.07700,-5.175340651
0.07750,-16.46753374
0.07800,-26.53894919
0.07850,-30.20128208
0.07900,-27.45453241
0.07950,-22.26622748
0.08000,-20.12986663
0.08050,-25.62336597
0.08100,-34.7791982
0.08150,-38.44153109
0.08200,-32.94803175
0.08250,-24.70778274
0.08300,-19.82467222
0.08350,-14.33117288
0.08400,-6.090923874
0.08450,-1.513007758
0.08500,-8.532479135
0.08550,-19.21428341
0.08600,-20.12986663
0.08650,-9.753256766
0.08700,-1.513007758
0.08750,-4.870146243
0.08800,-12.80520084
0.08850,-13.41558966
0.08900,-5.175340651
0.08950,3.98049158
0.09000,9.168796511
0.09050,11.61035177
0.09100,16.18826789
0.09150,25.95448893
0.09200,38.16226524
0.09250,47.31809747
0.09300,50.06484714
0.09350,47.01290307
0.09400,41.51940373
0.09450,35.41551557
0.09500,31.14279387
0.09550,29.61682183
0.09600,29.31162742
0.09650,27.17526657
0.09700,23.81812808
0.09750,22.59735045
0.09800,23.81812808
0.09850,21.68176723
0.09900,13.13632381
0.09950,3.98049158
0.10000,0.9285475033
0.10050,3.064908357
0.10100,4.285685988
0.10150,0.9285475033
0.10200,-3.344174205
0.10250,-4.870146243
0.10300,-3.649368612
0.10350,-1.513007758
0.10400,1.233741911
0.10450,5.811658027
0.10500,11.91554618
0.10550,16.7986567
0.10600,19.24021197
0.10650,19.24021197
0.10700,17.71423993
0.10750,14.96749026
0.10800,10.38957414
0.10850,5.201269211
0.10900,0.6233530956
0.10950,-0.2922301275
0.11000,0.9285475033
0.11050,3.370102765
0.11100,5.201269211
0.11150,5.506463619
0.11200,4.590880396
0.11250,2.75971395
0.11300,1.538936319
0.11350,1.844130726
0.11400,2.75971395
0.11450,1.844130726
0.11500,-0.2922301275
0.11550,-1.818202166
0.11600,-1.818202166
0.11650,-0.2922301275
0.11700,0.3181586879
0.11750,-0.5974245352
0.11800,-2.428590981
0.11850,-5.785729466
0.11900,-8.532479135
0.11950,-9.142867951
0.12000,-7.006507097
0.12050,-4.564951835
0.12100,-5.175340651
0.12150,-7.616895912
0.12200,-8.837673543
0.12250,-6.701312689
0.12300,-2.733785389
0.12350,0.01296428019
0.12400,-0.2922301275
0.12450,-2.733785389
0.12500,-4.870146243
0.12550,-5.175340651
0.12600,-3.649368612
0.12650,-2.733785389
0.12700,-3.344174205
0.12750,-4.564951835
0.12800,-5.175340651
0.12850,-4.564951835
0.12900,-3.344174205
0.12950,-4.259757428
0.13000,-9.448062359
0.13050,-18.909089
0.13100,-28.98050445
0.13150,-35.08439261
0.13200,-37.52594787
0.13250,-38.7467255
0.13300,-39.96750313
0.13350,-39.05191991
0.13400,-37.83114227
0.13450,-38.7467255
0.13500,-42.10386398
0.13550,-42.10386398
0.13600,-36.61036464
0.13650,-28.98050445
0.13700,-23.79219952
0.13750,-21.04544985
0.13800,-17.38311696
0.13850,-13.11039525
0.13900,-8.532479135
0.13950,-3.344174205
0.14000,3.064908357
0.14050,9.473990919
0.14100,15.57787907
0.14150,23.20773927
0.14200,30.83759946
0.14250,34.80512676
0.14300,36.6362932
0.14350,41.21420932
0.14400,48.5388751
0.14450,46.40251425
0.14500,28.7012386
0.14550,6.72724125
0.14600,-1.513007758
0.14650,5.506463619
0.14700,14.35710144
0.14750,16.4934623
0.14800,15.88307348
0.14850,18.62982315
0.14900,20.766184
0.14950,18.62982315
0.15000,16.4934623
0.15050,21.37657282
0.15100,32.6687659
0.15150,41.82459814
0.15200,43.96095899
0.15250,41.82459814
0.15300,38.16226524
0.15350,32.3635715
0.15400,22.29215604
0.15450,10.99996296
0.15500,4.285685988
0.15550,4.590880396
0.15600,7.642824473
0.15650,7.94801888
0.15700,5.811658027
0.15750,4.896074803
0.15800,6.116852434
0.15850,8.253213288
0.15900,10.08437973
0.15950,12.525935
0.16000,14.66229585
0.16050,14.35710144
0.16100,10.69476855
0.16150,6.422046842
0.16200,3.370102765
0.16250,0.9285475033
0.16300,-0.9026189429
0.16350,-0.5974245352
0.16400,3.064908357
0.16450,7.032435657
0.16500,7.032435657
0.16550,3.370102765
0.16600,1.538936319
0.16650,2.149325134
0.16700,3.064908357
0.16750,1.233741911
0.16800,-1.818202166
0.16850,-3.649368612
0.16900,-4.259757428
0.16950,-4.870146243
0.17000,-5.785729466
0.17050,-5.785729466
0.17100,-4.259757428
0.17150,-2.428590981
0.17200,-1.513007758
0.17250,-1.207813351
0.17300,0.01296428019
0.17350,1.844130726
0.17400,2.149325134
0.17450,-0.2922301275
0.17500,-3.95456302
0.17550,-5.480535058
0.17600,-5.175340651
0.17650,-6.090923874
0.17700,-8.227284728
0.17750,-9.142867951
0.17800,-7.616895912
0.17850,-6.396118282
0.17900,-7.006507097
0.17950,-7.616895912
0.18000,-6.701312689
0.18050,-4.870146243
0.18100,-5.175340651
0.18150,-6.701312689
0.18200,-8.532479135
0.18250,-9.448062359
0.18300,-10.9740344
0.18350,-11.58442321
0.18400,-11.2792288
0.18450,-9.753256766
0.18500,-7.92209032
0.18550,-6.396118282
0.18600,-4.870146243
0.18650,-4.259757428
0.18700,-4.259757428
0.18750,-3.344174205
0.18800,-1.513007758
0.18850,0.01296428019
0.18900,0.01296428019
0.18950,-0.9026189429
0.19000,-0.9026189429
0.19050,-0.2922301275
0.19100,0.01296428019
0.19150,-0.2922301275
0.19200,-1.207813351
0.19250,-3.038979797
0.19300,-4.870146243
0.19350,-6.701312689
0.19400,-8.532479135
0.19450,-10.05845117
0.19500,-10.36364558
0.19550,-9.142867951
0.19600,-8.532479135
0.19650,-10.05845117
0.19700,-14.33117288
0.19750,-20.12986663
0.19800,-26.53894919
0.19850,-33.55842057
0.19900,-40.27269754
0.19950,-48.81814095
0.20000,-62.85708371
0.20050,-80.55835935
0.20100,-91.54535803
0.20150,-87.27263632
0.20200,-71.09733271
0.20250,-53.70125148
0.20300,-40.88308635
0.20350,-28.98050445
0.20400,-15.85714492
0.20450,-2.733785389
0.20500,11.61035177
0.20550,32.3635715
0.20600,56.1687353
0.20650,72.64923331
0.20700,76.61676061
0.20750,72.95442772
0.20800,69.90248364
0.20850,64.71417871
0.20900,50.37004155
0.20950,28.3960442
0.21000,10.69476855
0.21050,5.201269211
0.21100,7.337630065
0.21150,7.337630065
0.21200,2.75971395
0.21250,-1.818202166
0.21300,-3.649368612
0.21350,-2.733785389
0.21400,-0.5974245352
0.21450,4.285685988
0.21500,11.30515737
0.21550,15.57787907
0.21600,13.13632381
0.21650,7.94801888
0.21700,5.506463619
0.21750,5.811658027
0.21800,4.590880396
0.21850,1.233741911
0.21900,-1.207813351
0.21950,-3.95456302
0.22000,-10.05845117
0.22050,-18.29870018
0.22100,-19.82467222
0.22150,-11.2792288
0.22200,0.3181586879
0.22250,6.422046842
0.22300,10.08437973
0.22350,16.4934623
0.22400,24.12332249
0.22450,25.34410012
0.22500,19.54540637
0.22550,14.35710144
0.22600,14.96749026
0.22650,19.24021197
0.22700,21.98696163
0.22750,21.68176723
0.22800,18.62982315
0.22850,12.8311294
0.22900,5.811658027
0.22950,1.844130726
0.23000,1.844130726
0.23050,3.370102765
0.23100,3.064908357
0.23150,0.6233530956
0.23200,-1.513007758
0.23250,-2.428590981
0.23300,-1.818202166
0.23350,-0.9026189429
0.23400,-0.2922301275
0.23450,-0.2922301275
0.23500,-0.5974245352
0.23550,-1.207813351
0.23600,-2.123396574
0.23650,-3.038979797
0.23700,-2.428590981
0.23750,-0.5974245352
0.23800,0.9285475033
0.23850,0.3181586879
0.23900,-1.818202166
0.23950,-3.95456302
0.24000,-4.564951835
0.24050,-4.259757428
0.24100,-3.038979797
0.24150,-2.428590981
0.24200,-3.038979797
0.24250,-4.564951835
0.24300,-5.785729466
0.24350,-6.090923874
0.24400,-5.480535058
0.24450,-4.870146243
0.24500,-4.259757428
0.24550,-3.649368612
0.24600,-3.038979797
0.24650,-3.344174205
0.24700,-4.259757428
0.24750,-4.870146243
0.24800,-5.175340651
0.24850,-5.175340651
0.24900,-5.785729466
0.24950,-6.396118282
0.25000,-6.701312689
0.25050,-6.396118282
0.25100,-5.175340651
0.25150,-4.259757428
0.25200,-4.259757428
0.25250,-4.259757428
0.25300,-3.649368612
0.25350,-3.038979797
0.25400,-2.428590981
0.25450,-2.123396574
0.25500,-1.818202166
0.25550,-1.513007758
0.25600,-2.123396574
0.25650,-2.428590981
0.25700,-2.428590981
0.25750,-2.123396574
0.25800,-1.513007758
0.25850,-1.818202166
0.25900,-2.123396574
0.25950,-3.038979797
0.26000,-3.649368612
0.26050,-3.344174205
0.26100,-2.733785389
0.26150,-3.038979797
0.26200,-4.564951835
0.26250,-5.785729466
0.26300,-6.090923874
0.26350,-6.090923874
0.26400,-6.701312689
0.26450,-7.311701505
0.26500,-7.616895912
0.26550,-8.532479135
0.26600,-12.80520084
0.26650,-20.74025544
0.26700,-29.89608767
0.26750,-34.7791982
0.26800,-33.86361497
0.26850,-28.67531004
0.26900,-24.70778274
0.26950,-24.70778274
0.27000,-25.92856037
0.27050,-23.18181071
0.27100,-14.33117288
0.27150,-2.428590981
0.27200,5.506463619
0.27250,8.863602104
0.27300,12.22074059
0.27350,19.24021197
0.27400,27.48046097
0.27450,27.17526657
0.27500,16.18826789
0.27550,4.590880396
0.27600,3.675297173
0.27650,10.99996296
0.27700,12.22074059
0.27750,0.9285475033
0.27800,-10.05845117
0.27850,-7.92209032
0.27900,3.064908357
0.27950,8.253213288
0.28000,0.6233530956
0.28050,-10.05845117
0.28100,-12.80520084
0.28150,-5.175340651
0.28200,7.94801888
0.28250,19.54540637
0.28300,24.12332249
0.28350,21.98696163
0.28400,18.93501756
0.28450,20.15579519
0.28500,23.81812808
0.28550,25.03890571
0.28600,22.90254486
0.28650,22.59735045
0.28700,24.7337113
0.28750,24.4285169
0.28800,17.40904552
0.28850,6.422046842
0.28900,-3.038979797
0.28950,-7.311701505
0.29000,-3.344174205
0.29050,6.422046842
0.29100,16.7986567
0.29150,19.85060078
0.29200,15.27268467
0.29250,9.779185327
0.29300,7.94801888
0.29350,9.168796511
0.29400,10.99996296
0.29450,15.88307348
0.29500,24.7337113
0.29550,32.6687659
0.29600,33.58434913
0.29650,27.78565538
0.29700,20.766184
0.29750,15.88307348
0.29800,10.99996296
0.29850,5.811658027
0.29900,2.454519542
0.29950,2.149325134
0.30000,1.233741911
0.30050,-0.2922301275
0.30100,0.3181586879
0.30150,5.506463619
0.30200,11.30515737
0.30250,11.30515737
0.30300,7.032435657
0.30350,4.896074803
0.30400,7.642824473
0.30450,10.38957414
0.30500,8.863602104
0.30550,4.896074803
0.30600,2.454519542
0.30650,2.75971395
0.30700,3.675297173
0.30750,4.590880396
0.30800,5.201269211
0.30850,5.201269211
0.30900,3.370102765
0.30950,0.9285475033
0.31000,-0.5974245352
0.31050,-1.513007758
0.31100,-3.344174205
0.31150,-5.480535058
0.31200,-6.396118282
0.31250,-5.480535058
0.31300,-4.564951835
0.31350,-5.175340651
0.31400,-7.311701505
0.31450,-9.448062359
0.31500,-11.58442321
0.31550,-13.11039525
0.31600,-14.02597847
0.31650,-13.11039525
0.31700,-11.58442321
0.31750,-11.2792288
0.31800,-11.2792288
0.31850,-9.753256766
0.31900,-5.480535058
0.31950,-1.818202166
0.32000,-1.207813351
0.32050,-2.733785389
0.32100,-3.344174205
0.32150,-3.344174205
0.32200,-4.564951835
0.32250,-6.090923874
0.32300,-5.480535058
0.32350,-1.818202166
0.32400,1.538936319
0.32450,1.233741911
0.32500,-1.513007758
0.32550,-3.95456302
0.32600,-4.259757428
0.32650,-4.564951835
0.32700,-7.006507097
0.32750,-9.448062359
0.32800,-10.36364558
0.32850,-10.05845117
0.32900,-9.753256766
0.32950,-8.227284728
0.33000,-4.259757428
0.33050,-0.9026189429
0.33100,-1.207813351
0.33150,-4.564951835
0.33200,-5.480535058
0.33250,-2.428590981
0.33300,-0.9026189429
0.33350,-7.616895912
0.33400,-21.65583867
0.33450,-36.61036464
0.33500,-47.90255773
0.33550,-54.31164029
0.33600,-56.75319555
0.33650,-56.14280674
0.33700,-54.6168347
0.33750,-54.6168347
0.33800,-54.00644588
0.33850,-50.6493074
0.33900,-44.85061365
0.33950,-37.83114227
0.34000,-27.75972682
0.34050,-11.88961762
0.34100,8.253213288
0.34150,29.00643301
0.34200,47.31809747
0.34250,63.18820667
0.34300,74.17520535
0.34350,75.09078857
0.34400,66.24015075
0.34450,54.03237444
0.34500,43.96095899
0.34550,34.49993235
0.34600,22.29215604
0.34650,9.473990919
0.34700,0.9285475033
0.34750,-2.123396574
0.34800,-3.649368612
0.34850,-9.142867951
0.34900,-18.60389459
0.34950,-28.37011564
0.35000,-33.25322616
0.35050,-32.03244853
0.35100,-27.75972682
0.35150,-21.65583867
0.35200,-11.58442321
0.35250,1.844130726
0.35300,11.30515737
0.35350,10.38957414
0.35400,3.675297173
0.35450,2.454519542
0.35500,9.779185327
0.35550,18.32462874
0.35600,21.37657282
0.35650,19.24021197
0.35700,14.66229585
0.35750,9.779185327
0.35800,7.642824473
0.35850,11.91554618
0.35900,19.85060078
0.35950,22.59735045
0.36000,15.57787907
0.36050,5.811658027
0.36100,2.149325134
0.36150,4.896074803
0.36200,6.422046842
0.36250,4.285685988
0.36300,1.844130726
0.36350,0.3181586879
0.36400,-1.818202166
0.36450,-5.175340651
0.36500,-4.870146243
0.36550,0.3181586879
0.36600,6.116852434
0.36650,6.116852434
0.36700,0.3181586879
0.36750,-5.785729466
0.36800,-8.837673543
0.36850,-8.532479135
0.36900,-6.701312689
0.36950,-6.701312689
0.37000,-10.05845117
0.37050,-15.2467561
0.37100,-18.60389459
0.37150,-18.60389459
0.37200,-17.07792255
0.37250,-15.55195051
0.37300,-13.11039525
0.37350,-9.142867951
0.37400,-5.785729466
0.37450,-6.090923874
0.37500,-8.227284728
0.37550,-6.701312689
0.37600,-0.2922301275
0.37650,5.506463619
0.37700,6.422046842
0.37750,2.454519542
0.37800,-0.9026189429
0.37850,-3.038979797
0.37900,-6.396118282
0.37950,-10.9740344
0.38000,-12.50000644
0.38050,-8.532479135
0.38100,-2.428590981
0.38150,-0.2922301275
0.38200,-2.428590981
0.38250,-5.480535058
0.38300,-5.785729466
0.38350,-4.564951835
0.38400,-3.344174205
0.38450,-2.428590981
0.38500,-1.513007758
0.38550,-0.2922301275
0.38600,1.538936319
0.38650,3.064908357
0.38700,2.149325134
0.38750,-1.207813351
0.38800,-4.259757428
0.38850,-4.870146243
0.38900,-5.480535058
0.38950,-9.142867951
0.39000,-14.33117288
0.39050,-17.07792255
0.39100,-15.55195051
0.39150,-13.41558966
0.39200,-14.63636729
0.39250,-19.21428341
0.39300,-25.92856037
0.39350,-32.33764294
0.39400,-36.30517024
0.39450,-35.69478142
0.39500,-31.42205971
0.39550,-27.14933801
0.39600,-26.23375478
0.39650,-27.14933801
0.39700,-26.53894919
0.39750,-24.40258834
0.39800,-22.57142189
0.39850,-19.51947781
0.39900,-10.36364558
0.39950,5.811658027
0.40000,23.81812808
0.40050,35.11032117
0.40100,37.24668202
0.40150,34.19473794
0.40200,30.53240505
0.40250,27.48046097
0.40300,25.64929453
0.40350,25.64929453
0.40400,26.87007216
0.40450,25.95448893
0.40500,20.766184
0.40550,13.74671263
0.40600,8.863602104
0.40650,8.253213288
0.40700,9.168796511
0.40750,8.558407696
0.40800,6.116852434
0.40850,3.370102765
0.40900,1.233741911
0.40950,-0.5974245352
0.41000,-3.649368612
0.41050,-6.090923874
0.41100,-6.090923874
0.41150,-4.564951835
0.41200,-3.649368612
0.41250,-4.564951835
0.41300,-5.175340651
0.41350,-3.649368612
0.41400,-2.123396574
0.41450,-2.733785389
0.41500,-3.038979797
0.41550,2.454519542
0.41600,12.8311294
0.41650,18.32462874
0.41700,14.05190703
0.41750,5.201269211
0.41800,0.3181586879
0.41850,-0.5974245352
0.41900,-2.123396574
0.41950,-3.95456302
0.42000,-0.9026189429
0.42050,7.032435657
0.42100,13.44151822
0.42150,10.99996296
0.42200,3.064908357
0.42250,-3.038979797
0.42300,-4.259757428
0.42350,-3.649368612
0.42400,-2.733785389
0.42450,-1.818202166
0.42500,-0.5974245352
0.42550,-0.2922301275
0.42600,0.3181586879
0.42650,2.75971395
0.42700,7.032435657
0.42750,9.779185327
0.42800,10.38957414
0.42850,10.99996296
0.42900,13.13632381
0.42950,13.44151822
0.43000,8.253213288
0.43050,-0.2922301275
0.43100,-7.311701505
0.43150,-8.532479135
0.43200,-3.95456302
0.43250,3.98049158
0.43300,12.8311294
0.43350,17.71423993
0.43400,15.88307348
0.43450,8.863602104
0.43500,2.454519542
0.43550,1.538936319
0.43600,5.201269211
0.43650,8.558407696
0.43700,7.94801888
0.43750,3.98049158
0.43800,0.3181586879
0.43850,-0.5974245352
0.43900,-0.2922301275
0.43950,0.01296428019
0.44000,0.3181586879
0.44050,0.9285475033
0.44100,2.149325134
0.44150,3.370102765
0.44200,4.896074803
0.44250,6.72724125
0.44300,10.38957414
0.44350,14.66229585
0.44400,17.71423993
0.44450,17.40904552
0.44500,15.88307348
0.44550,15.88307348
0.44600,17.71423993
0.44650,18.01943433
0.44700,15.27268467
0.44750,11.30515737
0.44800,8.558407696
0.44850,7.032435657
0.44900,5.811658027
0.44950,5.506463619
0.45000,5.811658027
0.45050,5.201269211
0.45100,3.675297173
0.45150,3.675297173
0.45200,5.506463619
0.45250,3.98049158
0.45300,-2.123396574
0.45350,-6.701312689
0.45400,-2.733785389
0.45450,6.116852434
0.45500,10.99996296
0.45550,6.72724125
0.45600,-0.2922301275
0.45650,-4.259757428
0.45700,-5.175340651
0.45750,-6.701312689
0.45800,-7.92209032
0.45850,-6.701312689
0.45900,-2.428590981
0.45950,1.844130726
0.46000,3.370102765
0.46050,2.149325134
0.46100,0.6233530956
0.46150,0.9285475033
0.46200,1.233741911
0.46250,-0.2922301275
0.46300,-3.95456302
0.46350,-6.090923874
0.46400,-5.175340651
0.46450,-3.038979797
0.46500,-2.733785389
0.46550,-4.870146243
0.46600,-8.532479135
0.46650,-12.19481203
0.46700,-14.33117288
0.46750,-15.85714492
0.46800,-20.12986663
0.46850,-27.45453241
0.46900,-33.86361497
0.46950,-35.38958701
0.47000,-33.55842057
0.47050,-31.11686531
0.47100,-27.75972682
0.47150,-23.48700511
0.47200,-22.8766163
0.47250,-28.06492123
0.47300,-31.11686531
0.47350,-23.18181071
0.47400,-7.616895912
0.47450,2.454519542
0.47500,3.370102765
0.47550,2.149325134
0.47600,7.032435657
0.47650,16.18826789
0.47700,21.98696163
0.47750,21.07137841
0.47800,15.88307348
0.47850,11.91554618
0.47900,14.05190703
0.47950,23.81812808
0.48000,36.6362932
0.48050,45.18173662
0.48100,47.92848629
0.48150,48.2336807
0.48200,47.92848629
0.48250,45.18173662
0.48300,38.16226524
0.48350,28.7012386
0.48400,21.37657282
0.48450,18.32462874
0.48500,18.93501756
0.48550,18.62982315
0.48600,14.96749026
0.48650,8.558407696
0.48700,3.98049158
0.48750,4.896074803
0.48800,10.08437973
0.48850,15.57787907
0.48900,19.54540637
0.48950,20.4609896
0.49000,18.01943433
0.49050,12.525935
0.49100,6.422046842
0.49150,2.454519542
0.49200,0.9285475033
0.49250,-0.2922301275
0.49300,-2.123396574
0.49350,-4.870146243
0.49400,-9.142867951
0.49450,-13.41558966
0.49500,-14.9415617
0.49550,-11.88961762
0.49600,-7.616895912
0.49650,-6.396118282
0.49700,-8.837673543
0.49750,-11.2792288
0.49800,-10.66883999
0.49850,-7.616895912
0.49900,-2.428590981
0.49950,4.590880396
0.50000,12.22074059
0.50050,17.10385111
0.50100,17.71423993
0.50150,15.88307348
0.50200,12.525935
0.50250,7.032435657
0.50300,0.6233530956
0.50350,-3.95456302
0.50400,-5.175340651
0.50450,-3.95456302
0.50500,-3.038979797
0.50550,-2.428590981
0.50600,-3.038979797
0.50650,-4.870146243
0.50700,-6.090923874
0.50750,-4.259757428
0.50800,0.01296428019
0.50850,3.675297173
0.50900,6.116852434
0.50950,10.08437973
0.51000,14.35710144
0.51050,14.35710144
0.51100,10.08437973
0.51150,6.116852434
0.51200,5.201269211
0.51250,3.370102765
0.51300,-1.513007758
0.51350,-5.175340651
0.51400,-4.259757428
0.51450,-2.428590981
0.51500,-5.175340651
0.51550,-10.36364558
0.51600,-14.33117288
0.51650,-20.12986663
0.51700,-29.89608767
0.51750,-36.61036464
0.51800,-33.25322616
0.51850,-25.62336597
0.51900,-25.01297715
0.51950,-31.42205971
0.52000,-35.08439261
0.52050,-31.72725412
0.52100,-28.06492123
0.52150,-27.45453241
0.52200,-22.57142189
0.52250,-7.006507097
0.52300,13.13632381
0.52350,28.7012386
0.52400,35.41551557
0.52450,36.6362932
0.52500,35.11032117
0.52550,31.75318268
0.52600,27.48046097
0.52650,22.90254486
0.52700,18.32462874
0.52750,14.66229585
0.52800,13.13632381
0.52850,13.44151822
0.52900,12.525935
0.52950,10.38957414
0.53000,9.473990919
0.53050,11.61035177
0.53100,11.91554618
0.53150,5.811658027
0.53200,-3.95456302
0.53250,-11.88961762
0.53300,-13.72078407
0.53350,-12.50000644
0.53400,-10.36364558
0.53450,-6.701312689
0.53500,-0.9026189429
0.53550,4.896074803
0.53600,6.116852434
0.53650,2.454519542
0.53700,-2.428590981
0.53750,-4.870146243
0.53800,-4.259757428
0.53850,-3.95456302
0.53900,-4.870146243
0.53950,-4.259757428
0.54000,-1.513007758
0.54050,-0.5974245352
0.54100,-5.480535058
0.54150,-13.72078407
0.54200,-19.51947781
0.54250,-20.43506104
0.54300,-19.51947781
0.54350,-18.60389459
0.54400,-16.46753374
0.54450,-11.88961762
0.54500,-8.532479135
0.54550,-8.227284728
0.54600,-8.532479135
0.54650,-7.616895912
0.54700,-5.785729466
0.54750,-3.038979797
0.54800,2.149325134
0.54850,11.30515737
0.54900,18.32462874
0.54950,18.32462874
0.55000,14.05190703
0.55050,11.61035177
0.55100,9.473990919
0.55150,4.285685988
0.55200,-1.207813351
0.55250,-1.818202166
0.55300,2.454519542
0.55350,4.285685988
0.55400,0.6233530956
0.55450,-3.344174205
0.55500,-5.175340651
0.55550,-6.701312689
0.55600,-9.142867951
0.55650,-9.142867951
0.55700,-7.311701505
0.55750,-10.36364558
0.55800,-19.21428341
0.55850,-23.18181071
0.55900,-14.02597847
0.55950,1.233741911
0.56000,9.779185327
0.56050,9.473990919
0.56100,9.168796511
0.56150,13.74671263
0.56200,19.24021197
0.56250,19.85060078
0.56300,15.57787907
0.56350,10.08437973
0.56400,6.422046842
0.56450,5.506463619
0.56500,6.72724125
0.56550,7.94801888
0.56600,7.642824473
0.56650,8.253213288
0.56700,11.61035177
0.56750,13.13632381
0.56800,8.863602104
0.56850,1.844130726
0.56900,-0.5974245352
0.56950,2.149325134
0.57000,3.98049158
0.57050,-0.5974245352
0.57100,-7.92209032
0.57150,-11.58442321
0.57200,-10.05845117
0.57250,-7.006507097
0.57300,-4.564951835
0.57350,-2.428590981
0.57400,-2.123396574
0.57450,-6.090923874
0.57500,-13.72078407
0.57550,-20.43506104
0.57600,-21.96103307
0.57650,-17.99350577
0.57700,-14.9415617
0.57750,-17.07792255
0.57800,-25.01297715
0.57850,-34.47400379
0.57900,-41.18828076
0.57950,-44.54541924
0.58000,-44.24022484
0.58050,-38.7467255
0.58100,-26.53894919
0.58150,-10.9740344
0.58200,2.454519542
0.58250,10.69476855
0.58300,12.525935
0.58350,11.61035177
0.58400,12.8311294
0.58450,18.62982315
0.58500,27.48046097
0.58550,35.72070998
0.58600,40.2986261
0.58650,39.68823728
0.58700,34.19473794
0.58750,27.17526657
0.58800,22.29215604
0.58850,20.4609896
0.58900,20.766184
0.58950,22.59735045
0.59000,25.03890571
0.59050,25.03890571
0.59100,21.07137841
0.59150,14.96749026
0.59200,13.13632381
0.59250,17.40904552
0.59300,22.90254486
0.59350,22.29215604
0.59400,15.88307348
0.59450,7.94801888
0.59500,3.064908357
0.59550,0.3181586879
0.59600,-1.818202166
0.59650,-3.038979797
0.59700,-3.038979797
0.59750,-2.733785389
0.59800,-4.564951835
0.59850,-7.92209032
0.59900,-10.66883999
0.59950,-10.36364558
0.60000,-8.227284728
0.60050,-7.311701505
0.60100,-9.142867951
0.60150,-10.05845117
0.60200,-8.532479135
0.60250,-7.616895912
0.60300,-10.36364558
0.60350,-12.50000644
0.60400,-8.532479135
0.60450,0.6233530956
0.60500,7.032435657
0.60550,5.201269211
0.60600,0.3181586879
0.60650,-0.9026189429
0.60700,0.9285475033
0.60750,3.370102765
0.60800,5.506463619
0.60850,7.94801888
0.60900,10.08437973
0.60950,10.38957414
0.61000,8.863602104
0.61050,7.94801888
0.61100,8.863602104
0.61150,9.473990919
0.61200,7.94801888
0.61250,5.201269211
0.61300,3.675297173
0.61350,4.285685988
0.61400,5.506463619
0.61450,4.896074803
0.61500,2.454519542
0.61550,0.3181586879
0.61600,-0.2922301275
0.61650,-2.123396574
0.61700,-5.785729466
0.61750,-9.142867951
0.61800,-10.05845117
0.61850,-10.05845117
0.61900,-10.05845117
0.61950,-8.532479135
0.62000,-5.480535058
0.62050,-3.344174205
0.62100,-3.95456302
0.62150,-5.480535058
0.62200,-4.564951835
0.62250,-2.428590981
0.62300,-0.9026189429
0.62350,-2.123396574
0.62400,-4.870146243
0.62450,-7.616895912
0.62500,-10.05845117
0.62550,-11.88961762
0.62600,-12.80520084
0.62650,-13.72078407
0.62700,-14.63636729
0.62750,-14.9415617
0.62800,-15.2467561
0.62850,-15.55195051
0.62900,-14.33117288
0.62950,-9.753256766
0.63000,-3.95456302
0.63050,-1.207813351
0.63100,-1.818202166
0.63150,-1.513007758
0.63200,1.233741911
0.63250,3.98049158
0.63300,4.285685988
0.63350,4.285685988
0.63400,5.201269211
0.63450,5.811658027
0.63500,4.590880396
0.63550,3.675297173
0.63600,4.896074803
0.63650,5.811658027
0.63700,3.675297173
0.63750,0.01296428019
0.63800,-3.95456302
0.63850,-8.227284728
0.63900,-14.02597847
0.63950,-20.12986663
0.64000,-25.92856037
0.64050,-32.03244853
0.64100,-37.52594787
0.64150,-40.88308635
0.64200,-42.10386398
0.64250,-42.7142528
0.64300,-40.57789194
0.64350,-32.33764294
0.64400,-18.909089
0.64450,-7.006507097
0.64500,0.3181586879
0.64550,5.506463619
0.64600,11.61035177
0.64650,15.88307348
0.64700,15.88307348
0.64750,15.27268467
0.64800,18.32462874
0.64850,22.59735045
0.64900,22.29215604
0.64950,17.71423993
0.65000,13.44151822
0.65050,11.61035177
0.65100,8.863602104
0.65150,2.149325134
0.65200,-2.733785389
0.65250,0.01296428019
0.65300,10.99996296
0.65350,23.51293367
0.65400,30.22721064
0.65450,31.14279387
0.65500,30.53240505
0.65550,29.92201623
0.65600,29.00643301
0.65650,26.56487775
0.65700,23.20773927
0.65750,18.32462874
0.65800,10.38957414
0.65850,1.233741911
0.65900,-2.428590981
0.65950,2.149325134
0.66000,11.30515737
0.66050,16.4934623
0.66100,14.35710144
0.66150,8.558407696
0.66200,4.285685988
0.66250,3.064908357
0.66300,4.285685988
0.66350,6.422046842
0.66400,6.422046842
0.66450,2.454519542
0.66500,-3.038979797
0.66550,-6.701312689
0.66600,-8.837673543
0.66650,-11.58442321
0.66700,-13.11039525
0.66750,-9.448062359
0.66800,-0.5974245352
0.66850,5.506463619
0.66900,4.285685988
0.66950,0.01296428019
0.67000,-1.513007758
0.67050,0.3181586879
0.67100,0.3181586879
0.67150,-1.513007758
0.67200,-0.5974245352
0.67250,3.064908357
0.67300,5.811658027
0.67350,3.370102765
0.67400,-0.2922301275
0.67450,-0.5974245352
0.67500,3.064908357
0.67550,6.116852434
0.67600,3.98049158
0.67650,-2.123396574
0.67700,-7.006507097
0.67750,-7.006507097
0.67800,-3.038979797
0.67850,0.9285475033
0.67900,4.896074803
0.67950,9.473990919
0.68000,12.525935
0.68050,10.99996296
0.68100,5.201269211
0.68150,0.6233530956
0.68200,2.149325134
0.68250,6.72724125
0.68300,7.94801888
0.68350,4.285685988
0.68400,0.01296428019
0.68450,-1.513007758
0.68500,-1.818202166
0.68550,-3.649368612
0.68600,-6.701312689
0.68650,-9.753256766
0.68700,-11.2792288
0.68750,-10.9740344
0.68800,-9.753256766
0.68850,-8.227284728
0.68900,-8.532479135
0.68950,-9.142867951
0.69000,-8.227284728
0.69050,-5.175340651
0.69100,-1.513007758
0.69150,0.01296428019
0.69200,-0.5974245352
0.69250,-0.5974245352
0.69300,1.844130726
0.69350,6.422046842
0.69400,10.08437973
0.69450,11.30515737
0.69500,11.30515737
0.69550,11.91554618
0.69600,12.8311294
0.69650,11.91554618
0.69700,7.94801888
0.69750,0.6233530956
0.69800,-8.227284728
0.69850,-15.2467561
0.69900,-17.38311696
0.69950,-14.63636729
0.70000,-11.2792288
0.70050,-10.36364558
0.70100,-10.05845117
0.70150,-8.227284728
0.70200,-6.701312689
0.70250,-6.396118282
0.70300,-4.564951835
0.70350,0.9285475033
0.70400,7.642824473
0.70450,10.38957414
0.70500,8.863602104
0.70550,6.116852434
0.70600,3.370102765
0.70650,0.01296428019
0.70700,-2.428590981
0.70750,-1.207813351
0.70800,0.3181586879
0.70850,-1.818202166
0.70900,-9.448062359
0.70950,-17.07792255
0.71000,-20.74025544
0.71050,-19.21428341
0.71100,-14.33117288
0.71150,-7.92209032
0.71200,-3.038979797
0.71250,-1.207813351
0.71300,0.3181586879
0.71350,5.201269211
0.71400,9.779185327
0.71450,7.642824473
0.71500,-1.207813351
0.71550,-7.616895912
0.71600,-5.175340651
0.71650,2.149325134
0.71700,6.72724125
0.71750,6.116852434
0.71800,2.75971395
0.71850,-0.9026189429
0.71900,-5.175340651
0.71950,-7.311701505
0.72000,-4.870146243
0.72050,0.6233530956
0.72100,5.506463619
0.72150,6.116852434
0.72200,4.285685988
0.72250,3.675297173
0.72300,4.285685988
0.72350,4.590880396
0.72400,4.896074803
0.72450,5.506463619
0.72500,5.506463619
0.72550,4.590880396
0.72600,3.370102765
0.72650,3.064908357
0.72700,2.149325134
0.72750,-0.5974245352
0.72800,-2.123396574
0.72850,3.064908357
0.72900,13.44151822
0.72950,20.4609896
0.73000,19.85060078
0.73050,15.27268467
0.73100,13.44151822
0.73150,15.88307348
0.73200,17.71423993
0.73250,15.27268467
0.73300,10.69476855
0.73350,7.337630065
0.73400,7.337630065
0.73450,8.863602104
0.73500,9.779185327
0.73550,10.38957414
0.73600,12.22074059
0.73650,13.74671263
0.73700,12.525935
0.73750,8.253213288
0.73800,5.201269211
0.73850,5.201269211
0.73900,5.506463619
0.73950,3.675297173
0.74000,0.6233530956
0.74050,-1.513007758
0.74100,-3.038979797
0.74150,-6.090923874
0.74200,-9.448062359
0.74250,-12.19481203
0.74300,-13.11039525
0.74350,-13.41558966
0.74400,-12.80520084
0.74450,-10.36364558
0.74500,-7.311701505
0.74550,-5.175340651
0.74600,-4.259757428
0.74650,-2.733785389
0.74700,0.01296428019
0.74750,1.844130726
0.74800,2.454519542
0.74850,0.9285475033
0.74900,-1.513007758
0.74950,-3.344174205
0.75000,-2.733785389
0.75050,-1.207813351
0.75100,-2.123396574
0.75150,-4.564951835
0.75200,-4.870146243
0.75250,-2.428590981
0.75300,-0.5974245352
0.75350,-2.123396574
0.75400,-4.870146243
0.75450,-5.480535058
0.75500,-4.259757428
0.75550,-4.870146243
0.75600,-7.311701505
0.75650,-8.837673543
0.75700,-7.92209032
0.75750,-7.311701505
0.75800,-9.448062359
0.75850,-12.19481203
0.75900,-11.2792288
0.75950,-6.701312689
0.76000,-3.344174205
0.76050,-3.649368612
0.76100,-3.649368612
0.76150,0.01296428019
0.76200,3.675297173
0.76250,2.149325134
0.76300,-3.344174205
0.76350,-8.532479135
0.76400,-8.837673543
0.76450,-6.701312689
0.76500,-7.006507097
0.76550,-12.80520084
0.76600,-23.48700511
0.76650,-33.25322616
0.76700,-34.16880938
0.76750,-23.79219952
0.76800,-10.05845117
0.76850,-0.9026189429
0.76900,3.064908357
0.76950,6.72724125
0.77000,10.69476855
0.77050,12.525935
0.77100,12.525935
0.77150,13.13632381
0.77200,13.44151822
0.77250,11.30515737
0.77300,11.61035177
0.77350,19.54540637
0.77400,31.44798827
0.77450,35.72070998
0.77500,27.78565538
0.77550,16.4934623
0.77600,9.473990919
0.77650,7.032435657
0.77700,5.506463619
0.77750,5.201269211
0.77800,6.116852434
0.77850,5.811658027
0.77900,3.370102765
0.77950,2.454519542
0.78000,3.675297173
0.78050,0.9285475033
0.78100,-8.837673543
0.78150,-19.82467222
0.78200,-21.65583867
0.78250,-14.9415617
0.78300,-9.448062359
0.78350,-10.05845117
0.78400,-13.41558966
0.78450,-15.55195051
0.78500,-17.99350577
0.78550,-21.35064426
0.78600,-21.04544985
0.78650,-13.11039525
0.78700,-0.9026189429
0.78750,7.337630065
0.78800,8.558407696
0.78850,5.506463619
0.78900,0.3181586879
0.78950,-6.701312689
0.79000,-15.2467561
0.79050,-19.82467222
0.79100,-17.38311696
0.79150,-10.36364558
0.79200,-4.870146243
0.79250,-2.733785389
0.79300,-1.818202166
0.79350,-0.2922301275
0.79400,0.3181586879
0.79450,-0.2922301275
0.79500,0.01296428019
0.79550,3.675297173
0.79600,11.30515737
0.79650,18.01943433
0.79700,20.15579519
0.79750,18.93501756
0.79800,17.10385111
0.79850,15.57787907
0.79900,13.74671263
0.79950,10.69476855
0.80000,8.863602104
0.80050,8.863602104
0.80100,7.032435657
0.80150,0.9285475033
0.80200,-6.396118282
0.80250,-10.36364558
0.80300,-9.448062359
0.80350,-7.006507097
0.80400,-5.785729466
0.80450,-5.480535058
0.80500,-4.870146243
0.80550,-4.259757428
0.80600,-5.175340651
0.80650,-6.396118282
0.80700,-7.006507097
0.80750,-7.616895912
0.80800,-10.66883999
0.80850,-15.55195051
0.80900,-17.68831137
0.80950,-14.9415617
0.81000,-9.448062359
0.81050,-6.396118282
0.81100,-7.92209032
0.81150,-10.9740344
0.81200,-13.11039525
0.81250,-14.9415617
0.81300,-17.07792255
0.81350,-17.07792255
0.81400,-11.88961762
0.81450,-3.95456302
0.81500,2.454519542
0.81550,6.422046842
0.81600,9.168796511
0.81650,12.22074059
0.81700,14.66229585
0.81750,14.66229585
0.81800,12.22074059
0.81850,8.253213288
0.81900,2.75971395
0.81950,-4.870146243
0.82000,-13.72078407
0.82050,-20.74025544
0.82100,-23.48700511
0.82150,-21.65583867
0.82200,-19.21428341
0.82250,-18.60389459
0.82300,-19.21428341
0.82350,-17.07792255
0.82400,-10.05845117
0.82450,-1.513007758
0.82500,5.506463619
0.82550,10.99996296
0.82600,13.44151822
0.82650,12.525935
0.82700,8.253213288
0.82750,3.675297173
0.82800,0.6233530956
0.82850,-2.733785389
0.82900,-8.532479135
0.82950,-15.2467561
0.83000,-20.43506104
0.83050,-23.79219952
0.83100,-26.53894919
0.83150,-25.92856037
0.83200,-18.909089
0.83250,-4.870146243
0.83300,9.473990919
0.83350,18.01943433
0.83400,18.93501756
0.83450,17.40904552
0.83500,21.07137841
0.83550,30.53240505
0.83600,38.46745965
0.83650,38.46745965
0.83700,32.6687659
0.83750,25.95448893
0.83800,21.68176723
0.83850,18.01943433
0.83900,13.74671263
0.83950,8.863602104
0.84000,3.98049158
0.84050,-0.2922301275
0.84100,-1.513007758
0.84150,2.149325134
0.84200,8.863602104
0.84250,12.525935
0.84300,11.30515737
0.84350,7.032435657
0.84400,2.454519542
0.84450,-0.5974245352
0.84500,0.01296428019
0.84550,4.896074803
0.84600,11.61035177
0.84650,14.05190703
0.84700,11.91554618
0.84750,9.473990919
0.84800,9.473990919
0.84850,7.337630065
0.84900,-1.513007758
0.84950,-15.2467561
0.85000,-24.09739393
0.85050,-21.96103307
0.85100,-11.2792288
0.85150,0.3181586879
0.85200,7.032435657
0.85250,7.337630065
0.85300,3.064908357
0.85350,-2.123396574
0.85400,-4.564951835
0.85450,-3.344174205
0.85500,-2.428590981
0.85550,-4.259757428
0.85600,-7.616895912
0.85650,-10.36364558
0.85700,-12.50000644
0.85750,-15.55195051
0.85800,-18.29870018
0.85850,-16.46753374
0.85900,-10.9740344
0.85950,-5.480535058
0.86000,-3.344174205
0.86050,-2.428590981
0.86100,-1.513007758
0.86150,-0.5974245352
0.86200,0.6233530956
0.86250,4.590880396
0.86300,10.99996296
0.86350,16.4934623
0.86400,19.54540637
0.86450,21.07137841
0.86500,22.29215604
0.86550,20.4609896
0.86600,14.66229585
0.86650,7.94801888
0.86700,5.201269211
0.86750,6.72724125
0.86800,9.473990919
0.86850,10.08437973
0.86900,7.642824473
0.86950,3.675297173
0.87000,0.3181586879
0.87050,-1.207813351
0.87100,-0.9026189429
0.87150,-0.5974245352
0.87200,0.3181586879
0.87250,3.370102765
0.87300,9.168796511
0.87350,13.44151822
0.87400,12.8311294
0.87450,9.168796511
0.87500,5.201269211
0.87550,1.844130726
0.87600,-0.5974245352
0.87650,-1.207813351
0.87700,0.6233530956
0.87750,3.370102765
0.87800,3.98049158
0.87850,2.149325134
0.87900,0.3181586879
0.87950,-1.207813351
0.88000,-4.564951835
0.88050,-7.92209032
0.88100,-9.142867951
0.88150,-8.227284728
0.88200,-7.006507097
0.88250,-7.311701505
0.88300,-7.616895912
0.88350,-6.701312689
0.88400,-6.396118282
0.88450,-8.227284728
0.88500,-12.19481203
0.88550,-16.77272814
0.88600,-20.74025544
0.88650,-21.96103307
0.88700,-20.12986663
0.88750,-17.07792255
0.88800,-16.16233933
0.88850,-18.29870018
0.88900,-22.26622748
0.88950,-28.37011564
0.89000,-37.52594787
0.89050,-44.85061365
0.89100,-43.32464161
0.89150,-33.86361497
0.89200,-22.8766163
0.89250,-13.41558966
0.89300,0.3181586879
0.89350,20.766184
0.89400,38.16226524
0.89450,42.43498695
0.89500,38.77265406
0.89550,40.90901491
0.89600,51.89601359
0.89650,60.1362626
0.89700,56.4739297
0.89750,45.48693103
0.89800,37.24668202
0.89850,34.19473794
0.89900,32.97396031
0.89950,31.75318268
0.90000,30.83759946
0.90050,28.7012386
0.90100,21.07137841
0.90150,8.558407696
0.90200,-2.733785389
0.90250,-8.532479135
0.90300,-9.448062359
0.90350,-7.92209032
0.90400,-5.785729466
0.90450,-3.649368612
0.90500,-3.649368612
0.90550,-7.006507097
0.90600,-9.753256766
0.90650,-6.090923874
0.90700,3.98049158
0.90750,15.27268467
0.90800,21.37657282
0.90850,22.29215604
0.90900,21.98696163
0.90950,21.37657282
0.91000,17.71423993
0.91050,10.69476855
0.91100,3.370102765
0.91150,-0.2922301275
0.91200,-0.5974245352
0.91250,0.6233530956
0.91300,3.064908357
0.91350,5.201269211
0.91400,4.896074803
0.91450,1.233741911
0.91500,-2.733785389
0.91550,-4.564951835
0.91600,-4.259757428
0.91650,-4.870146243
0.91700,-6.701312689
0.91750,-6.701312689
0.91800,-4.259757428
0.91850,-2.428590981
0.91900,-3.649368612
0.91950,-6.396118282
0.92000,-6.701312689
0.92050,-6.701312689
0.92100,-8.837673543
0.92150,-13.11039525
0.92200,-15.85714492
0.92250,-18.60389459
0.92300,-25.31817156
0.92350,-35.38958701
0.92400,-41.79866957
0.92450,-41.18828076
0.92500,-36.61036464
0.92550,-30.50647649
0.92600,-22.57142189
0.92650,-13.41558966
0.92700,-7.92209032
0.92750,-7.616895912
0.92800,-5.785729466
0.92850,4.285685988
0.92900,20.4609896
0.92950,33.58434913
0.93000,38.77265406
0.93050,36.94148761
0.93100,30.53240505
0.93150,20.4609896
0.93200,9.473990919
0.93250,1.844130726
0.93300,-0.2922301275
0.93350,0.9285475033
0.93400,3.675297173
0.93450,4.896074803
0.93500,2.75971395
0.93550,-0.2922301275
0.93600,-0.5974245352
0.93650,4.285685988
0.93700,11.91554618
0.93750,16.4934623
0.93800,16.7986567
0.93850,14.35710144
0.93900,11.91554618
0.93950,10.08437973
0.94000,9.473990919
0.94050,9.168796511
0.94100,7.032435657
0.94150,4.590880396
0.94200,3.370102765
0.94250,4.285685988
0.94300,3.98049158
0.94350,0.3181586879
0.94400,-5.175340651
0.94450,-9.142867951
0.94500,-10.36364558
0.94550,-10.36364558
0.94600,-8.837673543
0.94650,-5.480535058
0.94700,-3.649368612
0.94750,-7.92209032
0.94800,-17.38311696
0.94850,-23.79219952
0.94900,-21.04544985
0.94950,-11.58442321
0.95000,-3.038979797
0.95050,1.538936319
0.95100,3.98049158
0.95150,5.811658027
0.95200,7.032435657
0.95250,8.863602104
0.95300,11.61035177
0.95350,11.91554618
0.95400,8.253213288
0.95450,4.285685988
0.95500,4.590880396
0.95550,7.032435657
0.95600,6.422046842
0.95650,3.064908357
0.95700,3.064908357
0.95750,8.558407696
0.95800,14.66229585
0.95850,15.88307348
0.95900,13.13632381
0.95950,10.38957414
0.96000,8.863602104
0.96050,7.642824473
0.96100,6.116852434
0.96150,5.201269211
0.96200,3.98049158
0.96250,0.3181586879
0.96300,-9.753256766
0.96350,-24.09739393
0.96400,-35.69478142
0.96450,-38.7467255
0.96500,-35.38958701
0.96550,-33.55842057
0.96600,-35.99997583
0.96650,-35.99997583
0.96700,-28.67531004
0.96750,-19.21428341
0.96800,-14.63636729
0.96850,-11.88961762
0.96900,-3.344174205
0.96950,10.38957414
0.97000,20.766184
0.97050,23.20773927
0.97100,22.29215604
0.97150,22.29215604
0.97200,22.29215604
0.97250,21.37657282
0.97300,22.29215604
0.97350,25.03890571
0.97400,24.7337113
0.97450,18.62982315
0.97500,10.69476855
0.97550,5.201269211
0.97600,3.064908357
0.97650,2.75971395
0.97700,3.675297173
0.97750,3.370102765
0.97800,-2.428590981
0.97850,-11.58442321
0.97900,-14.63636729
0.97950,-8.227284728
0.98000,-0.9026189429
0.98050,-1.207813351
0.98100,-5.175340651
0.98150,-3.95456302
0.98200,2.75971395
0.98250,8.253213288
0.98300,9.168796511
0.98350,9.779185327
0.98400,11.61035177
0.98450,10.38957414
0.98500,5.811658027
0.98550,2.149325134
0.98600,1.233741911
0.98650,0.3181586879
0.98700,-4.564951835
0.98750,-9.142867951
0.98800,-10.36364558
0.98850,-10.36364558
0.98900,-11.58442321
0.98950,-12.50000644
0.99000,-9.142867951
0.99050,-2.733785389
0.99100,1.538936319
0.99150,2.454519542
0.99200,1.538936319
0.99250,0.9285475033
0.99300,0.6233530956
0.99350,-0.5974245352
0.99400,-2.733785389
0.99450,-3.344174205
0.99500,-2.123396574
0.99550,0.01296428019
0.99600,1.844130726
0.99650,3.675297173
0.99700,3.98049158
0.99750,0.6233530956
0.99800,-4.564951835
0.99850,-8.227284728
0.99900,-7.616895912
0.99950,-3.95456302
1.00000,-0.9026189429
1.00050,1.233741911
1.00100,3.98049158
1.00150,5.201269211
1.00200,3.675297173
1.00250,-0.5974245352
1.00300,-4.870146243
1.00350,-7.006507097
1.00400,-7.92209032
1.00450,-8.532479135
1.00500,-10.9740344
1.00550,-16.16233933
1.00600,-22.8766163
1.00650,-27.14933801
1.00700,-26.53894919
1.00750,-24.40258834
1.00800,-24.70778274
1.00850,-25.92856037
1.00900,-24.70778274
1.00950,-20.12986663
1.01000,-14.9415617
1.01050,-8.837673543
1.01100,-0.2922301275
1.01150,8.558407696
1.01200,13.13632381
1.01250,12.525935
1.01300,13.44151822
1.01350,21.98696163
1.01400,36.3310988
1.01450,47.01290307
1.01500,45.79212544
1.01550,35.41551557
1.01600,26.87007216
1.01650,25.03890571
1.01700,24.7337113
1.01750,18.32462874
1.01800,9.168796511
1.01850,4.896074803
1.01900,6.422046842
1.01950,5.201269211
1.02000,-2.733785389
1.02050,-12.80520084
1.02100,-18.909089
1.02150,-21.96103307
1.02200,-25.01297715
1.02250,-27.14933801
1.02300,-26.53894919
1.02350,-24.40258834
1.02400,-23.48700511
1.02450,-20.74025544
1.02500,-13.11039525
1.02550,-2.733785389
1.02600,4.896074803
1.02650,8.558407696
1.02700,11.30515737
1.02750,16.18826789
1.02800,23.20773927
1.02850,29.00643301
1.02900,29.31162742
1.02950,22.90254486
1.03000,14.35710144
1.03050,9.779185327
1.03100,11.30515737
1.03150,14.96749026
1.03200,17.10385111
1.03250,17.40904552
1.03300,14.96749026
1.03350,10.08437973
1.03400,5.201269211
1.03450,3.064908357
1.03500,3.370102765
1.03550,1.844130726
1.03600,-1.513007758
1.03650,-3.95456302
1.03700,-2.733785389
1.03750,-0.9026189429
1.03800,-1.818202166
1.03850,-4.259757428
1.03900,-4.870146243
1.03950,-4.870146243
1.04000,-5.175340651
1.04050,-5.175340651
1.04100,-3.649368612
1.04150,-1.207813351
1.04200,-0.5974245352
1.04250,0.3181586879
1.04300,1.844130726
1.04350,1.844130726
1.04400,-3.344174205
1.04450,-12.19481203
1.04500,-19.21428341
1.04550,-21.96103307
1.04600,-21.35064426
1.04650,-17.99350577
1.04700,-11.58442321
1.04750,-3.95456302
1.04800,0.01296428019
1.04850,-0.5974245352
1.04900,-1.513007758
1.04950,0.3181586879
1.05000,2.454519542
1.05050,0.9285475033
1.05100,-3.649368612
1.05150,-7.006507097
1.05200,-6.701312689
1.05250,-4.564951835
1.05300,-3.344174205
1.05350,-4.870146243
1.05400,-6.701312689
1.05450,-7.006507097
1.05500,-5.480535058
1.05550,-4.870146243
1.05600,-7.616895912
1.05650,-11.88961762
1.05700,-15.2467561
1.05750,-17.68831137
1.05800,-23.48700511
1.05850,-33.55842057
1.05900,-41.18828076
1.05950,-38.13633668
1.06000,-25.01297715
1.06050,-11.2792288
1.06100,-3.95456302
1.06150,-1.513007758
1.06200,0.9285475033
1.06250,5.506463619
1.06300,8.863602104
1.06350,9.779185327
1.06400,9.168796511
1.06450,9.473990919
1.06500,11.30515737
1.06550,14.35710144
1.06600,16.4934623
1.06650,15.88307348
1.06700,13.74671263
1.06750,12.525935
1.06800,11.30515737
1.06850,6.116852434
1.06900,-3.649368612
1.06950,-10.9740344
1.07000,-8.837673543
1.07050,0.6233530956
1.07100,7.337630065
1.07150,5.201269211
1.07200,-1.207813351
1.07250,-6.090923874
1.07300,-7.311701505
1.07350,-7.006507097
1.07400,-7.006507097
1.07450,-5.785729466
1.07500,-3.038979797
1.07550,0.3181586879
1.07600,5.201269211
1.07650,12.22074059
1.07700,19.54540637
1.07750,24.4285169
1.07800,23.81812808
1.07850,20.4609896
1.07900,16.7986567
1.07950,14.05190703
1.08000,11.91554618
1.08050,10.38957414
1.08100,9.473990919
1.08150,6.422046842
1.08200,-1.818202166
1.08250,-14.02597847
1.08300,-23.18181071
1.08350,-25.31817156
1.08400,-22.8766163
1.08450,-21.04544985
1.08500,-20.12986663
1.08550,-17.07792255
1.08600,-10.9740344
1.08650,-4.259757428
1.08700,-0.2922301275
1.08750,0.9285475033
1.08800,3.064908357
1.08850,7.642824473
1.08900,14.66229585
1.08950,21.07137841
1.09000,23.81812808
1.09050,21.68176723
1.09100,18.01943433
1.09150,15.57787907
1.09200,14.05190703
1.09250,10.08437973
1.09300,4.896074803
1.09350,2.149325134
1.09400,2.454519542
1.09450,3.98049158
1.09500,5.811658027
1.09550,9.168796511
1.09600,13.44151822
1.09650,14.66229585
1.09700,11.30515737
1.09750,6.116852434
1.09800,3.675297173
1.09850,3.675297173
1.09900,2.75971395
1.09950,0.01296428019
1.10000,-2.733785389
1.10050,-2.733785389
1.10100,-0.9026189429
1.10150,0.3181586879
1.10200,0.6233530956
1.10250,0.6233530956
1.10300,1.538936319
1.10350,2.454519542
1.10400,2.75971395
1.10450,2.149325134
1.10500,1.233741911
1.10550,0.6233530956
1.10600,0.3181586879
1.10650,-0.2922301275
1.10700,-0.2922301275
1.10750,-0.5974245352
1.10800,-2.123396574
1.10850,-6.090923874
1.10900,-9.753256766
1.10950,-10.05845117
1.11000,-8.532479135
1.11050,-8.532479135
1.11100,-10.66883999
1.11150,-10.9740344
1.11200,-8.227284728
1.11250,-6.090923874
1.11300,-5.175340651
1.11350,-2.428590981
1.11400,3.064908357
1.11450,7.337630065
1.11500,6.72724125
1.11550,4.896074803
1.11600,7.032435657
1.11650,10.38957414
1.11700,10.38957414
1.11750,7.337630065
1.11800,5.201269211
1.11850,3.675297173
1.11900,1.233741911
1.11950,0.3181586879
1.12000,3.370102765
1.12050,8.253213288
1.12100,8.558407696
1.12150,4.896074803
1.12200,3.98049158
1.12250,6.422046842
1.12300,6.72724125
1.12350,1.844130726
1.12400,-1.818202166
1.12450,0.3181586879
1.12500,4.285685988
1.12550,5.201269211
1.12600,2.149325134
1.12650,-0.5974245352
1.12700,-2.123396574
1.12750,-2.428590981
1.12800,-2.428590981
1.12850,-2.733785389
1.12900,-3.649368612
1.12950,-4.870146243
1.13000,-5.785729466
1.13050,-5.480535058
1.13100,-5.175340651
1.13150,-4.564951835
1.13200,-1.818202166
1.13250,3.370102765
1.13300,8.558407696
1.13350,8.863602104
1.13400,3.98049158
1.13450,-2.123396574
1.13500,-5.785729466
1.13550,-6.396118282
1.13600,-7.006507097
1.13650,-9.753256766
1.13700,-13.41558966
1.13750,-15.2467561
1.13800,-13.72078407
1.13850,-10.36364558
1.13900,-6.396118282
1.13950,-2.733785389
1.14000,-0.2922301275
1.14050,-0.2922301275
1.14100,-3.038979797
1.14150,-6.396118282
1.14200,-8.227284728
1.14250,-8.837673543
1.14300,-10.05845117
1.14350,-13.72078407
1.14400,-17.38311696
1.14450,-16.77272814
1.14500,-9.753256766
1.14550,0.3181586879
1.14600,8.558407696
1.14650,13.44151822
1.14700,14.35710144
1.14750,11.30515737
1.14800,3.064908357
1.14850,-7.006507097
1.14900,-14.9415617
1.14950,-17.99350577
1.15000,-18.29870018
1.15050,-17.38311696
1.15100,-14.9415617
1.15150,-13.41558966
1.15200,-16.46753374
1.15250,-22.8766163
1.15300,-23.18181071
1.15350,-12.80520084
1.15400,3.064908357
1.15450,17.10385111
1.15500,25.34410012
1.15550,28.7012386
1.15600,27.17526657
1.15650,18.93501756
1.15700,5.201269211
1.15750,-10.9740344
1.15800,-24.40258834
1.15850,-29.89608767
1.15900,-26.23375478
1.15950,-20.12986663
1.16000,-20.12986663
1.16050,-24.70778274
1.16100,-24.40258834
1.16150,-14.9415617
1.16200,-3.038979797
1.16250,3.98049158
1.16300,10.38957414
1.16350,20.4609896
1.16400,30.53240505
1.16450,32.05837709
1.16500,25.34410012
1.16550,18.62982315
1.16600,17.10385111
1.16650,19.54540637
1.16700,21.98696163
1.16750,21.68176723
1.16800,18.62982315
1.16850,14.96749026
1.16900,12.8311294
1.16950,12.22074059
1.17000,10.99996296
1.17050,8.863602104
1.17100,8.558407696
1.17150,11.30515737
1.17200,12.8311294
1.17250,10.38957414
1.17300,6.422046842
1.17350,3.370102765
1.17400,0.6233530956
1.17450,-2.123396574
1.17500,-2.123396574
1.17550,1.844130726
1.17600,6.116852434
1.17650,5.506463619
1.17700,1.844130726
1.17750,0.01296428019
1.17800,-0.2922301275
1.17850,-2.123396574
1.17900,-4.870146243
1.17950,-6.701312689
1.18000,-7.311701505
1.18050,-9.142867951
1.18100,-12.50000644
1.18150,-15.2467561
1.18200,-16.16233933
1.18250,-15.2467561
1.18300,-12.19481203
1.18350,-7.311701505
1.18400,-2.428590981
1.18450,0.3181586879
1.18500,0.6233530956
1.18550,0.3181586879
1.18600,0.01296428019
1.18650,0.3181586879
1.18700,2.454519542
1.18750,5.201269211
1.18800,4.590880396
1.18850,0.01296428019
1.18900,-3.95456302
1.18950,-2.733785389
1.19000,0.01296428019
1.19050,-0.2922301275
1.19100,-4.564951835
1.19150,-7.92209032
1.19200,-7.311701505
1.19250,-5.480535058
1.19300,-5.785729466
1.19350,-9.448062359
1.19400,-14.02597847
1.19450,-14.9415617
1.19500,-9.753256766
1.19550,-1.818202166
1.19600,3.675297173
1.19650,4.590880396
1.19700,2.75971395
1.19750,0.9285475033
1.19800,0.3181586879
1.19850,-0.5974245352
1.19900,-1.207813351
1.19950,-2.428590981
1.20000,-3.038979797
1.20050,-0.5974245352
1.20100,4.285685988
1.20150,8.558407696
1.20200,7.642824473
1.20250,1.844130726
1.20300,-4.870146243
1.20350,-9.753256766
1.20400,-13.41558966
1.20450,-14.9415617
1.20500,-12.50000644
1.20550,-7.616895912
1.20600,-5.175340651
1.20650,-7.616895912
1.20700,-12.80520084
1.20750,-16.46753374
1.20800,-15.85714492
1.20850,-10.9740344
1.20900,-3.344174205
1.20950,1.233741911
1.21000,0.3181586879
1.21050,-4.259757428
1.21100,-7.006507097
1.21150,-6.396118282
1.21200,-5.480535058
1.21250,-5.175340651
1.21300,-2.733785389
1.21350,2.454519542
1.21400,4.590880396
1.21450,-1.513007758
1.21500,-11.88961762
1.21550,-17.99350577
1.21600,-15.85714492
1.21650,-8.837673543
1.21700,-0.9026189429
1.21750,5.201269211
1.21800,8.863602104
1.21850,9.473990919
1.21900,9.779185327
1.21950,12.8311294
1.22000,18.32462874
1.22050,23.51293367
1.22100,26.87007216
1.22150,30.22721064
1.22200,34.80512676
1.22250,39.07784847
1.22300,40.6038205
1.22350,38.46745965
1.22400,35.72070998
1.22450,34.19473794
1.22500,33.88954354
1.22550,31.75318268
1.22600,26.25968334
1.22650,19.24021197
1.22700,14.35710144
1.22750,11.91554618
1.22800,10.38957414
1.22850,9.473990919
1.22900,9.473990919
1.22950,7.94801888
1.23000,2.75971395
1.23050,-2.428590981
1.23100,-1.818202166
1.23150,3.064908357
1.23200,3.675297173
1.23250,-3.038979797
1.23300,-9.142867951
1.23350,-7.311701505
1.23400,-1.513007758
1.23450,0.3181586879
1.23500,-0.9026189429
1.23550,0.3181586879
1.23600,5.811658027
1.23650,9.168796511
1.23700,6.422046842
1.23750,0.3181586879
1.23800,-6.090923874
1.23850,-10.36364558
1.23900,-8.837673543
1.23950,-1.513007758
1.24000,6.422046842
1.24050,10.08437973
1.24100,9.168796511
1.24150,8.863602104
1.24200,8.253213288
1.24250,4.590880396
1.24300,0.3181586879
1.24350,1.844130726
1.24400,10.38957414
1.24450,16.4934623
1.24500,14.35710144
1.24550,7.94801888
1.24600,3.98049158
1.24650,2.149325134
1.24700,-0.5974245352
1.24750,-5.785729466
1.24800,-8.837673543
1.24850,-8.837673543
1.24900,-7.311701505
1.24950,-5.785729466
1.25000,-3.344174205
1.25050,0.3181586879
1.25100,5.201269211
1.25150,9.779185327
1.25200,12.525935
1.25250,11.91554618
1.25300,7.337630065
1.25350,0.3181586879
1.25400,-8.532479135
1.25450,-18.29870018
1.25500,-25.92856037
1.25550,-28.06492123
1.25600,-25.62336597
1.25650,-23.18181071
1.25700,-22.57142189
1.25750,-18.909089
1.25800,-7.311701505
1.25850,7.337630065
1.25900,16.18826789
1.25950,14.96749026
1.26000,9.779185327
1.26050,8.863602104
1.26100,14.96749026
1.26150,24.4285169
1.26200,30.83759946
1.26250,29.31162742
1.26300,21.07137841
1.26350,11.91554618
1.26400,7.642824473
1.26450,8.558407696
1.26500,9.473990919
1.26550,9.473990919
1.26600,10.99996296
1.26650,14.66229585
1.26700,16.4934623
1.26750,12.525935
1.26800,5.506463619
1.26850,0.3181586879
1.26900,-3.038979797
1.26950,-5.785729466
1.27000,-8.227284728
1.27050,-8.837673543
1.27100,-6.396118282
1.27150,-2.428590981
1.27200,1.844130726
1.27250,5.201269211
1.27300,7.337630065
1.27350,7.642824473
1.27400,7.337630065
1.27450,6.422046842
1.27500,4.285685988
1.27550,0.9285475033
1.27600,-1.207813351
1.27650,-0.9026189429
1.27700,-0.5974245352
1.27750,-4.259757428
1.27800,-12.50000644
1.27850,-20.74025544
1.27900,-25.31817156
1.27950,-25.01297715
1.28000,-22.26622748
1.28050,-17.68831137
1.28100,-12.19481203
1.28150,-8.227284728
1.28200,-6.701312689
1.28250,-6.701312689
1.28300,-4.564951835
1.28350,0.6233530956
1.28400,7.642824473
1.28450,13.74671263
1.28500,20.15579519
1.28550,27.78565538
1.28600,35.11032117
1.28650,38.16226524
1.28700,34.80512676
1.28750,26.56487775
1.28800,18.01943433
1.28850,12.22074059
1.28900,10.38957414
1.28950,11.61035177
1.29000,12.22074059
1.29050,8.863602104
1.29100,3.064908357
1.29150,-1.207813351
1.29200,-3.344174205
1.29250,-5.480535058
1.29300,-10.05845117
1.29350,-14.9415617
1.29400,-16.16233933
1.29450,-15.2467561
1.29500,-14.63636729
1.29550,-14.33117288
1.29600,-12.50000644
1.29650,-10.9740344
1.29700,-12.50000644
1.29750,-13.72078407
1.29800,-8.532479135
1.29850,4.285685988
1.29900,18.93501756
1.29950,28.3960442
1.30000,31.75318268
1.30050,31.44798827
1.30100,28.09084979
1.30150,21.68176723
1.30200,13.74671263
1.30250,8.863602104
1.30300,9.473990919
1.30350,10.08437973
1.30400,4.896074803
1.30450,-5.480535058
1.30500,-15.2467561
1.30550,-20.43506104
1.30600,-22.8766163
1.30650,-25.62336597
1.30700,-27.45453241
1.30750,-25.62336597
1.30800,-21.04544985
1.30850,-15.2467561
1.30900,-7.92209032
1.30950,-0.2922301275
1.31000,4.896074803
1.31050,7.642824473
1.31100,14.66229585
1.31150,29.00643301
1.31200,45.48693103
1.31250,54.33756885
1.31300,54.64276326
1.31350,51.28562477
1.31400,45.48693103
1.31450,34.80512676
1.31500,20.15579519
1.31550,5.201269211
1.31600,-7.006507097
1.31650,-16.77272814
1.31700,-21.04544985
1.31750,-18.909089
1.31800,-15.55195051
1.31850,-17.99350577
1.31900,-24.09739393
1.31950,-24.70778274
1.32000,-15.85714492
1.32050,-3.344174205
1.32100,4.590880396
1.32150,8.863602104
1.32200,12.8311294
1.32250,14.35710144
1.32300,8.253213288
1.32350,-5.480535058
1.32400,-19.21428341
1.32450,-24.09739393
1.32500,-19.82467222
1.32550,-12.19481203
1.32600,-6.090923874
1.32650,-2.123396574
1.32700,0.01296428019
1.32750,-2.123396574
1.32800,-5.785729466
1.32850,-3.344174205
1.32900,7.94801888
1.32950,21.07137841
1.33000,27.48046097
1.33050,29.61682183
1.33100,35.41551557
1.33150,44.5713478
1.33200,48.5388751
1.33250,42.74018136
1.33300,32.97396031
1.33350,24.4285169
1.33400,16.4934623
1.33450,6.422046842
1.33500,-2.428590981
1.33550,-9.753256766
1.33600,-18.60389459
1.33650,-32.03244853
1.33700,-44.85061365
1.33750,-50.34411299
1.33800,-50.34411299
1.33850,-51.25969621
1.33900,-54.6168347
1.33950,-54.31164029
1.34000,-47.59736332
1.34050,-37.83114227
1.34100,-29.28569886
1.34150,-16.77272814
1.34200,3.98049158
1.34250,30.53240505
1.34300,50.67523596
1.34350,59.22067937
1.34400,60.1362626
1.34450,57.08431852
1.34500,48.84406951
1.34550,35.41551557
1.34600,25.03890571
1.34650,25.64929453
1.34700,32.6687659
1.34750,35.72070998
1.34800,30.22721064
1.34850,21.98696163
1.34900,18.32462874
1.34950,18.93501756
1.35000,20.766184
1.35050,21.37657282
1.35100,19.54540637
1.35150,13.13632381
1.35200,2.149325134
1.35250,-9.142867951
1.35300,-16.16233933
1.35350,-18.29870018
1.35400,-19.82467222
1.35450,-23.79219952
1.35500,-30.50647649
1.35550,-38.13633668
1.35600,-46.07139128
1.35650,-52.48047384
1.35700,-55.53241792
1.35750,-55.53241792
1.35800,-55.83761233
1.35850,-58.88955641
1.35900,-60.72072285
1.35950,-54.31164029
1.36000,-41.49347517
1.36050,-30.20128208
1.36100,-25.92856037
1.36150,-26.53894919
1.36200,-26.8441436
1.36250,-25.31817156
1.36300,-23.18181071
1.36350,-23.79219952
1.36400,-28.06492123
1.36450,-35.08439261
1.36500,-39.05191991
1.36550,-36.91555905
1.36600,-31.72725412
1.36650,-30.20128208
1.36700,-34.7791982
1.36750,-39.66230872
1.36800,-40.57789194
1.36850,-39.05191991
1.36900,-37.83114227
1.36950,-36.61036464
1.37000,-32.94803175
1.37050,-28.37011564
1.37100,-26.23375478
1.37150,-24.70778274
1.37200,-16.77272814
1.37250,0.01296428019
1.37300,16.18826789
1.37350,18.62982315
1.37400,4.896074803
1.37450,-11.58442321
1.37500,-18.60389459
1.37550,-17.68831137
1.37600,-17.68831137
1.37650,-22.8766163
1.37700,-29.28569886
1.37750,-33.55842057
1.37800,-37.52594787
1.37850,-41.49347517
1.37900,-41.49347517
1.37950,-34.47400379
1.38000,-20.74025544
1.38050,0.01296428019
1.38100,26.56487775
1.38150,52.201208
1.38200,65.93495634
1.38250,67.15573397
1.38300,65.93495634
1.38350,67.46092838
1.38400,67.76612279
1.38450,60.74665141
1.38500,51.89601359
1.38550,48.5388751
1.38600,48.5388751
1.38650,42.12979254
1.38700,25.95448893
1.38750,7.94801888
1.38800,0.6233530956
1.38850,7.94801888
1.38900,21.68176723
1.38950,29.31162742
1.39000,25.34410012
1.39050,16.18826789
1.39100,11.30515737
1.39150,11.91554618
1.39200,11.91554618
1.39250,5.811658027
1.39300,-3.649368612
1.39350,-9.753256766
1.39400,-8.837673543
1.39450,-4.259757428
1.39500,-3.344174205
1.39550,-10.66883999
1.39600,-23.79219952
1.39650,-32.03244853
1.39700,-27.14933801
1.39750,-12.19481203
1.39800,-0.2922301275
1.39850,-1.207813351
1.39900,-11.2792288
1.39950,-21.04544985
1.40000,-25.92856037
1.40050,-27.75972682
1.40100,-28.06492123
1.40150,-26.53894919
1.40200,-23.18181071
1.40250,-18.29870018
1.40300,-13.41558966
1.40350,-8.837673543
1.40400,-4.870146243
1.40450,-0.9026189429
1.40500,6.422046842
1.40550,20.766184
1.40600,36.94148761
1.40650,47.31809747
1.40700,47.62329188
1.40750,41.21420932
1.40800,33.88954354
1.40850,28.09084979
1.40900,25.03890571
1.40950,24.4285169
1.41000,25.03890571
1.41050,23.81812808
1.41100,21.07137841
1.41150,20.766184
1.41200,23.81812808
1.41250,26.56487775
1.41300,26.56487775
1.41350,26.87007216
1.41400,30.22721064
1.41450,35.72070998
1.41500,39.99343169
1.41550,42.43498695
1.41600,42.43498695
1.41650,34.49993235
1.41700,14.96749026
1.41750,-10.9740344
1.41800,-30.20128208
1.41850,-33.55842057
1.41900,-24.40258834
1.41950,-13.11039525
1.42000,-6.396118282
1.42050,-4.870146243
1.42100,-7.616895912
1.42150,-13.11039525
1.42200,-18.60389459
1.42250,-21.35064426
1.42300,-21.04544985
1.42350,-20.74025544
1.42400,-22.8766163
1.42450,-27.14933801
1.42500,-31.42205971
1.42550,-35.38958701
1.42600,-36.61036464
1.42650,-32.03244853
1.42700,-22.8766163
1.42750,-15.2467561
1.42800,-14.02597847
1.42850,-13.72078407
1.42900,-4.564951835
1.42950,14.66229585
1.43000,36.3310988
1.43050,51.28562477
1.43100,58.30509615
1.43150,59.52587378
1.43200,56.77912411
1.43250,51.28562477
1.43300,43.35057017
1.43350,32.97396031
1.43400,19.85060078
1.43450,6.422046842
1.43500,-6.090923874
1.43550,-21.96103307
1.43600,-43.93503043
1.43650,-64.68825015
1.43700,-73.84408238
1.43750,-70.4869439
1.43800,-66.5194166
1.43850,-71.40252712
1.43900,-81.47394258
1.43950,-86.66224751
1.44000,-79.94797054
1.44050,-60.72072285
1.44100,-33.25322616
1.44150,-8.532479135
1.44200,2.75971395
1.44250,1.233741911
1.44300,-2.428590981
1.44350,-2.733785389
1.44400,-2.428590981
1.44450,-8.227284728
1.44500,-17.68831137
1.44550,-27.45453241
1.44600,-38.13633668
1.44650,-49.73372418
1.44700,-57.05838996
1.44750,-56.14280674
1.44800,-51.25969621
1.44850,-47.59736332
1.44900,-43.32464161
1.44950,-35.08439261
1.45000,-26.23375478
1.45050,-23.18181071
1.45100,-22.8766163
1.45150,-16.77272814
1.45200,-3.038979797
1.45250,11.91554618
1.45300,23.81812808
1.45350,31.75318268
1.45400,34.80512676
1.45450,28.3960442
1.45500,11.91554618
1.45550,-8.837673543
1.45600,-26.23375478
1.45650,-33.86361497
1.45700,-30.20128208
1.45750,-21.35064426
1.45800,-17.38311696
1.45850,-23.18181071
1.45900,-30.20128208
1.45950,-26.53894919
1.46000,-14.33117288
1.46050,-6.701312689
1.46100,-8.837673543
1.46150,-11.58442321
1.46200,-6.090923874
1.46250,5.811658027
1.46300,15.57787907
1.46350,17.10385111
1.46400,10.69476855
1.46450,0.3181586879
1.46500,-8.227284728
1.46550,-10.66883999
1.46600,-7.616895912
1.46650,-2.733785389
1.46700,0.3181586879
1.46750,2.75971395
1.46800,4.590880396
1.46850,3.370102765
1.46900,0.3181586879
1.46950,-1.513007758
1.47000,-0.5974245352
1.47050,0.3181586879
1.47100,-1.207813351
1.47150,-2.123396574
1.47200,-0.2922301275
1.47250,2.149325134
1.47300,4.285685988
1.47350,5.506463619
1.47400,6.422046842
1.47450,5.811658027
1.47500,3.98049158
1.47550,3.370102765
1.47600,4.896074803
1.47650,6.422046842
1.47700,5.506463619
1.47750,3.064908357
1.47800,1.538936319
1.47850,0.6233530956
1.47900,-0.9026189429
1.47950,-2.733785389
1.48000,-4.259757428
1.48050,-4.870146243
1.48100,-5.175340651
1.48150,-4.870146243
1.48200,-3.95456302
1.48250,-3.344174205
1.48300,-0.9026189429
1.48350,7.337630065
1.48400,21.98696163
1.48450,34.49993235
1.48500,35.41551557
1.48550,25.34410012
1.48600,14.66229585
1.48650,12.8311294
1.48700,19.54540637
1.48750,28.3960442
1.48800,34.80512676
1.48850,37.55187643
1.48900,37.24668202
1.48950,32.97396031
1.49000,28.3960442
1.49050,29.92201623
1.49100,39.07784847
1.49150,49.75965274
1.49200,55.86354089
1.49250,56.77912411
1.49300,55.25315207
1.49350,48.5388751
1.49400,33.88954354
1.49450,18.32462874
1.49500,15.27268467
1.49550,28.7012386
1.49600,47.31809747
1.49650,55.55834648
1.49700,48.2336807
1.49750,27.78565538
1.49800,2.149325134
1.49850,-17.68831137
1.49900,-25.62336597
1.49950,-23.48700511
1.50000,-21.35064426
1.50050,-22.8766163
1.50100,-21.65583867
1.50150,-10.66883999
1.50200,6.422046842
1.50250,19.85060078
1.50300,27.17526657
1.50350,34.49993235
1.50400,46.70770866
1.50450,63.49340108
1.50500,80.88948232
1.50550,97.06478593
1.50600,109.2725622
1.50650,114.1556728
1.50700,110.4933399
1.50750,100.11673
1.50800,88.21414811
1.50850,78.44792706
1.50900,68.0713172
1.50950,54.64276326
1.51000,39.99343169
1.51050,28.09084979
1.51100,20.15579519
1.51150,10.69476855
1.51200,-1.207813351
1.51250,-11.58442321
1.51300,-18.29870018
1.51350,-25.01297715
1.51400,-35.08439261
1.51450,-41.49347517
1.51500,-35.69478142
1.51550,-20.74025544
1.51600,-8.227284728
1.51650,-5.480535058
1.51700,-10.9740344
1.51750,-23.18181071
1.51800,-42.10386398
1.51850,-63.16227811
1.51900,-74.4544712
1.51950,-69.26616627
1.52000,-55.22722351
1.52050,-45.15580806
1.52100,-44.54541924
1.52150,-49.42852977
1.52200,-55.22722351
1.52250,-59.80513963
1.52300,-58.584362
1.52350,-44.54541924
1.52400,-19.51947781
1.52450,3.064908357
1.52500,10.38957414
1.52550,4.896074803
1.52600,0.01296428019
1.52650,0.3181586879
1.52700,-1.207813351
1.52750,-8.837673543
1.52800,-17.68831137
1.52850,-22.8766163
1.52900,-27.45453241
1.52950,-33.55842057
1.53000,-35.69478142
1.53050,-30.20128208
1.53100,-25.31817156
1.53150,-32.03244853
1.53200,-46.98697451
1.53250,-57.97397318
1.53300,-61.33111167
1.53350,-63.46747252
1.53400,-67.12980541
1.53450,-69.57136068
1.53500,-69.57136068
1.53550,-68.96097186
1.53600,-66.21422219
1.53650,-57.66877878
1.53700,-45.76619688
1.53750,-34.7791982
1.53800,-23.79219952
1.53850,-7.92209032
1.53900,9.779185327
1.53950,21.37657282
1.54000,24.4285169
1.54050,23.51293367
1.54100,21.37657282
1.54150,16.7986567
1.54200,12.525935
1.54250,14.96749026
1.54300,21.68176723
1.54350,24.12332249
1.54400,18.32462874
1.54450,11.91554618
1.54500,8.863602104
1.54550,2.75971395
1.54600,-9.753256766
1.54650,-21.65583867
1.54700,-24.09739393
1.54750,-19.51947781
1.54800,-17.68831137
1.54850,-21.04544985
1.54900,-24.40258834
1.54950,-24.70778274
1.55000,-23.48700511
1.55050,-21.35064426
1.55100,-14.02597847
1.55150,-1.818202166
1.55200,10.08437973
1.55250,17.71423993
1.55300,22.29215604
1.55350,25.95448893
1.55400,25.95448893
1.55450,18.93501756
1.55500,6.422046842
1.55550,-4.870146243
1.55600,-10.36364558
1.55650,-10.9740344
1.55700,-8.837673543
1.55750,-4.870146243
1.55800,0.6233530956
1.55850,5.506463619
1.55900,8.253213288
1.55950,11.91554618
1.56000,21.07137841
1.56050,35.11032117
1.56100,45.79212544
1.56150,46.09731984
1.56200,36.94148761
1.56250,27.17526657
1.56300,21.98696163
1.56350,21.07137841
1.56400,20.4609896
1.56450,18.32462874
1.56500,15.88307348
1.56550,14.66229585
1.56600,14.35710144
1.56650,14.66229585
1.56700,13.74671263
1.56750,11.61035177
1.56800,10.08437973
1.56850,10.69476855
1.56900,12.525935
1.56950,11.61035177
1.57000,7.032435657
1.57050,2.149325134
1.57100,0.3181586879
1.57150,1.844130726
1.57200,3.675297173
1.57250,4.590880396
1.57300,7.032435657
1.57350,14.96749026
1.57400,26.25968334
1.57450,34.49993235
1.57500,36.94148761
1.57550,39.38304287
1.57600,50.98043037
1.57650,72.34403891
1.57700,92.18167541
1.57750,98.89595238
1.57800,94.92842508
1.57850,89.43492574
1.57900,84.85700962
1.57950,75.09078857
1.58000,58.91548497
1.58050,45.18173662
1.58100,43.65576458
1.58150,50.06484714
1.58200,53.11679122
1.58250,47.92848629
1.58300,41.21420932
1.58350,38.46745965
1.58400,39.38304287
1.58450,40.2986261
1.58500,39.99343169
1.58550,36.94148761
1.58600,29.00643301
1.58650,15.57787907
1.58700,2.149325134
1.58750,-4.870146243
1.58800,-3.344174205
1.58850,2.75971395
1.58900,6.72724125
1.58950,4.896074803
1.59000,0.3181586879
1.59050,-1.513007758
1.59100,0.9285475033
1.59150,7.337630065
1.59200,15.27268467
1.59250,27.17526657
1.59300,43.04537577
1.59350,57.38951293
1.59400,62.27262345
1.59450,59.83106819
1.59500,57.08431852
1.59550,57.38951293
1.59600,55.86354089
1.59650,50.06484714
1.59700,47.01290307
1.59750,54.64276326
1.59800,70.51287246
1.59850,84.24662081
1.59900,90.65570337
1.59950,91.57128659
1.60000,88.82453692
1.60050,80.27909351
1.60100,65.01937312
1.60150,47.31809747
1.60200,31.14279387
1.60250,19.24021197
1.60300,12.525935
1.60350,11.30515737
1.60400,9.779185327
1.60450,-1.513007758
1.60500,-24.09739393
1.60550,-48.51294654
1.60600,-64.38305574
1.60650,-73.23369357
1.60700,-82.3895258
1.60750,-95.81807974
1.60800,-109.5518281
1.60850,-115.9609106
1.60900,-109.2466337
1.60950,-89.71419158
1.61000,-61.94150048
1.61050,-34.16880938
1.61100,-13.41558966
1.61150,-3.344174205
1.61200,-4.870146243
1.61250,-15.2467561
1.61300,-27.14933801
1.61350,-33.55842057
1.61400,-35.99997583
1.61450,-41.18828076
1.61500,-52.17527944
1.61550,-63.46747252
1.61600,-68.35058304
1.61650,-70.79213831
1.61700,-78.72719291
1.61750,-89.71419158
1.61800,-92.46094125
1.61850,-82.99991461
1.61900,-72.31811035
1.61950,-74.4544712
1.62000,-89.10380277
1.62050,-105.2791064
1.62100,-116.5712995
1.62150,-126.9479093
1.62200,-138.5452968
1.62250,-140.9868521
1.62300,-124.5063541
1.62350,-93.68171888
1.62400,-63.77266693
1.62450,-42.10386398
1.62500,-22.8766163
1.62550,0.01296428019
1.62600,21.07137841
1.62650,34.80512676
1.62700,42.74018136
1.62750,48.84406951
1.62800,49.75965274
1.62850,38.77265406
1.62900,19.24021197
1.62950,2.75971395
1.63000,-3.344174205
1.63050,-6.090923874
1.63100,-11.88961762
1.63150,-20.74025544
1.63200,-25.31817156
1.63250,-22.26622748
1.63300,-14.33117288
1.63350,-4.870146243
1.63400,4.590880396
1.63450,14.35710144
1.63500,22.59735045
1.63550,26.56487775
1.63600,24.4285169
1.63650,16.18826789
1.63700,2.149325134
1.63750,-12.50000644
1.63800,-22.26622748
1.63850,-21.65583867
1.63900,-14.33117288
1.63950,-7.311701505
1.64000,-2.123396574
1.64050,5.201269211
1.64100,17.71423993
1.64150,31.14279387
1.64200,43.35057017
1.64250,55.25315207
1.64300,66.24015075
1.64350,70.51287246
1.64400,65.62976194
1.64450,58.30509615
1.64500,56.1687353
1.64550,54.94795767
1.64600,48.84406951
1.64650,42.12979254
1.64700,45.18173662
1.64750,57.99990174
1.64800,67.46092838
1.64850,65.93495634
1.64900,57.08431852
1.64950,47.92848629
1.65000,38.46745965
1.65050,28.7012386
1.65100,22.59735045
1.65150,20.15579519
1.65200,14.05190703
1.65250,2.149325134
1.65300,-9.448062359
1.65350,-16.77272814
1.65400,-24.09739393
1.65450,-37.22075346
1.65500,-50.95450181
1.65550,-56.44800114
1.65600,-51.25969621
1.65650,-37.52594787
1.65700,-15.55195051
1.65750,11.30515737
1.65800,34.49993235
1.65850,47.92848629
1.65900,56.4739297
1.65950,68.0713172
1.66000,80.58428791
1.66050,83.63623199
1.66100,75.39598298
1.66150,66.24015075
1.66200,62.57781786
1.66250,59.22067937
1.66300,47.62329188
1.66350,29.92201623
1.66400,14.35710144
1.66450,6.422046842
1.66500,2.149325134
1.66550,-2.428590981
1.66600,-8.532479135
1.66650,-14.02597847
1.66700,-21.04544985
1.66750,-32.03244853
1.66800,-45.76619688
1.66850,-55.22722351
1.66900,-54.6168347
1.66950,-45.76619688
1.67000,-36.30517024
1.67050,-29.89608767
1.67100,-22.57142189
1.67150,-9.753256766
1.67200,4.896074803
1.67250,14.66229585
1.67300,16.7986567
1.67350,18.01943433
1.67400,25.64929453
1.67450,39.38304287
1.67500,53.11679122
1.67550,62.57781786
1.67600,68.37651161
1.67650,72.0388445
1.67700,71.42845568
1.67750,64.40898431
1.67800,52.81159681
1.67850,42.12979254
1.67900,37.85707084
1.67950,42.74018136
1.68000,54.33756885
1.68050,65.93495634
1.68100,68.37651161
1.68150,57.69470734
1.68200,37.55187643
1.68250,15.27268467
1.68300,-4.870146243
1.68350,-22.57142189
1.68400,-36.91555905
1.68450,-49.12333536
1.68500,-60.41552844
1.68550,-73.53888798
1.68600,-85.74666428
1.68650,-91.85055244
1.68700,-89.40899718
1.68750,-82.3895258
1.68800,-72.31811035
1.68850,-57.05838996
1.68900,-34.16880938
1.68950,-8.837673543
1.69000,10.69476855
1.69050,25.95448893
1.69100,43.65576458
1.69150,64.40898431
1.69200,81.19467673
1.69250,87.60375929
1.69300,88.21414811
1.69350,90.04531455
1.69400,94.31803626
1.69450,97.98036915
1.69500,98.28556356
1.69550,95.8440083
1.69600,91.26609218
1.69650,85.16220403
1.69700,79.66870469
1.69750,73.56481654
1.69800,61.96742904
1.69850,48.2336807
1.69900,41.82459814
1.69950,44.2661534
1.70000,43.96095899
1.70050,31.44798827
1.70100,13.13632381
1.70150,0.3181586879
1.70200,-6.396118282
1.70250,-15.55195051
1.70300,-25.01297715
1.70350,-26.53894919
1.70400,-22.8766163
1.70450,-24.70778274
1.70500,-35.99997583
1.70550,-49.73372418
1.70600,-58.88955641
1.70650,-62.85708371
1.70700,-58.584362
1.70750,-42.40905839
1.70800,-20.12986663
1.70850,-4.870146243
1.70900,-2.733785389
1.70950,-7.616895912
1.71000,-11.88961762
1.71050,-14.9415617
1.71100,-17.99350577
1.71150,-19.82467222
1.71200,-21.96103307
1.71250,-27.75972682
1.71300,-37.52594787
1.71350,-45.76619688
1.71400,-51.56489062
1.71450,-59.19475081
1.71500,-68.04538864
1.71550,-70.4869439
1.71600,-61.63630608
1.71650,-48.51294654
1.71700,-41.18828076
1.71750,-40.88308635
1.71800,-41.79866957
1.71850,-42.7142528
1.71900,-44.85061365
1.71950,-47.59736332
1.72000,-45.15580806
1.72050,-35.69478142
1.72100,-24.09739393
1.72150,-17.99350577
1.72200,-18.60389459
1.72250,-21.04544985
1.72300,-19.51947781
1.72350,-13.41558966
1.72400,-5.785729466
1.72450,0.3181586879
1.72500,6.422046842
1.72550,12.8311294
1.72600,17.40904552
1.72650,18.32462874
1.72700,14.96749026
1.72750,9.779185327
1.72800,3.370102765
1.72850,-3.649368612
1.72900,-10.36364558
1.72950,-14.63636729
1.73000,-15.2467561
1.73050,-14.02597847
1.73100,-14.02597847
1.73150,-16.77272814
1.73200,-20.12986663
1.73250,-21.96103307
1.73300,-22.57142189
1.73350,-25.31817156
1.73400,-32.03244853
1.73450,-39.96750313
1.73500,-42.40905839
1.73550,-35.08439261
1.73600,-23.18181071
1.73650,-15.85714492
1.73700,-16.46753374
1.73750,-19.21428341
1.73800,-17.68831137
1.73850,-12.50000644
1.73900,-9.142867951
1.73950,-8.227284728
1.74000,-5.480535058
1.74050,0.3181586879
1.74100,6.72724125
1.74150,13.74671263
1.74200,25.03890571
1.74250,41.51940373
1.74300,54.03237444
1.74350,50.67523596
1.74400,30.53240505
1.74450,3.064908357
1.74500,-21.35064426
1.74550,-39.66230872
1.74600,-52.48047384
1.74650,-60.41552844
1.74700,-63.46747252
1.74750,-63.46747252
1.74800,-61.02591726
1.74850,-54.92202911
1.74900,-44.54541924
1.74950,-29.28569886
1.75000,-9.142867951
1.75050,12.525935
1.75100,28.7012386
1.75150,32.6687659
1.75200,24.4285169
1.75250,11.61035177
1.75300,0.3181586879
1.75350,-8.227284728
1.75400,-13.11039525
1.75450,-15.2467561
1.75500,-19.51947781
1.75550,-32.03244853
1.75600,-52.17527944
1.75650,-71.09733271
1.75700,-81.16874817
1.75750,-82.99991461
1.75800,-79.33758172
1.75850,-71.70772153
1.75900,-64.07786134
1.75950,-65.29863897
1.76000,-75.37005442
1.76050,-78.11680409
1.76100,-59.49994522
1.76150,-28.67531004
1.76200,-11.58442321
1.76250,-18.60389459
1.76300,-32.94803175
1.76350,-36.30517024
1.76400,-28.98050445
1.76450,-20.43506104
1.76500,-12.80520084
1.76550,-0.5974245352
1.76600,14.05190703
1.76650,25.34410012
1.76700,31.44798827
1.76750,36.3310988
1.76800,40.2986261
1.76850,39.68823728
1.76900,34.19473794
1.76950,26.56487775
1.77000,19.24021197
1.77050,11.61035177
1.77100,5.506463619
1.77150,0.9285475033
1.77200,-5.785729466
1.77250,-21.04544985
1.77300,-43.62983602
1.77350,-64.38305574
1.77400,-75.06486001
1.77450,-74.4544712
1.77500,-66.21422219
1.77550,-55.53241792
1.77600,-44.54541924
1.77650,-33.55842057
1.77700,-22.8766163
1.77750,-13.72078407
1.77800,-6.701312689
1.77850,2.149325134
1.77900,18.62982315
1.77950,39.99343169
1.78000,53.72718004
1.78050,48.5388751
1.78100,25.95448893
1.78150,-3.038979797
1.78200,-30.50647649
1.78250,-54.92202911
1.78300,-75.37005442
1.78350,-87.27263632
1.78400,-90.01938599
1.78450,-86.3570531
1.78500,-81.47394258
1.78550,-75.67524883
1.78600,-68.96097186
1.78650,-61.33111167
1.78700,-53.70125148
1.78750,-47.29216891
1.78800,-43.93503043
1.78850,-41.18828076
1.78900,-31.42205971
1.78950,-9.753256766
1.79000,14.35710144
1.79050,29.00643301
1.79100,31.44798827
1.79150,33.58434913
1.79200,40.2986261
1.79250,44.2661534
1.79300,39.38304287
1.79350,35.11032117
1.79400,41.21420932
1.79450,53.11679122
1.79500,58.30509615
1.79550,55.25315207
1.79600,53.11679122
1.79650,55.25315207
1.79700,53.72718004
1.79750,41.21420932
1.79800,18.62982315
1.79850,-9.753256766
1.79900,-39.66230872
1.79950,-65.60383338
1.80000,-79.94797054
1.80050,-81.47394258
1.80100,-75.98044324
1.80150,-68.96097186
1.80200,-62.24669489
1.80250,-58.88955641
1.80300,-63.77266693
1.80350,-76.89602646
1.80400,-91.85055244
1.80450,-101.9219679
1.80500,-108.6362449
1.80550,-117.4868827
1.80600,-129.0842702
1.80650,-137.6297136
1.80700,-138.2401024
1.80750,-129.3894646
1.80800,-111.9933833
1.80850,-89.10380277
1.80900,-66.21422219
1.80950,-48.51294654
1.81000,-36.91555905
1.81050,-27.14933801
1.81100,-17.07792255
1.81150,-9.142867951
1.81200,-4.259757428
1.81250,4.896074803
1.81300,27.78565538
1.81350,57.69470734
1.81400,76.61676061
1.81450,74.78559417
1.81500,60.74665141
1.81550,46.70770866
1.81600,33.27915472
1.81650,17.10385111
1.81700,4.896074803
1.81750,8.253213288
1.81800,24.7337113
1.81850,40.6038205
1.81900,52.201208
1.81950,67.76612279
1.82000,89.74012014
1.82050,104.0842573
1.82100,97.06478593
1.82150,72.34403891
1.82200,45.48693103
1.82250,23.81812808
1.82300,0.3181586879
1.82350,-30.8116709
1.82400,-69.57136068
1.82450,-108.3310505
1.82500,-140.3764633
1.82550,-160.5192942
1.82600,-164.7920159
1.82650,-154.415406
1.82700,-136.408936
1.82750,-119.9284379
1.82800,-109.8570225
1.82850,-105.5843008
1.82900,-101.3115791
1.82950,-92.76613566
1.83000,-79.94797054
1.83050,-66.21422219
1.83100,-53.39605707
1.83150,-42.10386398
1.83200,-31.11686531
1.83250,-20.43506104
1.83300,-12.80520084
1.83350,-10.05845117
1.83400,-9.753256766
1.83450,-7.616895912
1.83500,-4.564951835
1.83550,-3.344174205
1.83600,-3.038979797
1.83650,0.6233530956
1.83700,8.253213288
1.83750,13.74671263
1.83800,13.74671263
1.83850,10.08437973
1.83900,3.675297173
1.83950,-6.701312689
1.84000,-17.99350577
1.84050,-20.43506104
1.84100,-9.448062359
1.84150,6.422046842
1.84200,19.54540637
1.84250,32.6687659
1.84300,48.84406951
1.84350,59.83106819
1.84400,56.1687353
1.84450,43.96095899
1.84500,38.46745965
1.84550,42.43498695
1.84600,42.74018136
1.84650,29.31162742
1.84700,7.032435657
1.84750,-13.41558966
1.84800,-28.67531004
1.84850,-37.22075346
1.84900,-37.52594787
1.84950,-28.37011564
1.85000,-14.9415617
1.85050,-4.870146243
1.85100,1.233741911
1.85150,12.8311294
1.85200,36.94148761
1.85250,69.59728924
1.85300,96.45439711
1.85350,106.831007
1.85400,104.0842573
1.85450,99.50634119
1.85500,100.4219244
1.85550,103.7790629
1.85600,102.8634797
1.85650,92.48686981
1.85700,69.59728924
1.85750,35.41551557
1.85800,-0.2922301275
1.85850,-28.37011564
1.85900,-47.90255773
1.85950,-67.74019423
1.86000,-91.54535803
1.86050,-110.7726057
1.86100,-115.6557162
1.86150,-107.7206616
1.86200,-96.12327415
1.86250,-86.66224751
1.86300,-74.75966561
1.86350,-50.6493074
1.86400,-7.006507097
1.86450,48.2336807
1.86500,98.28556356
1.86550,126.9738379
1.86600,133.9933093
1.86650,128.4998099
1.86700,115.071256
1.86750,92.79206422
1.86800,64.71417871
1.86850,39.68823728
1.86900,19.24021197
1.86950,-3.95456302
1.87000,-30.8116709
1.87050,-48.51294654
1.87100,-48.81814095
1.87150,-38.7467255
1.87200,-30.50647649
1.87250,-25.01297715
1.87300,-19.21428341
1.87350,-20.43506104
1.87400,-37.52594787
1.87450,-62.24669489
1.87500,-74.14927679
1.87550,-66.82461101
1.87600,-54.92202911
1.87650,-50.34411299
1.87700,-45.46100247
1.87750,-28.98050445
1.87800,-4.870146243
1.87850,14.05190703
1.87900,27.17526657
1.87950,40.6038205
1.88000,53.72718004
1.88050,58.61029056
1.88100,57.08431852
1.88150,62.88301227
1.88200,83.02584317
1.88250,109.2725622
1.88300,130.025782
1.88350,142.8439471
1.88400,152.6101681
1.88450,158.7140563
1.88500,155.0517234
1.88550,140.0971974
1.88600,121.4803385
1.88650,105.3050349
1.88700,90.96089778
1.88750,72.95442772
1.88800,52.81159681
1.88850,40.6038205
1.88900,43.04537577
1.88950,52.5064024
1.89000,52.201208
1.89050,34.19473794
1.89100,5.506463619
1.89150,-21.96103307
1.89200,-41.18828076
1.89250,-50.6493074
1.89300,-53.70125148
1.89350,-57.05838996
1.89400,-66.5194166
1.89450,-77.81160968
1.89500,-82.69472021
1.89550,-80.55835935
1.89600,-79.03238731
1.89650,-77.81160968
1.89700,-64.99344456
1.89750,-36.30517024
1.89800,-5.480535058
1.89850,11.61035177
1.89900,17.40904552
1.89950,25.64929453
1.90000,41.21420932
1.90050,55.86354089
1.90100,65.62976194
1.90150,74.78559417
1.90200,85.77259284
1.90250,93.40245304
1.90300,92.79206422
1.90350,86.38298166
1.90400,76.92195502
1.90450,67.76612279
1.90500,61.66223464
1.90550,62.27262345
1.90600,67.46092838
1.90650,70.20767805
1.90700,66.85053957
1.90750,59.83106819
1.90800,51.28562477
1.90850,42.12979254
1.90900,32.6687659
1.90950,23.81812808
1.91000,14.35710144
1.91050,2.149325134
1.91100,-9.448062359
1.91150,-13.72078407
1.91200,-4.259757428
1.91250,17.71423993
1.91300,47.92848629
1.91350,79.66870469
1.91400,103.4738685
1.91450,110.1881455
1.91500,99.20114678
1.91550,80.58428791
1.91600,66.54534516
1.91650,60.1362626
1.91700,56.77912411
1.91750,50.37004155
1.91800,38.46745965
1.91850,25.03890571
1.91900,15.27268467
1.91950,11.91554618
1.92000,14.96749026
1.92050,24.7337113
1.92100,44.87654221
1.92150,75.70117739
1.92200,107.7465902
1.92250,128.4998099
1.92300,137.9608366
1.92350,144.9803079
1.92400,153.2205569
1.92450,151.3893905
1.92500,131.2465596
1.92550,98.89595238
1.92600,67.46092838
1.92650,42.43498695
1.92700,23.20773927
1.92750,14.05190703
1.92800,22.29215604
1.92850,45.79212544
1.92900,72.34403891
1.92950,93.40245304
1.93000,110.7985343
1.93050,130.025782
1.93100,150.1686129
1.93150,166.0387221
1.93200,173.6685823
1.93250,170.6166382
1.93300,157.1880842
1.93350,136.7400589
1.93400,114.4608672
1.93450,96.45439711
1.93500,86.38298166
1.93550,86.38298166
1.93600,91.876481
1.93650,92.18167541
1.93700,78.44792706
1.93750,52.5064024
1.93800,21.98696163
1.93850,-8.532479135
1.93900,-41.18828076
1.93950,-75.37005442
1.94000,-105.8894952
1.94050,-125.1167429
1.94100,-130.9154366
1.94150,-122.3699932
1.94200,-102.8375511
1.94250,-78.11680409
1.94300,-56.44800114
1.94350,-41.49347517
1.94400,-31.72725412
1.94450,-25.92856037
1.94500,-25.01297715
1.94550,-27.45453241
1.94600,-25.31817156
1.94650,-9.448062359
1.94700,18.32462874
1.94750,46.09731984
1.94800,60.44145701
1.94850,57.08431852
1.94900,42.43498695
1.94950,27.48046097
1.95000,21.68176723
1.95050,27.17526657
1.95100,37.85707084
1.95150,41.82459814
1.95200,31.14279387
1.95250,9.473990919
1.95300,-11.58442321
1.95350,-24.09739393
1.95400,-28.06492123
1.95450,-26.53894919
1.95500,-20.43506104
1.95550,-9.448062359
1.95600,2.75971395
1.95650,13.13632381
1.95700,18.62982315
1.95750,17.10385111
1.95800,5.811658027
1.95850,-12.50000644
1.95900,-30.8116709
1.95950,-41.49347517
1.96000,-40.88308635
1.96050,-30.50647649
1.96100,-14.02597847
1.96150,0.6233530956
1.96200,6.116852434
1.96250,4.896074803
1.96300,8.253213288
1.96350,23.51293367
1.96400,43.04537577
1.96450,54.03237444
1.96500,54.33756885
1.96550,51.59081918
1.96600,49.14926392
1.96650,45.79212544
1.96700,42.12979254
1.96750,38.46745965
1.96800,29.61682183
1.96850,10.38957414
1.96900,-12.80520084
1.96950,-28.98050445
1.97000,-35.38958701
1.97050,-41.18828076
1.97100,-50.6493074
1.97150,-60.41552844
1.97200,-68.35058304
1.97250,-76.28563765
1.97300,-81.16874817
1.97350,-74.14927679
1.97400,-54.31164029
1.97450,-31.72725412
1.97500,-12.50000644
1.97550,10.08437973
1.97600,39.38304287
1.97650,60.74665141
1.97700,59.52587378
1.97750,45.18173662
1.97800,39.68823728
1.97850,48.2336807
1.97900,55.55834648
1.97950,50.06484714
1.98000,38.16226524
1.98050,29.31162742
1.98100,21.37657282
1.98150,9.168796511
1.98200,-1.818202166
1.98250,-6.090923874
1.98300,-6.396118282
1.98350,-10.9740344
1.98400,-17.38311696
1.98450,-18.29870018
1.98500,-17.38311696
1.98550,-28.37011564
1.98600,-54.31164029
1.98650,-80.55835935
1.98700,-90.93496921
1.98750,-85.13627547
1.98800,-74.14927679
1.98850,-62.5518893
1.98900,-48.20775214
1.98950,-30.50647649
1.99000,-14.33117288
1.99050,-1.818202166
1.99100,6.422046842
1.99150,13.13632381
1.99200,19.24021197
1.99250,25.03890571
1.99300,26.87007216
1.99350,19.54540637
1.99400,5.506463619
1.99450,-4.564951835
1.99500,-3.038979797
1.99550,5.506463619
1.99600,14.66229585
1.99650,24.12332249
1.99700,38.46745965
1.99750,57.08431852
1.99800,76.61676061
1.99850,95.23361948
1.99900,113.2400895
1.99950,124.837477
2.00000,126.6686435
2.00050,124.2270882
2.00100,121.785533
2.00150,114.1556728
2.00200,92.79206422
2.00250,64.40898431
2.00300,42.74018136
2.00350,30.53240505
2.00400,18.32462874
2.00450,1.844130726
2.00500,-9.753256766
2.00550,-10.36364558
2.00600,-4.564951835
2.00650,-2.428590981
2.00700,-12.19481203
2.00750,-35.69478142
2.00800,-65.29863897
2.00850,-82.3895258
2.00900,-76.89602646
2.00950,-62.5518893
2.01000,-62.24669489
2.01050,-77.50641528
2.01100,-89.10380277
2.01150,-89.40899718
2.01200,-89.71419158
2.01250,-96.73366296
2.01300,-96.42846855
2.01350,-79.33758172
2.01400,-58.88955641
2.01450,-53.09086266
2.01500,-56.14280674
2.01550,-49.73372418
2.01600,-30.8116709
2.01650,-14.02597847
2.01700,-9.142867951
2.01750,-10.66883999
2.01800,-10.36364558
2.01850,-4.870146243
2.01900,6.422046842
2.01950,22.29215604
2.02000,33.58434913
2.02050,31.44798827
2.02100,21.68176723
2.02150,20.15579519
2.02200,31.75318268
2.02250,45.18173662
2.02300,49.45445833
2.02350,46.09731984
2.02400,42.43498695
2.02450,39.07784847
2.02500,32.05837709
2.02550,19.24021197
2.02600,3.675297173
2.02650,-8.837673543
2.02700,-16.46753374
2.02750,-22.8766163
2.02800,-33.86361497
2.02850,-50.03891858
2.02900,-61.63630608
2.02950,-59.19475081
2.03000,-47.29216891
2.03050,-36.61036464
2.03100,-28.37011564
2.03150,-13.41558966
2.03200,8.253213288
2.03250,28.09084979
2.03300,40.90901491
2.03350,50.37004155
2.03400,56.4739297
2.03450,51.28562477
2.03500,33.27915472
2.03550,14.05190703
2.03600,1.844130726
2.03650,-10.36364558
2.03700,-31.72725412
2.03750,-57.66877878
2.03800,-81.47394258
2.03850,-106.499884
2.03900,-136.7141304
2.03950,-164.7920159
2.04000,-178.5257642
2.04050,-177.9153754
2.04100,-173.6426537
2.04150,-170.2855152
2.04200,-162.9608494
2.04250,-149.8374899
2.04300,-136.408936
2.04350,-123.2855764
2.04400,-101.3115791
2.04450,-59.19475081
2.04500,-0.5974245352
2.04550,57.99990174
2.04600,101.9478965
2.04650,128.4998099
2.04700,143.1491415
2.04750,146.8114744
2.04800,134.9088925
2.04850,112.0193119
2.04900,94.62323067
2.04950,93.40245304
2.05000,93.40245304
2.05050,69.90248364
2.05100,19.85060078
2.05150,-32.03244853
2.05200,-63.16227811
2.05250,-74.75966561
2.05300,-80.86355376
2.05350,-86.96744191
2.05400,-89.71419158
2.05450,-89.71419158
2.05500,-90.93496921
2.05550,-90.62977481
2.05600,-80.86355376
2.05650,-64.99344456
2.05700,-57.36358437
2.05750,-65.29863897
2.05800,-76.89602646
2.05850,-75.06486001
2.05900,-60.11033404
2.05950,-48.51294654
2.06000,-54.31164029
2.06050,-76.28563765
2.06100,-99.78560704
2.06150,-113.5193554
2.06200,-116.5712995
2.06250,-111.9933833
2.06300,-100.0908014
2.06350,-80.86355376
2.06400,-56.75319555
2.06450,-32.64283734
2.06500,-10.66883999
2.06550,10.69476855
2.06600,31.44798827
2.06650,44.5713478
2.06700,44.2661534
2.06750,31.75318268
2.06800,14.05190703
2.06850,-2.428590981
2.06900,-14.33117288
2.06950,-19.51947781
2.07000,-19.82467222
2.07050,-17.07792255
2.07100,-13.72078407
2.07150,-7.616895912
2.07200,4.285685988
2.07250,22.90254486
2.07300,42.12979254
2.07350,54.03237444
2.07400,55.55834648
2.07450,52.201208
2.07500,52.201208
2.07550,59.22067937
2.07600,69.59728924
2.07650,78.75312147
2.07700,84.85700962
2.07750,87.60375929
2.07800,83.02584317
2.07850,66.85053957
2.07900,42.12979254
2.07950,17.10385111
2.08000,-3.95456302
2.08050,-24.09739393
2.08100,-43.93503043
2.08150,-58.88955641
2.08200,-65.90902778
2.08250,-67.74019423
2.08300,-65.60383338
2.08350,-51.25969621
2.08400,-16.16233933
2.08450,32.05837709
2.08500,72.64923331
2.08550,90.35050896
2.08600,89.12973133
2.08650,80.58428791
2.08700,67.15573397
2.08750,45.18173662
2.08800,15.57787907
2.08850,-9.753256766
2.08900,-19.82467222
2.08950,-13.41558966
2.09000,-0.5974245352
2.09050,4.285685988
2.09100,-3.95456302
2.09150,-21.96103307
2.09200,-41.79866957
2.09250,-58.27916759
2.09300,-68.04538864
2.09350,-66.5194166
2.09400,-51.87008503
2.09450,-32.33764294
2.09500,-25.31817156
2.09550,-38.7467255
2.09600,-64.38305574
2.09650,-86.66224751
2.09700,-96.12327415
2.09750,-94.2921077
2.09800,-84.52588665
2.09850,-66.21422219
2.09900,-43.32464161
2.09950,-25.92856037
2.10000,-22.57142189
2.10050,-27.75972682
2.10100,-24.09739393
2.10150,-0.2922301275
2.10200,32.97396031
2.10250,54.64276326
2.10300,50.98043037
2.10350,30.22721064
2.10400,10.38957414
2.10450,-0.5974245352
2.10500,-8.227284728
2.10550,-16.16233933
2.10600,-20.43506104
2.10650,-14.02597847
2.10700,-1.818202166
2.10750,2.454519542
2.10800,-11.2792288
2.10850,-41.18828076
2.10900,-71.40252712
2.10950,-83.61030343
2.11000,-67.74019423
2.11050,-30.50647649
2.11100,9.168796511
2.11150,35.11032117
2.11200,47.01290307
2.11250,56.77912411
2.11300,67.76612279
2.11350,73.25962213
2.11400,73.87001094
2.11450,85.77259284
2.11500,120.5647553
2.11550,162.3763892
2.11600,186.181553
2.11650,184.0451921
2.11700,167.2594997
2.11750,138.266031
2.11800,90.04531455
2.11850,28.3960442
2.11900,-20.43506104
2.11950,-44.54541924
2.12000,-60.72072285
2.12050,-89.71419158
2.12100,-129.3894646
2.12150,-162.0452662
2.12200,-181.5777083
2.12250,-194.3958734
2.12300,-200.804956
2.12350,-196.8374287
2.12400,-181.8829027
2.12450,-153.1946284
2.12500,-103.7531343
2.12550,-35.99997583
2.12600,25.95448893
2.12650,57.08431852
2.12700,56.77912411
2.12750,43.96095899
2.12800,27.78565538
2.12850,0.6233530956
2.12900,-41.49347517
2.12950,-86.96744191
2.13000,-117.7920771
2.13050,-126.6427149
2.13100,-116.8764939
2.13150,-98.259635
2.13200,-81.77913698
2.13250,-72.01291594
2.13300,-65.29863897
2.13350,-57.36358437
2.13400,-47.90255773
2.13450,-36.91555905
2.13500,-18.60389459
2.13550,7.337630065
2.13600,31.14279387
2.13650,43.96095899
2.13700,47.62329188
2.13750,45.79212544
2.13800,34.19473794
2.13850,8.863602104
2.13900,-21.35064426
2.13950,-46.98697451
2.14000,-66.5194166
2.14050,-82.08433139
2.14100,-87.27263632
2.14150,-78.4219985
2.14200,-67.74019423
2.14250,-72.92849916
2.14300,-93.68171888
2.14350,-113.214161
2.14400,-119.6232435
2.14450,-113.5193554
2.14500,-98.259635
2.14550,-75.98044324
2.14600,-53.09086266
2.14650,-37.52594787
2.14700,-27.14933801
2.14750,-11.88961762
2.14800,13.13632381
2.14850,42.12979254
2.14900,66.24015075
2.14950,77.83753824
2.15000,72.95442772
2.15050,52.201208
2.15100,25.03890571
2.15150,2.454519542
2.15200,-11.88961762
2.15250,-21.04544985
2.15300,-21.35064426
2.15350,-9.753256766
2.15400,7.94801888
2.15450,22.59735045
2.15500,32.97396031
2.15550,46.70770866
2.15600,65.93495634
2.15650,85.16220403
2.15700,101.0323132
2.15750,113.2400895
2.15800,117.5128112
2.15850,110.4933399
2.15900,103.7790629
2.15950,114.4608672
2.16000,141.6231695
2.16050,161.7660004
2.16100,155.6621122
2.16150,126.6686435
2.16200,92.18167541
2.16250,62.88301227
2.16300,40.6038205
2.16350,28.09084979
2.16400,25.03890571
2.16450,27.78565538
2.16500,32.05837709
2.16550,37.85707084
2.16600,44.5713478
2.16650,49.14926392
2.16700,50.67523596
2.16750,51.89601359
2.16800,49.45445833
2.16850,31.75318268
2.16900,-6.396118282
2.16950,-54.6168347
2.17000,-97.64924618
2.17050,-129.3894646
2.17100,-150.7530731
2.17150,-157.7725445
2.17200,-144.9543794
2.17250,-119.9284379
2.17300,-100.0908014
2.17350,-94.2921077
2.17400,-94.2921077
2.17450,-88.49341395
2.17500,-75.37005442
2.17550,-59.80513963
2.17600,-45.46100247
2.17650,-34.16880938
2.17700,-34.47400379
2.17750,-51.87008503
2.17800,-75.67524883
2.17850,-87.88302514
2.17900,-82.08433139
2.17950,-68.65577745
2.18000,-56.75319555
2.18050,-37.22075346
2.18100,0.3181586879
2.18150,47.62329188
2.18200,84.85700962
2.18250,101.9478965
2.18300,106.5258126
2.18350,104.6946461
2.18400,92.48686981
2.18450,64.1037899
2.18500,24.12332249
2.18550,-19.21428341
2.18600,-61.33111167
2.18650,-95.20769092
2.18700,-114.4349386
2.18750,-117.1816883
2.18800,-111.0778001
2.18850,-102.5323567
2.18900,-89.10380277
2.18950,-62.85708371
2.19000,-18.29870018
2.19050,39.99343169
2.19100,97.36998034
2.19150,135.8244757
2.19200,148.3374464
2.19250,145.5906968
2.19300,142.2335583
2.19350,145.5906968
2.19400,154.4413346
2.19450,168.4802773
2.19500,184.6555809
2.19550,190.7594691
2.19600,175.4997487
2.19650,144.0647247
2.19700,113.8504784
2.19750,90.65570337
2.19800,62.27262345
2.19850,18.62982315
2.19900,-28.67531004
2.19950,-57.05838996
2.20000,-57.97397318
2.20050,-44.85061365
2.20100,-40.27269754
2.20150,-52.78566825
2.20200,-68.65577745
2.20250,-67.74019423
2.20300,-46.07139128
2.20350,-18.60389459
2.20400,-2.123396574
2.20450,-2.428590981
2.20500,-19.21428341
2.20550,-52.17527944
2.20600,-89.71419158
2.20650,-106.499884
2.20700,-90.01938599
2.20750,-62.24669489
2.20800,-59.80513963
2.20850,-89.71419158
2.20900,-123.8959652
2.20950,-136.408936
2.21000,-129.9998534
2.21050,-121.45441
2.21100,-117.1816883
2.21150,-113.5193554
2.21200,-108.6362449
2.21250,-99.78560704
2.21300,-76.28563765
2.21350,-31.72725412
2.21400,21.98696163
2.21450,62.57781786
2.21500,81.49987114
2.21550,92.18167541
2.21600,110.7985343
2.21650,140.0971974
2.21700,169.0906661
2.21750,187.0971362
2.21800,194.7269964
2.21850,195.0321908
2.21900,186.7919418
2.21950,160.8504171
2.22000,116.9024224
2.22050,67.76612279
2.22100,29.61682183
2.22150,3.98049158
2.22200,-18.29870018
2.22250,-37.83114227
2.22300,-42.7142528
2.22350,-28.37011564
2.22400,-9.753256766
2.22450,0.01296428019
2.22500,3.98049158
2.22550,14.35710144
2.22600,28.09084979
2.22650,34.49993235
2.22700,34.19473794
2.22750,36.94148761
2.22800,39.07784847
2.22850,26.25968334
2.22900,-1.818202166
2.22950,-26.53894919
2.23000,-32.94803175
2.23050,-29.59089327
2.23100,-29.28569886
2.23150,-28.98050445
2.23200,-20.74025544
2.23250,-6.701312689
2.23300,4.590880396
2.23350,17.71423993
2.23400,37.55187643
2.23450,58.61029056
2.23500,68.68170601
2.23550,67.76612279
2.23600,64.40898431
2.23650,64.71417871
2.23700,68.98690042
2.23750,81.19467673
2.23800,101.0323132
2.23850,113.8504784
2.23900,100.7271188
2.23950,65.01937312
2.24000,26.56487775
2.24050,-3.95456302
2.24100,-35.99997583
2.24150,-74.4544712
2.24200,-105.2791064
2.24250,-114.740133
2.24300,-108.025856
2.24350,-98.87002382
2.24400,-92.15574685
2.24450,-80.86355376
2.24500,-61.02591726
2.24550,-38.44153109
2.24600,-18.60389459
2.24650,-1.513007758
2.24700,15.88307348
2.24750,39.38304287
2.24800,71.73365009
2.24850,109.5777566
2.24900,138.8764198
2.24950,145.2855023
2.25000,126.0582547
2.25050,92.79206422
2.25100,58.61029056
2.25150,28.3960442
2.25200,0.6233530956
2.25250,-23.79219952
2.25300,-39.35711431
2.25350,-40.57789194
2.25400,-27.45453241
2.25450,-7.92209032
2.25500,8.253213288
2.25550,16.7986567
2.25600,20.766184
2.25650,22.90254486
2.25700,18.01943433
2.25750,0.9285475033
2.25800,-22.57142189
2.25850,-43.62983602
2.25900,-65.29863897
2.25950,-96.12327415
2.26000,-125.7271317
2.26050,-127.5582981
2.26100,-95.81807974
2.26150,-57.66877878
2.26200,-33.86361497
2.26250,-7.006507097
2.26300,44.5713478
2.26350,101.0323132
2.26400,118.4283945
2.26450,91.876481
2.26500,64.1037899
2.26550,64.1037899
2.26600,71.73365009
2.26650,55.86354089
2.26700,21.68176723
2.26750,-3.038979797
2.26800,-11.88961762
2.26850,-17.38311696
2.26900,-24.09739393
2.26950,-18.60389459
2.27000,7.337630065
2.27050,45.18173662
2.27100,77.83753824
2.27150,97.36998034
2.27200,104.3894517
2.27250,103.1686741
2.27300,98.89595238
2.27350,95.23361948
2.27400,90.04531455
2.27450,77.22714943
2.27500,56.4739297
2.27550,37.24668202
2.27600,28.3960442
2.27650,24.7337113
2.27700,13.74671263
2.27750,-8.532479135
2.27800,-26.23375478
2.27850,-20.74025544
2.27900,5.811658027
2.27950,28.3960442
2.28000,20.766184
2.28050,-22.8766163
2.28100,-86.66224751
2.28150,-148.0063235
2.28200,-192.8699014
2.28250,-223.3893422
2.28300,-250.5516444
2.28350,-279.8503076
2.28400,-296.636
2.28450,-277.4087523
2.28500,-217.8958428
2.28550,-140.9868521
2.28600,-76.59083205
2.28650,-34.16880938
2.28700,-5.175340651
2.28750,20.766184
2.28800,43.96095899
2.28850,56.77912411
2.28900,51.89601359
2.28950,32.3635715
2.29000,11.91554618
2.29050,4.285685988
2.29100,9.473990919
2.29150,13.74671263
2.29200,4.590880396
2.29250,-14.9415617
2.29300,-35.08439261
2.29350,-45.15580806
2.29400,-39.96750313
2.29450,-19.51947781
2.29500,4.896074803
2.29550,18.93501756
2.29600,15.88307348
2.29650,5.201269211
2.29700,-1.513007758
2.29750,0.3181586879
2.29800,12.8311294
2.29850,35.11032117
2.29900,57.08431852
2.29950,62.57781786
2.30000,46.09731984
2.30050,24.12332249
2.30100,16.7986567
2.30150,27.17526657
2.30200,41.82459814
2.30250,52.5064024
2.30300,64.1037899
2.30350,81.19467673
2.30400,96.45439711
2.30450,99.20114678
2.30500,92.18167541
2.30550,89.43492574
2.30600,99.20114678
2.30650,114.1556728
2.30700,120.8699497
2.30750,113.2400895
2.30800,94.62323067
2.30850,68.37651161
2.30900,39.68823728
2.30950,15.57787907
2.31000,2.149325134
2.31050,-0.9026189429
2.31100,-0.2922301275
2.31150,-2.123396574
2.31200,-7.92209032
2.31250,-17.99350577
2.31300,-30.20128208
2.31350,-41.18828076
2.31400,-51.87008503
2.31450,-65.90902778
2.31500,-80.86355376
2.31550,-88.18821955
2.31600,-86.96744191
2.31650,-86.66224751
2.31700,-91.24016362
2.31750,-90.62977481
2.31800,-76.59083205
2.31850,-60.72072285
2.31900,-57.66877878
2.31950,-61.02591726
2.32000,-55.53241792
2.32050,-41.79866957
2.32100,-33.86361497
2.32150,-32.94803175
2.32200,-24.70778274
2.32250,-3.95456302
2.32300,17.40904552
2.32350,32.05837709
2.32400,46.40251425
2.32450,64.1037899
2.32500,77.22714943
2.32550,80.27909351
2.32600,80.27909351
2.32650,84.85700962
2.32700,89.12973133
2.32750,88.51934251
2.32800,91.57128659
2.32850,109.2725622
2.32900,139.1816142
2.32950,167.8698885
2.33000,187.707525
2.33050,199.6101069
2.33100,203.5776342
2.33150,199.3049125
2.33200,189.5386915
2.33250,181.6036369
2.33300,175.1945543
2.33350,159.6296395
2.33400,128.1946155
2.33450,87.9089537
2.33500,53.42198563
2.33550,29.31162742
2.33600,6.116852434
2.33650,-27.14933801
2.33700,-70.79213831
2.33750,-117.4868827
2.33800,-164.1816271
2.33850,-210.571177
2.33900,-249.6360612
2.33950,-267.3373369
2.34000,-257.8763102
2.34050,-232.5451744
2.34100,-207.8244274
2.34150,-189.8179573
2.34200,-170.2855152
2.34250,-142.5128241
2.34300,-108.025856
2.34350,-73.23369357
2.34400,-43.62983602
2.34450,-19.51947781
2.34500,0.6233530956
2.34550,18.62982315
2.34600,32.05837709
2.34650,36.02590439
2.34700,32.97396031
2.34750,32.6687659
2.34800,43.65576458
2.34850,57.69470734
2.34900,57.99990174
2.34950,39.99343169
2.35000,21.07137841
2.35050,19.54540637
2.35100,28.09084979
2.35150,21.68176723
2.35200,-10.66883999
2.35250,-53.39605707
2.35300,-79.64277613
2.35350,-80.55835935
2.35400,-67.74019423
2.35450,-55.53241792
2.35500,-47.59736332
2.35550,-41.18828076
2.35600,-35.69478142
2.35650,-32.64283734
2.35700,-30.8116709
2.35750,-26.8441436
2.35800,-20.12986663
2.35850,-8.532479135
2.35900,14.66229585
2.35950,56.4739297
2.36000,108.356979
2.36050,149.8634185
2.36100,172.1426102
2.36150,188.0127194
2.36200,209.9867168
2.36250,227.9931868
2.36300,220.3633266
2.36350,188.0127194
2.36400,154.4413346
2.36450,133.3829204
2.36500,108.9673678
2.36550,60.74665141
2.36600,-7.616895912
2.36650,-76.28563765
2.36700,-131.220631
2.36750,-170.2855152
2.36800,-191.0387349
2.36850,-187.0712076
2.36900,-156.2465725
2.36950,-104.973912
2.37000,-46.07139128
2.37050,1.233741911
2.37100,20.766184
2.37150,6.422046842
2.37200,-31.42205971
2.37250,-78.72719291
2.37300,-123.5907708
2.37350,-158.9933221
2.37400,-185.5452356
2.37450,-213.9283155
2.37500,-247.8048948
2.37550,-266.1165592
2.37600,-241.7010066
2.37650,-179.136153
2.37700,-112.9089666
2.37750,-61.33111167
2.37800,-6.090923874
2.37850,66.24015075
2.37900,130.3309764
2.37950,149.5582241
2.38000,126.9738379
2.38050,96.75959152
2.38100,76.31156621
2.38150,57.69470734
2.38200,37.85707084
2.38250,29.31162742
2.38300,39.38304287
2.38350,54.03237444
2.38400,58.61029056
2.38450,51.28562477
2.38500,36.94148761
2.38550,15.88307348
2.38600,-10.9740344
2.38650,-38.7467255
2.38700,-62.5518893
2.38750,-83.61030343
2.38800,-103.7531343
2.38850,-120.8440212
2.38900,-131.5258254
2.38950,-133.3569919
2.39000,-124.8115485
2.39050,-106.1946896
2.39100,-80.55835935
2.39150,-52.17527944
2.39200,-22.26622748
2.39250,7.032435657
2.39300,32.05837709
2.39350,50.37004155
2.39400,64.1037899
2.39450,77.22714943
2.39500,87.9089537
2.39550,92.18167541
2.39600,90.96089778
2.39650,88.21414811
2.39700,84.55181521
2.39750,81.80506554
2.39800,82.72064877
2.39850,86.68817607
2.39900,86.99337048
2.39950,78.14273265
2.40000,62.88301227
2.40050,49.45445833
2.40100,40.2986261
2.40150,31.44798827
2.40200,18.62982315
2.40250,2.149325134
2.40300,-12.80520084
2.40350,-17.38311696
2.40400,-6.396118282
2.40450,11.30515737
2.40500,19.54540637
2.40550,13.74671263
2.40600,9.779185327
2.40650,21.68176723
2.40700,44.5713478
2.40750,60.44145701
2.40800,61.05184582
2.40850,53.42198563
2.40900,46.70770866
2.40950,46.70770866
2.41000,54.64276326
2.41050,66.54534516
2.41100,72.0388445
2.41150,64.1037899
2.41200,49.14926392
2.41250,37.55187643
2.41300,30.53240505
2.41350,20.4609896
2.41400,2.454519542
2.41450,-19.51947781
2.41500,-40.57789194
2.41550,-57.97397318
2.41600,-71.09733271
2.41650,-78.11680409
2.41700,-77.50641528
2.41750,-68.65577745
2.41800,-54.00644588
2.41850,-39.05191991
2.41900,-29.59089327
2.41950,-27.75972682
2.42000,-30.20128208
2.42050,-28.67531004
2.42100,-16.16233933
2.42150,5.506463619
2.42200,22.90254486
2.42250,18.32462874
2.42300,-5.480535058
2.42350,-21.65583867
2.42400,-2.428590981
2.42450,45.79212544
2.42500,85.46739844
2.42550,83.63623199
2.42600,44.87654221
2.42650,4.285685988
2.42700,-7.311701505
2.42750,12.22074059
2.42800,40.6038205
2.42850,51.28562477
2.42900,39.38304287
2.42950,19.54540637
2.43000,7.94801888
2.43050,6.116852434
2.43100,7.94801888
2.43150,11.30515737
2.43200,19.24021197
2.43250,30.53240505
2.43300,39.07784847
2.43350,38.16226524
2.43400,26.56487775
2.43450,8.863602104
2.43500,-4.564951835
2.43550,-4.564951835
2.43600,8.253213288
2.43650,18.62982315
2.43700,12.22074059
2.43750,-4.259757428
2.43800,-12.50000644
2.43850,-6.090923874
2.43900,1.538936319
2.43950,0.01296428019
2.44000,-7.006507097
2.44050,-7.311701505
2.44100,-0.9026189429
2.44150,4.285685988
2.44200,8.558407696
2.44250,18.93501756
2.44300,38.77265406
2.44350,58.61029056
2.44400,68.98690042
2.44450,68.37651161
2.44500,58.91548497
2.44550,40.2986261
2.44600,13.74671263
2.44650,-11.2792288
2.44700,-26.8441436
2.44750,-36.61036464
2.44800,-50.34411299
2.44850,-65.90902778
2.44900,-69.57136068
2.44950,-56.44800114
2.45000,-39.05191991
2.45050,-32.33764294
2.45100,-39.05191991
2.45150,-54.00644588
2.45200,-75.06486001
2.45250,-101.0063847
2.45300,-124.5063541
2.45350,-139.7660744
2.45400,-146.175157
2.45450,-141.5972409
2.45500,-113.5193554
2.45550,-56.14280674
2.45600,10.69476855
2.45650,56.4739297
2.45700,72.34403891
2.45750,79.66870469
2.45800,95.23361948
2.45850,107.4413958
2.45900,93.70764744
2.45950,54.33756885
2.46000,9.779185327
2.46050,-25.31817156
2.46100,-58.27916759
2.46150,-98.87002382
2.46200,-142.8180185
2.46250,-172.4218761
2.46300,-176.9997922
2.46350,-164.1816271
2.46400,-151.0582675
2.46450,-143.7336017
2.46500,-132.1362143
2.46550,-104.6687176
2.46600,-68.65577745
2.46650,-41.18828076
2.46700,-23.48700511
2.46750,-1.207813351
2.46800,33.58434913
2.46850,69.29209483
2.46900,89.74012014
2.46950,93.09725863
2.47000,89.74012014
2.47050,85.46739844
2.47100,82.72064877
2.47150,84.55181521
2.47200,88.82453692
2.47250,90.35050896
2.47300,90.04531455
2.47350,100.11673
2.47400,126.9738379
2.47450,154.4413346
2.47500,156.8828898
2.47550,126.6686435
2.47600,78.14273265
2.47650,29.92201623
2.47700,-7.311701505
2.47750,-32.64283734
2.47800,-48.51294654
2.47850,-59.80513963
2.47900,-66.82461101
2.47950,-63.77266693
2.48000,-46.37658569
2.48050,-18.60389459
2.48100,10.38957414
2.48150,34.19473794
2.48200,49.14926392
2.48250,54.33756885
2.48300,54.94795767
2.48350,59.52587378
2.48400,68.98690042
2.48450,75.70117739
2.48500,72.34403891
2.48550,60.1362626
2.48600,40.2986261
2.48650,13.74671263
2.48700,-17.38311696
2.48750,-50.6493074
2.48800,-87.88302514
2.48850,-130.9154366
2.48900,-162.9608494
2.48950,-157.4673501
2.49000,-110.7726057
2.49050,-50.6493074
2.49100,-6.701312689
2.49150,17.10385111
2.49200,31.75318268
2.49250,40.2986261
2.49300,39.68823728
2.49350,33.58434913
2.49400,29.00643301
2.49450,26.87007216
2.49500,30.22721064
2.49550,50.37004155
2.49600,86.38298166
2.49650,111.1037287
2.49700,93.40245304
2.49750,34.19473794
2.49800,-33.55842057
2.49850,-81.47394258
2.49900,-105.5843008
2.49950,-111.0778001
2.50000,-99.48041263
2.50050,-77.20122087
2.50100,-65.29863897
2.50150,-78.72719291
2.50200,-103.1427455
2.50250,-108.9414393
2.50300,-86.05185869
2.50350,-59.19475081
2.50400,-55.83761233
2.50450,-73.53888798
2.50500,-83.61030343
2.50550,-62.24669489
2.50600,-8.532479135
2.50650,59.83106819
2.50700,115.071256
2.50750,130.6361708
2.50800,105.3050349
2.50850,69.29209483
2.50900,52.201208
2.50950,44.5713478
2.51000,10.69476855
2.51050,-54.6168347
2.51100,-109.8570225
2.51150,-119.6232435
2.51200,-98.56482941
2.51250,-80.25316495
2.51300,-65.29863897
2.51350,-32.64283734
2.51400,13.74671263
2.51450,43.04537577
2.51500,40.2986261
2.51550,28.7012386
2.51600,36.6362932
2.51650,69.59728924
2.51700,112.6297007
2.51750,145.2855023
2.51800,153.2205569
2.51850,133.3829204
2.51900,98.28556356
2.51950,59.83106819
2.52000,14.66229585
2.52050,-44.54541924
2.52100,-108.3310505
2.52150,-151.3634619
2.52200,-156.5517669
2.52250,-126.6427149
2.52300,-75.67524883
2.52350,-21.96103307
2.52400,10.99996296
2.52450,14.96749026
2.52500,6.72724125
2.52550,11.91554618
2.52600,31.44798827
2.52650,44.2661534
2.52700,42.12979254
2.52750,41.51940373
2.52800,58.91548497
2.52850,88.82453692
2.52900,115.3764504
2.52950,131.551754
2.53000,140.0971974
2.53050,142.2335583
2.53100,134.2985037
2.53150,111.1037287
2.53200,70.81806687
2.53250,21.37657282
2.53300,-18.60389459
2.53350,-37.83114227
2.53400,-45.15580806
2.53450,-60.41552844
2.53500,-89.10380277
2.53550,-117.7920771
2.53600,-133.3569919
2.53650,-137.0193248
2.53700,-136.1037416
2.53750,-136.1037416
2.53800,-140.0712689
2.53850,-147.0907402
2.53900,-149.2271011
2.53950,-136.408936
2.54000,-111.0778001
2.54050,-87.27263632
2.54100,-75.37005442
2.54150,-75.37005442
2.54200,-81.77913698
2.54250,-90.62977481
2.54300,-94.90249651
2.54350,-86.3570531
2.54400,-67.12980541
2.54450,-50.34411299
2.54500,-45.46100247
2.54550,-45.46100247
2.54600,-39.05191991
2.54650,-26.8441436
2.54700,-20.12986663
2.54750,-25.62336597
2.54800,-37.52594787
2.54850,-43.01944721
2.54900,-32.33764294
2.54950,-5.175340651
2.55000,27.78565538
2.55050,51.89601359
2.55100,61.66223464
2.55150,65.62976194
2.55200,73.87001094
2.55250,87.29856488
2.55300,97.36998034
2.55350,98.28556356
2.55400,90.96089778
2.55450,75.70117739
2.55500,51.28562477
2.55550,20.15579519
2.55600,-4.564951835
2.55650,-9.142867951
2.55700,9.779185327
2.55750,40.6038205
2.55800,65.62976194
2.55850,79.36351028
2.55900,90.04531455
2.55950,108.0517846
2.56000,131.2465596
2.56050,144.0647247
2.56100,132.1621428
2.56150,94.01284185
2.56200,41.21420932
2.56250,-9.448062359
2.56300,-45.76619688
2.56350,-64.68825015
2.56400,-73.23369357
2.56450,-80.55835935
2.56500,-90.62977481
2.56550,-99.17521822
2.56600,-101.0063847
2.56650,-94.90249651
2.56700,-80.86355376
2.56750,-61.02591726
2.56800,-39.35711431
2.56850,-17.68831137
2.56900,5.811658027
2.56950,30.53240505
2.57000,48.5388751
2.57050,58.30509615
2.57100,72.34403891
2.57150,102.5582853
2.57200,138.8764198
2.57250,155.6621122
2.57300,145.2855023
2.57350,124.837477
2.57400,107.7465902
2.57450,83.02584317
2.57500,34.19473794
2.57550,-31.11686531
2.57600,-86.96744191
2.57650,-110.4674113
2.57700,-96.12327415
2.57750,-55.22722351
2.57800,-10.66883999
2.57850,16.7986567
2.57900,27.48046097
2.57950,41.82459814
2.58000,72.34403891
2.58050,103.4738685
2.58100,110.4933399
2.58150,90.04531455
2.58200,60.74665141
2.58250,35.72070998
2.58300,9.168796511
2.58350,-28.37011564
2.58400,-78.11680409
2.58450,-128.4738814
2.58500,-165.7075991
2.58550,-181.8829027
2.58600,-175.7790146
2.58650,-156.5517669
2.58700,-138.5452968
2.58750,-129.694659
2.58800,-123.8959652
2.58850,-104.6687176
2.58900,-67.43499982
2.58950,-28.06492123
2.59000,-4.870146243
2.59050,3.370102765
2.59100,12.8311294
2.59150,25.95448893
2.59200,31.14279387
2.59250,27.17526657
2.59300,28.7012386
2.59350,36.6362932
2.59400,33.27915472
2.59450,14.66229585
2.59500,7.642824473
2.59550,29.61682183
2.59600,55.25315207
2.59650,53.72718004
2.59700,40.6038205
2.59750,55.55834648
2.59800,96.14920271
2.59850,115.071256
2.59900,89.74012014
2.59950,53.11679122
2.60000,43.04537577
2.60050,49.45445833
2.60100,42.43498695
2.60150,23.51293367
2.60200,20.15579519
2.60250,39.07784847
2.60300,56.1687353
2.60350,54.33756885
2.60400,46.40251425
2.60450,50.06484714
2.60500,63.18820667
2.60550,72.95442772
2.60600,81.49987114
2.60650,101.642702
2.60700,131.2465596
2.60750,148.9478352
2.60800,141.6231695
2.60850,118.1232001
2.60900,96.14920271
2.60950,80.58428791
2.61000,71.12326127
2.61050,70.81806687
2.61100,82.41545436
2.61150,96.14920271
2.61200,98.89595238
2.61250,89.43492574
2.61300,78.14273265
2.61350,71.12326127
2.61400,65.93495634
2.61450,60.44145701
2.61500,53.72718004
2.61550,43.04537577
2.61600,29.61682183
2.61650,23.51293367
2.61700,34.80512676
2.61750,58.30509615
2.61800,75.70117739
2.61850,74.17520535
2.61900,57.99990174
2.61950,38.16226524
2.62000,21.37657282
2.62050,6.72724125
2.62100,-8.532479135
2.62150,-24.09739393
2.62200,-29.28569886
2.62250,-12.50000644
2.62300,21.37657282
2.62350,49.45445833
2.62400,54.64276326
2.62450,49.14926392
2.62500,55.55834648
2.62550,74.17520535
2.62600,84.85700962
2.62650,80.27909351
2.62700,73.25962213
2.62750,71.73365009
2.62800,64.71417871
2.62850,45.48693103
2.62900,27.78565538
2.62950,26.25968334
2.63000,35.11032117
2.63050,39.07784847
2.63100,36.6362932
2.63150,35.72070998
2.63200,33.27915472
2.63250,17.10385111
2.63300,-13.11039525
2.63350,-45.15580806
2.63400,-68.65577745
2.63450,-88.18821955
2.63500,-109.8570225
2.63550,-131.220631
2.63600,-144.0387962
2.63650,-144.3439906
2.63700,-132.7466031
2.63750,-114.1297442
2.63800,-96.42846855
2.63850,-84.52588665
2.63900,-72.01291594
2.63950,-43.93503043
2.64000,3.064908357
2.64050,54.94795767
2.64100,88.82453692
2.64150,98.59075797
2.64200,100.11673
2.64250,110.1881455
2.64300,127.8894211
2.64350,137.6556422
2.64400,134.9088925
2.64450,132.4673372
2.64500,142.2335583
2.64550,154.1361402
2.64600,150.1686129
2.64650,129.7205876
2.64700,107.4413958
2.64750,86.07778725
2.64800,45.18173662
2.64850,-26.53894919
2.64900,-111.3829945
2.64950,-175.4738201
2.65000,-205.3828721
2.65050,-214.2335099
2.65100,-222.7789533
2.65150,-234.3763408
2.65200,-233.765952
2.65250,-203.2465112
2.65300,-149.8374899
2.65350,-107.4154672
2.65400,-103.7531343
2.65450,-125.1167429
2.65500,-123.2855764
2.65550,-69.87655508
2.65600,12.22074059
2.65650,82.72064877
2.65700,129.7205876
2.65750,175.4997487
2.65800,236.2334358
2.65850,293.6099845
2.65900,308.8697049
2.65950,260.9541829
2.66000,171.227027
2.66050,86.07778725
2.66100,36.6362932
2.66150,18.93501756
2.66200,11.91554618
2.66250,6.72724125
2.66300,10.69476855
2.66350,23.81812808
2.66400,28.7012386
2.66450,10.08437973
2.66500,-30.50647649
2.66550,-81.47394258
2.66600,-132.4414087
2.66650,-177.9153754
2.66700,-210.8763714
2.66750,-228.5776471
2.66800,-232.5451744
2.66850,-222.4737589
2.66900,-195.3114566
2.66950,-153.4998228
2.67000,-107.4154672
2.67050,-66.5194166
2.67100,-30.50647649
2.67150,3.064908357
2.67200,32.3635715
2.67250,52.201208
2.67300,62.27262345
2.67350,64.40898431
2.67400,57.38951293
2.67450,43.35057017
2.67500,29.31162742
2.67550,14.96749026
2.67600,-11.2792288
2.67650,-56.75319555
2.67700,-101.6167735
2.67750,-117.4868827
2.67800,-104.973912
2.67850,-95.81807974
2.67900,-110.4674113
2.67950,-133.9673807
2.68000,-142.5128241
2.68050,-137.934908
2.68100,-137.6297136
2.68150,-139.7660744
2.68200,-130.6102422
2.68250,-112.6037722
2.68300,-106.1946896
2.68350,-114.740133
2.68400,-113.8245498
2.68450,-82.08433139
2.68500,-31.72725412
2.68550,10.69476855
2.68600,36.94148761
2.68650,55.25315207
2.68700,69.90248364
2.68750,72.95442772
2.68800,61.66223464
2.68850,46.09731984
2.68900,35.41551557
2.68950,25.03890571
2.69000,6.116852434
2.69050,-20.43506104
2.69100,-45.76619688
2.69150,-63.46747252
2.69200,-72.31811035
2.69250,-70.79213831
2.69300,-53.70125148
2.69350,-23.18181071
2.69400,9.168796511
2.69450,33.58434913
2.69500,45.79212544
2.69550,44.5713478
2.69600,29.00643301
2.69650,6.422046842
2.69700,-6.396118282
2.69750,0.01296428019
2.69800,18.62982315
2.69850,35.11032117
2.69900,46.40251425
2.69950,56.1687353
2.70000,61.05184582
2.70050,54.03237444
2.70100,37.55187643
2.70150,20.15579519
2.70200,3.064908357
2.70250,-15.55195051
2.70300,-28.06492123
2.70350,-20.43506104
2.70400,5.811658027
2.70450,29.92201623
2.70500,36.3310988
2.70550,31.75318268
2.70600,32.97396031
2.70650,43.96095899
2.70700,53.11679122
2.70750,50.06484714
2.70800,37.55187643
2.70850,28.3960442
2.70900,26.56487775
2.70950,21.68176723
2.71000,2.75971395
2.71050,-21.96103307
2.71100,-33.25322616
2.71150,-24.09739393
2.71200,-10.36364558
2.71250,-6.396118282
2.71300,-6.396118282
2.71350,3.370102765
2.71400,22.59735045
2.71450,42.74018136
2.71500,66.24015075
2.71550,98.59075797
2.71600,132.1621428
2.71650,148.032252
2.71700,138.8764198
2.71750,119.3439777
2.71800,107.1362014
2.71850,104.9998405
2.71900,100.11673
2.71950,78.14273265
2.72000,37.55187643
2.72050,-6.396118282
2.72100,-37.83114227
2.72150,-53.39605707
2.72200,-66.82461101
2.72250,-88.49341395
2.72300,-117.1816883
2.72350,-144.9543794
2.72400,-166.3179879
2.72450,-180.0517363
2.72500,-189.2075685
2.72550,-202.0257336
2.72600,-221.8633701
2.72650,-236.5127017
2.72700,-232.8503688
2.72750,-219.7270093
2.72800,-222.4737589
2.72850,-241.7010066
2.72900,-246.5841171
2.72950,-213.3179267
2.73000,-161.129683
2.73050,-125.7271317
2.73100,-112.6037722
2.73150,-96.12327415
2.73200,-61.33111167
2.73250,-23.18181071
2.73300,-4.564951835
2.73350,-10.05845117
2.73400,-27.14933801
2.73450,-40.57789194
2.73500,-41.18828076
2.73550,-28.37011564
2.73600,-13.72078407
2.73650,-14.9415617
2.73700,-36.30517024
2.73750,-63.16227811
2.73800,-75.98044324
2.73850,-70.4869439
2.73900,-57.05838996
2.73950,-43.93503043
2.74000,-29.28569886
2.74050,-8.837673543
2.74100,15.27268467
2.74150,39.07784847
2.74200,59.22067937
2.74250,74.17520535
2.74300,80.58428791
2.74350,79.66870469
2.74400,76.61676061
2.74450,70.81806687
2.74500,56.1687353
2.74550,36.6362932
2.74600,28.7012386
2.74650,38.46745965
2.74700,49.45445833
2.74750,43.65576458
2.74800,29.31162742
2.74850,25.95448893
2.74900,27.48046097
2.74950,11.30515737
2.75000,-19.82467222
2.75050,-34.47400379
2.75100,-15.85714492
2.75150,14.66229585
2.75200,31.14279387
2.75250,30.83759946
2.75300,27.17526657
2.75350,27.17526657
2.75400,30.53240505
2.75450,32.05837709
2.75500,11.91554618
2.75550,-51.56489062
2.75600,-146.175157
2.75650,-216.9802596
2.75700,-219.4218149
2.75750,-168.4543488
2.75800,-114.740133
2.75850,-85.13627547
2.75900,-70.4869439
2.75950,-54.92202911
2.76000,-40.88308635
2.76050,-33.55842057
2.76100,-26.23375478
2.76150,-7.616895912
2.76200,19.54540637
2.76250,39.99343169
2.76300,37.85707084
2.76350,15.88307348
2.76400,-10.66883999
2.76450,-32.94803175
2.76500,-54.6168347
2.76550,-76.28563765
2.76600,-82.69472021
2.76650,-62.24669489
2.76700,-29.59089327
2.76750,-8.532479135
2.76800,-0.2922301275
2.76850,11.30515737
2.76900,26.25968334
2.76950,23.51293367
2.77000,-2.123396574
2.77050,-28.06492123
2.77100,-30.8116709
2.77150,-16.16233933
2.77200,-1.818202166
2.77250,7.94801888
2.77300,19.24021197
2.77350,32.05837709
2.77400,43.96095899
2.77450,55.55834648
2.77500,65.93495634
2.77550,67.76612279
2.77600,61.35704023
2.77650,57.38951293
2.77700,60.44145701
2.77750,60.44145701
2.77800,50.37004155
2.77850,41.51940373
2.77900,46.09731984
2.77950,57.08431852
2.78000,61.05184582
2.78050,60.44145701
2.78100,69.59728924
2.78150,89.74012014
2.78200,105.6102293
2.78250,108.356979
2.78300,102.5582853
2.78350,91.57128659
2.78400,71.42845568
2.78450,46.09731984
2.78500,31.75318268
2.78550,36.94148761
2.78600,48.84406951
2.78650,49.45445833
2.78700,37.24668202
2.78750,18.93501756
2.78800,-5.785729466
2.78850,-41.18828076
2.78900,-76.59083205
2.78950,-91.85055244
2.79000,-81.16874817
2.79050,-60.41552844
2.79100,-48.51294654
2.79150,-49.42852977
2.79200,-54.6168347
2.79250,-55.53241792
2.79300,-45.76619688
2.79350,-24.40258834
2.79400,4.285685988
2.79450,33.88954354
2.79500,58.61029056
2.79550,71.42845568
2.79600,64.1037899
2.79650,32.97396031
2.79700,-10.36364558
2.79750,-49.42852977
2.79800,-73.23369357
2.79850,-75.37005442
2.79900,-50.95450181
2.79950,-5.785729466
2.80000,34.49993235
2.80050,47.62329188
2.80100,40.90901491
2.80150,37.24668202
2.80200,36.94148761
2.80250,16.4934623
2.80300,-30.20128208
2.80350,-79.33758172
2.80400,-115.9609106
2.80450,-158.6881277
2.80500,-220.9477869
2.80550,-269.1685033
2.80600,-255.1295606
2.80650,-178.2205698
2.80700,-90.62977481
2.80750,-41.18828076
2.80800,-30.20128208
2.80850,-28.98050445
2.80900,-15.85714492
2.80950,14.05190703
2.81000,55.86354089
2.81050,95.53881389
2.81100,114.1556728
2.81150,102.2530909
2.81200,72.95442772
2.81250,50.37004155
2.81300,43.35057017
2.81350,41.82459814
2.81400,35.11032117
2.81450,22.59735045
2.81500,7.337630065
2.81550,-8.227284728
2.81600,-19.51947781
2.81650,-16.77272814
2.81700,0.01296428019
2.81750,14.05190703
2.81800,8.558407696
2.81850,-8.532479135
2.81900,-14.33117288
2.81950,0.3181586879
2.82000,19.85060078
2.82050,27.78565538
2.82100,24.12332249
2.82150,16.7986567
2.82200,4.285685988
2.82250,-14.02597847
2.82300,-29.89608767
2.82350,-35.08439261
2.82400,-33.86361497
2.82450,-31.42205971
2.82500,-18.29870018
2.82550,14.35710144
2.82600,50.67523596
2.82650,60.74665141
2.82700,42.74018136
2.82750,28.7012386
2.82800,43.04537577
2.82850,70.51287246
2.82900,81.49987114
2.82950,68.37651161
2.83000,50.37004155
2.83050,43.35057017
2.83100,41.21420932
2.83150,25.64929453
2.83200,-10.66883999
2.83250,-52.48047384
2.83300,-66.21422219
2.83350,-34.47400379
2.83400,21.98696163
2.83450,65.01937312
2.83500,79.9738991
2.83550,87.60375929
2.83600,106.2206182
2.83650,126.6686435
2.83700,137.0452533
2.83750,148.032252
2.83800,174.2789711
2.83850,204.7984118
2.83900,214.2594385
2.83950,198.9997181
2.84000,175.1945543
2.84050,149.2530296
2.84100,110.4933399
2.84150,56.77912411
2.84200,4.285685988
2.84250,-30.20128208
2.84300,-46.37658569
2.84350,-47.90255773
2.84400,-32.94803175
2.84450,-3.649368612
2.84500,23.81812808
2.84550,31.44798827
2.84600,15.88307348
2.84650,-9.142867951
2.84700,-28.98050445
2.84750,-39.66230872
2.84800,-50.03891858
2.84850,-68.65577745
2.84900,-91.85055244
2.84950,-105.5843008
2.85000,-97.95444059
2.85050,-72.01291594
2.85100,-45.76619688
2.85150,-37.22075346
2.85200,-46.6817801
2.85250,-54.6168347
2.85300,-40.57789194
2.85350,-2.733785389
2.85400,41.21420932
2.85450,79.05831587
2.85500,109.2725622
2.85550,130.6361708
2.85600,137.0452533
2.85650,130.9413652
2.85700,131.2465596
2.85750,152.3049737
2.85800,180.3828592
2.85850,190.1490803
2.85900,173.3633879
2.85950,143.4543359
2.86000,113.5452839
2.86050,90.04531455
2.86100,78.44792706
2.86150,78.75312147
2.86200,75.39598298
2.86250,49.14926392
2.86300,1.844130726
2.86350,-49.12333536
2.86400,-95.20769092
2.86450,-137.0193248
2.86500,-164.4868215
2.86550,-158.9933221
2.86600,-124.8115485
2.86650,-94.59730211
2.86700,-90.01938599
2.86750,-94.90249651
2.86800,-77.20122087
2.86850,-28.98050445
2.86900,30.83759946
2.86950,82.41545436
2.87000,119.9543665
2.87050,143.4543359
2.87100,148.3374464
2.87150,134.9088925
2.87200,119.0387833
2.87250,120.2595609
2.87300,135.5192813
2.87350,141.0127806
2.87400,120.5647553
2.87450,82.41545436
2.87500,39.99343169
2.87550,-10.66883999
2.87600,-75.06486001
2.87650,-133.0517975
2.87700,-155.9413781
2.87750,-147.3959346
2.87800,-138.8504912
2.87850,-142.5128241
2.87900,-136.1037416
2.87950,-100.7011903
2.88000,-47.90255773
2.88050,0.01296428019
2.88100,35.72070998
2.88150,60.74665141
2.88200,74.17520535
2.88250,77.53234384
2.88300,73.87001094
2.88350,58.91548497
2.88400,28.7012386
2.88450,1.233741911
2.88500,4.285685988
2.88550,33.58434913
2.88600,51.59081918
2.88650,40.90901491
2.88700,29.61682183
2.88750,45.48693103
2.88800,75.70117739
2.88850,88.51934251
2.88900,81.80506554
2.88950,76.92195502
2.89000,80.58428791
2.89050,79.9738991
2.89100,66.85053957
2.89150,46.09731984
2.89200,22.29215604
2.89250,-4.564951835
2.89300,-32.94803175
2.89350,-56.75319555
2.89400,-74.75966561
2.89450,-87.27263632
2.89500,-89.71419158
2.89550,-77.81160968
2.89600,-57.36358437
2.89650,-42.10386398
2.89700,-35.69478142
2.89750,-27.75972682
2.89800,-6.396118282
2.89850,25.03890571
2.89900,50.67523596
2.89950,61.05184582
2.90000,63.49340108
2.90050,67.46092838
2.90100,66.85053957
2.90150,51.28562477
2.90200,28.7012386
2.90250,19.24021197
2.90300,29.61682183
2.90350,48.2336807
2.90400,69.29209483
2.90450,96.45439711
2.90500,120.5647553
2.90550,123.9218938
2.90600,113.2400895
2.90650,120.2595609
2.90700,152.9153625
2.90750,177.941304
2.90800,167.5646941
2.90850,136.4348645
2.90900,106.2206182
2.90950,67.15573397
2.91000,10.99996296
2.91050,-32.03244853
2.91100,-31.72725412
2.91150,-9.753256766
2.91200,-11.88961762
2.91250,-38.13633668
2.91300,-45.76619688
2.91350,-20.12986663
2.91400,9.473990919
2.91450,19.24021197
2.91500,17.10385111
2.91550,13.74671263
2.91600,2.75971395
2.91650,-17.07792255
2.91700,-32.03244853
2.91750,-37.83114227
2.91800,-47.90255773
2.91850,-66.5194166
2.91900,-71.70772153
2.91950,-47.59736332
2.92000,-6.396118282
2.92050,28.09084979
2.92100,48.2336807
2.92150,57.69470734
2.92200,53.11679122
2.92250,28.7012386
2.92300,-11.58442321
2.92350,-54.00644588
2.92400,-82.69472021
2.92450,-88.49341395
2.92500,-75.98044324
2.92550,-59.80513963
2.92600,-46.07139128
2.92650,-18.909089
2.92700,37.85707084
2.92750,106.2206182
2.92800,144.3699191
2.92850,139.4868086
2.92900,124.2270882
2.92950,127.8894211
2.93000,135.2140869
2.93050,112.9348951
2.93100,59.52587378
2.93150,1.844130726
2.93200,-43.01944721
2.93250,-77.20122087
