type,name,time_units,begin_time,frequency,count,units
signal_4d,"Noraxon MyoMotion-Segments-Upper arm RT-Orientation","s",0.0000,200,5088,""

time,x,y,z,w
0.0000,-0.0665149152,-0.6318894797,-0.7712758471,0.03774942525
0.0050,-0.06659291275,-0.6319076246,-0.771255672,0.03772036993
0.0100,-0.06667090976,-0.6319257647,-0.771235491,0.03769131435
0.0150,-0.06674890622,-0.6319438999,-0.7712153041,0.03766225851
0.0200,-0.06684232669,-0.6319635568,-0.7711928683,0.03762613507
0.0250,-0.06695217417,-0.6319847103,-0.7711681475,0.03758218579
0.0300,-0.06707914665,-0.6320073622,-0.7711411055,0.03752968908
0.0350,-0.0672235798,-0.6320315483,-0.7711117057,0.03746798208
0.0400,-0.06738540806,-0.6320573373,-0.7710799129,0.03739648548
0.0450,-0.06756413931,-0.6320848253,-0.7710457003,0.03731472502
0.0500,-0.06775884644,-0.6321141252,-0.7710090585,0.03722234899
0.0550,-0.06796818187,-0.6321453579,-0.7709700001,0.03711915428
0.0600,-0.06819041215,-0.6321786463,-0.7709285622,0.03700512015
0.0650,-0.06842346456,-0.6322141069,-0.7708848074,0.03688043201
0.0700,-0.06866497898,-0.6322518429,-0.7708388268,0.03674548785
0.0750,-0.06891236933,-0.6322919372,-0.7707907408,0.03660089472
0.0800,-0.06916290025,-0.6323344455,-0.7707406988,0.036447461
0.0850,-0.06941376949,-0.6323793865,-0.7706888822,0.03628618259
0.0900,-0.06966218339,-0.6324267284,-0.7706355089,0.03611822041
0.0950,-0.06990542367,-0.6324763781,-0.7705808387,0.03594487455
0.1000,-0.07014091126,-0.632528177,-0.7705251712,0.03576756073
0.1050,-0.07036626881,-0.6325819011,-0.7704688418,0.03558778576
0.1100,-0.07057937503,-0.63263726,-0.7704122175,0.03540712207
0.1150,-0.07077840325,-0.6326939,-0.7703556919,0.03522718385
0.1200,-0.07096184473,-0.6327514141,-0.7702996754,0.03504960285
0.1250,-0.07112852057,-0.6328093514,-0.7702445863,0.03487600287
0.1300,-0.0712775821,-0.6328672222,-0.7701908479,0.03470797044
0.1350,-0.07140849926,-0.6329245042,-0.7701388847,0.03454701991
0.1400,-0.07152104402,-0.6329806564,-0.7700891138,0.03439455899
0.1450,-0.07161527655,-0.6330351432,-0.7700419273,0.03425185857
0.1500,-0.07169153581,-0.6330874634,-0.7699976698,0.03412002016
0.1550,-0.07184895619,-0.6331916046,-0.7699069495,0.03390292855
0.1600,-0.07198995076,-0.633293207,-0.7698191448,0.03369933659
0.1650,-0.07211646308,-0.6333910021,-0.7697351699,0.03350854341
0.1700,-0.07222924378,-0.633485424,-0.7696546714,0.03332927805
0.1750,-0.07232986372,-0.633577236,-0.7695767967,0.03316369648
0.1800,-0.07241925312,-0.6336653401,-0.76950241,0.0330110503
0.1850,-0.07249795434,-0.633750896,-0.7694305735,0.03287006112
0.1900,-0.07256846917,-0.6338333854,-0.7693615119,0.03274020314
0.1950,-0.07263193545,-0.6339127881,-0.7692951024,0.03262245435
0.2000,-0.07268832586,-0.6339899559,-0.7692307883,0.0325136498
0.2050,-0.07273848966,-0.6340640429,-0.7691692496,0.03241245388
0.2100,-0.07278272358,-0.6341363358,-0.7691093915,0.03231913649
0.2150,-0.07282277213,-0.6342057596,-0.7690518708,0.03223535966
0.2200,-0.07285756079,-0.6342727189,-0.7689965801,0.0321582612
0.2250,-0.07288720601,-0.6343380249,-0.7689427737,0.03208950062
0.2300,-0.07291036926,-0.6344008124,-0.7688913294,0.03202828179
0.2350,-0.07292880427,-0.6344623741,-0.768840987,0.03197533563
0.2400,-0.07294110758,-0.6345225078,-0.7687921018,0.03192939426
0.2450,-0.07294780277,-0.6345813812,-0.7687444948,0.03189028782
0.2500,-0.07294761686,-0.6346387827,-0.7686984919,0.03185732773
0.2550,-0.07294120795,-0.6346955157,-0.7686533945,0.03182988488
0.2600,-0.07292842441,-0.6347506105,-0.7686100433,0.03180736887
0.2650,-0.07290941895,-0.6348054155,-0.7685673133,0.03178971461
0.2700,-0.07288650174,-0.6348595449,-0.7685253518,0.03177577203
0.2750,-0.07285971917,-0.6349142456,-0.768483144,0.03176506551
0.2800,-0.07283155245,-0.634968584,-0.7684412342,0.03175739087
0.2850,-0.07280157835,-0.6350228835,-0.7683994428,0.03175159621
0.2900,-0.07277171846,-0.6350767191,-0.7683580283,0.03174552286
0.2950,-0.07274222425,-0.6351298348,-0.7683172493,0.03173745728
0.3000,-0.07271402452,-0.6351823136,-0.7682769533,0.03172731082
0.3050,-0.07268885798,-0.6352343118,-0.7682368927,0.03171396889
0.3100,-0.07266694334,-0.6352870317,-0.7681960702,0.03169700852
0.3150,-0.0726493782,-0.6353394267,-0.7681553075,0.03167497886
0.3200,-0.07263323897,-0.6353914685,-0.7681148689,0.03164873648
0.3250,-0.07262167389,-0.6354437011,-0.768074078,0.03161654397
0.3300,-0.07261338678,-0.6354953951,-0.7680335764,0.03158044327
0.3350,-0.07260826632,-0.6355476499,-0.7679925206,0.03153906601
0.3400,-0.07260525557,-0.6355991479,-0.7679520277,0.03149417829
0.3450,-0.07260254094,-0.6356504897,-0.7679118384,0.0314441464
0.3500,-0.07260093231,-0.6357019101,-0.7678715579,0.03139198566
0.3550,-0.07259873836,-0.6357533455,-0.7678314177,0.03133721354
0.3600,-0.07259604462,-0.635804001,-0.7677920665,0.0312798537
0.3650,-0.07259071085,-0.6358539211,-0.7677536327,0.03122081382
0.3700,-0.07258413499,-0.6359028857,-0.7677161719,0.03115995383
0.3750,-0.07257594165,-0.6359507539,-0.7676798457,0.03109703909
0.3800,-0.07256544271,-0.635997382,-0.7676447922,0.03103320117
0.3850,-0.07255405519,-0.6360427355,-0.7676109514,0.0309673208
0.3900,-0.07254323422,-0.6360860105,-0.7675788775,0.03089875656
0.3950,-0.07253347798,-0.6361275807,-0.767548202,0.03082780061
0.4000,-0.07252645209,-0.6361677211,-0.7675184905,0.03075566969
0.4050,-0.07252339255,-0.6362051261,-0.7674907252,0.03068194396
0.4100,-0.0725263999,-0.6362407843,-0.7674639451,0.03060520687
0.4150,-0.07253630691,-0.636274997,-0.7674378928,0.03052364816
0.4200,-0.07255469131,-0.6363058735,-0.767414022,0.03043634226
0.4250,-0.07258138484,-0.6363348344,-0.7673910956,0.03034513872
0.4300,-0.07261911569,-0.636360502,-0.7673700045,0.0302498226
0.4350,-0.07266686832,-0.6363844531,-0.7673495499,0.03014999881
0.4400,-0.0727265217,-0.6364064921,-0.7673297253,0.03004534038
0.4450,-0.07279665648,-0.6364248916,-0.7673120232,0.0299376554
0.4500,-0.07287809304,-0.6364412953,-0.7672949785,0.02982745458
0.4550,-0.07296803033,-0.636456344,-0.7672782774,0.02971588254
0.4600,-0.07306757422,-0.6364683476,-0.7672631727,0.02960398492
0.4650,-0.07317377588,-0.6364785469,-0.7672489023,0.02949202978
0.4700,-0.07328711005,-0.6364858376,-0.7672362734,0.02938160687
0.4750,-0.07340541561,-0.6364915858,-0.7672243914,0.02927182116
0.4800,-0.07352915866,-0.6364946912,-0.7672140672,0.02916412112
0.4850,-0.07365666932,-0.636495334,-0.7672052579,0.02905988844
0.4900,-0.07378771155,-0.636494053,-0.7671975614,0.02895852107
0.4950,-0.07392140503,-0.6364914975,-0.7671904949,0.02886076814
0.5000,-0.07405678368,-0.6364873215,-0.7671844178,0.0287671938
0.5050,-0.07419628982,-0.6364819377,-0.7671786913,0.02867942257
0.5100,-0.0743376094,-0.6364762188,-0.767172851,0.02859649171
0.5150,-0.07448204223,-0.6364709027,-0.7671662156,0.02851689182
0.5200,-0.07462981049,-0.6364661195,-0.7671585608,0.02844314902
0.5250,-0.07477933843,-0.6364609904,-0.767150822,0.02837383535
0.5300,-0.07493043278,-0.6364576349,-0.7671412768,0.02830848988
0.5350,-0.07508233695,-0.6364550437,-0.7671307749,0.02824879115
0.5400,-0.07523427313,-0.6364547104,-0.7671181485,0.02819489183
0.5450,-0.07538557941,-0.6364552618,-0.7671046357,0.02814590596
0.5500,-0.07553485472,-0.6364580625,-0.7670891791,0.02810359079
0.5550,-0.07568186441,-0.6364637979,-0.7670712429,0.02806773451
0.5600,-0.07582503881,-0.6364722974,-0.767051175,0.02803699575
0.5650,-0.07596510737,-0.636483642,-0.767028847,0.02801113827
0.5700,-0.07609938081,-0.636497415,-0.7670048261,0.02799145726
0.5750,-0.07622758361,-0.6365143847,-0.7669785186,0.02797759043
0.5800,-0.07634817077,-0.6365352685,-0.7669494826,0.02796962659
0.5850,-0.07646261881,-0.6365599259,-0.7669177089,0.02796705997
0.5900,-0.0765682777,-0.6365884593,-0.7668833304,0.02797123296
0.5950,-0.07666578279,-0.6366213318,-0.7668458576,0.02798335997
0.6000,-0.07675476158,-0.6366591731,-0.7668048047,0.02800348972
0.6050,-0.07683326549,-0.6367013929,-0.766760856,0.02803168358
0.6100,-0.07690223136,-0.6367479701,-0.7667139388,0.02806787215
0.6150,-0.07696170904,-0.6367994304,-0.7666636112,0.02811206213
0.6200,-0.07701367915,-0.6368557623,-0.7666097217,0.02816320033
0.6250,-0.07705628149,-0.6369174877,-0.7665520152,0.02822146845
0.6300,-0.07709129089,-0.6369841442,-0.7664907693,0.02828486272
0.6350,-0.07711919189,-0.637055622,-0.7664260336,0.02835312551
0.6400,-0.07713955852,-0.6371325431,-0.7663573217,0.02842650958
0.6450,-0.07715360286,-0.6372142122,-0.7662850933,0.02850482783
0.6500,-0.0771604123,-0.6373011737,-0.7662090614,0.02858599272
0.6550,-0.07716091594,-0.6373926633,-0.7661296951,0.0286718682
0.6600,-0.07715397022,-0.6374892426,-0.7660467172,0.02876034819
0.6650,-0.07714031432,-0.6375905342,-0.7659603449,0.02885190789
0.6700,-0.077119394,-0.6376969844,-0.7658702452,0.02894689356
0.6750,-0.07709238748,-0.6378089546,-0.7657760011,0.02904509303
0.6800,-0.07705878342,-0.637925702,-0.765678286,0.0291462678
0.6850,-0.07701767367,-0.6380476012,-0.7655768254,0.02925168326
0.6900,-0.07696821598,-0.6381756913,-0.7654708218,0.02936156993
0.6950,-0.07691134551,-0.6383081846,-0.7653617165,0.02947455358
0.7000,-0.07684632306,-0.638445694,-0.7652490955,0.02958986832
0.7050,-0.07677467468,-0.6385880322,-0.7651329398,0.02970789105
0.7100,-0.0766952815,-0.6387351909,-0.7650133613,0.02982862302
0.7150,-0.0766095447,-0.6388858224,-0.7648912344,0.02995468395
0.7200,-0.07651755526,-0.639040967,-0.7647656025,0.03008786224
0.7250,-0.07641828809,-0.6392012893,-0.7646360871,0.03022600568
0.7300,-0.07631267672,-0.6393666616,-0.7645026525,0.03037007933
0.7350,-0.0762013647,-0.6395359573,-0.7643661297,0.03052099569
0.7400,-0.07608434655,-0.6397087089,-0.7642269218,0.03067820124
0.7450,-0.07596174882,-0.639885925,-0.7640841372,0.03084229178
0.7500,-0.07583236401,-0.6400672446,-0.7639382521,0.03101164081
0.7550,-0.07569802273,-0.6402526135,-0.7637891045,0.03118660266
0.7600,-0.07555745338,-0.6404431669,-0.7636357984,0.03136859087
0.7650,-0.07541137884,-0.6406383279,-0.7634787202,0.031557893
0.7700,-0.07525769326,-0.6408399636,-0.763316504,0.03175429691
0.7750,-0.07509751297,-0.6410463291,-0.7631504565,0.03195854027
0.7800,-0.0749280886,-0.6412582138,-0.7629801982,0.0321698926
0.7850,-0.07474923945,-0.6414767156,-0.7628047678,0.03238920736
0.7900,-0.0745589957,-0.641701578,-0.7626246266,0.03261472035
0.7950,-0.07435685178,-0.6419328469,-0.76243964,0.03284926167
0.8000,-0.07414135356,-0.6421706535,-0.7622498176,0.0330927022
0.8050,-0.07390877182,-0.6424153345,-0.7620552119,0.03334494487
0.8100,-0.07365808014,-0.6426647705,-0.7618576589,0.03360636161
0.8150,-0.07338798616,-0.6429196534,-0.761656602,0.03387836238
0.8200,-0.07309677673,-0.6431801211,-0.7614520529,0.03416085846
0.8250,-0.07278398371,-0.6434475054,-0.7612429178,0.03445315134
0.8300,-0.07244893627,-0.643720731,-0.7610300885,0.0347559571
0.8350,-0.07209145591,-0.6439993977,-0.7608139556,0.0350674028
0.8400,-0.0717108814,-0.6442847015,-0.7605934925,0.0353880222
0.8450,-0.07130675868,-0.6445767013,-0.7603686121,0.03571828631
0.8500,-0.07087873579,-0.644874973,-0.7601396815,0.03605743559
0.8550,-0.07042601898,-0.6451791096,-0.7599070269,0.03640608416
0.8600,-0.06994913932,-0.6454897206,-0.7596700368,0.03676375456
0.8650,-0.06944724827,-0.6458063178,-0.7594290434,0.03713230059
0.8700,-0.06892013306,-0.6461291678,-0.7591839014,0.03750890057
0.8750,-0.06836726123,-0.6464584017,-0.7589344421,0.03789412989
0.8800,-0.06779054099,-0.6467940017,-0.7586805006,0.03828655031
0.8850,-0.06718909907,-0.6471356181,-0.7584223297,0.03868703415
0.8900,-0.06656391872,-0.6474844796,-0.758158839,0.03909307178
0.8950,-0.06591554444,-0.6478395739,-0.7578908205,0.03950356488
0.9000,-0.06524514717,-0.6482009355,-0.7576181955,0.0399160094
0.9050,-0.06455429953,-0.6485679816,-0.7573413066,0.04032940499
0.9100,-0.0638442452,-0.6489404904,-0.7570601858,0.04074343235
0.9150,-0.06311464567,-0.6493182219,-0.7567749831,0.04115839208
0.9200,-0.06236609813,-0.6497014973,-0.7564853916,0.04157266547
0.9250,-0.06160031321,-0.6500882606,-0.7561929962,0.04198579904
0.9300,-0.06081749544,-0.6504796835,-0.7558966953,0.04239810798
0.9350,-0.06001836158,-0.6508741922,-0.7555977317,0.04280946119
0.9400,-0.0592046857,-0.6512711797,-0.7552963699,0.04322093497
0.9450,-0.05837727615,-0.6516711962,-0.7549920032,0.04363279515
0.9500,-0.05753749784,-0.6520732033,-0.7546853809,0.04404486053
0.9550,-0.05668587016,-0.6524761424,-0.7543772781,0.04445804721
0.9600,-0.05582453493,-0.6528799528,-0.7540673869,0.04487498739
0.9650,-0.0549540459,-0.6532843359,-0.7537558763,0.04529578553
0.9700,-0.05407765246,-0.6536878048,-0.7534437249,0.04572105436
0.9750,-0.05319458136,-0.6540907077,-0.7531306647,0.04615067136
0.9800,-0.05230908833,-0.6544916046,-0.7528175117,0.0465864019
0.9850,-0.05142176193,-0.6548905197,-0.7525042938,0.04702655991
0.9900,-0.05053530325,-0.6552866903,-0.7521913899,0.04747261946
0.9950,-0.04965111837,-0.6556806815,-0.7518781911,0.04792490161
1.0000,-0.04877019239,-0.6560724409,-0.7515646155,0.0483843906
1.0050,-0.04789420603,-0.6564604338,-0.7512518499,0.04885183593
1.0100,-0.04702480192,-0.6568452618,-0.7509392156,0.04932813161
1.0150,-0.04616177366,-0.6572272931,-0.7506265296,0.04981153351
1.0200,-0.04530686692,-0.6576072063,-0.7503130182,0.0503033279
1.0250,-0.04446175303,-0.6579839922,-0.7499993308,0.05080573213
1.0300,-0.04362580585,-0.6583574796,-0.7496857264,0.05131792836
1.0350,-0.0427998727,-0.658727963,-0.7493719405,0.05183952625
1.0400,-0.04198319187,-0.6590961275,-0.7490572071,0.05237372364
1.0450,-0.04117687307,-0.659462439,-0.7487412013,0.05291852376
1.0500,-0.0403812053,-0.6598254444,-0.7484250528,0.05347599048
1.0550,-0.03959523719,-0.6601861655,-0.7481080032,0.0540449776
1.0600,-0.038819218,-0.6605443648,-0.7477902618,0.05462540504
1.0650,-0.03805273273,-0.6608994591,-0.7474725158,0.05521532995
1.0700,-0.03729619769,-0.6612509876,-0.7471550398,0.05581640817
1.0750,-0.03654927044,-0.6615992248,-0.7468376235,0.05642854578
1.0800,-0.03581235135,-0.6619442248,-0.7465201771,0.05705211519
1.0850,-0.03508481005,-0.6622849953,-0.7462036788,0.05768631505
1.0900,-0.03436699157,-0.662621378,-0.7458881037,0.05833314757
1.0950,-0.03365878853,-0.6629529232,-0.745574145,0.05898899804
1.1000,-0.03296014067,-0.6632793352,-0.7452619801,0.05965512261
1.1050,-0.0322713758,-0.663600536,-0.7449518693,0.06032909252
1.1100,-0.03159438657,-0.6639173234,-0.7446431126,0.06100997702
1.1150,-0.03092755264,-0.6642289148,-0.7443366276,0.06169619184
1.1200,-0.030271705,-0.6645350534,-0.7440328078,0.06238563572
1.1250,-0.02962864513,-0.6648343278,-0.7437329705,0.06307716276
1.1300,-0.02899915589,-0.6651279778,-0.7434360966,0.06376983877
1.1350,-0.02838079953,-0.6654151607,-0.743143074,0.06446367767
1.1400,-0.02777330118,-0.6656939989,-0.7428558073,0.06515668116
1.1450,-0.02717563013,-0.6659658459,-0.7425731958,0.06584850953
1.1500,-0.02658742875,-0.6662288681,-0.7422971037,0.06653731091
1.1550,-0.0260062512,-0.6664832841,-0.7420274336,0.06722346873
1.1600,-0.02543108921,-0.6667289349,-0.7417645186,0.06790571388
1.1650,-0.02485996835,-0.6669657177,-0.741508753,0.06858194168
1.1700,-0.0242918391,-0.6671938656,-0.7412598338,0.06925396097
1.1750,-0.02372628391,-0.6674127357,-0.7410185393,0.06992015556
1.1800,-0.02316178247,-0.6676223105,-0.7407851177,0.07057897577
1.1850,-0.02259789836,-0.667822516,-0.7405597394,0.07122987067
1.1900,-0.02203613151,-0.6680128913,-0.7403429629,0.07187129607
1.1950,-0.02147654455,-0.6681944704,-0.7401338693,0.07250353993
1.2000,-0.0209181356,-0.6683672548,-0.7399324012,0.07312787447
1.2050,-0.02036040251,-0.668531529,-0.739738554,0.07374225714
1.2100,-0.01980492048,-0.6686859198,-0.7395536567,0.07434577779
1.2150,-0.01925065352,-0.6688317956,-0.7393765658,0.07493821153
1.2200,-0.01869870291,-0.6689679022,-0.7392085404,0.07551846219
1.2250,-0.01814846251,-0.6690951122,-0.7390487116,0.07608788311
1.2300,-0.01759904312,-0.6692121114,-0.7388982182,0.0766475492
1.2350,-0.01704946378,-0.6693199367,-0.7387562732,0.07719654799
1.2400,-0.01649773653,-0.6694180634,-0.7386235364,0.0777338565
1.2450,-0.01594343655,-0.669506867,-0.7384996406,0.07826009674
1.2500,-0.01538665229,-0.6695860426,-0.7383846563,0.07877741903
1.2550,-0.01482547076,-0.669656457,-0.7382778358,0.07928601565
1.2600,-0.01426045854,-0.6697184295,-0.7381789237,0.07978559488
1.2650,-0.01369115618,-0.6697717227,-0.7380881992,0.08027578678
1.2700,-0.01311566628,-0.6698178963,-0.7380040234,0.0807590643
1.2750,-0.01253506063,-0.6698553973,-0.7379276635,0.08123658294
1.2800,-0.01194787073,-0.6698865158,-0.7378571077,0.08170797309
1.2850,-0.01135491807,-0.6699100584,-0.7377932419,0.08217488472
1.2900,-0.01075649936,-0.6699270975,-0.7377349896,0.08263816858
1.2950,-0.01015232052,-0.6699375424,-0.7376824291,0.08309785502
1.3000,-0.009543711158,-0.6699408094,-0.7376360529,0.08355407207
1.3050,-0.008931254968,-0.6699380105,-0.7375950558,0.08400493113
1.3100,-0.008315801565,-0.6699279295,-0.737560546,0.08445032698
1.3150,-0.00769938103,-0.6699109136,-0.7375322177,0.08489001792
1.3200,-0.007083176768,-0.6698856368,-0.7375113131,0.0853236499
1.3250,-0.006469449543,-0.6698522862,-0.7374976876,0.085750928
1.3300,-0.005859342372,-0.6698105516,-0.7374916944,0.0861713047
1.3350,-0.005254556736,-0.6697599166,-0.7374937786,0.08658504629
1.3400,-0.004654988815,-0.6697000985,-0.737504404,0.08699059252
1.3450,-0.004061946073,-0.6696306129,-0.7375240048,0.08738812911
1.3500,-0.003475978981,-0.6695515496,-0.7375524455,0.0877783015
1.3550,-0.002897572235,-0.66946238,-0.7375900039,0.08816298596
1.3600,-0.002326357423,-0.6693629528,-0.7376369234,0.08854148583
1.3650,-0.001763959711,-0.6692534931,-0.737692721,0.08891625183
1.3700,-0.001208828213,-0.6691335248,-0.7377579094,0.08928679499
1.3750,-0.0006603620528,-0.6690043226,-0.7378314007,0.08965268775
1.3800,-0.0001190519844,-0.6688671484,-0.7379119726,0.0900146898
1.3850,0.0004130296693,-0.6687213295,-0.7380002385,0.09037289843
1.3900,0.0009357198438,-0.6685685761,-0.7380948908,0.090725496
1.3950,0.001447724701,-0.6684089198,-0.7381959221,0.09107250151
1.4000,0.001948076222,-0.6682435055,-0.7383023783,0.09141345998
1.4050,0.002433140097,-0.668072351,-0.7384142838,0.09174834638
1.4100,0.002903792789,-0.6678963573,-0.7385306718,0.09207861132
1.4150,0.00335984616,-0.6677149943,-0.738652155,0.09240341865
1.4200,0.003800590861,-0.6675290522,-0.7387779432,0.0927236256
1.4250,0.004227432356,-0.6673387985,-0.7389078475,0.09303896897
1.4300,0.004641824461,-0.6671426905,-0.7390431847,0.09335017492
1.4350,0.005041396148,-0.6669421366,-0.7391830219,0.09365484966
1.4400,0.005426808208,-0.6667372844,-0.7393267479,0.09395692139
1.4450,0.005795875119,-0.6665276164,-0.7394750026,0.09425531788
1.4500,0.006150149134,-0.6663140542,-0.7396268938,0.09455059375
1.4550,0.006486767644,-0.6660970504,-0.7397820419,0.09484287936
1.4600,0.006806972013,-0.6658763061,-0.7399405337,0.09513367836
1.4650,0.007109166995,-0.6656517696,-0.740102414,0.09542325821
1.4700,0.007392265216,-0.6654228971,-0.7402683203,0.0957106908
1.4750,0.007657798255,-0.6651895015,-0.7404382257,0.095997495
1.4800,0.00790481434,-0.6649516097,-0.7406121423,0.09628356741
1.4850,0.008134313883,-0.6647102676,-0.7407891247,0.09656896934
1.4900,0.008347243156,-0.6644642803,-0.7409700165,0.09685545071
1.4950,0.008543509097,-0.664213805,-0.7411548538,0.09714171291
1.5000,0.008721372698,-0.6639585768,-0.7413442709,0.09742493454
1.5050,0.008882005878,-0.6636992871,-0.7415372041,0.09770845017
1.5100,0.009028189046,-0.6634366702,-0.7417331985,0.09799050291
1.5150,0.009159426703,-0.6631705358,-0.7419323438,0.0982717792
1.5200,0.009277315771,-0.6629012259,-0.7421341364,0.09855363871
1.5250,0.009381848224,-0.6626285498,-0.7423387289,0.09883621584
1.5300,0.009473157288,-0.6623534653,-0.7425452675,0.09911948369
1.5350,0.009553922116,-0.662074969,-0.7427542482,0.09940616053
1.5400,0.009622346265,-0.661793397,-0.742965444,0.09969583309
1.5450,0.009680373653,-0.6615089691,-0.7431783724,0.09999040396
1.5500,0.009729522581,-0.6612215381,-0.7433931828,0.1002895289
1.5550,0.009767788678,-0.6609315478,-0.7436094717,0.1005934048
1.5600,0.009796700446,-0.6606378618,-0.7438282577,0.1009017505
1.5650,0.009817169978,-0.6603414949,-0.7440485666,0.101214939
1.5700,0.009828480857,-0.6600415579,-0.7442712619,0.1015324161
1.5750,0.009830727808,-0.6597386006,-0.7444956357,0.1018557024
1.5800,0.009824239409,-0.6594305734,-0.7447234847,0.1021848056
1.5850,0.009809296643,-0.6591198708,-0.7449527083,0.1025194422
1.5900,0.009785993189,-0.6588052417,-0.7451846305,0.1028579327
1.5950,0.009752798726,-0.6584872793,-0.7454185091,0.1032019001
1.6000,0.009709167342,-0.6581663557,-0.7456543643,0.1035487779
1.6050,0.009657044342,-0.6578428875,-0.7458915376,0.1039003898
1.6100,0.009595910705,-0.6575175807,-0.7461296498,0.1042549538
1.6150,0.009525339141,-0.6571903402,-0.7463686376,0.1046134858
1.6200,0.00944661676,-0.6568607052,-0.7466090926,0.1049744649
1.6250,0.009360238158,-0.6565293478,-0.7468507502,0.1053354561
1.6300,0.009266918504,-0.6561972244,-0.7470926732,0.1056970415
1.6350,0.00916761974,-0.6558638532,-0.7473355889,0.1060569581
1.6400,0.009061990323,-0.6555286133,-0.7475801263,0.106414624
1.6450,0.008951456452,-0.6551923567,-0.747825366,0.106771106
1.6500,0.008836589224,-0.6548555657,-0.7480709843,0.1071256521
1.6550,0.008719548275,-0.6545177271,-0.7483177047,0.1074761704
1.6600,0.008599960417,-0.6541782406,-0.7485660304,0.1078228566
1.6650,0.008480392617,-0.653838184,-0.748815201,0.1081642582
1.6700,0.008361719502,-0.6534974885,-0.7490652963,0.1085002125
1.6750,0.008243568005,-0.6531555534,-0.7493168841,0.1088304819
1.6800,0.008127373514,-0.652811361,-0.7495710503,0.1091536221
1.6850,0.008013842725,-0.6524659782,-0.7498267506,0.1094704051
1.6900,0.007904339683,-0.6521186648,-0.7500844724,0.1097818415
1.6950,0.007799527728,-0.6517697584,-0.750343712,0.1100893427
1.7000,0.007699437346,-0.65141932,-0.75060459,0.1103917463
1.7050,0.007606583071,-0.6510662556,-0.7508680154,0.1106891783
1.7100,0.007520937419,-0.6507117646,-0.7511331173,0.1109805164
1.7150,0.007439878081,-0.6503562516,-0.751399464,0.1112665258
1.7200,0.007363538115,-0.6500005342,-0.7516666456,0.1115452273
1.7250,0.007289559253,-0.6496456027,-0.7519335656,0.1118184518
1.7300,0.007216787787,-0.6492918524,-0.7522003586,0.1120831334
1.7350,0.007145133819,-0.6489396033,-0.7524662798,0.1123424948
1.7400,0.007072736198,-0.6485894767,-0.7527314115,0.112592581
1.7450,0.007002263091,-0.6482397602,-0.7529970574,0.1128344503
1.7500,0.006932481313,-0.647891755,-0.7532621218,0.113068078
1.7550,0.006862662074,-0.647544573,-0.7535274514,0.1132930262
1.7600,0.006793621729,-0.6471983737,-0.7537928922,0.1135094152
1.7650,0.006725590289,-0.6468531641,-0.7540583112,0.1137181335
1.7700,0.006660846265,-0.6465094939,-0.754322967,0.1139208889
1.7750,0.006598115583,-0.6461677737,-0.7545868133,0.1141157935
1.7800,0.006539039975,-0.6458271858,-0.7548499052,0.1143070762
1.7850,0.006483716609,-0.64548772,-0.7551121204,0.1144956345
1.7900,0.006432315798,-0.6451506593,-0.7553722818,0.1146820303
1.7950,0.006385893717,-0.6448153703,-0.7556307853,0.1148672054
1.8000,0.006346055912,-0.6444816945,-0.7558872848,0.1150542726
1.8050,0.006312440863,-0.6441499693,-0.7561416637,0.1152421564
1.8100,0.006284021271,-0.6438207004,-0.7563933562,0.1154318303
1.8150,0.006259264684,-0.6434929558,-0.7566431607,0.1156233747
1.8200,0.006239048298,-0.6431660143,-0.7568912573,0.1158195877
1.8250,0.006223246745,-0.6428411442,-0.7571364822,0.1160210404
1.8300,0.006212063662,-0.6425168801,-0.7573802013,0.1162269322
1.8350,0.006202592448,-0.6421939764,-0.7576218012,0.1164372401
1.8400,0.006194891995,-0.641874225,-0.7578596465,0.1166527276
1.8450,0.00618777611,-0.6415550264,-0.7580960009,0.1168730636
1.8500,0.006180040567,-0.641237798,-0.758329911,0.1170967103
1.8550,0.006171298421,-0.6409219522,-0.7585618013,0.1173241659
1.8600,0.006160202085,-0.6406087346,-0.7587906319,0.117555425
1.8650,0.006144260845,-0.64029685,-0.7590173438,0.1177916113
1.8700,0.006122110332,-0.6399868164,-0.7592416582,0.1180317716
1.8750,0.006094951814,-0.6396783229,-0.7594638731,0.1182756118
1.8800,0.006060628733,-0.6393728266,-0.7596828018,0.1185229853
1.8850,0.006018552325,-0.6390678537,-0.7599006353,0.118773229
1.8900,0.005968250835,-0.6387645851,-0.7601162805,0.119026992
1.8950,0.005909402243,-0.6384623064,-0.7603305926,0.1192826566
1.9000,0.005843230428,-0.6381603467,-0.7605437805,0.1195424046
1.9050,0.005767538602,-0.6378578875,-0.7607567543,0.1198048894
1.9100,0.005683309436,-0.6375545531,-0.7609697351,0.1200706212
1.9150,0.005590533374,-0.6372494961,-0.7611836194,0.1203383691
1.9200,0.005488740473,-0.6369433381,-0.7613978196,0.1206085326
1.9250,0.005378583212,-0.6366351957,-0.7616130505,0.1208811805
1.9300,0.005259145059,-0.6363240157,-0.7618301872,0.1211563213
1.9350,0.005131253541,-0.6360112102,-0.7620480273,0.1214339939
1.9400,0.004994130635,-0.6356964308,-0.762267015,0.1217132055
1.9450,0.004849603206,-0.6353777308,-0.7624888601,0.1219932734
1.9500,0.004696458431,-0.6350548221,-0.7627138735,0.122273723
1.9550,0.004535044004,-0.6347279478,-0.7629416844,0.1225555051
1.9600,0.004366701121,-0.6343959499,-0.7631733975,0.1228376
1.9650,0.004191626673,-0.6340578222,-0.7634093306,0.1231231186
1.9700,0.004010033569,-0.6337142908,-0.7636490294,0.1234110092
1.9750,0.003821974734,-0.633365459,-0.7638923921,0.1237012577
1.9800,0.003627376701,-0.6330114978,-0.7641392623,0.1239938451
1.9850,0.00342709501,-0.6326533739,-0.7643891271,0.1242868694
1.9900,0.003219861094,-0.632290888,-0.7646421641,0.1245802003
1.9950,0.003004887748,-0.6319256719,-0.7648972554,0.1248723531
2.0000,0.002780800688,-0.631556861,-0.7651549409,0.1251643517
2.0050,0.002546282013,-0.6311863752,-0.7654135718,0.1254565277
2.0100,0.002301101012,-0.6308128821,-0.7656743619,0.1257480987
2.0150,0.002046214016,-0.6304369929,-0.7659364274,0.1260412634
2.0200,0.001781725221,-0.6300580186,-0.7662006174,0.1263342097
2.0250,0.001508855873,-0.6296754786,-0.7664672521,0.1266272734
2.0300,0.001228538635,-0.6292900714,-0.7667356423,0.1269210446
2.0350,0.0009417937535,-0.6289014516,-0.7670062716,0.1272142149
2.0400,0.000650186393,-0.6285105095,-0.7672781568,0.1275082225
2.0450,0.0003513777075,-0.6281179472,-0.7675507384,0.1278029142
2.0500,0.0000469734428,-0.6277229885,-0.7678245833,0.1280986213
2.0550,-0.0002602844863,-0.6273256903,-0.768099663,0.1283951642
2.0600,-0.0005713745253,-0.626926373,-0.7683756013,0.1286931691
2.0650,-0.0008851499961,-0.6265252084,-0.7686524086,0.128991684
2.0700,-0.001201175075,-0.6261220015,-0.7689302444,0.1292906637
2.0750,-0.001518502587,-0.6257160778,-0.7692096254,0.129590263
2.0800,-0.001836246407,-0.6253084382,-0.7694898474,0.1298897998
2.0850,-0.002154488064,-0.6248982178,-0.7697719844,0.1301870481
2.0900,-0.002470957947,-0.6244845111,-0.7700566228,0.1304829009
2.0950,-0.002786377879,-0.6240672669,-0.7703437215,0.1307778009
2.1000,-0.003099975324,-0.6236461242,-0.7706338912,0.1310698577
2.1050,-0.003412088586,-0.623222167,-0.7709261972,0.13135938
2.1100,-0.003722096522,-0.6227960393,-0.771220082,0.1316465896
2.1150,-0.004028428084,-0.622367941,-0.7715153686,0.1319316253
2.1200,-0.00433213649,-0.621939346,-0.7718110702,0.1322132913
2.1250,-0.004633370509,-0.6215100251,-0.7721075671,0.1324904733
2.1300,-0.004932351634,-0.6210811305,-0.7724035976,0.1327651447
2.1350,-0.005230308119,-0.620652455,-0.7726993566,0.1330371312
2.1400,-0.005526976228,-0.6202249634,-0.7729943209,0.1333050158
2.1450,-0.005823156241,-0.6197987838,-0.7732882779,0.1335694488
2.1500,-0.006119581637,-0.6193741674,-0.77358095,0.1338308834
2.1550,-0.006415463769,-0.618950847,-0.7738725736,0.1340892641
2.1600,-0.00671165217,-0.6185288198,-0.7741630057,0.134345426
2.1650,-0.007006866813,-0.6181094197,-0.7744511012,0.1345999293
2.1700,-0.0073003506,-0.6176918644,-0.7747376666,0.1348518207
2.1750,-0.007593844884,-0.6172769569,-0.7750219731,0.1351015664
2.1800,-0.007886623889,-0.6168636907,-0.775304951,0.1353485172
2.1850,-0.008177821453,-0.6164527698,-0.7755860269,0.1355928489
2.1900,-0.008468114644,-0.6160429769,-0.775866033,0.1358353433
2.1950,-0.008756514815,-0.6156344042,-0.7761450392,0.1360752808
2.2000,-0.009043526125,-0.6152264647,-0.7764235556,0.1363124136
2.2050,-0.009328013511,-0.6148201893,-0.7767005805,0.1365479084
2.2100,-0.009611960131,-0.6144147225,-0.7769765433,0.1367830766
2.2150,-0.009895288729,-0.6140116119,-0.7772503161,0.137017407
2.2200,-0.01017737176,-0.613609909,-0.7775230839,0.137248514
2.2250,-0.01045866384,-0.6132098668,-0.7777943409,0.1374781394
2.2300,-0.01073759412,-0.6128113478,-0.7780641114,0.1377069155
2.2350,-0.0110157315,-0.6124137237,-0.7783330838,0.1379336625
2.2400,-0.01129263133,-0.6120160494,-0.7786015466,0.138161005
2.2450,-0.01156932696,-0.6116194771,-0.7788687258,0.1383881277
2.2500,-0.01184478845,-0.6112239451,-0.7791345248,0.1386159519
2.2550,-0.01211864062,-0.6108285592,-0.7793995166,0.1388452498
2.2600,-0.01239038161,-0.6104344248,-0.7796629348,0.1390755174
2.2650,-0.01266162581,-0.6100420567,-0.7799246271,0.1393052342
2.2700,-0.01293302072,-0.6096505149,-0.7801850906,0.1395356983
2.2750,-0.01320274453,-0.6092599053,-0.7804441084,0.1397678394
2.2800,-0.01347297689,-0.6088695777,-0.780702422,0.1400001589
2.2850,-0.01374393949,-0.6084796316,-0.7809598176,0.1402333959
2.2900,-0.01401481315,-0.6080885522,-0.781217394,0.1404680781
2.2950,-0.01428527101,-0.6076954474,-0.7814758373,0.1407042638
2.3000,-0.01455543617,-0.6073014136,-0.7817347072,0.1409396318
2.3050,-0.01482539761,-0.60690563,-0.781994552,0.1411746593
2.3100,-0.01509628659,-0.6065083552,-0.7822551826,0.1414091459
2.3150,-0.01536861656,-0.6061089234,-0.7825172509,0.141642263
2.3200,-0.01564229781,-0.6057077596,-0.782780297,0.1418747161
2.3250,-0.01591773792,-0.6053042993,-0.7830448629,0.1421058532
2.3300,-0.01619434438,-0.6048989282,-0.7833105233,0.1423364113
2.3350,-0.01647234652,-0.604492548,-0.7835766828,0.1425657862
2.3400,-0.01675112283,-0.6040834344,-0.7838445335,0.1427947877
2.3450,-0.01702933937,-0.6036721198,-0.7841138571,0.1430224897
2.3500,-0.01730729269,-0.60325926,-0.7843837982,0.1432507592
2.3550,-0.01758585893,-0.6028443599,-0.7846545973,0.1434802362
2.3600,-0.01786369913,-0.6024279428,-0.7849260164,0.1437101623
2.3650,-0.0181405849,-0.6020095273,-0.7851981508,0.1439420449
2.3700,-0.01841823042,-0.6015905901,-0.7854697658,0.1441762039
2.3750,-0.01869542603,-0.60117067,-0.7857411332,0.1444132203
2.3800,-0.01897297771,-0.6007499996,-0.7860121488,0.1446525704
2.3850,-0.01925124026,-0.600328337,-0.7862824292,0.1448972709
2.3900,-0.01953047445,-0.599906035,-0.7865519177,0.1451461005
2.3950,-0.01980949786,-0.5994844002,-0.7868197469,0.1453984994
2.4000,-0.02008722658,-0.5990626415,-0.7870861137,0.1456568035
2.4050,-0.02036458706,-0.5986403359,-0.7873513057,0.1459210514
2.4100,-0.02064217272,-0.598216244,-0.7876161168,0.1461919241
2.4150,-0.02092007805,-0.5977917386,-0.7878798312,0.1464676044
2.4200,-0.02119897745,-0.5973657219,-0.788143197,0.1467484197
2.4250,-0.02148020732,-0.5969388723,-0.7884060061,0.1470324896
2.4300,-0.0217645595,-0.5965108249,-0.7886686638,0.1473189683
2.4350,-0.02205157726,-0.59608186,-0.7889309157,0.1476081106
2.4400,-0.02234169045,-0.5956496282,-0.7891942498,0.1479013367
2.4450,-0.0226349031,-0.5952159412,-0.7894575862,0.1481970451
2.4500,-0.02293077411,-0.5947798663,-0.7897212955,0.1484970227
2.4550,-0.0232297938,-0.5943424564,-0.789984606,0.1488010197
2.4600,-0.02353137695,-0.5939031279,-0.7902480531,0.1491085626
2.4650,-0.02383543092,-0.5934613747,-0.7905123631,0.1494177789
2.4700,-0.0241438996,-0.5930179395,-0.7907766638,0.1497299688
2.4750,-0.0244565635,-0.5925728196,-0.7910411241,0.1500442265
2.4800,-0.0247727906,-0.5921260495,-0.7913053641,0.1503624659
2.4850,-0.025095373,-0.5916780548,-0.7915691051,0.1506839526
2.4900,-0.0254234795,-0.5912292831,-0.7918320713,0.1510084512
2.4950,-0.02575782694,-0.5907793983,-0.7920943968,0.1513363917
2.5000,-0.02610045599,-0.5903283918,-0.7923560872,0.151667357
2.5050,-0.0264515246,-0.5898753774,-0.7926179398,0.1520005178
2.5100,-0.02681041286,-0.5894205957,-0.7928803018,0.1523331551
2.5150,-0.0271769759,-0.5889632892,-0.7931435887,0.1526659873
2.5200,-0.0275510302,-0.5885030807,-0.7934077143,0.1530008618
2.5250,-0.0279313191,-0.5880394358,-0.7936734917,0.1533357488
2.5300,-0.02831953291,-0.5875722499,-0.7939409568,0.1536704668
2.5350,-0.02871174544,-0.5871007245,-0.7942105522,0.1540064082
2.5400,-0.02910950836,-0.5866255912,-0.7944818988,0.1543423621
2.5450,-0.02951091167,-0.5861466956,-0.7947550504,0.1546789166
2.5500,-0.02991450644,-0.5856634337,-0.7950304756,0.1550161528
2.5550,-0.03032218903,-0.5851763059,-0.7953080725,0.1553522633
2.5600,-0.03073402391,-0.5846867696,-0.7955863692,0.1556892109
2.5650,-0.03114740872,-0.5841945909,-0.7958657917,0.1560261532
2.5700,-0.03156337752,-0.5836998886,-0.7961462204,0.1563630041
2.5750,-0.03198294064,-0.583202961,-0.7964274319,0.1566995325
2.5800,-0.0324046953,-0.5827039008,-0.7967091229,0.1570371718
2.5850,-0.03282788064,-0.5822034455,-0.7969905866,0.1573768824
2.5900,-0.03325295944,-0.5817019179,-0.797271761,0.1577176545
2.5950,-0.0336815045,-0.5811997165,-0.797552353,0.1580591344
2.6000,-0.03411225581,-0.5806982574,-0.7978312407,0.1584020176
2.6050,-0.03454585928,-0.5801955962,-0.7981095429,0.1587476342
2.6100,-0.03498330703,-0.5796934375,-0.7983863115,0.1590942627
2.6150,-0.03542433738,-0.5791923115,-0.7986611422,0.1594420351
2.6200,-0.03587071443,-0.5786903951,-0.7989353059,0.1597907863
2.6250,-0.03632105497,-0.5781881595,-0.7992083603,0.1601412811
2.6300,-0.03677542746,-0.5776856068,-0.7994804608,0.1604926806
2.6350,-0.03723499475,-0.5771810569,-0.7997526628,0.160845457
2.6400,-0.03770050469,-0.576677052,-0.8000234742,0.161197675
2.6450,-0.0381717272,-0.5761733946,-0.8002931628,0.1615487303
2.6500,-0.0386482412,-0.5756700776,-0.8005618979,0.1618978774
2.6550,-0.03912951977,-0.5751671467,-0.8008298028,0.1622444481
2.6600,-0.03961559395,-0.57466374,-0.8010972716,0.1625895203
2.6650,-0.04010536571,-0.5741600258,-0.8013644177,0.1629321773
2.6700,-0.04059726695,-0.5736556019,-0.8016316882,0.1632720085
2.6750,-0.04109338105,-0.5731509563,-0.8018983834,0.1636102015
2.6800,-0.04159161298,-0.5726465553,-0.8021643028,0.1639466123
2.6850,-0.04208999304,-0.57214298,-0.8024295341,0.1642792919
2.6900,-0.04258973818,-0.5716413941,-0.8026929456,0.1646094344
2.6950,-0.04309032476,-0.5711406063,-0.8029554222,0.1649370232
2.7000,-0.04359179791,-0.570642158,-0.8032159002,0.1652619141
2.7050,-0.04409520172,-0.5701457245,-0.8034746055,0.165583889
2.7100,-0.04459792868,-0.5696521406,-0.8037310317,0.1659032614
2.7150,-0.04510132288,-0.5691607443,-0.8039851555,0.1662221032
2.7200,-0.04560556556,-0.5686726132,-0.804236789,0.1665376189
2.7250,-0.04610876362,-0.5681880247,-0.8044851967,0.1668529858
2.7300,-0.04660986435,-0.5677067056,-0.804731042,0.1671662855
2.7350,-0.04710879755,-0.567229289,-0.8049740744,0.1674766681
2.7400,-0.0476053291,-0.5667576057,-0.8052132087,0.1677833051
2.7450,-0.04810064495,-0.5662910044,-0.8054487822,0.168086542
2.7500,-0.04859343631,-0.5658305469,-0.8056802951,0.1683856654
2.7550,-0.04908219906,-0.5653740656,-0.8059096402,0.168679446
2.7600,-0.04956654892,-0.564921326,-0.8061369935,0.1689680456
2.7650,-0.0500455396,-0.5644722796,-0.8063625547,0.1692510557
2.7700,-0.05051667377,-0.5640269799,-0.8065864563,0.169528523
2.7750,-0.05097922135,-0.5635854187,-0.8068091975,0.1697984502
2.7800,-0.05143479312,-0.5631477556,-0.8070306142,0.1700607395
2.7850,-0.05188087423,-0.5627117294,-0.8072522046,0.170316654
2.7900,-0.05231726054,-0.5622792041,-0.8074728126,0.1705656993
2.7950,-0.05274359715,-0.5618485856,-0.8076934975,0.1708083544
2.8000,-0.05315841367,-0.5614203929,-0.8079139394,0.1710449998
2.8050,-0.05355991253,-0.5609944638,-0.8081341831,0.1712766458
2.8100,-0.0539471004,-0.5605702749,-0.8083542717,0.1715052439
2.8150,-0.05431988582,-0.5601478995,-0.8085740783,0.1717313036
2.8200,-0.05468010811,-0.5597274422,-0.808793097,0.1719563968
2.8250,-0.05503056742,-0.5593087877,-0.8090109946,0.1721816693
2.8300,-0.05536876912,-0.5588911966,-0.8092282515,0.17240814
2.8350,-0.05569830253,-0.5584752343,-0.8094441036,0.172636482
2.8400,-0.05601843826,-0.5580607091,-0.8096584353,0.172868151
2.8450,-0.05633093447,-0.5576471179,-0.8098713665,0.1731036899
2.8500,-0.05663604542,-0.557235844,-0.8100819112,0.1733432138
2.8550,-0.05693427173,-0.5568266588,-0.8102901074,0.1735871614
2.8600,-0.05722574027,-0.5564180809,-0.8104968575,0.1738360661
2.8650,-0.05751218462,-0.5560111645,-0.8107010259,0.1740912984
2.8700,-0.05779279224,-0.5556048534,-0.8109036464,0.1743517029
2.8750,-0.05806966,-0.55519843,-0.8111049399,0.1746178522
2.8800,-0.05834172003,-0.5547930427,-0.8113040689,0.1748903404
2.8850,-0.0586120284,-0.5543873597,-0.8115020333,0.1751677355
2.8900,-0.058880428,-0.5539822308,-0.8116979435,0.1754515081
2.8950,-0.05914784987,-0.5535771832,-0.8118919295,0.1757422232
2.9000,-0.05941421791,-0.5531706932,-0.8120851411,0.1760393664
2.9050,-0.05967979303,-0.5527640896,-0.8122771323,0.1763407041
2.9100,-0.05994450993,-0.5523553731,-0.8124685331,0.1766495974
2.9150,-0.06020817321,-0.5519446866,-0.8126598358,0.1769633582
2.9200,-0.0604711699,-0.5515332518,-0.8128499297,0.1772831116
2.9250,-0.06073424438,-0.5511202803,-0.8130394316,0.1776081945
2.9300,-0.06099849751,-0.5507062194,-0.8132279958,0.1779383885
2.9350,-0.06126552442,-0.5502901883,-0.8134160223,0.1782739994
2.9400,-0.06153339186,-0.5498712336,-0.8136040619,0.1786160646
2.9450,-0.0618041758,-0.5494483725,-0.8137924008,0.1789655224
2.9500,-0.06207788996,-0.549021521,-0.8139810837,0.179322337
2.9550,-0.0623545907,-0.5485918025,-0.8141693149,0.179686577
2.9600,-0.06263537969,-0.5481579013,-0.8143576927,0.1800590817
2.9650,-0.06292137571,-0.5477211457,-0.8145454312,0.180438875
2.9700,-0.06321175315,-0.5472809403,-0.8147329687,0.1808259838
2.9750,-0.06350590934,-0.5468378936,-0.8149201526,0.1812193768
2.9800,-0.0638056384,-0.5463924334,-0.8151064168,0.1816195985
2.9850,-0.0641116095,-0.5459442599,-0.8152920746,0.1820258216
2.9900,-0.06442294619,-0.5454931852,-0.8154774047,0.1824375819
2.9950,-0.06474044651,-0.5450392902,-0.8156622141,0.1828551319
3.0000,-0.06506533036,-0.5445849492,-0.8158453193,0.1832761601
3.0050,-0.06539543701,-0.5441304041,-0.816026847,0.1837000957
3.0100,-0.06573192242,-0.5436760026,-0.8162063634,0.1841273771
3.0150,-0.0660736076,-0.5432209052,-0.8163848673,0.1845564275
3.0200,-0.06642077863,-0.5427656589,-0.8165617311,0.184988267
3.0250,-0.0667729312,-0.5423103376,-0.816737357,0.1854210429
3.0300,-0.06713219452,-0.5418554026,-0.8169110202,0.1858557942
3.0350,-0.06749797192,-0.5414011511,-0.8170826989,0.1862919231
3.0400,-0.06786966547,-0.5409464646,-0.8172532798,0.1867289686
3.0450,-0.06824605085,-0.5404924468,-0.8174218734,0.1871680325
3.0500,-0.06862730697,-0.5400382209,-0.8175894251,0.1876074217
3.0550,-0.06901516332,-0.5395860573,-0.8177542591,0.1880472434
3.0600,-0.06940729845,-0.5391347617,-0.8179173659,0.1884874486
3.0650,-0.0698060151,-0.5386851372,-0.8180778734,0.188928654
3.0700,-0.07020936766,-0.5382362874,-0.8182369319,0.1893691287
3.0750,-0.07061699257,-0.5377877966,-0.8183944017,0.1898107727
3.0800,-0.07102599557,-0.5373397934,-0.8185509868,0.1902512454
3.0850,-0.07143614339,-0.536893635,-0.8187058107,0.190690581
3.0900,-0.07184744563,-0.5364484379,-0.818859564,0.1911283142
3.0950,-0.07225855529,-0.5360060968,-0.8190110857,0.1915646286
3.1000,-0.07266829737,-0.5355659817,-0.819161248,0.1919980406
3.1050,-0.0730772625,-0.535128296,-0.8193100939,0.1924276243
3.1100,-0.07348601261,-0.5346930419,-0.8194573428,0.1928544017
3.1150,-0.07389375454,-0.5342609864,-0.8196028259,0.1932773119
3.1200,-0.07429861439,-0.5338318952,-0.819746964,0.1936959952
3.1250,-0.07469692552,-0.5334065539,-0.8198895755,0.1941105396
3.1300,-0.07509205482,-0.5329859846,-0.8200300291,0.1945196001
3.1350,-0.07548257999,-0.5325698241,-0.820168715,0.1949231679
3.1400,-0.07586759658,-0.5321586368,-0.8203055385,0.1953205485
3.1450,-0.07624592283,-0.5317529437,-0.8204405338,0.1957107473
3.1500,-0.07661900146,-0.5313512564,-0.8205745002,0.1960940094
3.1550,-0.0769853854,-0.5309551894,-0.8207064305,0.1964708432
3.1600,-0.07734601904,-0.5305646291,-0.8208361313,0.1968421024
3.1650,-0.07770114821,-0.5301796257,-0.8209638552,0.1972066034
3.1700,-0.078049493,-0.529801245,-0.821088757,0.1975656106
3.1750,-0.07839004475,-0.529429917,-0.8212109909,0.1979178425
3.1800,-0.07872378924,-0.5290657246,-0.8213302956,0.1982638887
3.1850,-0.07905046497,-0.5287085502,-0.8214467586,0.1986039165
3.1900,-0.07937055904,-0.5283591537,-0.8215600622,0.1989371339
3.1950,-0.0796833537,-0.5280172546,-0.8216705297,0.1992633499
3.2000,-0.07999082112,-0.5276825248,-0.8217778362,0.1995840912
3.2050,-0.08029233601,-0.5273551423,-0.8218821876,0.199898385
3.2100,-0.0805892092,-0.5270360541,-0.8219833859,0.2002041216
3.2150,-0.08088343267,-0.526726227,-0.8220807125,0.2005010081
3.2200,-0.08117476582,-0.5264243263,-0.8221747652,0.2007902926
3.2250,-0.08146246704,-0.5261297641,-0.8222660412,0.2010718663
3.2300,-0.08174863477,-0.5258418681,-0.8223547828,0.2013457269
3.2350,-0.08203137661,-0.5255606487,-0.8224412065,0.2016118043
3.2400,-0.08231351827,-0.5252853699,-0.8225253321,0.2018708572
3.2450,-0.08259260376,-0.5250169837,-0.8226068561,0.2021227075
3.2500,-0.08286915422,-0.5247532062,-0.8226872825,0.2023670205
3.2550,-0.08314269103,-0.5244933595,-0.8227670974,0.2026038304
3.2600,-0.08341290436,-0.5242394659,-0.8228449912,0.2028334051
3.2650,-0.08367898955,-0.5239891063,-0.8229224356,0.2030564165
3.2700,-0.08394171445,-0.5237420902,-0.822999372,0.2032733261
3.2750,-0.08419970524,-0.5234969357,-0.8230763287,0.2034864246
3.2800,-0.08445051364,-0.5232523165,-0.8231548483,0.2036939364
3.2850,-0.08469664117,-0.5230105805,-0.8232326758,0.2038979479
3.2900,-0.08493664713,-0.5227704516,-0.8233110161,0.2040975053
3.2950,-0.08517168319,-0.5225322564,-0.8233894242,0.2042931265
3.3000,-0.08540212029,-0.5222936749,-0.8234689543,0.2044863718
3.3050,-0.08562766278,-0.5220553086,-0.8235498304,0.2046749496
3.3100,-0.08584885826,-0.5218170651,-0.8236319406,0.2048593431
3.3150,-0.0860663519,-0.5215797625,-0.823714856,0.2050389486
3.3200,-0.0862797354,-0.5213444777,-0.8237979261,0.2052138392
3.3250,-0.08649061669,-0.521109252,-0.8238822213,0.2053840455
3.3300,-0.08669938412,-0.5208764396,-0.8239665133,0.2055483798
3.3350,-0.08690549431,-0.5206450569,-0.8240513184,0.2057075216
3.3400,-0.08710990429,-0.5204157803,-0.8241358008,0.2058627261
3.3450,-0.08731396939,-0.5201886932,-0.8242203681,0.2060115992
3.3500,-0.08751924251,-0.5199635689,-0.824304741,0.2061551918
3.3550,-0.08772466575,-0.5197395741,-0.8243891556,0.206295124
3.3600,-0.08793115549,-0.5195187371,-0.8244726243,0.206429856
3.3650,-0.08813793512,-0.519299265,-0.8245563542,0.2065594261
3.3700,-0.08834627581,-0.5190819517,-0.8246393681,0.2066852089
3.3750,-0.08855504265,-0.5188661503,-0.8247225116,0.2068059512
3.3800,-0.08876584076,-0.5186526847,-0.8248046562,0.2069234091
3.3850,-0.08897761763,-0.5184417811,-0.8248859838,0.2070367527
3.3900,-0.08919087743,-0.5182320595,-0.8249671511,0.2071466133
3.3950,-0.08940502509,-0.5180217281,-0.8250492281,0.2072534725
3.4000,-0.08962062055,-0.5178114649,-0.8251310187,0.2073601534
3.4050,-0.08983749189,-0.5176003977,-0.8252131454,0.2074664261
3.4100,-0.09005595778,-0.5173896411,-0.8252952145,0.2075709339
3.4150,-0.09027515832,-0.5171776118,-0.8253775572,0.2076766759
3.4200,-0.09049544549,-0.5169657015,-0.8254596857,0.2077819651
3.4250,-0.09071854735,-0.5167534535,-0.8255416479,0.2078869908
3.4300,-0.09094253373,-0.5165407894,-0.8256237428,0.2079915953
3.4350,-0.09116752986,-0.5163275365,-0.8257061236,0.2080955405
3.4400,-0.09139440422,-0.516114532,-0.8257883375,0.2081981611
3.4450,-0.09162566142,-0.5159013198,-0.8258698942,0.2083014263
3.4500,-0.09186155653,-0.5156885907,-0.8259502728,0.2084055631
3.4550,-0.09210233618,-0.5154753439,-0.8260301177,0.2085103696
3.4600,-0.09234773041,-0.5152625641,-0.8261092006,0.208614418
3.4650,-0.09259881029,-0.5150492847,-0.8261872073,0.2087208499
3.4700,-0.09285725667,-0.5148357865,-0.8262643497,0.2088273625
3.4750,-0.09312170645,-0.5146211159,-0.8263409094,0.208935771
3.4800,-0.09339166702,-0.5144067332,-0.8264165532,0.2090439905
3.4850,-0.09366554778,-0.5141916567,-0.8264916163,0.2091538034
3.4900,-0.09394472467,-0.5139760768,-0.8265656212,0.209265991
3.4950,-0.09422801749,-0.5137590251,-0.8266392079,0.2093809085
3.5000,-0.09451503984,-0.5135411228,-0.8267122566,0.2094976544
3.5050,-0.09480440295,-0.5133220473,-0.8267848454,0.2096173188
3.5100,-0.0950957566,-0.5131007519,-0.8268573864,0.2097409784
3.5150,-0.09538754634,-0.5128764351,-0.8269301075,0.2098703781
3.5200,-0.09567888455,-0.5126489782,-0.8270032816,0.2100051153
3.5250,-0.09597090299,-0.5124197012,-0.8270765516,0.2101428402
3.5300,-0.09626283977,-0.5121884332,-0.8271492433,0.210286956
3.5350,-0.09655266783,-0.5119554354,-0.8272218056,0.2104359732
3.5400,-0.09683810154,-0.5117201817,-0.827295326,0.210587942
3.5450,-0.0971204513,-0.5114832607,-0.8273691039,0.2107435835
3.5500,-0.09740086946,-0.5112462411,-0.8274421367,0.210902494
3.5550,-0.09767628741,-0.5110091563,-0.8275146733,0.2110650387
3.5600,-0.09794528142,-0.5107728105,-0.8275870944,0.2112284524
3.5650,-0.09820680008,-0.5105366984,-0.8276592121,0.2113952049
3.5700,-0.09846055935,-0.510301879,-0.8277308729,0.2115634954
3.5750,-0.09870550556,-0.5100695987,-0.8278017557,0.2117320967
3.5800,-0.09894289437,-0.5098405144,-0.8278713541,0.2119008603
3.5850,-0.099169607,-0.5096135776,-0.8279410118,0.212068554
3.5900,-0.0993854714,-0.5093904544,-0.8280095357,0.2122359578
3.5950,-0.09958887336,-0.5091705428,-0.8280776625,0.2124024471
3.6000,-0.09977807136,-0.5089547095,-0.8281452715,0.2125672822
3.6050,-0.09995404884,-0.5087435004,-0.8282111569,0.2127334448
3.6100,-0.1001169268,-0.5085369461,-0.8282757679,0.2128991022
3.6150,-0.1002667747,-0.508335057,-0.8283391258,0.2130641601
3.6200,-0.1004040879,-0.5081365849,-0.8284015954,0.2132299858
3.6250,-0.1005293679,-0.5079425542,-0.8284624352,0.2133968166
3.6300,-0.1006409707,-0.5077518322,-0.8285222822,0.2135656803
3.6350,-0.1007393186,-0.50756459,-0.8285807788,0.2137373847
3.6400,-0.1008268335,-0.5073806984,-0.828638028,0.2139107175
3.6450,-0.1009017798,-0.5071995621,-0.8286942717,0.2140869897
3.6500,-0.1009641695,-0.5070211877,-0.8287495479,0.2142660464
3.6550,-0.1010163175,-0.5068459799,-0.8288036033,0.2144468313
3.6600,-0.1010618524,-0.5066725961,-0.8288568284,0.214629309
3.6650,-0.1011017227,-0.5065017285,-0.8289081711,0.2148154662
3.6700,-0.1011384135,-0.5063313346,-0.8289587428,0.2150046594
3.6750,-0.1011753415,-0.5061603482,-0.8290082716,0.2151988333
3.6800,-0.101213131,-0.5059871814,-0.8290584022,0.215395079
3.6850,-0.1012530847,-0.5058105511,-0.8291093297,0.2155950341
3.6900,-0.1012963992,-0.5056305548,-0.8291612756,0.2157970358
3.6950,-0.1013449482,-0.5054469544,-0.8292144271,0.216000027
3.7000,-0.1014007154,-0.5052594086,-0.8292690188,0.2162029588
3.7050,-0.1014651438,-0.5050667692,-0.8293254263,0.2164063783
3.7100,-0.1015396803,-0.5048668,-0.829384594,0.2166111791
3.7150,-0.1016279079,-0.5046590972,-0.8294464817,0.2168167383
3.7200,-0.1017315999,-0.5044410847,-0.8295121277,0.2170242006
3.7250,-0.101853982,-0.5042111291,-0.8295823995,0.2172324701
3.7300,-0.101996617,-0.5039682488,-0.8296574424,0.2174424581
3.7350,-0.1021643434,-0.5037117827,-0.8297372046,0.217653528
3.7400,-0.1023585209,-0.5034404839,-0.8298224526,0.2178648881
3.7450,-0.102579419,-0.5031544528,-0.8299132904,0.2180756516
3.7500,-0.1028280942,-0.5028540245,-0.8300098511,0.218283898
3.7550,-0.1031060849,-0.5025379725,-0.830112138,0.2184915555
3.7600,-0.1034138734,-0.5022052423,-0.8302206553,0.2186987173
3.7650,-0.1037505437,-0.5018560268,-0.830335848,0.2189034779
3.7700,-0.104117496,-0.5014895294,-0.8304572405,0.2191085818
3.7750,-0.1045149316,-0.5011089599,-0.8305833633,0.2193119147
3.7800,-0.1049430941,-0.5007122906,-0.8307150502,0.2195145881
3.7850,-0.1054029357,-0.5003021848,-0.8308506609,0.2197160081
3.7900,-0.1058922415,-0.4998773416,-0.8309916851,0.2199142918
3.7950,-0.1064098171,-0.4994407642,-0.8311364327,0.2201093005
3.8000,-0.1069537112,-0.4989916203,-0.8312852736,0.2203022023
3.8050,-0.1075229878,-0.4985323226,-0.8314372026,0.2204915157
3.8100,-0.1081153639,-0.4980642108,-0.8315919919,0.2206759367
3.8150,-0.1087283348,-0.4975874062,-0.8317500045,0.220854822
3.8200,-0.1093600185,-0.497104784,-0.8319098422,0.2210276781
3.8250,-0.1100073723,-0.4966168342,-0.8320714742,0.2211948458
3.8300,-0.1106664766,-0.4961248557,-0.8322349353,0.221355079
3.8350,-0.1113346255,-0.4956304203,-0.8323996789,0.2215081538
3.8400,-0.1120104569,-0.4951357438,-0.8325642197,0.221655302
3.8450,-0.1126902485,-0.4946427482,-0.832727926,0.2217964402
3.8500,-0.113371414,-0.4941531597,-0.8328898862,0.2219324554
3.8550,-0.1140530282,-0.4936670449,-0.8330504037,0.2220625597
3.8600,-0.1147338456,-0.4931859067,-0.8332082894,0.2221885518
3.8650,-0.1154122238,-0.4927120749,-0.8333631305,0.2223077204
3.8700,-0.116085206,-0.492245936,-0.833514677,0.2224217765
3.8750,-0.1167506545,-0.491789049,-0.8336622001,0.2225312386
3.8800,-0.1174068291,-0.4913424516,-0.8338049454,0.2226376985
3.8850,-0.1180518071,-0.4909072986,-0.8339427092,0.2227405505
3.8900,-0.1186842301,-0.490484744,-0.8340751273,0.2228395193
3.8950,-0.119303088,-0.4900773218,-0.8342006334,0.2229356299
3.9000,-0.1199090602,-0.4896858452,-0.8343188951,0.2230281854
3.9050,-0.1205005526,-0.4893117015,-0.8344294126,0.2231170789
3.9100,-0.1210758177,-0.4889560127,-0.8345317756,0.2232025529
3.9150,-0.1216338462,-0.4886206176,-0.8346245657,0.223286663
3.9200,-0.1221724745,-0.488304519,-0.8347091579,0.2233678689
3.9250,-0.1226903418,-0.4880097916,-0.8347845771,0.2234462646
3.9300,-0.1231871477,-0.4877365273,-0.8348510874,0.2235210693
3.9350,-0.1236657303,-0.4874860696,-0.8349075226,0.2235923698
3.9400,-0.1241243673,-0.4872580076,-0.8349542815,0.2236607327
3.9450,-0.1245646063,-0.4870520668,-0.834991621,0.2237251346
3.9500,-0.1249877815,-0.4868691157,-0.8350186938,0.2237862815
3.9550,-0.1253945739,-0.4867069134,-0.8350364963,0.2238451052
3.9600,-0.1257837942,-0.4865661772,-0.8350446789,0.2239021585
3.9650,-0.1261544877,-0.4864464184,-0.8350443257,0.2239551324
3.9700,-0.1265060733,-0.4863480585,-0.8350352863,0.2240041294
3.9750,-0.12683675,-0.4862712227,-0.8350179933,0.2240484049
3.9800,-0.1271485684,-0.4862149205,-0.8349922571,0.2240897661
3.9850,-0.1274428905,-0.4861795456,-0.8349581284,0.2241264889
3.9900,-0.1277191384,-0.4861623588,-0.8349168746,0.2241601995
3.9950,-0.1279771864,-0.4861631652,-0.8348683678,0.224191938
4.0000,-0.1282189493,-0.4861786073,-0.8348143099,0.224221611
4.0050,-0.1284460246,-0.4862097022,-0.8347541515,0.2242481902
4.0100,-0.1286580649,-0.486255204,-0.834688148,0.2242736599
4.0150,-0.128855177,-0.4863130353,-0.8346182588,0.2242952007
4.0200,-0.1290377582,-0.4863835434,-0.8345440871,0.224313335
4.0250,-0.1292046092,-0.4864655362,-0.8344661046,0.2243296042
4.0300,-0.1293577656,-0.4865570604,-0.8343849404,0.2243447498
4.0350,-0.1294965496,-0.4866575146,-0.8343008419,0.2243595604
4.0400,-0.1296236333,-0.4867656649,-0.8342136009,0.2243759551
4.0450,-0.1297399244,-0.4868797421,-0.8341238016,0.2243950809
4.0500,-0.1298485051,-0.4869980222,-0.8340320092,0.2244167994
4.0550,-0.1299515004,-0.4871197306,-0.833938599,0.2244401674
4.0600,-0.1300520545,-0.4872457481,-0.8338423196,0.2244661001
4.0650,-0.1301523324,-0.487374527,-0.8337441305,0.2244931307
4.0700,-0.1302532884,-0.487506779,-0.8336436208,0.2245206779
4.0750,-0.1303581071,-0.4876380622,-0.8335422995,0.2245509278
4.0800,-0.130468995,-0.4877696892,-0.8334395202,0.2245821403
4.0850,-0.1305863865,-0.4878985609,-0.8333369055,0.2246147632
4.0900,-0.1307106504,-0.4880251749,-0.833233912,0.22464951
4.0950,-0.1308436908,-0.4881482243,-0.8331315323,0.2246844222
4.1000,-0.1309873868,-0.4882670085,-0.8330298005,0.2247197907
4.1050,-0.1311427354,-0.4883811418,-0.8329288946,0.2247551999
4.1100,-0.1313097535,-0.4884900001,-0.8328292655,0.2247903087
4.1150,-0.1314897049,-0.4885935674,-0.8327308905,0.2248244814
4.1200,-0.1316833466,-0.4886907608,-0.8326340476,0.2248585763
4.1250,-0.13188968,-0.4887821938,-0.8325386693,0.2248920707
4.1300,-0.1321087109,-0.4888670842,-0.8324455569,0.2249236701
4.1350,-0.1323420755,-0.4889452243,-0.8323546886,0.2249529174
4.1400,-0.1325882303,-0.4890164862,-0.832266182,0.2249805317
4.1450,-0.1328470718,-0.4890797225,-0.8321811643,0.2250048672
4.1500,-0.1331166376,-0.4891337552,-0.8321004301,0.2250266751
4.1550,-0.1333967977,-0.4891806521,-0.8320228018,0.2250458648
4.1600,-0.1336852585,-0.4892202807,-0.8319487685,0.2250622475
4.1650,-0.1339806119,-0.4892522404,-0.83187826,0.2250777676
4.1700,-0.1342815447,-0.4892778237,-0.8318110015,0.2250913943
4.1750,-0.1345881063,-0.4892973811,-0.8317472819,0.2251012517
4.1800,-0.1348996966,-0.4893123542,-0.8316861549,0.2251080443
4.1850,-0.1352152072,-0.4893227035,-0.8316280736,0.2251108323
4.1900,-0.1355352474,-0.4893295819,-0.8315720763,0.2251102818
4.1950,-0.1358566206,-0.4893340433,-0.8315185884,0.225104442
4.2000,-0.1361778844,-0.4893371284,-0.8314665065,0.2250959954
4.2050,-0.1364973704,-0.4893382748,-0.8314165724,0.2250844371
4.2100,-0.1368139857,-0.4893387351,-0.8313684453,0.2250689755
4.2150,-0.1371258631,-0.4893392116,-0.8313225097,0.2250478139
4.2200,-0.1374328186,-0.4893420487,-0.8312768996,0.2250228786
4.2250,-0.1377347096,-0.4893485573,-0.831231416,0.2249921603
4.2300,-0.138030612,-0.4893589627,-0.8311858636,0.2249564754
4.2350,-0.1383198692,-0.4893728654,-0.8311406019,0.2249157892
4.2400,-0.1386005929,-0.4893918153,-0.8310951128,0.2248698297
4.2450,-0.1388730422,-0.4894172441,-0.8310486207,0.2248182139
4.2500,-0.139136046,-0.4894486561,-0.8310013681,0.2247618738
4.2550,-0.1393868471,-0.4894889654,-0.8309528139,0.224698199
4.2600,-0.1396242233,-0.4895377884,-0.8309029271,0.2246289288
4.2650,-0.1398477976,-0.4895951061,-0.8308516887,0.2245544412
4.2700,-0.1400582702,-0.4896609265,-0.8307991689,0.2244740495
4.2750,-0.1402553282,-0.4897372083,-0.8307444487,0.2243871002
4.2800,-0.140439328,-0.4898235058,-0.8306875016,0.2242944561
4.2850,-0.140609145,-0.4899200618,-0.8306282428,0.2241966183
4.2900,-0.1407653214,-0.4900282294,-0.8305660545,0.2240925878
4.2950,-0.140908039,-0.4901483107,-0.8305007944,0.2239821169
4.3000,-0.1410360914,-0.4902816001,-0.8304317524,0.2238657589
4.3050,-0.1411483166,-0.4904273834,-0.8303594637,0.2237438164
4.3100,-0.141244966,-0.4905863609,-0.8302837489,0.2236152464
4.3150,-0.1413265732,-0.4907610525,-0.830202955,0.2234802957
4.3200,-0.1413932544,-0.4909493593,-0.8301181118,0.2233396399
4.3250,-0.1414460976,-0.4911524398,-0.8300286393,0.2231921598
4.3300,-0.1414850952,-0.4913700838,-0.8299346966,0.223037683
4.3350,-0.1415102665,-0.4916010609,-0.8298367397,0.2228771563
4.3400,-0.1415197861,-0.4918448169,-0.8297356139,0.2227097603
4.3450,-0.1415155541,-0.4921009404,-0.8296317677,0.2225334637
4.3500,-0.1414951771,-0.4923699861,-0.8295244427,0.2223513225
4.3550,-0.1414591539,-0.4926510578,-0.8294141946,0.2221628609
4.3600,-0.1414060775,-0.4929413609,-0.8293029346,0.2219679675
4.3650,-0.1413359937,-0.4932403076,-0.82919061,0.2217680504
4.3700,-0.1412492475,-0.4935470473,-0.8290774836,0.2215637345
4.3750,-0.1411447825,-0.493861745,-0.8289640419,0.2213534377
4.3800,-0.1410231654,-0.4941829385,-0.8288502404,0.2211401569
4.3850,-0.1408844747,-0.4945112353,-0.8287360381,0.2209225702
4.3900,-0.1407311714,-0.4948448987,-0.8286215559,0.220702471
4.3950,-0.1405632865,-0.4951829322,-0.8285067082,0.2204823363
4.4000,-0.1403815201,-0.4955256495,-0.8283916659,0.2202603174
4.4050,-0.1401857135,-0.4958721983,-0.828276378,0.2200385655
4.4100,-0.1399766864,-0.4962213787,-0.8281609144,0.2198189492
4.4150,-0.1397544583,-0.4965737837,-0.8280451395,0.2196005821
4.4200,-0.1395190956,-0.4969289359,-0.8279295832,0.2193824513
4.4250,-0.1392732559,-0.4972858152,-0.827814024,0.2191659644
4.4300,-0.1390161923,-0.4976444683,-0.8276985613,0.2189510748
4.4350,-0.1387498044,-0.4980059407,-0.8275822849,0.2187375974
4.4400,-0.1384748878,-0.4983688924,-0.827465707,0.2185260998
4.4450,-0.1381911554,-0.4987338232,-0.8273482007,0.2183179629
4.4500,-0.1378987704,-0.4991008399,-0.8272296564,0.2181132191
4.4550,-0.1375987786,-0.4994686612,-0.8271104527,0.2179126697
4.4600,-0.1372917779,-0.4998359253,-0.826991188,0.2177167665
4.4650,-0.1369787623,-0.5002038097,-0.826871042,0.2175252796
4.4700,-0.1366611094,-0.5005728344,-0.8267493817,0.2173385343
4.4750,-0.1363386291,-0.5009431059,-0.8266262231,0.2171563263
4.4800,-0.1360103921,-0.5013135763,-0.8265021047,0.2169795897
4.4850,-0.1356768119,-0.5016845969,-0.8263766709,0.2168085925
4.4900,-0.1353362512,-0.50205562,-0.826250663,0.2166427832
4.4950,-0.1349892808,-0.502426529,-0.8261237249,0.2164834134
4.5000,-0.1346371364,-0.5027976572,-0.8259961804,0.216327685
4.5050,-0.1342796142,-0.5031687542,-0.8258680642,0.2161761565
4.5100,-0.1339193068,-0.5035409235,-0.8257381715,0.2160292336
4.5150,-0.1335566958,-0.503913888,-0.8256068046,0.2158860966
4.5200,-0.1331924518,-0.5042878652,-0.8254741365,0.21574515
4.5250,-0.1328275132,-0.5046613559,-0.8253402954,0.2156088226
4.5300,-0.1324627264,-0.5050360137,-0.8252045394,0.2154755652
4.5350,-0.1320959519,-0.5054115237,-0.8250674858,0.2153450607
4.5400,-0.1317274136,-0.5057875507,-0.8249296488,0.2152159765
4.5450,-0.1313560686,-0.5061629351,-0.8247915033,0.2150898475
4.5500,-0.130982777,-0.5065374964,-0.8246534391,0.2149650722
4.5550,-0.1306085015,-0.5069112455,-0.8245154124,0.2148412049
4.5600,-0.1302327223,-0.5072838045,-0.8243782816,0.214716158
4.5650,-0.1298555011,-0.5076555765,-0.8242418325,0.2145897621
4.5700,-0.1294760286,-0.5080260544,-0.8241062931,0.214462826
4.5750,-0.1290959275,-0.5083931127,-0.823972893,0.2143346824
4.5800,-0.1287137442,-0.5087586229,-0.8238408673,0.2142047175
4.5850,-0.1283293331,-0.5091222005,-0.8237105569,0.2140726179
4.5900,-0.1279451066,-0.5094820306,-0.8235826784,0.2139385005
4.5950,-0.1275600372,-0.5098392681,-0.8234569614,0.213801287
4.6000,-0.1271740549,-0.5101938503,-0.8233335319,0.2136606891
4.6050,-0.1267872589,-0.5105461131,-0.8232119387,0.2135175905
4.6100,-0.1263994648,-0.5108944369,-0.8230939273,0.2133692494
4.6150,-0.1260120719,-0.5112388429,-0.8229787282,0.2132177671
4.6200,-0.1256244632,-0.5115801449,-0.8228662351,0.2130619832
4.6250,-0.1252375897,-0.5119177852,-0.8227567812,0.2129014006
4.6300,-0.1248496807,-0.5122530769,-0.8226501226,0.2127348543
4.6350,-0.1244614642,-0.5125864177,-0.822545854,0.2125625236
4.6400,-0.1240749391,-0.5129191486,-0.8224429285,0.2123840527
4.6450,-0.1236892957,-0.5132512016,-0.8223415476,0.212199296
4.6500,-0.123305295,-0.5135814511,-0.8222421456,0.2120088473
4.6550,-0.1229226209,-0.5139100864,-0.8221446836,0.2118125859
4.6600,-0.1225406643,-0.5142378927,-0.8220485463,0.2116113486
4.6650,-0.1221589716,-0.5145653749,-0.8219534626,0.2114052175
4.6700,-0.1217767963,-0.5148914506,-0.8218602086,0.2111942315
4.6750,-0.1213946148,-0.5152178575,-0.821767,0.2109808156
4.6800,-0.1210121189,-0.515544399,-0.821674582,0.2107627127
4.6850,-0.1206278037,-0.5158708708,-0.8215823992,0.2105434374
4.6900,-0.1202428294,-0.5161981395,-0.8214899598,0.2103221071
4.6950,-0.1198560158,-0.5165259521,-0.8213979098,0.2100974775
4.7000,-0.1194668773,-0.5168545297,-0.8213056236,0.2098717061
4.7050,-0.1190768094,-0.517183578,-0.8212133554,0.2096437099
4.7100,-0.1186859359,-0.5175138235,-0.821120711,0.209413154
4.7150,-0.118295397,-0.5178443529,-0.821027499,0.2091823872
4.7200,-0.1179051657,-0.5181755692,-0.820933467,0.2089514157
4.7250,-0.117515632,-0.5185072557,-0.8208385677,0.2087207413
4.7300,-0.1171285373,-0.5188401401,-0.820742425,0.2084890563
4.7350,-0.1167400006,-0.5191729157,-0.8206458858,0.2082584597
4.7400,-0.1163503584,-0.5195061041,-0.8205490407,0.2080270986
4.7450,-0.1159585044,-0.5198390731,-0.8204521835,0.2077960008
4.7500,-0.1155642824,-0.5201718872,-0.8203553617,0.2075648933
4.7550,-0.1151668101,-0.5205059631,-0.8202577138,0.2073341053
4.7600,-0.1147658322,-0.5208413413,-0.8201593249,0.207103314
4.7650,-0.1143618911,-0.5211786991,-0.8200595131,0.2068731893
4.7700,-0.1139550302,-0.5215151818,-0.8199600803,0.2066437345
4.7750,-0.1135449941,-0.5218520588,-0.8198603166,0.2064146904
4.7800,-0.1131333218,-0.5221878352,-0.8197611057,0.2061854649
4.7850,-0.1127194978,-0.5225240989,-0.8196613671,0.2059566076
4.7900,-0.1123053915,-0.5228600852,-0.8195611877,0.2057286803
4.7950,-0.1118907721,-0.523195063,-0.8194614022,0.2055003445
4.8000,-0.1114725188,-0.5235293112,-0.8193621033,0.2052722134
4.8050,-0.1110518193,-0.5238629356,-0.8192633677,0.2050430503
4.8100,-0.1106264822,-0.5241957441,-0.819165252,0.2048142896
4.8150,-0.1101972218,-0.5245289969,-0.8190668131,0.2045860686
4.8200,-0.1097644384,-0.5248630056,-0.8189675765,0.2043592475
4.8250,-0.1093288512,-0.5251980311,-0.8188677514,0.2041319086
4.8300,-0.1088902397,-0.5255336292,-0.8187673163,0.2039053754
4.8350,-0.1084489803,-0.5258705607,-0.8186659855,0.2036786101
4.8400,-0.1080052439,-0.5262074541,-0.8185643404,0.203452705
4.8450,-0.1075570634,-0.5265441682,-0.8184634533,0.2032247346
4.8500,-0.1071039126,-0.526880169,-0.818363287,0.2029964777
4.8550,-0.1066446035,-0.5272145386,-0.8182644907,0.2027682966
4.8600,-0.1061809343,-0.5275481272,-0.8181666071,0.2025388499
4.8650,-0.1057133291,-0.5278796774,-0.8180705741,0.202307375
4.8700,-0.1052415944,-0.5282099218,-0.8179761459,0.2020730316
4.8750,-0.1047637843,-0.5285392343,-0.8178830837,0.2018367874
4.8800,-0.1042793143,-0.5288666637,-0.8177921456,0.2015983215
4.8850,-0.1037886171,-0.5291914196,-0.8177036794,0.2013580322
4.8900,-0.1032884295,-0.5295170756,-0.8176156184,0.2011165521
4.8950,-0.1027793124,-0.5298408769,-0.8175294005,0.2008749299
4.9000,-0.1022607245,-0.5301643728,-0.8174441232,0.200632967
4.9050,-0.1017323798,-0.5304871017,-0.8173599277,0.2003913831
4.9100,-0.1011937815,-0.5308120833,-0.8172747405,0.2001508165
4.9150,-0.1006435605,-0.531137617,-0.8171897978,0.1999113303
4.9200,-0.1000829614,-0.5314645666,-0.817104852,0.1996709195
4.9250,-0.0995114476,-0.5317928788,-0.8170192437,0.199432598
4.9300,-0.09893196621,-0.5321228383,-0.8169323373,0.1991966548
4.9350,-0.09834565523,-0.5324550991,-0.8168443534,0.1989597998
4.9400,-0.09775100922,-0.5327886399,-0.8167556593,0.1987239252
4.9450,-0.09715071162,-0.5331242856,-0.8166655999,0.1984881188
4.9500,-0.09654424594,-0.5334619245,-0.8165743537,0.1982521341
4.9550,-0.09593265072,-0.5338030039,-0.8164807652,0.1980162611
4.9600,-0.09531801532,-0.5341484311,-0.8163843891,0.1977788126
4.9650,-0.09470150111,-0.5344989569,-0.8162840066,0.197542176
4.9700,-0.09408465472,-0.5348558584,-0.8161788919,0.197305106
4.9750,-0.09346593899,-0.5352180007,-0.8160700501,0.1970672053
4.9800,-0.0928448173,-0.5355844155,-0.8159577647,0.1968301298
4.9850,-0.09222102106,-0.5359550095,-0.815842644,0.1965916868
4.9900,-0.09159249416,-0.5363298885,-0.8157249968,0.1963512037
4.9950,-0.09095790746,-0.5367099053,-0.8156041721,0.1961095894
5.0000,-0.09031968683,-0.5370952351,-0.815480264,0.1958647536
5.0050,-0.08967693908,-0.537484888,-0.8153538455,0.1956173522
5.0100,-0.08903052379,-0.5378810388,-0.8152234144,0.195367189
5.0150,-0.08838058299,-0.5382831657,-0.8150897026,0.1951124876
5.0200,-0.08772692842,-0.5386916274,-0.8149521164,0.194854727
5.0250,-0.08706825336,-0.5391063399,-0.8148107625,0.19459418
5.0300,-0.08640183255,-0.5395272953,-0.8146653886,0.1943330275
5.0350,-0.08572904136,-0.5399540118,-0.8145155791,0.1940736149
5.0400,-0.08504969632,-0.5403865406,-0.8143615603,0.1938148216
5.0450,-0.08436491908,-0.5408249684,-0.8142031557,0.1935565425
5.0500,-0.08367519274,-0.541270942,-0.8140395399,0.1932973279
5.0550,-0.08297879297,-0.541724628,-0.8138709793,0.1930362048
5.0600,-0.08227640319,-0.5421861229,-0.8136972069,0.1927735904
5.0650,-0.08156624218,-0.5426538037,-0.8135192482,0.1925103381
5.0700,-0.08084831741,-0.5431288582,-0.8133361703,0.1922468908
5.0750,-0.08012261695,-0.5436099618,-0.813148433,0.1919848992
5.0800,-0.07938977949,-0.5440987285,-0.8129555206,0.1917215639
5.0850,-0.07865050372,-0.5445949083,-0.8127571855,0.1914581977
5.0900,-0.07790346388,-0.5450974505,-0.8125543729,0.1911941706
5.0950,-0.07715140581,-0.5456076213,-0.8123453376,0.1909320211
5.1000,-0.07639404576,-0.5461225057,-0.812132197,0.1906710601
5.1050,-0.07563061437,-0.5466429222,-0.8119139687,0.1904133217
5.1100,-0.07485966975,-0.5471671,-0.8116926815,0.1901556872
5.1150,-0.07408162817,-0.5476931799,-0.8114689082,0.1899007744
5.1200,-0.07329488196,-0.5482212404,-0.8112430734,0.1896470611
5.1250,-0.07249776482,-0.5487507265,-0.811015606,0.1893948285
5.1300,-0.07169060957,-0.5492823564,-0.8107855695,0.1891457368
5.1350,-0.0708747074,-0.5498161159,-0.8105529142,0.1888994119
5.1400,-0.07005076784,-0.5503518142,-0.8103177875,0.1886553838
5.1450,-0.06922190767,-0.5508896227,-0.8100792993,0.1884157103
5.1500,-0.06838841498,-0.5514309807,-0.809837107,0.188177465
5.1550,-0.06755088115,-0.551975241,-0.8095916397,0.1879403862
5.1600,-0.06670955096,-0.5525208396,-0.8093436771,0.1877055405
5.1650,-0.06586615533,-0.5530685163,-0.8090923678,0.1874737481
5.1700,-0.06502008534,-0.5536179155,-0.8088381556,0.1872443065
5.1750,-0.06417325896,-0.5541697151,-0.8085805748,0.1870165066
5.1800,-0.06332459181,-0.5547228763,-0.8083204428,0.1867902254
5.1850,-0.06247455464,-0.5552771069,-0.8080582849,0.1865638571
5.1900,-0.06162371433,-0.555830709,-0.8077955423,0.186335994
5.1950,-0.06077343666,-0.5563849782,-0.8075315173,0.1861053305
5.2000,-0.05992396855,-0.5569392246,-0.807266546,0.1858723805
5.2050,-0.05907556202,-0.5574941387,-0.8070008153,0.1856341764
5.2100,-0.05822871827,-0.5580477295,-0.8067354497,0.1853916455
5.2150,-0.05738358625,-0.5586012245,-0.8064697141,0.1851442581
5.2200,-0.05654092501,-0.5591544465,-0.8062028113,0.184895797
5.2250,-0.05570021849,-0.5597082197,-0.8059348948,0.184643277
5.2300,-0.05486093754,-0.5602618281,-0.8056659581,0.1843890602
5.2350,-0.05402057488,-0.5608161613,-0.805394949,0.1841357837
5.2400,-0.05317952756,-0.5613725722,-0.8051209664,0.1838831216
5.2450,-0.05233463058,-0.5619309188,-0.804843731,0.1836335959
5.2500,-0.05148507893,-0.5624920027,-0.8045630268,0.1833858488
5.2550,-0.05063016893,-0.5630560291,-0.8042788025,0.1831395696
5.2600,-0.04976830103,-0.5636217229,-0.8039913987,0.1828975136
5.2650,-0.04889945323,-0.5641899448,-0.8037006543,0.1826576249
5.2700,-0.04802328104,-0.564760738,-0.8034064713,0.1824201614
5.2750,-0.04714231487,-0.565335156,-0.8031081393,0.1821841929
5.2800,-0.04625806698,-0.5659139987,-0.8028053175,0.1819482332
5.2850,-0.04537185291,-0.5664982864,-0.8024973646,0.1817114921
5.2900,-0.04448442295,-0.5670893864,-0.8021836455,0.1814722097
5.2950,-0.04359749518,-0.5676860021,-0.8018648862,0.1812306975
5.3000,-0.04270789356,-0.5682887909,-0.801540976,0.1809860485
5.3050,-0.04181684069,-0.5688993069,-0.8012105344,0.1807390662
5.3100,-0.04092184076,-0.5695155027,-0.8008751895,0.180489407
5.3150,-0.040022551,-0.5701394505,-0.8005333228,0.1802376252
5.3200,-0.03912000442,-0.5707714547,-0.8001851561,0.1799813537
5.3250,-0.03821434457,-0.5714119386,-0.7998303466,0.1797205522
5.3300,-0.03730879947,-0.5720621363,-0.7994682589,0.1794532491
5.3350,-0.03640315695,-0.5727223275,-0.7990986679,0.1791794203
5.3400,-0.03549781762,-0.5733929439,-0.7987204418,0.178902467
5.3450,-0.03459241,-0.5740733104,-0.7983338558,0.1786232184
5.3500,-0.03368617512,-0.5747617136,-0.797939385,0.1783450365
5.3550,-0.03278206084,-0.5754552097,-0.7975384073,0.1780705674
5.3600,-0.0318816737,-0.5761534268,-0.79713053,0.1778024347
5.3650,-0.03098606485,-0.5768549015,-0.7967171133,0.1775390882
5.3700,-0.03009449095,-0.5775592408,-0.7962985158,0.1772803391
5.3750,-0.02920817845,-0.5782646451,-0.7958757465,0.1770273389
5.3800,-0.02832649912,-0.5789692563,-0.7954496682,0.1767824513
5.3850,-0.02745019287,-0.579670516,-0.7950223271,0.1765448361
5.3900,-0.02658053639,-0.5803670624,-0.7945945306,0.1763152856
5.3950,-0.02571861311,-0.5810579284,-0.7941673462,0.1760922006
5.4000,-0.0248669617,-0.5817429655,-0.7937408611,0.1758755293
5.4050,-0.02402838872,-0.5824200992,-0.7933169895,0.1756633678
5.4100,-0.0232050355,-0.5830893076,-0.7928957833,0.1754555857
5.4150,-0.02239672564,-0.583749821,-0.7924783539,0.1752500832
5.4200,-0.02160401058,-0.5843994898,-0.7920661584,0.1750477184
5.4250,-0.02082867731,-0.5850363281,-0.7916605601,0.1748491306
5.4300,-0.02007083423,-0.585658226,-0.7912635634,0.174652733
5.4350,-0.01932969392,-0.5862634187,-0.7908766545,0.1744582591
5.4400,-0.01860602374,-0.5868514821,-0.790500681,0.1742636713
5.4450,-0.01789740239,-0.5874219971,-0.7901359109,0.1740698783
5.4500,-0.01720354849,-0.5879736337,-0.7897835989,0.1738761365
5.4550,-0.01652353123,-0.5885057137,-0.7894440096,0.1736840627
5.4600,-0.01585452775,-0.5890182336,-0.7891170859,0.1734946085
5.4650,-0.0151937309,-0.5895116725,-0.7888021311,0.1733099434
5.4700,-0.0145399127,-0.5899859566,-0.7884987159,0.1731327147
5.4750,-0.01389332586,-0.5904412869,-0.7882063182,0.172964916
5.4800,-0.01325324954,-0.5908785883,-0.7879239186,0.1728084015
5.4850,-0.01261911708,-0.5912988335,-0.7876504837,0.172664886
5.4900,-0.01199158666,-0.5917028931,-0.7873851866,0.1725353764
5.4950,-0.01136776844,-0.5920918421,-0.7871267382,0.1724225112
5.5000,-0.01074861912,-0.5924663912,-0.7868747764,0.1723256478
5.5050,-0.0101341198,-0.5928261939,-0.7866292797,0.1722462764
5.5100,-0.009525090289,-0.5931729678,-0.7863888512,0.17218501
5.5150,-0.008922793938,-0.5935074265,-0.7861531798,0.1721409199
5.5200,-0.008325754294,-0.5938297813,-0.7859231041,0.1721096949
5.5250,-0.007736074075,-0.5941409591,-0.7856977886,0.1720920071
5.5300,-0.007153806987,-0.5944423795,-0.785476909,0.1720845892
5.5350,-0.006580519091,-0.5947340219,-0.7852608876,0.1720856714
5.5400,-0.006017167844,-0.595015764,-0.7850503034,0.172093159
5.5450,-0.005464348163,-0.5952892561,-0.7848442238,0.1721057431
5.5500,-0.004924559933,-0.5955562211,-0.7846413218,0.1721235962
5.5550,-0.004393939434,-0.5958171167,-0.7844412355,0.1721470439
5.5600,-0.003872767086,-0.5960756154,-0.7842412899,0.1721756707
5.5650,-0.003358770319,-0.596330927,-0.7840420091,0.1722099653
5.5700,-0.002848984938,-0.5965833458,-0.7838431235,0.1722502613
5.5750,-0.002341204842,-0.5968333867,-0.7836440571,0.1722974724
5.5800,-0.00183314625,-0.5970825373,-0.7834433785,0.1723529978
5.5850,-0.001323479341,-0.5973308223,-0.7832411541,0.1724164482
5.5900,-0.0008119080731,-0.5975786851,-0.7830366743,0.1724894853
5.5950,-0.0002970499333,-0.5978283091,-0.7828285484,0.1725708214
5.6000,0.0002211869178,-0.5980797071,-0.7826165249,0.1726614897
5.6050,0.0007448567782,-0.5983344687,-0.7823996051,0.1727604314
5.6100,0.001272125426,-0.5985934076,-0.7821772565,0.1728671556
5.6150,0.001804101368,-0.5988567492,-0.7819490755,0.1729826074
5.6200,0.002340070125,-0.5991253706,-0.7817137869,0.1731094156
5.6250,0.002880708892,-0.5994006049,-0.7814705996,0.1732464093
5.6300,0.003426384922,-0.5996818817,-0.7812193219,0.1733962852
5.6350,0.003978018273,-0.5999711824,-0.7809587519,0.1735574355
5.6400,0.004534102187,-0.6002668892,-0.7806901383,0.1737297086
5.6450,0.005094571306,-0.6005693141,-0.7804134742,0.1739119135
5.6500,0.00565875898,-0.6008795728,-0.7801287117,0.1741002888
5.6550,0.006224238647,-0.6011976308,-0.7798361398,0.1742936101
5.6600,0.006791142452,-0.6015236509,-0.7795360818,0.1744897561
5.6650,0.007356922841,-0.6018580453,-0.7792286962,0.1746865994
5.6700,0.007920548525,-0.6021999006,-0.7789147004,0.174884059
5.6750,0.008477995489,-0.6025486651,-0.7785952334,0.1750791029
5.6800,0.009029876946,-0.6029044937,-0.7782704428,0.1752705071
5.6850,0.009573268227,-0.6032657308,-0.7779418404,0.1754574123
5.6900,0.01010845318,-0.6036329711,-0.7776093349,0.175638201
5.6950,0.01063777721,-0.6040032935,-0.7772755877,0.1758110348
5.7000,0.01116105742,-0.6043760255,-0.7769407535,0.1759776011
5.7050,0.01167917533,-0.6047507728,-0.7766054445,0.1761365473
5.7100,0.01219190628,-0.6051250394,-0.7762715089,0.1762883679
5.7150,0.01269804743,-0.6054983295,-0.775939734,0.1764314648
5.7200,0.01319583667,-0.6058693756,-0.7756112121,0.1765656176
5.7250,0.01368561997,-0.6062376758,-0.7752866428,0.1766895746
5.7300,0.01416620212,-0.606601133,-0.7749682946,0.1768008101
5.7350,0.01463699409,-0.606959176,-0.7746566728,0.1768992829
5.7400,0.01509700247,-0.607311158,-0.7743521613,0.1769857854
5.7450,0.01554435582,-0.6076572586,-0.7740548718,0.1770595511
5.7500,0.01597981947,-0.607995299,-0.7737663766,0.1771213036
5.7550,0.0164018462,-0.6083257345,-0.7734865128,0.1771705244
5.7600,0.0168110152,-0.6086481123,-0.7732154338,0.1772082337
5.7650,0.01720813615,-0.6089603914,-0.7729551106,0.1772329505
5.7700,0.01759210286,-0.6092630589,-0.7727052019,0.1772447853
5.7750,0.01796547337,-0.609554529,-0.7724669122,0.1772438643
5.7800,0.01832830696,-0.609834938,-0.7722401833,0.1772301349
5.7850,0.01868213441,-0.6101045468,-0.7720243613,0.1772055458
5.7900,0.01902704271,-0.6103621501,-0.7718203404,0.1771704816
5.7950,0.01936000154,-0.6106076643,-0.7716283003,0.1771249189
5.8000,0.01968057061,-0.6108413765,-0.771448241,0.1770680645
5.8050,0.01998773306,-0.611063744,-0.7712795526,0.1770012513
5.8100,0.02028206906,-0.6112737864,-0.771123598,0.1769219952
5.8150,0.0205650989,-0.6114716411,-0.77097983,0.1768321538
5.8200,0.02083482244,-0.6116589035,-0.7708467316,0.176733167
5.8250,0.02109374649,-0.6118344418,-0.7707251019,0.1766252728
5.8300,0.02134286359,-0.6119996345,-0.7706138687,0.1765083422
5.8350,0.02158203045,-0.6121544632,-0.7705124235,0.1763851875
5.8400,0.02181306704,-0.6123011795,-0.7704182539,0.1762588147
5.8450,0.02203766746,-0.6124398948,-0.7703305899,0.1761320491
5.8500,0.02225744911,-0.6125714041,-0.7702483259,0.1760068102
5.8550,0.0224708995,-0.6126969672,-0.7701696838,0.1758867342
5.8600,0.02267903211,-0.6128155061,-0.7700955286,0.1757717091
5.8650,0.02288136908,-0.6129298103,-0.770023564,0.1756621803
5.8700,0.02307541759,-0.6130421067,-0.7699518596,0.1755592046
5.8750,0.02326224987,-0.6131522936,-0.7698805435,0.1754624786
5.8800,0.02344202853,-0.6132621583,-0.7698083599,0.1753712793
5.8850,0.02361496465,-0.6133728381,-0.7697344038,0.1752856029
5.8900,0.0237817568,-0.6134844925,-0.7696583272,0.1752063495
5.8950,0.02394162125,-0.6135986458,-0.7695789404,0.175133535
5.9000,0.02409519744,-0.6137158177,-0.769495432,0.1750688343
5.9050,0.02424046512,-0.6138354097,-0.7694079211,0.1750141155
5.9100,0.0243778653,-0.6139591613,-0.7693150937,0.1749690102
5.9150,0.02450717431,-0.6140865182,-0.7692174618,0.1749332533
5.9200,0.02463014479,-0.6142186445,-0.7691143521,0.1749054779
5.9250,0.0247453601,-0.6143562537,-0.769004917,0.1748871015
5.9300,0.02485194337,-0.6144993558,-0.7688898709,0.1748750667
5.9350,0.02494747061,-0.6146483048,-0.7687688367,0.1748701257
5.9400,0.02503329971,-0.6148045555,-0.7686411536,0.174869864
5.9450,0.02510838907,-0.6149692349,-0.7685062937,0.1748727692
5.9500,0.02517535124,-0.6151404001,-0.768365024,0.1748819021
5.9550,0.02523552286,-0.615318706,-0.7682165946,0.174898034
5.9600,0.02528984762,-0.615502702,-0.7680622478,0.174920642
5.9650,0.02533883066,-0.6156918965,-0.7679019385,0.1749515508
5.9700,0.02537998019,-0.6158867418,-0.7677357257,0.1749892379
5.9750,0.02541528379,-0.6160866541,-0.76756375,0.1750348184
5.9800,0.02544360127,-0.61629027,-0.7673871717,0.1750881348
5.9850,0.02546621852,-0.6164978373,-0.7672060301,0.1751479251
5.9900,0.02548167222,-0.6167083731,-0.7670210276,0.1752147542
5.9950,0.02548882478,-0.6169225495,-0.766831829,0.1752878597
6.0000,0.02548684114,-0.617139506,-0.7666397458,0.1753646236
6.0050,0.02547616201,-0.6173572611,-0.7664462333,0.1754455723
6.0100,0.0254550853,-0.617577157,-0.7662501519,0.1755311896
6.0150,0.02542431205,-0.61779712,-0.7660531954,0.1756212535
6.0200,0.02538300627,-0.6180163379,-0.7658562401,0.1757149073
6.0250,0.02533134674,-0.6182335097,-0.7656605547,0.1758111637
6.0300,0.02526854789,-0.6184494727,-0.7654654373,0.1759102454
6.0350,0.02519490859,-0.6186635218,-0.7652717484,0.1760108362
6.0400,0.02510881475,-0.6188749564,-0.7650799866,0.1761134573
6.0450,0.02501085635,-0.619081678,-0.7648919534,0.176217572
6.0500,0.02489829851,-0.6192857163,-0.7647064259,0.176321747
6.0550,0.02477261099,-0.6194845415,-0.7645253763,0.1764261022
6.0600,0.02463142183,-0.6196789199,-0.7643488388,0.1765281332
6.0650,0.02447400679,-0.6198688565,-0.7641770671,0.1766268211
6.0700,0.02430125338,-0.6200543432,-0.7640101858,0.1767215228
6.0750,0.02411258002,-0.6202349143,-0.7638490423,0.1768102803
6.0800,0.02390739377,-0.6204094675,-0.763694829,0.1768918802
6.0850,0.02368455597,-0.6205770288,-0.763548651,0.1769651116
6.0900,0.02344532239,-0.6207384901,-0.7634099742,0.1770289667
6.0950,0.02319181629,-0.6208932791,-0.7632795677,0.1770818371
6.1000,0.02292489329,-0.621039868,-0.7631585122,0.1771242981
6.1050,0.02264584565,-0.6211784385,-0.7630471455,0.1771540769
6.1100,0.02235432908,-0.621310317,-0.7629438752,0.17717341
6.1150,0.02204946312,-0.6214339071,-0.7628502437,0.1771813361
6.1200,0.02173249635,-0.6215504741,-0.7627651746,0.1771778632
6.1250,0.02140118121,-0.6216614566,-0.7626875895,0.1771628166
6.1300,0.02105582369,-0.6217658485,-0.7626179232,0.1771377574
6.1350,0.02069733307,-0.621863933,-0.7625556118,0.1771039473
6.1400,0.02032566068,-0.6219558535,-0.7625006836,0.1770606992
6.1450,0.0199401717,-0.6220415301,-0.762453138,0.1770082957
6.1500,0.01954229958,-0.6221215858,-0.7624122467,0.1769474416
6.1550,0.01913030302,-0.6221963738,-0.7623783956,0.1768753399
6.1600,0.01870390368,-0.6222671339,-0.7623507507,0.1767911506
6.1650,0.01826217002,-0.622334947,-0.7623285454,0.1766943569
6.1700,0.0178045966,-0.6223987695,-0.7623129772,0.1765833878
6.1750,0.01733058122,-0.6224611577,-0.7623020572,0.1764577336
6.1800,0.01683950621,-0.6225212861,-0.7622966515,0.1763164611
6.1850,0.01633026462,-0.6225803333,-0.7622958564,0.1761592413
6.1900,0.01580383489,-0.6226376513,-0.7623000452,0.1759864629
6.1950,0.01526134942,-0.622693626,-0.7623087157,0.1757986387
6.2000,0.01470306108,-0.6227479244,-0.7623226425,0.1755933695
6.2050,0.01413096046,-0.622801709,-0.7623409789,0.1753698354
6.2100,0.01354499858,-0.622854036,-0.7623642449,0.1751289269
6.2150,0.0129459338,-0.6229060261,-0.76239162,0.1748699607
6.2200,0.01233517964,-0.6229570493,-0.7624235524,0.1745929115
6.2250,0.01171429205,-0.6230063399,-0.7624604886,0.1742982478
6.2300,0.01108600912,-0.6230548394,-0.7625014231,0.1739866293
6.2350,0.01045170746,-0.6231021959,-0.7625468186,0.1736570321
6.2400,0.009812832133,-0.6231493746,-0.7625956971,0.1733100344
6.2450,0.009170314247,-0.6231947496,-0.7626486355,0.1729487448
6.2500,0.008522702889,-0.6232389857,-0.7627050169,0.1725734263
6.2550,0.00787307842,-0.6232819551,-0.7627646498,0.1721850986
6.2600,0.007220962977,-0.6233248339,-0.762826474,0.1717841078
6.2650,0.006567316825,-0.6233674385,-0.762890363,0.1713715291
6.2700,0.005914063627,-0.6234093238,-0.7629558174,0.1709510444
6.2750,0.005263135939,-0.6234521948,-0.7630212914,0.1705232216
6.2800,0.004615281183,-0.623496454,-0.763086103,0.1700895954
6.2850,0.003971682059,-0.6235420477,-0.7631499386,0.1696517365
6.2900,0.003333371679,-0.6235897131,-0.7632124574,0.1692084607
6.2950,0.002700219557,-0.6236396725,-0.763272749,0.1687630837
6.3000,0.002074607028,-0.6236924982,-0.7633302031,0.168316264
6.3050,0.001454759438,-0.6237489076,-0.7633845173,0.1678668006
6.3100,0.0008424615352,-0.6238073118,-0.7634371904,0.1674138116
6.3150,0.0002370097418,-0.623869391,-0.7634869277,0.1669569944
6.3200,-0.000360737686,-0.6239346868,-0.7635344752,0.1664946896
6.3250,-0.0009503942335,-0.6240035566,-0.7635793622,0.166027756
6.3300,-0.001530122725,-0.624075261,-0.7636222515,0.1655559856
6.3350,-0.002100101993,-0.6241497244,-0.7636631131,0.1650798618
6.3400,-0.002656007703,-0.6242268998,-0.7637019597,0.1645996355
6.3450,-0.003198184724,-0.6243063704,-0.7637392188,0.1641149999
6.3500,-0.003725615654,-0.6243878913,-0.7637744206,0.163629201
6.3550,-0.004238862224,-0.6244740187,-0.7638056958,0.1631413224
6.3600,-0.004736088794,-0.6245637713,-0.7638334402,0.1626534373
6.3650,-0.005219260627,-0.6246581888,-0.7638563304,0.1621678545
6.3700,-0.005686853044,-0.6247558294,-0.7638753081,0.1616858899
6.3750,-0.006139003363,-0.6248590307,-0.7638880576,0.1612096148
6.3800,-0.006576106479,-0.6249683854,-0.7638938363,0.1607404085
6.3850,-0.006998551528,-0.6250841721,-0.7638924343,0.1602783419
6.3900,-0.007408478946,-0.6252056637,-0.7638839022,0.159826082
6.3950,-0.007806938967,-0.6253340497,-0.7638671508,0.159384296
6.4000,-0.008193445136,-0.6254693955,-0.7638419756,0.1589538899
6.4050,-0.008569511493,-0.6256116484,-0.7638082238,0.1585358824
6.4100,-0.008936376925,-0.6257610938,-0.7637659339,0.158129039
6.4150,-0.009295130589,-0.6259183781,-0.7637146242,0.1577331838
6.4200,-0.009645643787,-0.626082149,-0.7636550488,0.1573501532
6.4250,-0.009987006247,-0.6262528735,-0.7635867699,0.1569803905
6.4300,-0.01032001398,-0.6264304952,-0.7635096337,0.1566249381
6.4350,-0.01064373246,-0.6266156706,-0.7634233639,0.1562826914
6.4400,-0.01095861802,-0.6268076907,-0.7633284732,0.1559540625
6.4450,-0.01126390987,-0.6270071768,-0.7632246426,0.1556382647
6.4500,-0.01155926912,-0.6272141094,-0.7631121378,0.1553341858
6.4550,-0.01184275404,-0.6274283444,-0.7629909364,0.1550427451
6.4600,-0.01211400218,-0.6276496205,-0.7628611419,0.1547646055
6.4650,-0.01237265461,-0.6278767,-0.762723747,0.1545000091
6.4700,-0.01261601229,-0.6281108276,-0.7625775297,0.1542502372
6.4750,-0.01284440186,-0.6283504428,-0.7624239444,0.1540145167
6.4800,-0.01305747803,-0.6285957629,-0.7622626401,0.1537938123
6.4850,-0.01325648244,-0.6288466512,-0.7620935463,0.1535890024
6.4900,-0.01344127083,-0.6291049716,-0.7619154451,0.1533985707
6.4950,-0.01361501797,-0.6293697099,-0.7617294058,0.1532211209
6.5000,-0.01377836797,-0.6296414268,-0.7615348043,0.1530574142
6.5050,-0.01393272542,-0.6299194926,-0.7613321775,0.152907251
6.5100,-0.01407583959,-0.6302053424,-0.7611206291,0.1527693855
6.5150,-0.01420969681,-0.6304984542,-0.7609005665,0.1526437409
6.5200,-0.01433332592,-0.630798797,-0.7606720108,0.1525304083
6.5250,-0.01444883637,-0.6311064612,-0.7604350409,0.1524283906
6.5300,-0.01455685977,-0.6314196934,-0.7601910124,0.1523380885
6.5350,-0.0146578833,-0.6317386336,-0.7599399611,0.152258664
6.5400,-0.01475450341,-0.6320622153,-0.7596828576,0.1521894095
6.5450,-0.0148467507,-0.6323911917,-0.7594194718,0.1521283028
6.5500,-0.01493515878,-0.6327257983,-0.7591500865,0.1520728489
6.5550,-0.01502334573,-0.6330650702,-0.7588757366,0.1520214864
6.5600,-0.01510989842,-0.6334094086,-0.7585959449,0.1519750126
6.5650,-0.01519329988,-0.6337589644,-0.7583107043,0.1519329276
6.5700,-0.01527365743,-0.634114071,-0.758020245,0.1518926218
6.5750,-0.01535314276,-0.6344750518,-0.7577237822,0.1518563777
6.5800,-0.01543141857,-0.6348410701,-0.7574222486,0.1518230038
6.5850,-0.01550971054,-0.6352126057,-0.7571149203,0.1517939127
6.5900,-0.01559079476,-0.635589175,-0.7568019786,0.151769868
6.5950,-0.01567297495,-0.6359697999,-0.7564843425,0.1517504891
6.6000,-0.01575963455,-0.6363546618,-0.7561620477,0.1517344256
6.6050,-0.01584902222,-0.6367436322,-0.755834919,0.1517232042
6.6100,-0.01594390435,-0.6371366363,-0.7555029296,0.1517169138
6.6150,-0.01604439168,-0.6375320891,-0.7551676917,0.1517141071
6.6200,-0.01615094105,-0.6379297857,-0.7548293369,0.1517148895
6.6250,-0.01626439119,-0.6383288796,-0.7544886021,0.151719018
6.6300,-0.01638621953,-0.6387288136,-0.7541462733,0.1517247272
6.6350,-0.01651520724,-0.6391291254,-0.7538025717,0.1517329626
6.6400,-0.01665400081,-0.6395288644,-0.7534582619,0.1517436109
6.6450,-0.01679983882,-0.6399288494,-0.7531127716,0.151756339
6.6500,-0.01695248393,-0.6403277907,-0.7527675422,0.1517694342
6.6550,-0.01710962902,-0.6407250158,-0.752422731,0.1517852055
6.6600,-0.01727143932,-0.6411203258,-0.7520787746,0.1518023125
6.6650,-0.01743602005,-0.6415130445,-0.7517364319,0.1518200771
6.6700,-0.01760379881,-0.6419035545,-0.7513957605,0.1518365705
6.6750,-0.01777472053,-0.642289785,-0.7510583044,0.1518529378
6.6800,-0.01794770689,-0.6426723657,-0.7507239273,0.1518673603
6.6850,-0.01812241007,-0.6430509756,-0.7503928786,0.1518800471
6.6900,-0.01829691669,-0.643425404,-0.7500652842,0.151891546
6.6950,-0.01847293564,-0.6437943099,-0.7497422242,0.1519020552
6.7000,-0.01865067589,-0.6441577706,-0.7494232454,0.1519135217
6.7050,-0.01882985409,-0.6445154837,-0.7491085145,0.1519264999
6.7100,-0.01900976798,-0.6448652807,-0.7487996704,0.151942266
6.7150,-0.01918851642,-0.6452085007,-0.7484956072,0.1519609078
6.7200,-0.01936681765,-0.6455451188,-0.7481961715,0.1519832719
6.7250,-0.01954373057,-0.6458725246,-0.7479036567,0.1520093577
6.7300,-0.01971922095,-0.6461917901,-0.7476171022,0.1520394397
6.7350,-0.01989316977,-0.6465018481,-0.7473374292,0.152073631
6.7400,-0.02006589824,-0.6468037164,-0.7470636094,0.1521127075
6.7450,-0.02023760964,-0.6470964001,-0.7467964415,0.1521570345
6.7500,-0.0204084665,-0.6473789496,-0.7465367022,0.1522069064
6.7550,-0.02057818431,-0.6476522423,-0.7462838451,0.1522614001
6.7600,-0.02074597132,-0.6479160356,-0.7460380482,0.1523208654
6.7650,-0.02091010183,-0.6481707028,-0.745798955,0.1523857816
6.7700,-0.02107086006,-0.6484154026,-0.7455675084,0.1524551572
6.7750,-0.0212267285,-0.6486511326,-0.7453425769,0.152530578
6.7800,-0.02137819135,-0.6488783763,-0.7451239336,0.1526111049
6.7850,-0.02152241764,-0.649097522,-0.7449113437,0.1526967011
6.7900,-0.02165924895,-0.6493087744,-0.7447041775,0.1527896607
6.7950,-0.02178762508,-0.6495132597,-0.7445014424,0.1528902453
6.8000,-0.0219072336,-0.6497115812,-0.7443026389,0.1529984185
6.8050,-0.02201740348,-0.6499042682,-0.744107054,0.1531155389
6.8100,-0.02212013886,-0.6500916547,-0.7439145898,0.153240409
6.8150,-0.02221603718,-0.6502755359,-0.7437235855,0.153373412
6.8200,-0.02230832067,-0.6504547501,-0.7435352687,0.1535130648
6.8250,-0.0223967688,-0.650631331,-0.7433480134,0.1536586702
6.8300,-0.02248424614,-0.6508057495,-0.7431615395,0.1538091716
6.8350,-0.02257225204,-0.6509793829,-0.7429746491,0.153964305
6.8400,-0.02266119469,-0.651153244,-0.7427865991,0.1541232988
6.8450,-0.02275304195,-0.6513277788,-0.742597039,0.1542856487
6.8500,-0.02284935243,-0.6515038466,-0.7424051431,0.1544514436
6.8550,-0.02294911011,-0.6516848619,-0.7422084534,0.15461821
6.8600,-0.02305392091,-0.6518702934,-0.742007658,0.1547846014
6.8650,-0.02316731271,-0.6520620302,-0.7418017215,0.1549470568
6.8700,-0.02328945189,-0.6522612885,-0.7415892923,0.1551068486
6.8750,-0.02341941917,-0.6524677083,-0.7413714984,0.1552601748
6.8800,-0.02355809792,-0.6526836899,-0.7411462181,0.1554068865
6.8850,-0.02370597607,-0.6529092379,-0.740913451,0.1555468161
6.8900,-0.02386179697,-0.6531449025,-0.7406729026,0.1556791649
6.8950,-0.02402823705,-0.6533910468,-0.7404243248,0.1558030905
6.9000,-0.02420428968,-0.6536492869,-0.7401661239,0.1559194379
6.9050,-0.024391888,-0.6539179394,-0.7398997734,0.1560278488
6.9100,-0.02458776056,-0.6541977201,-0.7396253808,0.1561252098
6.9150,-0.02479316629,-0.6544878902,-0.7393430748,0.1562136942
6.9200,-0.02500825097,-0.6547890391,-0.7390524715,0.1562925012
6.9250,-0.02523356683,-0.6551008079,-0.7387543893,0.1563590448
6.9300,-0.02546876631,-0.6554215906,-0.7384499077,0.1564148788
6.9350,-0.02571482167,-0.655750405,-0.7381405709,0.1564565495
6.9400,-0.02597010333,-0.6560871914,-0.7378269201,0.1564819061
6.9450,-0.02623723079,-0.6564310095,-0.7375098568,0.1564900911
6.9500,-0.02651405188,-0.6567805788,-0.7371907481,0.1564802775
6.9550,-0.02680239975,-0.657134905,-0.736871004,0.156449581
6.9600,-0.02710060566,-0.6574937377,-0.7365508488,0.1563981754
6.9650,-0.02740777795,-0.6578562878,-0.7362316087,0.1563231802
6.9700,-0.02772435378,-0.6582218844,-0.7359134936,0.1562262494
6.9750,-0.02804813455,-0.6585906858,-0.7355972759,0.1561033582
6.9800,-0.02837775511,-0.6589616339,-0.7352834682,0.1559566907
6.9850,-0.02871316103,-0.6593346712,-0.7349722788,0.1557854136
6.9900,-0.02905307243,-0.6597103272,-0.7346633492,0.1555890952
6.9950,-0.02939414507,-0.660087731,-0.7343570985,0.1553699567
7.0000,-0.02973495473,-0.6604675281,-0.7340532564,0.1551267017
7.0050,-0.0300749398,-0.6608493293,-0.7337516032,0.1548620249
7.0100,-0.03041209557,-0.6612332046,-0.7334515392,0.1545787609
7.0150,-0.03074652884,-0.6616176092,-0.733153991,0.1542790191
7.0200,-0.03107630468,-0.6620020864,-0.7328589867,0.1539649522
7.0250,-0.03140166564,-0.6623875171,-0.7325650059,0.1536399193
7.0300,-0.03171999693,-0.6627710342,-0.7322740576,0.1533072165
7.0350,-0.03203032632,-0.6631526029,-0.7319858561,0.1529685914
7.0400,-0.032330645,-0.6635298343,-0.7317018383,0.1526280063
7.0450,-0.03261879328,-0.6639026639,-0.7314217959,0.1522873065
7.0500,-0.03289372791,-0.6642702687,-0.7311458496,0.1519498579
7.0550,-0.03315451142,-0.6646309229,-0.7308750743,0.1516184041
7.0600,-0.03340096012,-0.6649834848,-0.7306101068,0.1512951178
7.0650,-0.03363344011,-0.6653267268,-0.7303522694,0.1509791403
7.0700,-0.03385152118,-0.6656601461,-0.7301016431,0.1506726091
7.0750,-0.03405526692,-0.6659831707,-0.7298589627,0.150374698
7.0800,-0.03424487879,-0.666295456,-0.7296241465,0.1500875027
7.0850,-0.03442117747,-0.6665971615,-0.7293973504,0.149809586
7.0900,-0.03458451591,-0.6668875706,-0.7291797084,0.149538732
7.0950,-0.03473478677,-0.6671669553,-0.7289712012,0.1492740307
7.1000,-0.03487356672,-0.6674354178,-0.7287715867,0.1490160118
7.1050,-0.03500051906,-0.6676936623,-0.7285809904,0.1487611422
7.1100,-0.03511794211,-0.6679426645,-0.7283978791,0.1485121439
7.1150,-0.03522434296,-0.6681813968,-0.7282237105,0.1482669692
7.1200,-0.03532176832,-0.6684122307,-0.7280561786,0.1480258876
7.1250,-0.03540979814,-0.6686355819,-0.7278950327,0.1477884505
7.1300,-0.03548856383,-0.6688524156,-0.7277395868,0.1475537251
7.1350,-0.03555884724,-0.6690618299,-0.727590508,0.1473223974
7.1400,-0.03562039083,-0.6692648608,-0.7274465025,0.1470962947
7.1450,-0.03567441628,-0.6694623751,-0.7273070678,0.1468737335
7.1500,-0.03572093836,-0.6696534434,-0.7271730753,0.1466546928
7.1550,-0.03576052091,-0.6698379926,-0.7270443992,0.1464400575
7.1600,-0.03579603943,-0.6700165056,-0.7269204224,0.1462300424
7.1650,-0.03582585924,-0.6701887802,-0.7268011618,0.1460259498
7.1700,-0.03585052096,-0.6703538461,-0.7266876567,0.145826989
7.1750,-0.03587255875,-0.6705114334,-0.7265797449,0.1456346507
7.1800,-0.03589142129,-0.6706626897,-0.7264766315,0.1454478131
7.1850,-0.0359078737,-0.6708065723,-0.7263792727,0.1452663738
7.1900,-0.03592110394,-0.670944352,-0.7262868219,0.1450889487
7.1950,-0.03593019685,-0.6710767179,-0.7261988129,0.1449149535
7.2000,-0.03593575072,-0.6712023093,-0.726116715,0.1447432141
7.2050,-0.03593778386,-0.6713230154,-0.7260390799,0.1445722628
7.2100,-0.03593816698,-0.6714384603,-0.7259661441,0.1444022151
7.2150,-0.03593665165,-0.6715489797,-0.7258977579,0.1442323472
7.2200,-0.03593386117,-0.6716550715,-0.7258337794,0.1440609152
7.2250,-0.03592779426,-0.6717571098,-0.7257739789,0.1438878402
7.2300,-0.03591869405,-0.6718557145,-0.7257181473,0.1437112278
7.2350,-0.03590482937,-0.6719522572,-0.7256649633,0.1435317672
7.2400,-0.03588583325,-0.6720471333,-0.7256140562,0.1433495691
7.2450,-0.03585958129,-0.672140792,-0.7255650268,0.1431650725
7.2500,-0.03582547907,-0.672234308,-0.7255170467,0.142977569
7.2550,-0.03578142587,-0.6723276259,-0.7254702635,0.1427870782
7.2600,-0.03572876747,-0.6724211124,-0.7254241856,0.142594017
7.2650,-0.03566586807,-0.6725166807,-0.7253769504,0.1423992273
7.2700,-0.03559221662,-0.6726137733,-0.7253292944,0.1422016906
7.2750,-0.03550733796,-0.6727140666,-0.72527926,0.1420035509
7.2800,-0.03541087138,-0.6728173287,-0.7252270377,0.1418049939
7.2850,-0.03530161174,-0.6729235547,-0.7251722117,0.1416084359
7.2900,-0.03517936912,-0.6730314054,-0.7251160128,0.1414139575
7.2950,-0.03504423779,-0.673141491,-0.7250577384,0.1412222024
7.3000,-0.03489475874,-0.6732537806,-0.7249971419,0.1410349137
7.3050,-0.0347317696,-0.6733676651,-0.7249345462,0.1408530991
7.3100,-0.03455417956,-0.673483557,-0.7248694046,0.1406778353
7.3150,-0.03436145401,-0.6736011424,-0.7248015833,0.1405114099
7.3200,-0.0341547281,-0.6737192561,-0.7247321484,0.1403535948
7.3250,-0.03393325966,-0.673837898,-0.7246605636,0.140207306
7.3300,-0.03369784844,-0.6739566913,-0.7245869243,0.140073632
7.3350,-0.03344895957,-0.6740756413,-0.724510856,0.139954337
7.3400,-0.03318663491,-0.674193977,-0.7244332454,0.1398484953
7.3450,-0.03291192837,-0.6743122487,-0.7243533407,0.1397570533
7.3500,-0.03262810877,-0.6744288041,-0.7242723369,0.139680982
7.3550,-0.03233380967,-0.6745434202,-0.7241907915,0.1396187544
7.3600,-0.03203016646,-0.6746555715,-0.7241089881,0.1395711351
7.3650,-0.03171734779,-0.6747658778,-0.7240263285,0.1395381512
7.3700,-0.03139593829,-0.674873274,-0.7239435396,0.1395210041
7.3750,-0.0310665657,-0.6749779548,-0.7238605064,0.1395191615
7.3800,-0.03073082177,-0.6750796256,-0.7237775605,0.1395319266
7.3850,-0.03038772736,-0.6751768382,-0.7236959579,0.1395599644
7.3900,-0.03003785649,-0.6752702618,-0.7236149816,0.1396035783
7.3950,-0.02968186057,-0.6753588618,-0.7235353134,0.1396640439
7.4000,-0.02932028373,-0.6754429476,-0.7234568127,0.1397404223
7.4050,-0.02895470536,-0.6755220425,-0.7233796438,0.1398337804
7.4100,-0.02858418319,-0.6755959685,-0.7233042542,0.139942801
7.4150,-0.02821068734,-0.6756642049,-0.7232307791,0.1400688387
7.4200,-0.0278336911,-0.6757258661,-0.7231600433,0.1402119518
7.4250,-0.02745511176,-0.6757789758,-0.7230937476,0.1403724506
7.4300,-0.02707479295,-0.6758251239,-0.7230300928,0.1405519208
7.4350,-0.02669294934,-0.6758636799,-0.7229698968,0.1407490705
7.4400,-0.02631081412,-0.6758935154,-0.7229144028,0.1409626299
7.4450,-0.02592746115,-0.6759144293,-0.7228637125,0.1411931451
7.4500,-0.02554415103,-0.6759278201,-0.7228164435,0.1414406851
7.4550,-0.02516042024,-0.6759326999,-0.7227737215,0.1417042201
7.4600,-0.02477633234,-0.6759280471,-0.7227365874,0.1419832164
7.4650,-0.02439136372,-0.6759154529,-0.7227035524,0.1422776763
7.4700,-0.02400649157,-0.6758941232,-0.7226756542,0.142585839
7.4750,-0.02362111323,-0.6758657619,-0.7226513478,0.1429074678
7.4800,-0.0232356262,-0.6758291027,-0.7226320856,0.14324105
7.4850,-0.02285036095,-0.6757863001,-0.7226165085,0.1435831439
7.4900,-0.02246669551,-0.6757368273,-0.722604785,0.1439350982
7.4950,-0.02208442272,-0.6756812655,-0.7225969842,0.1442938121
7.5000,-0.02170380478,-0.6756191319,-0.7225940957,0.1446565114
7.5050,-0.02132358287,-0.6755517239,-0.7225949376,0.145023203
7.5100,-0.02094408398,-0.6754782755,-0.7226002987,0.1453934421
7.5150,-0.02056398313,-0.6753999469,-0.7226097194,0.1457642882
7.5200,-0.02018252229,-0.6753168709,-0.7226229191,0.1461366022
7.5250,-0.01980038002,-0.675229234,-0.7226396218,0.1465107625
7.5300,-0.01941513623,-0.6751380183,-0.7226592764,0.1468852575
7.5350,-0.01902691132,-0.6750427834,-0.722682047,0.1472612516
7.5400,-0.01863581707,-0.6749439425,-0.7227078505,0.1476372028
7.5450,-0.01824194256,-0.6748423199,-0.7227360177,0.1480125788
7.5500,-0.01784431216,-0.6747378066,-0.7227669624,0.1483859527
7.5550,-0.01744343026,-0.6746319473,-0.7227987915,0.1487594345
7.5600,-0.01703575062,-0.6745242903,-0.7228325656,0.1491303023
7.5650,-0.01662390941,-0.6744142375,-0.7228682942,0.1495008734
7.5700,-0.0162053378,-0.6743037481,-0.722904331,0.1498705128
7.5750,-0.01578064248,-0.6741914718,-0.7229418299,0.1502396132
7.5800,-0.01535038993,-0.674079259,-0.7229789775,0.1506084867
7.5850,-0.01491313371,-0.6739671284,-0.7230161362,0.1509754124
7.5900,-0.01446911854,-0.6738562985,-0.7230519472,0.1513413863
7.5950,-0.01401702755,-0.6737468752,-0.7230860331,0.1517078107
7.6000,-0.01355767296,-0.6736381472,-0.7231191784,0.1520739621
7.6050,-0.0130903745,-0.6735307447,-0.7231506132,0.152440705
7.6100,-0.01261444263,-0.6734244539,-0.723180778,0.1528068817
7.6150,-0.01213026483,-0.6733199254,-0.7232090815,0.1531723185
7.6200,-0.01163669233,-0.6732170212,-0.7232353729,0.1535383509
7.6250,-0.01113504244,-0.6731146968,-0.7232606572,0.1539046378
7.6300,-0.01062511655,-0.6730151003,-0.7232831952,0.1542698971
7.6350,-0.01010656948,-0.6729163935,-0.7233044762,0.1546351166
7.6400,-0.009579140411,-0.6728195845,-0.7233238218,0.1549990179
7.6450,-0.009043519116,-0.6727226018,-0.7233426521,0.1553638423
7.6500,-0.008497855746,-0.6726274471,-0.723359275,0.1557288128
7.6550,-0.00794542212,-0.6725333019,-0.7233742108,0.1560947766
7.6600,-0.007384931349,-0.6724401545,-0.7233876519,0.1564608786
7.6650,-0.006815775478,-0.6723469375,-0.7233999287,0.156830112
7.6700,-0.006237847541,-0.6722558857,-0.7234093102,0.1572007741
7.6750,-0.005651718106,-0.6721645146,-0.7234175734,0.1575751818
7.6800,-0.005055497114,-0.6720733729,-0.7234243745,0.1579525174
7.6850,-0.004451992311,-0.6719827323,-0.7234291114,0.1583341658
7.6900,-0.003842037363,-0.6718923279,-0.7234325788,0.1587174925
7.6950,-0.003226071994,-0.6718024856,-0.7234342926,0.159103228
7.7000,-0.0026051613,-0.6717132582,-0.7234345252,0.1594898104
7.7050,-0.001979389377,-0.6716249377,-0.723432913,0.1598775955
7.7100,-0.00134944451,-0.6715356543,-0.7234310463,0.1602671682
7.7150,-0.0007155123573,-0.6714462579,-0.723428234,0.160658025
7.7200,-7.776297366e-5,-0.6713565718,-0.7234248055,0.161049366
7.7250,0.0005620848456,-0.6712661724,-0.7234209647,0.1614419949
7.7300,0.001203334327,-0.6711746887,-0.7234170217,0.1618360344
7.7350,0.001845340469,-0.6710818751,-0.723413278,0.1622311339
7.7400,0.00248743741,-0.6709880894,-0.7234096014,0.1626263973
7.7450,0.003128362381,-0.6708927564,-0.7234059593,0.1630243563
7.7500,0.003766452966,-0.6707955125,-0.7234031809,0.1634228628
7.7550,0.004401478339,-0.6706954197,-0.7234015856,0.1638243784
7.7600,0.005032801994,-0.6705944958,-0.7233999845,0.1642259286
7.7650,0.00565868998,-0.6704909572,-0.7233995829,0.1646295814
7.7700,0.006278038417,-0.6703855488,-0.7233998016,0.1650349336
7.7750,0.006889812323,-0.6702780233,-0.7234009959,0.1654415338
7.7800,0.007493084363,-0.6701681696,-0.7234034856,0.1658489526
7.7850,0.008087503117,-0.670055974,-0.7234068274,0.1662592734
7.7900,0.008673897542,-0.6699410578,-0.7234120416,0.1666696155
7.7950,0.009252170188,-0.6698230486,-0.7234192718,0.1670809327
7.8000,0.009820779268,-0.6697033734,-0.7234265633,0.1674961236
7.8050,0.01037993236,-0.6695811135,-0.7234354802,0.1679121655
7.8100,0.01093038645,-0.6694579427,-0.7234443143,0.1683297767
7.8150,0.01147138279,-0.6693328292,-0.7234538079,0.1687499898
7.8200,0.01200281704,-0.6692056943,-0.7234646006,0.1691704548
7.8250,0.01252566689,-0.6690784287,-0.7234752966,0.1695896789
7.8300,0.0130392651,-0.6689491214,-0.7234871256,0.1700100872
7.8350,0.01354521694,-0.6688192463,-0.7234993928,0.1704287872
7.8400,0.01404307476,-0.6686886439,-0.7235120266,0.170846823
7.8450,0.01453489803,-0.6685562065,-0.7235262022,0.1712634528
7.8500,0.01502171292,-0.6684223084,-0.7235406627,0.1716824838
7.8550,0.01550302753,-0.6682860981,-0.7235568259,0.1721013275
7.8600,0.01597771746,-0.6681485508,-0.7235731252,0.1725229233
7.8650,0.01644866127,-0.6680086082,-0.7235909576,0.1729452715
7.8700,0.01691200147,-0.6678654211,-0.7236109544,0.1733694036
7.8750,0.01737098625,-0.6677194715,-0.7236330534,0.1737934415
7.8800,0.01782463933,-0.6675695726,-0.723658638,0.1742163127
7.8850,0.01827141251,-0.6674162408,-0.7236869189,0.1746395157
7.8900,0.01871223537,-0.6672596382,-0.7237177674,0.1750629048
7.8950,0.01914502462,-0.6670992061,-0.723752215,0.1754846106
7.9000,0.01957064592,-0.6669354715,-0.7237895933,0.1759053475
7.9050,0.01999101492,-0.666767774,-0.7238309157,0.1763232835
7.9100,0.02040349843,-0.6665972708,-0.7238750192,0.1767391647
7.9150,0.02081055731,-0.6664216438,-0.7239243024,0.1771516802
7.9200,0.02121072436,-0.666242976,-0.7239772535,0.1775593943
7.9250,0.02160565132,-0.666060617,-0.7240347168,0.1779611731
7.9300,0.02199456139,-0.6658741415,-0.7240974432,0.178355711
7.9350,0.02237875785,-0.6656851427,-0.7241640961,0.1787423954
7.9400,0.02275859004,-0.6654927257,-0.724235705,0.1791204126
7.9450,0.0231334543,-0.6652982901,-0.7243113596,0.1794883919
7.9500,0.02350479749,-0.6651006726,-0.7243923727,0.1798452397
7.9550,0.02387407325,-0.6649011622,-0.724477406,0.1801914573
7.9600,0.02424117036,-0.6646997348,-0.724566687,0.1805262981
7.9650,0.02460654011,-0.6644976184,-0.7246594487,0.1808483255
7.9700,0.0249700101,-0.6642939648,-0.7247567709,0.181156424
7.9750,0.02533235288,-0.6640914338,-0.7248562428,0.1814504524
7.9800,0.02569372839,-0.6638896415,-0.7249583218,0.1817300409
7.9850,0.02605568386,-0.6636890383,-0.7250623875,0.1819958682
7.9900,0.02641761579,-0.6634905875,-0.7251672573,0.1822492769
7.9950,0.02677985585,-0.6632947914,-0.7252724543,0.1824903451
8.0000,0.02714416665,-0.6631018088,-0.7253772296,0.1827212637
8.0050,0.02750929687,-0.6629112785,-0.7254822389,0.1829409643
8.0100,0.02787502801,-0.6627242409,-0.7255866855,0.1831489151
8.0150,0.0282391978,-0.6625410745,-0.7256902289,0.1833454769
8.0200,0.02860222534,-0.6623618545,-0.7257923444,0.1835324474
8.0250,0.02896423011,-0.6621880443,-0.7258919783,0.1837087457
8.0300,0.02932439329,-0.6620193477,-0.7259893996,0.1838745628
8.0350,0.02968246682,-0.6618552821,-0.7260849777,0.1840302745
8.0400,0.03003879191,-0.661696201,-0.7261780058,0.1841773942
8.0450,0.03039224214,-0.6615423649,-0.72626875,0.1843141717
8.0500,0.03074413048,-0.6613935096,-0.7263570923,0.1844418565
8.0550,0.03109473566,-0.6612500749,-0.7264427235,0.1845600857
8.0600,0.03144370082,-0.6611110231,-0.7265260823,0.1846709523
8.0650,0.03179119115,-0.6609761291,-0.7266081496,0.1847714097
8.0700,0.03213673138,-0.6608457788,-0.7266878635,0.1848643728
8.0750,0.03248189411,-0.660718835,-0.7267665534,0.1849484373
8.0800,0.0328266639,-0.6605945994,-0.7268442362,0.1850260569
8.0850,0.03317204318,-0.660473268,-0.7269206636,0.1850973437
8.0900,0.03351800651,-0.6603548289,-0.7269955065,0.1851636483
8.0950,0.03386298615,-0.6602394411,-0.7270685187,0.1852256669
8.1000,0.03420850821,-0.6601269852,-0.7271400958,0.185282008
8.1050,0.03455449012,-0.6600179103,-0.7272092722,0.1853348853
8.1100,0.03489932821,-0.6599116772,-0.7272769517,0.1853829838
8.1150,0.03524283126,-0.6598083791,-0.7273427203,0.1854276485
8.1200,0.03558528072,-0.6597078817,-0.727406797,0.1854684618
8.1250,0.03592526626,-0.6596091664,-0.7274696103,0.185507652
8.1300,0.03626240656,-0.6595130943,-0.7275311469,0.1855423041
8.1350,0.03659305484,-0.6594187907,-0.7275918512,0.1855745263
8.1400,0.03691909814,-0.6593250855,-0.7276527939,0.1856039421
8.1450,0.03723979003,-0.659232435,-0.727713464,0.1856311099
8.1500,0.03755132641,-0.6591413276,-0.7277743373,0.1856532308
8.1550,0.037854363,-0.6590506784,-0.7278363264,0.1856704946
8.1600,0.03814754994,-0.6589604828,-0.7278993941,0.1856833826
8.1650,0.03843110921,-0.6588718044,-0.727962417,0.185692527
8.1700,0.03870485104,-0.6587847902,-0.7280254116,0.1856974279
8.1750,0.03896813151,-0.6586985441,-0.7280884935,0.1857009916
8.1800,0.0392199931,-0.6586138052,-0.7281512079,0.1857026281
8.1850,0.0394621434,-0.6585298882,-0.7282138376,0.1857033448
8.1900,0.03969442262,-0.6584462061,-0.7282775341,0.1857007801
8.1950,0.03991679267,-0.6583638201,-0.7283412794,0.1856952096
8.2000,0.0401282477,-0.6582817076,-0.7284059085,0.1856872362
8.2050,0.04032791952,-0.658201113,-0.7284705337,0.1856761573
8.2100,0.04051645675,-0.6581205242,-0.7285364721,0.1856620617
8.2150,0.04069104878,-0.6580417031,-0.7286022691,0.1856450621
8.2200,0.04085494028,-0.6579624122,-0.728669581,0.1856259132
8.2250,0.04100740978,-0.6578840382,-0.7287374971,0.1856034618
8.2300,0.04115017381,-0.6578059454,-0.7288062094,0.1855788522
8.2350,0.0412829625,-0.6577277724,-0.7288762338,0.185551422
8.2400,0.0414044537,-0.6576502385,-0.7289470635,0.185520925
8.2450,0.04151639217,-0.6575733379,-0.7290186525,0.1854871932
8.2500,0.04161854404,-0.6574973176,-0.7290912781,0.1854483277
8.2550,0.04171019011,-0.6574216334,-0.7291655932,0.1854038665
8.2600,0.04179269021,-0.6573471192,-0.7292406374,0.1853543326
8.2650,0.04186388577,-0.6572716535,-0.7293185118,0.1852994791
8.2700,0.04192576672,-0.6571960757,-0.7293982622,0.1852396376
8.2750,0.0419788489,-0.6571189296,-0.7294815397,0.1851733561
8.2800,0.04202366731,-0.6570415902,-0.7295667953,0.1851017325
8.2850,0.04205973951,-0.6569632644,-0.7296550927,0.1850234938
8.2900,0.04208858493,-0.656883299,-0.7297467863,0.1849392076
8.2950,0.04211164519,-0.6568016357,-0.7298415817,0.1848499021
8.3000,0.04212782228,-0.6567191417,-0.7299390233,0.1847545336
8.3050,0.0421384247,-0.6566349726,-0.7300391458,0.1846556567
8.3100,0.04214222553,-0.6565499716,-0.7301414986,0.1845523224
8.3150,0.04214091148,-0.6564633352,-0.7302462089,0.1844464895
8.3200,0.04213208517,-0.6563757449,-0.7303527961,0.1843381732
8.3250,0.04211731897,-0.6562859848,-0.7304620637,0.1842281496
8.3300,0.04209712777,-0.6561932559,-0.7305743972,0.1841176061
8.3350,0.0420719967,-0.6560985842,-0.730688874,0.1840064249
8.3400,0.04204181936,-0.655999678,-0.7308074744,0.1838949245
8.3450,0.04200799339,-0.6558962443,-0.7309301798,0.183783888
8.3500,0.04197091693,-0.6557879864,-0.7310571538,0.1836736155
8.3550,0.04192841317,-0.6556744689,-0.731189181,0.1835630152
8.3600,0.04188235564,-0.6555553486,-0.7313263826,0.1834523791
8.3650,0.04183204941,-0.6554306089,-0.7314683091,0.1833436919
8.3700,0.04177833634,-0.6552997446,-0.7316158508,0.1832349917
8.3750,0.04171997784,-0.655163342,-0.731768196,0.1831276767
8.3800,0.04165619605,-0.6550216055,-0.7319249454,0.1830227637
8.3850,0.04158581795,-0.654874604,-0.7320867635,0.1829175867
8.3900,0.04150763703,-0.6547215333,-0.7322544734,0.1828119692
8.3950,0.04142206695,-0.6545631064,-0.7324274819,0.182705599
8.4000,0.04133005006,-0.6543973666,-0.732607535,0.1825982287
8.4050,0.0412305804,-0.6542234117,-0.7327954738,0.1824898911
8.4100,0.04112520887,-0.6540404438,-0.7329912864,0.1823830833
8.4150,0.04101460643,-0.6538492873,-0.7331951317,0.182273998
8.4200,0.04089981117,-0.6536484941,-0.7334072702,0.1821664831
8.4250,0.04078195753,-0.6534382548,-0.7336282396,0.1820573677
8.4300,0.0406610088,-0.6532188865,-0.7338568254,0.1819503464
8.4350,0.0405379542,-0.6529893122,-0.7340942589,0.1818440307
8.4400,0.04041118511,-0.6527510318,-0.7343392428,0.1817385571
8.4450,0.04027902413,-0.6525033741,-0.7345923957,0.1816341356
8.4500,0.04014380242,-0.6522460843,-0.7348536034,0.1815315461
8.4550,0.04000487109,-0.6519809251,-0.735121574,0.181429752
8.4600,0.03986257632,-0.6517063221,-0.7353977352,0.1813284749
8.4650,0.03971432617,-0.6514231604,-0.7356817164,0.1812265174
8.4700,0.03956162532,-0.6511301124,-0.7359749114,0.1811225671
8.4750,0.03940198514,-0.6508292628,-0.7362758728,0.1810154507
8.4800,0.03923797569,-0.6505192798,-0.7365856864,0.1809048769
8.4850,0.03906863755,-0.6502008284,-0.7369041948,0.1807891925
8.4900,0.03889296861,-0.6498751935,-0.7372296902,0.1806708437
8.4950,0.0387110057,-0.6495437465,-0.7375613133,0.1805482997
8.5000,0.03852325842,-0.6492060252,-0.7378995338,0.1804211002
8.5050,0.03832918929,-0.6488628186,-0.7382436808,0.1802891669
8.5100,0.03812929154,-0.6485151697,-0.7385926055,0.1801532538
8.5150,0.03792407185,-0.6481638078,-0.7389457555,0.180012815
8.5200,0.03771156689,-0.6478100054,-0.7393022597,0.1798671828
8.5250,0.03749286268,-0.6474541357,-0.7396614835,0.1797173256
8.5300,0.03726761511,-0.6470968319,-0.7400223671,0.1795653396
8.5350,0.03703806923,-0.6467368513,-0.7403860592,0.1794104511
8.5400,0.03680448998,-0.6463747279,-0.7407516646,0.1792543223
8.5450,0.0365676234,-0.6460099209,-0.7411193541,0.1790980008
8.5500,0.03632664768,-0.6456427166,-0.7414882461,0.1789442314
8.5550,0.0360837359,-0.6452731513,-0.7418581019,0.1787934027
8.5600,0.03583791811,-0.6449012757,-0.7422289458,0.1786454037
8.5650,0.0355906384,-0.6445280708,-0.7425996031,0.1785012657
8.5700,0.03534219179,-0.6441535037,-0.7429700392,0.1783611898
8.5750,0.03508913718,-0.6437768383,-0.7433405085,0.1782274482
8.5800,0.03483206633,-0.6433981079,-0.7437110767,0.1780995126
8.5850,0.0345720183,-0.6430181484,-0.7440807063,0.1779784785
8.5900,0.03430643127,-0.642636565,-0.7444500522,0.1778635259
8.5950,0.03403474296,-0.6422535839,-0.7448185922,0.1777561107
8.6000,0.03375589575,-0.6418686068,-0.7451869429,0.1776559914
8.6050,0.03346785018,-0.6414819978,-0.7455546861,0.177563959
8.6100,0.03317166422,-0.6410924413,-0.7459227506,0.1774806255
8.6150,0.03286698954,-0.6406997491,-0.746291221,0.1774063304
8.6200,0.03255615032,-0.6403029675,-0.7466605278,0.1773422203
8.6250,0.03224009577,-0.6399030773,-0.7470298846,0.1772878434
8.6300,0.03191886106,-0.6394989049,-0.747400241,0.177243383
8.6350,0.0315920963,-0.6390901201,-0.7477716012,0.1772100176
8.6400,0.03126113434,-0.6386776431,-0.748143182,0.1771874399
8.6450,0.03092482984,-0.6382606015,-0.7485155081,0.17717673
8.6500,0.03058315263,-0.6378397251,-0.7488876866,0.1771789735
8.6550,0.03023714755,-0.6374150151,-0.7492593111,0.1771956494
8.6600,0.02988531047,-0.6369855042,-0.7496309,0.1772282413
8.6650,0.02952870993,-0.6365518508,-0.750001742,0.1772771377
8.6700,0.02916734447,-0.6361136396,-0.7503719402,0.1773433249
8.6750,0.02880214078,-0.6356705402,-0.7507417336,0.1774267469
8.6800,0.02843341909,-0.6352212413,-0.7511125087,0.1775260956
8.6850,0.02806231041,-0.6347645281,-0.7514847155,0.1776435278
8.6900,0.02768987332,-0.6343004515,-0.7518581496,0.1777794446
8.6950,0.02731761684,-0.6338282293,-0.7522335506,0.1779331585
8.7000,0.02694489969,-0.6333472185,-0.7526112512,0.1781055243
8.7050,0.02657264395,-0.6328579691,-0.7529913053,0.178294082
8.7100,0.0261996455,-0.6323601908,-0.7533742552,0.1784976169
8.7150,0.02582668429,-0.6318531528,-0.7537604266,0.178717081
8.7200,0.02545055651,-0.6313380982,-0.7541496951,0.1789489098
8.7250,0.02506998563,-0.6308133499,-0.7545433614,0.1791935526
8.7300,0.02468681843,-0.6302786741,-0.7549421009,0.179448539
8.7350,0.02430136168,-0.6297351754,-0.7553449401,0.1797138674
8.7400,0.02391541409,-0.6291810179,-0.7557530141,0.1799907812
8.7450,0.02352933894,-0.6286165632,-0.7561664881,0.1802770895
8.7500,0.02314403519,-0.628041035,-0.7565861784,0.1805717771
8.7550,0.02275940176,-0.6274537979,-0.7570130074,0.1808730158
8.7600,0.02237537329,-0.6268566583,-0.757445925,0.1811787607
8.7650,0.02199283181,-0.6262501957,-0.7578846112,0.1814880817
8.7700,0.02161263955,-0.6256363649,-0.7583276793,0.1817997895
8.7750,0.02123407283,-0.6250152284,-0.7587755512,0.1821118923
8.7800,0.02085533815,-0.6243891392,-0.7592261266,0.1824251803
8.7850,0.02047627156,-0.6237596098,-0.7596787575,0.1827371252
8.7900,0.02009573085,-0.6231266753,-0.760133631,0.1830469098
8.7950,0.01971475841,-0.6224895176,-0.7605917079,0.1833531637
8.8000,0.01933358873,-0.6218512599,-0.7610507215,0.1836546274
8.8050,0.01895410568,-0.6212113356,-0.7615111569,0.1839510159
8.8100,0.01857592382,-0.6205708619,-0.7619726882,0.1842399598
8.8150,0.01819978892,-0.619930978,-0.7624343594,0.1845215375
8.8200,0.01782714938,-0.6192915247,-0.7628966926,0.1847940382
8.8250,0.01745905135,-0.6186544226,-0.7633583343,0.185056587
8.8300,0.01709558716,-0.6180202023,-0.7638195361,0.1853064671
8.8350,0.01673683917,-0.6173903741,-0.7642793022,0.1855428585
8.8400,0.01638484627,-0.6167646142,-0.7647377943,0.1857661257
8.8450,0.01604006791,-0.6161447594,-0.765194234,0.185973482
8.8500,0.01570539296,-0.6155314056,-0.7656484375,0.1861636364
8.8550,0.01537997967,-0.6149258938,-0.7660991933,0.186337402
8.8600,0.01506393997,-0.6143293155,-0.7665455898,0.1864951167
8.8650,0.01475823785,-0.6137418337,-0.7669872404,0.1866379625
8.8700,0.01446216178,-0.6131634391,-0.7674235636,0.1867686183
8.8750,0.01418005418,-0.6125970693,-0.767852703,0.1868849467
8.8800,0.01390983669,-0.6120418094,-0.7682751045,0.1869885124
8.8850,0.01365068938,-0.6114988333,-0.7686897296,0.1870800234
8.8900,0.01340509124,-0.6109690442,-0.7690951859,0.1871622975
8.8950,0.01316970699,-0.610452754,-0.7694917294,0.187233737
8.9000,0.01294450801,-0.6099506317,-0.7698781976,0.1872971637
8.9050,0.01272780711,-0.6094629547,-0.7702545405,0.1873522155
8.9100,0.01251836077,-0.6089901319,-0.77062005,0.1874007694
8.9150,0.01231386649,-0.608531765,-0.7709750554,0.187443121
8.9200,0.01211269865,-0.6080880187,-0.7713194358,0.1874795243
8.9250,0.01191178796,-0.6076573954,-0.7716540423,0.1875117014
8.9300,0.01171081878,-0.6072393968,-0.7719793764,0.1875393665
8.9350,0.01150965589,-0.6068329387,-0.7722955303,0.1875657916
8.9400,0.01130787925,-0.6064354998,-0.7726043686,0.1875915938
8.9450,0.01110527081,-0.6060467355,-0.7729060228,0.187617449
8.9500,0.01090173709,-0.6056651613,-0.7732015507,0.1876438822
8.9550,0.01069576526,-0.6052887161,-0.7734923893,0.1876717733
8.9600,0.01048899397,-0.6049169241,-0.7737786264,0.1877022464
8.9650,0.01028164635,-0.6045463588,-0.7740629601,0.1877352435
8.9700,0.01007397976,-0.6041767285,-0.7743454482,0.1877714635
8.9750,0.009867332823,-0.6038063939,-0.774627308,0.1878110968
8.9800,0.009661986847,-0.6034346739,-0.7749086991,0.1878556585
8.9850,0.009459216249,-0.6030594274,-0.7751909564,0.1879064431
8.9900,0.009258265306,-0.6026816936,-0.7754731887,0.1879638112
8.9950,0.009058267679,-0.6022997866,-0.775756806,0.1880273726
9.0000,0.008857853989,-0.6019150339,-0.7760406135,0.1880978378
9.0050,0.008656557828,-0.6015252626,-0.7763258814,0.1881769072
9.0100,0.008454839082,-0.6011297052,-0.7766134054,0.1882636762
9.0150,0.008253135382,-0.6007286504,-0.7769023526,0.1883605821
9.0200,0.008051705141,-0.6003213014,-0.7771931031,0.1884685268
9.0250,0.007850748031,-0.5999082331,-0.7774850349,0.1885881705
9.0300,0.007647826012,-0.5994896361,-0.7777779937,0.1887195789
9.0350,0.007442947305,-0.5990639531,-0.7780730524,0.1888631983
9.0400,0.007234623185,-0.5986338232,-0.7783683668,0.1890182306
9.0450,0.007022362024,-0.5981980371,-0.7786651481,0.1891834611
9.0500,0.00680416358,-0.5977566251,-0.7789629873,0.1893604631
9.0550,0.006579112978,-0.5973097338,-0.779261606,0.1895498523
9.0600,0.006346477997,-0.5968585371,-0.7795602712,0.1897508695
9.0650,0.006105482707,-0.596401004,-0.7798604085,0.1899639671
9.0700,0.005855957635,-0.5959378787,-0.7801611424,0.1901902847
9.0750,0.005595756474,-0.5954691143,-0.7804627212,0.1904288901
9.0800,0.005325828384,-0.5949946348,-0.7807652117,0.1906795856
9.0850,0.005045156418,-0.5945144542,-0.7810686486,0.1909420755
9.0900,0.004754805207,-0.5940294057,-0.7813731035,0.1912133103
9.0950,0.004455916056,-0.5935402857,-0.7816775321,0.1914949341
9.1000,0.004149640159,-0.5930462625,-0.7819827858,0.191785906
9.1050,0.003836739336,-0.5925469952,-0.7822890696,0.1920863075
9.1100,0.003518578635,-0.5920417814,-0.7825972538,0.1923946127
9.1150,0.003197604581,-0.5915321365,-0.7829063309,0.192710103
9.1200,0.002873145362,-0.5910187735,-0.7832158571,0.1930323176
9.1250,0.002545479864,-0.5905010815,-0.7835261717,0.19336166
9.1300,0.002214920417,-0.5899800387,-0.7838369581,0.1936963376
9.1350,0.001880151282,-0.5894560707,-0.784147457,0.1940380671
9.1400,0.001541888912,-0.5889307551,-0.784457187,0.1943839243
9.1450,0.001200793087,-0.5884029996,-0.7847668067,0.1947345046
9.1500,0.0008549556976,-0.5878733618,-0.7850757574,0.1950903246
9.1550,0.0005060464848,-0.5873411943,-0.785385054,0.1954491809
9.1600,0.0001546498653,-0.5868067188,-0.7856947313,0.1958102145
9.1650,-0.0001985998115,-0.5862722812,-0.7860035555,0.1961713118
9.1700,-0.0005552239833,-0.5857366622,-0.7863129587,0.1965303673
9.1750,-0.0009162643451,-0.5852011282,-0.7866218601,0.1968879105
9.1800,-0.001282355481,-0.5846652464,-0.7869307712,0.1972431658
9.1850,-0.001654093352,-0.584130046,-0.7872392391,0.1975948729
9.1900,-0.002033713651,-0.5835949513,-0.7875475605,0.1979435192
9.1950,-0.002419338541,-0.5830608846,-0.7878554459,0.1982875386
9.2000,-0.002811649548,-0.5825266725,-0.7881637573,0.198626942
9.2050,-0.003209623663,-0.5819926688,-0.7884726666,0.1989600105
9.2100,-0.003613297364,-0.5814592667,-0.788781332,0.1992889248
9.2150,-0.004020287603,-0.5809266435,-0.7890898563,0.1996128024
9.2200,-0.004429703356,-0.5803931707,-0.7893995514,0.1999312215
9.2250,-0.004841907714,-0.5798594743,-0.7897097397,0.2002450322
9.2300,-0.005254006632,-0.579325273,-0.7900207305,0.2005539052
9.2350,-0.005665592121,-0.5787909932,-0.7903328187,0.2008554777
9.2400,-0.006076873887,-0.5782562883,-0.7906456843,0.2011520284
9.2450,-0.006486072705,-0.5777213232,-0.7909591827,0.2014437262
9.2500,-0.006893743553,-0.5771838313,-0.7912748842,0.2017309069
9.2550,-0.007297038447,-0.5766447301,-0.791592175,0.2020134571
9.2600,-0.00769646862,-0.576103166,-0.7919117004,0.2022912881
9.2650,-0.008092263275,-0.5755591539,-0.7922330349,0.2025660238
9.2700,-0.008484258874,-0.575012523,-0.7925563389,0.2028375347
9.2750,-0.008874987002,-0.5744624309,-0.7928823071,0.2031053844
9.2800,-0.009262881809,-0.573910163,-0.7932104448,0.2033679278
9.2850,-0.009649529875,-0.5733578318,-0.7935392999,0.203624809
9.2900,-0.01003553675,-0.5728033903,-0.7938700478,0.2038771965
9.2950,-0.01042310354,-0.5722462458,-0.7942025469,0.2041271846
9.3000,-0.01081032575,-0.5716861136,-0.7945369459,0.2043750621
9.3050,-0.01119822715,-0.5711235079,-0.7948728081,0.2046210094
9.3100,-0.01158677367,-0.5705598077,-0.7952083484,0.2048680922
9.3150,-0.01197795965,-0.5699938386,-0.7955446968,0.2051150601
9.3200,-0.01236942797,-0.5694267999,-0.7958804796,0.2053640159
9.3250,-0.01276084933,-0.5688575132,-0.7962163834,0.2056155665
9.3300,-0.01315220857,-0.5682871908,-0.7965512421,0.2058708502
9.3350,-0.0135443168,-0.5677169483,-0.7968845123,0.2061288245
9.3400,-0.01393896683,-0.5671458454,-0.7972166137,0.2063903246
9.3450,-0.01433639251,-0.5665751099,-0.7975462508,0.2066569394
9.3500,-0.01473517399,-0.5660049372,-0.7978736656,0.2069272806
9.3550,-0.01513395744,-0.5654361407,-0.7981976721,0.2072037895
9.3600,-0.01553304651,-0.5648671055,-0.798518893,0.2074884457
9.3650,-0.01593072833,-0.5643001804,-0.7988357226,0.2077811505
9.3700,-0.0163273672,-0.5637351935,-0.7991487153,0.2080802235
9.3750,-0.01671992154,-0.563172656,-0.7994573396,0.2083865778
9.3800,-0.01710741002,-0.5626130549,-0.7997619002,0.2086978434
9.3850,-0.01748844657,-0.5620580431,-0.8000611881,0.2090143672
9.3900,-0.01786374948,-0.5615077648,-0.8003545692,0.2093381955
9.3950,-0.01823292445,-0.5609628327,-0.8006419011,0.2096683263
9.4000,-0.01859695852,-0.560424733,-0.8009224483,0.21000358
9.4050,-0.01895737213,-0.5598953461,-0.8011952521,0.2103425477
9.4100,-0.01931419266,-0.5593769368,-0.8014591671,0.2106836681
9.4150,-0.01967054463,-0.5588684201,-0.8017148456,0.2110271666
9.4200,-0.02002630985,-0.5583703967,-0.8019622004,0.2113718905
9.4250,-0.02038250639,-0.557882695,-0.8022020366,0.211715244
9.4300,-0.02073906423,-0.5574048605,-0.8024346724,0.2120573255
9.4350,-0.02109592268,-0.5569372335,-0.8026605691,0.2123955997
9.4400,-0.02145052108,-0.5564788229,-0.8028800096,0.2127319558
9.4450,-0.0218032964,-0.5560301794,-0.8030928845,0.2130654236
9.4500,-0.02215168172,-0.5555911059,-0.8032996345,0.2133952276
9.4550,-0.0224965938,-0.5551632594,-0.8034992622,0.2137208326
9.4600,-0.02283846081,-0.5547464684,-0.8036919575,0.2140420471
9.4650,-0.02317582664,-0.5543385789,-0.8038794874,0.21435809
9.4700,-0.02350708868,-0.5539422249,-0.8040598611,0.2146699047
9.4750,-0.02383384649,-0.5535550713,-0.8042346236,0.2149776756
9.4800,-0.02415144478,-0.5531778731,-0.8044031133,0.2152825578
9.4850,-0.02445869007,-0.5528087283,-0.8045668509,0.2155840088
9.4900,-0.02475689679,-0.5524487669,-0.8047256914,0.2158796369
9.4950,-0.02504624402,-0.5520978104,-0.804879732,0.2161696337
9.5000,-0.0253274399,-0.5517564465,-0.8050290758,0.2164521464
9.5050,-0.02560013197,-0.5514245836,-0.8051738544,0.2167270774
9.5100,-0.02586441092,-0.5511018895,-0.8053145732,0.2169934973
9.5150,-0.0261209987,-0.5507888067,-0.8054509077,0.2172515112
9.5200,-0.02637164217,-0.5504853159,-0.8055828591,0.2175010586
9.5250,-0.02661356335,-0.5501907761,-0.8057108392,0.2177426732
9.5300,-0.02685016522,-0.549905123,-0.8058348931,0.2179760291
9.5350,-0.02707980454,-0.5496275274,-0.80595524,0.2182026958
9.5400,-0.02730331484,-0.5493583292,-0.8060719526,0.2184215246
9.5450,-0.02752071402,-0.5490972159,-0.806185133,0.2186330008
9.5500,-0.0277298626,-0.5488449547,-0.8062945697,0.2188363251
9.5550,-0.02793221807,-0.5485999526,-0.8064008482,0.2190332286
9.5600,-0.0281280324,-0.5483624433,-0.8065041671,0.2192224283
9.5650,-0.02831645841,-0.5481328419,-0.8066040413,0.219404846
9.5700,-0.02849504242,-0.5479093621,-0.806701917,0.2195800096
9.5750,-0.0286636536,-0.5476925869,-0.8067969767,0.2197495474
9.5800,-0.02882338589,-0.5474819239,-0.8068889568,0.2199158175
9.5850,-0.0289726983,-0.547275823,-0.8069789265,0.2200790049
