type,name,time_units,begin_time,frequency,count,units
signal_3d,"Noraxon MyoMotion-Segments-Upper arm RT-Sensor Acceleration","s",0.0000,200,5088,"mG"

time,x,y,z
0.0000,946.2890625,-174.3164063,-230.9570313
0.0050,949.21875,-175.78125,-225.0976563
0.0100,952.1484375,-171.3867188,-209.9609375
0.0150,955.5664063,-171.3867188,-208.4960938
0.0200,958.4960938,-161.1328125,-202.6367188
0.0250,958.4960938,-161.6210938,-195.3125
0.0300,965.3320313,-149.4140625,-193.8476563
0.0350,969.7265625,-144.53125,-172.8515625
0.0400,963.8671875,-146.9726563,-182.1289063
0.0450,965.3320313,-141.6015625,-168.9453125
0.0500,962.890625,-143.5546875,-164.5507813
0.0550,973.6328125,-132.8125,-165.0390625
0.0600,974.1210938,-140.1367188,-168.4570313
0.0650,969.7265625,-145.0195313,-161.6210938
0.0700,966.796875,-145.5078125,-153.8085938
0.0750,976.5625,-143.5546875,-170.8984375
0.0800,974.609375,-147.9492188,-161.6210938
0.0850,971.1914063,-150.8789063,-171.3867188
0.0900,967.7734375,-157.7148438,-165.0390625
0.0950,974.1210938,-164.0625,-174.3164063
0.1000,968.75,-170.8984375,-167.96875
0.1050,962.4023438,-174.3164063,-189.453125
0.1100,965.3320313,-173.828125,-179.6875
0.1150,966.3085938,-172.8515625,-192.8710938
0.1200,969.7265625,-167.96875,-207.5195313
0.1250,964.84375,-175.78125,-213.3789063
0.1300,960.9375,-173.828125,-206.0546875
0.1350,950.1953125,-183.1054688,-214.3554688
0.1400,957.5195313,-176.7578125,-221.6796875
0.1450,953.125,-181.1523438,-232.9101563
0.1500,951.6601563,-180.1757813,-233.3984375
0.1550,950.1953125,-188.9648438,-235.3515625
0.1600,948.7304688,-184.5703125,-247.5585938
0.1650,956.0546875,-184.5703125,-245.1171875
0.1700,962.4023438,-174.3164063,-249.0234375
0.1750,954.1015625,-188.4765625,-240.7226563
0.1800,957.03125,-186.0351563,-258.3007813
0.1850,951.171875,-187.0117188,-250.9765625
0.1900,964.84375,-177.2460938,-250
0.1950,969.7265625,-171.3867188,-240.7226563
0.2000,951.171875,-182.1289063,-236.8164063
0.2050,967.7734375,-170.8984375,-241.2109375
0.2100,958.0078125,-171.3867188,-231.4453125
0.2150,966.796875,-164.5507813,-226.0742188
0.2200,962.4023438,-161.6210938,-233.8867188
0.2250,960.4492188,-161.1328125,-233.3984375
0.2300,963.8671875,-155.7617188,-219.7265625
0.2350,968.75,-150.390625,-221.6796875
0.2400,953.125,-157.2265625,-226.0742188
0.2450,956.0546875,-167.96875,-223.1445313
0.2500,962.890625,-166.9921875,-224.1210938
0.2550,965.3320313,-171.875,-217.7734375
0.2600,967.2851563,-174.8046875,-220.703125
0.2650,970.703125,-173.828125,-217.2851563
0.2700,970.703125,-167.96875,-206.0546875
0.2750,963.3789063,-180.6640625,-214.84375
0.2800,969.7265625,-168.9453125,-200.1953125
0.2850,963.8671875,-171.3867188,-202.6367188
0.2900,966.796875,-161.6210938,-204.5898438
0.2950,961.9140625,-162.109375,-212.890625
0.3000,964.84375,-152.8320313,-194.8242188
0.3050,959.9609375,-151.3671875,-210.4492188
0.3100,959.4726563,-143.5546875,-202.1484375
0.3150,960.4492188,-142.0898438,-199.21875
0.3200,958.984375,-134.765625,-215.3320313
0.3250,959.4726563,-141.6015625,-209.9609375
0.3300,958.0078125,-142.0898438,-209.9609375
0.3350,962.4023438,-144.53125,-206.0546875
0.3400,966.3085938,-141.1132813,-206.0546875
0.3450,965.8203125,-144.0429688,-211.4257813
0.3500,962.890625,-155.7617188,-195.8007813
0.3550,974.609375,-155.2734375,-205.5664063
0.3600,976.5625,-162.5976563,-202.1484375
0.3650,971.6796875,-173.3398438,-194.3359375
0.3700,967.2851563,-181.1523438,-193.359375
0.3750,970.703125,-181.640625,-214.84375
0.3800,978.0273438,-177.2460938,-195.8007813
0.3850,974.609375,-177.734375,-213.3789063
0.3900,969.7265625,-170.4101563,-190.9179688
0.3950,971.6796875,-170.8984375,-208.0078125
0.4000,978.0273438,-155.2734375,-209.9609375
0.4050,965.3320313,-160.15625,-206.5429688
0.4100,965.8203125,-155.7617188,-213.8671875
0.4150,967.2851563,-149.4140625,-222.1679688
0.4200,965.8203125,-151.3671875,-213.8671875
0.4250,962.890625,-153.3203125,-207.5195313
0.4300,969.7265625,-156.25,-208.984375
0.4350,960.9375,-162.109375,-210.4492188
0.4400,963.3789063,-156.25,-215.3320313
0.4450,960.9375,-160.6445313,-209.4726563
0.4500,962.4023438,-159.1796875,-202.1484375
0.4550,961.9140625,-166.5039063,-207.5195313
0.4600,971.1914063,-151.3671875,-207.5195313
0.4650,964.3554688,-163.5742188,-215.3320313
0.4700,962.890625,-163.0859375,-225.5859375
0.4750,962.4023438,-165.5273438,-222.1679688
0.4800,967.2851563,-168.9453125,-222.65625
0.4850,969.2382813,-167.96875,-219.2382813
0.4900,972.65625,-165.0390625,-225.5859375
0.4950,973.6328125,-165.5273438,-216.796875
0.5000,969.2382813,-165.5273438,-217.7734375
0.5050,974.609375,-160.6445313,-203.125
0.5100,967.2851563,-152.8320313,-208.4960938
0.5150,970.2148438,-149.4140625,-208.0078125
0.5200,958.4960938,-155.7617188,-205.5664063
0.5250,958.0078125,-142.0898438,-203.6132813
0.5300,961.4257813,-144.0429688,-198.7304688
0.5350,957.5195313,-145.0195313,-214.3554688
0.5400,961.9140625,-127.9296875,-187.0117188
0.5450,967.2851563,-133.7890625,-202.6367188
0.5500,963.8671875,-127.9296875,-203.125
0.5550,977.0507813,-125,-198.7304688
0.5600,986.328125,-123.046875,-186.5234375
0.5650,980.46875,-138.671875,-206.0546875
0.5700,980.46875,-148.9257813,-193.359375
0.5750,993.1640625,-154.296875,-210.9375
0.5800,981.4453125,-168.4570313,-199.7070313
0.5850,979.0039063,-170.8984375,-212.890625
0.5900,982.9101563,-165.5273438,-212.4023438
0.5950,987.3046875,-166.5039063,-214.3554688
0.6000,982.421875,-162.5976563,-209.9609375
0.6050,977.0507813,-163.5742188,-212.890625
0.6100,974.609375,-151.3671875,-212.890625
0.6150,970.703125,-149.9023438,-199.7070313
0.6200,971.6796875,-145.9960938,-216.3085938
0.6250,966.3085938,-139.1601563,-215.3320313
0.6300,965.8203125,-130.3710938,-208.0078125
0.6350,963.3789063,-132.8125,-204.5898438
0.6400,966.796875,-116.6992188,-205.5664063
0.6450,970.703125,-116.2109375,-192.8710938
0.6500,968.75,-127.4414063,-200.6835938
0.6550,973.1445313,-138.671875,-190.4296875
0.6600,968.2617188,-150.390625,-220.2148438
0.6650,969.2382813,-163.0859375,-202.1484375
0.6700,975.5859375,-168.4570313,-202.6367188
0.6750,973.1445313,-180.6640625,-215.8203125
0.6800,982.421875,-175.2929688,-204.5898438
0.6850,974.609375,-175.78125,-211.9140625
0.6900,981.4453125,-164.0625,-210.9375
0.6950,980.9570313,-166.5039063,-207.5195313
0.7000,976.0742188,-154.7851563,-186.0351563
0.7050,978.515625,-140.1367188,-196.2890625
0.7100,974.1210938,-129.8828125,-200.1953125
0.7150,971.6796875,-139.1601563,-198.7304688
0.7200,971.6796875,-136.2304688,-205.078125
0.7250,974.609375,-138.671875,-206.0546875
0.7300,973.6328125,-142.578125,-211.9140625
0.7350,968.75,-153.3203125,-212.890625
0.7400,960.4492188,-157.7148438,-222.65625
0.7450,965.8203125,-151.3671875,-222.1679688
0.7500,956.5429688,-147.9492188,-210.9375
0.7550,963.3789063,-141.6015625,-204.1015625
0.7600,959.9609375,-143.0664063,-214.3554688
0.7650,976.5625,-138.1835938,-210.9375
0.7700,976.5625,-142.0898438,-218.2617188
0.7750,975.5859375,-144.0429688,-203.125
0.7800,977.0507813,-137.6953125,-191.40625
0.7850,975.0976563,-136.71875,-210.9375
0.7900,980.46875,-134.2773438,-186.5234375
0.7950,972.1679688,-145.5078125,-212.4023438
0.8000,967.2851563,-141.6015625,-204.1015625
0.8050,978.0273438,-135.7421875,-187.9882813
0.8100,971.1914063,-138.1835938,-184.0820313
0.8150,974.609375,-138.671875,-189.9414063
0.8200,981.9335938,-128.4179688,-202.6367188
0.8250,974.609375,-134.2773438,-196.7773438
0.8300,976.5625,-134.2773438,-196.2890625
0.8350,974.1210938,-140.1367188,-201.6601563
0.8400,968.75,-149.4140625,-204.1015625
0.8450,979.4921875,-145.0195313,-204.1015625
0.8500,974.609375,-153.8085938,-208.0078125
0.8550,984.8632813,-144.53125,-199.7070313
0.8600,971.6796875,-150.8789063,-203.125
0.8650,982.421875,-132.3242188,-198.2421875
0.8700,980.9570313,-137.6953125,-203.6132813
0.8750,979.0039063,-141.6015625,-187.9882813
0.8800,980.46875,-141.1132813,-195.3125
0.8850,976.0742188,-137.2070313,-209.4726563
0.8900,982.9101563,-121.5820313,-188.9648438
0.8950,976.5625,-128.90625,-189.453125
0.9000,978.515625,-115.7226563,-191.40625
0.9050,981.9335938,-110.3515625,-166.5039063
0.9100,982.421875,-107.421875,-185.546875
0.9150,984.8632813,-107.9101563,-189.453125
0.9200,979.9804688,-111.328125,-171.3867188
0.9250,985.3515625,-111.8164063,-164.0625
0.9300,979.4921875,-115.7226563,-175.2929688
0.9350,993.6523438,-114.2578125,-170.8984375
0.9400,983.8867188,-130.3710938,-173.3398438
0.9450,996.09375,-129.8828125,-173.828125
0.9500,992.6757813,-136.71875,-174.3164063
0.9550,988.7695313,-146.484375,-174.8046875
0.9600,987.7929688,-137.2070313,-173.828125
0.9650,990.234375,-132.3242188,-181.1523438
0.9700,986.8164063,-124.5117188,-182.6171875
0.9750,984.375,-124.0234375,-197.7539063
0.9800,990.7226563,-111.328125,-189.9414063
0.9850,986.328125,-107.421875,-210.4492188
0.9900,976.5625,-114.2578125,-207.5195313
0.9950,972.65625,-114.7460938,-203.125
1.0000,968.75,-111.328125,-210.9375
1.0050,964.3554688,-117.1875,-199.21875
1.0100,964.84375,-109.8632813,-206.0546875
1.0150,972.65625,-108.8867188,-206.5429688
1.0200,966.796875,-109.375,-201.171875
1.0250,962.4023438,-108.8867188,-217.7734375
1.0300,970.2148438,-109.375,-208.0078125
1.0350,970.2148438,-110.8398438,-217.2851563
1.0400,970.2148438,-117.6757813,-208.984375
1.0450,972.1679688,-116.6992188,-212.890625
1.0500,969.7265625,-114.7460938,-200.1953125
1.0550,963.8671875,-122.5585938,-199.7070313
1.0600,972.1679688,-108.8867188,-192.8710938
1.0650,970.2148438,-110.3515625,-196.2890625
1.0700,974.1210938,-105.9570313,-191.40625
1.0750,972.65625,-99.12109375,-199.7070313
1.0800,957.5195313,-107.421875,-199.7070313
1.0850,957.5195313,-101.5625,-204.5898438
1.0900,962.890625,-94.23828125,-208.984375
1.0950,964.84375,-90.8203125,-216.796875
1.1000,948.7304688,-101.0742188,-212.4023438
1.1050,957.03125,-91.30859375,-207.03125
1.1100,964.84375,-95.21484375,-208.984375
1.1150,963.3789063,-102.0507813,-208.4960938
1.1200,965.8203125,-102.5390625,-196.2890625
1.1250,972.1679688,-98.6328125,-206.0546875
1.1300,967.2851563,-104.0039063,-204.5898438
1.1350,972.65625,-103.0273438,-199.21875
1.1400,978.515625,-99.609375,-199.7070313
1.1450,971.6796875,-107.9101563,-204.5898438
1.1500,976.0742188,-106.4453125,-200.1953125
1.1550,974.1210938,-107.9101563,-215.8203125
1.1600,970.703125,-105.46875,-204.5898438
1.1650,970.2148438,-107.421875,-205.078125
1.1700,968.2617188,-108.3984375,-205.5664063
1.1750,973.6328125,-108.3984375,-210.9375
1.1800,971.6796875,-111.8164063,-205.5664063
1.1850,981.9335938,-103.0273438,-196.7773438
1.1900,979.4921875,-103.0273438,-208.4960938
1.1950,977.5390625,-107.421875,-194.8242188
1.2000,973.1445313,-104.4921875,-181.640625
1.2050,973.6328125,-109.375,-189.9414063
1.2100,976.5625,-96.6796875,-182.1289063
1.2150,982.421875,-93.75,-174.8046875
1.2200,987.3046875,-85.9375,-173.3398438
1.2250,982.9101563,-89.35546875,-177.734375
1.2300,979.9804688,-90.33203125,-187.5
1.2350,993.6523438,-77.63671875,-180.1757813
1.2400,990.7226563,-87.40234375,-192.3828125
1.2450,998.046875,-78.61328125,-195.8007813
1.2500,992.1875,-80.56640625,-184.0820313
1.2550,998.5351563,-71.2890625,-179.6875
1.2600,992.6757813,-73.73046875,-169.4335938
1.2650,995.6054688,-73.2421875,-171.3867188
1.2700,993.6523438,-77.63671875,-164.5507813
1.2750,999.5117188,-83.984375,-172.3632813
1.2800,984.8632813,-98.6328125,-170.4101563
1.2850,979.0039063,-105.9570313,-184.0820313
1.2900,983.3984375,-109.8632813,-180.1757813
1.2950,990.234375,-109.375,-179.1992188
1.3000,982.421875,-101.5625,-171.3867188
1.3050,982.421875,-96.6796875,-168.9453125
1.3100,985.3515625,-71.77734375,-175.78125
1.3150,980.46875,-64.453125,-174.3164063
1.3200,968.2617188,-61.5234375,-175.2929688
1.3250,975.5859375,-48.33984375,-167.4804688
1.3300,968.2617188,-49.8046875,-176.7578125
1.3350,969.7265625,-44.43359375,-182.1289063
1.3400,967.2851563,-53.7109375,-175.78125
1.3450,956.5429688,-61.03515625,-164.5507813
1.3500,979.4921875,-57.12890625,-159.6679688
1.3550,972.1679688,-71.2890625,-183.59375
1.3600,970.703125,-84.9609375,-171.875
1.3650,981.9335938,-88.8671875,-184.5703125
1.3700,989.2578125,-93.26171875,-185.0585938
1.3750,990.7226563,-109.8632813,-185.546875
1.3800,986.328125,-122.5585938,-188.9648438
1.3850,991.2109375,-113.7695313,-185.546875
1.3900,989.7460938,-103.0273438,-184.5703125
1.3950,975.5859375,-105.46875,-182.6171875
1.4000,974.609375,-92.28515625,-185.546875
1.4050,971.6796875,-87.40234375,-188.4765625
1.4100,962.4023438,-84.9609375,-180.6640625
1.4150,966.3085938,-71.2890625,-181.1523438
1.4200,964.3554688,-60.546875,-180.6640625
1.4250,955.078125,-68.359375,-182.6171875
1.4300,971.1914063,-76.171875,-183.59375
1.4350,963.8671875,-66.40625,-182.1289063
1.4400,969.2382813,-58.10546875,-182.6171875
1.4450,967.7734375,-69.3359375,-182.6171875
1.4500,977.0507813,-69.3359375,-171.875
1.4550,983.3984375,-82.51953125,-180.1757813
1.4600,978.0273438,-98.6328125,-178.2226563
1.4650,989.2578125,-98.6328125,-187.5
1.4700,985.8398438,-115.7226563,-197.7539063
1.4750,991.2109375,-117.6757813,-184.5703125
1.4800,984.375,-120.6054688,-181.1523438
1.4850,987.7929688,-120.6054688,-183.1054688
1.4900,977.0507813,-123.5351563,-196.7773438
1.4950,978.0273438,-116.6992188,-197.7539063
1.5000,976.0742188,-105.46875,-198.2421875
1.5050,965.3320313,-104.4921875,-204.1015625
1.5100,964.84375,-93.75,-193.8476563
1.5150,961.9140625,-92.7734375,-201.6601563
1.5200,959.4726563,-91.30859375,-194.3359375
1.5250,960.9375,-80.078125,-192.8710938
1.5300,958.4960938,-82.51953125,-183.1054688
1.5350,969.7265625,-76.66015625,-186.0351563
1.5400,964.3554688,-85.9375,-179.6875
1.5450,969.7265625,-94.7265625,-171.3867188
1.5500,974.609375,-120.1171875,-177.2460938
1.5550,985.3515625,-127.9296875,-183.59375
1.5600,983.8867188,-141.6015625,-189.453125
1.5650,987.7929688,-141.6015625,-189.9414063
1.5700,982.9101563,-149.9023438,-193.359375
1.5750,984.375,-154.296875,-193.359375
1.5800,971.6796875,-149.9023438,-182.1289063
1.5850,982.9101563,-134.765625,-200.1953125
1.5900,974.1210938,-129.3945313,-198.7304688
1.5950,965.8203125,-128.90625,-199.7070313
1.6000,967.2851563,-118.1640625,-189.9414063
1.6050,963.8671875,-101.0742188,-190.9179688
1.6100,958.0078125,-100.5859375,-182.1289063
1.6150,950.6835938,-97.16796875,-201.6601563
1.6200,953.125,-92.7734375,-191.8945313
1.6250,958.0078125,-91.30859375,-190.4296875
1.6300,957.03125,-87.890625,-203.125
1.6350,965.8203125,-94.7265625,-189.453125
1.6400,975.5859375,-101.5625,-191.8945313
1.6450,985.3515625,-112.7929688,-181.1523438
1.6500,985.8398438,-129.8828125,-189.9414063
1.6550,985.8398438,-140.625,-186.5234375
1.6600,978.515625,-150.8789063,-189.453125
1.6650,983.8867188,-159.1796875,-187.0117188
1.6700,982.421875,-166.9921875,-181.1523438
1.6750,991.2109375,-163.5742188,-178.2226563
1.6800,989.7460938,-156.7382813,-180.1757813
1.6850,986.8164063,-150.8789063,-198.7304688
1.6900,978.515625,-149.9023438,-187.0117188
1.6950,973.6328125,-140.1367188,-188.9648438
1.7000,975.0976563,-125,-184.5703125
1.7050,965.3320313,-129.3945313,-183.1054688
1.7100,966.3085938,-119.140625,-187.5
1.7150,963.8671875,-120.6054688,-172.8515625
1.7200,965.3320313,-122.5585938,-176.7578125
1.7250,980.46875,-119.140625,-185.546875
1.7300,987.3046875,-116.6992188,-185.546875
1.7350,985.8398438,-130.859375,-176.2695313
1.7400,992.1875,-124.5117188,-196.7773438
1.7450,984.375,-133.7890625,-185.0585938
1.7500,982.421875,-137.2070313,-183.59375
1.7550,979.9804688,-142.578125,-194.3359375
1.7600,973.6328125,-146.484375,-176.7578125
1.7650,975.0976563,-147.9492188,-198.7304688
1.7700,976.0742188,-147.4609375,-174.3164063
1.7750,973.6328125,-145.9960938,-199.7070313
1.7800,976.0742188,-142.0898438,-195.3125
1.7850,975.5859375,-149.4140625,-192.3828125
1.7900,973.6328125,-146.9726563,-185.0585938
1.7950,980.9570313,-138.1835938,-182.6171875
1.8000,975.0976563,-141.1132813,-201.171875
1.8050,976.5625,-133.3007813,-182.6171875
1.8100,967.7734375,-148.9257813,-195.3125
1.8150,974.1210938,-153.8085938,-194.8242188
1.8200,968.75,-153.3203125,-180.6640625
1.8250,967.2851563,-157.7148438,-186.5234375
1.8300,981.9335938,-159.6679688,-187.5
1.8350,987.7929688,-165.5273438,-178.7109375
1.8400,983.8867188,-166.9921875,-181.640625
1.8450,983.3984375,-160.15625,-195.3125
1.8500,975.5859375,-155.7617188,-204.5898438
1.8550,965.8203125,-155.2734375,-219.7265625
1.8600,962.890625,-141.6015625,-198.7304688
1.8650,968.2617188,-142.578125,-192.8710938
1.8700,971.6796875,-137.2070313,-189.453125
1.8750,960.9375,-149.4140625,-195.3125
1.8800,959.9609375,-154.7851563,-198.2421875
1.8850,970.703125,-147.9492188,-195.3125
1.8900,962.890625,-150.8789063,-199.7070313
1.8950,960.9375,-151.8554688,-204.1015625
1.9000,953.6132813,-152.34375,-198.2421875
1.9050,952.1484375,-161.1328125,-215.3320313
1.9100,958.984375,-169.921875,-196.2890625
1.9150,956.5429688,-178.7109375,-209.9609375
1.9200,958.4960938,-178.2226563,-191.8945313
1.9250,958.0078125,-172.3632813,-208.0078125
1.9300,965.8203125,-169.921875,-203.125
1.9350,973.6328125,-166.5039063,-210.9375
1.9400,966.3085938,-179.1992188,-207.5195313
1.9450,973.1445313,-177.2460938,-211.9140625
1.9500,975.0976563,-183.59375,-196.7773438
1.9550,961.9140625,-193.359375,-203.125
1.9600,962.4023438,-193.359375,-208.0078125
1.9650,964.84375,-188.4765625,-211.9140625
1.9700,964.3554688,-190.9179688,-212.4023438
1.9750,958.984375,-195.3125,-209.4726563
1.9800,960.4492188,-183.59375,-210.4492188
1.9850,963.3789063,-181.1523438,-221.1914063
1.9900,954.1015625,-183.59375,-226.0742188
1.9950,955.5664063,-187.0117188,-210.9375
2.0000,956.5429688,-179.1992188,-205.5664063
2.0050,958.4960938,-166.9921875,-204.1015625
2.0100,953.125,-170.4101563,-199.21875
2.0150,969.7265625,-158.203125,-213.3789063
2.0200,962.4023438,-164.5507813,-197.265625
2.0250,960.4492188,-173.3398438,-220.2148438
2.0300,965.8203125,-171.3867188,-232.421875
2.0350,961.9140625,-175.78125,-216.796875
2.0400,959.4726563,-183.59375,-214.84375
2.0450,953.125,-188.9648438,-220.2148438
2.0500,956.5429688,-195.3125,-219.2382813
2.0550,957.5195313,-202.1484375,-227.0507813
2.0600,952.6367188,-209.9609375,-221.1914063
2.0650,951.171875,-215.3320313,-208.0078125
2.0700,952.6367188,-208.0078125,-220.2148438
2.0750,951.171875,-202.6367188,-213.8671875
2.0800,954.5898438,-200.1953125,-221.6796875
2.0850,958.984375,-201.6601563,-214.3554688
2.0900,958.4960938,-200.6835938,-208.984375
2.0950,954.5898438,-203.125,-223.6328125
2.1000,964.3554688,-195.3125,-225.0976563
2.1050,964.84375,-200.6835938,-222.65625
2.1100,966.3085938,-208.984375,-238.7695313
2.1150,970.703125,-216.3085938,-240.7226563
2.1200,965.8203125,-217.2851563,-237.7929688
2.1250,962.890625,-207.5195313,-233.3984375
2.1300,953.6132813,-194.8242188,-218.75
2.1350,947.265625,-202.6367188,-207.5195313
2.1400,940.9179688,-209.4726563,-216.3085938
2.1450,951.171875,-200.1953125,-229.0039063
2.1500,947.265625,-208.984375,-221.6796875
2.1550,955.078125,-215.3320313,-228.0273438
2.1600,956.5429688,-211.4257813,-240.7226563
2.1650,955.078125,-218.2617188,-219.2382813
2.1700,958.4960938,-211.9140625,-240.234375
2.1750,948.7304688,-213.3789063,-241.2109375
2.1800,946.7773438,-214.3554688,-224.1210938
2.1850,948.7304688,-214.3554688,-232.9101563
2.1900,954.1015625,-206.5429688,-228.515625
2.1950,949.21875,-214.84375,-234.375
2.2000,955.078125,-207.03125,-232.9101563
2.2050,953.6132813,-218.75,-228.515625
2.2100,953.6132813,-223.6328125,-244.6289063
2.2150,950.1953125,-224.609375,-232.421875
2.2200,938.9648438,-226.0742188,-237.7929688
2.2250,943.8476563,-221.6796875,-227.5390625
2.2300,943.359375,-225.0976563,-231.9335938
2.2350,954.1015625,-225.0976563,-230.9570313
2.2400,947.7539063,-230.46875,-237.3046875
2.2450,945.8007813,-229.4921875,-236.8164063
2.2500,929.1992188,-232.9101563,-234.8632813
2.2550,938.9648438,-224.1210938,-247.0703125
2.2600,933.1054688,-226.0742188,-227.0507813
2.2650,939.9414063,-223.6328125,-239.2578125
2.2700,936.5234375,-229.9804688,-249.0234375
2.2750,932.6171875,-238.28125,-253.90625
2.2800,933.59375,-233.3984375,-246.5820313
2.2850,934.0820313,-235.8398438,-244.140625
2.2900,949.7070313,-224.609375,-242.1875
2.2950,941.40625,-228.515625,-243.1640625
2.3000,940.4296875,-227.0507813,-250.4882813
2.3050,944.8242188,-226.5625,-245.1171875
2.3100,933.1054688,-230.9570313,-245.1171875
2.3150,935.546875,-232.421875,-247.0703125
2.3200,934.5703125,-236.328125,-252.9296875
2.3250,943.359375,-237.7929688,-255.859375
2.3300,937.0117188,-248.046875,-243.1640625
2.3350,932.1289063,-245.6054688,-266.1132813
2.3400,928.7109375,-252.9296875,-248.5351563
2.3450,929.1992188,-251.953125,-241.2109375
2.3500,942.8710938,-242.1875,-243.6523438
2.3550,937.5,-254.8828125,-252.9296875
2.3600,928.2226563,-259.765625,-256.3476563
2.3650,931.1523438,-253.90625,-252.4414063
2.3700,931.640625,-243.6523438,-247.5585938
2.3750,937.5,-235.8398438,-252.4414063
2.3800,926.2695313,-243.1640625,-269.53125
2.3850,935.0585938,-245.1171875,-279.296875
2.3900,934.5703125,-245.1171875,-259.2773438
2.3950,935.546875,-252.9296875,-265.1367188
2.4000,933.1054688,-254.3945313,-273.4375
2.4050,934.0820313,-252.4414063,-256.3476563
2.4100,930.1757813,-263.1835938,-265.1367188
2.4150,931.640625,-265.1367188,-271.9726563
2.4200,924.3164063,-266.1132813,-258.7890625
2.4250,918.9453125,-264.6484375,-267.0898438
2.4300,926.2695313,-256.3476563,-277.8320313
2.4350,914.5507813,-273.4375,-264.1601563
2.4400,921.875,-274.9023438,-263.1835938
2.4450,916.015625,-284.1796875,-250.9765625
2.4500,915.0390625,-271.9726563,-261.2304688
2.4550,922.8515625,-262.2070313,-266.1132813
2.4600,923.828125,-262.6953125,-275.8789063
2.4650,922.8515625,-266.6015625,-275.8789063
2.4700,928.7109375,-266.1132813,-268.5546875
2.4750,917.96875,-275.8789063,-264.6484375
2.4800,909.1796875,-277.34375,-282.7148438
2.4850,919.4335938,-265.625,-276.3671875
2.4900,918.9453125,-267.578125,-274.9023438
2.4950,922.8515625,-265.1367188,-272.9492188
2.5000,918.9453125,-264.1601563,-287.109375
2.5050,909.1796875,-276.3671875,-289.0625
2.5100,915.5273438,-273.9257813,-269.53125
2.5150,909.1796875,-280.2734375,-282.7148438
2.5200,915.0390625,-276.8554688,-281.25
2.5250,917.4804688,-281.25,-285.15625
2.5300,931.1523438,-279.296875,-288.5742188
2.5350,915.0390625,-300.2929688,-293.9453125
2.5400,917.4804688,-289.0625,-293.4570313
2.5450,917.4804688,-291.015625,-286.6210938
2.5500,914.0625,-290.5273438,-291.5039063
2.5550,908.6914063,-292.4804688,-286.1328125
2.5600,908.203125,-286.1328125,-273.4375
2.5650,903.3203125,-296.3867188,-292.96875
2.5700,906.25,-298.828125,-299.8046875
2.5750,915.0390625,-297.8515625,-294.4335938
2.5800,913.5742188,-304.6875,-298.3398438
2.5850,918.4570313,-300.78125,-298.3398438
2.5900,916.9921875,-309.5703125,-313.9648438
2.5950,914.5507813,-312.9882813,-294.921875
2.6000,917.4804688,-303.2226563,-309.5703125
2.6050,917.96875,-303.7109375,-312.0117188
2.6100,911.1328125,-296.3867188,-307.1289063
2.6150,912.109375,-294.4335938,-295.4101563
2.6200,904.296875,-292.4804688,-291.015625
2.6250,896.9726563,-290.5273438,-288.5742188
2.6300,905.7617188,-284.1796875,-304.6875
2.6350,910.15625,-290.5273438,-290.0390625
2.6400,918.4570313,-286.6210938,-303.2226563
2.6450,914.0625,-295.8984375,-296.875
2.6500,909.1796875,-307.1289063,-292.4804688
2.6550,904.7851563,-316.40625,-307.6171875
2.6600,908.203125,-318.359375,-306.1523438
2.6650,907.7148438,-321.7773438,-313.4765625
2.6700,900.8789063,-324.21875,-301.2695313
2.6750,902.8320313,-331.0546875,-315.4296875
2.6800,896.484375,-330.078125,-293.4570313
2.6850,901.3671875,-317.8710938,-310.546875
2.6900,902.8320313,-312.9882813,-307.1289063
2.6950,897.4609375,-312.0117188,-309.5703125
2.7000,895.5078125,-309.5703125,-319.3359375
2.7050,891.1132813,-308.59375,-304.1992188
2.7100,882.3242188,-311.0351563,-304.6875
2.7150,891.1132813,-312.5,-310.0585938
2.7200,894.0429688,-313.4765625,-317.3828125
2.7250,890.625,-311.5234375,-312.5
2.7300,889.6484375,-316.40625,-320.3125
2.7350,882.3242188,-323.7304688,-312.0117188
2.7400,882.8125,-317.8710938,-317.3828125
2.7450,879.3945313,-321.2890625,-311.0351563
2.7500,880.859375,-314.9414063,-317.3828125
2.7550,884.2773438,-310.546875,-322.7539063
2.7600,882.8125,-317.8710938,-321.7773438
2.7650,884.2773438,-320.8007813,-325.1953125
2.7700,882.3242188,-322.7539063,-334.4726563
2.7750,897.4609375,-315.4296875,-332.5195313
2.7800,897.9492188,-316.40625,-327.6367188
2.7850,897.9492188,-311.0351563,-324.21875
2.7900,897.9492188,-328.125,-329.1015625
2.7950,905.2734375,-326.6601563,-324.7070313
2.8000,909.6679688,-328.125,-324.21875
2.8050,891.6015625,-347.65625,-333.0078125
2.8100,891.1132813,-354.9804688,-337.4023438
2.8150,897.9492188,-352.0507813,-327.6367188
2.8200,895.0195313,-364.2578125,-332.03125
2.8250,899.4140625,-355.46875,-330.5664063
2.8300,887.6953125,-358.3984375,-340.8203125
2.8350,882.8125,-359.375,-340.3320313
2.8400,865.7226563,-358.3984375,-330.5664063
2.8450,859.8632813,-357.9101563,-341.3085938
2.8500,860.3515625,-345.2148438,-327.6367188
2.8550,859.375,-343.2617188,-340.3320313
2.8600,868.1640625,-341.3085938,-349.1210938
2.8650,868.1640625,-349.1210938,-354.9804688
2.8700,871.09375,-355.9570313,-354.0039063
2.8750,876.4648438,-341.796875,-362.3046875
2.8800,867.1875,-341.3085938,-366.6992188
2.8850,859.8632813,-333.984375,-350.5859375
2.8900,851.0742188,-342.7734375,-355.46875
2.8950,857.421875,-341.796875,-363.28125
2.9000,863.28125,-349.1210938,-362.3046875
2.9050,867.6757813,-352.0507813,-384.2773438
2.9100,864.7460938,-360.3515625,-366.2109375
2.9150,853.515625,-357.9101563,-360.3515625
2.9200,845.2148438,-352.0507813,-354.0039063
2.9250,851.0742188,-343.75,-349.609375
2.9300,844.7265625,-361.328125,-357.421875
2.9350,857.421875,-357.9101563,-357.9101563
2.9400,853.0273438,-369.140625,-355.9570313
2.9450,854.9804688,-373.5351563,-363.7695313
2.9500,852.5390625,-387.2070313,-378.90625
2.9550,857.421875,-386.2304688,-369.140625
2.9600,858.8867188,-383.7890625,-352.0507813
2.9650,862.7929688,-371.09375,-347.65625
2.9700,842.7734375,-384.2773438,-354.0039063
2.9750,857.421875,-375.9765625,-358.3984375
2.9800,847.1679688,-379.8828125,-379.8828125
2.9850,863.7695313,-376.4648438,-362.7929688
2.9900,864.7460938,-379.8828125,-376.4648438
2.9950,852.5390625,-386.2304688,-388.671875
3.0000,851.5625,-379.8828125,-375.9765625
3.0050,854.0039063,-366.2109375,-378.90625
3.0100,857.421875,-362.3046875,-385.7421875
3.0150,849.609375,-366.2109375,-364.7460938
3.0200,841.3085938,-374.0234375,-362.3046875
3.0250,848.1445313,-371.09375,-383.7890625
3.0300,845.2148438,-374.5117188,-385.2539063
3.0350,855.46875,-365.7226563,-365.234375
3.0400,848.6328125,-375.4882813,-374.0234375
3.0450,852.0507813,-373.046875,-387.2070313
3.0500,842.2851563,-393.0664063,-362.7929688
3.0550,853.0273438,-382.3242188,-388.1835938
3.0600,849.609375,-385.7421875,-383.7890625
3.0650,853.0273438,-386.71875,-372.0703125
3.0700,854.4921875,-393.5546875,-374.0234375
3.0750,851.0742188,-386.2304688,-394.53125
3.0800,843.2617188,-384.765625,-380.3710938
3.0850,833.984375,-384.765625,-380.859375
3.0900,831.5429688,-382.3242188,-372.0703125
3.0950,834.4726563,-378.4179688,-366.6992188
3.1000,833.984375,-376.953125,-374.0234375
3.1050,843.75,-372.0703125,-383.3007813
3.1100,843.2617188,-386.2304688,-385.2539063
3.1150,839.3554688,-400.390625,-392.0898438
3.1200,848.6328125,-390.1367188,-387.2070313
3.1250,836.4257813,-400.390625,-385.2539063
3.1300,841.3085938,-388.671875,-381.8359375
3.1350,853.515625,-390.625,-373.5351563
3.1400,840.3320313,-392.578125,-397.4609375
3.1450,834.9609375,-394.0429688,-392.578125
3.1500,836.4257813,-403.3203125,-387.6953125
3.1550,852.0507813,-388.671875,-386.71875
3.1600,837.890625,-400.390625,-380.859375
3.1650,836.9140625,-395.0195313,-386.71875
3.1700,845.703125,-382.8125,-366.2109375
3.1750,830.078125,-394.0429688,-390.1367188
3.1800,839.3554688,-384.2773438,-378.90625
3.1850,843.2617188,-385.7421875,-376.953125
3.1900,830.5664063,-393.0664063,-384.765625
3.1950,833.984375,-387.6953125,-384.765625
3.2000,830.078125,-384.765625,-392.578125
3.2050,827.1484375,-396.9726563,-385.2539063
3.2100,822.265625,-395.0195313,-384.765625
3.2150,841.796875,-372.5585938,-399.9023438
3.2200,827.6367188,-384.2773438,-412.109375
3.2250,819.3359375,-379.8828125,-392.578125
3.2300,818.359375,-371.5820313,-393.0664063
3.2350,830.078125,-368.1640625,-394.53125
3.2400,825.1953125,-378.90625,-395.0195313
3.2450,815.4296875,-388.671875,-395.5078125
3.2500,817.3828125,-386.2304688,-386.71875
3.2550,816.8945313,-392.578125,-398.4375
3.2600,812.0117188,-394.0429688,-386.2304688
3.2650,813.4765625,-399.4140625,-402.8320313
3.2700,812.9882813,-409.6679688,-393.5546875
3.2750,824.7070313,-409.1796875,-400.8789063
3.2800,829.5898438,-407.7148438,-400.390625
3.2850,823.7304688,-416.9921875,-402.8320313
3.2900,824.21875,-413.0859375,-399.4140625
3.2950,817.8710938,-417.4804688,-395.5078125
3.3000,823.7304688,-417.96875,-387.6953125
3.3050,823.2421875,-420.8984375,-410.15625
3.3100,819.3359375,-416.9921875,-393.5546875
3.3150,813.9648438,-431.640625,-410.15625
3.3200,821.2890625,-417.4804688,-403.3203125
3.3250,817.3828125,-414.5507813,-396.9726563
3.3300,805.6640625,-409.6679688,-399.9023438
3.3350,816.8945313,-406.7382813,-389.1601563
3.3400,821.2890625,-403.3203125,-407.2265625
3.3450,819.8242188,-409.6679688,-419.4335938
3.3500,823.7304688,-402.34375,-412.109375
3.3550,820.3125,-410.15625,-400.8789063
3.3600,823.2421875,-406.7382813,-403.3203125
3.3650,823.2421875,-405.2734375,-416.5039063
3.3700,815.4296875,-408.6914063,-407.2265625
3.3750,814.9414063,-398.4375,-396.9726563
3.3800,802.734375,-399.4140625,-415.5273438
3.3850,809.5703125,-402.34375,-410.6445313
3.3900,820.8007813,-401.8554688,-428.2226563
3.3950,815.4296875,-417.96875,-429.6875
3.4000,805.1757813,-422.3632813,-421.3867188
3.4050,795.4101563,-419.921875,-407.7148438
3.4100,799.3164063,-419.4335938,-413.0859375
3.4150,807.1289063,-421.875,-424.8046875
3.4200,802.2460938,-434.5703125,-420.8984375
3.4250,795.8984375,-427.734375,-419.4335938
3.4300,799.3164063,-422.8515625,-405.2734375
3.4350,807.1289063,-419.921875,-398.9257813
3.4400,806.1523438,-411.6210938,-418.9453125
3.4450,807.1289063,-418.9453125,-420.8984375
3.4500,806.1523438,-414.0625,-418.9453125
3.4550,810.0585938,-414.0625,-403.3203125
3.4600,809.0820313,-412.5976563,-414.5507813
3.4650,813.4765625,-407.2265625,-421.875
3.4700,808.59375,-416.015625,-430.1757813
3.4750,799.8046875,-418.4570313,-418.9453125
3.4800,789.0625,-417.96875,-410.6445313
3.4850,789.5507813,-405.7617188,-411.6210938
3.4900,789.5507813,-410.15625,-423.828125
3.4950,793.4570313,-423.3398438,-440.9179688
3.5000,796.3867188,-430.1757813,-435.0585938
3.5050,795.8984375,-429.1992188,-441.40625
3.5100,791.9921875,-429.1992188,-428.2226563
3.5150,800.2929688,-431.1523438,-453.6132813
3.5200,795.4101563,-437.0117188,-436.5234375
3.5250,805.1757813,-437.0117188,-429.6875
3.5300,801.7578125,-434.0820313,-431.1523438
3.5350,787.5976563,-442.8710938,-425.2929688
3.5400,789.0625,-441.40625,-441.40625
3.5450,787.5976563,-440.4296875,-426.2695313
3.5500,787.109375,-434.5703125,-432.6171875
3.5550,791.015625,-429.6875,-432.6171875
3.5600,792.96875,-430.1757813,-433.59375
3.5650,794.4335938,-441.40625,-447.7539063
3.5700,804.6875,-422.3632813,-446.7773438
3.5750,801.2695313,-422.3632813,-451.171875
3.5800,788.5742188,-426.2695313,-435.0585938
3.5850,790.0390625,-421.3867188,-438.9648438
3.5900,792.96875,-418.9453125,-431.1523438
3.5950,796.3867188,-424.3164063,-443.8476563
3.6000,798.3398438,-428.7109375,-450.1953125
3.6050,788.0859375,-429.6875,-437.9882813
3.6100,793.4570313,-434.0820313,-453.125
3.6150,804.1992188,-439.453125,-441.40625
3.6200,808.1054688,-450.6835938,-444.8242188
3.6250,801.2695313,-449.21875,-451.171875
3.6300,786.1328125,-435.546875,-437.0117188
3.6350,782.7148438,-427.2460938,-412.109375
3.6400,787.109375,-427.734375,-437.5
3.6450,780.2734375,-437.9882813,-435.546875
3.6500,772.4609375,-436.5234375,-438.4765625
3.6550,777.34375,-429.6875,-445.3125
3.6600,783.203125,-431.640625,-431.1523438
3.6650,784.1796875,-422.3632813,-450.6835938
3.6700,783.6914063,-417.96875,-454.5898438
3.6750,776.3671875,-424.3164063,-436.5234375
3.6800,783.203125,-427.734375,-453.125
3.6850,773.4375,-424.8046875,-458.0078125
3.6900,765.1367188,-431.640625,-440.9179688
3.6950,772.9492188,-425.78125,-431.1523438
3.7000,770.5078125,-436.0351563,-454.1015625
3.7050,779.7851563,-430.6640625,-437.9882813
3.7100,775.8789063,-428.7109375,-446.2890625
3.7150,766.1132813,-444.3359375,-451.6601563
3.7200,758.3007813,-443.359375,-447.7539063
3.7250,756.8359375,-441.40625,-434.5703125
3.7300,754.8828125,-443.359375,-443.8476563
3.7350,762.2070313,-437.0117188,-447.265625
3.7400,767.0898438,-436.5234375,-434.0820313
3.7450,763.671875,-444.8242188,-427.734375
3.7500,767.578125,-435.546875,-425.2929688
3.7550,771.9726563,-443.359375,-446.2890625
3.7600,763.1835938,-458.984375,-436.5234375
3.7650,770.9960938,-451.6601563,-439.9414063
3.7700,777.8320313,-453.125,-448.7304688
3.7750,795.4101563,-458.4960938,-458.0078125
3.7800,800.78125,-466.3085938,-447.7539063
3.7850,804.1992188,-472.65625,-470.703125
3.7900,781.7382813,-474.609375,-468.75
3.7950,790.0390625,-458.4960938,-458.984375
3.8000,780.7617188,-452.1484375,-460.4492188
3.8050,779.296875,-435.0585938,-453.125
3.8100,768.5546875,-440.4296875,-460.9375
3.8150,766.6015625,-441.40625,-478.515625
3.8200,777.34375,-441.8945313,-479.9804688
3.8250,778.3203125,-454.1015625,-484.8632813
3.8300,782.7148438,-464.3554688,-490.7226563
3.8350,780.2734375,-474.609375,-474.609375
3.8400,778.8085938,-482.421875,-471.1914063
3.8450,767.0898438,-485.3515625,-475.0976563
3.8500,759.2773438,-474.609375,-461.4257813
3.8550,752.4414063,-461.9140625,-456.5429688
3.8600,749.5117188,-458.984375,-464.84375
3.8650,757.8125,-457.5195313,-455.078125
3.8700,760.7421875,-451.6601563,-473.1445313
3.8750,754.8828125,-449.21875,-472.65625
3.8800,760.2539063,-453.6132813,-462.4023438
3.8850,769.0429688,-451.171875,-472.65625
3.8900,752.4414063,-456.5429688,-462.4023438
3.8950,764.6484375,-452.1484375,-459.9609375
3.9000,760.7421875,-458.4960938,-473.1445313
3.9050,751.4648438,-455.078125,-473.6328125
3.9100,733.8867188,-453.6132813,-457.03125
3.9150,740.7226563,-435.546875,-467.2851563
3.9200,748.046875,-428.7109375,-473.6328125
3.9250,739.2578125,-434.5703125,-475.5859375
3.9300,733.3984375,-429.1992188,-457.03125
3.9350,745.6054688,-422.8515625,-467.2851563
3.9400,743.6523438,-426.2695313,-450.6835938
3.9450,748.046875,-431.1523438,-473.1445313
3.9500,754.3945313,-423.828125,-480.46875
3.9550,748.5351563,-432.1289063,-474.1210938
3.9600,740.7226563,-435.0585938,-464.3554688
3.9650,748.046875,-430.6640625,-465.8203125
3.9700,754.8828125,-439.9414063,-461.9140625
3.9750,764.1601563,-450.1953125,-467.2851563
3.9800,756.3476563,-448.7304688,-480.46875
3.9850,740.234375,-448.2421875,-456.5429688
3.9900,744.140625,-438.4765625,-450.1953125
3.9950,739.2578125,-457.5195313,-474.609375
4.0000,742.6757813,-451.171875,-446.2890625
4.0050,736.8164063,-458.0078125,-462.4023438
4.0100,752.9296875,-464.84375,-463.3789063
4.0150,745.6054688,-475.0976563,-476.5625
4.0200,744.6289063,-464.3554688,-479.9804688
4.0250,749.0234375,-451.6601563,-465.3320313
4.0300,736.8164063,-456.0546875,-483.8867188
4.0350,748.046875,-452.6367188,-488.7695313
4.0400,743.6523438,-442.3828125,-478.515625
4.0450,742.1875,-444.3359375,-475.0976563
4.0500,727.0507813,-458.4960938,-487.3046875
4.0550,732.421875,-448.2421875,-480.46875
4.0600,734.375,-455.078125,-479.0039063
4.0650,731.4453125,-460.9375,-502.9296875
4.0700,727.0507813,-469.7265625,-489.7460938
4.0750,704.1015625,-476.0742188,-481.4453125
4.0800,714.3554688,-461.4257813,-471.6796875
4.0850,727.0507813,-458.984375,-477.5390625
4.0900,728.515625,-459.9609375,-499.0234375
4.0950,733.3984375,-461.4257813,-477.0507813
4.1000,727.0507813,-467.2851563,-498.5351563
4.1050,744.140625,-464.84375,-507.8125
4.1100,741.2109375,-480.9570313,-518.5546875
4.1150,750.9765625,-475.0976563,-494.140625
4.1200,746.5820313,-473.1445313,-495.6054688
4.1250,747.0703125,-472.1679688,-500
4.1300,756.8359375,-465.3320313,-503.90625
4.1350,764.6484375,-464.84375,-519.0429688
4.1400,764.1601563,-464.84375,-500
4.1450,748.5351563,-467.2851563,-491.2109375
4.1500,750,-466.796875,-499.5117188
4.1550,757.8125,-485.8398438,-508.7890625
4.1600,752.9296875,-499.5117188,-495.6054688
4.1650,759.765625,-493.1640625,-496.5820313
4.1700,748.046875,-493.6523438,-508.3007813
4.1750,755.859375,-473.1445313,-497.0703125
4.1800,751.4648438,-472.1679688,-477.5390625
4.1850,751.4648438,-468.2617188,-484.8632813
4.1900,752.9296875,-457.5195313,-489.2578125
4.1950,752.4414063,-460.9375,-496.09375
4.2000,750,-460.9375,-486.8164063
4.2050,763.1835938,-460.4492188,-492.1875
4.2100,761.71875,-459.9609375,-502.4414063
4.2150,762.2070313,-456.0546875,-494.6289063
4.2200,764.6484375,-455.078125,-484.8632813
4.2250,753.4179688,-469.7265625,-500.4882813
4.2300,762.2070313,-469.2382813,-483.8867188
4.2350,760.2539063,-467.7734375,-490.7226563
4.2400,753.90625,-454.1015625,-485.8398438
4.2450,757.8125,-450.1953125,-479.0039063
4.2500,756.3476563,-447.265625,-481.4453125
4.2550,753.90625,-456.0546875,-503.4179688
4.2600,756.3476563,-455.5664063,-487.3046875
4.2650,757.3242188,-447.7539063,-496.5820313
4.2700,762.2070313,-449.21875,-512.2070313
4.2750,761.2304688,-438.4765625,-497.5585938
4.2800,744.140625,-440.4296875,-522.4609375
4.2850,743.1640625,-438.4765625,-503.90625
4.2900,747.5585938,-433.59375,-499.0234375
4.2950,745.6054688,-431.640625,-496.5820313
4.3000,745.6054688,-430.6640625,-503.4179688
4.3050,750.4882813,-438.4765625,-516.6015625
4.3100,754.8828125,-434.0820313,-507.3242188
4.3150,743.1640625,-442.3828125,-503.4179688
4.3200,747.5585938,-431.640625,-494.6289063
4.3250,736.8164063,-434.5703125,-511.71875
4.3300,740.7226563,-432.1289063,-511.2304688
4.3350,743.6523438,-429.1992188,-510.2539063
4.3400,741.2109375,-425.78125,-501.4648438
4.3450,743.6523438,-429.6875,-507.3242188
4.3500,753.90625,-425.78125,-511.2304688
4.3550,750.4882813,-434.0820313,-511.2304688
4.3600,755.859375,-437.0117188,-513.1835938
4.3650,756.8359375,-441.8945313,-503.90625
4.3700,755.3710938,-439.453125,-507.8125
4.3750,754.3945313,-434.0820313,-494.6289063
4.3800,748.5351563,-439.453125,-499.0234375
4.3850,753.90625,-436.5234375,-509.765625
4.3900,744.6289063,-448.2421875,-505.859375
4.3950,745.6054688,-458.0078125,-519.0429688
4.4000,749.0234375,-462.890625,-499.0234375
4.4050,756.8359375,-461.9140625,-504.3945313
4.4100,745.6054688,-463.3789063,-504.8828125
4.4150,753.4179688,-443.359375,-485.8398438
4.4200,747.0703125,-442.8710938,-481.9335938
4.4250,749.0234375,-439.453125,-478.0273438
4.4300,753.90625,-442.3828125,-500.4882813
4.4350,760.7421875,-442.3828125,-500.4882813
4.4400,760.7421875,-444.8242188,-503.4179688
4.4450,761.71875,-437.5,-507.3242188
4.4500,752.9296875,-437.0117188,-504.8828125
4.4550,756.8359375,-423.828125,-504.8828125
4.4600,746.09375,-432.1289063,-503.4179688
4.4650,743.1640625,-426.2695313,-505.3710938
4.4700,748.5351563,-428.7109375,-497.5585938
4.4750,741.2109375,-432.1289063,-506.8359375
4.4800,744.140625,-430.6640625,-502.9296875
4.4850,745.6054688,-429.6875,-496.09375
4.4900,758.7890625,-427.2460938,-506.3476563
4.4950,755.859375,-433.59375,-496.5820313
4.5000,757.3242188,-433.1054688,-491.6992188
4.5050,752.9296875,-447.7539063,-502.9296875
4.5100,752.4414063,-442.3828125,-511.71875
4.5150,747.0703125,-445.3125,-492.1875
4.5200,745.6054688,-442.3828125,-485.8398438
4.5250,749.5117188,-435.0585938,-481.4453125
4.5300,745.6054688,-431.640625,-474.609375
4.5350,747.5585938,-426.7578125,-468.2617188
4.5400,754.8828125,-415.0390625,-485.3515625
4.5450,759.765625,-413.5742188,-474.609375
4.5500,757.8125,-412.109375,-486.8164063
4.5550,764.1601563,-409.6679688,-499.0234375
4.5600,767.578125,-412.109375,-487.7929688
4.5650,765.1367188,-421.3867188,-493.1640625
4.5700,763.1835938,-416.015625,-488.28125
4.5750,765.625,-417.4804688,-482.421875
4.5800,758.3007813,-423.828125,-477.5390625
4.5850,758.3007813,-429.1992188,-466.796875
4.5900,754.3945313,-428.7109375,-462.890625
4.5950,757.8125,-432.1289063,-469.7265625
4.6000,765.625,-429.1992188,-472.65625
4.6050,769.53125,-429.1992188,-456.0546875
4.6100,763.1835938,-438.9648438,-461.4257813
4.6150,766.1132813,-438.4765625,-476.0742188
4.6200,775.390625,-430.6640625,-474.1210938
4.6250,780.2734375,-433.1054688,-478.515625
4.6300,786.1328125,-423.3398438,-469.2382813
4.6350,787.5976563,-412.109375,-472.1679688
4.6400,789.0625,-402.8320313,-469.2382813
4.6450,785.15625,-401.3671875,-457.5195313
4.6500,787.5976563,-397.9492188,-462.890625
4.6550,789.5507813,-389.6484375,-462.4023438
4.6600,775.390625,-401.3671875,-459.4726563
4.6650,773.9257813,-404.7851563,-467.2851563
4.6700,769.0429688,-405.7617188,-468.2617188
4.6750,776.8554688,-406.7382813,-472.65625
4.6800,780.2734375,-408.203125,-474.609375
4.6850,780.7617188,-416.9921875,-473.1445313
4.6900,777.8320313,-421.3867188,-479.4921875
4.6950,786.6210938,-410.15625,-479.4921875
4.7000,789.5507813,-405.2734375,-477.5390625
4.7050,790.5273438,-402.8320313,-477.0507813
4.7100,789.0625,-397.4609375,-480.46875
4.7150,785.15625,-402.8320313,-481.4453125
4.7200,775.8789063,-398.4375,-460.9375
4.7250,781.25,-392.578125,-466.796875
4.7300,779.7851563,-391.6015625,-462.4023438
4.7350,789.5507813,-380.3710938,-465.8203125
4.7400,780.2734375,-396.9726563,-477.5390625
4.7450,787.5976563,-398.4375,-473.6328125
4.7500,782.7148438,-401.8554688,-470.2148438
4.7550,790.5273438,-400.8789063,-465.3320313
4.7600,791.9921875,-401.8554688,-459.4726563
4.7650,793.9453125,-403.8085938,-465.8203125
4.7700,793.4570313,-401.3671875,-464.3554688
4.7750,787.5976563,-407.7148438,-445.8007813
4.7800,789.5507813,-410.6445313,-458.0078125
4.7850,795.8984375,-403.3203125,-449.21875
4.7900,798.828125,-408.203125,-451.6601563
4.7950,803.2226563,-415.0390625,-455.5664063
4.8000,800.2929688,-411.1328125,-450.6835938
4.8050,808.1054688,-410.15625,-460.4492188
4.8100,811.5234375,-393.0664063,-438.4765625
4.8150,807.1289063,-388.1835938,-455.078125
4.8200,806.1523438,-390.1367188,-450.1953125
4.8250,803.2226563,-382.8125,-455.078125
4.8300,800.78125,-381.3476563,-448.2421875
4.8350,799.8046875,-385.7421875,-431.640625
4.8400,802.734375,-375.9765625,-430.6640625
4.8450,800.78125,-383.7890625,-440.4296875
4.8500,800.2929688,-389.1601563,-442.3828125
4.8550,813.9648438,-384.2773438,-428.7109375
4.8600,818.359375,-383.3007813,-442.8710938
4.8650,815.9179688,-386.2304688,-427.734375
4.8700,817.8710938,-399.4140625,-443.8476563
4.8750,822.265625,-404.296875,-454.1015625
4.8800,820.3125,-412.5976563,-454.5898438
4.8850,831.5429688,-395.0195313,-448.2421875
4.8900,828.125,-399.9023438,-448.7304688
4.8950,821.2890625,-396.484375,-450.1953125
4.9000,812.5,-389.6484375,-436.0351563
4.9050,811.5234375,-376.953125,-435.546875
4.9100,811.0351563,-371.5820313,-428.7109375
4.9150,812.9882813,-367.1875,-418.9453125
4.9200,807.6171875,-370.6054688,-426.7578125
4.9250,806.640625,-372.5585938,-422.3632813
4.9300,807.6171875,-380.859375,-423.828125
4.9350,823.7304688,-379.8828125,-415.5273438
4.9400,823.7304688,-386.2304688,-438.4765625
4.9450,837.4023438,-376.4648438,-435.0585938
4.9500,830.5664063,-383.7890625,-428.2226563
4.9550,830.5664063,-380.3710938,-439.453125
4.9600,836.4257813,-375,-411.1328125
4.9650,836.9140625,-367.1875,-418.9453125
4.9700,836.4257813,-362.3046875,-414.0625
4.9750,833.0078125,-361.328125,-416.9921875
4.9800,815.9179688,-377.4414063,-429.1992188
4.9850,812.9882813,-378.90625,-433.1054688
4.9900,812.0117188,-375.4882813,-421.875
4.9950,808.59375,-374.5117188,-420.8984375
5.0000,799.8046875,-369.140625,-411.1328125
5.0050,802.2460938,-361.8164063,-392.0898438
5.0100,813.4765625,-353.515625,-399.9023438
5.0150,818.8476563,-353.0273438,-405.7617188
5.0200,830.078125,-350.5859375,-400.8789063
5.0250,832.03125,-368.1640625,-416.9921875
5.0300,844.2382813,-368.1640625,-414.5507813
5.0350,859.8632813,-371.5820313,-424.3164063
5.0400,863.28125,-376.4648438,-420.8984375
5.0450,866.2109375,-374.0234375,-412.5976563
5.0500,861.8164063,-365.234375,-405.7617188
5.0550,854.0039063,-366.6992188,-407.2265625
5.0600,837.4023438,-363.7695313,-406.25
5.0650,829.5898438,-362.3046875,-406.7382813
5.0700,826.171875,-357.421875,-399.4140625
5.0750,814.9414063,-363.7695313,-391.1132813
5.0800,812.5,-360.8398438,-386.71875
5.0850,831.5429688,-359.8632813,-378.4179688
5.0900,835.4492188,-363.28125,-366.6992188
5.0950,847.1679688,-367.6757813,-389.1601563
5.1000,851.5625,-370.1171875,-388.1835938
5.1050,861.328125,-365.7226563,-389.6484375
5.1100,862.7929688,-364.7460938,-382.3242188
5.1150,872.5585938,-368.6523438,-397.9492188
5.1200,878.4179688,-377.4414063,-391.1132813
5.1250,877.4414063,-376.4648438,-409.1796875
5.1300,867.6757813,-373.5351563,-397.9492188
5.1350,856.4453125,-366.6992188,-399.4140625
5.1400,840.8203125,-355.9570313,-383.3007813
5.1450,830.5664063,-351.0742188,-371.09375
5.1500,843.2617188,-344.7265625,-367.6757813
5.1550,846.6796875,-349.609375,-364.2578125
5.1600,843.75,-350.5859375,-364.7460938
5.1650,839.84375,-354.0039063,-367.6757813
5.1700,846.1914063,-352.0507813,-381.8359375
5.1750,857.9101563,-354.4921875,-382.8125
5.1800,864.7460938,-355.9570313,-388.671875
5.1850,873.5351563,-350.0976563,-383.3007813
5.1900,875.9765625,-346.1914063,-376.4648438
5.1950,872.5585938,-350.0976563,-362.7929688
5.2000,867.1875,-343.75,-375.4882813
5.2050,854.9804688,-340.3320313,-387.2070313
5.2100,840.8203125,-332.5195313,-369.6289063
5.2150,843.75,-327.1484375,-359.375
5.2200,856.4453125,-318.8476563,-356.4453125
5.2250,854.0039063,-318.359375,-355.9570313
5.2300,859.8632813,-321.2890625,-348.6328125
5.2350,858.8867188,-333.984375,-350.5859375
5.2400,865.234375,-338.8671875,-350.5859375
5.2450,884.765625,-333.984375,-352.5390625
5.2500,885.7421875,-342.7734375,-363.28125
5.2550,891.6015625,-354.4921875,-376.4648438
5.2600,888.1835938,-361.8164063,-375
5.2650,880.859375,-364.7460938,-357.421875
5.2700,872.0703125,-357.9101563,-353.515625
5.2750,879.8828125,-356.9335938,-347.65625
5.2800,869.6289063,-345.2148438,-363.28125
5.2850,871.5820313,-335.9375,-352.5390625
5.2900,872.0703125,-318.8476563,-347.1679688
5.2950,869.140625,-310.546875,-350.5859375
5.3000,863.28125,-297.8515625,-337.4023438
5.3050,856.9335938,-305.1757813,-335.9375
5.3100,862.3046875,-297.3632813,-330.078125
5.3150,868.6523438,-291.015625,-342.2851563
5.3200,864.2578125,-303.7109375,-347.65625
5.3250,868.1640625,-310.0585938,-343.75
5.3300,882.8125,-311.0351563,-342.2851563
5.3350,889.6484375,-312.0117188,-348.6328125
5.3400,889.1601563,-318.359375,-348.1445313
5.3450,904.7851563,-310.0585938,-339.84375
5.3500,901.3671875,-313.4765625,-332.03125
5.3550,900.390625,-310.0585938,-343.2617188
5.3600,896.484375,-309.0820313,-335.4492188
5.3650,905.7617188,-299.3164063,-330.5664063
5.3700,910.15625,-294.921875,-325.1953125
5.3750,911.1328125,-294.921875,-319.8242188
5.3800,905.2734375,-302.734375,-320.8007813
5.3850,906.7382813,-303.2226563,-323.7304688
5.3900,895.0195313,-301.7578125,-322.7539063
5.3950,892.0898438,-295.8984375,-334.9609375
5.4000,890.625,-288.5742188,-327.1484375
5.4050,890.1367188,-299.8046875,-317.8710938
5.4100,886.71875,-307.6171875,-292.96875
5.4150,901.3671875,-307.1289063,-318.359375
5.4200,905.2734375,-305.6640625,-306.640625
5.4250,913.5742188,-299.8046875,-291.5039063
5.4300,921.3867188,-299.8046875,-300.2929688
5.4350,912.109375,-304.6875,-291.5039063
5.4400,921.3867188,-288.0859375,-302.734375
5.4450,912.5976563,-299.8046875,-306.640625
5.4500,916.5039063,-307.1289063,-313.9648438
5.4550,923.828125,-315.9179688,-298.828125
5.4600,929.6875,-322.7539063,-293.9453125
5.4650,934.0820313,-317.3828125,-290.0390625
5.4700,934.5703125,-305.6640625,-275.8789063
5.4750,914.5507813,-319.3359375,-281.25
5.4800,925.2929688,-303.7109375,-284.6679688
5.4850,916.9921875,-310.0585938,-282.2265625
5.4900,923.828125,-311.0351563,-302.734375
5.4950,929.1992188,-312.5,-321.7773438
5.5000,926.7578125,-312.5,-312.0117188
5.5050,924.3164063,-299.8046875,-305.6640625
5.5100,928.7109375,-288.0859375,-305.1757813
5.5150,917.96875,-286.6210938,-299.8046875
5.5200,900.390625,-282.7148438,-309.0820313
5.5250,894.53125,-274.9023438,-294.4335938
5.5300,902.34375,-263.671875,-297.3632813
5.5350,907.2265625,-262.6953125,-289.5507813
5.5400,913.5742188,-262.6953125,-276.8554688
5.5450,937.0117188,-245.6054688,-265.1367188
5.5500,929.1992188,-252.9296875,-271.9726563
5.5550,923.828125,-251.953125,-281.7382813
5.5600,910.15625,-252.9296875,-287.109375
5.5650,912.5976563,-258.3007813,-290.0390625
5.5700,907.2265625,-264.6484375,-278.8085938
5.5750,921.875,-274.9023438,-267.578125
5.5800,925.78125,-271.484375,-272.9492188
5.5850,931.640625,-277.34375,-280.2734375
5.5900,928.7109375,-281.25,-288.5742188
5.5950,938.4765625,-279.296875,-273.9257813
5.6000,939.453125,-277.34375,-291.015625
5.6050,944.3359375,-273.4375,-275.8789063
5.6100,933.1054688,-272.4609375,-287.109375
5.6150,935.0585938,-263.671875,-287.109375
5.6200,936.5234375,-250,-276.3671875
5.6250,934.0820313,-250,-275.8789063
5.6300,932.6171875,-240.7226563,-263.1835938
5.6350,918.4570313,-241.6992188,-279.296875
5.6400,895.9960938,-240.234375,-262.2070313
5.6450,891.1132813,-240.7226563,-254.8828125
5.6500,898.4375,-235.8398438,-250.9765625
5.6550,902.8320313,-238.7695313,-243.1640625
5.6600,917.4804688,-228.0273438,-234.8632813
5.6650,914.0625,-233.8867188,-241.6992188
5.6700,922.3632813,-228.0273438,-241.2109375
5.6750,936.5234375,-232.421875,-229.9804688
5.6800,949.21875,-229.9804688,-219.7265625
5.6850,952.6367188,-235.8398438,-238.28125
5.6900,955.078125,-239.7460938,-257.3242188
5.6950,954.1015625,-249.0234375,-260.7421875
5.7000,954.1015625,-246.09375,-253.4179688
5.7050,956.0546875,-237.3046875,-263.1835938
5.7100,940.9179688,-235.3515625,-253.90625
5.7150,934.0820313,-242.1875,-255.3710938
5.7200,931.1523438,-239.7460938,-256.8359375
5.7250,936.5234375,-237.7929688,-243.1640625
5.7300,930.6640625,-243.1640625,-268.0664063
5.7350,946.2890625,-228.515625,-249.0234375
5.7400,932.1289063,-231.9335938,-242.6757813
5.7450,935.546875,-223.6328125,-225.5859375
5.7500,931.1523438,-225.0976563,-223.6328125
5.7550,940.4296875,-229.0039063,-244.6289063
5.7600,945.3125,-232.9101563,-244.140625
5.7650,951.171875,-234.8632813,-250.9765625
5.7700,952.1484375,-236.328125,-237.7929688
5.7750,952.6367188,-242.1875,-269.53125
5.7800,955.5664063,-233.3984375,-269.0429688
5.7850,956.0546875,-242.6757813,-269.53125
5.7900,956.0546875,-246.09375,-270.5078125
5.7950,948.7304688,-249.0234375,-260.2539063
5.8000,943.8476563,-248.5351563,-256.8359375
5.8050,938.4765625,-245.6054688,-243.6523438
5.8100,940.9179688,-240.7226563,-245.6054688
5.8150,933.59375,-254.3945313,-242.1875
5.8200,937.9882813,-250,-244.6289063
5.8250,945.3125,-249.0234375,-240.7226563
5.8300,943.359375,-249.5117188,-245.6054688
5.8350,933.1054688,-250,-243.1640625
5.8400,936.5234375,-229.9804688,-233.3984375
5.8450,935.546875,-218.2617188,-241.2109375
5.8500,929.1992188,-212.890625,-237.3046875
5.8550,925.78125,-215.3320313,-232.421875
5.8600,936.0351563,-204.5898438,-249.5117188
5.8650,939.9414063,-203.125,-253.4179688
5.8700,944.8242188,-209.9609375,-234.375
5.8750,952.1484375,-213.3789063,-231.9335938
5.8800,957.5195313,-215.3320313,-242.1875
5.8850,956.5429688,-224.609375,-252.4414063
5.8900,958.984375,-225.0976563,-252.9296875
5.8950,967.2851563,-218.75,-260.7421875
5.9000,960.9375,-228.0273438,-264.6484375
5.9050,962.4023438,-220.703125,-276.8554688
5.9100,947.265625,-217.2851563,-263.1835938
5.9150,942.3828125,-216.796875,-259.765625
5.9200,928.2226563,-219.2382813,-237.7929688
5.9250,919.4335938,-207.03125,-228.0273438
5.9300,914.5507813,-192.8710938,-216.796875
5.9350,914.5507813,-190.4296875,-205.078125
5.9400,923.3398438,-166.015625,-188.4765625
5.9450,921.875,-166.015625,-181.640625
5.9500,937.5,-154.296875,-196.7773438
5.9550,953.125,-161.6210938,-233.3984375
5.9600,957.5195313,-174.3164063,-226.5625
5.9650,969.7265625,-185.546875,-230.9570313
5.9700,970.703125,-198.7304688,-223.6328125
5.9750,969.2382813,-208.4960938,-235.3515625
5.9800,967.7734375,-207.5195313,-225.0976563
5.9850,964.3554688,-211.4257813,-234.375
5.9900,965.3320313,-227.0507813,-236.8164063
5.9950,959.4726563,-223.6328125,-238.7695313
6.0000,955.5664063,-214.3554688,-244.6289063
6.0050,942.8710938,-216.3085938,-246.09375
6.0100,942.3828125,-201.6601563,-243.6523438
6.0150,941.8945313,-196.2890625,-252.4414063
6.0200,935.546875,-188.4765625,-230.46875
6.0250,937.9882813,-176.7578125,-222.65625
6.0300,940.9179688,-178.7109375,-209.4726563
6.0350,949.7070313,-173.828125,-217.7734375
6.0400,951.171875,-180.6640625,-213.3789063
6.0450,953.6132813,-189.9414063,-218.75
6.0500,964.3554688,-197.265625,-209.4726563
6.0550,968.2617188,-209.9609375,-209.4726563
6.0600,963.3789063,-214.84375,-231.9335938
6.0650,961.9140625,-211.4257813,-241.6992188
6.0700,959.4726563,-212.890625,-255.3710938
6.0750,960.9375,-213.3789063,-270.5078125
6.0800,955.078125,-218.75,-257.8125
6.0850,949.7070313,-215.8203125,-266.6015625
6.0900,933.59375,-215.8203125,-270.5078125
6.0950,925.2929688,-213.3789063,-272.4609375
6.1000,919.4335938,-211.4257813,-241.2109375
6.1050,924.3164063,-205.5664063,-233.8867188
6.1100,928.7109375,-198.7304688,-214.84375
6.1150,936.0351563,-199.21875,-218.2617188
6.1200,941.40625,-194.8242188,-209.9609375
6.1250,945.3125,-202.1484375,-235.3515625
6.1300,947.7539063,-206.0546875,-244.140625
6.1350,952.6367188,-206.0546875,-245.1171875
6.1400,953.125,-201.171875,-253.4179688
6.1450,947.7539063,-196.7773438,-272.4609375
6.1500,938.9648438,-201.6601563,-271.9726563
6.1550,937.0117188,-208.4960938,-280.2734375
6.1600,938.9648438,-207.03125,-281.7382813
6.1650,944.3359375,-206.0546875,-282.7148438
6.1700,935.546875,-202.1484375,-284.6679688
6.1750,935.546875,-206.5429688,-265.1367188
6.1800,934.5703125,-197.265625,-276.3671875
6.1850,956.5429688,-187.5,-279.7851563
6.1900,952.6367188,-195.8007813,-272.9492188
6.1950,950.6835938,-196.2890625,-279.7851563
6.2000,949.7070313,-191.40625,-271.484375
6.2050,944.8242188,-193.359375,-261.71875
6.2100,943.359375,-189.453125,-262.6953125
6.2150,939.453125,-192.8710938,-264.1601563
6.2200,934.5703125,-186.0351563,-261.2304688
6.2250,937.9882813,-191.8945313,-247.0703125
6.2300,939.453125,-194.8242188,-261.71875
6.2350,935.546875,-200.6835938,-256.8359375
6.2400,935.0585938,-193.359375,-249.0234375
6.2450,937.9882813,-194.8242188,-257.8125
6.2500,942.8710938,-191.40625,-255.3710938
6.2550,941.8945313,-204.5898438,-246.5820313
6.2600,941.8945313,-201.6601563,-253.4179688
6.2650,958.4960938,-198.2421875,-256.3476563
6.2700,956.5429688,-204.1015625,-245.1171875
6.2750,958.984375,-208.4960938,-274.9023438
6.2800,953.6132813,-212.890625,-283.6914063
6.2850,956.5429688,-215.8203125,-290.5273438
6.2900,945.3125,-219.7265625,-301.2695313
6.2950,949.21875,-211.4257813,-290.0390625
6.3000,942.3828125,-197.265625,-287.109375
6.3050,943.359375,-186.0351563,-261.2304688
6.3100,942.3828125,-172.8515625,-259.765625
6.3150,937.0117188,-171.875,-247.0703125
6.3200,945.3125,-169.4335938,-260.7421875
6.3250,955.5664063,-166.015625,-251.4648438
6.3300,958.4960938,-175.2929688,-245.6054688
6.3350,953.125,-185.0585938,-238.7695313
6.3400,948.2421875,-193.359375,-240.234375
6.3450,955.078125,-203.125,-231.9335938
6.3500,973.1445313,-202.6367188,-241.2109375
6.3550,979.4921875,-213.8671875,-264.1601563
6.3600,982.9101563,-219.7265625,-260.7421875
6.3650,977.0507813,-224.609375,-270.5078125
6.3700,966.796875,-219.7265625,-254.8828125
6.3750,959.4726563,-214.3554688,-259.2773438
6.3800,958.4960938,-192.3828125,-264.6484375
6.3850,945.8007813,-179.1992188,-264.6484375
6.3900,940.4296875,-167.96875,-252.9296875
6.3950,925.2929688,-169.4335938,-250.4882813
6.4000,925.78125,-150.8789063,-252.9296875
6.4050,927.2460938,-144.0429688,-242.1875
6.4100,930.1757813,-142.578125,-247.5585938
6.4150,937.5,-150.390625,-250
6.4200,946.2890625,-152.8320313,-259.765625
6.4250,955.5664063,-153.8085938,-275.8789063
6.4300,948.7304688,-164.0625,-277.8320313
6.4350,945.3125,-170.8984375,-274.9023438
6.4400,942.8710938,-177.2460938,-275.390625
6.4450,948.2421875,-177.734375,-271.9726563
6.4500,938.9648438,-188.4765625,-269.0429688
6.4550,943.359375,-191.40625,-260.7421875
6.4600,943.8476563,-186.0351563,-257.8125
6.4650,947.7539063,-191.40625,-257.3242188
6.4700,949.21875,-193.8476563,-247.5585938
6.4750,955.078125,-182.6171875,-246.09375
6.4800,957.03125,-176.7578125,-233.3984375
6.4850,952.6367188,-176.2695313,-233.3984375
6.4900,958.984375,-164.0625,-237.3046875
6.4950,951.6601563,-165.0390625,-225.0976563
6.5000,954.5898438,-159.1796875,-253.90625
6.5050,956.0546875,-161.1328125,-263.671875
6.5100,950.1953125,-161.1328125,-269.53125
6.5150,957.03125,-154.7851563,-281.7382813
6.5200,942.8710938,-155.7617188,-268.5546875
6.5250,939.453125,-153.3203125,-258.7890625
6.5300,943.359375,-142.578125,-272.4609375
6.5350,950.1953125,-149.9023438,-280.2734375
6.5400,952.1484375,-149.4140625,-263.671875
6.5450,944.8242188,-157.2265625,-254.8828125
6.5500,942.8710938,-159.1796875,-255.3710938
6.5550,952.1484375,-155.7617188,-250.9765625
6.5600,941.40625,-166.5039063,-252.4414063
6.5650,951.6601563,-157.7148438,-247.5585938
6.5700,950.6835938,-159.1796875,-250
6.5750,955.5664063,-166.5039063,-239.7460938
6.5800,951.171875,-170.4101563,-254.3945313
6.5850,955.078125,-170.8984375,-265.1367188
6.5900,957.03125,-169.4335938,-282.2265625
6.5950,960.4492188,-161.1328125,-282.2265625
6.6000,958.4960938,-159.6679688,-270.5078125
6.6050,951.6601563,-166.015625,-310.0585938
6.6100,949.7070313,-146.9726563,-289.0625
6.6150,943.359375,-151.3671875,-306.1523438
6.6200,941.8945313,-148.4375,-297.8515625
6.6250,937.5,-149.4140625,-300.2929688
6.6300,938.9648438,-157.2265625,-297.3632813
6.6350,932.6171875,-161.6210938,-299.8046875
6.6400,937.9882813,-157.7148438,-279.296875
6.6450,948.2421875,-145.0195313,-272.9492188
6.6500,942.3828125,-151.8554688,-270.5078125
6.6550,951.6601563,-151.3671875,-263.671875
6.6600,963.8671875,-142.578125,-258.3007813
6.6650,953.125,-155.7617188,-273.9257813
6.6700,957.5195313,-157.2265625,-255.3710938
6.6750,960.9375,-154.296875,-269.53125
6.6800,960.9375,-154.7851563,-253.90625
6.6850,962.890625,-153.8085938,-268.5546875
6.6900,963.3789063,-146.484375,-264.1601563
6.6950,965.8203125,-138.671875,-251.953125
6.7000,969.2382813,-133.3007813,-278.8085938
6.7050,951.6601563,-149.4140625,-313.4765625
6.7100,959.9609375,-139.6484375,-295.4101563
6.7150,950.1953125,-144.53125,-300.2929688
6.7200,949.21875,-140.1367188,-297.3632813
6.7250,939.9414063,-146.9726563,-294.921875
6.7300,950.1953125,-140.1367188,-283.203125
6.7350,955.5664063,-131.3476563,-293.9453125
6.7400,948.7304688,-142.578125,-300.2929688
6.7450,954.5898438,-137.6953125,-307.6171875
6.7500,951.6601563,-144.0429688,-299.8046875
6.7550,957.03125,-147.4609375,-304.6875
6.7600,951.171875,-153.8085938,-307.6171875
6.7650,959.4726563,-156.25,-303.7109375
6.7700,952.6367188,-163.5742188,-296.875
6.7750,955.078125,-166.9921875,-304.1992188
6.7800,961.4257813,-149.9023438,-298.3398438
6.7850,952.6367188,-150.8789063,-306.640625
6.7900,956.5429688,-143.5546875,-316.40625
6.7950,952.1484375,-143.5546875,-293.4570313
6.8000,953.125,-131.3476563,-304.6875
6.8050,947.7539063,-134.765625,-298.828125
6.8100,951.6601563,-128.4179688,-305.6640625
6.8150,948.7304688,-129.8828125,-292.4804688
6.8200,954.1015625,-129.3945313,-288.5742188
6.8250,958.4960938,-124.0234375,-292.96875
6.8300,948.2421875,-138.671875,-296.875
6.8350,948.2421875,-140.1367188,-303.7109375
6.8400,942.8710938,-142.0898438,-288.0859375
6.8450,946.2890625,-137.2070313,-283.6914063
6.8500,943.359375,-132.3242188,-281.7382813
6.8550,954.5898438,-121.09375,-276.8554688
6.8600,955.078125,-113.28125,-283.6914063
6.8650,952.6367188,-104.9804688,-276.8554688
6.8700,954.5898438,-91.30859375,-272.4609375
6.8750,952.6367188,-88.37890625,-266.6015625
6.8800,947.7539063,-82.51953125,-265.625
6.8850,951.171875,-69.82421875,-242.1875
6.8900,962.890625,-59.5703125,-251.4648438
6.8950,958.4960938,-67.87109375,-247.5585938
6.9000,958.0078125,-65.4296875,-246.09375
6.9050,971.6796875,-59.5703125,-235.8398438
6.9100,963.8671875,-70.80078125,-243.6523438
6.9150,965.3320313,-72.75390625,-226.0742188
6.9200,957.5195313,-82.51953125,-227.0507813
6.9250,953.125,-93.75,-235.8398438
6.9300,955.5664063,-99.12109375,-226.5625
6.9350,950.1953125,-107.9101563,-241.2109375
6.9400,954.1015625,-104.9804688,-242.1875
6.9450,958.4960938,-100.0976563,-249.0234375
6.9500,953.125,-88.8671875,-250
6.9550,957.03125,-63.96484375,-252.9296875
6.9600,954.5898438,-51.7578125,-253.90625
6.9650,943.8476563,-47.8515625,-250
6.9700,955.078125,-38.57421875,-266.6015625
6.9750,958.984375,-38.0859375,-264.6484375
6.9800,960.9375,-46.38671875,-280.7617188
6.9850,962.890625,-59.08203125,-265.1367188
6.9900,971.1914063,-68.359375,-276.8554688
6.9950,984.375,-76.66015625,-282.2265625
7.0000,972.65625,-88.37890625,-273.4375
7.0050,969.2382813,-90.8203125,-285.6445313
7.0100,970.703125,-94.23828125,-278.3203125
7.0150,962.890625,-98.6328125,-295.8984375
7.0200,948.7304688,-110.8398438,-294.4335938
7.0250,947.265625,-108.8867188,-326.171875
7.0300,934.0820313,-120.6054688,-316.40625
7.0350,932.1289063,-121.09375,-333.984375
7.0400,933.59375,-111.8164063,-330.5664063
7.0450,928.2226563,-120.1171875,-319.8242188
7.0500,930.1757813,-110.3515625,-320.3125
7.0550,929.6875,-109.8632813,-326.171875
7.0600,932.6171875,-102.5390625,-314.9414063
7.0650,937.9882813,-93.26171875,-317.3828125
7.0700,935.0585938,-96.6796875,-309.5703125
7.0750,946.2890625,-91.30859375,-317.3828125
7.0800,945.8007813,-90.8203125,-336.9140625
7.0850,942.3828125,-96.19140625,-317.8710938
7.0900,945.8007813,-94.23828125,-334.4726563
7.0950,939.453125,-108.8867188,-345.703125
7.1000,949.7070313,-104.4921875,-333.984375
7.1050,950.1953125,-109.8632813,-336.9140625
7.1100,955.5664063,-108.8867188,-324.21875
7.1150,955.078125,-112.7929688,-308.1054688
7.1200,956.0546875,-97.16796875,-303.7109375
7.1250,954.5898438,-91.30859375,-306.1523438
7.1300,945.3125,-86.42578125,-293.4570313
7.1350,948.7304688,-80.078125,-300.2929688
7.1400,948.7304688,-68.359375,-295.8984375
7.1450,952.1484375,-64.453125,-306.1523438
7.1500,947.265625,-69.3359375,-289.0625
7.1550,949.21875,-62.98828125,-295.4101563
7.1600,952.6367188,-64.94140625,-291.5039063
7.1650,951.171875,-74.21875,-304.1992188
7.1700,954.1015625,-69.3359375,-303.2226563
7.1750,953.125,-81.54296875,-297.3632813
7.1800,951.171875,-87.40234375,-294.4335938
7.1850,948.2421875,-94.7265625,-307.1289063
7.1900,955.078125,-88.37890625,-310.0585938
7.1950,959.9609375,-91.30859375,-315.9179688
7.2000,953.125,-83.984375,-313.9648438
7.2050,961.4257813,-72.75390625,-322.7539063
7.2100,951.171875,-68.84765625,-307.1289063
7.2150,956.0546875,-67.87109375,-312.9882813
7.2200,949.7070313,-70.3125,-317.8710938
7.2250,955.5664063,-71.2890625,-297.3632813
7.2300,966.3085938,-62.01171875,-307.1289063
7.2350,965.8203125,-68.84765625,-298.828125
7.2400,963.3789063,-70.3125,-287.5976563
7.2450,968.2617188,-69.3359375,-286.6210938
7.2500,967.7734375,-77.1484375,-273.4375
7.2550,981.4453125,-76.66015625,-266.1132813
7.2600,993.6523438,-73.2421875,-263.671875
7.2650,987.3046875,-76.66015625,-270.5078125
7.2700,998.046875,-62.01171875,-249.5117188
7.2750,993.1640625,-66.89453125,-260.2539063
7.2800,988.7695313,-72.265625,-253.90625
7.2850,994.140625,-64.453125,-258.3007813
7.2900,984.375,-64.94140625,-265.1367188
7.2950,980.46875,-67.3828125,-285.15625
7.3000,971.1914063,-58.59375,-264.1601563
7.3050,973.1445313,-56.15234375,-270.9960938
7.3100,971.6796875,-50.29296875,-270.9960938
7.3150,974.609375,-52.24609375,-270.5078125
7.3200,975.5859375,-44.43359375,-278.3203125
7.3250,969.2382813,-41.9921875,-269.53125
7.3300,969.7265625,-50.29296875,-265.1367188
7.3350,973.1445313,-43.45703125,-270.5078125
7.3400,971.1914063,-45.41015625,-271.9726563
7.3450,964.3554688,-51.7578125,-265.1367188
7.3500,961.4257813,-61.03515625,-259.2773438
7.3550,967.2851563,-62.5,-281.7382813
7.3600,968.75,-59.08203125,-269.53125
7.3650,972.1679688,-57.6171875,-282.2265625
7.3700,966.796875,-61.03515625,-283.6914063
7.3750,965.3320313,-65.91796875,-292.96875
7.3800,959.4726563,-67.3828125,-298.3398438
7.3850,965.3320313,-62.5,-290.5273438
7.3900,963.8671875,-62.01171875,-301.7578125
7.3950,961.4257813,-62.98828125,-299.8046875
7.4000,952.6367188,-60.05859375,-296.875
7.4050,954.1015625,-62.01171875,-283.6914063
7.4100,956.0546875,-63.4765625,-286.1328125
7.4150,950.1953125,-64.94140625,-289.5507813
7.4200,948.7304688,-62.5,-278.3203125
7.4250,958.4960938,-65.4296875,-284.1796875
7.4300,960.9375,-59.5703125,-288.5742188
7.4350,949.7070313,-67.87109375,-293.9453125
7.4400,950.6835938,-63.4765625,-300.78125
7.4450,946.2890625,-66.89453125,-302.734375
7.4500,951.171875,-63.4765625,-314.453125
7.4550,945.3125,-66.40625,-308.1054688
7.4600,942.8710938,-74.21875,-312.5
7.4650,943.359375,-71.2890625,-313.9648438
7.4700,940.9179688,-72.75390625,-307.6171875
7.4750,948.7304688,-78.61328125,-322.265625
7.4800,951.171875,-78.61328125,-309.0820313
7.4850,957.5195313,-69.82421875,-306.640625
7.4900,955.5664063,-76.66015625,-309.5703125
7.4950,956.0546875,-80.56640625,-292.4804688
7.5000,956.5429688,-73.73046875,-312.0117188
7.5050,960.9375,-67.87109375,-289.0625
7.5100,961.4257813,-62.5,-295.4101563
7.5150,967.2851563,-66.40625,-280.2734375
7.5200,958.0078125,-73.73046875,-287.5976563
7.5250,960.9375,-55.6640625,-287.109375
7.5300,957.5195313,-63.96484375,-283.6914063
7.5350,970.703125,-49.8046875,-284.1796875
7.5400,957.5195313,-59.08203125,-285.6445313
7.5450,956.5429688,-62.01171875,-292.4804688
7.5500,955.078125,-63.4765625,-278.8085938
7.5550,957.03125,-72.265625,-284.6679688
7.5600,960.9375,-72.75390625,-281.25
7.5650,964.84375,-73.73046875,-301.2695313
7.5700,968.2617188,-78.125,-275.8789063
7.5750,966.3085938,-81.54296875,-289.5507813
7.5800,960.4492188,-85.9375,-296.875
7.5850,963.8671875,-76.171875,-288.5742188
7.5900,964.84375,-71.2890625,-289.5507813
7.5950,964.84375,-64.94140625,-290.5273438
7.6000,970.703125,-62.5,-282.2265625
7.6050,959.4726563,-69.82421875,-282.7148438
7.6100,962.4023438,-62.5,-270.9960938
7.6150,968.2617188,-63.4765625,-274.4140625
7.6200,957.5195313,-72.265625,-259.2773438
7.6250,961.9140625,-75.68359375,-249.5117188
7.6300,963.3789063,-75.68359375,-257.3242188
7.6350,972.1679688,-76.171875,-267.0898438
7.6400,957.03125,-77.1484375,-267.578125
7.6450,959.4726563,-80.56640625,-272.4609375
7.6500,958.0078125,-83.49609375,-286.6210938
7.6550,962.890625,-82.03125,-287.109375
7.6600,955.5664063,-83.0078125,-287.109375
7.6650,958.0078125,-82.03125,-294.4335938
7.6700,960.4492188,-77.1484375,-282.2265625
7.6750,958.0078125,-77.1484375,-299.3164063
7.6800,958.984375,-75.68359375,-288.0859375
7.6850,967.7734375,-71.2890625,-274.4140625
7.6900,969.7265625,-66.40625,-273.4375
7.6950,969.2382813,-66.89453125,-266.1132813
7.7000,962.4023438,-71.2890625,-267.578125
7.7050,961.9140625,-68.84765625,-265.1367188
7.7100,956.0546875,-67.3828125,-260.7421875
7.7150,960.9375,-68.359375,-251.4648438
7.7200,957.5195313,-68.84765625,-265.625
7.7250,957.5195313,-72.265625,-257.3242188
7.7300,958.4960938,-74.21875,-263.671875
7.7350,961.4257813,-72.75390625,-261.71875
7.7400,963.3789063,-71.77734375,-282.7148438
7.7450,966.3085938,-74.70703125,-288.0859375
7.7500,960.9375,-85.44921875,-274.4140625
7.7550,963.8671875,-80.56640625,-282.7148438
7.7600,961.4257813,-79.58984375,-284.6679688
7.7650,953.125,-88.8671875,-285.15625
7.7700,962.4023438,-77.1484375,-279.296875
7.7750,958.4960938,-82.03125,-288.5742188
7.7800,957.5195313,-72.265625,-294.4335938
7.7850,949.7070313,-68.359375,-282.7148438
7.7900,953.6132813,-61.5234375,-279.296875
7.7950,952.1484375,-66.40625,-272.4609375
7.8000,961.9140625,-57.6171875,-271.9726563
7.8050,960.9375,-64.94140625,-279.296875
7.8100,958.984375,-62.01171875,-273.4375
7.8150,953.125,-73.73046875,-272.9492188
7.8200,955.5664063,-67.3828125,-283.203125
7.8250,961.4257813,-75.68359375,-265.625
7.8300,966.3085938,-69.3359375,-270.5078125
7.8350,965.3320313,-72.75390625,-270.5078125
7.8400,955.5664063,-79.58984375,-243.1640625
7.8450,966.796875,-82.03125,-261.71875
7.8500,963.3789063,-83.984375,-260.7421875
7.8550,961.9140625,-92.28515625,-271.9726563
7.8600,962.4023438,-78.61328125,-258.3007813
7.8650,961.9140625,-86.42578125,-262.2070313
7.8700,959.9609375,-83.0078125,-269.53125
7.8750,956.5429688,-81.54296875,-269.53125
7.8800,955.5664063,-79.1015625,-264.1601563
7.8850,946.2890625,-81.54296875,-273.4375
7.8900,951.6601563,-76.171875,-276.3671875
7.8950,958.0078125,-78.125,-268.0664063
7.9000,955.078125,-68.84765625,-283.203125
7.9050,950.1953125,-65.4296875,-262.2070313
7.9100,946.7773438,-67.3828125,-260.7421875
7.9150,950.6835938,-63.4765625,-266.1132813
7.9200,952.6367188,-60.05859375,-266.1132813
7.9250,953.125,-68.84765625,-258.3007813
7.9300,952.6367188,-69.82421875,-264.1601563
7.9350,950.6835938,-79.1015625,-259.765625
7.9400,955.078125,-67.3828125,-247.0703125
7.9450,951.6601563,-75.1953125,-256.8359375
7.9500,958.0078125,-79.58984375,-256.8359375
7.9550,962.890625,-83.0078125,-255.3710938
7.9600,970.2148438,-80.56640625,-263.671875
7.9650,972.65625,-85.9375,-264.6484375
7.9700,972.1679688,-89.35546875,-245.6054688
7.9750,979.9804688,-82.51953125,-270.0195313
7.9800,963.3789063,-84.9609375,-253.90625
7.9850,964.3554688,-83.49609375,-259.765625
7.9900,970.2148438,-76.66015625,-249.0234375
7.9950,962.890625,-84.47265625,-247.5585938
8.0000,958.984375,-79.1015625,-238.7695313
8.0050,966.796875,-83.49609375,-245.6054688
8.0100,965.8203125,-78.61328125,-235.8398438
8.0150,970.703125,-73.2421875,-238.7695313
8.0200,973.1445313,-69.82421875,-225.5859375
8.0250,966.796875,-74.21875,-249.5117188
8.0300,964.84375,-78.61328125,-249.0234375
8.0350,971.1914063,-78.61328125,-244.6289063
8.0400,976.5625,-91.30859375,-257.3242188
8.0450,975.0976563,-99.609375,-253.90625
8.0500,979.9804688,-102.0507813,-268.0664063
8.0550,977.5390625,-98.6328125,-250.9765625
8.0600,969.7265625,-98.14453125,-249.5117188
8.0650,967.2851563,-93.75,-258.7890625
8.0700,972.65625,-91.796875,-251.953125
8.0750,978.515625,-90.33203125,-237.7929688
8.0800,973.1445313,-83.984375,-260.2539063
8.0850,958.4960938,-91.796875,-244.6289063
8.0900,957.03125,-88.37890625,-249.5117188
8.0950,957.5195313,-93.75,-250.4882813
8.1000,965.3320313,-88.37890625,-235.8398438
8.1050,963.8671875,-94.23828125,-251.4648438
8.1100,965.8203125,-83.984375,-254.8828125
8.1150,959.9609375,-95.703125,-252.9296875
8.1200,954.5898438,-93.75,-255.859375
8.1250,962.890625,-98.6328125,-255.3710938
8.1300,968.2617188,-104.4921875,-256.8359375
8.1350,968.75,-102.0507813,-249.0234375
8.1400,963.3789063,-104.0039063,-237.3046875
8.1450,963.8671875,-98.14453125,-235.8398438
8.1500,958.0078125,-96.19140625,-232.421875
8.1550,960.4492188,-92.28515625,-249.5117188
8.1600,965.3320313,-91.30859375,-241.2109375
8.1650,963.3789063,-90.33203125,-238.7695313
8.1700,962.4023438,-91.30859375,-225.0976563
8.1750,959.4726563,-93.26171875,-236.8164063
8.1800,952.6367188,-88.37890625,-246.5820313
8.1850,958.4960938,-87.890625,-241.2109375
8.1900,966.3085938,-83.0078125,-237.3046875
8.1950,968.2617188,-89.35546875,-237.3046875
8.2000,969.2382813,-86.42578125,-246.09375
8.2050,968.75,-93.75,-248.046875
8.2100,963.8671875,-91.30859375,-227.5390625
8.2150,966.796875,-97.65625,-247.0703125
8.2200,970.703125,-100.0976563,-238.7695313
8.2250,970.703125,-100.5859375,-246.5820313
8.2300,971.1914063,-96.6796875,-244.6289063
8.2350,966.3085938,-92.7734375,-239.2578125
8.2400,956.5429688,-94.7265625,-241.2109375
8.2450,955.5664063,-98.6328125,-231.4453125
8.2500,961.4257813,-100.0976563,-249.5117188
8.2550,968.2617188,-96.6796875,-225.0976563
8.2600,963.3789063,-104.4921875,-227.5390625
8.2650,968.75,-97.16796875,-247.0703125
8.2700,963.8671875,-94.7265625,-228.515625
8.2750,962.890625,-105.9570313,-241.6992188
8.2800,969.7265625,-104.0039063,-237.3046875
8.2850,976.0742188,-106.4453125,-243.6523438
8.2900,962.4023438,-117.1875,-239.7460938
8.2950,970.703125,-118.6523438,-239.7460938
8.3000,969.2382813,-121.09375,-234.375
8.3050,972.65625,-132.8125,-234.8632813
8.3100,968.2617188,-123.5351563,-228.0273438
8.3150,973.6328125,-115.7226563,-245.6054688
8.3200,971.1914063,-111.328125,-236.328125
8.3250,962.890625,-109.8632813,-247.0703125
8.3300,963.3789063,-101.5625,-257.8125
8.3350,957.5195313,-102.0507813,-234.8632813
8.3400,958.0078125,-101.0742188,-246.5820313
8.3450,962.4023438,-101.5625,-229.9804688
8.3500,959.9609375,-103.515625,-232.421875
8.3550,962.4023438,-118.1640625,-239.2578125
8.3600,969.7265625,-115.7226563,-246.09375
8.3650,969.2382813,-124.5117188,-247.0703125
8.3700,962.890625,-125.4882813,-256.8359375
8.3750,966.796875,-118.1640625,-237.3046875
8.3800,955.5664063,-127.4414063,-235.8398438
8.3850,964.3554688,-121.5820313,-229.9804688
8.3900,966.3085938,-114.2578125,-236.328125
8.3950,963.8671875,-124.0234375,-242.1875
8.4000,962.890625,-122.5585938,-234.8632813
8.4050,968.75,-124.5117188,-238.28125
8.4100,974.609375,-120.1171875,-236.8164063
8.4150,970.2148438,-128.4179688,-238.7695313
8.4200,955.078125,-125.4882813,-246.5820313
8.4250,947.7539063,-135.2539063,-245.1171875
8.4300,957.03125,-130.859375,-264.6484375
8.4350,961.9140625,-135.7421875,-245.1171875
8.4400,957.5195313,-136.2304688,-247.5585938
8.4450,958.984375,-124.0234375,-248.046875
8.4500,946.7773438,-125.4882813,-249.0234375
8.4550,945.8007813,-124.0234375,-234.375
8.4600,955.078125,-116.2109375,-230.9570313
8.4650,959.4726563,-132.8125,-224.609375
8.4700,959.9609375,-142.578125,-232.421875
8.4750,959.4726563,-145.9960938,-238.7695313
8.4800,963.8671875,-133.3007813,-247.0703125
8.4850,964.84375,-144.53125,-261.71875
8.4900,963.8671875,-145.9960938,-234.8632813
8.4950,977.0507813,-136.71875,-239.2578125
8.5000,969.2382813,-134.765625,-238.7695313
8.5050,965.3320313,-125,-229.4921875
8.5100,962.4023438,-125,-249.0234375
8.5150,966.3085938,-113.7695313,-236.328125
8.5200,965.8203125,-106.4453125,-232.421875
8.5250,970.2148438,-104.9804688,-241.2109375
8.5300,972.65625,-117.1875,-236.328125
8.5350,981.9335938,-129.8828125,-233.3984375
8.5400,983.8867188,-141.1132813,-230.9570313
8.5450,981.4453125,-151.8554688,-233.8867188
8.5500,981.9335938,-157.7148438,-232.9101563
8.5550,976.0742188,-160.6445313,-227.0507813
8.5600,974.1210938,-165.5273438,-233.8867188
8.5650,976.5625,-155.2734375,-234.8632813
8.5700,969.2382813,-161.6210938,-232.421875
8.5750,972.65625,-156.25,-241.2109375
8.5800,963.8671875,-152.8320313,-221.6796875
8.5850,958.984375,-151.3671875,-229.4921875
8.5900,958.4960938,-144.0429688,-232.421875
8.5950,943.8476563,-146.9726563,-240.234375
8.6000,933.1054688,-138.671875,-231.9335938
8.6050,941.8945313,-133.3007813,-232.9101563
8.6100,942.3828125,-126.953125,-236.8164063
8.6150,943.359375,-135.7421875,-243.6523438
8.6200,947.265625,-137.2070313,-252.4414063
8.6250,937.9882813,-140.625,-258.3007813
8.6300,940.4296875,-147.9492188,-240.7226563
8.6350,936.0351563,-155.2734375,-237.3046875
8.6400,943.359375,-156.7382813,-239.7460938
8.6450,946.7773438,-150.390625,-252.9296875
8.6500,949.7070313,-150.390625,-245.1171875
8.6550,947.265625,-154.296875,-256.3476563
8.6600,948.7304688,-161.1328125,-250.9765625
8.6650,948.7304688,-175.78125,-248.5351563
8.6700,955.5664063,-171.875,-256.8359375
8.6750,950.1953125,-185.0585938,-266.1132813
8.6800,948.2421875,-180.1757813,-251.953125
8.6850,953.6132813,-179.1992188,-258.7890625
8.6900,954.5898438,-187.0117188,-260.2539063
8.6950,962.890625,-185.0585938,-256.8359375
8.7000,966.796875,-179.1992188,-250
8.7050,963.8671875,-180.1757813,-251.4648438
8.7100,958.984375,-190.9179688,-264.6484375
8.7150,958.4960938,-185.0585938,-263.671875
8.7200,950.1953125,-176.2695313,-263.1835938
8.7250,945.3125,-182.6171875,-264.1601563
8.7300,943.8476563,-179.6875,-256.8359375
8.7350,935.546875,-186.0351563,-252.9296875
8.7400,929.1992188,-189.453125,-251.953125
8.7450,933.1054688,-183.1054688,-244.6289063
8.7500,939.453125,-193.8476563,-244.6289063
8.7550,946.2890625,-200.6835938,-253.4179688
8.7600,958.0078125,-207.5195313,-269.0429688
8.7650,944.8242188,-230.46875,-269.0429688
8.7700,951.6601563,-230.9570313,-267.0898438
8.7750,945.3125,-229.0039063,-254.8828125
8.7800,945.3125,-209.9609375,-245.6054688
8.7850,946.2890625,-202.1484375,-246.09375
8.7900,928.7109375,-204.5898438,-240.7226563
8.7950,928.7109375,-205.5664063,-232.9101563
8.8000,937.5,-199.21875,-243.6523438
8.8050,946.7773438,-191.40625,-244.140625
8.8100,945.8007813,-193.8476563,-245.1171875
8.8150,958.4960938,-179.1992188,-259.765625
8.8200,948.7304688,-178.7109375,-254.3945313
8.8250,957.5195313,-175.2929688,-267.0898438
8.8300,957.5195313,-173.3398438,-274.9023438
8.8350,955.5664063,-183.59375,-274.4140625
8.8400,956.5429688,-188.4765625,-275.8789063
8.8450,952.1484375,-196.7773438,-265.1367188
8.8500,956.5429688,-199.7070313,-267.578125
8.8550,951.171875,-202.6367188,-246.09375
8.8600,950.1953125,-211.4257813,-230.9570313
8.8650,960.9375,-205.5664063,-230.9570313
8.8700,958.984375,-215.8203125,-239.2578125
8.8750,961.9140625,-226.5625,-238.28125
8.8800,970.2148438,-235.3515625,-245.1171875
8.8850,966.796875,-246.5820313,-226.5625
8.8900,964.84375,-252.4414063,-237.3046875
8.8950,981.9335938,-246.5820313,-244.140625
8.9000,969.7265625,-240.234375,-237.3046875
8.9050,969.7265625,-239.7460938,-235.8398438
8.9100,957.03125,-230.9570313,-242.1875
8.9150,951.6601563,-216.3085938,-250.9765625
8.9200,937.0117188,-204.5898438,-240.234375
8.9250,932.6171875,-195.8007813,-225.5859375
8.9300,928.2226563,-195.8007813,-246.5820313
8.9350,933.1054688,-199.7070313,-263.671875
8.9400,937.5,-195.3125,-272.9492188
8.9450,934.0820313,-199.7070313,-277.34375
8.9500,929.6875,-205.078125,-291.9921875
8.9550,932.1289063,-211.9140625,-276.8554688
8.9600,927.734375,-214.84375,-287.109375
8.9650,918.4570313,-226.0742188,-276.8554688
8.9700,911.6210938,-234.375,-281.25
8.9750,916.015625,-242.1875,-281.7382813
8.9800,911.6210938,-254.8828125,-274.9023438
8.9850,919.921875,-259.2773438,-283.203125
8.9900,917.96875,-262.2070313,-276.8554688
8.9950,912.5976563,-261.71875,-288.5742188
9.0000,910.6445313,-266.1132813,-252.9296875
9.0050,923.828125,-268.0664063,-248.046875
9.0100,939.453125,-272.9492188,-263.1835938
9.0150,932.6171875,-281.25,-278.3203125
9.0200,925.2929688,-280.7617188,-303.2226563
9.0250,918.4570313,-282.2265625,-289.0625
9.0300,916.5039063,-270.0195313,-283.203125
9.0350,919.4335938,-267.578125,-268.0664063
9.0400,921.875,-254.8828125,-270.9960938
9.0450,917.4804688,-254.8828125,-282.7148438
9.0500,917.4804688,-255.859375,-284.6679688
9.0550,920.4101563,-254.3945313,-299.3164063
9.0600,920.4101563,-256.3476563,-299.3164063
9.0650,917.4804688,-263.671875,-303.2226563
9.0700,919.4335938,-257.8125,-279.7851563
9.0750,919.4335938,-264.1601563,-294.921875
9.0800,918.4570313,-259.2773438,-301.7578125
9.0850,922.8515625,-258.7890625,-292.4804688
9.0900,909.1796875,-273.9257813,-304.6875
9.0950,901.8554688,-278.3203125,-284.6679688
9.1000,905.7617188,-264.6484375,-294.4335938
9.1050,908.203125,-269.0429688,-295.4101563
9.1100,903.8085938,-272.9492188,-293.4570313
9.1150,905.7617188,-272.4609375,-304.1992188
9.1200,908.6914063,-285.15625,-309.0820313
9.1250,920.4101563,-287.5976563,-292.4804688
9.1300,925.78125,-288.5742188,-300.78125
9.1350,930.1757813,-287.5976563,-298.3398438
9.1400,924.3164063,-284.1796875,-283.203125
9.1450,920.8984375,-290.0390625,-293.9453125
9.1500,925.78125,-286.6210938,-292.4804688
9.1550,912.109375,-293.9453125,-299.8046875
9.1600,912.5976563,-287.109375,-284.6679688
9.1650,907.2265625,-294.4335938,-293.9453125
9.1700,902.8320313,-298.3398438,-293.4570313
9.1750,908.203125,-295.8984375,-291.9921875
9.1800,914.5507813,-294.921875,-301.7578125
9.1850,912.5976563,-298.828125,-299.3164063
9.1900,918.4570313,-297.3632813,-309.5703125
9.1950,918.4570313,-290.0390625,-311.5234375
9.2000,905.2734375,-286.6210938,-294.921875
9.2050,900.390625,-284.6679688,-298.828125
9.2100,894.0429688,-282.2265625,-287.109375
9.2150,905.2734375,-279.296875,-296.875
9.2200,907.7148438,-278.3203125,-280.7617188
9.2250,910.15625,-290.5273438,-281.7382813
9.2300,913.5742188,-295.4101563,-298.3398438
9.2350,913.5742188,-301.7578125,-299.3164063
9.2400,924.3164063,-305.6640625,-331.0546875
9.2450,922.8515625,-325.1953125,-313.4765625
9.2500,936.0351563,-321.7773438,-315.9179688
9.2550,925.2929688,-328.125,-307.1289063
9.2600,907.7148438,-326.171875,-314.9414063
9.2650,904.296875,-314.9414063,-307.6171875
9.2700,882.8125,-311.5234375,-279.7851563
9.2750,889.6484375,-303.7109375,-290.5273438
9.2800,874.5117188,-314.453125,-298.3398438
9.2850,885.2539063,-309.5703125,-294.921875
9.2900,889.6484375,-319.3359375,-306.640625
9.2950,907.2265625,-312.0117188,-332.03125
9.3000,909.1796875,-311.5234375,-310.0585938
9.3050,905.7617188,-321.2890625,-317.3828125
9.3100,900.8789063,-323.7304688,-305.6640625
9.3150,901.3671875,-322.7539063,-298.828125
9.3200,883.3007813,-321.7773438,-290.0390625
9.3250,886.71875,-320.3125,-310.546875
9.3300,876.953125,-329.5898438,-292.4804688
9.3350,877.9296875,-331.0546875,-293.9453125
9.3400,879.8828125,-333.984375,-307.1289063
9.3450,884.765625,-340.3320313,-308.1054688
9.3500,882.8125,-346.1914063,-319.3359375
9.3550,881.3476563,-337.890625,-321.7773438
9.3600,885.2539063,-341.3085938,-330.078125
9.3650,894.0429688,-340.8203125,-338.3789063
9.3700,902.8320313,-338.3789063,-344.7265625
9.3750,887.2070313,-343.2617188,-326.6601563
9.3800,883.7890625,-328.125,-331.0546875
9.3850,875,-321.2890625,-314.9414063
9.3900,869.6289063,-312.0117188,-326.171875
9.3950,860.3515625,-315.4296875,-328.6132813
9.4000,870.1171875,-309.5703125,-334.9609375
9.4050,870.1171875,-308.59375,-328.6132813
9.4100,879.8828125,-310.546875,-336.4257813
9.4150,890.1367188,-314.453125,-344.2382813
9.4200,887.2070313,-316.8945313,-353.515625
9.4250,887.2070313,-326.171875,-344.2382813
9.4300,890.625,-324.7070313,-332.5195313
9.4350,896.9726563,-325.6835938,-333.0078125
9.4400,889.1601563,-328.6132813,-338.3789063
9.4450,882.3242188,-333.0078125,-319.8242188
9.4500,874.0234375,-338.8671875,-325.6835938
9.4550,867.1875,-337.4023438,-336.9140625
9.4600,877.9296875,-334.4726563,-336.4257813
9.4650,885.7421875,-340.8203125,-344.7265625
9.4700,880.3710938,-351.0742188,-348.1445313
9.4750,883.3007813,-353.515625,-324.21875
9.4800,870.1171875,-354.4921875,-309.0820313
9.4850,866.2109375,-356.9335938,-314.9414063
9.4900,868.1640625,-355.46875,-332.03125
9.4950,857.9101563,-365.234375,-330.5664063
9.5000,850.5859375,-359.375,-318.359375
9.5050,855.46875,-363.7695313,-314.9414063
9.5100,881.8359375,-358.3984375,-328.125
9.5150,894.0429688,-370.1171875,-342.7734375
9.5200,898.9257813,-375.9765625,-344.7265625
9.5250,899.4140625,-364.7460938,-339.3554688
9.5300,898.4375,-348.6328125,-348.1445313
9.5350,881.8359375,-348.6328125,-333.4960938
9.5400,878.4179688,-337.4023438,-344.2382813
9.5450,881.3476563,-329.5898438,-359.8632813
9.5500,867.1875,-337.890625,-354.4921875
9.5550,864.7460938,-346.1914063,-336.9140625
9.5600,856.4453125,-348.6328125,-316.8945313
9.5650,851.5625,-353.0273438,-318.359375
9.5700,855.9570313,-367.6757813,-303.2226563
9.5750,843.75,-379.3945313,-335.9375
9.5800,860.3515625,-366.2109375,-347.1679688
9.5850,850.5859375,-391.1132813,-344.2382813
9.5900,873.046875,-390.1367188,-334.4726563
9.5950,882.8125,-395.9960938,-335.9375
9.6000,888.1835938,-379.8828125,-338.8671875
9.6050,891.1132813,-371.5820313,-326.6601563
9.6100,883.3007813,-360.8398438,-346.1914063
9.6150,880.3710938,-361.8164063,-343.2617188
9.6200,882.8125,-361.8164063,-347.1679688
9.6250,885.2539063,-361.8164063,-364.2578125
9.6300,859.375,-369.140625,-345.703125
9.6350,864.7460938,-367.1875,-327.1484375
9.6400,860.8398438,-372.5585938,-340.8203125
9.6450,857.9101563,-376.4648438,-333.4960938
9.6500,851.5625,-373.046875,-342.7734375
9.6550,847.1679688,-378.4179688,-336.4257813
9.6600,846.1914063,-372.5585938,-331.5429688
9.6650,852.0507813,-372.0703125,-339.84375
9.6700,855.9570313,-379.8828125,-356.4453125
9.6750,861.328125,-382.8125,-363.7695313
9.6800,856.4453125,-378.90625,-357.9101563
9.6850,864.2578125,-362.3046875,-336.4257813
9.6900,853.0273438,-366.6992188,-355.9570313
9.6950,847.65625,-360.3515625,-368.6523438
9.7000,833.984375,-366.6992188,-361.328125
9.7050,839.84375,-375.4882813,-358.3984375
9.7100,856.4453125,-380.3710938,-362.7929688
9.7150,853.515625,-394.53125,-382.3242188
9.7200,851.5625,-390.625,-351.5625
9.7250,853.0273438,-388.1835938,-347.65625
9.7300,859.8632813,-384.765625,-342.2851563
9.7350,850.5859375,-398.4375,-350.0976563
9.7400,858.8867188,-396.9726563,-343.2617188
9.7450,854.4921875,-404.7851563,-355.9570313
9.7500,854.9804688,-401.3671875,-354.4921875
9.7550,858.3984375,-398.4375,-350.0976563
9.7600,856.4453125,-394.0429688,-338.3789063
9.7650,852.0507813,-393.0664063,-352.5390625
9.7700,839.3554688,-394.53125,-345.2148438
9.7750,856.9335938,-392.578125,-347.65625
9.7800,846.1914063,-398.4375,-355.46875
9.7850,841.796875,-401.3671875,-326.171875
9.7900,854.9804688,-383.7890625,-352.5390625
9.7950,852.0507813,-392.0898438,-355.9570313
9.8000,858.8867188,-396.484375,-368.6523438
9.8050,860.3515625,-397.9492188,-346.1914063
9.8100,844.7265625,-389.1601563,-343.75
9.8150,852.0507813,-379.8828125,-332.5195313
9.8200,850.0976563,-390.1367188,-342.7734375
9.8250,851.0742188,-405.2734375,-340.8203125
9.8300,851.5625,-417.4804688,-333.0078125
9.8350,861.328125,-421.875,-320.8007813
9.8400,871.09375,-430.6640625,-334.9609375
9.8450,883.7890625,-435.0585938,-322.7539063
9.8500,877.4414063,-437.5,-325.6835938
9.8550,869.140625,-421.875,-301.7578125
9.8600,855.9570313,-396.484375,-283.6914063
9.8650,850.5859375,-364.2578125,-299.3164063
9.8700,867.1875,-347.1679688,-292.96875
9.8750,880.3710938,-358.8867188,-319.8242188
9.8800,888.1835938,-378.4179688,-347.1679688
9.8850,890.625,-385.2539063,-355.46875
9.8900,883.3007813,-381.3476563,-331.0546875
9.8950,860.8398438,-374.5117188,-320.8007813
9.9000,860.3515625,-343.75,-299.8046875
9.9050,850.0976563,-344.2382813,-298.828125
9.9100,854.9804688,-343.2617188,-316.8945313
9.9150,865.7226563,-365.234375,-339.3554688
9.9200,870.1171875,-378.4179688,-347.1679688
9.9250,854.9804688,-406.7382813,-347.65625
9.9300,841.796875,-404.296875,-342.7734375
9.9350,842.2851563,-380.3710938,-323.7304688
9.9400,814.453125,-382.3242188,-318.8476563
9.9450,811.0351563,-379.3945313,-325.1953125
9.9500,824.7070313,-365.234375,-306.1523438
9.9550,837.890625,-376.953125,-336.4257813
9.9600,844.7265625,-398.4375,-345.703125
9.9650,855.46875,-416.015625,-343.2617188
9.9700,849.1210938,-420.4101563,-346.1914063
9.9750,833.984375,-422.3632813,-327.1484375
9.9800,831.5429688,-413.0859375,-312.9882813
9.9850,847.65625,-405.2734375,-310.0585938
9.9900,870.1171875,-408.203125,-338.8671875
9.9950,877.9296875,-421.3867188,-352.5390625
10.0000,869.6289063,-422.3632813,-346.6796875
10.0050,878.4179688,-393.0664063,-356.9335938
10.0100,860.3515625,-377.4414063,-347.1679688
10.0150,849.1210938,-358.3984375,-357.421875
10.0200,842.2851563,-335.9375,-334.9609375
10.0250,851.0742188,-327.6367188,-330.5664063
10.0300,847.1679688,-334.4726563,-336.9140625
10.0350,852.5390625,-341.796875,-369.140625
10.0400,848.1445313,-362.3046875,-353.0273438
10.0450,853.0273438,-372.0703125,-362.7929688
10.0500,837.890625,-387.6953125,-361.8164063
10.0550,834.9609375,-392.0898438,-351.0742188
10.0600,836.4257813,-406.7382813,-343.2617188
10.0650,826.171875,-428.2226563,-342.7734375
10.0700,841.796875,-422.8515625,-331.5429688
10.0750,847.1679688,-413.5742188,-344.2382813
10.0800,845.703125,-399.4140625,-338.8671875
10.0850,840.8203125,-388.671875,-326.6601563
10.0900,852.0507813,-376.953125,-324.21875
10.0950,859.8632813,-384.765625,-334.4726563
10.1000,865.7226563,-387.6953125,-335.4492188
10.1050,864.2578125,-381.8359375,-340.3320313
10.1100,857.421875,-372.5585938,-327.6367188
10.1150,852.5390625,-370.1171875,-335.9375
10.1200,855.9570313,-377.9296875,-324.21875
10.1250,862.3046875,-388.671875,-336.9140625
10.1300,863.28125,-394.0429688,-319.3359375
10.1350,857.9101563,-406.25,-341.3085938
10.1400,860.8398438,-404.7851563,-320.3125
10.1450,856.4453125,-407.7148438,-311.0351563
10.1500,859.8632813,-406.7382813,-310.546875
10.1550,862.7929688,-409.6679688,-333.984375
10.1600,875.9765625,-399.9023438,-325.6835938
10.1650,885.2539063,-399.9023438,-314.9414063
10.1700,883.3007813,-392.0898438,-330.5664063
10.1750,895.0195313,-379.8828125,-323.2421875
10.1800,878.4179688,-381.8359375,-318.8476563
10.1850,878.4179688,-374.5117188,-325.1953125
10.1900,883.3007813,-370.1171875,-335.4492188
10.1950,881.8359375,-366.2109375,-333.4960938
10.2000,872.0703125,-365.7226563,-333.984375
10.2050,868.1640625,-366.2109375,-314.453125
10.2100,871.09375,-352.5390625,-324.21875
10.2150,863.7695313,-366.2109375,-331.5429688
10.2200,844.2382813,-371.5820313,-324.21875
10.2250,845.703125,-368.6523438,-331.0546875
10.2300,855.9570313,-362.3046875,-332.03125
10.2350,846.1914063,-378.4179688,-336.9140625
10.2400,851.0742188,-381.3476563,-345.703125
10.2450,850.5859375,-384.2773438,-336.4257813
10.2500,846.6796875,-387.6953125,-344.2382813
10.2550,855.46875,-385.7421875,-340.3320313
10.2600,860.3515625,-382.3242188,-343.2617188
10.2650,862.7929688,-380.3710938,-343.2617188
10.2700,863.28125,-383.7890625,-350.5859375
10.2750,871.5820313,-379.8828125,-343.2617188
10.2800,864.2578125,-379.8828125,-360.3515625
10.2850,868.6523438,-365.234375,-346.1914063
10.2900,853.0273438,-364.7460938,-336.9140625
10.2950,845.2148438,-371.09375,-343.75
10.3000,838.3789063,-374.5117188,-331.0546875
10.3050,841.3085938,-378.4179688,-325.1953125
10.3100,855.9570313,-383.7890625,-342.2851563
10.3150,860.3515625,-392.0898438,-344.2382813
10.3200,859.8632813,-389.6484375,-342.7734375
10.3250,867.1875,-386.71875,-340.8203125
10.3300,863.7695313,-383.3007813,-329.1015625
10.3350,877.4414063,-374.0234375,-340.8203125
10.3400,869.6289063,-376.4648438,-341.796875
10.3450,863.7695313,-368.1640625,-343.2617188
10.3500,854.0039063,-367.1875,-335.9375
10.3550,855.9570313,-361.8164063,-335.9375
10.3600,859.8632813,-349.1210938,-342.2851563
10.3650,861.328125,-350.5859375,-330.078125
10.3700,854.9804688,-348.1445313,-333.4960938
10.3750,854.4921875,-359.8632813,-336.4257813
10.3800,862.7929688,-350.0976563,-344.2382813
10.3850,868.1640625,-349.609375,-350.5859375
10.3900,870.6054688,-358.8867188,-333.0078125
10.3950,873.046875,-381.3476563,-346.6796875
10.4000,880.3710938,-386.71875,-355.9570313
10.4050,880.3710938,-390.625,-337.890625
10.4100,875,-383.7890625,-330.078125
10.4150,871.09375,-377.9296875,-329.5898438
10.4200,867.6757813,-372.0703125,-331.0546875
10.4250,869.6289063,-366.2109375,-312.9882813
10.4300,869.6289063,-361.328125,-322.7539063
10.4350,876.4648438,-356.4453125,-322.265625
10.4400,878.90625,-349.1210938,-338.8671875
10.4450,885.2539063,-340.3320313,-325.6835938
10.4500,874.5117188,-336.9140625,-332.5195313
10.4550,883.7890625,-333.4960938,-324.7070313
10.4600,876.953125,-336.9140625,-312.5
10.4650,876.953125,-339.84375,-333.4960938
10.4700,876.4648438,-337.890625,-316.40625
10.4750,870.6054688,-341.3085938,-318.359375
10.4800,862.7929688,-343.75,-316.40625
10.4850,873.046875,-338.3789063,-324.21875
10.4900,876.4648438,-337.890625,-337.4023438
10.4950,882.8125,-343.75,-334.4726563
10.5000,886.71875,-340.3320313,-342.2851563
10.5050,890.1367188,-336.9140625,-336.9140625
10.5100,893.5546875,-338.8671875,-339.3554688
10.5150,899.9023438,-341.796875,-339.3554688
10.5200,898.4375,-346.6796875,-332.03125
10.5250,911.1328125,-338.3789063,-327.6367188
10.5300,905.2734375,-339.84375,-331.0546875
10.5350,907.2265625,-339.84375,-330.5664063
10.5400,900.8789063,-349.1210938,-329.1015625
10.5450,895.0195313,-351.0742188,-318.8476563
10.5500,895.9960938,-345.703125,-314.453125
10.5550,895.0195313,-350.0976563,-309.5703125
10.5600,885.7421875,-354.4921875,-316.8945313
10.5650,881.3476563,-354.4921875,-306.640625
10.5700,893.0664063,-342.2851563,-309.5703125
10.5750,896.484375,-334.9609375,-327.6367188
10.5800,898.4375,-321.7773438,-321.2890625
10.5850,897.9492188,-324.7070313,-314.453125
10.5900,895.9960938,-318.8476563,-321.7773438
10.5950,894.0429688,-320.3125,-341.796875
10.6000,891.6015625,-313.4765625,-331.0546875
10.6050,901.3671875,-299.3164063,-335.9375
10.6100,895.0195313,-298.828125,-332.5195313
10.6150,891.6015625,-306.640625,-335.9375
10.6200,890.625,-303.2226563,-343.75
10.6250,875,-321.2890625,-323.7304688
10.6300,884.765625,-314.453125,-308.1054688
10.6350,882.8125,-319.8242188,-312.9882813
10.6400,878.4179688,-330.5664063,-304.6875
10.6450,885.7421875,-330.078125,-310.546875
10.6500,884.2773438,-332.03125,-315.9179688
10.6550,884.2773438,-335.4492188,-294.921875
10.6600,893.0664063,-331.5429688,-301.7578125
10.6650,892.0898438,-337.890625,-299.8046875
10.6700,902.34375,-333.0078125,-298.3398438
10.6750,912.109375,-329.5898438,-306.640625
10.6800,919.4335938,-323.2421875,-312.9882813
10.6850,924.3164063,-318.359375,-300.2929688
10.6900,919.4335938,-313.4765625,-316.40625
10.6950,921.875,-307.6171875,-315.4296875
10.7000,914.0625,-310.546875,-317.8710938
10.7050,916.5039063,-294.921875,-312.5
10.7100,907.7148438,-291.015625,-308.59375
10.7150,897.4609375,-291.5039063,-322.7539063
10.7200,889.1601563,-292.96875,-319.8242188
10.7250,880.859375,-288.0859375,-319.8242188
10.7300,888.671875,-277.34375,-319.3359375
10.7350,879.8828125,-283.6914063,-304.1992188
10.7400,889.1601563,-285.6445313,-290.5273438
10.7450,886.2304688,-298.828125,-293.4570313
10.7500,895.5078125,-304.1992188,-286.6210938
10.7550,917.4804688,-295.4101563,-291.5039063
10.7600,918.4570313,-305.1757813,-291.5039063
10.7650,925.78125,-308.1054688,-310.0585938
10.7700,925.78125,-308.1054688,-292.4804688
10.7750,925.2929688,-314.453125,-289.0625
10.7800,917.96875,-312.9882813,-302.734375
10.7850,914.5507813,-305.6640625,-304.1992188
10.7900,904.296875,-291.9921875,-301.7578125
10.7950,911.1328125,-284.6679688,-298.3398438
10.8000,892.578125,-286.1328125,-301.2695313
10.8050,881.3476563,-285.15625,-308.59375
10.8100,883.7890625,-275.390625,-295.8984375
10.8150,879.8828125,-292.96875,-307.6171875
10.8200,871.5820313,-304.1992188,-305.6640625
10.8250,877.4414063,-303.7109375,-304.1992188
10.8300,889.6484375,-295.4101563,-302.734375
10.8350,897.4609375,-301.7578125,-287.109375
10.8400,896.9726563,-306.640625,-289.5507813
10.8450,921.3867188,-293.9453125,-287.5976563
10.8500,928.2226563,-296.875,-289.0625
10.8550,939.453125,-291.015625,-303.2226563
10.8600,933.1054688,-279.296875,-297.8515625
10.8650,929.6875,-282.2265625,-301.2695313
10.8700,923.828125,-269.53125,-287.109375
10.8750,920.8984375,-272.4609375,-291.015625
10.8800,911.1328125,-277.8320313,-301.2695313
10.8850,901.3671875,-285.6445313,-282.2265625
10.8900,912.109375,-292.96875,-281.25
10.8950,910.15625,-293.9453125,-286.6210938
10.9000,905.7617188,-292.4804688,-275.390625
10.9050,904.7851563,-296.3867188,-259.765625
10.9100,915.5273438,-290.0390625,-282.7148438
10.9150,921.3867188,-292.4804688,-280.2734375
10.9200,940.4296875,-289.5507813,-281.25
10.9250,958.0078125,-277.34375,-288.0859375
10.9300,940.9179688,-286.1328125,-311.0351563
10.9350,934.0820313,-280.7617188,-315.4296875
10.9400,921.3867188,-278.8085938,-309.0820313
10.9450,926.7578125,-264.1601563,-307.6171875
10.9500,919.921875,-250.4882813,-300.2929688
10.9550,915.0390625,-245.1171875,-283.6914063
10.9600,904.296875,-247.5585938,-268.0664063
10.9650,904.7851563,-242.1875,-268.5546875
10.9700,905.7617188,-248.5351563,-259.765625
10.9750,910.6445313,-260.7421875,-253.4179688
10.9800,921.3867188,-265.625,-256.8359375
10.9850,928.2226563,-284.1796875,-253.4179688
10.9900,935.546875,-290.5273438,-266.6015625
10.9950,950.6835938,-305.1757813,-256.3476563
11.0000,949.21875,-313.9648438,-264.1601563
11.0050,960.9375,-319.3359375,-269.53125
11.0100,953.125,-314.9414063,-260.7421875
11.0150,951.171875,-303.7109375,-272.9492188
11.0200,937.5,-298.3398438,-269.0429688
11.0250,929.1992188,-292.96875,-262.6953125
11.0300,931.640625,-270.0195313,-267.578125
11.0350,920.8984375,-268.5546875,-266.6015625
11.0400,914.0625,-254.8828125,-244.6289063
11.0450,907.7148438,-258.3007813,-235.3515625
11.0500,911.1328125,-250.9765625,-237.7929688
11.0550,918.9453125,-247.5585938,-247.5585938
11.0600,932.6171875,-244.6289063,-258.3007813
11.0650,940.9179688,-246.09375,-262.6953125
11.0700,959.9609375,-238.28125,-247.5585938
11.0750,961.4257813,-244.6289063,-250.9765625
11.0800,966.3085938,-236.328125,-239.7460938
11.0850,954.5898438,-242.6757813,-241.6992188
11.0900,942.3828125,-242.6757813,-243.6523438
11.0950,943.8476563,-254.8828125,-237.3046875
11.1000,938.9648438,-259.2773438,-230.46875
11.1050,936.0351563,-250.9765625,-227.5390625
11.1100,926.2695313,-251.953125,-230.46875
11.1150,919.4335938,-260.2539063,-225.5859375
11.1200,911.1328125,-261.71875,-233.3984375
11.1250,908.6914063,-259.2773438,-242.6757813
11.1300,912.5976563,-241.6992188,-227.5390625
11.1350,909.1796875,-248.046875,-211.4257813
11.1400,920.8984375,-234.8632813,-221.6796875
11.1450,922.8515625,-232.9101563,-216.796875
11.1500,933.59375,-230.46875,-225.0976563
11.1550,957.03125,-223.1445313,-221.6796875
11.1600,960.4492188,-229.0039063,-231.9335938
11.1650,978.0273438,-225.5859375,-219.2382813
11.1700,963.3789063,-242.6757813,-244.6289063
11.1750,978.0273438,-243.1640625,-240.234375
11.1800,961.9140625,-253.90625,-244.140625
11.1850,963.8671875,-254.3945313,-237.3046875
11.1900,962.4023438,-245.6054688,-229.4921875
11.1950,954.1015625,-238.28125,-239.2578125
11.2000,956.0546875,-233.8867188,-240.7226563
11.2050,957.5195313,-242.6757813,-224.609375
11.2100,952.6367188,-243.6523438,-224.1210938
11.2150,953.125,-246.5820313,-226.0742188
11.2200,945.3125,-241.2109375,-214.84375
11.2250,939.9414063,-237.3046875,-222.1679688
11.2300,928.2226563,-244.6289063,-195.3125
11.2350,945.8007813,-228.515625,-173.3398438
11.2400,940.4296875,-230.9570313,-180.1757813
11.2450,944.3359375,-220.703125,-184.5703125
11.2500,937.5,-222.65625,-192.3828125
11.2550,932.6171875,-225.5859375,-199.21875
11.2600,943.359375,-223.6328125,-206.0546875
11.2650,949.7070313,-232.421875,-198.2421875
11.2700,964.3554688,-229.0039063,-225.5859375
11.2750,959.4726563,-236.8164063,-217.2851563
11.2800,957.03125,-224.609375,-217.2851563
11.2850,944.8242188,-224.609375,-233.8867188
11.2900,935.546875,-208.984375,-245.1171875
11.2950,932.1289063,-200.1953125,-237.7929688
11.3000,931.640625,-187.9882813,-212.4023438
11.3050,935.0585938,-179.1992188,-198.7304688
11.3100,927.2460938,-185.0585938,-189.9414063
11.3150,930.6640625,-179.1992188,-189.453125
11.3200,927.2460938,-185.546875,-191.8945313
11.3250,933.1054688,-189.9414063,-182.1289063
11.3300,940.4296875,-196.2890625,-189.453125
11.3350,958.984375,-202.6367188,-182.6171875
11.3400,975.0976563,-200.1953125,-185.546875
11.3450,962.890625,-227.5390625,-183.59375
11.3500,965.3320313,-221.1914063,-195.3125
11.3550,966.796875,-218.75,-208.0078125
11.3600,961.4257813,-215.8203125,-205.5664063
11.3650,963.8671875,-214.3554688,-209.4726563
11.3700,968.75,-207.03125,-188.9648438
11.3750,965.8203125,-212.890625,-196.2890625
11.3800,958.0078125,-215.8203125,-188.4765625
11.3850,961.9140625,-210.9375,-188.9648438
11.3900,955.078125,-215.3320313,-176.7578125
11.3950,961.4257813,-211.4257813,-170.8984375
11.4000,958.0078125,-212.4023438,-171.3867188
11.4050,966.3085938,-204.1015625,-180.6640625
11.4100,972.65625,-196.7773438,-202.1484375
11.4150,974.1210938,-192.8710938,-193.359375
11.4200,976.0742188,-193.359375,-205.078125
11.4250,978.0273438,-180.1757813,-194.8242188
11.4300,968.75,-177.2460938,-201.171875
11.4350,958.984375,-187.9882813,-188.4765625
11.4400,950.6835938,-186.5234375,-180.6640625
11.4450,945.3125,-187.0117188,-182.1289063
11.4500,941.8945313,-184.0820313,-178.7109375
11.4550,944.8242188,-187.0117188,-169.921875
11.4600,951.6601563,-187.9882813,-167.4804688
11.4650,958.4960938,-190.9179688,-166.5039063
11.4700,958.984375,-196.2890625,-166.5039063
11.4750,978.515625,-192.3828125,-180.6640625
11.4800,981.9335938,-199.7070313,-188.9648438
11.4850,985.8398438,-193.359375,-199.21875
11.4900,987.3046875,-188.4765625,-188.9648438
11.4950,994.6289063,-179.1992188,-211.9140625
11.5000,984.375,-178.2226563,-215.3320313
11.5050,963.3789063,-178.7109375,-212.4023438
11.5100,965.3320313,-177.2460938,-196.2890625
11.5150,959.4726563,-177.734375,-174.8046875
11.5200,945.8007813,-179.1992188,-160.15625
11.5250,937.5,-178.2226563,-147.4609375
11.5300,932.6171875,-178.2226563,-153.8085938
11.5350,940.4296875,-179.1992188,-165.0390625
11.5400,951.6601563,-178.7109375,-150.390625
11.5450,977.0507813,-181.1523438,-165.5273438
11.5500,990.234375,-184.0820313,-168.4570313
11.5550,997.0703125,-193.8476563,-165.5273438
11.5600,1002.929688,-190.4296875,-181.640625
11.5650,990.7226563,-197.7539063,-194.3359375
11.5700,991.2109375,-193.359375,-204.1015625
11.5750,983.3984375,-200.1953125,-193.8476563
11.5800,986.8164063,-187.9882813,-184.5703125
11.5850,973.6328125,-186.5234375,-185.546875
11.5900,963.3789063,-174.3164063,-173.828125
11.5950,951.171875,-168.4570313,-180.1757813
11.6000,956.0546875,-146.9726563,-166.015625
11.6050,954.5898438,-145.9960938,-160.15625
11.6100,962.4023438,-142.0898438,-144.53125
11.6150,961.9140625,-145.9960938,-140.1367188
11.6200,964.3554688,-133.7890625,-143.5546875
11.6250,962.4023438,-142.578125,-158.6914063
11.6300,975.0976563,-131.8359375,-167.4804688
11.6350,985.8398438,-150.390625,-172.8515625
11.6400,989.7460938,-158.6914063,-166.5039063
11.6450,988.7695313,-168.4570313,-181.640625
11.6500,991.2109375,-172.3632813,-184.0820313
11.6550,988.7695313,-182.1289063,-196.7773438
11.6600,992.6757813,-176.7578125,-198.7304688
11.6650,973.6328125,-191.40625,-184.0820313
11.6700,966.3085938,-184.5703125,-179.6875
11.6750,958.0078125,-183.59375,-179.6875
11.6800,957.03125,-182.6171875,-166.9921875
11.6850,954.5898438,-176.7578125,-156.7382813
11.6900,958.984375,-167.96875,-142.0898438
11.6950,958.0078125,-169.4335938,-147.9492188
11.7000,953.125,-164.5507813,-135.7421875
11.7050,971.6796875,-154.7851563,-136.71875
11.7100,981.9335938,-153.8085938,-147.9492188
11.7150,983.3984375,-160.6445313,-159.6679688
11.7200,989.7460938,-160.15625,-182.6171875
11.7250,996.09375,-163.5742188,-179.6875
11.7300,987.7929688,-170.4101563,-191.8945313
11.7350,998.046875,-164.0625,-204.1015625
11.7400,989.2578125,-167.4804688,-202.1484375
11.7450,971.1914063,-168.9453125,-198.2421875
11.7500,960.9375,-170.8984375,-180.6640625
11.7550,946.2890625,-178.2226563,-182.6171875
11.7600,952.1484375,-164.5507813,-168.9453125
11.7650,950.6835938,-170.8984375,-144.53125
11.7700,960.4492188,-158.203125,-123.046875
11.7750,958.0078125,-169.921875,-123.5351563
11.7800,957.5195313,-155.7617188,-134.2773438
11.7850,968.2617188,-143.5546875,-137.6953125
11.7900,976.0742188,-147.9492188,-127.4414063
11.7950,992.1875,-154.7851563,-155.7617188
11.8000,1005.371094,-161.6210938,-159.6679688
11.8050,1004.394531,-176.7578125,-186.5234375
11.8100,999.0234375,-178.2226563,-181.640625
11.8150,999.5117188,-181.1523438,-200.1953125
11.8200,987.3046875,-179.6875,-205.078125
11.8250,983.8867188,-179.6875,-205.078125
11.8300,974.1210938,-183.1054688,-196.2890625
11.8350,965.3320313,-180.1757813,-182.1289063
11.8400,955.5664063,-172.3632813,-176.2695313
11.8450,953.125,-168.9453125,-152.34375
11.8500,951.6601563,-150.390625,-146.9726563
11.8550,958.4960938,-148.4375,-130.3710938
11.8600,965.8203125,-144.0429688,-138.1835938
11.8650,976.0742188,-135.2539063,-138.671875
11.8700,972.1679688,-140.625,-166.015625
11.8750,985.8398438,-130.3710938,-174.8046875
11.8800,981.9335938,-134.2773438,-180.1757813
11.8850,990.234375,-127.9296875,-187.0117188
11.8900,989.7460938,-132.3242188,-189.9414063
11.8950,983.3984375,-134.2773438,-198.7304688
11.9000,968.2617188,-140.625,-194.3359375
11.9050,963.3789063,-142.0898438,-198.2421875
11.9100,952.6367188,-149.4140625,-182.1289063
11.9150,954.5898438,-146.9726563,-171.875
11.9200,945.8007813,-145.0195313,-180.1757813
11.9250,948.7304688,-145.0195313,-165.5273438
11.9300,960.4492188,-140.625,-160.15625
11.9350,966.3085938,-141.6015625,-159.1796875
11.9400,969.7265625,-148.4375,-153.8085938
11.9450,969.7265625,-156.25,-165.5273438
11.9500,968.75,-152.34375,-168.9453125
11.9550,979.4921875,-142.0898438,-180.1757813
11.9600,978.0273438,-142.0898438,-168.4570313
11.9650,974.609375,-152.34375,-180.6640625
11.9700,988.28125,-147.4609375,-193.8476563
11.9750,981.9335938,-155.7617188,-189.9414063
11.9800,966.3085938,-158.6914063,-202.1484375
11.9850,957.5195313,-161.1328125,-192.3828125
11.9900,943.8476563,-157.7148438,-185.546875
11.9950,950.6835938,-164.0625,-175.2929688
12.0000,958.984375,-165.0390625,-170.8984375
12.0050,958.984375,-177.2460938,-186.5234375
12.0100,958.984375,-182.1289063,-192.3828125
12.0150,975.5859375,-175.78125,-184.5703125
12.0200,968.2617188,-181.1523438,-201.6601563
12.0250,969.2382813,-183.59375,-204.1015625
12.0300,981.4453125,-170.8984375,-208.0078125
12.0350,979.0039063,-178.7109375,-213.8671875
12.0400,977.0507813,-174.8046875,-221.6796875
12.0450,976.5625,-178.7109375,-212.890625
12.0500,963.8671875,-180.6640625,-216.796875
12.0550,955.5664063,-176.2695313,-212.4023438
12.0600,947.265625,-178.2226563,-200.6835938
12.0650,954.1015625,-170.4101563,-187.5
12.0700,954.5898438,-163.5742188,-182.6171875
12.0750,963.3789063,-173.828125,-186.5234375
12.0800,962.4023438,-177.734375,-188.9648438
12.0850,968.2617188,-176.2695313,-185.546875
12.0900,985.8398438,-166.5039063,-172.8515625
12.0950,992.6757813,-169.921875,-175.2929688
12.1000,1016.601563,-161.1328125,-171.875
12.1050,1024.902344,-159.6679688,-182.6171875
12.1100,1007.324219,-153.8085938,-237.3046875
12.1150,1016.113281,-152.34375,-270.9960938
12.1200,1040.039063,-187.9882813,-290.0390625
12.1250,1049.316406,-220.2148438,-257.3242188
12.1300,1004.394531,-248.046875,-211.4257813
12.1350,956.0546875,-264.1601563,-170.8984375
12.1400,937.5,-237.7929688,-146.9726563
12.1450,941.8945313,-211.9140625,-160.15625
12.1500,945.3125,-195.8007813,-166.015625
12.1550,963.3789063,-170.8984375,-161.6210938
12.1600,978.515625,-142.578125,-153.3203125
12.1650,984.375,-126.953125,-160.6445313
12.1700,980.9570313,-109.375,-154.296875
12.1750,981.4453125,-90.33203125,-157.7148438
12.1800,975.5859375,-67.3828125,-162.5976563
12.1850,961.4257813,-51.26953125,-175.2929688
12.1900,952.1484375,-37.109375,-166.015625
12.1950,944.8242188,-27.34375,-170.8984375
12.2000,929.6875,-26.3671875,-165.0390625
12.2050,930.6640625,-21.484375,-159.1796875
12.2100,932.6171875,-38.57421875,-155.2734375
12.2150,943.359375,-41.015625,-169.4335938
12.2200,950.1953125,-58.59375,-154.7851563
12.2250,966.3085938,-75.68359375,-154.296875
12.2300,977.5390625,-93.26171875,-164.5507813
12.2350,974.1210938,-116.6992188,-156.7382813
12.2400,977.5390625,-132.3242188,-156.7382813
12.2450,968.2617188,-148.4375,-148.9257813
12.2500,969.7265625,-162.109375,-133.7890625
12.2550,982.421875,-159.1796875,-169.921875
12.2600,975.0976563,-173.3398438,-162.5976563
12.2650,981.4453125,-165.5273438,-181.640625
12.2700,987.3046875,-156.25,-176.2695313
12.2750,988.7695313,-145.5078125,-190.9179688
12.2800,976.5625,-136.2304688,-205.078125
12.2850,969.7265625,-136.2304688,-201.6601563
12.2900,970.2148438,-124.0234375,-207.03125
12.2950,956.0546875,-133.3007813,-227.5390625
12.3000,964.84375,-113.7695313,-218.75
12.3050,961.4257813,-122.0703125,-223.1445313
12.3100,962.890625,-124.0234375,-215.3320313
12.3150,969.2382813,-135.7421875,-224.609375
12.3200,973.1445313,-147.4609375,-210.9375
12.3250,983.3984375,-147.9492188,-220.703125
12.3300,981.9335938,-150.390625,-227.5390625
12.3350,989.7460938,-144.53125,-231.4453125
12.3400,982.9101563,-148.4375,-235.3515625
12.3450,980.9570313,-153.3203125,-259.2773438
12.3500,970.2148438,-164.0625,-247.0703125
12.3550,968.75,-162.109375,-259.2773438
12.3600,966.3085938,-153.3203125,-256.3476563
12.3650,970.2148438,-143.5546875,-261.2304688
12.3700,962.890625,-139.1601563,-250
12.3750,952.1484375,-138.1835938,-244.140625
12.3800,950.1953125,-131.3476563,-248.046875
12.3850,945.8007813,-127.4414063,-250
12.3900,954.1015625,-122.5585938,-245.6054688
12.3950,958.984375,-124.0234375,-243.1640625
12.4000,959.9609375,-122.5585938,-232.9101563
12.4050,973.1445313,-121.5820313,-228.515625
12.4100,968.2617188,-125.4882813,-220.703125
12.4150,970.703125,-123.5351563,-213.8671875
12.4200,979.0039063,-111.328125,-202.1484375
12.4250,985.3515625,-109.8632813,-216.796875
12.4300,982.9101563,-109.8632813,-212.890625
12.4350,976.5625,-124.0234375,-230.9570313
12.4400,970.2148438,-124.0234375,-213.3789063
12.4450,982.421875,-122.5585938,-235.3515625
12.4500,983.3984375,-119.140625,-239.2578125
12.4550,979.0039063,-121.5820313,-232.421875
12.4600,984.8632813,-115.234375,-242.6757813
12.4650,984.8632813,-113.28125,-226.0742188
12.4700,994.140625,-108.8867188,-218.75
12.4750,986.8164063,-108.3984375,-208.984375
12.4800,989.7460938,-103.515625,-206.5429688
12.4850,999.5117188,-96.19140625,-202.1484375
12.4900,990.7226563,-105.9570313,-216.796875
12.4950,996.5820313,-104.4921875,-201.6601563
12.5000,988.7695313,-113.28125,-210.4492188
12.5050,995.6054688,-99.12109375,-211.9140625
12.5100,980.9570313,-108.3984375,-193.359375
12.5150,970.2148438,-106.4453125,-220.703125
12.5200,978.515625,-93.26171875,-212.4023438
12.5250,972.65625,-90.8203125,-213.8671875
12.5300,971.1914063,-91.796875,-219.2382813
12.5350,971.1914063,-92.7734375,-229.0039063
12.5400,971.6796875,-92.28515625,-227.0507813
12.5450,963.8671875,-101.0742188,-236.8164063
12.5500,952.6367188,-101.0742188,-239.7460938
12.5550,950.1953125,-103.0273438,-241.6992188
12.5600,952.6367188,-94.7265625,-240.234375
12.5650,941.8945313,-102.5390625,-246.5820313
12.5700,940.4296875,-110.3515625,-254.8828125
12.5750,945.3125,-106.4453125,-257.3242188
12.5800,946.7773438,-100.5859375,-254.8828125
12.5850,948.2421875,-107.421875,-261.2304688
12.5900,950.6835938,-102.5390625,-244.140625
12.5950,953.6132813,-109.8632813,-248.046875
12.6000,958.984375,-102.0507813,-245.6054688
12.6050,964.84375,-112.3046875,-252.9296875
12.6100,965.3320313,-124.5117188,-252.4414063
12.6150,959.4726563,-130.3710938,-254.3945313
12.6200,958.4960938,-125.9765625,-258.3007813
12.6250,963.3789063,-126.953125,-253.4179688
12.6300,964.3554688,-123.046875,-266.1132813
12.6350,963.8671875,-118.6523438,-256.3476563
12.6400,965.3320313,-111.8164063,-244.140625
12.6450,961.9140625,-117.6757813,-259.2773438
12.6500,965.3320313,-111.328125,-255.859375
12.6550,962.890625,-115.7226563,-247.0703125
12.6600,958.984375,-108.8867188,-245.1171875
12.6650,968.75,-98.6328125,-256.8359375
12.6700,960.9375,-96.19140625,-239.7460938
12.6750,962.890625,-104.0039063,-242.1875
12.6800,952.6367188,-92.28515625,-226.5625
12.6850,959.9609375,-78.125,-231.4453125
12.6900,951.6601563,-68.84765625,-233.3984375
12.6950,948.2421875,-60.546875,-238.28125
12.7000,943.359375,-59.08203125,-236.8164063
12.7050,943.359375,-67.87109375,-250.4882813
12.7100,945.3125,-67.3828125,-269.53125
12.7150,945.3125,-81.0546875,-272.4609375
12.7200,932.6171875,-84.9609375,-269.0429688
12.7250,955.5664063,-89.84375,-260.2539063
12.7300,943.8476563,-102.0507813,-273.9257813
12.7350,968.75,-92.7734375,-273.4375
12.7400,967.7734375,-100.5859375,-241.6992188
12.7450,979.9804688,-93.75,-252.9296875
12.7500,979.0039063,-99.12109375,-244.6289063
12.7550,983.3984375,-105.46875,-227.0507813
12.7600,992.1875,-104.4921875,-221.6796875
12.7650,988.7695313,-112.3046875,-222.1679688
12.7700,998.5351563,-113.28125,-216.3085938
12.7750,993.1640625,-115.7226563,-211.4257813
12.7800,996.09375,-105.46875,-198.2421875
12.7850,997.0703125,-99.12109375,-204.1015625
12.7900,992.6757813,-94.7265625,-199.7070313
12.7950,996.5820313,-88.37890625,-197.7539063
12.8000,998.5351563,-77.1484375,-192.8710938
12.8050,1001.953125,-64.453125,-192.3828125
12.8100,995.6054688,-56.15234375,-213.8671875
12.8150,996.5820313,-40.0390625,-187.9882813
12.8200,989.7460938,-36.62109375,-195.8007813
12.8250,986.328125,-36.62109375,-195.3125
12.8300,990.7226563,-33.69140625,-206.5429688
12.8350,977.0507813,-39.55078125,-224.1210938
12.8400,985.3515625,-36.1328125,-221.6796875
12.8450,987.3046875,-41.9921875,-232.9101563
12.8500,982.9101563,-40.0390625,-231.4453125
12.8550,985.3515625,-56.15234375,-255.3710938
12.8600,986.328125,-62.01171875,-256.8359375
12.8650,979.9804688,-77.1484375,-270.9960938
12.8700,972.1679688,-86.42578125,-290.5273438
12.8750,971.6796875,-92.28515625,-286.6210938
12.8800,960.9375,-104.9804688,-289.5507813
12.8850,962.890625,-98.6328125,-291.5039063
12.8900,953.6132813,-93.26171875,-288.0859375
12.8950,960.9375,-81.0546875,-286.6210938
12.9000,957.03125,-88.37890625,-270.5078125
12.9050,965.8203125,-84.9609375,-261.2304688
12.9100,968.2617188,-82.03125,-267.0898438
12.9150,963.8671875,-95.21484375,-260.2539063
12.9200,972.1679688,-90.33203125,-247.0703125
12.9250,975.5859375,-94.23828125,-235.3515625
12.9300,971.6796875,-97.65625,-216.796875
12.9350,978.515625,-99.12109375,-215.8203125
12.9400,986.328125,-89.84375,-198.2421875
12.9450,997.5585938,-96.19140625,-200.1953125
12.9500,982.421875,-110.8398438,-224.1210938
12.9550,988.28125,-109.8632813,-220.2148438
12.9600,984.8632813,-106.9335938,-221.6796875
12.9650,976.0742188,-102.5390625,-233.8867188
12.9700,968.2617188,-101.0742188,-235.3515625
12.9750,969.2382813,-87.40234375,-237.7929688
12.9800,966.796875,-78.125,-240.234375
12.9850,956.0546875,-74.21875,-253.90625
12.9900,956.0546875,-67.3828125,-258.7890625
12.9950,956.0546875,-62.5,-268.0664063
13.0000,959.4726563,-47.8515625,-263.671875
13.0050,958.984375,-53.22265625,-261.2304688
13.0100,955.078125,-57.12890625,-268.0664063
13.0150,963.3789063,-55.6640625,-248.046875
13.0200,966.3085938,-55.6640625,-238.7695313
13.0250,978.0273438,-57.6171875,-226.0742188
13.0300,981.4453125,-57.6171875,-223.6328125
13.0350,984.375,-68.359375,-223.1445313
13.0400,987.7929688,-65.91796875,-213.8671875
13.0450,988.28125,-71.77734375,-203.125
13.0500,989.2578125,-75.68359375,-222.65625
13.0550,989.7460938,-80.078125,-229.4921875
13.0600,979.9804688,-80.56640625,-236.8164063
13.0650,986.328125,-82.51953125,-243.6523438
13.0700,980.46875,-86.42578125,-236.328125
13.0750,979.4921875,-79.58984375,-240.7226563
13.0800,979.9804688,-75.1953125,-233.8867188
13.0850,982.9101563,-73.2421875,-237.7929688
13.0900,988.28125,-60.546875,-238.28125
13.0950,984.375,-70.3125,-245.1171875
13.1000,986.8164063,-65.91796875,-250.4882813
13.1050,985.3515625,-64.453125,-247.5585938
13.1100,984.8632813,-55.17578125,-244.140625
13.1150,979.9804688,-53.7109375,-236.8164063
13.1200,978.0273438,-43.45703125,-246.09375
13.1250,975.0976563,-38.0859375,-235.8398438
13.1300,968.75,-40.0390625,-250
13.1350,959.4726563,-37.59765625,-241.6992188
13.1400,949.7070313,-31.73828125,-238.28125
13.1450,949.7070313,-32.2265625,-229.9804688
13.1500,950.1953125,-35.64453125,-230.9570313
13.1550,944.8242188,-40.0390625,-245.1171875
13.1600,943.359375,-36.1328125,-224.1210938
13.1650,940.9179688,-40.0390625,-222.1679688
13.1700,946.2890625,-37.109375,-220.703125
13.1750,958.984375,-30.76171875,-220.703125
13.1800,951.171875,-33.69140625,-211.9140625
13.1850,959.9609375,-31.25,-200.6835938
13.1900,958.4960938,-37.59765625,-207.5195313
13.1950,952.1484375,-40.52734375,-209.9609375
13.2000,945.8007813,-44.43359375,-222.1679688
13.2050,953.6132813,-33.69140625,-217.2851563
13.2100,957.5195313,-37.109375,-230.9570313
13.2150,959.9609375,-42.96875,-229.9804688
13.2200,952.1484375,-49.8046875,-226.5625
13.2250,962.890625,-44.43359375,-241.6992188
13.2300,969.7265625,-43.9453125,-240.7226563
13.2350,973.6328125,-44.43359375,-235.3515625
13.2400,973.6328125,-47.8515625,-232.9101563
13.2450,983.8867188,-46.38671875,-233.3984375
13.2500,983.8867188,-49.8046875,-231.4453125
13.2550,987.7929688,-54.19921875,-238.7695313
13.2600,987.7929688,-62.01171875,-245.6054688
13.2650,994.6289063,-66.89453125,-241.6992188
13.2700,995.1171875,-67.3828125,-241.6992188
13.2750,991.2109375,-71.2890625,-238.7695313
13.2800,989.7460938,-64.94140625,-250
13.2850,988.7695313,-63.96484375,-227.5390625
13.2900,984.8632813,-58.10546875,-228.515625
13.2950,987.7929688,-61.03515625,-219.7265625
13.3000,982.421875,-54.6875,-221.1914063
13.3050,968.75,-61.03515625,-210.9375
13.3100,977.5390625,-44.921875,-220.703125
13.3150,971.6796875,-53.22265625,-208.0078125
13.3200,966.3085938,-58.10546875,-208.4960938
13.3250,965.3320313,-62.01171875,-223.1445313
13.3300,966.796875,-57.6171875,-213.8671875
13.3350,970.703125,-55.6640625,-220.2148438
13.3400,964.84375,-59.08203125,-217.7734375
13.3450,978.0273438,-51.7578125,-212.890625
13.3500,966.3085938,-58.59375,-207.5195313
13.3550,976.5625,-49.8046875,-192.8710938
13.3600,970.703125,-48.33984375,-221.6796875
13.3650,977.0507813,-45.41015625,-190.9179688
13.3700,969.7265625,-50.78125,-192.8710938
13.3750,975.0976563,-44.921875,-205.078125
13.3800,967.2851563,-51.26953125,-206.0546875
13.3850,974.609375,-50.78125,-224.609375
13.3900,973.6328125,-52.24609375,-207.5195313
13.3950,980.46875,-46.38671875,-217.2851563
13.4000,966.796875,-53.22265625,-230.46875
13.4050,972.1679688,-43.45703125,-223.1445313
13.4100,969.2382813,-40.0390625,-226.5625
13.4150,974.609375,-34.66796875,-217.7734375
13.4200,974.609375,-36.62109375,-226.0742188
13.4250,970.703125,-41.50390625,-230.9570313
13.4300,979.0039063,-31.25,-221.6796875
13.4350,982.9101563,-31.25,-229.4921875
13.4400,986.8164063,-32.2265625,-218.2617188
13.4450,978.515625,-43.9453125,-213.3789063
13.4500,985.3515625,-40.52734375,-208.0078125
13.4550,995.6054688,-49.31640625,-219.2382813
13.4600,978.515625,-73.2421875,-213.8671875
13.4650,983.3984375,-62.98828125,-219.7265625
13.4700,981.4453125,-68.84765625,-207.5195313
13.4750,986.328125,-69.82421875,-208.984375
13.4800,972.65625,-71.2890625,-211.4257813
13.4850,979.0039063,-63.4765625,-216.3085938
13.4900,978.0273438,-63.4765625,-207.5195313
13.4950,976.0742188,-67.3828125,-207.5195313
13.5000,971.6796875,-64.453125,-206.0546875
13.5050,974.1210938,-62.01171875,-209.4726563
13.5100,970.703125,-64.453125,-210.9375
13.5150,974.1210938,-57.12890625,-203.6132813
13.5200,977.0507813,-51.26953125,-209.9609375
13.5250,979.9804688,-55.6640625,-206.0546875
13.5300,986.328125,-54.19921875,-209.9609375
13.5350,977.0507813,-71.2890625,-222.1679688
13.5400,983.8867188,-72.265625,-224.1210938
13.5450,989.7460938,-66.40625,-212.890625
13.5500,984.375,-77.1484375,-209.9609375
13.5550,986.328125,-77.1484375,-216.796875
13.5600,992.1875,-66.40625,-229.9804688
13.5650,985.8398438,-65.4296875,-223.6328125
13.5700,979.9804688,-74.21875,-215.8203125
13.5750,980.46875,-64.453125,-227.5390625
13.5800,982.9101563,-46.38671875,-220.2148438
13.5850,970.2148438,-55.6640625,-227.5390625
13.5900,975.0976563,-43.45703125,-229.9804688
13.5950,969.2382813,-50.29296875,-225.0976563
13.6000,974.1210938,-37.109375,-207.5195313
13.6050,974.609375,-31.73828125,-215.3320313
13.6100,976.5625,-28.3203125,-205.078125
13.6150,974.609375,-37.59765625,-218.2617188
13.6200,990.234375,-37.109375,-217.7734375
13.6250,998.5351563,-51.7578125,-212.4023438
13.6300,992.6757813,-71.2890625,-224.1210938
13.6350,998.5351563,-77.63671875,-202.1484375
13.6400,987.3046875,-93.75,-216.3085938
13.6450,986.8164063,-100.5859375,-197.7539063
13.6500,986.328125,-105.9570313,-188.4765625
13.6550,989.7460938,-107.9101563,-191.8945313
13.6600,979.4921875,-104.0039063,-169.921875
13.6650,978.515625,-93.75,-187.5
13.6700,967.7734375,-87.890625,-189.9414063
13.6750,958.4960938,-88.8671875,-167.96875
13.6800,956.5429688,-75.68359375,-170.8984375
13.6850,941.40625,-69.82421875,-180.1757813
13.6900,937.9882813,-55.17578125,-186.5234375
13.6950,936.0351563,-40.0390625,-171.875
13.7000,942.8710938,-29.296875,-174.3164063
13.7050,954.1015625,-32.71484375,-181.640625
13.7100,953.6132813,-44.43359375,-173.828125
13.7150,971.6796875,-43.45703125,-183.1054688
