type,name,time_units,begin_time,frequency,count,units
signal,"Noraxon MyoMotion-Segments-Forearm RT-Roll","s",0.0000,200,5088,"deg"

time,value
0.0000,-1.145118535
0.0050,-1.147164118
0.0100,-1.149211238
0.0150,-1.151259895
0.0200,-1.1526352
0.0250,-1.15317422
0.0300,-1.152720359
0.0350,-1.151129838
0.0400,-1.148277497
0.0450,-1.144062249
0.0500,-1.13841122
0.0550,-1.131281896
0.0600,-1.122662989
0.0650,-1.112574593
0.0700,-1.101067258
0.0750,-1.088220063
0.0800,-1.074138581
0.0850,-1.058953026
0.0900,-1.042816015
0.0950,-1.025900018
0.1000,-1.008394622
0.1050,-0.9905030266
0.1100,-0.9724379833
0.1150,-0.9544176205
0.1200,-0.9366611139
0.1250,-0.9193846328
0.1300,-0.9027972995
0.1350,-0.8870966709
0.1400,-0.8724643407
0.1450,-0.859062002
0.1500,-0.8470275759
0.1550,-0.8287441517
0.1600,-0.8115891448
0.1650,-0.795701755
0.1700,-0.781068405
0.1750,-0.7677480988
0.1800,-0.755599299
0.1850,-0.744608722
0.1900,-0.7347045571
0.1950,-0.7258170543
0.2000,-0.7179877795
0.2050,-0.7109773811
0.2100,-0.7048304851
0.2150,-0.6993099465
0.2200,-0.6943232648
0.2250,-0.689656288
0.2300,-0.6854028397
0.2350,-0.6813006632
0.2400,-0.6775856344
0.2450,-0.6738413024
0.2500,-0.6703649103
0.2550,-0.6670295037
0.2600,-0.6636258948
0.2650,-0.6603241344
0.2700,-0.6568132491
0.2750,-0.6530762874
0.2800,-0.6490724265
0.2850,-0.6449139923
0.2900,-0.6401906406
0.2950,-0.6349533747
0.3000,-0.628922678
0.3050,-0.6222601823
0.3100,-0.6148158595
0.3150,-0.6064486394
0.3200,-0.5972004972
0.3250,-0.5869706785
0.3300,-0.5759342793
0.3350,-0.5639619462
0.3400,-0.5511920911
0.3450,-0.5376218576
0.3500,-0.5232791628
0.3550,-0.5084245731
0.3600,-0.4928570399
0.3650,-0.4766072156
0.3700,-0.4598863554
0.3750,-0.4425814493
0.3800,-0.4247673591
0.3850,-0.406584113
0.3900,-0.3877284775
0.3950,-0.3685254668
0.4000,-0.348725653
0.4050,-0.3282658834
0.4100,-0.3072687938
0.4150,-0.2854889667
0.4200,-0.2629669878
0.4250,-0.2396259087
0.4300,-0.2157828758
0.4350,-0.1913186108
0.4400,-0.1662683718
0.4450,-0.1405542189
0.4500,-0.114284715
0.4550,-0.0875763594
0.4600,-0.06049482203
0.4650,-0.03317088897
0.4700,-0.005533520511
0.4750,0.02239841395
0.4800,0.05040384534
0.4850,0.07860240396
0.4900,0.106921396
0.4950,0.1355223279
0.5000,0.1644431158
0.5050,0.1936540033
0.5100,0.2233111214
0.5150,0.2534116162
0.5200,0.2838004271
0.5250,0.3146361465
0.5300,0.3459577164
0.5350,0.3779846912
0.5400,0.4108637904
0.5450,0.4446163169
0.5500,0.4792456735
0.5550,0.514809972
0.5600,0.5515026978
0.5650,0.5892919472
0.5700,0.6281044413
0.5750,0.6680835239
0.5800,0.7090795926
0.5850,0.7514468558
0.5900,0.7948240912
0.5950,0.8391127249
0.6000,0.8843697456
0.6050,0.9307139563
0.6100,0.9779172963
0.6150,1.026160937
0.6200,1.075334377
0.6250,1.125524008
0.6300,1.176721936
0.6350,1.228993365
0.6400,1.282537898
0.6450,1.337281132
0.6500,1.393322925
0.6550,1.450772934
0.6600,1.509545907
0.6650,1.569739369
0.6700,1.631433453
0.6750,1.69453679
0.6800,1.759082954
0.6850,1.825182798
0.6900,1.892675938
0.6950,1.961836162
0.7000,2.032497858
0.7050,2.104574581
0.7100,2.178144882
0.7150,2.253164509
0.7200,2.329930602
0.7250,2.408042156
0.7300,2.487740283
0.7350,2.569132346
0.7400,2.652175555
0.7450,2.736869075
0.7500,2.823382762
0.7550,2.911824146
0.7600,3.002314509
0.7650,3.094950439
0.7700,3.189553932
0.7750,3.286365617
0.7800,3.38546496
0.7850,3.486647203
0.7900,3.590098534
0.7950,3.695875263
0.8000,3.803955872
0.8050,3.914257132
0.8100,4.026905893
0.8150,4.141985275
0.8200,4.259626758
0.8250,4.37970863
0.8300,4.502376881
0.8350,4.627416918
0.8400,4.754798585
0.8450,4.884412137
0.8500,5.016431129
0.8550,5.150869599
0.8600,5.28761063
0.8650,5.42678433
0.8700,5.56841381
0.8750,5.712535511
0.8800,5.859287162
0.8850,6.008604431
0.8900,6.160524918
0.8950,6.315285337
0.9000,6.472670769
0.9050,6.63269484
0.9100,6.795687088
0.9150,6.961451737
0.9200,7.130327838
0.9250,7.302013417
0.9300,7.476939753
0.9350,7.654930812
0.9400,7.836082067
0.9450,8.020330019
0.9500,8.207700988
0.9550,8.398101495
0.9600,8.591344701
0.9650,8.787424392
0.9700,8.98620144
0.9750,9.187696828
0.9800,9.391911313
0.9850,9.598657979
0.9900,9.807939664
0.9950,10.01956485
1.0000,10.23369841
1.0050,10.45040723
1.0100,10.66963597
1.0150,10.89120835
1.0200,11.11514556
1.0250,11.34141758
1.0300,11.57010344
1.0350,11.80098425
1.0400,12.03414021
1.0450,12.26944294
1.0500,12.50685278
1.0550,12.7461362
1.0600,12.98726611
1.0650,13.23038964
1.0700,13.47552767
1.0750,13.72245998
1.0800,13.97113632
1.0850,14.22174749
1.0900,14.47395328
1.0950,14.72769914
1.1000,14.98293529
1.1050,15.23970268
1.1100,15.49793363
1.1150,15.75729613
1.1200,16.01781618
1.1250,16.27940881
1.1300,16.54204326
1.1350,16.80550538
1.1400,17.06979161
1.1450,17.33500953
1.1500,17.60098742
1.1550,17.86767278
1.1600,18.13481006
1.1650,18.40248256
1.1700,18.67068244
1.1750,18.93915355
1.1800,19.20791148
1.1850,19.47697474
1.1900,19.74651268
1.1950,20.01652762
1.2000,20.28725362
1.2050,20.5588953
1.2100,20.83138197
1.2150,21.10477291
1.2200,21.37892827
1.2250,21.65403199
1.2300,21.92988594
1.2350,22.20662649
1.2400,22.4841791
1.2450,22.76277347
1.2500,23.04232864
1.2550,23.32305027
1.2600,23.60525136
1.2650,23.88884671
1.2700,24.17411227
1.2750,24.46122537
1.2800,24.75002841
1.2850,25.04097155
1.2900,25.33409826
1.2950,25.62981662
1.3000,25.92790547
1.3050,26.22843288
1.3100,26.53154992
1.3150,26.83750705
1.3200,27.14613884
1.3250,27.45793974
1.3300,27.7726988
1.3350,28.09054727
1.3400,28.41145181
1.3450,28.73523752
1.3500,29.06185015
1.3550,29.39149361
1.3600,29.72408506
1.3650,30.05949872
1.3700,30.39785172
1.3750,30.73913961
1.3800,31.08352607
1.3850,31.43084752
1.3900,31.78170242
1.3950,32.13573744
1.4000,32.49321654
1.4050,32.85407133
1.4100,33.21832056
1.4150,33.58633672
1.4200,33.95774781
1.4250,34.3327374
1.4300,34.71127932
1.4350,35.09345598
1.4400,35.47917476
1.4450,35.86829336
1.4500,36.2607961
1.4550,36.65635581
1.4600,37.0551919
1.4650,37.4569657
1.4700,37.86157346
1.4750,38.26910203
1.4800,38.67963716
1.4850,39.09299194
1.4900,39.50914285
1.4950,39.92799341
1.5000,40.34927401
1.5050,40.7727373
1.5100,41.1985894
1.5150,41.62661258
1.5200,42.05694521
1.5250,42.48976695
1.5300,42.92500696
1.5350,43.36239069
1.5400,43.80224222
1.5450,44.2442072
1.5500,44.68835704
1.5550,45.13467825
1.5600,45.58277353
1.5650,46.03270222
1.5700,46.48427018
1.5750,46.93732076
1.5800,47.39204259
1.5850,47.84791686
1.5900,48.30503023
1.5950,48.76314578
1.6000,49.22227897
1.6050,49.68242105
1.6100,50.14356163
1.6150,50.60548004
1.6200,51.06837716
1.6250,51.53186698
1.6300,51.99624942
1.6350,52.46127794
1.6400,52.92690794
1.6450,53.39335564
1.6500,53.86049686
1.6550,54.32821236
1.6600,54.79656866
1.6650,55.26547586
1.6700,55.73458032
1.6750,56.20414668
1.6800,56.67362979
1.6850,57.14319289
1.6900,57.61229603
1.6950,58.08135762
1.7000,58.55019954
1.7050,59.01861998
1.7100,59.48683064
1.7150,59.95441762
1.7200,60.42164031
1.7250,60.88837736
1.7300,61.354764
1.7350,61.8208704
1.7400,62.28678583
1.7450,62.7523735
1.7500,63.21765286
1.7550,63.68298063
1.7600,64.14855723
1.7650,64.61415738
1.7700,65.07988209
1.7750,65.54584422
1.7800,66.01193166
1.7850,66.47869159
1.7900,66.94591874
1.7950,67.41378227
1.8000,67.88237649
1.8050,68.35171192
1.8100,68.82182076
1.8150,69.29287681
1.8200,69.76473967
1.8250,70.23741697
1.8300,70.71092685
1.8350,71.18566329
1.8400,71.6613169
1.8450,72.13803679
1.8500,72.61587811
1.8550,73.09470162
1.8600,73.5746026
1.8650,74.05567615
1.8700,74.53805392
1.8750,75.02149275
1.8800,75.50594906
1.8850,75.99181288
1.8900,76.47863108
1.8950,76.96645222
1.9000,77.45528264
1.9050,77.94506674
1.9100,78.4360574
1.9150,78.92822982
1.9200,79.42156579
1.9250,79.91600209
1.9300,80.41152802
1.9350,80.90829003
1.9400,81.40593201
1.9450,81.90465293
1.9500,82.40441359
1.9550,82.90519725
1.9600,83.40688488
1.9650,83.90950504
1.9700,84.41322422
1.9750,84.9179441
1.9800,85.42361036
1.9850,85.93033297
1.9900,86.43840067
1.9950,86.94729887
2.0000,87.45712986
2.0050,87.96794978
2.0100,88.4793585
2.0150,88.99173162
2.0200,89.50462883
2.0250,90.01812387
2.0300,90.53184667
2.0350,91.04574328
2.0400,91.55959967
2.0450,92.07333347
2.0500,92.58700199
2.0550,93.10031407
2.0600,93.61301442
2.0650,94.1253185
2.0700,94.63744696
2.0750,95.14903978
2.0800,95.6599873
2.0850,96.17006452
2.0900,96.67956983
2.0950,97.18834187
2.1000,97.69652768
2.1050,98.20423158
2.1100,98.71112808
2.1150,99.21727658
2.1200,99.72266685
2.1250,100.2272858
2.1300,100.7311852
2.1350,101.2341665
2.1400,101.7360382
2.1450,102.2369111
2.1500,102.7366211
2.1550,103.234818
2.1600,103.731738
2.1650,104.2273838
2.1700,104.7212068
2.1750,105.21368
2.1800,105.704723
2.1850,106.193864
2.1900,106.6814372
2.1950,107.1673589
2.2000,107.6517332
2.2050,108.1346818
2.2100,108.6158813
2.2150,109.0956385
2.2200,109.5735298
2.2250,110.0496731
2.2300,110.5238205
2.2350,110.996116
2.2400,111.466725
2.2450,111.9353941
2.2500,112.4017491
2.2550,112.8657039
2.2600,113.3273683
2.2650,113.7868067
2.2700,114.2438809
2.2750,114.6983257
2.2800,115.1502798
2.2850,115.5991447
2.2900,116.0452679
2.2950,116.4888259
2.3000,116.9295602
2.3050,117.3677458
2.3100,117.8035384
2.3150,118.2366171
2.3200,118.6673042
2.3250,119.0953587
2.3300,119.5211788
2.3350,119.944623
2.3400,120.365849
2.3450,120.7850728
2.3500,121.2023081
2.3550,121.6179865
2.3600,122.0320081
2.3650,122.4442789
2.3700,122.8548403
2.3750,123.2637951
2.3800,123.6713487
2.3850,124.077017
2.3900,124.4810904
2.3950,124.883609
2.4000,125.2847432
2.4050,125.6845325
2.4100,126.0832331
2.4150,126.4807748
2.4200,126.8775439
2.4250,127.2733842
2.4300,127.6682032
2.4350,128.0618052
2.4400,128.4545539
2.4450,128.8464626
2.4500,129.2375546
2.4550,129.627898
2.4600,130.017531
2.4650,130.4062638
2.4700,130.7943684
2.4750,131.1812458
2.4800,131.5669887
2.4850,131.951314
2.4900,132.3342845
2.4950,132.7161079
2.5000,133.0963531
2.5050,133.475167
2.5100,133.8525519
2.5150,134.2285684
2.5200,134.6034667
2.5250,134.9770699
2.5300,135.3497187
2.5350,135.7209437
2.5400,136.0907261
2.5450,136.4590353
2.5500,136.8260412
2.5550,137.1917207
2.5600,137.5556937
2.5650,137.9174816
2.5700,138.2770089
2.5750,138.6339837
2.5800,138.9886307
2.5850,139.3408344
2.5900,139.6902545
2.5950,140.0366352
2.6000,140.3803334
2.6050,140.7211425
2.6100,141.0590034
2.6150,141.3941649
2.6200,141.7265268
2.6250,142.0567356
2.6300,142.3842824
2.6350,142.7094556
2.6400,143.0321895
2.6450,143.352218
2.6500,143.6697289
2.6550,143.9845949
2.6600,144.2972368
2.6650,144.6081292
2.6700,144.9175748
2.6750,145.2255077
2.6800,145.5317035
2.6850,145.836632
2.6900,146.1396171
2.6950,146.4413348
2.7000,146.7411855
2.7050,147.03916
2.7100,147.3354269
2.7150,147.6300626
2.7200,147.9227656
2.7250,148.2139426
2.7300,148.5036532
2.7350,148.7921236
2.7400,149.0793424
2.7450,149.3655011
2.7500,149.6503175
2.7550,149.9339346
2.7600,150.2160605
2.7650,150.4971084
2.7700,150.776772
2.7750,151.0552887
2.7800,151.3324759
2.7850,151.6085763
2.7900,151.8830221
2.7950,152.1557132
2.8000,152.4265349
2.8050,152.6951864
2.8100,152.961695
2.8150,153.2255931
2.8200,153.4866052
2.8250,153.7446829
2.8300,153.9995436
2.8350,154.2513577
2.8400,154.5001234
2.8450,154.7459237
2.8500,154.9887334
2.8550,155.2285254
2.8600,155.465194
2.8650,155.6992517
2.8700,155.9308066
2.8750,156.1600918
2.8800,156.386998
2.8850,156.6120115
2.8900,156.8352695
2.8950,157.0569275
2.9000,157.2768545
2.9050,157.4957514
2.9100,157.7133547
2.9150,157.9297156
2.9200,158.1449416
2.9250,158.3587651
2.9300,158.5717217
2.9350,158.7836189
2.9400,158.9946287
2.9450,159.2049223
2.9500,159.4145505
2.9550,159.623536
2.9600,159.8316024
2.9650,160.0385971
2.9700,160.2439323
2.9750,160.4478372
2.9800,160.6502767
2.9850,160.8512477
2.9900,161.0508934
2.9950,161.2489232
3.0000,161.4456023
3.0050,161.6407968
3.0100,161.8345164
3.0150,162.026625
3.0200,162.2172233
3.0250,162.4058319
3.0300,162.5924891
3.0350,162.7773988
3.0400,162.9601442
3.0450,163.1406101
3.0500,163.319001
3.0550,163.4951354
3.0600,163.6689782
3.0650,163.8404631
3.0700,164.0097792
3.0750,164.1768294
3.0800,164.3417363
3.0850,164.5046694
3.0900,164.6657097
3.0950,164.8246153
3.1000,164.9815872
3.1050,165.1365779
3.1100,165.2891873
3.1150,165.4397214
3.1200,165.5882953
3.1250,165.7348095
3.1300,165.8794433
3.1350,166.0223356
3.1400,166.1634038
3.1450,166.302935
3.1500,166.4409035
3.1550,166.5774378
3.1600,166.7126571
3.1650,166.8465619
3.1700,166.9792076
3.1750,167.1105442
3.1800,167.2407415
3.1850,167.3698319
3.1900,167.4976623
3.1950,167.6243909
3.2000,167.7499756
3.2050,167.8741276
3.2100,167.9969848
3.2150,168.1186478
3.2200,168.2390524
3.2250,168.3579266
3.2300,168.4752151
3.2350,168.5909134
3.2400,168.704777
3.2450,168.8166254
3.2500,168.92619
3.2550,169.0332858
3.2600,169.1379527
3.2650,169.2400955
3.2700,169.3397235
3.2750,169.4370061
3.2800,169.532157
3.2850,169.6250001
3.2900,169.7158622
3.2950,169.8048153
3.3000,169.8918452
3.3050,169.9771695
3.3100,170.0606119
3.3150,170.1426772
3.3200,170.223359
3.3250,170.3031742
3.3300,170.3819129
3.3350,170.4599695
3.3400,170.537599
3.3450,170.614765
3.3500,170.6913262
3.3550,170.7674314
3.3600,170.8431769
3.3650,170.9184936
3.3700,170.9935337
3.3750,171.0681699
3.3800,171.1424924
3.3850,171.2163049
3.3900,171.2898302
3.3950,171.3633739
3.4000,171.4368758
3.4050,171.5104777
3.4100,171.5845075
3.4150,171.658923
3.4200,171.7338668
3.4250,171.809445
3.4300,171.8856408
3.4350,171.9626721
3.4400,172.0405307
3.4450,172.1190052
3.4500,172.1982612
3.4550,172.278202
3.4600,172.3588563
3.4650,172.4400134
3.4700,172.5215057
3.4750,172.6032571
3.4800,172.685232
3.4850,172.767229
3.4900,172.8492192
3.4950,172.9309539
3.5000,173.0124664
3.5050,173.0934141
3.5100,173.1738483
3.5150,173.2535799
3.5200,173.3325773
3.5250,173.4108726
3.5300,173.4881932
3.5350,173.5642691
3.5400,173.6391275
3.5450,173.7127139
3.5500,173.7851865
3.5550,173.8567261
3.5600,173.9271622
3.5650,173.9965377
3.5700,174.0649098
3.5750,174.132119
3.5800,174.1981588
3.5850,174.2633009
3.5900,174.327253
3.5950,174.390195
3.6000,174.4521864
3.6050,174.5133538
3.6100,174.5736792
3.6150,174.6330873
3.6200,174.6916758
3.6250,174.7495146
3.6300,174.8068051
3.6350,174.8632132
3.6400,174.9186966
3.6450,174.9737598
3.6500,175.0286801
3.6550,175.0836402
3.6600,175.1387392
3.6650,175.1937106
3.6700,175.2487769
3.6750,175.304263
3.6800,175.3601349
3.6850,175.4164312
3.6900,175.473388
3.6950,175.5310894
3.7000,175.5899483
3.7050,175.6502184
3.7100,175.7120764
3.7150,175.775734
3.7200,175.8412803
3.7250,175.9087138
3.7300,175.9781505
3.7350,176.0495655
3.7400,176.1233211
3.7450,176.1992629
3.7500,176.2773263
3.7550,176.3575157
3.7600,176.4397459
3.7650,176.5237934
3.7700,176.6098466
3.7750,176.6975446
3.7800,176.7865367
3.7850,176.8764992
3.7900,176.9672056
3.7950,177.0583806
3.8000,177.1499314
3.8050,177.2418114
3.8100,177.3335455
3.8150,177.4251067
3.8200,177.516199
3.8250,177.6067155
3.8300,177.6963474
3.8350,177.7851278
3.8400,177.8729721
3.8450,177.959869
3.8500,178.0455337
3.8550,178.1296761
3.8600,178.2122897
3.8650,178.2931616
3.8700,178.3723637
3.8750,178.4497164
3.8800,178.5251981
3.8850,178.5985253
3.8900,178.6698258
3.8950,178.7387188
3.9000,178.8051845
3.9050,178.8690734
3.9100,178.9304879
3.9150,178.9892527
3.9200,179.0452329
3.9250,179.0984334
3.9300,179.1488569
3.9350,179.1967248
3.9400,179.2422821
3.9450,179.2852192
3.9500,179.3258324
3.9550,179.3639585
3.9600,179.3998109
3.9650,179.4335857
3.9700,179.4653136
3.9750,179.495087
3.9800,179.5231272
3.9850,179.5496873
3.9900,179.5749049
3.9950,179.5990237
4.0000,179.6219775
4.0050,179.6436647
4.0100,179.6642761
4.0150,179.6837581
4.0200,179.7023433
4.0250,179.7201963
4.0300,179.7374126
4.0350,179.7540739
4.0400,179.770029
4.0450,179.7854936
4.0500,179.8005769
4.0550,179.8150977
4.0600,179.8293225
4.0650,179.8432656
4.0700,179.8566836
4.0750,179.8697933
4.0800,179.8826953
4.0850,179.8953618
4.0900,179.9080269
4.0950,179.9206867
4.1000,179.9330577
4.1050,179.944972
4.1100,179.95673
4.1150,179.968025
4.1200,179.9789833
4.1250,179.9894926
4.1300,179.999573
4.1350,-179.9908032
4.1400,-179.9817715
4.1450,-179.9732968
4.1500,-179.9654573
4.1550,-179.958418
4.1600,-179.9522362
4.1650,-179.9468895
4.1700,-179.9424558
4.1750,-179.9390105
4.1800,-179.9367825
4.1850,-179.9356638
4.1900,-179.9358942
4.1950,-179.937351
4.2000,-179.9401688
4.2050,-179.9443583
4.2100,-179.9499991
4.2150,-179.9571375
4.2200,-179.9657627
4.2250,-179.9760408
4.2300,-179.9878724
4.2350,179.9983479
4.2400,179.9825505
4.2450,179.9648482
4.2500,179.9447178
4.2550,179.9222053
4.2600,179.8971115
4.2650,179.8697207
4.2700,179.8397869
4.2750,179.8073809
4.2800,179.7721491
4.2850,179.7341378
4.2900,179.6931502
4.2950,179.6490316
4.3000,179.6017636
4.3050,179.5512178
4.3100,179.4975833
4.3150,179.4406455
4.3200,179.3801697
4.3250,179.3161753
4.3300,179.2488169
4.3350,179.1779361
4.3400,179.1037027
4.3450,179.0262219
4.3500,178.9455214
4.3550,178.8618161
4.3600,178.7751132
4.3650,178.685404
4.3700,178.5927954
4.3750,178.4974464
4.3800,178.3993934
4.3850,178.2988416
4.3900,178.1956533
4.3950,178.0901363
4.4000,177.9823785
4.4050,177.8725374
4.4100,177.7606049
4.4150,177.646696
4.4200,177.5308302
4.4250,177.4130222
4.4300,177.2935417
4.4350,177.1723403
4.4400,177.0494088
4.4450,176.9247987
4.4500,176.7984722
4.4550,176.6707756
4.4600,176.5417246
4.4650,176.4113185
4.4700,176.2797344
4.4750,176.146857
4.4800,176.0129917
4.4850,175.8780805
4.4900,175.7422186
4.4950,175.6055077
4.5000,175.4680348
4.5050,175.3299158
4.5100,175.1908868
4.5150,175.0513045
4.5200,174.9109816
4.5250,174.7699325
4.5300,174.6280762
4.5350,174.4857671
4.5400,174.3430821
4.5450,174.1997659
4.5500,174.0562222
4.5550,173.9126125
4.5600,173.768992
4.5650,173.6253099
4.5700,173.4816259
4.5750,173.3378059
4.5800,173.1943034
4.5850,173.0510594
4.5900,172.9081599
4.5950,172.7655411
4.6000,172.6233634
4.6050,172.4817096
4.6100,172.3405502
4.6150,172.1999195
4.6200,172.0598533
4.6250,171.9205222
4.6300,171.7815953
4.6350,171.6432376
4.6400,171.5053395
4.6450,171.3678179
4.6500,171.2305369
4.6550,171.0936599
4.6600,170.9568103
4.6650,170.8201892
4.6700,170.6836091
4.6750,170.547078
4.6800,170.4105157
4.6850,170.2735052
4.6900,170.1360818
4.6950,169.9981182
4.7000,169.8596454
4.7050,169.7206136
4.7100,169.5808335
4.7150,169.4404969
4.7200,169.2995007
4.7250,169.1578279
4.7300,169.0151818
4.7350,168.8716579
4.7400,168.7274531
4.7450,168.582511
4.7500,168.4368035
4.7550,168.2900391
4.7600,168.1422724
4.7650,167.9932034
4.7700,167.8426334
4.7750,167.6906413
4.7800,167.5371389
4.7850,167.3822513
4.7900,167.2261084
4.7950,167.0684789
4.8000,166.9097067
4.8050,166.74964
4.8100,166.5882786
4.8150,166.4254447
4.8200,166.2608781
4.8250,166.0945797
4.8300,165.9262945
4.8350,165.7558861
4.8400,165.5832527
4.8450,165.4086349
4.8500,165.2320948
4.8550,165.0534432
4.8600,164.8726606
4.8650,164.6896583
4.8700,164.50445
4.8750,164.3169736
4.8800,164.1270952
4.8850,163.9348719
4.8900,163.7402103
4.8950,163.5431419
4.9000,163.3432563
4.9050,163.140659
4.9100,162.9347986
4.9150,162.725882
4.9200,162.5136869
4.9250,162.2979926
4.9300,162.0788024
4.9350,161.855736
4.9400,161.628796
4.9450,161.397996
4.9500,161.1634892
4.9550,160.9250012
4.9600,160.6824024
4.9650,160.4355315
4.9700,160.1844581
4.9750,159.9288459
4.9800,159.6689242
4.9850,159.4048837
4.9900,159.1367614
4.9950,158.8643812
5.0000,158.5877876
5.0050,158.3065944
5.0100,158.0205491
5.0150,157.7291643
5.0200,157.4326276
5.0250,157.1310048
5.0300,156.8243832
5.0350,156.5124839
5.0400,156.1950526
5.0450,155.8718028
5.0500,155.5428714
5.0550,155.2082942
5.0600,154.8681679
5.0650,154.5225516
5.0700,154.1712668
5.0750,153.8143672
5.0800,153.4516172
5.0850,153.0828513
5.0900,152.7080846
5.0950,152.3272186
5.1000,151.9401557
5.1050,151.5466818
5.1100,151.147282
5.1150,150.7416944
5.1200,150.3304872
5.1250,149.9133572
5.1300,149.4904383
5.1350,149.0616067
5.1400,148.6265057
5.1450,148.1851612
5.1500,147.7374004
5.1550,147.2831812
5.1600,146.822509
5.1650,146.3552264
5.1700,145.8811244
5.1750,145.4001157
5.1800,144.9120829
5.1850,144.4169357
5.1900,143.9149133
