type,name,time_units,begin_time,frequency,count,units
signal,"Noraxon MyoMotion-Segments-Upper arm RT-Pitch","s",0.0000,200,5088,"deg"

time,value
0.0000,11.10355798
0.0050,11.09966773
0.0100,11.09577676
0.0150,11.09188507
0.0200,11.08752658
0.0250,11.08268835
0.0300,11.07735786
0.0350,11.07152308
0.0400,11.06517311
0.0450,11.05829959
0.0500,11.05089839
0.0550,11.04297087
0.0600,11.03452437
0.0650,11.02557277
0.0700,11.01613692
0.0750,11.00624474
0.0800,10.99593113
0.0850,10.98523818
0.0900,10.97421591
0.0950,10.96292281
0.1000,10.95142536
0.1050,10.93979692
0.1100,10.92811684
0.1150,10.91646931
0.1200,10.90494134
0.1250,10.89362105
0.1300,10.88259678
0.1350,10.87195634
0.1400,10.86178507
0.1450,10.85216256
0.1500,10.84315836
0.1550,10.82513641
0.1600,10.80775828
0.1650,10.79118043
0.1700,10.77532748
0.1750,10.76006127
0.1800,10.74552933
0.1850,10.73155189
0.1900,10.71816389
0.1950,10.70534953
0.2000,10.69298373
0.2050,10.68117754
0.2100,10.6697359
0.2150,10.65878847
0.2200,10.64829382
0.2250,10.63813019
0.2300,10.62844848
0.2350,10.61902778
0.2400,10.60992197
0.2450,10.60109743
0.2500,10.59260716
0.2550,10.5843211
0.2600,10.57638535
0.2650,10.56859769
0.2700,10.56097593
0.2750,10.55333464
0.2800,10.54576982
0.2850,10.53824072
0.2900,10.53077766
0.2950,10.52341427
0.3000,10.51612257
0.3050,10.50884998
0.3100,10.50141483
0.3150,10.49395356
0.3200,10.48651994
0.3250,10.47898012
0.3300,10.47146412
0.3350,10.46381101
0.3400,10.45623386
0.3450,10.44867439
0.3500,10.44108415
0.3550,10.43350114
0.3600,10.42604171
0.3650,10.41873548
0.3700,10.41159144
0.3750,10.4046368
0.3800,10.39790453
0.3850,10.3913758
0.3900,10.38514517
0.3950,10.37914888
0.4000,10.37331808
0.4050,10.36782542
0.4100,10.36248898
0.4150,10.35725001
0.4200,10.35236211
0.4250,10.34761747
0.4300,10.34317409
0.4350,10.3388151
0.4400,10.33453738
0.4450,10.33062065
0.4500,10.32680677
0.4550,10.32304775
0.4600,10.31957482
0.4650,10.31625363
0.4700,10.31323931
0.4750,10.31036571
0.4800,10.30778756
0.4850,10.30550636
0.4900,10.30344592
0.4950,10.30152479
0.5000,10.29981072
0.5050,10.29820011
0.5100,10.29660323
0.5150,10.29488799
0.5200,10.2930309
0.5250,10.29118936
0.5300,10.28905235
0.5350,10.28678257
0.5400,10.28417212
0.5450,10.28143624
0.5500,10.27839734
0.5550,10.27495816
0.5600,10.27117195
0.5650,10.26701418
0.5700,10.26259457
0.5750,10.25780467
0.5800,10.25256611
0.5850,10.24687402
0.5900,10.24076095
0.5950,10.23414747
0.6000,10.22694736
0.6050,10.21928347
0.6100,10.21114262
0.6150,10.20244631
0.6200,10.193161
0.6250,10.1832428
0.6300,10.17272853
0.6350,10.16162579
0.6400,10.14984993
0.6450,10.13748221
0.6500,10.12445812
0.6550,10.11087415
0.6600,10.09666732
0.6650,10.08188003
0.6700,10.0664557
0.6750,10.05031912
0.6800,10.0335893
0.6850,10.01622645
0.6900,9.998090777
0.6950,9.97943037
0.7000,9.960166782
0.7050,9.94029983
0.7100,9.91985002
0.7150,9.898991878
0.7200,9.877568452
0.7250,9.855498369
0.7300,9.832783077
0.7350,9.809577862
0.7400,9.785951537
0.7450,9.761750993
0.7500,9.737050338
0.7550,9.711824419
0.7600,9.685925635
0.7650,9.659426118
0.7700,9.632083491
0.7750,9.604136749
0.7800,9.575514854
0.7850,9.546055527
0.7900,9.515829183
0.7950,9.484835377
0.8000,9.453077089
0.8050,9.420565216
0.8100,9.38762998
0.8150,9.354186206
0.8200,9.320237901
0.8250,9.285588793
0.8300,9.250405112
0.8350,9.21474354
0.8400,9.178429659
0.8450,9.141454938
0.8500,9.103880857
0.8550,9.065773059
0.8600,9.027022752
0.8650,8.987707563
0.8700,8.947780998
0.8750,8.907221411
0.8800,8.865990257
0.8850,8.824142779
0.8900,8.781467733
0.8950,8.738097043
0.9000,8.693996018
0.9050,8.64921715
0.9100,8.60376434
0.9150,8.557667967
0.9200,8.510859952
0.9250,8.463614476
0.9300,8.415742103
0.9350,8.367459816
0.9400,8.318825076
0.9450,8.2697351
0.9500,8.220319879
0.9550,8.170724868
0.9600,8.120924299
0.9650,8.07095027
0.9700,8.020981427
0.9750,7.970971177
0.9800,7.921082144
0.9850,7.871302659
0.9900,7.821716093
0.9950,7.772221781
1.0000,7.722818467
1.0050,7.673723079
1.0100,7.624830224
1.0150,7.576090886
1.0200,7.527388089
1.0250,7.478863462
1.0300,7.430555828
1.0350,7.382418042
1.0400,7.334359581
1.0450,7.286304641
1.0500,7.238478281
1.0550,7.190739965
1.0600,7.143129482
1.0650,7.095745405
1.0700,7.048660217
1.0750,7.001840879
1.0800,6.955281414
1.0850,6.909144459
1.0900,6.863457028
1.0950,6.818294491
1.1000,6.773708193
1.1050,6.729713256
1.1100,6.686179327
1.1150,6.643244259
1.1200,6.600947239
1.1250,6.559498378
1.1300,6.518709099
1.1350,6.478731592
1.1400,6.43986169
1.1450,6.401903908
1.1500,6.365147283
1.1550,6.329578085
1.1600,6.295230743
1.1650,6.262136014
1.1700,6.230266708
1.1750,6.199726346
1.1800,6.170527895
1.1850,6.142686546
1.1900,6.116266978
1.1950,6.091111547
1.2000,6.067226585
1.2050,6.044571965
1.2100,6.023353179
1.2150,6.003365657
1.2200,5.984799189
1.2250,5.967523411
1.2300,5.951745922
1.2350,5.937311642
1.2400,5.924309569
1.2450,5.912683119
1.2500,5.902478462
1.2550,5.893567938
1.2600,5.885899034
1.2650,5.879508671
1.2700,5.874160451
1.2750,5.870088728
1.2800,5.866942204
1.2850,5.864900399
1.2900,5.863794798
1.2950,5.863637884
1.3000,5.864514492
1.3050,5.866249935
1.3100,5.86902867
1.3150,5.872792184
1.3200,5.877742742
1.3250,5.883848071
1.3300,5.891155418
1.3350,5.89974372
1.3400,5.909658692
1.3450,5.920975698
1.3500,5.933682765
1.3550,5.947863526
1.3600,5.963544023
1.3650,5.980691168
1.3700,5.999381605
1.3750,6.019420992
1.3800,6.040616622
1.3850,6.063074439
1.3900,6.08653365
1.3950,6.110992592
1.4000,6.136278536
1.4050,6.162394247
1.4100,6.189205011
1.4150,6.216796787
1.4200,6.245052647
1.4250,6.273934241
1.4300,6.30368097
1.4350,6.334081942
1.4400,6.365117229
1.4450,6.396872603
1.4500,6.429207835
1.4550,6.462060866
1.4600,6.495479348
1.4650,6.529477027
1.4700,6.564142538
1.4750,6.599505114
1.4800,6.63556502
1.4850,6.672162546
1.4900,6.709481422
1.4950,6.747499586
1.5000,6.786262783
1.5050,6.825664326
1.5100,6.865587335
1.5150,6.906062973
1.5200,6.947036378
1.5250,6.988537389
1.5300,7.030419693
1.5350,7.072831315
1.5400,7.115724983
1.5450,7.159062893
1.5500,7.202864135
1.5550,7.247065339
1.5600,7.291836402
1.5650,7.337020049
1.5700,7.382753271
1.5750,7.428951544
1.5800,7.475926093
1.5850,7.52331059
1.5900,7.571294871
1.5950,7.619791325
1.6000,7.668743792
1.6050,7.718083749
1.6100,7.767704272
1.6150,7.817620089
1.6200,7.867897678
1.6250,7.918433032
1.6300,7.969078666
1.6350,8.019905135
1.6400,8.071006776
1.6450,8.122250658
1.6500,8.173561983
1.6550,8.225013737
1.6600,8.276697318
1.6650,8.328443957
1.6700,8.380262342
1.6750,8.432244055
1.6800,8.484540216
1.6850,8.536987968
1.6900,8.589696726
1.6950,8.642614278
1.7000,8.695731422
1.7050,8.749209004
1.7100,8.802866075
1.7150,8.856646343
1.7200,8.910426394
1.7250,8.9640612
1.7300,9.017493428
1.7350,9.070675356
1.7400,9.123516844
1.7450,9.17627164
1.7500,9.228746171
1.7550,9.281075538
1.7600,9.333234646
1.7650,9.385222329
1.7700,9.436952731
1.7750,9.488366619
1.7800,9.539584667
1.7850,9.590608628
1.7900,9.641246203
1.7950,9.691591344
1.8000,9.741665925
1.8050,9.791420414
1.8100,9.840781054
1.8150,9.889890144
1.8200,9.938854672
1.8250,9.987485293
1.8300,10.03600127
1.8350,10.08429417
1.8400,10.1320964
1.8450,10.17979851
1.8500,10.22719068
1.8550,10.27436152
1.8600,10.32112732
1.8650,10.36768527
1.8700,10.41396024
1.8750,10.45999708
1.8800,10.50558183
1.8850,10.5510842
1.8900,10.59632882
1.8950,10.64142251
1.9000,10.68646324
1.9050,10.7315755
1.9100,10.77681334
1.9150,10.82230212
1.9200,10.86794932
1.9250,10.91388457
1.9300,10.96026454
1.9350,11.00687737
1.9400,11.05377469
1.9450,11.10124218
1.9500,11.14932258
1.9550,11.19797792
1.9600,11.24737699
1.9650,11.29766711
1.9700,11.34873873
1.9750,11.40057487
1.9800,11.45314854
1.9850,11.50631435
1.9900,11.56010125
1.9950,11.6142668
2.0000,11.66893809
2.0050,11.72383024
2.0100,11.77913818
2.0150,11.8347689
2.0200,11.89082191
2.0250,11.94736535
2.0300,12.00429379
2.0350,12.06165595
2.0400,12.11931861
2.0450,12.17717715
2.0500,12.23534406
2.0550,12.29380953
2.0600,12.3525253
2.0650,12.41146515
2.0700,12.47065698
2.0750,12.53019935
2.0800,12.58994494
2.0850,12.65002025
2.0900,12.71055891
2.0950,12.77156771
2.1000,12.83309973
2.1050,12.8949956
2.1100,12.95716134
2.1150,13.01956927
2.1200,13.08200307
2.1250,13.14449664
2.1300,13.20688164
2.1350,13.26918748
2.1400,13.33127384
2.1450,13.39312146
2.1500,13.45469298
2.1550,13.51602888
2.1600,13.57712859
2.1650,13.63780002
2.1700,13.69815915
2.1750,13.75808666
2.1800,13.81773093
2.1850,13.87699168
2.1900,13.9360454
2.1950,13.99488115
2.2000,14.0535838
2.2050,14.1120065
2.2100,14.17026982
2.2150,14.22814957
2.2200,14.28578545
2.2250,14.34314015
2.2300,14.4002381
2.2350,14.45716699
2.2400,14.51406533
2.2450,14.57076364
2.2500,14.62727401
2.2550,14.68372737
2.2600,14.73996563
2.2650,14.79591017
2.2700,14.8516953
2.2750,14.90731153
2.2800,14.96284634
2.2850,15.01828458
2.2900,15.07384757
2.2950,15.12966496
2.3000,15.185578
2.3050,15.24170459
2.3100,15.29800321
2.3150,15.35456747
2.3200,15.41133587
2.3250,15.46838761
2.3300,15.52566875
2.3350,15.58304817
2.3400,15.6407758
2.3450,15.69877997
2.3500,15.75696498
2.3550,15.81539808
2.3600,15.8740094
2.3650,15.93286892
2.3700,15.99175716
2.3750,16.05074545
2.3800,16.10979673
2.3850,16.16894386
2.3900,16.22813478
2.3950,16.28718783
2.4000,16.34622153
2.4050,16.40529218
2.4100,16.46457401
2.4150,16.52387006
2.4200,16.58333361
2.4250,16.64286048
2.4300,16.70249802
2.4350,16.76220782
2.4400,16.82232196
2.4450,16.8825809
2.4500,16.9431191
2.4550,17.00378285
2.4600,17.06465767
2.4650,17.12581521
2.4700,17.1871376
2.4750,17.24862524
2.4800,17.3102757
2.4850,17.37201061
2.4900,17.43376974
2.4950,17.49559492
2.5000,17.55747283
2.5050,17.61952588
2.5100,17.68172143
2.5150,17.74416539
2.5200,17.80690987
2.5250,17.8700364
2.5300,17.93354589
2.5350,17.99757551
2.5400,18.06200898
2.5450,18.1268794
2.5500,18.19228075
2.5550,18.25812702
2.5600,18.32421002
2.5650,18.39058059
2.5700,18.45721312
2.5750,18.52405645
2.5800,18.59110695
2.5850,18.65826569
2.5900,18.72548279
2.5950,18.79268854
2.6000,18.85969294
2.6050,18.92676336
2.6100,18.99365069
2.6150,19.06028156
2.6200,19.12689554
2.6250,19.19343677
2.6300,19.25990292
2.6350,19.32651752
2.6400,19.39291534
2.6450,19.45912418
2.6500,19.52514699
2.6550,19.59098057
2.6600,19.65674346
2.6650,19.72242098
2.6700,19.78808338
2.6750,19.85364069
2.6800,19.91904741
2.6850,19.98424189
2.6900,20.04904926
2.6950,20.11364092
2.7000,20.17780144
2.7050,20.24156487
2.7100,20.30484302
2.7150,20.36771396
2.7200,20.4300259
2.7250,20.4917619
2.7300,20.55297294
2.7350,20.61357329
2.7400,20.67331299
2.7450,20.73227038
2.7500,20.79031509
2.7550,20.84776776
2.7600,20.90466774
2.7650,20.96103561
2.7700,21.01689753
2.7750,21.0722672
2.7800,21.12710581
2.7850,21.18176126
2.7900,21.23598197
2.7950,21.28999664
2.8000,21.34375641
2.8050,21.39731143
2.8100,21.45075163
2.8150,21.50407268
2.8200,21.55723981
2.8250,21.61023477
2.8300,21.66319648
2.8350,21.71600111
2.8400,21.76868764
2.8450,21.82130347
2.8500,21.8736567
2.8550,21.92577386
2.8600,21.97785882
2.8650,22.02974366
2.8700,22.08158654
2.8750,22.13345728
2.8800,22.18521442
2.8850,22.23699764
2.8900,22.28869295
2.8950,22.34035204
2.9000,22.39218517
2.9050,22.44400638
2.9100,22.4960907
2.9150,22.54842138
2.9200,22.60082523
2.9250,22.65339897
2.9300,22.70606448
2.9350,22.75891751
2.9400,22.81211709
2.9450,22.86576497
2.9500,22.9198712
2.9550,22.97428018
2.9600,23.02915323
2.9650,23.08428995
2.9700,23.13978291
2.9750,23.19555707
2.9800,23.25152422
2.9850,23.30771272
2.9900,23.36416026
2.9950,23.42084108
3.0000,23.47741019
3.0050,23.53386797
3.0100,23.59014669
3.0150,23.64637819
3.0200,23.70248183
3.0250,23.75845444
3.0300,23.81419609
3.0350,23.86967456
3.0400,23.92504985
3.0450,23.98019139
3.0500,24.03521362
3.0550,24.08977741
3.0600,24.1440832
3.0650,24.19798064
3.0700,24.25162348
3.0750,24.30507296
3.0800,24.35836201
3.0850,24.41131103
3.0900,24.46403907
3.0950,24.51631456
3.1000,24.56824453
3.1050,24.61979145
3.1100,24.6709452
3.1150,24.72161762
3.1200,24.77187622
3.1250,24.82168576
3.1300,24.87084741
3.1350,24.91943894
3.1400,24.96740388
3.1450,25.01469741
3.1500,25.06149452
3.1550,25.10760863
3.1600,25.15303931
3.1650,25.19777744
3.1700,25.24170766
3.1750,25.28479516
3.1800,25.32701225
3.1850,25.3683828
3.1900,25.40879793
3.1950,25.44831249
3.2000,25.4869332
3.2050,25.5246512
3.2100,25.56131523
3.2150,25.59675705
3.2200,25.63116194
3.2250,25.6646255
3.2300,25.69719567
3.2350,25.72891162
3.2400,25.75981407
3.2450,25.78982817
3.2500,25.81924945
3.2550,25.84817964
3.2600,25.87635631
3.2650,25.9041209
3.2700,25.93148362
3.2750,25.95867276
3.2800,25.98591913
3.2850,26.01285706
3.2900,26.03968915
3.2950,26.06634817
3.3000,26.09313641
3.3050,26.11998101
3.3100,26.1468832
3.3150,26.17372065
3.3200,26.20035969
3.3250,26.22702649
3.3300,26.25339948
3.3350,26.27962226
3.3400,26.30558406
3.3450,26.33124399
3.3500,26.3565977
3.3550,26.38177968
3.3600,26.40649973
3.3650,26.43101373
3.3700,26.45518753
3.3750,26.47913266
3.3800,26.50270325
3.3850,26.52589312
3.3900,26.54887395
3.3950,26.57189707
3.4000,26.59485941
3.4050,26.61788042
3.4100,26.64080455
3.4150,26.66386145
3.4200,26.68685816
3.4250,26.70981479
3.4300,26.73278623
3.4350,26.75579224
3.4400,26.77870123
3.4450,26.8015144
3.4500,26.82413337
3.4550,26.84668391
3.4600,26.86904106
3.4650,26.89130637
3.4700,26.91340131
3.4750,26.93548309
3.4800,26.95736895
3.4850,26.97922583
3.4900,27.00099432
3.4950,27.0228298
3.5000,27.04465843
3.5050,27.06655577
3.5100,27.08866797
3.5150,27.11113834
3.5200,27.13400402
3.5250,27.15706261
3.5300,27.1803552
3.5350,27.20389758
3.5400,27.2278165
3.5450,27.25200236
3.5500,27.27621995
3.5550,27.30054262
3.5600,27.32490149
3.5650,27.34939129
3.5700,27.37388138
3.5750,27.39823628
3.5800,27.4223395
3.5850,27.44641067
3.5900,27.47023725
3.5950,27.49394226
3.6000,27.51745907
3.6050,27.54069314
3.6100,27.56363969
3.6150,27.58629778
3.6200,27.60882066
3.6250,27.63106248
3.6300,27.65321649
3.6350,27.67525088
3.6400,27.69712082
3.6450,27.71895096
3.6500,27.74074121
3.6550,27.76237884
3.6600,27.78394587
3.6650,27.80532702
3.6700,27.82672558
3.6750,27.848192
3.6800,27.86991815
3.6850,27.89203797
3.6900,27.91450693
3.6950,27.93730662
3.7000,27.9604291
3.7050,27.98398622
3.7100,28.00823196
3.7150,28.03312345
3.7200,28.05894958
3.7250,28.08583663
3.7300,28.1138686
3.7350,28.14299977
3.7400,28.17335207
3.7450,28.20489906
3.7500,28.23756183
3.7550,28.27145177
3.7600,28.30668467
3.7650,28.34324998
3.7700,28.38120302
3.7750,28.42010706
3.7800,28.46020751
3.7850,28.5011168
3.7900,28.54305103
3.7950,28.58563694
3.8000,28.6290228
3.8050,28.6729061
3.8100,28.71716263
3.8150,28.76183433
3.8200,28.80658862
3.8250,28.85143806
3.8300,28.89631766
3.8350,28.94109471
3.8400,28.98551593
3.8450,29.02943748
3.8500,29.07271047
3.8550,29.11535377
3.8600,29.15721068
3.8650,29.19803096
3.8700,29.2378576
3.8750,29.27655929
3.8800,29.31406174
3.8850,29.3502827
3.8900,29.38512397
3.8950,29.41829958
3.9000,29.44969315
3.9050,29.47918601
3.9100,29.50669964
3.9150,29.53204065
3.9200,29.55541837
3.9250,29.57662169
3.9300,29.59566065
3.9350,29.61228179
3.9400,29.62660448
3.9450,29.63862343
3.9500,29.64819237
3.9550,29.65558471
3.9600,29.66075536
3.9650,29.66380622
3.9700,29.66470985
3.9750,29.66351736
3.9800,29.66029386
3.9850,29.65494885
3.9900,29.64785796
3.9950,29.63905502
4.0000,29.6289098
4.0050,29.61724117
4.0100,29.60422342
4.0150,29.59012166
4.0200,29.57488013
4.0250,29.55869433
4.0300,29.54174705
4.0350,29.52413983
4.0400,29.50594084
4.0450,29.48734672
4.0500,29.46847378
4.0550,29.44934907
4.0600,29.42975234
4.0650,29.40980795
4.0700,29.38939185
4.0750,29.36896441
4.0800,29.34828135
4.0850,29.32772485
4.0900,29.30721798
4.0950,29.28686247
4.1000,29.26668284
4.1050,29.24669331
4.1100,29.22697223
4.1150,29.20747681
4.1200,29.18831824
4.1250,29.16945061
4.1300,29.15097225
4.1350,29.13285104
4.1400,29.11515464
4.1450,29.09803156
4.1500,29.08169893
4.1550,29.06589381
4.1600,29.05071125
4.1650,29.03625017
4.1700,29.02238931
4.1750,29.00908057
4.1800,28.99615883
4.1850,28.98366712
4.1900,28.9714349
4.1950,28.95943965
4.2000,28.94759902
4.2050,28.93604471
4.2100,28.9246557
4.2150,28.91340974
4.2200,28.90201421
4.2250,28.89030756
4.2300,28.87829563
4.2350,28.8660548
4.2400,28.85345664
4.2450,28.84031033
4.2500,28.82672382
4.2550,28.81242651
4.2600,28.79751454
4.2650,28.78200659
4.2700,28.76587827
4.2750,28.74889233
4.2800,28.73109459
4.2850,28.71249694
4.2900,28.69290772
4.2950,28.6722828
4.3000,28.65050187
4.3050,28.62770003
4.3100,28.60377893
4.3150,28.57839648
4.3200,28.55181708
4.3250,28.52385185
4.3300,28.49452735
4.3350,28.46399959
4.3400,28.43240586
4.3450,28.39972746
4.3500,28.36597994
4.3550,28.33125792
4.3600,28.2959696
4.3650,28.26018652
4.3700,28.2240027
4.3750,28.18743313
4.3800,28.15064186
4.3850,28.11354491
4.3900,28.0762722
4.3950,28.03894774
4.4000,28.00150265
4.4050,27.96404927
4.4100,27.92670911
4.4150,27.88940209
4.4200,27.8521841
4.4250,27.81508741
4.4300,27.77813027
4.4350,27.74110673
4.4400,27.70415845
4.4450,27.66722886
4.4500,27.63029586
4.4550,27.59348511
4.4600,27.55694925
4.4650,27.52049905
4.4700,27.48401693
4.4750,27.44749434
4.4800,27.41109799
4.4850,27.37476626
4.4900,27.33862567
4.4950,27.30266938
4.5000,27.26680941
4.5050,27.23108373
4.5100,27.19525806
4.5150,27.15935082
4.5200,27.12330996
4.5250,27.08729748
4.5300,27.05106957
4.5350,27.01473975
4.5400,26.97834331
4.5450,26.94206577
4.5500,26.90590093
4.5550,26.86981462
4.5600,26.83387332
4.5650,26.79802219
4.5700,26.76235395
4.5750,26.72709167
4.5800,26.69203946
4.5850,26.65725196
4.5900,26.6228867
4.5950,26.58882706
4.6000,26.55508372
4.6050,26.52160968
4.6100,26.48862291
4.6150,26.45607585
4.6200,26.42388255
4.6250,26.39208602
4.6300,26.36057159
4.6350,26.32926403
4.6400,26.29792431
4.6450,26.26658764
4.6500,26.23537817
4.6550,26.20428178
4.6600,26.17321514
4.6650,26.14212644
4.6700,26.11118129
4.6750,26.0801366
4.6800,26.04902769
4.6850,26.01792768
4.6900,25.9866864
4.6950,25.95537292
4.7000,25.92397228
4.7050,25.89248009
4.7100,25.86079654
4.7150,25.82900729
4.7200,25.79706011
4.7250,25.76497196
4.7300,25.73259508
4.7350,25.70021792
4.7400,25.66776118
4.7450,25.63534066
4.7500,25.60295175
4.7550,25.57043225
4.7600,25.537783
4.7650,25.5048973
4.7700,25.47215063
4.7750,25.4393814
4.7800,25.40674242
4.7850,25.37403761
4.7900,25.34131437
4.7950,25.30867622
4.8000,25.27617431
4.8050,25.24376012
4.8100,25.21151984
4.8150,25.1792647
4.8200,25.14694079
4.8250,25.11449221
4.8300,25.08198302
4.8350,25.04930055
4.8400,25.01662158
4.8450,24.98401756
4.8500,24.9515723
4.8550,24.91943846
4.8600,24.88745252
4.8650,24.85576933
4.8700,24.82429519
4.8750,24.79303038
4.8800,24.76211508
4.8850,24.73164129
4.8900,24.70121466
4.8950,24.67118494
4.9000,24.6413557
4.9050,24.61179219
4.9100,24.58209923
4.9150,24.55253446
4.9200,24.5229458
4.9250,24.49334911
4.9300,24.46362778
4.9350,24.43366215
4.9400,24.40362277
4.9450,24.37332937
4.9500,24.34280658
4.9550,24.31183186
4.9600,24.28023038
4.9650,24.24787153
4.9700,24.21454546
4.9750,24.18043972
4.9800,24.14569538
4.9850,24.11032945
4.9900,24.07437301
4.9950,24.0377386
5.0000,24.00034383
5.0050,23.96233959
5.0100,23.92341047
5.0150,23.88362084
5.0200,23.84292364
5.0250,23.8013558
5.0300,23.75897372
5.0350,23.71580794
5.0400,23.67185113
5.0450,23.62706342
5.0500,23.58120791
5.0550,23.53429382
5.0600,23.48628901
5.0650,23.43744507
5.0700,23.38759537
5.0750,23.33691417
5.0800,23.28516423
5.0850,23.23236027
5.0900,23.17866574
5.0950,23.12385
5.1000,23.06831056
5.1050,23.01194656
5.1100,22.95502139
5.1150,22.89777557
5.1200,22.84022319
5.1250,22.78246441
5.1300,22.72438876
5.1350,22.66596894
5.1400,22.60721287
5.1450,22.54803826
5.1500,22.48823995
5.1550,22.42789304
5.1600,22.36720461
5.1650,22.30604251
5.1700,22.24446374
5.1750,22.18234292
5.1800,22.11983879
5.1850,22.05698293
5.1900,21.99399905
5.1950,21.93068841
5.2000,21.86714266
5.2050,21.80326389
5.2100,21.73931976
5.2150,21.67514061
5.2200,21.61074162
5.2250,21.54601807
5.2300,21.48107725
5.2350,21.41583085
5.2400,21.35008612
5.2450,21.28390277
5.2500,21.21717744
5.2550,21.14988707
5.2600,21.08222383
5.2650,21.01406407
5.2700,20.94540092
5.2750,20.87605382
5.2800,20.80589087
5.2850,20.7347528
5.2900,20.66243916
5.2950,20.58910965
5.3000,20.51470528
5.3050,20.43899429
5.3100,20.36228409
5.3150,20.28428555
5.3200,20.20494181
5.3250,20.12418851
5.3300,20.04182004
5.3350,19.95779705
5.3400,19.87205334
5.3450,19.78468412
5.3500,19.69593293
5.3550,19.60618589
5.3600,19.51548294
5.3650,19.42402272
5.3700,19.33186829
5.3750,19.23926567
5.3800,19.14648353
5.3850,19.05387995
5.3900,18.96164285
5.3950,18.8699073
5.4000,18.77868556
5.4050,18.68826182
5.4100,18.59863751
5.4150,18.50993359
5.4200,18.42246199
5.4250,18.33650621
5.4300,18.25237711
5.4350,18.17034144
5.4400,18.09046888
5.4450,18.01284252
5.4500,17.93766374
5.4550,17.86504402
5.4600,17.79500566
5.4650,17.72750039
5.4700,17.66255072
5.4750,17.60013427
5.4800,17.54012884
5.4850,17.48240422
5.4900,17.42684039
5.4950,17.37329806
5.5000,17.32167777
5.5050,17.27203315
5.5100,17.22412211
5.5150,17.17784462
5.5200,17.13317816
5.5250,17.08999067
5.5300,17.04808432
5.5350,17.00746391
5.5400,16.9681504
5.5450,16.92991284
5.5500,16.89250766
5.5550,16.8558794
5.5600,16.81950785
5.5650,16.78351146
5.5700,16.74785323
5.5750,16.71246274
5.5800,16.67712945
5.5850,16.64185029
5.5900,16.60656146
5.5950,16.57095033
5.6000,16.53501367
5.6050,16.49852239
5.6100,16.4613583
5.6150,16.42348687
5.6200,16.38478079
5.6250,16.34504664
5.6300,16.30436331
5.6350,16.26244351
5.6400,16.21951742
5.6450,16.17553789
5.6500,16.13034336
5.6550,16.08393994
5.6600,16.03630259
5.6650,15.98737505
5.6700,15.93728973
5.6750,15.88613384
5.6800,15.83388535
5.6850,15.78078998
5.6900,15.7267641
5.6950,15.67222402
5.7000,15.61726869
5.7050,15.56195429
5.7100,15.50664232
5.7150,15.45140982
5.7200,15.39644744
5.7250,15.3418296
5.7300,15.2878658
5.7350,15.23464426
5.7400,15.18226591
5.7450,15.1307161
5.7500,15.0803112
5.7550,15.03099627
5.7600,14.98283941
5.7650,14.93613693
5.7700,14.89082771
5.7750,14.8471348
5.7800,14.80504236
5.7850,14.76450988
5.7900,14.72571471
5.7950,14.68868628
5.8000,14.65338914
5.8050,14.61976584
5.8100,14.58795946
5.8150,14.55794643
5.8200,14.52950881
5.8250,14.50280137
5.8300,14.4776222
5.8350,14.45397714
5.8400,14.43153286
5.8450,14.4102662
5.8500,14.39005489
5.8550,14.37072549
5.8600,14.35243009
5.8650,14.33476799
5.8700,14.31743086
5.8750,14.30042883
5.8800,14.28350278
5.8850,14.2664875
5.8900,14.24935672
5.8950,14.23189438
5.9000,14.21402213
5.9050,14.19583889
5.9100,14.17709042
5.9150,14.15785899
5.9200,14.13796596
5.9250,14.11731628
5.9300,14.09591398
5.9350,14.07372223
5.9400,14.05052204
5.9450,14.02615596
5.9500,14.00089072
5.9550,13.97462305
5.9600,13.94755789
5.9650,13.91976345
5.9700,13.89118864
5.9750,13.86190615
5.9800,13.83212087
5.9850,13.8017888
5.9900,13.77106147
5.9950,13.73984769
6.0000,13.70827746
6.0050,13.67663632
6.0100,13.64473885
6.0150,13.61288256
6.0200,13.58119053
6.0250,13.54985107
6.0300,13.51874657
6.0350,13.48797765
6.0400,13.45765563
6.0450,13.42808261
6.0500,13.39897805
6.0550,13.37070162
6.0600,13.34315449
6.0650,13.31633894
6.0700,13.29024957
6.0750,13.26495621
6.0800,13.24062142
6.0850,13.21739195
6.0900,13.19512823
6.0950,13.1739
6.1000,13.15392386
6.1050,13.13516434
6.1100,13.11742746
6.1150,13.10094905
6.1200,13.0855353
6.1250,13.07098475
6.1300,13.05744
6.1350,13.04485209
6.1400,13.03319723
6.1450,13.02248691
6.1500,13.01261988
6.1550,13.00354898
6.1600,12.99509011
6.1650,12.98708484
6.1700,12.97968337
6.1750,12.97250893
6.1800,12.96567939
6.1850,12.95902057
6.1900,12.95261725
6.1950,12.9464025
6.2000,12.94041811
6.2050,12.93448105
6.2100,12.92872414
6.2150,12.92297523
6.2200,12.91731699
6.2250,12.91185229
6.2300,12.90643165
6.2350,12.90110003
6.2400,12.89570999
6.2450,12.89049574
6.2500,12.88536112
6.2550,12.88031689
6.2600,12.87519062
6.2650,12.87000659
6.2700,12.86482668
6.2750,12.85939881
6.2800,12.85366422
6.2850,12.84763107
6.2900,12.84119238
6.2950,12.83431801
6.3000,12.82692515
6.3050,12.81891249
6.3100,12.81051508
6.3150,12.80148981
6.3200,12.79190682
6.3250,12.78171692
6.3300,12.77103248
6.3350,12.75986848
6.3400,12.74823835
6.3450,12.73620839
6.3500,12.72382061
6.3550,12.71070483
6.3600,12.69701203
6.3650,12.68259273
6.3700,12.66766515
6.3750,12.65189098
6.3800,12.6351873
6.3850,12.61751691
6.3900,12.59898689
6.3950,12.57942393
6.4000,12.55882222
6.4050,12.53718926
6.4100,12.51448289
6.4150,12.49060763
6.4200,12.46576401
6.4250,12.43988709
6.4300,12.41298489
6.4350,12.38496462
6.4400,12.35593089
6.4450,12.32579565
6.4500,12.29456408
6.4550,12.26226416
6.4600,12.22893702
6.4650,12.19476752
6.4700,12.15958205
6.4750,12.12361131
6.4800,12.08682614
6.4850,12.04924444
6.4900,12.01059324
6.4950,11.97101288
6.5000,11.93041914
6.5050,11.88890061
6.5100,11.8462531
6.5150,11.8025471
6.5200,11.75779032
6.5250,11.71196212
6.5300,11.66531901
6.5350,11.61783836
6.5400,11.56966851
6.5450,11.52069752
6.5500,11.47088809
6.5550,11.42036968
6.5600,11.36908711
6.5650,11.31702265
6.5700,11.26412581
6.5750,11.21034006
6.5800,11.15578974
6.5850,11.10039834
6.5900,11.04422655
6.5950,10.9874247
6.6000,10.92995257
6.6050,10.87183465
6.6100,10.81307078
6.6150,10.75389515
6.6200,10.69433561
6.6250,10.63451408
6.6300,10.57450703
6.6350,10.51438714
6.6400,10.45428505
6.6450,10.39408862
6.6500,10.33399038
6.6550,10.27409931
6.6600,10.21444427
6.6650,10.15513373
6.6700,10.09610892
6.6750,10.03767963
6.6800,9.97975659
6.6850,9.922389683
6.6900,9.8656191
6.6950,9.809639005
6.7000,9.75443774
6.7050,9.700062554
6.7100,9.646842459
6.7150,9.594586341
6.7200,9.54329593
6.7250,9.493368417
6.7300,9.444644625
6.7350,9.39728685
6.7400,9.351142239
6.7450,9.306360715
6.7500,9.263085703
6.7550,9.221188159
6.7600,9.180709733
6.7650,9.141604129
6.7700,9.103998121
6.7750,9.067750598
6.7800,9.032787942
6.7850,8.999067201
6.7900,8.966559935
6.7950,8.935103351
6.8000,8.904609537
6.8050,8.875003442
6.8100,8.846225699
6.8150,8.818003507
6.8200,8.790496177
6.8250,8.763398701
6.8300,8.736625526
6.8350,8.709961176
6.8400,8.683250649
6.8450,8.656416148
6.8500,8.629319381
6.8550,8.601449548
6.8600,8.57287764
6.8650,8.543298463
6.8700,8.512525986
6.8750,8.480618132
6.8800,8.447205617
6.8850,8.412283197
6.8900,8.375772494
6.8950,8.337601599
6.9000,8.297528917
6.9050,8.255795704
6.9100,8.212309208
6.9150,8.167171395
6.9200,8.120289174
6.9250,8.071710588
6.9300,8.021677978
6.9350,7.970331493
6.9400,7.917686756
6.9450,7.863867628
6.9500,7.809078395
6.9550,7.753455901
6.9600,7.697045486
6.9650,7.639969921
6.9700,7.582325881
6.9750,7.524100866
6.9800,7.46546271
6.9850,7.406418771
6.9900,7.346895139
6.9950,7.287045722
7.0000,7.226781156
7.0050,7.1661643
7.0100,7.105198256
7.0150,7.044118481
7.0200,6.983009134
7.0250,6.921734725
7.0300,6.860753782
7.0350,6.800080699
7.0400,6.74009833
7.0450,6.680835685
7.0500,6.622430053
7.0550,6.565156716
7.0600,6.509196029
7.0650,6.454737476
7.0700,6.401865523
7.0750,6.350671421
7.0800,6.301210299
7.0850,6.253454788
7.0900,6.207515569
7.0950,6.163354886
7.1000,6.120947367
7.1050,6.080190065
7.1100,6.04091662
7.1150,6.003299414
7.1200,5.966958671
7.1250,5.931835368
7.1300,5.897781174
7.1350,5.864929958
7.1400,5.833125395
7.1450,5.802224824
7.1500,5.772372364
7.1550,5.743575571
7.1600,5.715737061
7.1650,5.68890226
7.1700,5.663217179
7.1750,5.638703342
7.1800,5.615188762
7.1850,5.592828744
7.1900,5.571434295
7.1950,5.550907019
7.2000,5.531452677
7.2050,5.512779594
7.2100,5.494930746
7.2150,5.477856625
7.2200,5.461475394
7.2250,5.445746
7.2300,5.430570775
7.2350,5.415752033
7.2400,5.401231704
7.2450,5.386957829
7.2500,5.372768949
7.2550,5.358690733
7.2600,5.344655087
7.2650,5.330378939
7.2700,5.315952208
7.2750,5.301118588
7.2800,5.285916085
7.2850,5.270354256
7.2900,5.254640968
7.2950,5.238679684
7.3000,5.222485572
7.3050,5.206144698
7.3100,5.189600151
7.3150,5.172902897
7.3200,5.156222509
7.3250,5.139562743
7.3300,5.122973561
7.3350,5.10644824
7.3400,5.090103762
7.3450,5.073844333
7.3500,5.05789949
7.3550,5.042312316
7.3600,5.027154027
7.3650,5.012325342
7.3700,4.997985586
7.3750,4.984098281
7.3800,4.970696285
7.3850,4.958010112
7.3900,4.945930331
7.3950,4.934611813
7.4000,4.924001562
7.4050,4.914161981
7.4100,4.905126121
7.4150,4.896961141
7.4200,4.889807494
7.4250,4.883959614
7.4300,4.879171209
7.4350,4.875538684
7.4400,4.873229825
7.4450,4.872281493
7.4500,4.872468652
7.4550,4.873947659
7.4600,4.876876912
7.4650,4.881011838
7.4700,4.886470255
7.4750,4.892990444
7.4800,4.900766905
7.4850,4.90946279
7.4900,4.919152772
7.4950,4.929747823
7.5000,4.941321816
7.5050,4.953679551
7.5100,4.966938342
7.5150,4.980924155
7.5200,4.995619512
7.5250,5.010991729
7.5300,5.02689869
7.5350,5.043407267
7.5400,5.060451777
7.5450,5.077902874
7.5500,5.095780604
7.5550,5.113841911
7.5600,5.132169864
7.5650,5.150845147
7.5700,5.169572022
7.5750,5.1885558
7.5800,5.20750552
7.5850,5.226421603
7.5900,5.245112157
7.5950,5.263563003
7.6000,5.281879482
7.6050,5.299963663
7.6100,5.317848232
7.6150,5.335428459
7.6200,5.352726191
7.6250,5.369896771
7.6300,5.38660511
7.6350,5.403134005
7.6400,5.419324856
7.6450,5.435493921
7.6500,5.451331766
7.6550,5.466955485
7.6600,5.482366532
7.6650,5.497728034
7.6700,5.512690811
7.6750,5.52763524
7.6800,5.542475287
7.6850,5.557161877
7.6900,5.571732235
7.6950,5.586132913
7.7000,5.600352559
7.7050,5.614343906
7.7100,5.628393808
7.7150,5.642368957
7.7200,5.656294916
7.7250,5.670235692
7.7300,5.684247857
7.7350,5.698368944
7.7400,5.712543661
7.7450,5.726861674
7.7500,5.741381054
7.7550,5.756248086
7.7600,5.771152978
7.7650,5.78637503
7.7700,5.801803008
7.7750,5.817479414
7.7800,5.833441498
7.7850,5.849695441
7.7900,5.866301526
7.7950,5.883320473
7.8000,5.900538636
7.8050,5.918100921
7.8100,5.935750723
7.8150,5.953652404
7.8200,5.971821793
7.8250,5.98996791
7.8300,6.008390467
7.8350,6.026860385
7.8400,6.045406334
7.8450,6.064194838
7.8500,6.083166578
7.8550,6.102456043
7.8600,6.121918826
7.8650,6.141709055
7.8700,6.161973535
7.8750,6.18262725
7.8800,6.203857972
7.8850,6.225594133
7.8900,6.2478086
7.8950,6.270598036
7.9000,6.29387953
7.9050,6.317747632
7.9100,6.342037968
7.9150,6.367096988
7.9200,6.392612815
7.9250,6.418678774
7.9300,6.445365135
7.9350,6.472421775
7.9400,6.499985205
7.9450,6.527844634
7.9500,6.556171777
7.9550,6.584761452
7.9600,6.613618307
7.9650,6.642551848
7.9700,6.671693417
7.9750,6.700631225
7.9800,6.729423548
7.9850,6.757992427
7.9900,6.786194006
7.9950,6.813949573
8.0000,6.841224002
8.0050,6.868080277
8.0100,6.894360696
8.0150,6.920021667
8.0200,6.945049716
8.0250,6.96922098
8.0300,6.992587053
8.0350,7.015224352
8.0400,7.037077407
8.0450,7.058115231
8.0500,7.078369987
8.0550,7.097773312
8.0600,7.116487008
8.0650,7.13454494
8.0700,7.151892409
8.0750,7.168691955
8.0800,7.185050618
8.0850,7.200931067
8.0900,7.21633537
8.0950,7.231251596
8.1000,7.245686325
8.1050,7.259571761
8.1100,7.273003184
8.1150,7.285968348
8.1200,7.298485933
8.1250,7.310723265
8.1300,7.322553013
8.1350,7.33414011
8.1400,7.345648301
8.1450,7.357015583
8.1500,7.36820182
8.1550,7.379368579
8.1600,7.39053025
8.1650,7.401524954
8.1700,7.412333989
8.1750,7.42310151
8.1800,7.433725658
8.1850,7.444297223
8.1900,7.454908692
8.1950,7.465400541
8.2000,7.475939265
8.2050,7.486345284
8.2100,7.49684423
8.2150,7.507196027
8.2200,7.517712113
8.2250,7.52818964
8.2300,7.538710192
8.2350,7.549332302
8.2400,7.55996018
8.2450,7.570578925
8.2500,7.581154025
8.2550,7.591775893
8.2600,7.602305297
8.2650,7.613086164
8.2700,7.623972162
8.2750,7.635179927
8.2800,7.646495662
8.2850,7.658044755
8.2900,7.669911874
8.2950,7.682091872
8.3000,7.694463792
8.3050,7.707143157
8.3100,7.720013855
8.3150,7.733181428
8.3200,7.746565703
8.3250,7.76033586
8.3300,7.774607996
8.3350,7.789221481
8.3400,7.804524902
8.3450,7.820548843
8.3500,7.837334118
8.3550,7.854967532
8.3600,7.873482527
8.3650,7.892887879
8.3700,7.913251559
8.3750,7.934496088
8.3800,7.956597427
8.3850,7.979555775
8.3900,8.003503884
8.3950,8.028328869
8.4000,8.054317243
8.4050,8.081614219
8.4100,8.110324596
8.4150,8.140315935
8.4200,8.171796391
8.4250,8.204725073
8.4300,8.239053113
8.4350,8.27493282
8.4400,8.312151109
8.4450,8.350823701
8.4500,8.390965779
8.4550,8.432315525
8.4600,8.475106118
8.4650,8.519226164
8.4700,8.564860382
8.4750,8.611715108
8.4800,8.659965872
8.4850,8.709519248
8.4900,8.760188658
8.4950,8.811765289
8.5000,8.864312464
8.5050,8.917714444
8.5100,8.971808168
8.5150,9.02647795
8.5200,9.081548289
8.5250,9.13695221
8.5300,9.192596318
8.5350,9.248646704
8.5400,9.305019816
8.5450,9.3617895
8.5500,9.418918765
8.5550,9.476382881
8.5600,9.534181617
8.5650,9.592155192
8.5700,9.650305666
8.5750,9.708770884
8.5800,9.767539942
8.5850,9.8264784
8.5900,9.885665036
8.5950,9.945069232
8.6000,10.00478732
8.6050,10.06477913
8.6100,10.12523076
8.6150,10.18617082
8.6200,10.24772157
8.6250,10.30972763
8.6300,10.37236195
8.6350,10.43567433
8.6400,10.49951599
8.6450,10.56402338
8.6500,10.62908607
8.6550,10.69469454
8.6600,10.76100127
8.6650,10.82789878
8.6700,10.89544675
8.6750,10.96368595
8.6800,11.03280679
8.6850,11.10297984
8.6900,11.17418854
8.6950,11.24653728
8.7000,11.32012358
8.7050,11.39485834
8.7100,11.47079017
8.7150,11.54802031
8.7200,11.62638212
8.7250,11.70612807
8.7300,11.78727856
8.7350,11.86966594
8.7400,11.95354802
8.7450,12.03886682
8.7500,12.12572918
8.7550,12.21422655
8.7600,12.30409082
8.7650,12.39522995
8.7700,12.48735043
8.7750,12.58044545
8.7800,12.67417719
8.7850,12.76832348
8.7900,12.86288364
8.7950,12.95797143
8.8000,13.05312773
8.8050,13.14842674
8.8100,13.24370706
8.8150,13.33879948
8.8200,13.433722
8.8250,13.52819143
8.8300,13.622132
8.8350,13.71532552
8.8400,13.80781379
8.8450,13.89933073
8.8500,13.98978243
8.8550,14.07898133
8.8600,14.16677278
8.8650,14.25313422
8.8700,14.33807402
8.8750,14.42115612
8.8800,14.50252561
8.8850,14.58202014
8.8900,14.65950599
8.8950,14.73495381
8.9000,14.80827165
8.9050,14.87942916
8.9100,14.94837524
8.9150,15.01517823
8.9200,15.07982251
8.9250,15.14253607
8.9300,15.20339406
8.9350,15.26255538
8.9400,15.32038644
8.9450,15.37693887
8.9500,15.43242799
8.9550,15.48715536
8.9600,15.54118583
8.9650,15.59501237
8.9700,15.64867641
8.9750,15.70241059
8.9800,15.7563122
8.9850,15.81068594
8.9900,15.86538409
8.9950,15.92065043
9.0000,15.97629688
9.0050,16.03263563
9.0100,16.08977488
9.0150,16.14767147
9.0200,16.20643819
9.0250,16.26599138
9.0300,16.32630736
9.0350,16.38760779
9.0400,16.4495163
9.0450,16.51220537
9.0500,16.5756724
9.0550,16.63989602
9.0600,16.70470767
9.0650,16.77039644
9.0700,16.83685384
9.0750,16.90408694
9.0800,16.97210238
9.0850,17.04089651
9.0900,17.11034625
9.0950,17.18033411
9.1000,17.25097474
9.1050,17.32231341
9.1100,17.39444638
9.1150,17.46715409
9.1200,17.54033426
9.1250,17.61407193
9.1300,17.68822653
9.1350,17.762737
9.1400,17.83737781
9.1450,17.9123025
9.1500,17.98743135
9.1550,18.06285429
9.1600,18.13853868
9.1650,18.21415167
9.1700,18.28986504
9.1750,18.36549851
9.1800,18.44111191
9.1850,18.51655836
9.1900,18.59191663
9.1950,18.66705562
9.2000,18.74213886
9.2050,18.81711537
9.2100,18.89192817
9.2150,18.96655309
9.2200,19.04121943
9.2250,19.11583786
9.2300,19.19045075
9.2350,19.2649987
9.2400,19.33953024
9.2450,19.41402506
9.2500,19.48880086
9.2550,19.563734
9.2600,19.6389442
9.2650,19.71442959
9.2700,19.79021502
9.2750,19.86641354
9.2800,19.94284854
9.2850,20.01922125
9.2900,20.0958167
9.2950,20.17271188
9.3000,20.24995064
9.3050,20.3274579
9.3100,20.4050407
9.3150,20.48285659
9.3200,20.56074435
9.3250,20.63886888
9.3300,20.71706104
9.3350,20.79516267
9.3400,20.87329828
9.3450,20.95129543
9.3500,21.02913138
9.3550,21.1066979
9.3600,21.18421833
9.3650,21.26137332
9.3700,21.33818612
9.3750,21.41459908
9.3800,21.49055057
9.3850,21.56581969
9.3900,21.6403861
9.3950,21.71416932
9.4000,21.786962
9.4050,21.85849979
9.4100,21.92847217
9.4150,21.99701679
9.4200,22.06405318
9.4250,22.12960187
9.4300,22.19372758
9.4350,22.25638521
9.4400,22.3177266
9.4450,22.37767554
9.4500,22.43627533
9.4550,22.49329525
9.4600,22.54875907
9.4650,22.60297397
9.4700,22.65558938
9.4750,22.70692005
9.4800,22.75689251
9.4850,22.80577893
9.4900,22.85341941
9.4950,22.89984057
9.5000,22.94496029
9.5050,22.98879627
9.5100,23.0313964
9.5150,23.07269798
9.5200,23.11269472
9.5250,23.15149512
9.5300,23.18908774
9.5350,23.22559918
9.5400,23.26097917
9.5450,23.29527223
9.5500,23.32838985
9.5550,23.36054212
9.5600,23.39169692
9.5650,23.42180505
9.5700,23.45113015
9.5750,23.47959521
9.5800,23.50727522
9.5850,23.53439493
9.5900,23.56095575
9.5950,23.58697586
9.6000,23.61254519
9.6050,23.63754771
9.6100,23.66211691
9.6150,23.68614789
9.6200,23.70982117
9.6250,23.73296911
9.6300,23.75591064
9.6350,23.77849297
9.6400,23.80099533
9.6450,23.82328737
9.6500,23.84540764
9.6550,23.86761081
9.6600,23.88978101
9.6650,23.9120845
9.6700,23.93445679
9.6750,23.95707185
9.6800,23.97988281
9.6850,24.00339102
9.6900,24.02746311
9.6950,24.05223801
9.7000,24.07783959
9.7050,24.10435415
9.7100,24.13193373
9.7150,24.16055174
9.7200,24.19015599
9.7250,24.22073954
9.7300,24.25215801
9.7350,24.28440848
9.7400,24.31735402
9.7450,24.35100999
9.7500,24.38532905
9.7550,24.42024182
9.7600,24.4557456
9.7650,24.49161657
9.7700,24.52805368
9.7750,24.56487322
9.7800,24.60223395
9.7850,24.63993185
9.7900,24.67794592
9.7950,24.71636676
9.8000,24.75504692
9.8050,24.79399023
9.8100,24.83299682
9.8150,24.87216424
9.8200,24.91120246
9.8250,24.95026142
9.8300,24.98919253
9.8350,25.02779736
9.8400,25.06568946
9.8450,25.10302985
9.8500,25.13967807
9.8550,25.17531946
9.8600,25.2097064
9.8650,25.24283646
9.8700,25.2744026
9.8750,25.30431556
9.8800,25.33261935
9.8850,25.35934182
9.8900,25.38457319
9.8950,25.40810838
9.9000,25.43017889
9.9050,25.45095309
9.9100,25.47056328
9.9150,25.48931562
9.9200,25.50743427
9.9250,25.5252659
9.9300,25.54268733
9.9350,25.55990711
9.9400,25.57707946
9.9450,25.59422746
9.9500,25.61136007
9.9550,25.62846741
9.9600,25.6455212
9.9650,25.66254229
9.9700,25.67938113
9.9750,25.69591496
9.9800,25.71202091
9.9850,25.72746387
9.9900,25.74213375
9.9950,25.75581468
10.0000,25.76831985
10.0050,25.77934704
10.0100,25.78875761
10.0150,25.79664099
10.0200,25.80292561
10.0250,25.80746392
10.0300,25.8102993
10.0350,25.81132458
10.0400,25.81053543
10.0450,25.80798773
10.0500,25.80365923
10.0550,25.79777439
10.0600,25.79030909
10.0650,25.7812817
10.0700,25.77069646
10.0750,25.75857644
10.0800,25.74477813
10.0850,25.72937912
10.0900,25.71247565
10.0950,25.69412509
10.1000,25.67445092
10.1050,25.65350842
10.1100,25.63140402
10.1150,25.6081006
10.1200,25.58359102
10.1250,25.5576819
10.1300,25.53034469
10.1350,25.50160602
10.1400,25.47159954
10.1450,25.4402387
10.1500,25.4072995
10.1550,25.37284443
10.1600,25.33702088
10.1650,25.29955578
10.1700,25.26055316
10.1750,25.22021289
10.1800,25.17837556
10.1850,25.13492579
10.1900,25.08976373
10.1950,25.04322409
10.2000,24.99510137
10.2050,24.94557407
10.2100,24.89472192
10.2150,24.8423253
10.2200,24.78841595
10.2250,24.73283176
10.2300,24.67584359
10.2350,24.61766465
10.2400,24.55829819
10.2450,24.49800136
10.2500,24.43684107
10.2550,24.374869
10.2600,24.31230613
10.2650,24.24921276
10.2700,24.1857758
10.2750,24.12196737
10.2800,24.05795369
10.2850,23.99351269
10.2900,23.92885761
10.2950,23.86400901
10.3000,23.79889526
10.3050,23.73355477
10.3100,23.66811821
10.3150,23.60254336
10.3200,23.53688225
10.3250,23.47127159
10.3300,23.40578614
10.3350,23.34041537
10.3400,23.27537611
10.3450,23.21064133
10.3500,23.14620186
10.3550,23.08218056
10.3600,23.01869414
10.3650,22.95590699
10.3700,22.89360214
10.3750,22.8319676
10.3800,22.77079968
10.3850,22.71032014
10.3900,22.65055915
10.3950,22.59139157
10.4000,22.53296014
10.4050,22.47510405
10.4100,22.41804442
10.4150,22.36153616
10.4200,22.30571953
10.4250,22.25041259
10.4300,22.19565923
10.4350,22.14136
10.4400,22.08757588
10.4450,22.03408935
10.4500,21.98097801
10.4550,21.92812529
10.4600,21.87570861
10.4650,21.8236668
10.4700,21.77218168
10.4750,21.72112027
10.4800,21.67058719
10.4850,21.62071389
10.4900,21.57145679
10.4950,21.52277982
10.5000,21.47475549
10.5050,21.42741852
10.5100,21.3807714
10.5150,21.33487277
10.5200,21.28982767
10.5250,21.24559157
10.5300,21.20225351
10.5350,21.15971669
10.5400,21.11797335
10.5450,21.07685098
10.5500,21.03647852
10.5550,20.99670064
10.5600,20.95755207
10.5650,20.91890723
10.5700,20.88082409
10.5750,20.84320328
10.5800,20.80595349
10.5850,20.76930676
10.5900,20.73320559
10.5950,20.69760755
10.6000,20.66261151
10.6050,20.62821047
10.6100,20.59433711
10.6150,20.56102257
10.6200,20.52821097
10.6250,20.49579029
10.6300,20.46374217
10.6350,20.43186654
10.6400,20.3999333
10.6450,20.3678327
10.6500,20.33539639
10.6550,20.30256758
10.6600,20.26926026
10.6650,20.23533744
10.6700,20.20113018
10.6750,20.16648708
10.6800,20.13157601
10.6850,20.09619675
10.6900,20.06038396
10.6950,20.02406593
10.7000,19.98704397
10.7050,19.94933246
10.7100,19.91069704
10.7150,19.87116464
10.7200,19.83065532
10.7250,19.78903694
10.7300,19.7461373
10.7350,19.70202419
10.7400,19.65660931
10.7450,19.61012209
10.7500,19.56273692
10.7550,19.51452003
10.7600,19.46523624
10.7650,19.41516447
10.7700,19.36391279
10.7750,19.31174898
10.7800,19.25873423
10.7850,19.205023
10.7900,19.1507206
10.7950,19.09611165
10.8000,19.04127881
10.8050,18.98611614
10.8100,18.93054055
10.8150,18.87484359
10.8200,18.8189677
10.8250,18.76308964
10.8300,18.70710947
10.8350,18.65114558
10.8400,18.59523854
10.8450,18.5395815
10.8500,18.48397808
10.8550,18.42868644
10.8600,18.3736606
10.8650,18.31899808
10.8700,18.26450218
10.8750,18.21027021
10.8800,18.15642257
10.8850,18.10275415
10.8900,18.04923919
10.8950,17.99596121
10.9000,17.94275359
10.9050,17.89000324
10.9100,17.83758546
10.9150,17.78549945
10.9200,17.73388554
10.9250,17.68288217
10.9300,17.63244581
10.9350,17.58277967
10.9400,17.53384801
10.9450,17.48565877
10.9500,17.43822978
10.9550,17.39141324
10.9600,17.3451882
10.9650,17.29960863
10.9700,17.25446277
10.9750,17.20975648
10.9800,17.16548042
10.9850,17.12172463
10.9900,17.0782919
10.9950,17.0354053
11.0000,16.99312985
11.0050,16.95133893
11.0100,16.91000264
11.0150,16.86910483
11.0200,16.82845841
11.0250,16.78821119
11.0300,16.74831117
11.0350,16.70852226
11.0400,16.66876965
11.0450,16.62886906
11.0500,16.58857689
11.0550,16.54793009
11.0600,16.50685813
11.0650,16.46535346
11.0700,16.42339393
11.0750,16.38092007
11.0800,16.33780706
11.0850,16.29369011
11.0900,16.24872091
11.0950,16.20264704
11.1000,16.15554813
11.1050,16.1076315
11.1100,16.05892849
11.1150,16.00951435
11.1200,15.95953719
11.1250,15.9088736
11.1300,15.85773325
11.1350,15.80627715
11.1400,15.75437403
11.1450,15.70213927
11.1500,15.64973267
11.1550,15.59711262
11.1600,15.54427545
11.1650,15.49135082
11.1700,15.4385352
11.1750,15.38593981
11.1800,15.33342968
11.1850,15.28121601
11.1900,15.22912681
11.1950,15.17732133
11.2000,15.12579203
11.2050,15.07426856
11.2100,15.02271551
11.2150,14.97103619
11.2200,14.91911801
11.2250,14.86691171
11.2300,14.81435043
11.2350,14.76125818
11.2400,14.70778527
11.2450,14.65376055
11.2500,14.59922
11.2550,14.54425327
11.2600,14.48861907
11.2650,14.43247305
11.2700,14.3758211
11.2750,14.31875067
11.2800,14.2611606
11.2850,14.20310218
11.2900,14.14469704
11.2950,14.08579675
11.3000,14.02621897
11.3050,13.96605799
11.3100,13.90526437
11.3150,13.84384692
11.3200,13.78204858
11.3250,13.71973859
11.3300,13.65700635
11.3350,13.59398045
11.3400,13.53063534
11.3450,13.4668696
11.3500,13.40295548
11.3550,13.33877462
11.3600,13.27450852
11.3650,13.21004423
11.3700,13.14566197
11.3750,13.08131941
11.3800,13.01706655
11.3850,12.95312844
11.3900,12.88951428
11.3950,12.82640785
11.4000,12.76393349
11.4050,12.70213251
11.4100,12.64132078
11.4150,12.58128534
11.4200,12.52209768
11.4250,12.46397852
11.4300,12.40676327
11.4350,12.35051415
11.4400,12.2953947
11.4450,12.24127084
11.4500,12.18808014
11.4550,12.13578659
11.4600,12.08438279
11.4650,12.03392765
11.4700,11.98426722
11.4750,11.93541705
11.4800,11.88752704
11.4850,11.84069247
11.4900,11.79512334
11.4950,11.7506493
11.5000,11.70751074
11.5050,11.66560485
11.5100,11.62497839
11.5150,11.58565791
11.5200,11.5474516
11.5250,11.51022642
11.5300,11.47389124
11.5350,11.4385752
11.5400,11.40410805
11.5450,11.37048644
11.5500,11.33790176
11.5550,11.30608943
11.5600,11.27537549
11.5650,11.24547682
11.5700,11.21636668
11.5750,11.18788243
11.5800,11.16012878
11.5850,11.1329796
11.5900,11.10642223
11.5950,11.08037229
11.6000,11.05494277
11.6050,11.02989635
11.6100,11.00533549
11.6150,10.98115986
11.6200,10.95716822
11.6250,10.93361431
11.6300,10.91028519
11.6350,10.88752341
11.6400,10.86528371
11.6450,10.84376721
11.6500,10.82292759
11.6550,10.80298506
11.6600,10.78411737
11.6650,10.76632837
11.6700,10.74972253
11.6750,10.73428615
11.6800,10.72005712
11.6850,10.70721332
11.6900,10.69565315
11.6950,10.68540408
11.7000,10.67623963
11.7050,10.66817952
11.7100,10.66112386
11.7150,10.65533205
11.7200,10.65066744
11.7250,10.64705193
11.7300,10.6446344
11.7350,10.64345159
11.7400,10.64332733
11.7450,10.64446624
11.7500,10.6469015
11.7550,10.6507091
11.7600,10.65561836
11.7650,10.66159111
11.7700,10.66877228
11.7750,10.67711937
11.7800,10.68665065
11.7850,10.69723453
11.7900,10.70893164
11.7950,10.72191275
11.8000,10.73584835
11.8050,10.75078514
11.8100,10.7666962
11.8150,10.78346522
11.8200,10.80113576
11.8250,10.81943897
11.8300,10.83817734
11.8350,10.857165
11.8400,10.87615366
11.8450,10.89490584
11.8500,10.91284959
11.8550,10.92998025
11.8600,10.94607494
11.8650,10.96089238
11.8700,10.97410302
11.8750,10.9857505
11.8800,10.99563292
11.8850,11.0035534
11.8900,11.00946653
11.8950,11.01315838
11.9000,11.0147552
11.9050,11.01424158
11.9100,11.01155827
11.9150,11.00696036
11.9200,11.00037741
11.9250,10.9918742
11.9300,10.98179405
11.9350,10.97013172
11.9400,10.95712565
11.9450,10.94294362
11.9500,10.92771821
11.9550,10.91146657
11.9600,10.8941458
11.9650,10.87591243
11.9700,10.85669964
11.9750,10.83680635
11.9800,10.81643634
11.9850,10.79574452
11.9900,10.77479535
11.9950,10.75372675
12.0000,10.73294445
12.0050,10.712747
12.0100,10.6934357
12.0150,10.67505616
12.0200,10.65780659
12.0250,10.64179097
12.0300,10.62695096
12.0350,10.61316399
12.0400,10.60052867
12.0450,10.58872932
12.0500,10.57784359
12.0550,10.56756909
12.0600,10.55819556
12.0650,10.54937296
12.0700,10.54109004
12.0750,10.53318489
12.0800,10.52554633
12.0850,10.51819673
12.0900,10.51090751
12.0950,10.50364494
12.1000,10.49640021
12.1050,10.48928111
12.1100,10.48234572
12.1150,10.47547122
12.1200,10.46879031
12.1250,10.4622086
12.1300,10.45592233
12.1350,10.44984102
12.1400,10.4439043
12.1450,10.43802567
12.1500,10.43216916
12.1550,10.42617601
12.1600,10.41948518
12.1650,10.41193161
12.1700,10.40352129
12.1750,10.39367571
12.1800,10.382064
12.1850,10.36853771
12.1900,10.35273336
12.1950,10.3346953
12.2000,10.31417705
12.2050,10.29109449
12.2100,10.26544592
12.2150,10.23714984
12.2200,10.20644778
12.2250,10.17340596
12.2300,10.13824531
12.2350,10.10093414
12.2400,10.06187116
12.2450,10.02113656
12.2500,9.978881132
12.2550,9.935542501
12.2600,9.891244604
12.2650,9.846435925
12.2700,9.801473943
12.2750,9.756207299
12.2800,9.710981015
12.2850,9.665994168
12.2900,9.621390846
12.2950,9.577256532
12.3000,9.533722052
12.3050,9.490791845
12.3100,9.448179664
12.3150,9.406067651
12.3200,9.364398561
12.3250,9.323312982
12.3300,9.28291586
12.3350,9.243249815
12.3400,9.204372025
12.3450,9.166517786
12.3500,9.129502374
12.3550,9.093480201
12.3600,9.058557868
12.3650,9.024828246
12.3700,8.992404312
12.3750,8.961244595
12.3800,8.931360728
12.3850,8.902469573
12.3900,8.874479064
12.3950,8.847102309
12.4000,8.820314522
12.4050,8.793740152
12.4100,8.767137049
12.4150,8.740269579
12.4200,8.71273743
12.4250,8.684481076
12.4300,8.655381015
12.4350,8.625261022
12.4400,8.59386517
12.4450,8.561368619
12.4500,8.52780507
12.4550,8.492870447
12.4600,8.456823745
12.4650,8.419446037
12.4700,8.380591182
12.4750,8.34052807
12.4800,8.299138569
12.4850,8.25658633
12.4900,8.21283802
12.4950,8.16789865
12.5000,8.121797059
12.5050,8.07477945
12.5100,8.026879913
12.5150,7.978315482
12.5200,7.929226557
12.5250,7.879681077
12.5300,7.829758708
12.5350,7.77975949
12.5400,7.729746301
12.5450,7.679904577
12.5500,7.630419449
12.5550,7.581399808
12.5600,7.532951044
12.5650,7.485070128
12.5700,7.437937937
12.5750,7.391884959
12.5800,7.347094893
12.5850,7.303541686
12.5900,7.261406953
12.5950,7.22089068
12.6000,7.182103281
12.6050,7.144853001
12.6100,7.109408862
12.6150,7.075740725
12.6200,7.04390696
12.6250,7.01377407
12.6300,6.985518759
12.6350,6.95895475
12.6400,6.934087559
12.6450,6.910748719
12.6500,6.889167778
12.6550,6.869199846
12.6600,6.850673078
12.6650,6.833462538
12.6700,6.817315869
12.6750,6.8021422
12.6800,6.787774721
12.6850,6.774355102
12.6900,6.761762681
12.6950,6.749892533
12.7000,6.73876903
12.7050,6.728237048
12.7100,6.718058167
12.7150,6.708502279
12.7200,6.69949054
12.7250,6.691112097
12.7300,6.683224581
12.7350,6.675815846
12.7400,6.668995686
12.7450,6.662330004
12.7500,6.655848742
12.7550,6.649456942
12.7600,6.642980103
12.7650,6.6364698
12.7700,6.629713532
12.7750,6.622335991
12.7800,6.614387349
12.7850,6.605472877
12.7900,6.595534166
12.7950,6.584404173
12.8000,6.571942137
12.8050,6.557916907
12.8100,6.542271793
12.8150,6.524693013
12.8200,6.505257483
12.8250,6.483947265
12.8300,6.460809441
12.8350,6.435768828
12.8400,6.408952377
12.8450,6.380364969
12.8500,6.350264853
12.8550,6.318622546
12.8600,6.285820061
12.8650,6.25194259
12.8700,6.217147799
12.8750,6.181750609
12.8800,6.145772044
12.8850,6.109248151
12.8900,6.072418074
12.8950,6.035497421
12.9000,5.998205292
12.9050,5.960886196
12.9100,5.923665413
12.9150,5.886554611
12.9200,5.849738089
12.9250,5.813264606
12.9300,5.777008
12.9350,5.741224016
12.9400,5.705801042
12.9450,5.67091528
12.9500,5.63644311
12.9550,5.602397484
12.9600,5.568871474
12.9650,5.536106608
12.9700,5.50403404
12.9750,5.472703615
12.9800,5.442259875
12.9850,5.412432516
12.9900,5.383442656
12.9950,5.355306983
13.0000,5.327977674
13.0050,5.301477465
13.0100,5.275946451
13.0150,5.251068979
13.0200,5.226977728
13.0250,5.203580284
13.0300,5.180633687
13.0350,5.158236975
13.0400,5.136349025
13.0450,5.114997078
13.0500,5.093973233
13.0550,5.073374014
13.0600,5.05306805
13.0650,5.033153311
13.0700,5.013541583
13.0750,4.994378831
13.0800,4.975627435
13.0850,4.957333522
13.0900,4.939559337
13.0950,4.922262647
13.1000,4.905433106
13.1050,4.889144116
13.1100,4.873468836
13.1150,4.858377549
13.1200,4.843736635
13.1250,4.829586013
13.1300,4.8158165
13.1350,4.802432687
13.1400,4.789291296
13.1450,4.776468167
13.1500,4.763760521
13.1550,4.751210401
13.1600,4.738788396
13.1650,4.726476429
13.1700,4.714177716
13.1750,4.701701703
13.1800,4.689152309
13.1850,4.676644897
13.1900,4.664177024
13.1950,4.651668522
13.2000,4.639410599
13.2050,4.627345497
13.2100,4.615562929
13.2150,4.604087649
13.2200,4.59292838
13.2250,4.582121425
13.2300,4.571646936
13.2350,4.561453717
13.2400,4.55160176
13.2450,4.542071721
13.2500,4.532660631
13.2550,4.523561298
13.2600,4.514423297
13.2650,4.505214914
13.2700,4.495966686
13.2750,4.486740246
13.2800,4.47740224
13.2850,4.468009161
13.2900,4.458457545
13.2950,4.448745735
13.3000,4.438935372
13.3050,4.429126342
13.3100,4.419384486
13.3150,4.409660518
13.3200,4.400039012
13.3250,4.390581726
13.3300,4.381399262
13.3350,4.372393003
13.3400,4.363690195
13.3450,4.355254669
13.3500,4.347111438
13.3550,4.33938984
13.3600,4.332196715
13.3650,4.325512268
13.3700,4.319537096
13.3750,4.31427005
13.3800,4.309708675
13.3850,4.30572992
13.3900,4.302455414
13.3950,4.299984571
13.4000,4.298322919
13.4050,4.297461305
13.4100,4.29744247
13.4150,4.298422506
13.4200,4.30038157
13.4250,4.303393562
13.4300,4.307422115
13.4350,4.312486467
13.4400,4.31862184
13.4450,4.325756703
13.4500,4.33400783
13.4550,4.343395132
13.4600,4.353782375
13.4650,4.365199875
13.4700,4.377814904
13.4750,4.391602532
13.4800,4.406530084
13.4850,4.422817881
13.4900,4.440463658
13.4950,4.459486318
13.5000,4.479867905
13.5050,4.501834035
13.5100,4.525286113
13.5150,4.550287765
13.5200,4.576749096
13.5250,4.604764192
13.5300,4.634115065
13.5350,4.664925313
13.5400,4.697032267
13.5450,4.730346696
13.5500,4.764791499
13.5550,4.800168988
13.5600,4.836471906
13.5650,4.873482333
13.5700,4.911148519
13.5750,4.949112713
13.5800,4.987237174
13.5850,5.025572547
13.5900,5.063829711
13.5950,5.10197119
13.6000,5.139889302
13.6050,5.177412697
13.6100,5.214647061
13.6150,5.251579955
13.6200,5.288004162
13.6250,5.324118371
13.6300,5.359908151
13.6350,5.395444321
13.6400,5.430724998
13.6450,5.466058265
13.6500,5.501586897
13.6550,5.537255049
13.6600,5.573096426
13.6650,5.6091307
13.6700,5.645417871
13.6750,5.681962447
13.6800,5.718742409
13.6850,5.756121376
13.6900,5.793948099
13.6950,5.832283419
13.7000,5.871004202
13.7050,5.910203924
13.7100,5.950072007
13.7150,5.99028327
13.7200,6.031166358
13.7250,6.072502879
13.7300,6.114575426
13.7350,6.157204157
13.7400,6.200474669
13.7450,6.244340355
13.7500,6.28878046
13.7550,6.333736293
13.7600,6.379218139
13.7650,6.425314965
13.7700,6.471998403
13.7750,6.519288497
13.7800,6.56729637
13.7850,6.61585211
13.7900,6.665069324
13.7950,6.714912883
13.8000,6.765427299
13.8050,6.816569585
13.8100,6.86832678
13.8150,6.92087828
13.8200,6.974159283
13.8250,7.028313493
13.8300,7.083451631
13.8350,7.13954099
13.8400,7.196644794
13.8450,7.254703342
13.8500,7.31389458
13.8550,7.374175154
13.8600,7.43563805
13.8650,7.498280505
13.8700,7.562054449
13.8750,7.62708664
13.8800,7.693400995
13.8850,7.761018927
13.8900,7.829902169
13.8950,7.900010756
13.9000,7.971326188
13.9050,8.04386246
13.9100,8.117383401
13.9150,8.192080143
13.9200,8.268081256
13.9250,8.345131955
13.9300,8.423294746
13.9350,8.502431003
13.9400,8.582597417
13.9450,8.663523472
13.9500,8.745153317
13.9550,8.827502349
13.9600,8.910478435
13.9650,8.993921779
13.9700,9.077758603
13.9750,9.16194816
13.9800,9.246427997
13.9850,9.330957447
13.9900,9.415545665
13.9950,9.500102856
14.0000,9.584684737
14.0050,9.669245622
14.0100,9.753317016
14.0150,9.837327748
14.0200,9.920891148
14.0250,10.00415761
14.0300,10.08695955
14.0350,10.16947484
14.0400,10.25156825
14.0450,10.33326633
14.0500,10.41456225
14.0550,10.49552793
14.0600,10.57608218
14.0650,10.65625038
14.0700,10.73592072
14.0750,10.81526731
14.0800,10.89407816
14.0850,10.97246428
14.0900,11.05045076
14.0950,11.12795603
14.1000,11.20508963
14.1050,11.28184908
14.1100,11.35825078
14.1150,11.43420235
14.1200,11.50976071
14.1250,11.58485211
14.1300,11.65947755
14.1350,11.73360106
14.1400,11.80720809
14.1450,11.88031852
14.1500,11.9528482
14.1550,12.02488489
14.1600,12.09640225
14.1650,12.16741835
14.1700,12.2378654
14.1750,12.30813173
14.1800,12.37802715
14.1850,12.44746493
14.1900,12.51658511
14.1950,12.58532608
14.2000,12.65352541
14.2050,12.72135543
14.2100,12.78884754
14.2150,12.8559966
14.2200,12.92262706
14.2250,12.98882071
14.2300,13.05473703
14.2350,13.12037049
14.2400,13.18552719
14.2450,13.2505006
14.2500,13.3151702
14.2550,13.37938361
14.2600,13.44310422
14.2650,13.50655549
14.2700,13.56956349
14.2750,13.63203141
14.2800,13.69404328
14.2850,13.7555514
14.2900,13.81655688
14.2950,13.87713529
14.3000,13.93737456
14.3050,13.99726874
14.3100,14.05690804
14.3150,14.11597966
14.3200,14.17455708
14.3250,14.23259299
14.3300,14.28989384
14.3350,14.34646561
14.3400,14.40225855
14.3450,14.45746162
14.3500,14.5118708
14.3550,14.56561814
14.3600,14.61882437
14.3650,14.6714684
14.3700,14.72348111
14.3750,14.77481349
14.3800,14.82547079
14.3850,14.87552707
14.3900,14.92500184
14.3950,14.97405416
14.4000,15.02262508
14.4050,15.07059328
14.4100,15.11820735
14.4150,15.16548548
14.4200,15.21266463
14.4250,15.25976207
14.4300,15.30689519
14.4350,15.35400343
14.4400,15.40124187
14.4450,15.4487069
14.4500,15.49644559
14.4550,15.54449132
14.4600,15.59285594
14.4650,15.64153477
14.4700,15.69049763
14.4750,15.73940693
14.4800,15.78841535
14.4850,15.83752142
14.4900,15.88682674
14.4950,15.936262
14.5000,15.98599162
14.5050,16.03579762
14.5100,16.08580389
14.5150,16.13593042
14.5200,16.18627868
14.5250,16.23698487
14.5300,16.28787782
14.5350,16.33908776
14.5400,16.39079838
14.5450,16.44262371
14.5500,16.49470732
14.5550,16.54707236
14.5600,16.5999518
14.5650,16.65316989
14.5700,16.70677625
14.5750,16.76080616
14.5800,16.81516245
14.5850,16.86989246
14.5900,16.92474606
14.5950,16.97961774
14.6000,17.03451122
14.6050,17.08937307
14.6100,17.14417044
14.6150,17.19907749
14.6200,17.25398785
14.6250,17.30890598
14.6300,17.3641393
14.6350,17.41965688
14.6400,17.47542086
14.6450,17.5313813
14.6500,17.5876556
14.6550,17.64410197
14.6600,17.70083053
14.6650,17.75775869
14.6700,17.8149876
14.6750,17.87261114
14.6800,17.93079879
14.6850,17.98926223
14.6900,18.0480489
14.6950,18.10697849
14.7000,18.1659969
14.7050,18.2250954
14.7100,18.284127
14.7150,18.34300712
14.7200,18.40158608
14.7250,18.45979386
14.7300,18.51755886
14.7350,18.57500639
14.7400,18.63211155
14.7450,18.68892026
14.7500,18.74557928
14.7550,18.80186325
14.7600,18.85789526
14.7650,18.91344149
14.7700,18.96865293
14.7750,19.02374172
14.7800,19.07866404
14.7850,19.13334494
14.7900,19.18761515
14.7950,19.24145371
14.8000,19.29457638
14.8050,19.34702047
14.8100,19.39849544
14.8150,19.44900133
14.8200,19.49839715
14.8250,19.54644205
14.8300,19.59315059
14.8350,19.63846633
14.8400,19.68222452
14.8450,19.72454408
14.8500,19.76537895
14.8550,19.8047905
14.8600,19.8426971
14.8650,19.87912528
14.8700,19.91396541
14.8750,19.94742551
14.8800,19.97949021
14.8850,20.01000957
14.8900,20.03910078
14.8950,20.06691323
14.9000,20.09330941
14.9050,20.11808134
14.9100,20.14129982
14.9150,20.16272439
14.9200,20.18246463
14.9250,20.20037189
14.9300,20.21633749
14.9350,20.23015142
14.9400,20.24197072
14.9450,20.25185525
14.9500,20.26009883
14.9550,20.26685075
14.9600,20.27232779
14.9650,20.27689438
14.9700,20.28087998
14.9750,20.28449857
14.9800,20.28783598
14.9850,20.29123902
14.9900,20.29497712
14.9950,20.2995676
15.0000,20.30540038
15.0050,20.31271586
15.0100,20.32182695
15.0150,20.33286843
15.0200,20.34595554
15.0250,20.36114781
15.0300,20.37866278
15.0350,20.398543
15.0400,20.42082025
15.0450,20.44535391
15.0500,20.4719685
15.0550,20.50078859
15.0600,20.53172463
15.0650,20.56513845
15.0700,20.60069019
15.0750,20.6380455
15.0800,20.67711422
15.0850,20.71785437
15.0900,20.76017465
15.0950,20.80415036
15.1000,20.84980525
15.1050,20.8971042
15.1100,20.94605051
15.1150,20.99646194
15.1200,21.04817479
15.1250,21.10090855
15.1300,21.15436139
15.1350,21.20834596
15.1400,21.26266146
15.1450,21.31727636
15.1500,21.37186493
15.1550,21.42638839
15.1600,21.48052799
15.1650,21.53403631
15.1700,21.58695161
15.1750,21.63887953
15.1800,21.68977488
15.1850,21.73953346
15.1900,21.78799534
15.1950,21.83524077
15.2000,21.88104352
15.2050,21.92576357
15.2100,21.96940355
15.2150,22.01203498
15.2200,22.05386029
15.2250,22.09491298
15.2300,22.1353872
15.2350,22.1755258
15.2400,22.21547602
15.2450,22.25531799
15.2500,22.29506543
15.2550,22.33477459
15.2600,22.37451483
15.2650,22.41419828
15.2700,22.45383673
15.2750,22.49341231
15.2800,22.53300593
15.2850,22.57269781
15.2900,22.61247308
15.2950,22.65216716
15.3000,22.69177376
15.3050,22.73133983
15.3100,22.77080357
15.3150,22.81007489
15.3200,22.84925475
15.3250,22.88839976
15.3300,22.92740422
15.3350,22.96639806
15.3400,23.00534258
15.3450,23.04445625
15.3500,23.08368633
15.3550,23.12310968
15.3600,23.16271902
15.3650,23.20225069
15.3700,23.24180195
15.3750,23.28146036
15.3800,23.32126444
15.3850,23.36109964
15.3900,23.40088138
15.3950,23.4404445
15.4000,23.47981843
15.4050,23.51852675
15.4100,23.55669811
15.4150,23.59403215
15.4200,23.63046592
15.4250,23.66586199
15.4300,23.7002386
15.4350,23.73350839
15.4400,23.76562335
15.4450,23.796587
15.4500,23.82656807
15.4550,23.85541984
15.4600,23.88323725
15.4650,23.9099838
15.4700,23.93573881
15.4750,23.96051238
15.4800,23.98453096
15.4850,24.00795946
15.4900,24.03102738
15.4950,24.05357653
15.5000,24.07592655
15.5050,24.09780583
15.5100,24.11929325
15.5150,24.14049451
15.5200,24.16127244
15.5250,24.18176458
15.5300,24.2020167
15.5350,24.22209805
15.5400,24.24195393
15.5450,24.26154182
15.5500,24.28093488
15.5550,24.30021199
15.5600,24.3192862
15.5650,24.33802046
15.5700,24.35651485
15.5750,24.37482202
15.5800,24.39317786
15.5850,24.41174295
15.5900,24.43054187
15.5950,24.44980815
15.6000,24.46958649
15.6050,24.48985546
15.6100,24.51060187
15.6150,24.53217608
15.6200,24.55458233
15.6250,24.57787188
15.6300,24.60222347
15.6350,24.62758323
15.6400,24.65411798
15.6450,24.68150316
15.6500,24.70972064
15.6550,24.73866496
15.6600,24.76813266
15.6650,24.79825516
15.6700,24.82907455
15.6750,24.86028198
15.6800,24.89159136
15.6850,24.92278391
15.6900,24.95368427
15.6950,24.98398477
15.7000,25.01337707
15.7050,25.0418405
15.7100,25.06905764
15.7150,25.09508188
15.7200,25.11973795
15.7250,25.14313585
15.7300,25.16523756
15.7350,25.18589263
15.7400,25.20528439
15.7450,25.22307052
15.7500,25.23919418
15.7550,25.25361119
15.7600,25.26638943
15.7650,25.27763473
15.7700,25.28733092
15.7750,25.29585046
15.7800,25.30313926
15.7850,25.30938343
15.7900,25.31444309
15.7950,25.31849174
15.8000,25.32151442
15.8050,25.32382572
15.8100,25.32537235
15.8150,25.32645399
15.8200,25.32714616
15.8250,25.32736395
15.8300,25.32708404
15.8350,25.3263259
15.8400,25.32510642
15.8450,25.32352297
15.8500,25.32146889
15.8550,25.31885297
15.8600,25.31587969
15.8650,25.31261837
15.8700,25.30905321
15.8750,25.30510003
15.8800,25.30058151
15.8850,25.29535044
15.8900,25.28946886
15.8950,25.28274483
15.9000,25.27518638
15.9050,25.26689324
15.9100,25.25793133
15.9150,25.24807
15.9200,25.23721607
15.9250,25.22541427
15.9300,25.21256114
15.9350,25.19853926
15.9400,25.18303881
15.9450,25.16626193
15.9500,25.14816312
15.9550,25.12851724
15.9600,25.10759917
15.9650,25.08509828
15.9700,25.06095433
15.9750,25.03505513
15.9800,25.00762861
15.9850,24.97863216
15.9900,24.94823192
15.9950,24.91651631
16.0000,24.88369698
16.0050,24.84998061
16.0100,24.81516916
16.0150,24.7793156
16.0200,24.74252641
16.0250,24.70490888
16.0300,24.66637228
16.0350,24.62696846
16.0400,24.58670439
16.0450,24.54585017
16.0500,24.50445175
16.0550,24.46276692
16.0600,24.42077652
16.0650,24.37855138
16.0700,24.33617486
16.0750,24.29343095
16.0800,24.2504313
16.0850,24.20698712
16.0900,24.16340465
16.0950,24.11970199
16.1000,24.0758949
16.1050,24.03201185
16.1100,23.98837585
16.1150,23.94485863
16.1200,23.90146612
16.1250,23.85843158
16.1300,23.81570377
16.1350,23.77347344
16.1400,23.7317126
16.1450,23.6905486
16.1500,23.64974999
16.1550,23.60948798
16.1600,23.56964348
16.1650,23.53028382
16.1700,23.49145182
16.1750,23.45296825
16.1800,23.41492274
16.1850,23.3773064
16.1900,23.34005495
16.1950,23.30314508
16.2000,23.26643309
16.2050,23.22987828
16.2100,23.19318313
16.2150,23.15655551
16.2200,23.11990332
16.2250,23.08323489
16.2300,23.04644327
16.2350,23.00981388
16.2400,22.97334373
16.2450,22.93707606
16.2500,22.90112549
16.2550,22.86562277
16.2600,22.83024921
16.2650,22.79495974
16.2700,22.75969747
16.2750,22.72456991
16.2800,22.68916966
16.2850,22.65340384
16.2900,22.61719515
16.2950,22.58034355
16.3000,22.54260105
16.3050,22.50403193
16.3100,22.46472136
16.3150,22.4246836
16.3200,22.38397553
16.3250,22.34231519
16.3300,22.30001744
16.3350,22.25721119
16.3400,22.21357703
16.3450,22.16933785
16.3500,22.12428205
16.3550,22.07838552
16.3600,22.03152877
16.3650,21.98384162
16.3700,21.93511889
16.3750,21.88550631
16.3800,21.8350768
16.3850,21.78402598
16.3900,21.73247484
16.3950,21.68038309
16.4000,21.62795193
16.4050,21.57518526
16.4100,21.52198269
16.4150,21.46851038
16.4200,21.41473203
16.4250,21.36089866
16.4300,21.30688322
16.4350,21.25281586
16.4400,21.19875389
16.4450,21.1447251
16.4500,21.09097336
16.4550,21.03751225
16.4600,20.98428198
16.4650,20.93138768
16.4700,20.87865347
16.4750,20.82625723
16.4800,20.7740301
16.4850,20.7219386
16.4900,20.67001286
16.4950,20.6181092
16.5000,20.56625428
16.5050,20.51434752
16.5100,20.46259641
16.5150,20.41063284
16.5200,20.35861986
16.5250,20.30634682
16.5300,20.25378109
16.5350,20.20066484
16.5400,20.14710186
16.5450,20.09286223
16.5500,20.03803731
16.5550,19.98253369
16.5600,19.92651914
16.5650,19.87000071
16.5700,19.81306033
16.5750,19.75584513
16.5800,19.69840629
16.5850,19.64077819
16.5900,19.58304822
16.5950,19.5256085
16.6000,19.46860489
16.6050,19.4118322
16.6100,19.35532961
16.6150,19.29897843
16.6200,19.24282817
16.6250,19.18703607
16.6300,19.13138868
16.6350,19.07585286
16.6400,19.02062128
16.6450,18.96545062
16.6500,18.91067314
16.6550,18.85618649
16.6600,18.80212291
16.6650,18.74851061
16.6700,18.69558156
16.6750,18.64342114
16.6800,18.59197734
16.6850,18.54126162
16.6900,18.49125661
16.6950,18.44200172
16.7000,18.39340055
16.7050,18.34563929
16.7100,18.29884489
16.7150,18.25299978
16.7200,18.2082191
16.7250,18.164376
16.7300,18.12168963
16.7350,18.08000932
16.7400,18.03929438
16.7450,17.99932115
16.7500,17.96009289
16.7550,17.92124946
16.7600,17.88269519
16.7650,17.84437644
16.7700,17.80617007
16.7750,17.76777624
16.7800,17.72920871
16.7850,17.69030443
16.7900,17.65071228
16.7950,17.61062885
16.8000,17.56974108
16.8050,17.52790081
16.8100,17.48481518
16.8150,17.44049907
16.8200,17.39473387
16.8250,17.34752585
16.8300,17.29880177
16.8350,17.24846282
16.8400,17.19647188
16.8450,17.14289707
16.8500,17.08747281
16.8550,17.03054187
16.8600,16.97182599
16.8650,16.91175032
16.8700,16.84995981
16.8750,16.78649837
16.8800,16.72142452
16.8850,16.65505581
16.8900,16.58724776
16.8950,16.51796121
16.9000,16.44732814
16.9050,16.37560171
16.9100,16.30294732
16.9150,16.22955252
16.9200,16.15561692
16.9250,16.08123394
16.9300,16.00653384
16.9350,15.93145091
16.9400,15.85608983
16.9450,15.78068788
16.9500,15.70511193
16.9550,15.62935713
16.9600,15.55363476
16.9650,15.47794865
16.9700,15.4023469
16.9750,15.32703741
16.9800,15.25236599
16.9850,15.17862772
16.9900,15.10587642
16.9950,15.03440785
17.0000,14.96456101
17.0050,14.89627749
17.0100,14.8295814
17.0150,14.76459264
17.0200,14.70162385
17.0250,14.64060116
17.0300,14.58168348
17.0350,14.52503557
17.0400,14.47073218
17.0450,14.41888203
17.0500,14.3695262
17.0550,14.32272015
17.0600,14.2784697
17.0650,14.23650188
17.0700,14.1966699
17.0750,14.1588362
17.0800,14.12264544
17.0850,14.08784697
17.0900,14.05450519
17.0950,14.02210667
17.1000,13.99055929
17.1050,13.95968478
17.1100,13.92946841
17.1150,13.89993179
17.1200,13.8708923
17.1250,13.84231834
17.1300,13.81411608
17.1350,13.7861099
17.1400,13.75818254
17.1450,13.73025308
17.1500,13.70239869
17.1550,13.67406779
17.1600,13.64540066
17.1650,13.61603069
17.1700,13.58612902
17.1750,13.55540237
17.1800,13.52409225
17.1850,13.49199516
17.1900,13.45916826
17.1950,13.42558102
17.2000,13.39113644
17.2050,13.35589195
17.2100,13.31986113
17.2150,13.28309993
17.2200,13.24531737
17.2250,13.20670509
17.2300,13.16734673
17.2350,13.12761309
17.2400,13.08747927
17.2450,13.04682613
17.2500,13.00592213
17.2550,12.96488121
17.2600,12.92343014
17.2650,12.88159535
17.2700,12.83960662
17.2750,12.7973717
17.2800,12.75474457
17.2850,12.71175048
17.2900,12.66854044
17.2950,12.62499695
17.3000,12.58110175
17.3050,12.53695703
17.3100,12.49252422
17.3150,12.44801233
17.3200,12.40320504
17.3250,12.35836994
17.3300,12.31342116
17.3350,12.26827953
17.3400,12.22312243
17.3450,12.17824498
17.3500,12.13361051
17.3550,12.08966952
17.3600,12.04634929
17.3650,12.00371013
17.3700,11.96197669
17.3750,11.92124385
17.3800,11.88172588
17.3850,11.84333793
17.3900,11.80608509
17.3950,11.76993587
17.4000,11.73486316
17.4050,11.70089056
17.4100,11.66801099
17.4150,11.63594859
17.4200,11.60461376
17.4250,11.57391367
17.4300,11.54395145
17.4350,11.5146093
17.4400,11.48596842
17.4450,11.45773652
17.4500,11.42984733
17.4550,11.40235994
17.4600,11.37519021
17.4650,11.34825954
17.4700,11.32149275
17.4750,11.29482685
17.4800,11.2680628
17.4850,11.24121869
17.4900,11.21431448
17.4950,11.18725571
17.5000,11.16010407
17.5050,11.13294592
17.5100,11.10565788
17.5150,11.07822655
17.5200,11.0509616
17.5250,11.02377588
17.5300,10.99667379
17.5350,10.96972125
17.5400,10.9429234
17.5450,10.91636843
17.5500,10.89005385
17.5550,10.86414808
17.5600,10.83885301
17.5650,10.81424012
17.5700,10.7902368
17.5750,10.76692014
17.5800,10.7443804
17.5850,10.72240128
17.5900,10.701172
17.5950,10.68061146
17.6000,10.66061972
17.6050,10.64121484
17.6100,10.62233864
17.6150,10.60389396
17.6200,10.58596173
17.6250,10.56822888
17.6300,10.55075662
17.6350,10.53344567
17.6400,10.51639327
17.6450,10.49908179
17.6500,10.48175681
17.6550,10.46390781
17.6600,10.445684
17.6650,10.42722042
17.6700,10.40833123
17.6750,10.38904206
17.6800,10.36925734
17.6850,10.34903541
17.6900,10.32831426
17.6950,10.30712425
17.7000,10.28547748
17.7050,10.26333541
17.7100,10.24063253
17.7150,10.21743101
17.7200,10.19377232
17.7250,10.16975402
17.7300,10.14528077
17.7350,10.12048872
17.7400,10.09539692
17.7450,10.0701509
17.7500,10.04481887
17.7550,10.01950522
17.7600,9.994212682
17.7650,9.969053821
17.7700,9.944115786
17.7750,9.9196291
17.7800,9.89573154
17.7850,9.872411503
17.7900,9.849837115
17.7950,9.827992712
17.8000,9.807135969
17.8050,9.786990999
17.8100,9.767664436
17.8150,9.749241924
17.8200,9.731492336
17.8250,9.714630942
17.8300,9.698581413
17.8350,9.683161637
17.8400,9.668436734
17.8450,9.654351587
17.8500,9.640887545
17.8550,9.627858911
17.8600,9.615352388
17.8650,9.60333154
17.8700,9.591689963
17.8750,9.580292853
17.8800,9.569051154
17.8850,9.557989164
17.8900,9.546806175
17.8950,9.535528203
17.9000,9.524139746
17.9050,9.512556415
17.9100,9.500808934
17.9150,9.488542753
17.9200,9.475744724
17.9250,9.462447574
17.9300,9.448572152
17.9350,9.43405989
17.9400,9.418777716
17.9450,9.402796518
17.9500,9.385960309
17.9550,9.368370228
17.9600,9.34991197
17.9650,9.330567025
17.9700,9.310250533
17.9750,9.289151958
17.9800,9.267147895
17.9850,9.244452044
17.9900,9.220969375
17.9950,9.196777175
18.0000,9.171952615
18.0050,9.146512098
18.0100,9.12050435
18.0150,9.094203645
18.0200,9.067792152
18.0250,9.04136131
18.0300,9.014908901
18.0350,8.988612939
18.0400,8.962496551
18.0450,8.936638015
18.0500,8.911012482
18.0550,8.885767197
18.0600,8.860818577
18.0650,8.836252661
18.0700,8.812148507
18.0750,8.788448253
18.0800,8.765188395
18.0850,8.742417902
18.0900,8.720040844
18.0950,8.698198135
18.1000,8.676713067
18.1050,8.65569011
18.1100,8.635209111
18.1150,8.615200111
18.1200,8.59578209
18.1250,8.576760683
18.1300,8.558212869
18.1350,8.540114299
18.1400,8.522496062
18.1450,8.505322668
18.1500,8.488570699
18.1550,8.472278975
18.1600,8.456448081
18.1650,8.441045433
18.1700,8.426086767
18.1750,8.411535044
18.1800,8.397295297
18.1850,8.383487371
18.1900,8.36994934
18.1950,8.356734578
18.2000,8.34353264
18.2050,8.330354315
18.2100,8.316993755
18.2150,8.303631101
18.2200,8.290149457
18.2250,8.276418049
18.2300,8.262415484
18.2350,8.248086784
18.2400,8.2333372
18.2450,8.218195412
18.2500,8.20244768
18.2550,8.185975431
18.2600,8.168781477
18.2650,8.150628346
18.2700,8.131700959
18.2750,8.111687588
18.2800,8.090564185
18.2850,8.068171562
18.2900,8.044526997
18.2950,8.019437708
18.3000,7.992825431
18.3050,7.964811245
18.3100,7.935146711
18.3150,7.903713227
18.3200,7.870509557
18.3250,7.835380882
18.3300,7.798637542
18.3350,7.760066788
18.3400,7.719586846
18.3450,7.677573558
18.3500,7.633955793
18.3550,7.588776479
18.3600,7.542215011
18.3650,7.494533987
18.3700,7.445567926
18.3750,7.395539995
18.3800,7.344558545
18.3850,7.292755967
18.3900,7.240254037
18.3950,7.187059742
18.4000,7.133299414
18.4050,7.079011851
18.4100,7.024410314
18.4150,6.969392939
18.4200,6.914080043
18.4250,6.85859845
18.4300,6.802964922
18.4350,6.747370422
18.4400,6.691731195
18.4450,6.636460786
18.4500,6.581368704
18.4550,6.526677123
18.4600,6.472287727
18.4650,6.418423506
18.4700,6.365056133
18.4750,6.31254428
18.4800,6.260823639
18.4850,6.209998261
18.4900,6.160190081
18.4950,6.111536297
18.5000,6.064309661
18.5050,6.018472639
18.5100,5.974190517
18.5150,5.931579666
18.5200,5.890668912
18.5250,5.851628934
18.5300,5.814466283
18.5350,5.779266051
18.5400,5.746065188
18.5450,5.714996223
18.5500,5.686081081
18.5550,5.659403823
18.5600,5.634811218
18.5650,5.612469379
18.5700,5.592234158
18.5750,5.574314167
18.5800,5.55852575
18.5850,5.544792094
18.5900,5.533097892
18.5950,5.52342434
18.6000,5.515688745
18.6050,5.509652538
18.6100,5.505567017
18.6150,5.503233769
18.6200,5.502385526
18.6250,5.502969
18.6300,5.504774195
18.6350,5.507747517
18.6400,5.511934831
18.6450,5.517010858
18.6500,5.523137052
18.6550,5.529902028
18.6600,5.537408026
18.6650,5.545210551
18.6700,5.553522249
18.6750,5.562285122
18.6800,5.571441685
18.6850,5.581044557
18.6900,5.591035751
18.6950,5.60143932
18.7000,5.612302292
18.7050,5.623692031
18.7100,5.635354208
18.7150,5.647652191
18.7200,5.660563936
18.7250,5.67408706
18.7300,5.688322323
18.7350,5.703067769
18.7400,5.718548792
18.7450,5.734474028
18.7500,5.751034274
18.7550,5.768011681
18.7600,5.785573949
18.7650,5.803512439
18.7700,5.821928737
18.7750,5.84057792
18.7800,5.859585236
18.7850,5.878748273
18.7900,5.89812082
18.7950,5.917532172
18.8000,5.937007925
18.8050,5.956596921
18.8100,5.976254246
18.8150,5.995796513
18.8200,6.015070166
18.8250,6.034075302
18.8300,6.052790498
18.8350,6.071194927
18.8400,6.0891568
18.8450,6.106578702
18.8500,6.123423499
18.8550,6.139810769
18.8600,6.15563896
18.8650,6.170712134
18.8700,6.185050965
18.8750,6.198369476
18.8800,6.210911591
18.8850,6.222746962
18.8900,6.233809856
18.8950,6.244168313
18.9000,6.253911839
18.9050,6.263160961
18.9100,6.271812253
18.9150,6.280037186
18.9200,6.288104642
18.9250,6.29614336
18.9300,6.304165248
18.9350,6.312417842
18.9400,6.320928137
18.9450,6.329815698
18.9500,6.339194209
18.9550,6.349413503
18.9600,6.36026443
18.9650,6.372255816
18.9700,6.385458361
18.9750,6.399732445
18.9800,6.415319102
18.9850,6.431961446
18.9900,6.449896471
18.9950,6.469165738
19.0000,6.489573971
19.0050,6.511078643
19.0100,6.533763085
19.0150,6.55744963
19.0200,6.582054085
19.0250,6.607505916
19.0300,6.633573182
19.0350,6.660239011
19.0400,6.687365614
19.0450,6.714870824
19.0500,6.742626165
19.0550,6.770743815
19.0600,6.798968932
19.0650,6.827304533
19.0700,6.855525679
19.0750,6.883603063
19.0800,6.911561127
19.0850,6.93936928
19.0900,6.967156378
19.0950,6.994773279
19.1000,7.022124975
19.1050,7.049132057
19.1100,7.075970726
19.1150,7.102527977
19.1200,7.129024682
19.1250,7.155422793
19.1300,7.181648713
19.1350,7.207838995
19.1400,7.234014058
19.1450,7.260190277
19.1500,7.286597973
19.1550,7.313133561
19.1600,7.340025223
19.1650,7.36739297
19.1700,7.395333943
19.1750,7.42412943
19.1800,7.453714807
19.1850,7.484140844
19.1900,7.515693837
19.1950,7.548210382
19.2000,7.581744235
19.2050,7.616457884
19.2100,7.652392063
19.2150,7.689533233
19.2200,7.72779483
19.2250,7.767322693
19.2300,7.808132873
19.2350,7.850233593
19.2400,7.893556518
19.2450,7.93819537
19.2500,7.983986795
19.2550,8.030826513
19.2600,8.07886827
19.2650,8.127766643
19.2700,8.177342453
19.2750,8.227596394
19.2800,8.278286603
19.2850,8.329432138
19.2900,8.380930585
19.2950,8.432538271
19.3000,8.484279563
19.3050,8.53594751
19.3100,8.587572009
19.3150,8.638944629
19.3200,8.689953172
19.3250,8.740578244
19.3300,8.790738706
19.3350,8.840583834
19.3400,8.889946895
19.3450,8.938815696
19.3500,8.987292091
19.3550,9.035039033
19.3600,9.08204583
19.3650,9.128269542
19.3700,9.173830084
19.3750,9.21856019
19.3800,9.262300297
19.3850,9.305148392
19.3900,9.346885749
19.3950,9.387629012
19.4000,9.427512069
19.4050,9.466450049
19.4100,9.504373534
19.4150,9.541517673
19.4200,9.577823249
19.4250,9.613441558
19.4300,9.648382691
19.4350,9.68279207
19.4400,9.716780081
19.4450,9.750391539
19.4500,9.783654719
19.4550,9.816656388
19.4600,9.849408316
19.4650,9.881992445
19.4700,9.914433067
19.4750,9.946708041
19.4800,9.978988394
19.4850,10.01128201
19.4900,10.04335078
19.4950,10.07535775
19.5000,10.10723431
19.5050,10.13890201
19.5100,10.17037087
19.5150,10.20159988
19.5200,10.23260339
19.5250,10.2631366
19.5300,10.29324683
19.5350,10.32298261
19.5400,10.35235901
19.5450,10.38129052
19.5500,10.40970866
19.5550,10.43771001
19.5600,10.46537259
19.5650,10.49257377
19.5700,10.51923553
19.5750,10.54544379
19.5800,10.57108461
19.5850,10.59631757
19.5900,10.62081199
19.5950,10.64488746
19.6000,10.66840718
19.6050,10.69163499
19.6100,10.71432933
19.6150,10.73658296
19.6200,10.75844794
19.6250,10.77995142
19.6300,10.80114554
19.6350,10.82205122
19.6400,10.84256726
19.6450,10.86278694
19.6500,10.88257917
19.6550,10.90216223
19.6600,10.92151816
19.6650,10.94092704
19.6700,10.96034324
19.6750,10.97984303
19.6800,10.99964642
19.6850,11.01973835
19.6900,11.04013946
19.6950,11.06095602
19.7000,11.0822579
19.7050,11.1040753
19.7100,11.12644188
19.7150,11.14941667
19.7200,11.17302409
19.7250,11.19717676
19.7300,11.22189626
19.7350,11.2470292
19.7400,11.27259072
19.7450,11.29854736
19.7500,11.3249408
19.7550,11.35172168
19.7600,11.3790053
19.7650,11.40661951
19.7700,11.43468509
19.7750,11.46300157
19.7800,11.49156888
19.7850,11.52028826
19.7900,11.54917574
19.7950,11.57847585
19.8000,11.60816297
19.8050,11.63824307
19.8100,11.66875052
19.8150,11.69979915
19.8200,11.73138297
19.8250,11.76366761
19.8300,11.79674969
19.8350,11.83041058
19.8400,11.86487352
19.8450,11.9000829
19.8500,11.93614408
19.8550,11.97305124
19.8600,12.01087973
19.8650,12.04954394
19.8700,12.08929415
19.8750,12.13002341
19.8800,12.17167678
19.8850,12.21411534
19.8900,12.25759225
19.8950,12.30174546
19.9000,12.34654842
19.9050,12.391992
19.9100,12.43813622
19.9150,12.48501973
19.9200,12.53275718
19.9250,12.5812274
19.9300,12.6303813
19.9350,12.68010632
19.9400,12.73064678
19.9450,12.78194947
19.9500,12.83411653
19.9550,12.88705034
19.9600,12.9407681
19.9650,12.99500452
19.9700,13.04990622
19.9750,13.1056403
19.9800,13.16201617
19.9850,13.21915825
19.9900,13.27705842
19.9950,13.33568735
20.0000,13.39468076
20.0050,13.45422791
20.0100,13.51417399
20.0150,13.57430839
20.0200,13.6345638
20.0250,13.69485893
20.0300,13.75540792
20.0350,13.81631478
20.0400,13.87756487
20.0450,13.93926182
20.0500,14.00127027
20.0550,14.06348251
20.0600,14.12591299
20.0650,14.18854509
20.0700,14.25106038
20.0750,14.31351095
20.0800,14.3758984
20.0850,14.43806864
20.0900,14.50021286
20.0950,14.56217234
20.1000,14.6241091
20.1050,14.68616671
20.1100,14.74840636
20.1150,14.81089853
20.1200,14.87383911
20.1250,14.93732893
20.1300,15.00134857
20.1350,15.0661757
20.1400,15.13198422
20.1450,15.19890858
20.1500,15.2669425
20.1550,15.33624799
20.1600,15.40656474
20.1650,15.47819746
20.1700,15.55127394
20.1750,15.62554145
20.1800,15.70122792
20.1850,15.77808096
20.1900,15.85581897
20.1950,15.93450924
20.2000,16.01391293
20.2050,16.09375258
20.2100,16.17396159
20.2150,16.25434715
20.2200,16.33441772
20.2250,16.41399544
20.2300,16.49295525
20.2350,16.57098778
20.2400,16.64807101
20.2450,16.72403715
20.2500,16.79876277
20.2550,16.87220329
20.2600,16.94430539
20.2650,17.01503594
20.2700,17.08407391
20.2750,17.15113879
20.2800,17.21621876
20.2850,17.27912258
20.2900,17.33984837
20.2950,17.39818509
20.3000,17.45439864
20.3050,17.50836144
20.3100,17.56014453
20.3150,17.60978599
20.3200,17.65736273
20.3250,17.70301081
20.3300,17.74674636
20.3350,17.78841432
20.3400,17.82814085
20.3450,17.86580259
20.3500,17.90160085
20.3550,17.93587994
20.3600,17.96860527
20.3650,18.00017192
20.3700,18.03081751
20.3750,18.0606635
20.3800,18.08987392
20.3850,18.11897524
20.3900,18.14807935
20.3950,18.17731203
20.4000,18.20684741
20.4050,18.23672326
20.4100,18.26705228
20.4150,18.29793146
20.4200,18.32942392
20.4250,18.36155742
20.4300,18.39451174
20.4350,18.42832202
20.4400,18.46297832
20.4450,18.49851309
20.4500,18.53512324
20.4550,18.57250202
20.4600,18.61090161
20.4650,18.65019255
20.4700,18.69005159
20.4750,18.73068382
20.4800,18.77183999
20.4850,18.81348716
20.4900,18.85553308
20.4950,18.89787109
20.5000,18.94053278
20.5050,18.98326726
20.5100,19.02594648
20.5150,19.06869095
20.5200,19.11139578
20.5250,19.15420432
20.5300,19.19734794
20.5350,19.24066292
20.5400,19.28421979
20.5450,19.32793394
20.5500,19.37173384
20.5550,19.41559388
20.5600,19.45932601
20.5650,19.50284102
20.5700,19.54620755
20.5750,19.58943445
20.5800,19.63264782
20.5850,19.67564591
20.5900,19.71841674
20.5950,19.76095871
20.6000,19.80319169
20.6050,19.84505145
20.6100,19.88668025
20.6150,19.9279378
20.6200,19.96899078
20.6250,20.00967477
20.6300,20.04993819
20.6350,20.09012897
20.6400,20.13027947
20.6450,20.17053808
20.6500,20.21117264
20.6550,20.25216803
20.6600,20.29377778
20.6650,20.3363245
20.6700,20.37975375
20.6750,20.42434631
20.6800,20.47012676
20.6850,20.51696313
20.6900,20.56456924
20.6950,20.61296235
20.7000,20.66179749
20.7050,20.71096249
20.7100,20.76052636
20.7150,20.81025468
20.7200,20.86010646
20.7250,20.91008839
20.7300,20.95999785
20.7350,21.00974418
20.7400,21.05907543
20.7450,21.10796406
20.7500,21.1564416
20.7550,21.20448093
20.7600,21.2518599
20.7650,21.2985114
20.7700,21.34434429
20.7750,21.38919971
20.7800,21.43312029
20.7850,21.47623296
20.7900,21.51853731
20.7950,21.56000074
20.8000,21.60061672
20.8050,21.64067352
20.8100,21.68002147
20.8150,21.71844847
20.8200,21.7561162
20.8250,21.79293255
20.8300,21.82891597
20.8350,21.86435071
20.8400,21.89899339
20.8450,21.93310014
20.8500,21.96664536
20.8550,21.99978438
20.8600,22.03268163
20.8650,22.06538924
20.8700,22.09804967
20.8750,22.13054681
20.8800,22.16296469
20.8850,22.19539412
20.8900,22.2276272
20.8950,22.25995899
20.9000,22.29215568
20.9050,22.32406887
20.9100,22.35563785
20.9150,22.38678418
20.9200,22.41745113
20.9250,22.44757541
20.9300,22.4772372
20.9350,22.50610881
20.9400,22.53412737
20.9450,22.56142337
20.9500,22.58777024
20.9550,22.61316194
20.9600,22.63752267
20.9650,22.66065293
20.9700,22.68266933
20.9750,22.70364292
20.9800,22.72346155
20.9850,22.74224241
20.9900,22.76012033
20.9950,22.77722182
21.0000,22.79381676
21.0050,22.80986056
21.0100,22.82549039
21.0150,22.84090096
21.0200,22.85608125
21.0250,22.87116132
21.0300,22.88634334
21.0350,22.90168052
21.0400,22.91742631
21.0450,22.93342984
21.0500,22.94971687
21.0550,22.96643713
21.0600,22.98371225
21.0650,23.00158394
21.0700,23.02017575
21.0750,23.03984186
21.0800,23.06033731
21.0850,23.08172477
21.0900,23.10402632
21.0950,23.12732981
21.1000,23.15148426
21.1050,23.1764648
21.1100,23.20233443
21.1150,23.22913503
21.1200,23.25697888
21.1250,23.28577254
21.1300,23.31550941
21.1350,23.34618324
21.1400,23.37790902
21.1450,23.4105152
21.1500,23.44405299
21.1550,23.47840266
21.1600,23.51370197
21.1650,23.54988193
21.1700,23.58678474
21.1750,23.62446143
21.1800,23.66244914
21.1850,23.70068342
21.1900,23.73936749
21.1950,23.77820522
21.2000,23.81735978
21.2050,23.85682023
21.2100,23.89650304
21.2150,23.93649956
21.2200,23.97668483
21.2250,24.01705033
21.2300,24.05749382
21.2350,24.09820266
21.2400,24.13919295
21.2450,24.18047598
21.2500,24.22190453
21.2550,24.26333552
21.2600,24.30478886
21.2650,24.3460745
21.2700,24.38736511
21.2750,24.4285907
21.2800,24.4697949
21.2850,24.51080149
21.2900,24.55163617
21.2950,24.5920665
21.3000,24.63210305
21.3050,24.67157542
21.3100,24.71024301
21.3150,24.74816646
21.3200,24.78517711
21.3250,24.82141921
21.3300,24.85665628
21.3350,24.89086738
21.3400,24.92406471
21.3450,24.95627766
21.3500,24.98759094
21.3550,25.01807478
21.3600,25.04774595
21.3650,25.07652732
21.3700,25.10460565
21.3750,25.13177059
21.3800,25.15827885
21.3850,25.18415913
21.3900,25.20931975
21.3950,25.2337283
21.4000,25.25748301
21.4050,25.28051768
21.4100,25.30278626
21.4150,25.32418244
21.4200,25.34468794
21.4250,25.36433262
21.4300,25.38303544
21.4350,25.40064855
21.4400,25.41706179
21.4450,25.43236435
21.4500,25.44654901
21.4550,25.45953517
21.4600,25.47108815
21.4650,25.48127735
21.4700,25.4900598
21.4750,25.49764247
21.4800,25.50429205
21.4850,25.50998258
21.4900,25.51460737
21.4950,25.51817828
21.5000,25.52066287
21.5050,25.52209354
21.5100,25.52254691
21.5150,25.52188312
21.5200,25.51999024
21.5250,25.51707082
21.5300,25.51310277
21.5350,25.5081054
21.5400,25.50205485
21.5450,25.49488364
21.5500,25.48670466
21.5550,25.47776607
21.5600,25.46799792
21.5650,25.45744681
21.5700,25.44601742
21.5750,25.43365277
21.5800,25.42030033
21.5850,25.40580977
21.5900,25.39013508
21.5950,25.37348133
21.6000,25.35562262
21.6050,25.33680425
21.6100,25.31690396
21.6150,25.29575438
21.6200,25.27349178
21.6250,25.24995702
21.6300,25.2251461
21.6350,25.19920886
21.6400,25.17218606
21.6450,25.1441174
21.6500,25.1149308
21.6550,25.08461544
21.6600,25.05327996
21.6650,25.02100681
21.6700,24.98787324
21.6750,24.9537318
21.6800,24.91860513
21.6850,24.88243816
21.6900,24.84554254
21.6950,24.80766082
21.7000,24.76904372
21.7050,24.72963094
21.7100,24.6893476
21.7150,24.64844191
21.7200,24.60689075
21.7250,24.56475193
21.7300,24.522013
21.7350,24.47870139
21.7400,24.43475294
21.7450,24.39023693
21.7500,24.34511048
21.7550,24.29953353
21.7600,24.25368996
21.7650,24.20768807
21.7700,24.16163563
21.7750,24.11556703
21.7800,24.06946668
21.7850,24.02354651
21.7900,23.9778944
21.7950,23.93257133
21.8000,23.88755353
21.8050,23.84305567
21.8100,23.79900403
21.8150,23.75553366
21.8200,23.71270015
21.8250,23.67037565
21.8300,23.62842684
21.8350,23.58684101
21.8400,23.54563744
21.8450,23.50476314
21.8500,23.46431112
21.8550,23.42398411
21.8600,23.38376153
21.8650,23.34360712
21.8700,23.3033738
21.8750,23.26311003
21.8800,23.22272619
21.8850,23.18254117
21.8900,23.14224293
21.8950,23.10157575
21.9000,23.06046382
21.9050,23.01885747
21.9100,22.97683939
21.9150,22.9344151
21.9200,22.89142795
21.9250,22.84786687
21.9300,22.80377346
21.9350,22.75907785
21.9400,22.71381695
21.9450,22.66799276
21.9500,22.62166584
21.9550,22.57493698
21.9600,22.52752596
21.9650,22.47964284
21.9700,22.43109324
21.9750,22.38202548
21.9800,22.33243014
21.9850,22.28246367
21.9900,22.23189101
21.9950,22.18089888
22.0000,22.12927872
22.0050,22.07707218
22.0100,22.02451777
22.0150,21.97145379
22.0200,21.91792963
22.0250,21.86400753
22.0300,21.80975927
22.0350,21.75507207
22.0400,21.70010627
22.0450,21.64478392
22.0500,21.58907827
22.0550,21.53304651
22.0600,21.47689432
22.0650,21.42052735
22.0700,21.36415177
22.0750,21.30764377
22.0800,21.25091472
22.0850,21.19399717
22.0900,21.13696589
22.0950,21.0797008
22.1000,21.02222902
22.1050,20.96445805
22.1100,20.90623619
22.1150,20.84749579
22.1200,20.78832159
22.1250,20.72871159
22.1300,20.66870132
22.1350,20.60813924
22.1400,20.54703599
22.1450,20.48549767
22.1500,20.42359242
22.1550,20.36145219
22.1600,20.29895146
22.1650,20.23621792
22.1700,20.17314694
22.1750,20.10961432
22.1800,20.04568078
22.1850,19.98121202
22.1900,19.9165378
22.1950,19.85168255
22.2000,19.78678649
22.2050,19.7217633
22.2100,19.65655295
22.2150,19.59130637
22.2200,19.52613735
22.2250,19.46095572
22.2300,19.39594967
22.2350,19.33105008
22.2400,19.26623302
22.2450,19.20164104
22.2500,19.13693118
22.2550,19.07228994
22.2600,19.00769775
22.2650,18.94297908
22.2700,18.87827035
22.2750,18.81369524
22.2800,18.7492853
22.2850,18.68495134
22.2900,18.62075137
22.2950,18.55674164
22.3000,18.49310044
22.3050,18.42985574
22.3100,18.36686488
22.3150,18.30400256
22.3200,18.24141969
22.3250,18.1790354
22.3300,18.1166692
22.3350,18.05460665
22.3400,17.99272303
22.3450,17.93113309
22.3500,17.86987947
22.3550,17.80873454
22.3600,17.74768932
22.3650,17.68676918
22.3700,17.62566459
22.3750,17.56456705
22.3800,17.50356564
22.3850,17.44244222
22.3900,17.38125565
22.3950,17.32001035
22.4000,17.25877933
22.4050,17.19746677
22.4100,17.13625944
22.4150,17.07523862
22.4200,17.0142422
22.4250,16.95322685
22.4300,16.8924308
22.4350,16.83183642
22.4400,16.77152349
22.4450,16.71128887
22.4500,16.65097031
22.4550,16.59054566
22.4600,16.53007625
22.4650,16.46943151
22.4700,16.40886657
22.4750,16.34825903
22.4800,16.28776071
22.4850,16.22742667
22.4900,16.16694426
22.4950,16.10657165
22.5000,16.04625245
22.5050,15.98595572
22.5100,15.92586204
22.5150,15.86576556
22.5200,15.80575476
22.5250,15.74585831
22.5300,15.68600639
22.5350,15.62626007
22.5400,15.56638121
22.5450,15.50628022
22.5500,15.44624795
22.5550,15.38590541
22.5600,15.32551327
22.5650,15.2650057
22.5700,15.20430701
22.5750,15.14333909
22.5800,15.08212684
22.5850,15.02065682
22.5900,14.95911021
22.5950,14.8973147
22.6000,14.83536288
22.6050,14.77309262
22.6100,14.71082775
22.6150,14.64862335
22.6200,14.58625647
22.6250,14.52394454
22.6300,14.46179973
22.6350,14.39967499
22.6400,14.33762115
22.6450,14.27547122
22.6500,14.21320374
22.6550,14.15113224
22.6600,14.08899647
22.6650,14.02692566
22.6700,13.96510914
22.6750,13.90350752
22.6800,13.84201735
22.6850,13.78082944
22.6900,13.71977967
22.6950,13.65890823
22.7000,13.59816405
22.7050,13.5373693
22.7100,13.47647766
22.7150,13.41539093
22.7200,13.35431961
22.7250,13.29319027
22.7300,13.23203
22.7350,13.17081045
22.7400,13.10968416
22.7450,13.04863326
22.7500,12.98772123
22.7550,12.92701605
22.7600,12.86674144
22.7650,12.80695051
22.7700,12.74749493
22.7750,12.6886223
22.7800,12.63005969
22.7850,12.57182129
22.7900,12.51414321
22.7950,12.45688075
22.8000,12.40018466
22.8050,12.34426162
22.8100,12.28908229
22.8150,12.23488048
22.8200,12.1816528
22.8250,12.12930505
22.8300,12.07782084
22.8350,12.02738254
22.8400,11.97799685
22.8450,11.92997536
22.8500,11.88309355
22.8550,11.83734406
22.8600,11.79266915
22.8650,11.74923997
22.8700,11.70709679
22.8750,11.66625183
22.8800,11.62663135
22.8850,11.58830948
22.8900,11.55097752
22.8950,11.51501783
22.9000,11.48025798
22.9050,11.44695284
22.9100,11.41484916
22.9150,11.38403992
22.9200,11.35463798
22.9250,11.32629947
22.9300,11.29910142
22.9350,11.27299016
22.9400,11.24790362
22.9450,11.22378933
22.9500,11.20089643
22.9550,11.17898451
22.9600,11.15802973
22.9650,11.13801191
22.9700,11.11867093
22.9750,11.1000554
22.9800,11.08222917
22.9850,11.06505787
22.9900,11.04856843
22.9950,11.03279825
23.0000,11.01773356
23.0050,11.00349467
23.0100,10.98987285
23.0150,10.97708097
23.0200,10.96498094
23.0250,10.95365991
23.0300,10.94287383
23.0350,10.93244146
23.0400,10.9222663
23.0450,10.91236663
23.0500,10.90248966
23.0550,10.89269652
23.0600,10.88278466
23.0650,10.87283816
23.0700,10.86271063
23.0750,10.85230327
23.0800,10.84181225
23.0850,10.83117282
23.0900,10.82041939
23.0950,10.80954855
23.1000,10.79852423
23.1050,10.78748193
23.1100,10.77632223
23.1150,10.76497863
23.1200,10.75359638
23.1250,10.74218482
23.1300,10.73079568
23.1350,10.71915761
23.1400,10.70734754
23.1450,10.69513595
23.1500,10.68261557
23.1550,10.66973439
23.1600,10.65644938
23.1650,10.64261742
23.1700,10.62816005
23.1750,10.61304865
23.1800,10.59720355
23.1850,10.5805808
23.1900,10.56328947
23.1950,10.54518517
23.2000,10.52620445
23.2050,10.50629729
23.2100,10.48549435
23.2150,10.46398138
23.2200,10.44163813
23.2250,10.41874525
23.2300,10.3951561
23.2350,10.37115535
23.2400,10.34697242
23.2450,10.32268174
23.2500,10.29814453
23.2550,10.27368163
23.2600,10.24929342
23.2650,10.22490417
23.2700,10.20078597
23.2750,10.1766995
23.2800,10.15266763
23.2850,10.12878333
23.2900,10.10490889
23.2950,10.08097888
23.3000,10.05707818
23.3050,10.03312353
23.3100,10.00916297
23.3150,9.985132321
23.3200,9.961080353
23.3250,9.937085752
23.3300,9.913038908
23.3350,9.88919209
23.3400,9.865419985
23.3450,9.841857042
23.3500,9.81860704
23.3550,9.795630707
23.3600,9.773001795
23.3650,9.750413824
23.3700,9.728123378
23.3750,9.706075016
23.3800,9.684144514
23.3850,9.662404793
23.3900,9.640777013
23.3950,9.619301191
23.4000,9.597947398
23.4050,9.576532509
23.4100,9.555077369
23.4150,9.533581054
23.4200,9.512010358
23.4250,9.490333835
23.4300,9.468386999
23.4350,9.446312934
23.4400,9.424111679
23.4450,9.40157817
23.4500,9.378663379
23.4550,9.355448572
23.4600,9.33179758
23.4650,9.307825878
23.4700,9.283402803
23.4750,9.258518081
23.4800,9.233232129
23.4850,9.207410669
23.4900,9.181204299
23.4950,9.154504354
23.5000,9.127287307
23.5050,9.099608575
23.5100,9.071467935
23.5150,9.042784705
23.5200,9.013524655
23.5250,8.983651806
23.5300,8.953249396
23.5350,8.922208306
23.5400,8.890375507
23.5450,8.857880281
23.5500,8.824842851
23.5550,8.791006178
23.5600,8.75646676
23.5650,8.721298752
23.5700,8.685455619
23.5750,8.649122815
23.5800,8.612422327
23.5850,8.575281605
23.5900,8.53789913
23.5950,8.500390027
23.6000,8.462390327
23.6050,8.424198628
23.6100,8.385966967
23.6150,8.347537474
23.6200,8.30891693
23.6250,8.270068534
23.6300,8.231203471
23.6350,8.192421934
23.6400,8.15375179
23.6450,8.115410079
23.6500,8.077445566
23.6550,8.039861814
23.6600,8.002733748
23.6650,7.966369638
23.6700,7.930641684
23.6750,7.895619481
23.6800,7.861399955
23.6850,7.827930124
23.6900,7.795384541
23.6950,7.763754886
23.7000,7.733165873
23.7050,7.703685596
23.7100,7.675429612
23.7150,7.648480242
23.7200,7.622441454
23.7250,7.597495125
23.7300,7.573648754
23.7350,7.550863118
23.7400,7.529108994
23.7450,7.508465196
23.7500,7.488731868
23.7550,7.470052446
23.7600,7.452412322
23.7650,7.435571531
23.7700,7.419585696
23.7750,7.404429259
23.7800,7.390094889
23.7850,7.376590026
23.7900,7.363696924
23.7950,7.351150361
23.8000,7.339155213
23.8050,7.327398368
23.8100,7.315613587
23.8150,7.303699811
23.8200,7.29162819
23.8250,7.279169228
23.8300,7.266139976
23.8350,7.25240011
23.8400,7.237909772
23.8450,7.222415208
23.8500,7.205725431
23.8550,7.18793167
23.8600,7.168988054
23.8650,7.148733869
23.8700,7.12725675
23.8750,7.104533478
23.8800,7.080497843
23.8850,7.05517937
23.8900,7.028494986
23.8950,7.00052459
23.9000,6.97156158
23.9050,6.941706557
23.9100,6.910881435
23.9150,6.87946052
23.9200,6.847366238
23.9250,6.81498913
23.9300,6.782445337
23.9350,6.749716314
23.9400,6.716930587
23.9450,6.684155232
23.9500,6.651547907
23.9550,6.619289029
23.9600,6.587277037
23.9650,6.555749036
23.9700,6.524889301
23.9750,6.49479287
23.9800,6.465626584
23.9850,6.437650022
23.9900,6.411001286
23.9950,6.385829031
24.0000,6.362342044
24.0050,6.340545496
24.0100,6.320464935
24.0150,6.302040821
24.0200,6.285767001
24.0250,6.271560297
24.0300,6.259350214
24.0350,6.249230908
24.0400,6.241139901
24.0450,6.23505867
24.0500,6.231137266
24.0550,6.229297349
24.0600,6.229478352
24.0650,6.231664653
24.0700,6.235833389
24.0750,6.241737376
24.0800,6.249331082
24.0850,6.258405114
24.0900,6.268910688
24.0950,6.280928201
24.1000,6.293986383
24.1050,6.308212133
24.1100,6.323513105
24.1150,6.339663204
24.1200,6.356721372
24.1250,6.374525098
24.1300,6.393011944
24.1350,6.412082867
24.1400,6.43158155
24.1450,6.451501855
24.1500,6.471731278
24.1550,6.49199851
24.1600,6.512246983
24.1650,6.532336498
24.1700,6.552149079
24.1750,6.571498749
24.1800,6.590228613
24.1850,6.608318444
24.1900,6.625818163
24.1950,6.642392143
24.2000,6.658179114
24.2050,6.672826051
24.2100,6.686398162
24.2150,6.698972746
24.2200,6.710587602
24.2250,6.721077544
24.2300,6.730607824
24.2350,6.739149852
24.2400,6.746874163
24.2450,6.753609641
24.2500,6.759417359
24.2550,6.764311768
24.2600,6.768476773
24.2650,6.771795914
24.2700,6.77433842
24.2750,6.776144595
24.2800,6.777293195
24.2850,6.77752054
24.2900,6.776894807
24.2950,6.775256081
24.3000,6.772493335
24.3050,6.768590738
24.3100,6.763532414
24.3150,6.757232083
24.3200,6.749545229
24.3250,6.740552165
24.3300,6.730432524
24.3350,6.719095918
24.3400,6.706439326
24.3450,6.692562889
24.3500,6.67742193
24.3550,6.66102076
24.3600,6.643496689
24.3650,6.62491767
24.3700,6.605486644
24.3750,6.585560507
24.3800,6.565151652
24.3850,6.544489831
24.3900,6.523743569
24.3950,6.502939113
24.4000,6.482469331
24.4050,6.462267808
24.4100,6.442662654
24.4150,6.423669466
24.4200,6.405329206
24.4250,6.387955328
24.4300,6.371516697
24.4350,6.356234176
24.4400,6.342150467
24.4450,6.329279022
24.4500,6.317666514
24.4550,6.307537951
24.4600,6.298840565
24.4650,6.291542018
24.4700,6.28568931
24.4750,6.281207834
24.4800,6.278253921
24.4850,6.276803948
24.4900,6.276708582
24.4950,6.278194368
24.5000,6.280898015
24.5050,6.285060224
24.5100,6.290487637
24.5150,6.296878791
24.5200,6.304187725
24.5250,6.312184309
24.5300,6.320532779
24.5350,6.32905409
24.5400,6.337456975
24.5450,6.345542517
24.5500,6.353183524
24.5550,6.360192127
24.5600,6.366430495
24.5650,6.371740054
24.5700,6.375744393
24.5750,6.378534954
24.5800,6.379963595
24.5850,6.380192192
24.5900,6.379015641
24.5950,6.376622735
24.6000,6.372829982
24.6050,6.367872326
24.6100,6.361753552
24.6150,6.354618818
24.6200,6.346562621
24.6250,6.337612347
24.6300,6.327887306
24.6350,6.317338
24.6400,6.306245013
24.6450,6.294459509
24.6500,6.282232386
24.6550,6.269369394
24.6600,6.255868632
24.6650,6.241780911
24.6700,6.226980429
24.6750,6.211339398
24.6800,6.194743178
24.6850,6.177223669
24.6900,6.158550736
24.6950,6.138968463
24.7000,6.118284625
24.7050,6.096719798
24.7100,6.0740777
24.7150,6.050634807
24.7200,6.026479442
24.7250,6.001477656
24.7300,5.975852347
24.7350,5.949668571
24.7400,5.922961813
24.7450,5.895909883
24.7500,5.868641756
24.7550,5.841063499
24.7600,5.813390077
24.7650,5.786035761
24.7700,5.758993345
24.7750,5.732264754
24.7800,5.705950191
24.7850,5.680163859
24.7900,5.654967472
24.7950,5.630292973
24.8000,5.606533122
24.8050,5.583494903
24.8100,5.56136872
24.8150,5.540074308
24.8200,5.519864368
24.8250,5.50065693
24.8300,5.482544921
24.8350,5.46576643
24.8400,5.450348144
24.8450,5.436340888
24.8500,5.423785994
24.8550,5.41286943
24.8600,5.403457699
24.8650,5.395680931
24.8700,5.389546823
24.8750,5.384926692
24.8800,5.381717133
24.8850,5.379842667
24.8900,5.379200913
24.8950,5.379882989
24.9000,5.381950629
24.9050,5.385177072
24.9100,5.389458585
24.9150,5.394773315
24.9200,5.400997454
24.9250,5.407993599
24.9300,5.41569526
24.9350,5.423986268
24.9400,5.432717511
24.9450,5.441886157
24.9500,5.451248589
24.9550,5.460931135
24.9600,5.470821003
24.9650,5.480900238
24.9700,5.491048699
24.9750,5.501271967
24.9800,5.511604733
24.9850,5.522148769
24.9900,5.532981656
24.9950,5.543848828
25.0000,5.555007653
25.0050,5.566269417
25.0100,5.577827589
25.0150,5.589632273
25.0200,5.601654963
25.0250,5.614053241
25.0300,5.626820425
25.0350,5.639986868
25.0400,5.653815537
25.0450,5.668351233
25.0500,5.683603004
25.0550,5.69990872
25.0600,5.717261535
25.0650,5.735343085
25.0700,5.754414232
25.0750,5.774675615
25.0800,5.796101398
25.0850,5.818735147
25.0900,5.842699789
25.0950,5.867944423
25.1000,5.894373866
25.1050,5.922035994
25.1100,5.950959874
25.1150,5.981129713
25.1200,6.012441312
25.1250,6.044853816
25.1300,6.078412974
25.1350,6.112811005
25.1400,6.14803339
25.1450,6.18408125
25.1500,6.220858422
25.1550,6.258086294
25.1600,6.295814022
25.1650,6.333768043
25.1700,6.372197148
25.1750,6.410937449
25.1800,6.449892423
25.1850,6.489045462
25.1900,6.528400858
25.1950,6.567599351
25.2000,6.60681402
25.2050,6.646056239
25.2100,6.685343766
25.2150,6.724740047
25.2200,6.764412761
25.2250,6.804432058
25.2300,6.844826513
25.2350,6.885715539
25.2400,6.927242134
25.2450,6.969575766
25.2500,7.012947425
25.2550,7.05750119
25.2600,7.103446397
25.2650,7.150959271
25.2700,7.20039767
25.2750,7.251863059
25.2800,7.305540462
25.2850,7.361667061
25.2900,7.420408043
25.2950,7.482096083
25.3000,7.546788082
25.3050,7.614735025
25.3100,7.686156978
25.3150,7.712076285
25.3200,7.741087858
25.3250,7.77312888
25.3300,7.808080205
25.3350,7.84577486
25.3400,7.88600462
25.3450,7.928524297
25.3500,7.973054361
25.3550,8.019283337
25.3600,8.066869849
25.3650,8.115444009
25.3700,8.164609413
25.3750,8.213946479
25.3800,8.263016343
25.3850,8.311364532
25.3900,8.35852458
25.3950,8.404022566
25.4000,8.44738357
25.4050,8.488140621
25.4100,8.525846319
25.4150,8.560087267
25.4200,8.590501714
25.4250,8.616800136
25.4300,8.63878778
25.4350,8.656389244
