type,name,time_units,begin_time,frequency,count,units
signal,"Noraxon MyoMotion-Segments-Forearm RT-Roll","s",0.0000,200,5088,"deg"

time,value
0.0000,-1.145118535
0.0050,-1.147164118
0.0100,-1.149211238
0.0150,-1.151259895
0.0200,-1.1526352
0.0250,-1.15317422
0.0300,-1.152720359
0.0350,-1.151129838
0.0400,-1.148277497
0.0450,-1.144062249
0.0500,-1.13841122
0.0550,-1.131281896
0.0600,-1.122662989
0.0650,-1.112574593
0.0700,-1.101067258
0.0750,-1.088220063
0.0800,-1.074138581
0.0850,-1.058953026
0.0900,-1.042816015
0.0950,-1.025900018
0.1000,-1.008394622
0.1050,-0.9905030266
0.1100,-0.9724379833
0.1150,-0.9544176205
0.1200,-0.9366611139
0.1250,-0.9193846328
0.1300,-0.9027972995
0.1350,-0.8870966709
0.1400,-0.8724643407
0.1450,-0.859062002
0.1500,-0.8470275759
0.1550,-0.8287441517
0.1600,-0.8115891448
0.1650,-0.795701755
0.1700,-0.781068405
0.1750,-0.7677480988
0.1800,-0.755599299
0.1850,-0.744608722
0.1900,-0.7347045571
0.1950,-0.7258170543
0.2000,-0.7179877795
0.2050,-0.7109773811
0.2100,-0.7048304851
0.2150,-0.6993099465
0.2200,-0.6943232648
0.2250,-0.689656288
0.2300,-0.6854028397
0.2350,-0.6813006632
0.2400,-0.6775856344
0.2450,-0.6738413024
0.2500,-0.6703649103
0.2550,-0.6670295037
0.2600,-0.6636258948
0.2650,-0.6603241344
0.2700,-0.6568132491
0.2750,-0.6530762874
0.2800,-0.6490724265
0.2850,-0.6449139923
0.2900,-0.6401906406
0.2950,-0.6349533747
0.3000,-0.628922678
0.3050,-0.6222601823
0.3100,-0.6148158595
0.3150,-0.6064486394
0.3200,-0.5972004972
0.3250,-0.5869706785
0.3300,-0.5759342793
0.3350,-0.5639619462
0.3400,-0.5511920911
0.3450,-0.5376218576
0.3500,-0.5232791628
0.3550,-0.5084245731
0.3600,-0.4928570399
0.3650,-0.4766072156
0.3700,-0.4598863554
0.3750,-0.4425814493
0.3800,-0.4247673591
0.3850,-0.406584113
0.3900,-0.3877284775
0.3950,-0.3685254668
0.4000,-0.348725653
0.4050,-0.3282658834
0.4100,-0.3072687938
0.4150,-0.2854889667
0.4200,-0.2629669878
0.4250,-0.2396259087
0.4300,-0.2157828758
0.4350,-0.1913186108
0.4400,-0.1662683718
0.4450,-0.1405542189
0.4500,-0.114284715
0.4550,-0.0875763594
0.4600,-0.06049482203
0.4650,-0.03317088897
0.4700,-0.005533520511
0.4750,0.02239841395
0.4800,0.05040384534
0.4850,0.07860240396
0.4900,0.106921396
0.4950,0.1355223279
0.5000,0.1644431158
0.5050,0.1936540033
0.5100,0.2233111214
0.5150,0.2534116162
0.5200,0.2838004271
0.5250,0.3146361465
0.5300,0.3459577164
0.5350,0.3779846912
0.5400,0.4108637904
0.5450,0.4446163169
0.5500,0.4792456735
0.5550,0.514809972
0.5600,0.5515026978
0.5650,0.5892919472
0.5700,0.6281044413
0.5750,0.6680835239
0.5800,0.7090795926
0.5850,0.7514468558
0.5900,0.7948240912
0.5950,0.8391127249
0.6000,0.8843697456
0.6050,0.9307139563
0.6100,0.9779172963
0.6150,1.026160937
0.6200,1.075334377
0.6250,1.125524008
0.6300,1.176721936
0.6350,1.228993365
0.6400,1.282537898
0.6450,1.337281132
0.6500,1.393322925
0.6550,1.450772934
0.6600,1.509545907
0.6650,1.569739369
0.6700,1.631433453
0.6750,1.69453679
0.6800,1.759082954
0.6850,1.825182798
0.6900,1.892675938
0.6950,1.961836162
0.7000,2.032497858
0.7050,2.104574581
0.7100,2.178144882
0.7150,2.253164509
0.7200,2.329930602
0.7250,2.408042156
0.7300,2.487740283
0.7350,2.569132346
0.7400,2.652175555
0.7450,2.736869075
0.7500,2.823382762
0.7550,2.911824146
0.7600,3.002314509
0.7650,3.094950439
0.7700,3.189553932
0.7750,3.286365617
0.7800,3.38546496
0.7850,3.486647203
0.7900,3.590098534
0.7950,3.695875263
0.8000,3.803955872
0.8050,3.914257132
0.8100,4.026905893
0.8150,4.141985275
0.8200,4.259626758
0.8250,4.37970863
0.8300,4.502376881
0.8350,4.627416918
0.8400,4.754798585
0.8450,4.884412137
0.8500,5.016431129
0.8550,5.150869599
0.8600,5.28761063
0.8650,5.42678433
0.8700,5.56841381
0.8750,5.712535511
0.8800,5.859287162
0.8850,6.008604431
0.8900,6.160524918
0.8950,6.315285337
0.9000,6.472670769
0.9050,6.63269484
0.9100,6.795687088
0.9150,6.961451737
0.9200,7.130327838
0.9250,7.302013417
0.9300,7.476939753
0.9350,7.654930812
0.9400,7.836082067
0.9450,8.020330019
0.9500,8.207700988
0.9550,8.398101495
0.9600,8.591344701
0.9650,8.787424392
0.9700,8.98620144
0.9750,9.187696828
0.9800,9.391911313
0.9850,9.598657979
0.9900,9.807939664
0.9950,10.01956485
1.0000,10.23369841
1.0050,10.45040723
1.0100,10.66963597
1.0150,10.89120835
1.0200,11.11514556
1.0250,11.34141758
1.0300,11.57010344
1.0350,11.80098425
1.0400,12.03414021
1.0450,12.26944294
1.0500,12.50685278
1.0550,12.7461362
1.0600,12.98726611
1.0650,13.23038964
1.0700,13.47552767
1.0750,13.72245998
1.0800,13.97113632
1.0850,14.22174749
1.0900,14.47395328
1.0950,14.72769914
1.1000,14.98293529
1.1050,15.23970268
1.1100,15.49793363
1.1150,15.75729613
1.1200,16.01781618
1.1250,16.27940881
1.1300,16.54204326
1.1350,16.80550538
1.1400,17.06979161
1.1450,17.33500953
1.1500,17.60098742
1.1550,17.86767278
1.1600,18.13481006
1.1650,18.40248256
1.1700,18.67068244
1.1750,18.93915355
1.1800,19.20791148
1.1850,19.47697474
1.1900,19.74651268
1.1950,20.01652762
1.2000,20.28725362
1.2050,20.5588953
1.2100,20.83138197
1.2150,21.10477291
1.2200,21.37892827
1.2250,21.65403199
1.2300,21.92988594
1.2350,22.20662649
1.2400,22.4841791
1.2450,22.76277347
1.2500,23.04232864
1.2550,23.32305027
1.2600,23.60525136
1.2650,23.88884671
1.2700,24.17411227
1.2750,24.46122537
1.2800,24.75002841
1.2850,25.04097155
1.2900,25.33409826
1.2950,25.62981662
1.3000,25.92790547
1.3050,26.22843288
1.3100,26.53154992
1.3150,26.83750705
1.3200,27.14613884
1.3250,27.45793974
1.3300,27.7726988
1.3350,28.09054727
1.3400,28.41145181
1.3450,28.73523752
1.3500,29.06185015
1.3550,29.39149361
1.3600,29.72408506
1.3650,30.05949872
1.3700,30.39785172
1.3750,30.73913961
1.3800,31.08352607
1.3850,31.43084752
1.3900,31.78170242
1.3950,32.13573744
1.4000,32.49321654
1.4050,32.85407133
1.4100,33.21832056
1.4150,33.58633672
1.4200,33.95774781
1.4250,34.3327374
1.4300,34.71127932
1.4350,35.09345598
1.4400,35.47917476
1.4450,35.86829336
1.4500,36.2607961
1.4550,36.65635581
1.4600,37.0551919
1.4650,37.4569657
1.4700,37.86157346
1.4750,38.26910203
1.4800,38.67963716
1.4850,39.09299194
1.4900,39.50914285
1.4950,39.92799341
1.5000,40.34927401
1.5050,40.7727373
1.5100,41.1985894
1.5150,41.62661258
1.5200,42.05694521
1.5250,42.48976695
1.5300,42.92500696
1.5350,43.36239069
1.5400,43.80224222
1.5450,44.2442072
1.5500,44.68835704
1.5550,45.13467825
1.5600,45.58277353
1.5650,46.03270222
1.5700,46.48427018
1.5750,46.93732076
1.5800,47.39204259
1.5850,47.84791686
1.5900,48.30503023
1.5950,48.76314578
1.6000,49.22227897
1.6050,49.68242105
1.6100,50.14356163
1.6150,50.60548004
1.6200,51.06837716
1.6250,51.53186698
1.6300,51.99624942
1.6350,52.46127794
1.6400,52.92690794
1.6450,53.39335564
1.6500,53.86049686
1.6550,54.32821236
1.6600,54.79656866
1.6650,55.26547586
1.6700,55.73458032
1.6750,56.20414668
1.6800,56.67362979
1.6850,57.14319289
1.6900,57.61229603
1.6950,58.08135762
1.7000,58.55019954
1.7050,59.01861998
1.7100,59.48683064
1.7150,59.95441762
1.7200,60.42164031
1.7250,60.88837736
1.7300,61.354764
1.7350,61.8208704
1.7400,62.28678583
1.7450,62.7523735
1.7500,63.21765286
1.7550,63.68298063
1.7600,64.14855723
1.7650,64.61415738
1.7700,65.07988209
1.7750,65.54584422
1.7800,66.01193166
1.7850,66.47869159
1.7900,66.94591874
1.7950,67.41378227
1.8000,67.88237649
1.8050,68.35171192
1.8100,68.82182076
1.8150,69.29287681
1.8200,69.76473967
1.8250,70.23741697
1.8300,70.71092685
1.8350,71.18566329
1.8400,71.6613169
1.8450,72.13803679
1.8500,72.61587811
1.8550,73.09470162
1.8600,73.5746026
1.8650,74.05567615
1.8700,74.53805392
1.8750,75.02149275
1.8800,75.50594906
1.8850,75.99181288
1.8900,76.47863108
1.8950,76.96645222
1.9000,77.45528264
1.9050,77.94506674
1.9100,78.4360574
1.9150,78.92822982
1.9200,79.42156579
1.9250,79.91600209
1.9300,80.41152802
1.9350,80.90829003
1.9400,81.40593201
1.9450,81.90465293
1.9500,82.40441359
1.9550,82.90519725
1.9600,83.40688488
1.9650,83.90950504
1.9700,84.41322422
1.9750,84.9179441
1.9800,85.42361036
1.9850,85.93033297
1.9900,86.43840067
1.9950,86.94729887
2.0000,87.45712986
2.0050,87.96794978
2.0100,88.4793585
2.0150,88.99173162
2.0200,89.50462883
2.0250,90.01812387
2.0300,90.53184667
2.0350,91.04574328
2.0400,91.55959967
2.0450,92.07333347
2.0500,92.58700199
2.0550,93.10031407
2.0600,93.61301442
2.0650,94.1253185
2.0700,94.63744696
2.0750,95.14903978
2.0800,95.6599873
2.0850,96.17006452
2.0900,96.67956983
2.0950,97.18834187
2.1000,97.69652768
2.1050,98.20423158
2.1100,98.71112808
2.1150,99.21727658
2.1200,99.72266685
2.1250,100.2272858
2.1300,100.7311852
2.1350,101.2341665
2.1400,101.7360382
2.1450,102.2369111
2.1500,102.7366211
2.1550,103.234818
2.1600,103.731738
2.1650,104.2273838
2.1700,104.7212068
2.1750,105.21368
2.1800,105.704723
2.1850,106.193864
2.1900,106.6814372
2.1950,107.1673589
2.2000,107.6517332
2.2050,108.1346818
2.2100,108.6158813
2.2150,109.0956385
2.2200,109.5735298
2.2250,110.0496731
2.2300,110.5238205
2.2350,110.996116
2.2400,111.466725
2.2450,111.9353941
2.2500,112.4017491
2.2550,112.8657039
2.2600,113.3273683
2.2650,113.7868067
2.2700,114.2438809
2.2750,114.6983257
2.2800,115.1502798
2.2850,115.5991447
2.2900,116.0452679
2.2950,116.4888259
2.3000,116.9295602
2.3050,117.3677458
2.3100,117.8035384
2.3150,118.2366171
2.3200,118.6673042
2.3250,119.0953587
2.3300,119.5211788
2.3350,119.944623
2.3400,120.365849
2.3450,120.7850728
2.3500,121.2023081
2.3550,121.6179865
2.3600,122.0320081
2.3650,122.4442789
2.3700,122.8548403
2.3750,123.2637951
2.3800,123.6713487
2.3850,124.077017
2.3900,124.4810904
2.3950,124.883609
2.4000,125.2847432
2.4050,125.6845325
2.4100,126.0832331
2.4150,126.4807748
2.4200,126.8775439
2.4250,127.2733842
2.4300,127.6682032
2.4350,128.0618052
2.4400,128.4545539
2.4450,128.8464626
2.4500,129.2375546
2.4550,129.627898
2.4600,130.017531
2.4650,130.4062638
2.4700,130.7943684
2.4750,131.1812458
2.4800,131.5669887
2.4850,131.951314
2.4900,132.3342845
2.4950,132.7161079
2.5000,133.0963531
2.5050,133.475167
2.5100,133.8525519
2.5150,134.2285684
2.5200,134.6034667
2.5250,134.9770699
2.5300,135.3497187
2.5350,135.7209437
2.5400,136.0907261
2.5450,136.4590353
2.5500,136.8260412
2.5550,137.1917207
2.5600,137.5556937
2.5650,137.9174816
2.5700,138.2770089
2.5750,138.6339837
2.5800,138.9886307
2.5850,139.3408344
2.5900,139.6902545
2.5950,140.0366352
2.6000,140.3803334
2.6050,140.7211425
2.6100,141.0590034
2.6150,141.3941649
2.6200,141.7265268
2.6250,142.0567356
2.6300,142.3842824
2.6350,142.7094556
2.6400,143.0321895
2.6450,143.352218
2.6500,143.6697289
2.6550,143.9845949
2.6600,144.2972368
2.6650,144.6081292
2.6700,144.9175748
2.6750,145.2255077
2.6800,145.5317035
2.6850,145.836632
2.6900,146.1396171
2.6950,146.4413348
2.7000,146.7411855
2.7050,147.03916
2.7100,147.3354269
2.7150,147.6300626
2.7200,147.9227656
2.7250,148.2139426
2.7300,148.5036532
2.7350,148.7921236
2.7400,149.0793424
2.7450,149.3655011
2.7500,149.6503175
2.7550,149.9339346
2.7600,150.2160605
2.7650,150.4971084
2.7700,150.776772
2.7750,151.0552887
2.7800,151.3324759
2.7850,151.6085763
2.7900,151.8830221
2.7950,152.1557132
2.8000,152.4265349
2.8050,152.6951864
2.8100,152.961695
2.8150,153.2255931
2.8200,153.4866052
2.8250,153.7446829
2.8300,153.9995436
2.8350,154.2513577
2.8400,154.5001234
2.8450,154.7459237
2.8500,154.9887334
2.8550,155.2285254
2.8600,155.465194
2.8650,155.6992517
2.8700,155.9308066
2.8750,156.1600918
2.8800,156.386998
2.8850,156.6120115
2.8900,156.8352695
2.8950,157.0569275
2.9000,157.2768545
2.9050,157.4957514
2.9100,157.7133547
2.9150,157.9297156
2.9200,158.1449416
2.9250,158.3587651
2.9300,158.5717217
2.9350,158.7836189
2.9400,158.9946287
2.9450,159.2049223
2.9500,159.4145505
2.9550,159.623536
2.9600,159.8316024
2.9650,160.0385971
2.9700,160.2439323
2.9750,160.4478372
2.9800,160.6502767
2.9850,160.8512477
2.9900,161.0508934
2.9950,161.2489232
3.0000,161.4456023
3.0050,161.6407968
3.0100,161.8345164
3.0150,162.026625
3.0200,162.2172233
3.0250,162.4058319
3.0300,162.5924891
3.0350,162.7773988
3.0400,162.9601442
3.0450,163.1406101
3.0500,163.319001
3.0550,163.4951354
3.0600,163.6689782
3.0650,163.8404631
3.0700,164.0097792
3.0750,164.1768294
3.0800,164.3417363
3.0850,164.5046694
3.0900,164.6657097
3.0950,164.8246153
3.1000,164.9815872
3.1050,165.1365779
3.1100,165.2891873
3.1150,165.4397214
3.1200,165.5882953
3.1250,165.7348095
3.1300,165.8794433
3.1350,166.0223356
3.1400,166.1634038
3.1450,166.302935
3.1500,166.4409035
3.1550,166.5774378
3.1600,166.7126571
3.1650,166.8465619
3.1700,166.9792076
3.1750,167.1105442
3.1800,167.2407415
3.1850,167.3698319
3.1900,167.4976623
3.1950,167.6243909
3.2000,167.7499756
3.2050,167.8741276
3.2100,167.9969848
3.2150,168.1186478
3.2200,168.2390524
3.2250,168.3579266
3.2300,168.4752151
3.2350,168.5909134
3.2400,168.704777
3.2450,168.8166254
3.2500,168.92619
3.2550,169.0332858
3.2600,169.1379527
3.2650,169.2400955
3.2700,169.3397235
3.2750,169.4370061
3.2800,169.532157
3.2850,169.6250001
3.2900,169.7158622
3.2950,169.8048153
3.3000,169.8918452
3.3050,169.9771695
3.3100,170.0606119
3.3150,170.1426772
3.3200,170.223359
3.3250,170.3031742
3.3300,170.3819129
3.3350,170.4599695
3.3400,170.537599
3.3450,170.614765
3.3500,170.6913262
3.3550,170.7674314
3.3600,170.8431769
3.3650,170.9184936
3.3700,170.9935337
3.3750,171.0681699
3.3800,171.1424924
3.3850,171.2163049
3.3900,171.2898302
3.3950,171.3633739
3.4000,171.4368758
3.4050,171.5104777
3.4100,171.5845075
3.4150,171.658923
3.4200,171.7338668
3.4250,171.809445
3.4300,171.8856408
3.4350,171.9626721
3.4400,172.0405307
3.4450,172.1190052
3.4500,172.1982612
3.4550,172.278202
3.4600,172.3588563
3.4650,172.4400134
3.4700,172.5215057
3.4750,172.6032571
3.4800,172.685232
3.4850,172.767229
3.4900,172.8492192
3.4950,172.9309539
3.5000,173.0124664
3.5050,173.0934141
3.5100,173.1738483
3.5150,173.2535799
3.5200,173.3325773
3.5250,173.4108726
3.5300,173.4881932
3.5350,173.5642691
3.5400,173.6391275
3.5450,173.7127139
3.5500,173.7851865
3.5550,173.8567261
3.5600,173.9271622
3.5650,173.9965377
3.5700,174.0649098
3.5750,174.132119
3.5800,174.1981588
3.5850,174.2633009
3.5900,174.327253
3.5950,174.390195
3.6000,174.4521864
3.6050,174.5133538
3.6100,174.5736792
3.6150,174.6330873
3.6200,174.6916758
3.6250,174.7495146
3.6300,174.8068051
3.6350,174.8632132
3.6400,174.9186966
3.6450,174.9737598
3.6500,175.0286801
3.6550,175.0836402
3.6600,175.1387392
3.6650,175.1937106
3.6700,175.2487769
3.6750,175.304263
3.6800,175.3601349
3.6850,175.4164312
3.6900,175.473388
3.6950,175.5310894
3.7000,175.5899483
3.7050,175.6502184
3.7100,175.7120764
3.7150,175.775734
3.7200,175.8412803
3.7250,175.9087138
3.7300,175.9781505
3.7350,176.0495655
3.7400,176.1233211
3.7450,176.1992629
3.7500,176.2773263
3.7550,176.3575157
3.7600,176.4397459
3.7650,176.5237934
3.7700,176.6098466
3.7750,176.6975446
3.7800,176.7865367
3.7850,176.8764992
3.7900,176.9672056
3.7950,177.0583806
3.8000,177.1499314
3.8050,177.2418114
3.8100,177.3335455
3.8150,177.4251067
3.8200,177.516199
3.8250,177.6067155
3.8300,177.6963474
3.8350,177.7851278
3.8400,177.8729721
3.8450,177.959869
3.8500,178.0455337
3.8550,178.1296761
3.8600,178.2122897
3.8650,178.2931616
3.8700,178.3723637
3.8750,178.4497164
3.8800,178.5251981
3.8850,178.5985253
3.8900,178.6698258
3.8950,178.7387188
3.9000,178.8051845
3.9050,178.8690734
3.9100,178.9304879
3.9150,178.9892527
3.9200,179.0452329
3.9250,179.0984334
3.9300,179.1488569
3.9350,179.1967248
3.9400,179.2422821
3.9450,179.2852192
3.9500,179.3258324
3.9550,179.3639585
3.9600,179.3998109
3.9650,179.4335857
3.9700,179.4653136
3.9750,179.495087
3.9800,179.5231272
3.9850,179.5496873
3.9900,179.5749049
3.9950,179.5990237
4.0000,179.6219775
4.0050,179.6436647
4.0100,179.6642761
4.0150,179.6837581
4.0200,179.7023433
4.0250,179.7201963
4.0300,179.7374126
4.0350,179.7540739
4.0400,179.770029
4.0450,179.7854936
4.0500,179.8005769
4.0550,179.8150977
4.0600,179.8293225
4.0650,179.8432656
4.0700,179.8566836
4.0750,179.8697933
4.0800,179.8826953
4.0850,179.8953618
4.0900,179.9080269
4.0950,179.9206867
4.1000,179.9330577
4.1050,179.944972
4.1100,179.95673
4.1150,179.968025
4.1200,179.9789833
4.1250,179.9894926
4.1300,179.999573
4.1350,-179.9908032
4.1400,-179.9817715
4.1450,-179.9732968
4.1500,-179.9654573
4.1550,-179.958418
4.1600,-179.9522362
4.1650,-179.9468895
4.1700,-179.9424558
4.1750,-179.9390105
4.1800,-179.9367825
4.1850,-179.9356638
4.1900,-179.9358942
4.1950,-179.937351
4.2000,-179.9401688
4.2050,-179.9443583
4.2100,-179.9499991
4.2150,-179.9571375
4.2200,-179.9657627
4.2250,-179.9760408
4.2300,-179.9878724
4.2350,179.9983479
4.2400,179.9825505
4.2450,179.9648482
4.2500,179.9447178
4.2550,179.9222053
4.2600,179.8971115
4.2650,179.8697207
4.2700,179.8397869
4.2750,179.8073809
4.2800,179.7721491
4.2850,179.7341378
4.2900,179.6931502
4.2950,179.6490316
4.3000,179.6017636
4.3050,179.5512178
4.3100,179.4975833
4.3150,179.4406455
4.3200,179.3801697
4.3250,179.3161753
4.3300,179.2488169
4.3350,179.1779361
4.3400,179.1037027
4.3450,179.0262219
4.3500,178.9455214
4.3550,178.8618161
4.3600,178.7751132
4.3650,178.685404
4.3700,178.5927954
4.3750,178.4974464
4.3800,178.3993934
4.3850,178.2988416
4.3900,178.1956533
4.3950,178.0901363
4.4000,177.9823785
4.4050,177.8725374
4.4100,177.7606049
4.4150,177.646696
4.4200,177.5308302
4.4250,177.4130222
4.4300,177.2935417
4.4350,177.1723403
4.4400,177.0494088
4.4450,176.9247987
4.4500,176.7984722
4.4550,176.6707756
4.4600,176.5417246
4.4650,176.4113185
4.4700,176.2797344
4.4750,176.146857
4.4800,176.0129917
4.4850,175.8780805
4.4900,175.7422186
4.4950,175.6055077
4.5000,175.4680348
4.5050,175.3299158
4.5100,175.1908868
4.5150,175.0513045
4.5200,174.9109816
4.5250,174.7699325
4.5300,174.6280762
4.5350,174.4857671
4.5400,174.3430821
4.5450,174.1997659
4.5500,174.0562222
4.5550,173.9126125
4.5600,173.768992
4.5650,173.6253099
4.5700,173.4816259
4.5750,173.3378059
4.5800,173.1943034
4.5850,173.0510594
4.5900,172.9081599
4.5950,172.7655411
4.6000,172.6233634
4.6050,172.4817096
4.6100,172.3405502
4.6150,172.1999195
4.6200,172.0598533
4.6250,171.9205222
4.6300,171.7815953
4.6350,171.6432376
4.6400,171.5053395
4.6450,171.3678179
4.6500,171.2305369
4.6550,171.0936599
4.6600,170.9568103
4.6650,170.8201892
4.6700,170.6836091
4.6750,170.547078
4.6800,170.4105157
4.6850,170.2735052
4.6900,170.1360818
4.6950,169.9981182
4.7000,169.8596454
4.7050,169.7206136
4.7100,169.5808335
4.7150,169.4404969
4.7200,169.2995007
4.7250,169.1578279
4.7300,169.0151818
4.7350,168.8716579
4.7400,168.7274531
4.7450,168.582511
4.7500,168.4368035
4.7550,168.2900391
4.7600,168.1422724
4.7650,167.9932034
4.7700,167.8426334
4.7750,167.6906413
4.7800,167.5371389
4.7850,167.3822513
4.7900,167.2261084
4.7950,167.0684789
4.8000,166.9097067
4.8050,166.74964
4.8100,166.5882786
4.8150,166.4254447
4.8200,166.2608781
4.8250,166.0945797
4.8300,165.9262945
4.8350,165.7558861
4.8400,165.5832527
4.8450,165.4086349
4.8500,165.2320948
4.8550,165.0534432
4.8600,164.8726606
4.8650,164.6896583
4.8700,164.50445
4.8750,164.3169736
4.8800,164.1270952
4.8850,163.9348719
4.8900,163.7402103
4.8950,163.5431419
4.9000,163.3432563
4.9050,163.140659
4.9100,162.9347986
4.9150,162.725882
4.9200,162.5136869
4.9250,162.2979926
4.9300,162.0788024
4.9350,161.855736
4.9400,161.628796
4.9450,161.397996
4.9500,161.1634892
4.9550,160.9250012
4.9600,160.6824024
4.9650,160.4355315
4.9700,160.1844581
4.9750,159.9288459
4.9800,159.6689242
4.9850,159.4048837
4.9900,159.1367614
4.9950,158.8643812
5.0000,158.5877876
5.0050,158.3065944
5.0100,158.0205491
5.0150,157.7291643
5.0200,157.4326276
5.0250,157.1310048
5.0300,156.8243832
5.0350,156.5124839
5.0400,156.1950526
5.0450,155.8718028
5.0500,155.5428714
5.0550,155.2082942
5.0600,154.8681679
5.0650,154.5225516
5.0700,154.1712668
5.0750,153.8143672
5.0800,153.4516172
5.0850,153.0828513
5.0900,152.7080846
5.0950,152.3272186
5.1000,151.9401557
5.1050,151.5466818
5.1100,151.147282
5.1150,150.7416944
5.1200,150.3304872
5.1250,149.9133572
5.1300,149.4904383
5.1350,149.0616067
5.1400,148.6265057
5.1450,148.1851612
5.1500,147.7374004
5.1550,147.2831812
5.1600,146.822509
5.1650,146.3552264
5.1700,145.8811244
5.1750,145.4001157
5.1800,144.9120829
5.1850,144.4169357
5.1900,143.9149133
5.1950,143.4059204
5.2000,142.8902649
5.2050,142.3679773
5.2100,141.8394991
5.2150,141.3046874
5.2200,140.7635758
5.2250,140.2160761
5.2300,139.6622838
5.2350,139.1022471
5.2400,138.5361428
5.2450,137.9638239
5.2500,137.3850878
5.2550,136.799845
5.2600,136.2081695
5.2650,135.6104044
5.2700,135.0062214
5.2750,134.3958253
5.2800,133.7791247
5.2850,133.1564375
5.2900,132.5277264
5.2950,131.8935301
5.3000,131.2539309
5.3050,130.6090958
5.3100,129.9593564
5.3150,129.3046003
5.3200,128.6443443
5.3250,127.9785881
5.3300,127.3070398
5.3350,126.6301684
5.3400,125.9478547
5.3450,125.2605854
5.3500,124.5681088
5.3550,123.8705968
5.3600,123.1677931
5.3650,122.4603573
5.3700,121.749081
5.3750,121.0347121
5.3800,120.3173931
5.3850,119.5974498
5.3900,118.8748146
5.3950,118.1497216
5.4000,117.4219815
5.4050,116.6924222
5.4100,115.9606678
5.4150,115.2271673
5.4200,114.4920767
5.4250,113.7556914
5.4300,113.0181603
5.4350,112.2795297
5.4400,111.540277
5.4450,110.8005388
5.4500,110.0599601
5.4550,109.3184476
5.4600,108.5759706
5.4650,107.8322362
5.4700,107.0870034
5.4750,106.3402512
5.4800,105.5917959
5.4850,104.8415935
5.4900,104.0899779
5.4950,103.3369358
5.5000,102.5826782
5.5050,101.8271584
5.5100,101.0703758
5.5150,100.3128344
5.5200,99.55511736
5.5250,98.79712967
5.5300,98.03879766
5.5350,97.28075318
5.5400,96.52262748
5.5450,95.7649626
5.5500,95.00774543
5.5550,94.25108722
5.5600,93.49572425
5.5650,92.74147768
5.5700,91.98923495
5.5750,91.2388865
5.5800,90.49077437
5.5850,89.7451807
5.5900,89.00205517
5.5950,88.26139328
5.6000,87.52364019
5.6050,86.78926241
5.6100,86.0584826
5.6150,85.33133674
5.6200,84.60826557
5.6250,83.88961878
5.6300,83.17571884
5.6350,82.46687384
5.6400,81.7634719
5.6450,81.06551858
5.6500,80.3737092
5.6550,79.68804793
5.6600,79.00871506
5.6650,78.33542305
5.6700,77.668145
5.6750,77.00684992
5.6800,76.35186185
5.6850,75.7026095
5.6900,75.05944388
5.6950,74.42242997
5.7000,73.79147932
5.7050,73.16652998
5.7100,72.54736387
5.7150,71.93412837
5.7200,71.32584535
5.7250,70.72285055
5.7300,70.12472522
5.7350,69.53143689
5.7400,68.94299806
5.7450,68.35901357
5.7500,67.77979475
5.7550,67.20437022
5.7600,66.63244515
5.7650,66.06360468
5.7700,65.49778871
5.7750,64.93454785
5.7800,64.37367777
5.7850,63.81537063
5.7900,63.2594256
5.7950,62.70553849
5.8000,62.15363198
5.8050,61.60354692
5.8100,61.05515534
5.8150,60.50870947
5.8200,59.96435573
5.8250,59.4226257
5.8300,58.88363323
5.8350,58.34706941
5.8400,57.81340485
5.8450,57.28243011
5.8500,56.75431933
5.8550,56.22979589
5.8600,55.70875403
5.8650,55.19146138
5.8700,54.6778426
5.8750,54.16869219
5.8800,53.66415931
5.8850,53.16402823
5.8900,52.66828218
5.8950,52.17694519
5.9000,51.69010595
5.9050,51.20789898
5.9100,50.73072997
5.9150,50.25907577
5.9200,49.79296377
5.9250,49.33237652
5.9300,48.87747033
5.9350,48.42814217
5.9400,47.98475507
5.9450,47.54720198
5.9500,47.1154989
5.9550,46.68939768
5.9600,46.26881582
5.9650,45.85378705
5.9700,45.44426562
5.9750,45.04023853
5.9800,44.64170106
5.9850,44.24881798
5.9900,43.86108488
5.9950,43.47864499
6.0000,43.10106588
6.0050,42.72759948
6.0100,42.3583606
6.0150,41.99272908
6.0200,41.63110611
6.0250,41.27275021
6.0300,40.91754139
6.0350,40.5650124
6.0400,40.21484021
6.0450,39.86690407
6.0500,39.52108453
6.0550,39.17760708
6.0600,38.83628281
6.0650,38.49720699
6.0700,38.1602289
6.0750,37.82518759
6.0800,37.49221139
6.0850,37.16090495
6.0900,36.83091395
6.0950,36.50242187
6.1000,36.17526753
6.1050,35.84942847
6.1100,35.52519217
6.1150,35.20261221
6.1200,34.88174005
6.1250,34.56234704
6.1300,34.24468862
6.1350,33.92885866
6.1400,33.61473024
6.1450,33.30257851
6.1500,32.9922904
6.1550,32.68363084
6.1600,32.37657877
6.1650,32.07153472
6.1700,31.76826772
6.1750,31.46651514
6.1800,31.16611754
6.1850,30.86706165
6.1900,30.56950822
6.1950,30.27374597
6.2000,29.97971324
6.2050,29.6875647
6.2100,29.39718319
6.2150,29.10842954
6.2200,28.82144078
6.2250,28.5361571
6.2300,28.25252419
6.2350,27.97063943
6.2400,27.69016365
6.2450,27.41090926
6.2500,27.13297474
6.2550,26.85639256
6.2600,26.58103501
6.2650,26.30676187
6.2700,26.03349725
6.2750,25.76141801
6.2800,25.49011126
6.2850,25.21980281
6.2900,24.95022142
6.2950,24.68130605
6.3000,24.41305206
6.3050,24.14553793
6.3100,23.8787979
6.3150,23.61299817
6.3200,23.3477943
6.3250,23.0833817
6.3300,22.81981665
6.3350,22.5571319
6.3400,22.29565435
6.3450,22.03542269
6.3500,21.77641737
6.3550,21.5188417
6.3600,21.26288884
6.3650,21.00870846
6.3700,20.75658112
6.3750,20.506541
6.3800,20.25849583
6.3850,20.01250479
6.3900,19.76880591
6.3950,19.5273795
6.4000,19.28820325
6.4050,19.05156546
6.4100,18.81723039
6.4150,18.58537692
6.4200,18.35585349
6.4250,18.12879852
6.4300,17.90439489
6.4350,17.6827315
6.4400,17.46408558
6.4450,17.24841013
6.4500,17.03595048
6.4550,16.82672088
6.4600,16.62063314
6.4650,16.41773597
6.4700,16.21817733
6.4750,16.02212005
6.4800,15.82951073
6.4850,15.64061287
6.4900,15.45540041
6.4950,15.27387564
6.5000,15.09604907
6.5050,14.92188645
6.5100,14.75141511
6.5150,14.58483854
6.5200,14.42204354
6.5250,14.26291785
6.5300,14.10751182
6.5350,13.9555344
6.5400,13.80711596
6.5450,13.66244129
6.5500,13.52133734
6.5550,13.38380775
6.5600,13.24984441
6.5650,13.1193236
6.5700,12.99209084
6.5750,12.86815653
6.5800,12.74754357
6.5850,12.62997422
6.5900,12.51564565
6.5950,12.40420099
6.6000,12.2955711
6.6050,12.18970704
6.6100,12.08642345
6.6150,11.98555361
6.6200,11.88706659
6.6250,11.79110548
6.6300,11.69718834
6.6350,11.60547297
6.6400,11.51565045
6.6450,11.42788101
6.6500,11.3420239
6.6550,11.25789457
6.6600,11.17543679
6.6650,11.09466479
6.6700,11.01528818
6.6750,10.93709531
6.6800,10.86012205
6.6850,10.78420541
6.6900,10.70918321
6.6950,10.63494987
6.7000,10.5613017
6.7050,10.48806374
6.7100,10.41509585
6.7150,10.34211697
6.7200,10.26899889
6.7250,10.19565842
6.7300,10.12176066
6.7350,10.04709699
6.7400,9.971611877
6.7450,9.895149047
6.7500,9.817524031
6.7550,9.738724229
6.7600,9.658676722
6.7650,9.577281162
6.7700,9.494512395
6.7750,9.410473272
6.7800,9.325309587
6.7850,9.238848235
6.7900,9.151068745
6.7950,9.062059648
6.8000,8.971888601
6.8050,8.880600388
6.8100,8.788392642
6.8150,8.695395599
6.8200,8.60164821
6.8250,8.507524045
6.8300,8.413140621
6.8350,8.318946977
6.8400,8.225119107
6.8450,8.131900927
6.8500,8.039494421
6.8550,7.948193756
6.8600,7.858289537
6.8650,7.769882923
6.8700,7.68361358
6.8750,7.599437308
6.8800,7.517730556
6.8850,7.438536553
6.8900,7.361977837
6.8950,7.288216817
6.9000,7.217346308
6.9050,7.14946834
6.9100,7.084741388
6.9150,7.023120462
6.9200,6.964669028
6.9250,6.90925583
6.9300,6.857096968
6.9350,6.808105425
6.9400,6.762314625
6.9450,6.719446839
6.9500,6.679540038
6.9550,6.642512115
6.9600,6.608333829
6.9650,6.576651868
6.9700,6.547376653
6.9750,6.520559555
6.9800,6.495856751
6.9850,6.473204221
6.9900,6.452447448
6.9950,6.433204235
7.0000,6.415575509
7.0050,6.399223598
7.0100,6.383868876
7.0150,6.369323262
7.0200,6.355398214
7.0250,6.341853819
7.0300,6.328460307
7.0350,6.315220794
7.0400,6.301716479
7.0450,6.287810004
7.0500,6.273317027
7.0550,6.25801776
7.0600,6.241841181
7.0650,6.224673137
7.0700,6.206637467
7.0750,6.187533663
7.0800,6.167415027
7.0850,6.14635191
7.0900,6.124463072
7.0950,6.101682882
7.1000,6.078219243
7.1050,6.054269407
7.1100,6.030006652
7.1150,6.005437964
7.1200,5.98089268
7.1250,5.956485496
7.1300,5.932371671
7.1350,5.908683042
7.1400,5.885724705
7.1450,5.863511291
7.1500,5.842246019
7.1550,5.821904516
7.1600,5.802591708
7.1650,5.784531743
7.1700,5.767759208
7.1750,5.752513113
7.1800,5.738722612
7.1850,5.726633838
7.1900,5.716318464
7.1950,5.707782919
7.2000,5.701296968
7.2050,5.696878251
7.2100,5.694601811
7.2150,5.694740245
7.2200,5.697529128
7.2250,5.702940323
7.2300,5.711129298
7.2350,5.72230161
7.2400,5.736516264
7.2450,5.754023591
7.2500,5.774943458
7.2550,5.799321742
7.2600,5.827074161
7.2650,5.858495797
7.2700,5.893725241
7.2750,5.932738824
7.2800,5.97559795
7.2850,6.022355312
7.2900,6.07296073
7.2950,6.12756244
7.3000,6.18583969
7.3050,6.247941201
7.3100,6.313936117
7.3150,6.383679102
7.3200,6.457240693
7.3250,6.534348798
7.3300,6.615160907
7.3350,6.699549628
7.3400,6.78740331
7.3450,6.878865013
7.3500,6.973937119
7.3550,7.072535558
7.3600,7.174655943
7.3650,7.280503088
7.3700,7.389835921
7.3750,7.502728652
7.3800,7.619105096
7.3850,7.738948586
7.3900,7.862154942
7.3950,7.988725085
7.4000,8.118627089
7.4050,8.251795839
7.4100,8.388143902
7.4150,8.527673902
7.4200,8.670173967
7.4250,8.815761819
7.4300,8.964209642
7.4350,9.115282678
7.4400,9.268911089
7.4450,9.425229696
7.4500,9.584219977
7.4550,9.745736419
7.4600,9.909685118
7.4650,10.0760484
7.4700,10.24473634
7.4750,10.41561675
7.4800,10.58877938
7.4850,10.76441904
7.4900,10.94245024
7.4950,11.12308587
7.5000,11.30635956
7.5050,11.4922164
7.5100,11.68068556
7.5150,11.87169785
7.5200,12.06512436
7.5250,12.2611369
7.5300,12.45968997
7.5350,12.66061275
7.5400,12.86382925
7.5450,13.06946925
7.5500,13.277275
7.5550,13.48741228
7.5600,13.69993856
7.5650,13.9147462
7.5700,14.13172858
7.5750,14.35071448
7.5800,14.57176413
7.5850,14.79469236
7.5900,15.01950635
7.5950,15.24589138
7.6000,15.47403064
7.6050,15.70344226
7.6100,15.93420427
7.6150,16.16611394
7.6200,16.39915956
7.6250,16.63353723
7.6300,16.86882614
7.6350,17.10510619
7.6400,17.34237871
7.6450,17.58044181
7.6500,17.81926732
7.6550,18.05874054
7.6600,18.29884814
7.6650,18.53934709
7.6700,18.78025211
7.6750,19.02147866
7.6800,19.26307085
7.6850,19.50484791
7.6900,19.74708617
7.6950,19.98970931
7.7000,20.2326732
7.7050,20.47602299
7.7100,20.71962448
7.7150,20.96350004
7.7200,21.20763957
7.7250,21.45184188
7.7300,21.69634048
7.7350,21.9412132
7.7400,22.18631065
7.7450,22.43174172
7.7500,22.67727317
7.7550,22.92319863
7.7600,23.16962571
7.7650,23.41665398
7.7700,23.66437892
7.7750,23.91276535
7.7800,24.16184506
7.7850,24.41149532
7.7900,24.66180296
7.7950,24.9128848
7.8000,25.16466909
7.8050,25.41719983
7.8100,25.67082955
7.8150,25.92558597
7.8200,26.18155064
7.8250,26.43881451
7.8300,26.69737105
7.8350,26.95733291
7.8400,27.21886955
7.8450,27.48187572
7.8500,27.74650658
7.8550,28.01252889
7.8600,28.28003448
7.8650,28.54893868
7.8700,28.81923782
7.8750,29.09097532
7.8800,29.36434372
7.8850,29.63927645
7.8900,29.9158535
7.8950,30.19434237
7.9000,30.47475697
7.9050,30.75703472
7.9100,31.04134085
7.9150,31.32771864
7.9200,31.6160811
7.9250,31.90622113
7.9300,32.19835841
7.9350,32.49238248
7.9400,32.78843313
7.9450,33.0863416
7.9500,33.3862218
7.9550,33.68826983
7.9600,33.99257166
7.9650,34.29908031
7.9700,34.60789428
7.9750,34.91894818
7.9800,35.23225778
7.9850,35.54797207
7.9900,35.86575477
7.9950,36.18568479
8.0000,36.50787119
8.0050,36.83200097
8.0100,37.15843443
8.0150,37.48709044
8.0200,37.81784779
8.0250,38.15099058
8.0300,38.48669546
8.0350,38.82496538
8.0400,39.16577546
8.0450,39.5088665
8.0500,39.85464993
8.0550,40.20289361
8.0600,40.55336607
8.0650,40.90599589
8.0700,41.26075902
8.0750,41.61762487
8.0800,41.97666126
8.0850,42.33786219
8.0900,42.70142893
8.0950,43.06735516
8.1000,43.43562542
8.1050,43.8064339
8.1100,44.1793748
8.1150,44.55458054
8.1200,44.93197636
8.1250,45.3115084
8.1300,45.69321037
8.1350,46.07713274
8.1400,46.46333537
8.1450,46.85191881
8.1500,47.24322004
8.1550,47.63724714
8.1600,48.03409076
8.1650,48.43388885
8.1700,48.8368773
8.1750,49.24344937
8.1800,49.65318827
8.1850,50.06637262
8.1900,50.48301543
8.1950,50.90321363
8.2000,51.32689955
8.2050,51.75461906
8.2100,52.1860678
8.2150,52.62163483
8.2200,53.06099361
8.2250,53.50436368
8.2300,53.95197663
8.2350,54.40353529
8.2400,54.85908388
8.2450,55.31878668
8.2500,55.78260236
8.2550,56.25036515
8.2600,56.72210364
8.2650,57.19760543
8.2700,57.67690699
8.2750,58.16041744
8.2800,58.64790285
8.2850,59.13906553
8.2900,59.63428175
8.2950,60.13341751
8.3000,60.6362894
8.3050,61.14303438
8.3100,61.6533713
8.3150,62.16721336
8.3200,62.68478989
8.3250,63.20578321
8.3300,63.72986024
8.3350,64.25677414
8.3400,64.7866985
8.3450,65.31930964
8.3500,65.85436153
8.3550,66.39183271
8.3600,66.93155875
8.3650,67.47330608
8.3700,68.01682655
8.3750,68.56214601
8.3800,69.10916402
8.3850,69.65774784
8.3900,70.20751709
8.3950,70.75794541
8.4000,71.30934089
8.4050,71.86127475
8.4100,72.41393824
8.4150,72.96709128
8.4200,73.52052401
8.4250,74.07413274
8.4300,74.62794903
8.4350,75.18179563
8.4400,75.73562338
8.4450,76.28925037
8.4500,76.84252763
8.4550,77.39558517
8.4600,77.94878686
8.4650,78.50181747
8.4700,79.05469038
8.4750,79.60773137
8.4800,80.1611446
8.4850,80.71468486
8.4900,81.26864385
8.4950,81.82311769
8.5000,82.37818972
8.5050,82.93389294
8.5100,83.49028261
8.5150,84.04712084
8.5200,84.60496298
8.5250,85.16377075
8.5300,85.72356056
8.5350,86.28447192
8.5400,86.84659668
8.5450,87.41011252
8.5500,87.97506196
8.5550,88.54120058
8.5600,89.10848885
8.5650,89.67734271
8.5700,90.24776325
8.5750,90.81910535
8.5800,91.3916869
8.5850,91.96598071
8.5900,92.54138436
8.5950,93.11822842
8.6000,93.69650614
8.6050,94.2761318
8.6100,94.85701207
8.6150,95.43906683
8.6200,96.02229547
8.6250,96.60663618
8.6300,97.19156003
8.6350,97.77718556
8.6400,98.3632767
8.6450,98.94972301
8.6500,99.53619967
8.6550,100.1224842
8.6600,100.7081448
8.6650,101.2929465
8.6700,101.8764351
8.6750,102.4584716
8.6800,103.0387721
8.6850,103.6168382
8.6900,104.1924205
8.6950,104.7654049
8.7000,105.3355438
8.7050,105.9025537
8.7100,106.4660951
8.7150,107.0262164
8.7200,107.5829091
8.7250,108.1361242
8.7300,108.685224
8.7350,109.2303883
8.7400,109.7714625
8.7450,110.308555
8.7500,110.8416295
8.7550,111.3706615
8.7600,111.8953206
8.7650,112.4160548
8.7700,112.9328938
8.7750,113.4456347
8.7800,113.9546078
8.7850,114.4597261
8.7900,114.9604873
8.7950,115.4571227
8.8000,115.9492974
8.8050,116.4370927
8.8100,116.920399
8.8150,117.3995877
8.8200,117.8743936
8.8250,118.3450357
8.8300,118.8112
8.8350,119.2730197
8.8400,119.7307136
8.8450,120.1843538
8.8500,120.6338773
8.8550,121.0799983
8.8600,121.5222981
8.8650,121.9611242
8.8700,122.3960998
8.8750,122.8278092
8.8800,123.2559641
8.8850,123.6804788
8.8900,124.1016505
8.8950,124.5193047
8.9000,124.933387
8.9050,125.344067
8.9100,125.7514822
8.9150,126.1555268
8.9200,126.5557385
8.9250,126.952024
8.9300,127.3449191
8.9350,127.7344747
8.9400,128.1208399
8.9450,128.5044936
8.9500,128.8856224
8.9550,129.2642731
8.9600,129.6407517
8.9650,130.0151706
8.9700,130.3878896
8.9750,130.7592578
8.9800,131.1290956
8.9850,131.4980568
8.9900,131.8663833
8.9950,132.2342975
9.0000,132.601823
9.0050,132.968815
9.0100,133.3353903
9.0150,133.7016041
9.0200,134.0675599
9.0250,134.4334119
9.0300,134.7994127
9.0350,135.1653259
9.0400,135.5310225
9.0450,135.8963363
9.0500,136.2612572
9.0550,136.6255863
9.0600,136.9890986
9.0650,137.351718
9.0700,137.7133858
9.0750,138.0741903
9.0800,138.4336896
9.0850,138.7924403
9.0900,139.1504898
9.0950,139.5076623
9.1000,139.8641173
9.1050,140.2197447
9.1100,140.5748667
9.1150,140.9293394
9.1200,141.2834748
9.1250,141.636898
9.1300,141.9901021
9.1350,142.3429463
9.1400,142.6949097
9.1450,143.0458983
9.1500,143.3957188
9.1550,143.743973
9.1600,144.0906481
9.1650,144.4351624
9.1700,144.7778732
9.1750,145.1185307
9.1800,145.4571152
9.1850,145.7933289
9.1900,146.1274165
9.1950,146.459389
9.2000,146.7892887
9.2050,147.116882
9.2100,147.4417247
9.2150,147.7639635
9.2200,148.0834825
9.2250,148.4004304
9.2300,148.7146912
9.2350,149.0267031
9.2400,149.3361081
9.2450,149.6425609
9.2500,149.9462912
9.2550,150.247607
9.2600,150.5464143
9.2650,150.8427834
9.2700,151.1369368
9.2750,151.4288739
9.2800,151.7192034
9.2850,152.0079426
9.2900,152.2950649
9.2950,152.5806791
9.3000,152.8648069
9.3050,153.1477624
9.3100,153.4294192
9.3150,153.7094741
9.3200,153.9879498
9.3250,154.2644284
9.3300,154.5389907
9.3350,154.8115584
9.3400,155.0821301
9.3450,155.3506215
9.3500,155.6163513
9.3550,155.8796052
9.3600,156.1401995
9.3650,156.3978969
9.3700,156.6525746
9.3750,156.9041957
9.3800,157.152976
9.3850,157.3988629
9.3900,157.6418964
9.3950,157.8819385
9.4000,158.1186493
9.4050,158.3513838
9.4100,158.5797259
9.4150,158.8032737
9.4200,159.0214837
9.4250,159.2346424
9.4300,159.4427319
9.4350,159.6456858
9.4400,159.8440698
9.4450,160.0377846
9.4500,160.226999
9.4550,160.4118811
9.4600,160.5926677
9.4650,160.7695287
9.4700,160.9424042
9.4750,161.1112865
9.4800,161.2763031
9.4850,161.4379472
9.4900,161.5959463
9.4950,161.7505385
9.5000,161.901729
9.5050,162.0498464
9.5100,162.1954044
9.5150,162.3387088
9.5200,162.4798848
9.5250,162.6191964
9.5300,162.7567014
9.5350,162.8923492
9.5400,163.0262436
9.5450,163.1585664
9.5500,163.2890475
9.5550,163.4178309
9.5600,163.5452584
9.5650,163.6714618
9.5700,163.7965799
9.5750,163.9208389
9.5800,164.0445391
9.5850,164.1674188
9.5900,164.2896989
9.5950,164.4115252
9.6000,164.5331186
9.6050,164.6546433
9.6100,164.7761827
9.6150,164.8977586
9.6200,165.0192707
9.6250,165.140913
9.6300,165.2623209
9.6350,165.3833976
9.6400,165.5042805
9.6450,165.6248715
9.6500,165.7451262
9.6550,165.8644761
9.6600,165.9828125
9.6650,166.1004349
9.6700,166.2173671
9.6750,166.3333518
9.6800,166.4482972
9.6850,166.5616405
9.6900,166.6734582
9.6950,166.7835248
9.7000,166.8922323
9.7050,167.000264
9.7100,167.1077403
9.7150,167.2152162
9.7200,167.3227199
9.7250,167.4301888
9.7300,167.5374903
9.7350,167.6448307
9.7400,167.7521505
9.7450,167.8594975
9.7500,167.9671835
9.7550,168.0751618
9.7600,168.183316
9.7650,168.2916091
9.7700,168.3998026
9.7750,168.5079098
9.7800,168.6160061
9.7850,168.7241366
9.7900,168.8324513
9.7950,168.9411431
9.8000,169.0502931
9.8050,169.1596332
9.8100,169.2689228
9.8150,169.3780002
9.8200,169.4872875
9.8250,169.5966188
9.8300,169.7061536
9.8350,169.8158117
9.8400,169.925201
9.8450,170.0340278
9.8500,170.1419846
9.8550,170.2487634
9.8600,170.3541835
9.8650,170.4579479
9.8700,170.5598084
9.8750,170.6593096
9.8800,170.7559461
9.8850,170.8497063
9.8900,170.9403399
9.8950,171.0278018
9.9000,171.1118466
9.9050,171.1925844
9.9100,171.2696403
9.9150,171.3431122
9.9200,171.4133161
9.9250,171.480183
9.9300,171.5437245
9.9350,171.6042478
9.9400,171.6615545
9.9450,171.7159572
9.9500,171.7675181
9.9550,171.816499
9.9600,171.863065
9.9650,171.9069792
9.9700,171.948198
9.9750,171.9868187
9.9800,172.0224766
9.9850,172.0554928
9.9900,172.0854488
9.9950,172.1124962
10.0000,172.1363203
10.0050,172.1563885
10.0100,172.1727206
10.0150,172.18514
10.0200,172.1940267
10.0250,172.199631
10.0300,172.2019025
10.0350,172.2010523
10.0400,172.196881
10.0450,172.1896484
10.0500,172.1788541
10.0550,172.1646368
10.0600,172.1470853
10.0650,172.1264788
10.0700,172.1030082
10.0750,172.0768134
10.0800,172.0478977
10.0850,172.0159453
10.0900,171.9809467
10.0950,171.9425875
10.1000,171.9005539
10.1050,171.8550289
10.1100,171.8060528
10.1150,171.7536991
10.1200,171.6977481
10.1250,171.6381149
10.1300,171.5746442
10.1350,171.5070705
10.1400,171.4355355
10.1450,171.3600003
10.1500,171.2808036
10.1550,171.1977195
10.1600,171.1104783
10.1650,171.018914
10.1700,170.9230471
10.1750,170.8229233
10.1800,170.7187573
10.1850,170.6106628
10.1900,170.4985336
10.1950,170.3825012
10.2000,170.2625406
10.2050,170.1386561
10.2100,170.0109722
10.2150,169.8797349
10.2200,169.7446702
10.2250,169.6058799
10.2300,169.4637053
10.2350,169.3182235
10.2400,169.169532
10.2450,169.0175682
10.2500,168.8625384
10.2550,168.7047052
10.2600,168.5441666
10.2650,168.381202
10.2700,168.2160021
10.2750,168.0486951
10.2800,167.8796333
10.2850,167.7087034
10.2900,167.5361933
10.2950,167.3619044
10.3000,167.1864408
10.3050,167.0096837
10.3100,166.8316762
10.3150,166.6522863
10.3200,166.4714081
10.3250,166.2892768
10.3300,166.1060781
10.3350,165.9219235
10.3400,165.7368573
10.3450,165.5511805
10.3500,165.3649628
10.3550,165.1783377
10.3600,164.9915571
10.3650,164.8045242
10.3700,164.6172837
10.3750,164.4298606
10.3800,164.2425137
10.3850,164.0552085
10.3900,163.868241
10.3950,163.681596
10.4000,163.4956868
10.4050,163.3108291
10.4100,163.1268258
10.4150,162.9439332
10.4200,162.7620799
10.4250,162.5809261
10.4300,162.4004637
10.4350,162.2205608
10.4400,162.0412335
10.4450,161.8625619
10.4500,161.6844303
10.4550,161.5068679
10.4600,161.3299127
10.4650,161.1536447
10.4700,160.9779097
10.4750,160.8030481
10.4800,160.628775
10.4850,160.4550783
10.4900,160.281901
10.4950,160.1091808
10.5000,159.9371912
10.5050,159.7655814
10.5100,159.5946896
10.5150,159.4244035
10.5200,159.2549538
10.5250,159.0859724
10.5300,158.9174994
10.5350,158.7493015
10.5400,158.5815836
10.5450,158.4139669
10.5500,158.2465152
10.5550,158.0789673
10.5600,157.9108805
10.5650,157.7420522
10.5700,157.5717979
10.5750,157.400067
10.5800,157.2265992
10.5850,157.0512241
10.5900,156.8739178
10.5950,156.6946168
10.6000,156.51286
10.6050,156.3289449
10.6100,156.1429681
10.6150,155.9550326
10.6200,155.7652562
10.6250,155.573167
10.6300,155.3792431
10.6350,155.1829148
10.6400,154.984309
10.6450,154.7830625
10.6500,154.5792122
10.6550,154.3721832
10.6600,154.1616027
10.6650,153.9475012
10.6700,153.7300662
10.6750,153.5087908
10.6800,153.2835335
10.6850,153.0542619
10.6900,152.8207273
10.6950,152.5830813
10.7000,152.3408558
10.7050,152.093987
10.7100,151.8425526
10.7150,151.5864179
10.7200,151.3253537
10.7250,151.059536
10.7300,150.7888209
10.7350,150.5132918
10.7400,150.2326633
10.7450,149.9469617
10.7500,149.6560937
10.7550,149.3603965
10.7600,149.0602707
10.7650,148.7557589
10.7700,148.4469923
10.7750,148.1336512
10.7800,147.8156291
10.7850,147.4932554
10.7900,147.1668596
10.7950,146.8363713
10.8000,146.5016192
10.8050,146.1631227
10.8100,145.8207987
10.8150,145.4744571
10.8200,145.1241859
10.8250,144.7702291
10.8300,144.4125791
10.8350,144.0514031
10.8400,143.6864128
10.8450,143.3178676
10.8500,142.945568
10.8550,142.5695747
10.8600,142.1903128
10.8650,141.807826
10.8700,141.4223331
10.8750,141.03343
10.8800,140.6412679
10.8850,140.245425
10.8900,139.8459253
10.8950,139.4426898
10.9000,139.0355633
10.9050,138.6243949
10.9100,138.2090757
10.9150,137.7896003
10.9200,137.3659309
10.9250,136.9385675
10.9300,136.5072474
10.9350,136.0723296
10.9400,135.6337827
10.9450,135.1913089
10.9500,134.7448122
10.9550,134.2941354
10.9600,133.8394813
10.9650,133.3806714
10.9700,132.9171295
10.9750,132.449295
10.9800,131.9766234
10.9850,131.4990923
10.9900,131.0165228
10.9950,130.5285612
11.0000,130.0351435
11.0050,129.5359054
11.0100,129.030578
11.0150,128.5187232
11.0200,128.000354
11.0250,127.4755386
11.0300,126.9437318
11.0350,126.4052135
11.0400,125.8597503
11.0450,125.307435
11.0500,124.7481224
11.0550,124.1818735
11.0600,123.6078388
11.0650,123.0265581
11.0700,122.4376357
11.0750,121.8412945
11.0800,121.2374746
11.0850,120.625833
11.0900,120.0062738
11.0950,119.3786132
11.1000,118.7432659
11.1050,118.1001143
11.1100,117.4491792
11.1150,116.7906607
11.1200,116.1244226
11.1250,115.4506266
11.1300,114.7690364
11.1350,114.0800915
11.1400,113.3841447
11.1450,112.6813027
11.1500,111.9717818
11.1550,111.2557626
11.1600,110.5334516
11.1650,109.8052162
11.1700,109.0718405
11.1750,108.3339326
11.1800,107.5914889
11.1850,106.8454366
11.1900,106.0958955
11.1950,105.3436619
11.2000,104.5890213
11.2050,103.8322433
11.2100,103.0739814
11.2150,102.3145794
11.2200,101.5545865
11.2250,100.7944422
11.2300,100.034463
11.2350,99.27571741
11.2400,98.51823484
11.2450,97.76255534
11.2500,97.0095015
11.2550,96.2590985
11.2600,95.51153009
11.2650,94.76722337
11.2700,94.02646772
11.2750,93.28941887
11.2800,92.55672404
11.2850,91.82842354
11.2900,91.10482874
11.2950,90.38640337
11.3000,89.67346387
11.3050,88.96641951
11.3100,88.2658462
11.3150,87.57173655
11.3200,86.88452661
11.3250,86.2042454
11.3300,85.53141919
11.3350,84.86560155
11.3400,84.20730558
11.3450,83.55593772
11.3500,82.91191435
11.3550,82.27536523
11.3600,81.64617877
11.3650,81.02395739
11.3700,80.40848619
11.3750,79.79985065
11.3800,79.1982941
11.3850,78.6034411
11.3900,78.01510905
11.3950,77.43340319
11.4000,76.85801815
11.4050,76.28884474
11.4100,75.72586654
11.4150,75.16917929
11.4200,74.61862593
11.4250,74.07389325
11.4300,73.53476632
11.4350,73.00086265
11.4400,72.47241757
11.4450,71.9492186
11.4500,71.43204013
11.4550,70.92040176
11.4600,70.41418035
11.4650,69.91340136
11.4700,69.41766051
11.4750,68.92714064
11.4800,68.44151025
11.4850,67.96083489
11.4900,67.48476049
11.4950,67.01295901
11.5000,66.54577846
11.5050,66.08333001
11.5100,65.62481248
11.5150,65.17020847
11.5200,64.71942682
11.5250,64.27205002
11.5300,63.82829748
11.5350,63.38777712
11.5400,62.95094356
11.5450,62.51783574
11.5500,62.08824806
11.5550,61.66247438
11.5600,61.24018296
11.5650,60.82129489
11.5700,60.40541834
11.5750,59.99254581
11.5800,59.58236551
11.5850,59.17500593
11.5900,58.77046222
11.5950,58.36875248
11.6000,57.96981711
11.6050,57.57348929
11.6100,57.1795353
11.6150,56.78785046
11.6200,56.39819889
11.6250,56.01017931
11.6300,55.62390207
11.6350,55.23950132
11.6400,54.85664916
11.6450,54.47572349
11.6500,54.09628281
11.6550,53.71838682
11.6600,53.34182522
11.6650,52.96666945
11.6700,52.59250925
11.6750,52.21908742
11.6800,51.845999
11.6850,51.4735467
11.6900,51.10185668
11.6950,50.73053967
11.7000,50.35978129
11.7050,49.98957135
11.7100,49.61980541
11.7150,49.25042528
11.7200,48.88143252
11.7250,48.51299167
11.7300,48.14509162
11.7350,47.77787874
11.7400,47.41114888
11.7450,47.04523
11.7500,46.67970036
11.7550,46.31518403
11.7600,45.95158078
11.7650,45.5889079
11.7700,45.2275113
11.7750,44.86777697
11.7800,44.50976809
11.7850,44.15346984
11.7900,43.79887805
11.7950,43.44612427
11.8000,43.09487909
11.8050,42.74540317
11.8100,42.39781814
11.8150,42.05234244
11.8200,41.70912302
11.8250,41.36849541
11.8300,41.03037798
11.8350,40.6950961
11.8400,40.36313214
11.8450,40.03439193
11.8500,39.70879987
11.8550,39.38648641
11.8600,39.06769453
11.8650,38.75246225
11.8700,38.44109902
11.8750,38.13376829
11.8800,37.83085575
11.8850,37.53235323
11.8900,37.23836007
11.8950,36.94853995
11.9000,36.66278424
11.9050,36.38112933
11.9100,36.10326889
11.9150,35.82906514
11.9200,35.55806887
11.9250,35.29043571
11.9300,35.02553157
11.9350,34.76319659
11.9400,34.50320123
11.9450,34.24515353
11.9500,33.98902044
11.9550,33.73414663
11.9600,33.48072102
11.9650,33.2279743
11.9700,32.97608491
11.9750,32.7248994
11.9800,32.47419261
11.9850,32.22351932
11.9900,31.97232072
11.9950,31.7204473
12.0000,31.46742024
12.0050,31.21289397
12.0100,30.95658932
12.0150,30.69846674
12.0200,30.43828818
12.0250,30.17585089
12.0300,29.91143198
12.0350,29.64523818
12.0400,29.37727638
12.0450,29.10755126
12.0500,28.83599473
12.0550,28.56265505
12.0600,28.28784217
12.0650,28.01189071
12.0700,27.73446004
12.0750,27.45540558
12.0800,27.17502521
12.0850,26.8932825
12.0900,26.61039288
12.0950,26.32653371
12.1000,26.04186509
12.1050,25.75650975
12.1100,25.47084189
12.1150,25.18527933
12.1200,24.89970257
12.1250,24.61458115
12.1300,24.33031768
12.1350,24.04716953
12.1400,23.76529117
12.1450,23.48539051
12.1500,23.20787511
12.1550,22.93341965
12.1600,22.66233504
12.1650,22.39516488
12.1700,22.1324995
12.1750,21.87470517
12.1800,21.62203381
12.1850,21.37469286
12.1900,21.1329937
12.1950,20.89703966
12.2000,20.66716974
12.2050,20.44342738
12.2100,20.22564477
12.2150,20.01347042
12.2200,19.80708836
12.2250,19.60619348
12.2300,19.410499
12.2350,19.21974939
12.2400,19.03369991
12.2450,18.85189056
12.2500,18.67402339
12.2550,18.49991264
12.2600,18.32900631
12.2650,18.161277
12.2700,17.99645033
12.2750,17.83417816
12.2800,17.67412175
12.2850,17.51617355
12.2900,17.35995846
12.2950,17.20525616
12.3000,17.0518468
12.3050,16.89949464
12.3100,16.74810688
12.3150,16.59722969
12.3200,16.44676736
12.3250,16.29657017
12.3300,16.14634884
12.3350,15.99562952
12.3400,15.84435557
12.3450,15.69229657
12.3500,15.53946552
12.3550,15.38567882
12.3600,15.23077944
12.3650,15.07448805
12.3700,14.91716765
12.3750,14.75903846
12.3800,14.6000089
12.3850,14.44046273
12.3900,14.28059158
12.3950,14.12043226
12.4000,13.96024214
12.4050,13.80020654
12.4100,13.640418
12.4150,13.48067633
12.4200,13.32152599
12.4250,13.16279423
12.4300,13.00461356
12.4350,12.84720578
12.4400,12.69039498
12.4450,12.53437962
12.4500,12.37922039
12.4550,12.22513918
12.4600,12.07210464
12.4650,11.9203666
12.4700,11.76983513
12.4750,11.62062776
12.4800,11.47288647
12.4850,11.32674104
12.4900,11.18218974
12.4950,11.03945817
12.5000,10.89849898
12.5050,10.75913239
12.5100,10.62150849
12.5150,10.48582813
12.5200,10.35169435
12.5250,10.21937828
12.5300,10.08883813
12.5350,9.960053092
12.5400,9.833020298
12.5450,9.707744897
12.5500,9.584228359
12.5550,9.462395298
12.5600,9.342230174
12.5650,9.22357535
12.5700,9.106272681
12.5750,8.989987388
12.5800,8.874873419
12.5850,8.760747645
12.5900,8.647551045
12.5950,8.535440913
12.6000,8.424186671
12.6050,8.314102295
12.6100,8.205192895
12.6150,8.097420102
12.6200,7.991115112
12.6250,7.886180295
12.6300,7.783005692
12.6350,7.681759364
12.6400,7.582553522
12.6450,7.485740528
12.6500,7.391366747
12.6550,7.299675952
12.6600,7.210752665
12.6650,7.124874387
12.6700,7.042131513
12.6750,6.962362491
12.6800,6.885961073
12.6850,6.812669898
12.6900,6.742391441
12.6950,6.675082277
12.7000,6.610622773
12.7050,6.54876155
12.7100,6.489375504
12.7150,6.432230634
12.7200,6.376995286
12.7250,6.323583578
12.7300,6.271710611
12.7350,6.221113594
12.7400,6.171733876
12.7450,6.123497106
12.7500,6.076368822
12.7550,6.030356872
12.7600,5.985570476
12.7650,5.942130911
12.7700,5.900363554
12.7750,5.860498959
12.7800,5.822889418
12.7850,5.78795539
12.7900,5.756203804
12.7950,5.727926921
12.8000,5.703378029
12.8050,5.683111879
12.8100,5.667383615
12.8150,5.656465565
12.8200,5.650684984
12.8250,5.650129274
12.8300,5.654843356
12.8350,5.664676522
12.8400,5.679513765
12.8450,5.699343817
12.8500,5.7235221
12.8550,5.752015855
12.8600,5.784140739
12.8650,5.819709096
12.8700,5.858373182
12.8750,5.899941305
12.8800,5.944086033
12.8850,5.990632296
12.8900,6.039343665
12.8950,6.090064427
12.9000,6.142860243
12.9050,6.197524887
12.9100,6.253964966
12.9150,6.312365931
12.9200,6.372397995
12.9250,6.434213101
12.9300,6.497796809
12.9350,6.563265661
12.9400,6.630701561
12.9450,6.700140384
12.9500,6.771438581
12.9550,6.844674973
12.9600,6.91991905
12.9650,6.996974196
12.9700,7.07590886
12.9750,7.156697706
12.9800,7.239321125
12.9850,7.323662516
12.9900,7.409760762
12.9950,7.497577286
13.0000,7.586740375
13.0050,7.677412128
13.0100,7.769670857
13.0150,7.86342741
13.0200,7.95888621
13.0250,8.056142857
13.0300,8.155394725
13.0350,8.256676388
13.0400,8.360414793
13.0450,8.46655344
13.0500,8.5753338
13.0550,8.686861807
13.0600,8.801436085
13.0650,8.91896847
13.0700,9.03977594
13.0750,9.163767786
13.0800,9.291107691
13.0850,9.421765121
13.0900,9.555743504
13.0950,9.693137655
13.1000,9.834254264
13.1050,9.979133969
13.1100,10.12794539
13.1150,10.28076837
13.1200,10.4374971
13.1250,10.59824744
13.1300,10.76296856
13.1350,10.9319727
13.1400,11.10522203
13.1450,11.28251839
13.1500,11.46422166
13.1550,11.65012407
13.1600,11.84067548
13.1650,12.035915
13.1700,12.23573231
13.1750,12.44043586
13.1800,12.65006757
13.1850,12.8645114
13.1900,13.08376914
13.1950,13.30764858
13.2000,13.5360498
13.2050,13.76867594
13.2100,14.00548251
13.2150,14.24628078
13.2200,14.49095919
13.2250,14.73944431
13.2300,14.99144096
13.2350,15.24673386
13.2400,15.50512402
13.2450,15.76624284
13.2500,16.03019863
13.2550,16.29655896
13.2600,16.56491661
13.2650,16.83520413
13.2700,17.10686755
13.2750,17.37976238
13.2800,17.65348415
13.2850,17.92782608
13.2900,18.20255585
13.2950,18.47727094
13.3000,18.75215681
13.3050,19.02689481
13.3100,19.30136466
13.3150,19.57588045
13.3200,19.85020627
13.3250,20.12449295
13.3300,20.39853429
13.3350,20.67247604
13.3400,20.94620678
13.3450,21.21982054
13.3500,21.49346153
13.3550,21.76705422
13.3600,22.04080894
13.3650,22.31486236
13.3700,22.58918614
13.3750,22.86414257
13.3800,23.13959553
13.3850,23.41572228
13.3900,23.69255265
13.3950,23.97047942
13.4000,24.24922128
13.4050,24.52878213
13.4100,24.80909304
13.4150,25.09015245
13.4200,25.37202347
13.4250,25.65450139
13.4300,25.93779605
13.4350,26.22174424
13.4400,26.50652112
13.4450,26.79226487
13.4500,27.07904369
13.4550,27.36707296
13.4600,27.65619536
13.4650,27.94649291
13.4700,28.23815619
13.4750,28.53078081
13.4800,28.82409843
13.4850,29.11832439
13.4900,29.41355652
13.4950,29.70993735
13.5000,30.00719732
13.5050,30.3054431
13.5100,30.60481859
13.5150,30.9051656
13.5200,31.20655335
13.5250,31.50883065
13.5300,31.81199154
13.5350,32.11582676
13.5400,32.42024174
13.5450,32.72542153
13.5500,33.0310821
13.5550,33.33733536
13.5600,33.64430003
13.5650,33.95211069
13.5700,34.26080616
13.5750,34.57046331
13.5800,34.88104157
13.5850,35.19254545
13.5900,35.5052301
13.5950,35.81913056
13.6000,36.13428955
13.6050,36.4508174
13.6100,36.76854291
13.6150,37.08714141
13.6200,37.40677361
13.6250,37.72720333
13.6300,38.0485106
13.6350,38.3705162
13.6400,38.69330064
13.6450,39.01692252
13.6500,39.34128413
13.6550,39.66660179
13.6600,39.99266616
13.6650,40.31967945
13.6700,40.64745248
13.6750,40.97603856
13.6800,41.30550892
13.6850,41.63588821
13.6900,41.96703667
13.6950,42.2988629
13.7000,42.63151419
13.7050,42.96519335
13.7100,43.29979657
13.7150,43.63518634
13.7200,43.97139692
13.7250,44.30850974
13.7300,44.64633159
13.7350,44.98480283
13.7400,45.32398308
13.7450,45.66359969
13.7500,46.00354554
13.7550,46.34373607
13.7600,46.68424318
13.7650,47.02490196
13.7700,47.3656502
13.7750,47.7066657
13.7800,48.04798295
13.7850,48.38956776
13.7900,48.73153771
13.7950,49.07388998
13.8000,49.41684089
13.8050,49.76044459
13.8100,50.10443501
13.8150,50.44918482
13.8200,50.79452683
13.8250,51.14054513
13.8300,51.48724433
13.8350,51.8346637
13.8400,52.18317099
13.8450,52.53253092
13.8500,52.88307765
13.8550,53.23473099
13.8600,53.58764971
13.8650,53.94147344
13.8700,54.29661722
13.8750,54.65300391
13.8800,55.01076354
13.8850,55.36985856
13.8900,55.73030514
13.8950,56.09232678
13.9000,56.45588161
13.9050,56.82095276
13.9100,57.18799057
13.9150,57.5571909
13.9200,57.92864459
13.9250,58.30253805
13.9300,58.67891933
13.9350,59.05799354
13.9400,59.43981006
13.9450,59.82442261
13.9500,60.21196485
13.9550,60.60220315
13.9600,60.99557011
13.9650,61.39208945
13.9700,61.79191628
13.9750,62.19537946
13.9800,62.60282846
13.9850,63.01415027
13.9900,63.42976775
13.9950,63.84985982
14.0000,64.27446784
14.0050,64.70331347
14.0100,65.13661434
14.0150,65.57471027
14.0200,66.01767299
14.0250,66.46533933
14.0300,66.91796319
14.0350,67.37544732
14.0400,67.83742188
14.0450,68.30407983
14.0500,68.77559297
14.0550,69.25180187
14.0600,69.73253546
14.0650,70.21781722
14.0700,70.70758012
14.0750,71.20177841
14.0800,71.70060372
14.0850,72.20358009
14.0900,72.71047429
14.0950,73.22108128
14.1000,73.73528938
14.1050,74.25302553
14.1100,74.77431732
14.1150,75.29842379
14.1200,75.82546133
14.1250,76.35516593
14.1300,76.88735682
14.1350,77.42191266
14.1400,77.95822548
14.1450,78.49635975
14.1500,79.03580017
14.1550,79.57620825
14.1600,80.11722986
14.1650,80.65869462
14.1700,81.20018207
14.1750,81.74155979
14.1800,82.28249931
14.1850,82.8230288
14.1900,83.36271789
14.1950,83.90148141
14.2000,84.43893021
14.2050,84.97543169
14.2100,85.5106212
14.2150,86.04441802
14.2200,86.57663041
14.2250,87.10727832
14.2300,87.63638454
14.2350,88.16357668
14.2400,88.68894607
14.2450,89.21248369
14.2500,89.73388202
14.2550,90.25313684
14.2600,90.77016526
14.2650,91.28481854
14.2700,91.79751561
14.2750,92.30790953
14.2800,92.81629626
14.2850,93.32296887
14.2900,93.82760476
14.2950,94.33019229
14.3000,94.83109201
14.3050,95.33048956
14.3100,95.82861047
14.3150,96.32536932
14.3200,96.82112796
14.3250,97.31586728
14.3300,97.80951428
14.3350,98.30223333
14.3400,98.7942124
14.3450,99.28580966
14.3500,99.77678451
14.3550,100.2673936
14.3600,100.7577667
14.3650,101.2481094
14.3700,101.7382386
14.3750,102.2282962
14.3800,102.7183594
14.3850,103.2089242
14.3900,103.6996576
14.3950,104.190778
14.4000,104.6825805
14.4050,105.1750465
14.4100,105.6681421
14.4150,106.1619577
14.4200,106.6563676
14.4250,107.1517371
14.4300,107.6477284
14.4350,108.1446168
14.4400,108.6422297
14.4450,109.1404205
14.4500,109.6389339
14.4550,110.1379998
14.4600,110.6377658
14.4650,111.1381617
14.4700,111.639249
14.4750,112.1409327
14.4800,112.6426804
14.4850,113.1444321
14.4900,113.6461605
14.4950,114.1478101
14.5000,114.6492734
14.5050,115.1500331
14.5100,115.649994
14.5150,116.1491443
14.5200,116.647557
14.5250,117.1448094
14.5300,117.6408404
14.5350,118.1357245
14.5400,118.6291924
14.5450,119.1212667
14.5500,119.6117587
14.5550,120.100738
14.5600,120.5874694
14.5650,121.0723239
14.5700,121.5548012
14.5750,122.0351801
14.5800,122.5130985
14.5850,122.9885635
14.5900,123.4614647
14.5950,123.9315481
14.6000,124.3988332
14.6050,124.8630651
14.6100,125.3243389
14.6150,125.7825917
14.6200,126.2375327
14.6250,126.6890947
14.6300,127.1374706
14.6350,127.5825059
14.6400,128.0241317
14.6450,128.4622018
14.6500,128.8970536
14.6550,129.3284638
14.6600,129.75682
14.6650,130.1821145
14.6700,130.6048615
14.6750,131.0251758
14.6800,131.4427938
14.6850,131.8578287
14.6900,132.2705438
14.6950,132.6807607
14.7000,133.0881633
14.7050,133.4926945
14.7100,133.8940689
14.7150,134.2924303
14.7200,134.6877605
14.7250,135.0801109
14.7300,135.4697488
14.7350,135.856202
14.7400,136.2398126
14.7450,136.6204772
14.7500,136.9989209
14.7550,137.374943
14.7600,137.7481663
14.7650,138.1185545
14.7700,138.4859637
14.7750,138.8501744
14.7800,139.2113824
14.7850,139.5695837
14.7900,139.9250066
14.7950,140.2774786
14.8000,140.6272295
14.8050,140.9740365
14.8100,141.3177435
14.8150,141.6581803
14.8200,141.9948487
14.8250,142.32751
14.8300,142.6560412
14.8350,142.98035
14.8400,143.3003126
14.8450,143.6163101
14.8500,143.9283303
14.8550,144.2366058
14.8600,144.5415982
14.8650,144.8428764
14.8700,145.1406603
14.8750,145.4350264
14.8800,145.7260662
14.8850,146.0139326
14.8900,146.2985988
14.8950,146.5803763
14.9000,146.8597641
14.9050,147.1366419
14.9100,147.4109819
14.9150,147.6827051
14.9200,147.9515672
14.9250,148.2177757
14.9300,148.4809445
14.9350,148.7411983
14.9400,148.9983427
14.9450,149.2523605
14.9500,149.5031117
14.9550,149.7507841
14.9600,149.9951105
14.9650,150.2361793
14.9700,150.4740628
14.9750,150.7090115
14.9800,150.9415863
14.9850,151.1721922
14.9900,151.4010543
14.9950,151.6284717
15.0000,151.8547285
15.0050,152.0800645
15.0100,152.3049376
15.0150,152.5292376
15.0200,152.7533884
15.0250,152.9772015
15.0300,153.2006584
15.0350,153.4238018
15.0400,153.6463675
15.0450,153.8682151
15.0500,154.0889739
15.0550,154.3084133
15.0600,154.5265205
15.0650,154.7434408
15.0700,154.9592982
15.0750,155.1740809
15.0800,155.3877038
15.0850,155.6002213
15.0900,155.8110341
15.0950,156.0203433
15.1000,156.2278483
15.1050,156.4341
15.1100,156.6390227
15.1150,156.842775
15.1200,157.0457876
15.1250,157.247909
15.1300,157.4493395
15.1350,157.649921
15.1400,157.8495064
15.1450,158.0477795
15.1500,158.2448154
15.1550,158.4404422
15.1600,158.6342045
15.1650,158.8262841
15.1700,159.0163675
15.1750,159.2042025
15.1800,159.3898021
15.1850,159.5727058
15.1900,159.7530862
15.1950,159.9306609
15.2000,160.1051203
15.2050,160.2766325
15.2100,160.4452728
15.2150,160.6111137
15.2200,160.7743548
15.2250,160.9352999
15.2300,161.0940099
15.2350,161.2505405
15.2400,161.4054377
15.2450,161.5586116
15.2500,161.7101237
15.2550,161.8601993
15.2600,162.0090283
15.2650,162.1566205
15.2700,162.3032028
15.2750,162.4484434
15.2800,162.5922991
15.2850,162.734375
15.2900,162.8744233
15.2950,163.0125935
15.3000,163.1485783
15.3050,163.2825203
15.3100,163.4142319
15.3150,163.5437575
15.3200,163.6710345
15.3250,163.7961559
15.3300,163.9193166
15.3350,164.0407295
15.3400,164.16042
15.3450,164.2786402
15.3500,164.3956994
15.3550,164.5117436
15.3600,164.6270768
15.3650,164.7415035
15.3700,164.8550018
15.3750,164.9675495
15.3800,165.0794525
15.3850,165.1905966
15.3900,165.3013232
15.3950,165.4113844
15.4000,165.5210677
15.4050,165.6302877
15.4100,165.7389965
15.4150,165.8472535
15.4200,165.9543347
15.4250,166.0606665
15.4300,166.1658601
15.4350,166.2698792
15.4400,166.3727545
15.4450,166.4746076
15.4500,166.575383
15.4550,166.6752203
15.4600,166.7742156
15.4650,166.8726009
15.4700,166.9703349
15.4750,167.0673825
15.4800,167.163663
15.4850,167.2592271
15.4900,167.3541272
15.4950,167.4484182
15.5000,167.542098
15.5050,167.6352633
15.5100,167.7276284
15.5150,167.8190636
15.5200,167.9096652
15.5250,167.999091
15.5300,168.08749
15.5350,168.1747025
15.5400,168.2603178
15.5450,168.3445933
15.5500,168.4274709
15.5550,168.5087328
15.5600,168.5883871
15.5650,168.6664169
15.5700,168.7426436
15.5750,168.81716
15.5800,168.8896508
15.5850,168.9604592
15.5900,169.0297553
15.5950,169.0975627
15.6000,169.1640925
15.6050,169.2292316
15.6100,169.2932551
15.6150,169.3565348
15.6200,169.4191733
15.6250,169.4810858
15.6300,169.5423203
15.6350,169.6029222
15.6400,169.6629912
15.6450,169.7225977
15.6500,169.7819667
15.6550,169.8409577
15.6600,169.8995708
15.6650,169.9577201
15.6700,170.0153748
15.6750,170.0726397
15.6800,170.1291713
15.6850,170.1849766
15.6900,170.2399425
15.6950,170.2941761
15.7000,170.3474402
15.7050,170.3993182
15.7100,170.4494625
15.7150,170.4975663
15.7200,170.5439724
15.7250,170.5886609
15.7300,170.6316413
15.7350,170.6731508
15.7400,170.7128848
15.7450,170.7510701
15.7500,170.7874596
15.7550,170.8219627
15.7600,170.8545413
15.7650,170.8852796
15.7700,170.9142588
15.7750,170.9416205
15.7800,170.9673412
15.7850,170.9916097
15.7900,171.0142322
15.7950,171.035319
15.8000,171.0544691
15.8050,171.071784
15.8100,171.08718
15.8150,171.1008952
15.8200,171.1128365
15.8250,171.1229825
15.8300,171.1310345
15.8350,171.1370404
15.8400,171.1409937
15.8450,171.142772
15.8500,171.1423321
15.8550,171.1396352
15.8600,171.1347899
15.8650,171.127794
15.8700,171.1185662
15.8750,171.1070994
15.8800,171.0939057
15.8850,171.0785783
15.8900,171.0610419
15.8950,171.0412729
15.9000,171.0191938
15.9050,170.9950204
15.9100,170.9684511
15.9150,170.9393886
15.9200,170.9077421
15.9250,170.8737905
15.9300,170.8373275
15.9350,170.7984956
15.9400,170.7573142
15.9450,170.7139281
15.9500,170.66793
15.9550,170.6195058
15.9600,170.5685048
15.9650,170.5150167
15.9700,170.45912
15.9750,170.4007018
15.9800,170.3399241
15.9850,170.2766634
15.9900,170.2110397
15.9950,170.1428105
16.0000,170.0721348
16.0050,169.9991758
16.0100,169.9242109
16.0150,169.8470916
16.0200,169.7676698
16.0250,169.685844
16.0300,169.6017425
16.0350,169.5152149
16.0400,169.4266268
16.0450,169.3355642
16.0500,169.2423979
16.0550,169.1471135
16.0600,169.0498806
16.0650,168.9506835
16.0700,168.8495195
16.0750,168.7462846
16.0800,168.6409169
16.0850,168.5336459
16.0900,168.4243421
16.0950,168.3129414
16.1000,168.1997815
16.1050,168.0847844
16.1100,167.9682999
16.1150,167.8501448
16.1200,167.7303202
16.1250,167.6088441
16.1300,167.4859476
16.1350,167.3613516
16.1400,167.2350908
16.1450,167.1071906
16.1500,166.977772
16.1550,166.8468453
16.1600,166.7142471
16.1650,166.5800912
16.1700,166.4445933
16.1750,166.3079024
16.1800,166.169703
16.1850,166.0303136
16.1900,165.8897224
16.1950,165.747746
16.2000,165.6047129
16.2050,165.4601745
16.2100,165.3144336
16.2150,165.1674705
16.2200,165.019244
16.2250,164.8696093
16.2300,164.7187275
16.2350,164.5665258
16.2400,164.4132259
16.2450,164.258518
16.2500,164.1027758
16.2550,163.9461117
16.2600,163.788461
16.2650,163.6300072
16.2700,163.470615
16.2750,163.3102705
16.2800,163.1486703
16.2850,162.9859221
16.2900,162.821693
16.2950,162.6560488
16.3000,162.4884289
16.3050,162.3185849
16.3100,162.146559
16.3150,161.9725387
16.3200,161.7965816
16.3250,161.6185084
16.3300,161.4384307
16.3350,161.2563076
16.3400,161.0719113
16.3450,160.8854273
16.3500,160.6966659
16.3550,160.50575
16.3600,160.3126267
16.3650,160.1172518
16.3700,159.9197142
16.3750,159.720056
16.3800,159.518348
16.3850,159.3141615
16.3900,159.1079287
16.3950,158.899715
16.4000,158.6899115
16.4050,158.4784034
16.4100,158.2651407
16.4150,158.0500231
16.4200,157.8330728
16.4250,157.6143961
16.4300,157.3938207
16.4350,157.1713785
16.4400,156.9470126
16.4450,156.720687
16.4500,156.492093
16.4550,156.2616826
16.4600,156.0291255
16.4650,155.7942978
16.4700,155.557209
16.4750,155.3174673
16.4800,155.0752083
16.4850,154.8302811
16.4900,154.5828048
16.4950,154.3327629
16.5000,154.0802107
16.5050,153.8253974
16.5100,153.5682377
16.5150,153.3085532
16.5200,153.0464064
16.5250,152.781851
16.5300,152.5146193
16.5350,152.2446321
16.5400,151.9715041
16.5450,151.6952949
16.5500,151.4156182
16.5550,151.1321009
16.5600,150.8451528
16.5650,150.5545043
16.5700,150.2601149
16.5750,149.961877
16.5800,149.6599169
16.5850,149.3540765
16.5900,149.0443466
16.5950,148.7310682
16.6000,148.4142463
16.6050,148.0944199
16.6100,147.7715716
16.6150,147.4455638
16.6200,147.1164793
16.6250,146.7842447
16.6300,146.4486031
16.6350,146.1090601
16.6400,145.7655991
16.6450,145.4177427
16.6500,145.0652307
16.6550,144.7076404
16.6600,144.3447182
16.6650,143.9761421
16.6700,143.6013658
16.6750,143.2202717
16.6800,142.8327693
16.6850,142.4393062
16.6900,142.0389977
16.6950,141.6319473
16.7000,141.2173194
16.7050,140.7948753
16.7100,140.3643443
16.7150,139.9258522
16.7200,139.4796013
16.7250,139.0252849
16.7300,138.5628831
16.7350,138.0924602
16.7400,137.6137633
16.7450,137.12656
16.7500,136.6310018
16.7550,136.1263584
16.7600,135.612353
16.7650,135.0890437
16.7700,134.5562653
16.7750,134.0141777
16.7800,133.4623103
16.7850,132.9004471
16.7900,132.3283019
16.7950,131.7460901
16.8000,131.1540516
16.8050,130.5522925
16.8100,129.940696
16.8150,129.319721
16.8200,128.689393
16.8250,128.0500474
16.8300,127.4023191
16.8350,126.7461525
16.8400,126.0817627
16.8450,125.4095226
16.8500,124.730036
16.8550,124.0438304
16.8600,123.3505888
16.8650,122.6506075
16.8700,121.9440655
16.8750,121.2315822
16.8800,120.5132239
16.8850,119.7896889
16.8900,119.0612352
16.8950,118.328085
16.9000,117.5909498
16.9050,116.8495491
16.9100,116.1046274
16.9150,115.3566562
16.9200,114.6055671
16.9250,113.8521441
16.9300,113.0965736
16.9350,112.3393496
16.9400,111.5807857
16.9450,110.8216167
16.9500,110.0620004
16.9550,109.3021254
16.9600,108.5417978
16.9650,107.7806981
16.9700,107.0192698
16.9750,106.2570797
16.9800,105.4942382
16.9850,104.7302861
16.9900,103.9655871
16.9950,103.199848
17.0000,102.4332591
17.0050,101.6659781
17.0100,100.8979759
17.0150,100.1291501
17.0200,99.35938687
17.0250,98.58894405
17.0300,97.81759954
17.0350,97.0457047
17.0400,96.27342859
17.0450,95.50116854
17.0500,94.72862496
17.0550,93.95615395
17.0600,93.18423105
17.0650,92.41290267
17.0700,91.64216651
17.0750,90.87245839
17.0800,90.10378373
17.0850,89.3361657
17.0900,88.56984865
17.0950,87.80496622
17.1000,87.04148688
17.1050,86.28014645
17.1100,85.52188361
17.1150,84.76647915
17.1200,84.01450104
17.1250,83.26607342
17.1300,82.52147517
17.1350,81.78133382
17.1400,81.04600013
17.1450,80.31568428
17.1500,79.59054975
17.1550,78.87087957
17.1600,78.15720983
17.1650,77.44980524
17.1700,76.74890316
17.1750,76.05494809
17.1800,75.36807082
17.1850,74.68867921
17.1900,74.01698597
17.1950,73.35305552
17.2000,72.69679512
17.2050,72.04856079
17.2100,71.40797722
17.2150,70.77484073
17.2200,70.14927594
17.2250,69.53081084
17.2300,68.91937547
17.2350,68.31493709
17.2400,67.71716141
17.2450,67.12556517
17.2500,66.54052902
17.2550,65.96210087
17.2600,65.39042498
17.2650,64.82585463
17.2700,64.26782801
17.2750,63.71631286
17.2800,63.17084868
17.2850,62.6314385
17.2900,62.097994
17.2950,61.5700431
17.3000,61.04759566
17.3050,60.53022219
17.3100,60.01753331
17.3150,59.50905434
17.3200,59.00438974
17.3250,58.50358548
17.3300,58.00656135
17.3350,57.51327564
17.3400,57.02367537
17.3450,56.53745419
17.3500,56.05448598
17.3550,55.57480631
17.3600,55.09807289
17.3650,54.62371203
17.3700,54.15150878
17.3750,53.68182688
17.3800,53.21467395
17.3850,52.75039341
17.3900,52.28915353
17.3950,51.83084669
17.4000,51.37569162
17.4050,50.92338339
17.4100,50.47364489
17.4150,50.02692752
17.4200,49.58320594
17.4250,49.14258879
17.4300,48.70541317
17.4350,48.27153397
17.4400,47.8410958
17.4450,47.41431715
17.4500,46.99118218
17.4550,46.57216206
17.4600,46.15721712
17.4650,45.74647688
17.4700,45.34023393
17.4750,44.93852456
17.4800,44.54132765
17.4850,44.14898125
17.4900,43.76157883
17.4950,43.37916509
17.5000,43.0022641
17.5050,42.63050991
17.5100,42.26411147
17.5150,41.90293366
17.5200,41.54721358
17.5250,41.19724295
17.5300,40.85283521
17.5350,40.51364025
17.5400,40.17993405
17.5450,39.85182497
17.5500,39.52938924
17.5550,39.21229019
17.5600,38.89998148
17.5650,38.59178032
17.5700,38.28772031
17.5750,37.98733341
17.5800,37.69059617
17.5850,37.39722478
17.5900,37.10707402
17.5950,36.82007494
17.6000,36.53638588
17.6050,36.25590163
17.6100,35.97878612
17.6150,35.705074
17.6200,35.43458052
17.6250,35.16694909
17.6300,34.90229476
17.6350,34.64041377
17.6400,34.38130065
17.6450,34.12497437
17.6500,33.87153189
17.6550,33.62055726
17.6600,33.37198958
17.6650,33.12609269
17.6700,32.88264921
17.6750,32.64156693
17.6800,32.40275273
17.6850,32.16608316
17.6900,31.93117754
17.6950,31.6981365
17.7000,31.4667037
17.7050,31.23690959
17.7100,31.00847407
17.7150,30.78107147
17.7200,30.55468512
17.7250,30.32947987
17.7300,30.10516111
17.7350,29.8818333
17.7400,29.65955021
17.7450,29.43812842
17.7500,29.21753072
17.7550,28.997587
17.7600,28.77834896
17.7650,28.55960426
17.7700,28.34101087
17.7750,28.12236603
17.7800,27.903873
17.7850,27.68527161
17.7900,27.46653412
17.7950,27.24764798
17.8000,27.02861838
17.8050,26.80978821
17.8100,26.5910288
17.8150,26.37223019
17.8200,26.15343618
17.8250,25.934384
17.8300,25.7153522
17.8350,25.49652411
17.8400,25.2779413
17.8450,25.05981763
17.8500,24.8420986
17.8550,24.62491411
17.8600,24.40867013
17.8650,24.19348697
17.8700,23.97957235
17.8750,23.76700092
17.8800,23.55592511
17.8850,23.34674157
17.8900,23.1395583
17.8950,22.93457477
17.9000,22.73152719
17.9050,22.53047456
17.9100,22.33141383
17.9150,22.13448663
17.9200,21.93998288
17.9250,21.74794386
17.9300,21.55830822
17.9350,21.3712317
17.9400,21.18677701
17.9450,21.00492047
17.9500,20.82560647
17.9550,20.64886693
17.9600,20.47498865
17.9650,20.3037656
17.9700,20.13550016
17.9750,19.97001724
17.9800,19.80747162
17.9850,19.64782231
17.9900,19.49123144
17.9950,19.33761353
18.0000,19.18686725
18.0050,19.03902249
18.0100,18.8942163
18.0150,18.75238474
18.0200,18.61342657
18.0250,18.47697123
18.0300,18.34307536
18.0350,18.21167873
18.0400,18.08232669
18.0450,17.95504046
18.0500,17.82986444
18.0550,17.70648746
18.0600,17.58488495
18.0650,17.46511068
18.0700,17.34692511
18.0750,17.23034608
18.0800,17.11528586
18.0850,17.00151103
18.0900,16.88912079
18.0950,16.77783066
18.1000,16.66730811
18.1050,16.55744297
18.1100,16.44808152
18.1150,16.33923072
18.1200,16.23077456
18.1250,16.12253915
18.1300,16.01435515
18.1350,15.90622229
18.1400,15.79782719
18.1450,15.68915621
18.1500,15.58006202
18.1550,15.47052326
18.1600,15.36035993
18.1650,15.24934621
18.1700,15.13743456
18.1750,15.02466463
18.1800,14.9107645
18.1850,14.79563398
18.1900,14.67942982
18.1950,14.56199703
18.2000,14.44344171
18.2050,14.32387767
18.2100,14.20338572
18.2150,14.08190683
18.2200,13.95938734
18.2250,13.8359127
18.2300,13.71149459
18.2350,13.58624528
18.2400,13.46025358
18.2450,13.33357469
18.2500,13.2063266
18.2550,13.07880613
18.2600,12.95100723
18.2650,12.82325709
18.2700,12.69555952
18.2750,12.56813978
18.2800,12.44122161
18.2850,12.31507548
18.2900,12.18971957
18.2950,12.06545133
18.3000,11.94248654
18.3050,11.8209729
18.3100,11.70092977
18.3150,11.58252938
18.3200,11.46578786
18.3250,11.35104102
18.3300,11.23833681
18.3350,11.12758025
18.3400,11.01914175
18.3450,10.91294696
18.3500,10.80891088
18.3550,10.70704749
18.3600,10.60714698
18.3650,10.50907352
18.3700,10.41296515
18.3750,10.31850308
18.3800,10.22556151
18.3850,10.13406007
18.3900,10.04368353
18.3950,9.954516133
18.4000,9.866392259
18.4050,9.77919808
18.4100,9.692906319
18.4150,9.607473049
18.4200,9.522859158
18.4250,9.439016974
18.4300,9.355954879
18.4350,9.27354305
18.4400,9.191758856
18.4450,9.110476646
18.4500,9.029608832
18.4550,8.94898909
18.4600,8.868566883
18.4650,8.788490515
18.4700,8.70872789
18.4750,8.629185598
18.4800,8.54999957
18.4850,8.470915221
18.4900,8.391808702
18.4950,8.312646179
18.5000,8.233282973
18.5050,8.153800747
18.5100,8.074124673
18.5150,7.994325786
18.5200,7.914396225
18.5250,7.834602301
18.5300,7.755037161
18.5350,7.675862948
18.5400,7.597291664
18.5450,7.51951194
18.5500,7.44269735
18.5550,7.367078022
18.5600,7.292817953
18.5650,7.220069602
18.5700,7.149096195
18.5750,7.079934524
18.5800,7.012925288
18.5850,6.947965676
18.5900,6.885270949
18.5950,6.824745797
18.6000,6.766617048
18.6050,6.710895258
18.6100,6.657735157
18.6150,6.60718739
18.6200,6.559363231
18.6250,6.514161215
18.6300,6.471575904
18.6350,6.431642042
18.6400,6.394276774
18.6450,6.359490712
18.6500,6.327174173
18.6550,6.297416982
18.6600,6.270218524
18.6650,6.245626458
18.6700,6.223480825
18.6750,6.203914947
18.6800,6.186538528
18.6850,6.171534836
18.6900,6.158959297
18.6950,6.148542762
18.7000,6.140539459
18.7050,6.134788182
18.7100,6.131051233
18.7150,6.129279208
18.7200,6.129294704
18.7250,6.131162424
18.7300,6.134726632
18.7350,6.14009318
18.7400,6.14741415
18.7450,6.156579332
18.7500,6.167769686
18.7550,6.181149428
18.7600,6.196596125
18.7650,6.214255442
18.7700,6.233996943
18.7750,6.255928151
18.7800,6.279913237
18.7850,6.306204694
18.7900,6.334646862
18.7950,6.36552839
18.8000,6.398888939
18.8050,6.434644177
18.8100,6.472922266
18.8150,6.513762141
18.8200,6.557288774
18.8250,6.603287753
18.8300,6.651893744
18.8350,6.703075475
18.8400,6.756919429
18.8450,6.813578637
18.8500,6.872933728
18.8550,6.935176251
18.8600,7.000316532
18.8650,7.068287772
18.8700,7.139398569
18.8750,7.213721484
18.8800,7.29109646
18.8850,7.371652564
18.8900,7.455406705
18.8950,7.542574943
18.9000,7.632707988
18.9050,7.726045584
18.9100,7.822398257
18.9150,7.921659641
18.9200,8.023687453
18.9250,8.128474569
18.9300,8.236015788
18.9350,8.346328424
18.9400,8.459241307
18.9450,8.574831869
18.9500,8.693227296
18.9550,8.814386706
18.9600,8.93823337
18.9650,9.064730198
18.9700,9.193936247
18.9750,9.325797153
18.9800,9.460734135
18.9850,9.598603221
18.9900,9.739385968
18.9950,9.883597258
19.0000,10.03096717
19.0050,10.18152827
19.0100,10.33590505
19.0150,10.49410629
19.0200,10.65626158
19.0250,10.82247456
19.0300,10.9929732
19.0350,11.16778905
19.0400,11.34703228
19.0450,11.53091219
19.0500,11.71945549
19.0550,11.91273344
19.0600,12.11092339
19.0650,12.31391159
19.0700,12.52212919
19.0750,12.73550141
19.0800,12.95408001
19.0850,13.17789153
19.0900,13.4069341
19.0950,13.6410911
19.1000,13.88030532
19.1050,14.12436148
19.1100,14.37324912
19.1150,14.62684821
19.1200,14.88499651
19.1250,15.14781345
19.1300,15.41487029
19.1350,15.68622804
19.1400,15.96157812
19.1450,16.2406963
19.1500,16.52342517
19.1550,16.80956998
19.1600,17.09893699
19.1650,17.39145368
19.1700,17.68671691
19.1750,17.9845134
19.1800,18.2846982
19.1850,18.58709523
19.1900,18.89148938
19.1950,19.19760211
19.2000,19.50545042
19.2050,19.81479855
19.2100,20.12570295
19.2150,20.43799461
19.2200,20.75139603
19.2250,21.06581601
19.2300,21.38134609
19.2350,21.69749083
19.2400,22.01414792
19.2450,22.3312256
19.2500,22.64860692
19.2550,22.96612857
19.2600,23.28373141
19.2650,23.60160225
19.2700,23.91959227
19.2750,24.23775572
19.2800,24.55605577
19.2850,24.87441119
19.2900,25.19309838
19.2950,25.51184169
19.3000,25.83074326
19.3050,26.15005736
19.3100,26.46959273
19.3150,26.78946572
19.3200,27.10965003
19.3250,27.43029421
19.3300,27.75137244
19.3350,28.0728066
19.3400,28.39467966
19.3450,28.71699906
19.3500,29.03986871
19.3550,29.36330777
19.3600,29.68761115
19.3650,30.01262308
19.3700,30.33826012
19.3750,30.66447934
19.3800,30.99129916
19.3850,31.31882885
19.3900,31.64723597
19.3950,31.97639273
19.4000,32.30646688
19.4050,32.63745177
19.4100,32.96945437
19.4150,33.30229674
19.4200,33.63599192
19.4250,33.97044315
19.4300,34.3059383
19.4350,34.64232534
19.4400,34.97974057
19.4450,35.31838075
19.4500,35.65824486
19.4550,35.9993219
19.4600,36.34169994
19.4650,36.68574425
19.4700,37.03128731
19.4750,37.37846356
19.4800,37.72755674
19.4850,38.07839391
19.4900,38.43121488
19.4950,38.78611156
19.5000,39.14325784
19.5050,39.50249856
19.5100,39.86390031
19.5150,40.22759058
19.5200,40.59387571
19.5250,40.96292819
19.5300,41.33461385
19.5350,41.70930887
19.5400,42.08738744
19.5450,42.46853222
19.5500,42.85287532
19.5550,43.24027644
19.5600,43.63108335
19.5650,44.0251853
19.5700,44.42283345
19.5750,44.82415342
19.5800,45.22946144
19.5850,45.63850838
19.5900,46.05150647
19.5950,46.46830815
19.6000,46.88905256
19.6050,47.31363482
19.6100,47.74188609
19.6150,48.17418038
19.6200,48.61046784
19.6250,49.05074298
19.6300,49.4949269
19.6350,49.94301432
19.6400,50.39483603
19.6450,50.85023123
19.6500,51.3093021
19.6550,51.7719223
19.6600,52.23772481
19.6650,52.70702773
19.6700,53.17955415
19.6750,53.65573238
19.6800,54.13536407
19.6850,54.61792127
19.6900,55.10344346
19.6950,55.59206088
19.7000,56.08373738
19.7050,56.57872589
19.7100,57.07654692
19.7150,57.57734638
19.7200,58.08134289
19.7250,58.58845111
19.7300,59.09852565
19.7350,59.61158326
19.7400,60.12768342
19.7450,60.64653812
19.7500,61.16871889
19.7550,61.69403321
19.7600,62.22244782
19.7650,62.7535551
19.7700,63.28778323
19.7750,63.82500452
19.7800,64.36514071
19.7850,64.90848935
19.7900,65.45466928
19.7950,66.00350358
19.8000,66.55497216
19.8050,67.10908229
19.8100,67.66597117
19.8150,68.22569571
19.8200,68.78812273
19.8250,69.35320637
19.8300,69.92065259
19.8350,70.49093925
19.8400,71.06366288
19.8450,71.63915975
19.8500,72.21735509
19.8550,72.79843308
19.8600,73.38225788
19.8650,73.96904558
19.8700,74.55867717
19.8750,75.15083823
19.8800,75.74556933
19.8850,76.34329005
19.8900,76.94359368
19.8950,77.54672157
19.9000,78.15260164
19.9050,78.7610009
19.9100,79.37191369
19.9150,79.98511245
19.9200,80.60051589
19.9250,81.21762393
19.9300,81.83617544
19.9350,82.45634243
19.9400,83.07782153
19.9450,83.70067194
19.9500,84.32463393
19.9550,84.94959465
19.9600,85.57575449
19.9650,86.20307364
19.9700,86.83143961
19.9750,87.46058531
19.9800,88.09060002
19.9850,88.72172132
19.9900,89.35391406
19.9950,89.98726663
20.0000,90.62160343
20.0050,91.25689011
20.0100,91.89309531
20.0150,92.53031423
20.0200,93.16845893
20.0250,93.80737691
20.0300,94.44689992
20.0350,95.08712232
20.0400,95.72743417
20.0450,96.36821513
20.0500,97.00880931
20.0550,97.64928959
20.0600,98.28919896
20.0650,98.92835723
20.0700,99.56687646
20.0750,100.204367
20.0800,100.8405079
20.0850,101.4748769
20.0900,102.1075935
20.0950,102.7383755
20.1000,103.3668156
20.1050,103.9930418
20.1100,104.6166217
20.1150,105.237129
20.1200,105.8544614
20.1250,106.4682217
20.1300,107.0782367
20.1350,107.6843457
20.1400,108.2861101
20.1450,108.8832934
20.1500,109.4754924
20.1550,110.0627802
20.1600,110.6450632
20.1650,111.221893
20.1700,111.7934111
20.1750,112.3598017
20.1800,112.9207092
20.1850,113.4762077
20.1900,114.0265356
20.1950,114.5714235
20.2000,115.1111391
20.2050,115.6455616
20.2100,116.1753204
20.2150,116.7004357
20.2200,117.2212994
20.2250,117.7378587
20.2300,118.2501413
20.2350,118.7582815
20.2400,119.2623998
20.2450,119.7622333
20.2500,120.2577305
20.2550,120.7490981
20.2600,121.2363469
20.2650,121.7194363
20.2700,122.1985492
20.2750,122.6734772
20.2800,123.1440054
20.2850,123.6104058
20.2900,124.0726669
20.2950,124.5304122
20.3000,124.9834347
20.3050,125.4317906
20.3100,125.8755389
20.3150,126.3145924
20.3200,126.7488104
20.3250,127.1782933
20.3300,127.603172
20.3350,128.023649
20.3400,128.4400076
20.3450,128.8525863
20.3500,129.2612856
20.3550,129.66576
20.3600,130.0663642
20.3650,130.4631301
20.3700,130.8557339
20.3750,131.2446293
20.3800,131.6296687
20.3850,132.0109833
20.3900,132.388917
20.3950,132.7638145
20.4000,133.1358727
20.4050,133.5048068
20.4100,133.8708215
20.4150,134.2339439
20.4200,134.5947001
20.4250,134.9529865
20.4300,135.3089995
20.4350,135.6624531
20.4400,136.013862
20.4450,136.3632137
20.4500,136.7109726
20.4550,137.0568446
20.4600,137.4009148
20.4650,137.7431677
20.4700,138.083575
20.4750,138.4221668
20.4800,138.7590672
20.4850,139.0943498
20.4900,139.4275142
20.4950,139.7591849
20.5000,140.0888947
20.5050,140.4170987
20.5100,140.7434463
20.5150,141.0682246
20.5200,141.3912713
20.5250,141.712714
20.5300,142.0326358
20.5350,142.3510691
20.5400,142.6681217
20.5450,142.9842983
20.5500,143.2995488
20.5550,143.6138979
20.5600,143.9270125
20.5650,144.2386209
20.5700,144.5483295
20.5750,144.8557424
20.5800,145.1608881
20.5850,145.4631938
20.5900,145.7623546
20.5950,146.05841
20.6000,146.3512591
20.6050,146.6404343
20.6100,146.9260516
20.6150,147.2079682
20.6200,147.486109
20.6250,147.760239
20.6300,148.030649
20.6350,148.2970471
20.6400,148.5597049
20.6450,148.8186919
20.6500,149.0744058
20.6550,149.3273907
20.6600,149.5777766
20.6650,149.8260218
20.6700,150.0726504
20.6750,150.3178397
20.6800,150.561763
20.6850,150.8044083
20.6900,151.0455893
20.6950,151.2848501
20.7000,151.5221678
20.7050,151.7573907
20.7100,151.9902192
20.7150,152.2206053
20.7200,152.4483843
20.7250,152.6736768
20.7300,152.8964218
20.7350,153.1166657
20.7400,153.3340344
20.7450,153.5481132
20.7500,153.7588159
20.7550,153.9658321
20.7600,154.1694999
20.7650,154.3700932
20.7700,154.5676302
20.7750,154.7621385
20.7800,154.9539125
20.7850,155.1431963
20.7900,155.3300361
20.7950,155.5146152
20.8000,155.697181
20.8050,155.8780902
20.8100,156.0574992
20.8150,156.2350545
20.8200,156.4111888
20.8250,156.5857728
20.8300,156.758731
20.8350,156.9299301
20.8400,157.0994856
20.8450,157.2667006
20.8500,157.431747
20.8550,157.5943558
20.8600,157.7544211
20.8650,157.9121933
20.8700,158.067612
20.8750,158.2211101
20.8800,158.3725058
20.8850,158.5218992
20.8900,158.6694552
20.8950,158.815093
20.9000,158.9588687
20.9050,159.1007945
20.9100,159.2412314
20.9150,159.3799931
20.9200,159.517432
20.9250,159.6537023
20.9300,159.7885497
20.9350,159.9223942
20.9400,160.0549142
20.9450,160.1862621
20.9500,160.3162875
20.9550,160.4450265
20.9600,160.5724363
20.9650,160.6984142
20.9700,160.8228712
20.9750,160.9460886
20.9800,161.0682026
20.9850,161.1893901
20.9900,161.3095887
20.9950,161.4293173
21.0000,161.5486481
21.0050,161.667847
21.0100,161.7869681
21.0150,161.9061895
21.0200,162.0254636
21.0250,162.145092
21.0300,162.2648397
21.0350,162.3851167
21.0400,162.5061792
21.0450,162.6282535
21.0500,162.7515428
21.0550,162.8764454
21.0600,163.0027158
21.0650,163.1303905
21.0700,163.259628
21.0750,163.3903755
21.0800,163.5224573
21.0850,163.6558824
21.0900,163.7909225
21.0950,163.9273812
21.1000,164.0653662
21.1050,164.2045926
21.1100,164.3450544
21.1150,164.4865944
21.1200,164.6290444
21.1250,164.7723952
21.1300,164.9168946
21.1350,165.0626341
21.1400,165.2093187
21.1450,165.3573028
21.1500,165.5064352
21.1550,165.6567617
21.1600,165.8084028
21.1650,165.9608934
21.1700,166.1143958
21.1750,166.2686782
21.1800,166.4237234
21.1850,166.5792278
21.1900,166.7348038
21.1950,166.8905904
21.2000,167.0462912
21.2050,167.2018008
21.2100,167.3566219
21.2150,167.5107644
21.2200,167.6646416
21.2250,167.8182827
21.2300,167.9717345
21.2350,168.1245298
21.2400,168.2769204
21.2450,168.4288383
21.2500,168.5805098
21.2550,168.7319194
21.2600,168.883314
21.2650,169.0345844
21.2700,169.1855494
21.2750,169.3361006
21.2800,169.4861371
21.2850,169.6354858
21.2900,169.7844257
21.2950,169.9326034
21.3000,170.0798975
21.3050,170.2258679
21.3100,170.3702805
21.3150,170.5127667
21.3200,170.6530036
21.3250,170.7906058
21.3300,170.9255398
21.3350,171.0576746
21.3400,171.1865902
21.3450,171.3122858
21.3500,171.4345353
21.3550,171.5532097
21.3600,171.6680901
21.3650,171.779203
21.3700,171.8865716
21.3750,171.9902186
21.3800,172.0900516
21.3850,172.1861573
21.3900,172.2785008
21.3950,172.3672058
21.4000,172.4523825
21.4050,172.5337962
21.4100,172.6115593
21.4150,172.6858319
21.4200,172.7564141
21.4250,172.8236437
21.4300,172.887274
21.4350,172.9472324
21.4400,173.0038799
21.4450,173.0571402
21.4500,173.1070037
21.4550,173.1533636
21.4600,173.196376
21.4650,173.2362726
21.4700,173.2728154
21.4750,173.3064355
21.4800,173.3370605
21.4850,173.3648491
21.4900,173.3902168
21.4950,173.4131174
21.5000,173.4335987
21.5050,173.4517235
21.5100,173.4676534
21.5150,173.4812825
21.5200,173.4922972
21.5250,173.500714
21.5300,173.5065211
21.5350,173.5097387
21.5400,173.510394
21.5450,173.5084261
21.5500,173.5038312
21.5550,173.4964959
21.5600,173.4863233
21.5650,173.4731812
21.5700,173.4574398
21.5750,173.4391745
21.5800,173.418223
21.5850,173.3945324
21.5900,173.3679168
21.5950,173.3383391
21.6000,173.3055738
21.6050,173.2699397
21.6100,173.2312419
21.6150,173.1894468
21.6200,173.1446709
21.6250,173.0969635
21.6300,173.0458736
21.6350,172.9911718
21.6400,172.9329282
21.6450,172.8710836
21.6500,172.8055314
21.6550,172.7362259
21.6600,172.6635028
21.6650,172.5870747
21.6700,172.5069773
21.6750,172.4230795
21.6800,172.3354783
21.6850,172.2440563
21.6900,172.1485743
21.6950,172.0493168
21.7000,171.9460469
21.7050,171.8390689
21.7100,171.7281363
21.7150,171.613345
21.7200,171.4947909
21.7250,171.3722166
21.7300,171.2457098
21.7350,171.1152921
21.7400,170.9808965
21.7450,170.8423775
21.7500,170.6998808
21.7550,170.5533326
21.7600,170.4025759
21.7650,170.2478206
21.7700,170.08917
21.7750,169.9264862
21.7800,169.7599423
21.7850,169.5897874
21.7900,169.4161989
21.7950,169.2392631
21.8000,169.0591861
21.8050,168.8760466
21.8100,168.6900075
21.8150,168.5013002
21.8200,168.3098279
21.8250,168.1156544
21.8300,167.9186402
21.8350,167.7189709
21.8400,167.5166749
21.8450,167.3117902
21.8500,167.1042449
21.8550,166.8942602
21.8600,166.681601
21.8650,166.4666341
21.8700,166.2490483
21.8750,166.0285953
21.8800,165.8054673
21.8850,165.5799945
21.8900,165.3521694
21.8950,165.1217887
21.9000,164.8888691
21.9050,164.6533314
21.9100,164.415151
21.9150,164.1742043
21.9200,163.9305789
21.9250,163.6839797
21.9300,163.4348761
21.9350,163.1831979
21.9400,162.9292171
21.9450,162.672839
21.9500,162.4142216
21.9550,162.1534619
21.9600,161.8902168
21.9650,161.6248161
21.9700,161.3570433
21.9750,161.0870287
21.9800,160.8148171
21.9850,160.5405008
21.9900,160.2644556
21.9950,159.9862575
22.0000,159.7061261
22.0050,159.4237954
22.0100,159.1392734
22.0150,158.8524687
22.0200,158.5633229
22.0250,158.2717733
22.0300,157.9779515
22.0350,157.6819433
22.0400,157.383734
22.0450,157.0832749
22.0500,156.7803211
22.0550,156.4751204
22.0600,156.1678263
22.0650,155.8582979
22.0700,155.5465021
22.0750,155.232132
22.0800,154.9152159
22.0850,154.5955423
22.0900,154.2727647
22.0950,153.9472655
22.1000,153.6188254
22.1050,153.2875664
22.1100,152.9533106
22.1150,152.6159311
22.1200,152.2752765
22.1250,151.931191
22.1300,151.5839772
22.1350,151.2334793
22.1400,150.879439
22.1450,150.521804
22.1500,150.16067
22.1550,149.7959373
22.1600,149.4276453
22.1650,149.0553926
22.1700,148.6791724
22.1750,148.2990147
22.1800,147.9147771
22.1850,147.5262598
22.1900,147.1332075
22.1950,146.7357233
22.2000,146.3337351
22.2050,145.9267559
22.2100,145.515427
22.2150,145.0997789
22.2200,144.6799175
22.2250,144.2560741
22.2300,143.8280427
22.2350,143.3957298
22.2400,142.9585537
22.2450,142.5163134
22.2500,142.0689303
22.2550,141.6158714
22.2600,141.1575246
22.2650,140.6936563
22.2700,140.2241672
22.2750,139.7493251
22.2800,139.2691285
22.2850,138.7834069
22.2900,138.2920322
22.2950,137.7952206
22.3000,137.2930633
22.3050,136.7855032
22.3100,136.2729189
22.3150,135.7550613
22.3200,135.2318232
22.3250,134.7034699
22.3300,134.1698358
22.3350,133.630861
22.3400,133.086145
22.3450,132.5357307
22.3500,131.9795664
22.3550,131.4176534
22.3600,130.8496573
22.3650,130.2757053
22.3700,129.6957471
22.3750,129.1097178
22.3800,128.5176347
22.3850,127.919744
22.3900,127.3159625
22.3950,126.7057256
22.4000,126.0892186
22.4050,125.4663737
22.4100,124.8373121
22.4150,124.2016218
22.4200,123.5597974
22.4250,122.9114949
22.4300,122.256938
22.4350,121.596425
22.4400,120.9297289
22.4450,120.2567566
22.4500,119.5773603
22.4550,118.8911673
22.4600,118.1984747
22.4650,117.4993947
22.4700,116.7938032
22.4750,116.0815246
22.4800,115.3629781
22.4850,114.6381416
22.4900,113.9068935
22.4950,113.1697766
22.5000,112.4269038
22.5050,111.6786923
22.5100,110.9248991
22.5150,110.1661657
22.5200,109.4022953
22.5250,108.6334442
22.5300,107.8603006
22.5350,107.0827056
22.5400,106.3009596
22.5450,105.5156926
22.5500,104.7269951
22.5550,103.9355572
22.5600,103.1414765
22.5650,102.34495
22.5700,101.5463825
22.5750,100.746056
22.5800,99.94409514
22.5850,99.14126667
22.5900,98.33767
22.5950,97.53305562
22.6000,96.72786233
22.6050,95.92283365
22.6100,95.11800518
22.6150,94.31344108
22.6200,93.50972771
22.6250,92.70683522
22.6300,91.90515032
22.6350,91.10455957
22.6400,90.30599682
22.6450,89.51001529
22.6500,88.717063
22.6550,87.92686949
22.6600,87.14013544
22.6650,86.35713097
22.6700,85.57793468
22.6750,84.8031272
22.6800,84.0328187
22.6850,83.26695341
22.6900,82.50631074
22.6950,81.75127224
22.7000,81.00171585
22.7050,80.25801206
22.7100,79.52040506
22.7150,78.78942086
22.7200,78.06501047
22.7250,77.34708186
22.7300,76.63575265
22.7350,75.93087969
22.7400,75.23285117
22.7450,74.54170375
22.7500,73.8575558
22.7550,73.18042148
22.7600,72.51042809
22.7650,71.84751321
22.7700,71.19171381
22.7750,70.54323659
22.7800,69.90181959
22.7850,69.26718478
22.7900,68.63984761
22.7950,68.01923388
22.8000,67.40536635
22.8050,66.79751064
22.8100,66.19580774
22.8150,65.60005996
22.8200,65.01023287
22.8250,64.42622107
22.8300,63.84790306
22.8350,63.27506773
22.8400,62.70775027
22.8450,62.14548942
22.8500,61.58780372
22.8550,61.03480488
22.8600,60.48626447
22.8650,59.94263472
22.8700,59.40363805
22.8750,58.86901014
22.8800,58.33827254
22.8850,57.81105869
22.8900,57.28723889
22.8950,56.76671897
22.9000,56.24899343
22.9050,55.73380676
22.9100,55.22130168
22.9150,54.71175688
22.9200,54.2051618
22.9250,53.70158593
22.9300,53.20092495
22.9350,52.7032645
22.9400,52.20807496
22.9450,51.71514693
22.9500,51.22439169
22.9550,50.73616624
22.9600,50.25043857
22.9650,49.76721808
22.9700,49.28655403
22.9750,48.80857418
22.9800,48.33309164
22.9850,47.86027726
22.9900,47.38983607
22.9950,46.92154861
23.0000,46.45584831
23.0050,45.99276784
23.0100,45.53240006
23.0150,45.07476091
23.0200,44.61995113
23.0250,44.16813297
23.0300,43.71947375
23.0350,43.27382352
23.0400,42.83138859
23.0450,42.39208487
23.0500,41.95599696
23.0550,41.52337933
23.0600,41.09440646
23.0650,40.66933922
23.0700,40.24832576
23.0750,39.8313114
23.0800,39.41833732
23.0850,39.0095418
23.0900,38.60489397
23.0950,38.2046326
23.1000,37.80870523
23.1050,37.41731953
23.1100,37.03010356
23.1150,36.64657472
23.1200,36.26704545
23.1250,35.89119918
23.1300,35.51891416
23.1350,35.15043402
23.1400,34.78559854
23.1450,34.42446776
23.1500,34.06711225
23.1550,33.71320855
23.1600,33.36282823
23.1650,33.01561992
23.1700,32.67157623
23.1750,32.33044155
23.1800,31.99229991
23.1850,31.65718547
23.1900,31.32506945
23.1950,30.99589462
23.2000,30.66978611
23.2050,30.34668625
23.2100,30.0262921
23.2150,29.70872293
23.2200,29.39401416
23.2250,29.0821227
23.2300,28.77315945
23.2350,28.46674919
23.2400,28.16291637
23.2450,27.86181395
23.2500,27.56318177
23.2550,27.26672591
23.2600,26.97234163
23.2650,26.67978091
23.2700,26.38906858
23.2750,26.10006395
23.2800,25.81305989
23.2850,25.52798033
23.2900,25.24484048
23.2950,24.96360867
23.3000,24.68439137
23.3050,24.40716346
23.3100,24.13176089
23.3150,23.8579761
23.3200,23.58597248
23.3250,23.31563743
23.3300,23.04683211
23.3350,22.77996929
23.3400,22.5145333
23.3450,22.25078504
23.3500,21.98863119
23.3550,21.72804083
23.3600,21.46929675
23.3650,21.21232145
23.3700,20.95726281
23.3750,20.70427063
23.3800,20.45344644
23.3850,20.2048645
23.3900,19.95847725
23.3950,19.71420647
23.4000,19.4719771
23.4050,19.23195918
23.4100,18.99419617
23.4150,18.75879479
23.4200,18.52574907
23.4250,18.29518869
23.4300,18.06711438
23.4350,17.84156636
23.4400,17.61872066
23.4450,17.39854992
23.4500,17.18110749
23.4550,16.96661087
23.4600,16.75487832
23.4650,16.54607076
23.4700,16.34014709
23.4750,16.13721194
23.4800,15.9371825
23.4850,15.74009964
23.4900,15.54600827
23.4950,15.35511114
23.5000,15.16737208
23.5050,14.98277688
23.5100,14.80150671
23.5150,14.62340851
23.5200,14.44852423
23.5250,14.27661095
23.5300,14.10777836
23.5350,13.94210756
23.5400,13.77959792
23.5450,13.62015857
23.5500,13.46390481
23.5550,13.31093631
23.5600,13.16109572
23.5650,13.01443792
23.5700,12.87085022
23.5750,12.73052096
23.5800,12.59324285
23.5850,12.45892688
23.5900,12.32751007
23.5950,12.19919556
23.6000,12.07351674
23.6050,11.95052598
23.6100,11.8299913
23.6150,11.71185715
23.6200,11.59590637
23.6250,11.48204728
23.6300,11.37013953
23.6350,11.25971002
23.6400,11.15101837
23.6450,11.04375297
23.6500,10.93773338
23.6550,10.83289644
23.6600,10.72896725
23.6650,10.6259539
23.6700,10.52379142
23.6750,10.42229977
23.6800,10.32131186
23.6850,10.22063989
23.6900,10.12026426
23.6950,10.02012762
23.7000,9.920005485
23.7050,9.819880901
23.7100,9.719570349
23.7150,9.619170564
23.7200,9.518405526
23.7250,9.417462308
23.7300,9.316155851
23.7350,9.214386207
23.7400,9.111997199
23.7450,9.009101203
23.7500,8.905542403
23.7550,8.801158527
23.7600,8.696159401
23.7650,8.590354594
23.7700,8.483884817
23.7750,8.376890955
23.7800,8.269461557
23.7850,8.161614635
23.7900,8.053539123
23.7950,7.945271224
23.8000,7.837077294
23.8050,7.729191739
23.8100,7.621848588
23.8150,7.515470953
23.8200,7.410202304
23.8250,7.306450689
23.8300,7.204236409
23.8350,7.103799993
23.8400,7.005367212
23.8450,6.908901769
23.8500,6.814628064
23.8550,6.722516973
23.8600,6.632834711
23.8650,6.545575279
23.8700,6.460994749
23.8750,6.378898081
23.8800,6.299559267
23.8850,6.223087063
23.8900,6.149570021
23.8950,6.078817191
23.9000,6.011270184
23.9050,5.946624277
23.9100,5.885130253
23.9150,5.826721427
23.9200,5.771569964
23.9250,5.719686818
23.9300,5.671115825
23.9350,5.625959695
23.9400,5.584103052
23.9450,5.545508327
23.9500,5.510382616
23.9550,5.478463924
23.9600,5.449607061
23.9650,5.423689895
23.9700,5.400305059
23.9750,5.379375683
23.9800,5.360686253
23.9850,5.344010115
23.9900,5.328915836
23.9950,5.315003778
24.0000,5.302271756
24.0050,5.290210373
24.0100,5.27864809
24.0150,5.267432666
24.0200,5.256237596
24.0250,5.244908534
24.0300,5.233198822
24.0350,5.220982242
24.0400,5.208073111
24.0450,5.194380185
24.0500,5.179733127
24.0550,5.164257007
24.0600,5.147820581
24.0650,5.130633081
24.0700,5.112659799
24.0750,5.094122838
24.0800,5.075266774
24.0850,5.056127564
24.0900,5.036957329
24.0950,5.017950334
24.1000,4.999298678
24.1050,4.981110922
24.1100,4.963476229
24.1150,4.946569555
24.1200,4.930198472
24.1250,4.914371422
24.1300,4.899187115
24.1350,4.884625268
24.1400,4.870701939
24.1450,4.857485867
24.1500,4.844827671
24.1550,4.83274515
24.1600,4.82111695
24.1650,4.810008252
24.1700,4.799326283
24.1750,4.789036716
24.1800,4.779141887
24.1850,4.76961166
24.1900,4.760453505
24.1950,4.751609525
24.2000,4.742914327
24.2050,4.734540345
24.2100,4.726541717
24.2150,4.719132002
24.2200,4.712270377
24.2250,4.705989477
24.2300,4.700481336
24.2350,4.695813214
24.2400,4.692076594
24.2450,4.689486094
24.2500,4.687710547
24.2550,4.686979539
24.2600,4.68741816
24.2650,4.688734108
24.2700,4.691333143
24.2750,4.695002039
24.2800,4.699682399
24.2850,4.705429344
24.2900,4.712175363
24.2950,4.720103461
24.3000,4.72910047
24.3050,4.739276699
24.3100,4.750653924
24.3150,4.763177678
24.3200,4.77704342
24.3250,4.792198672
24.3300,4.808801189
24.3350,4.827048902
24.3400,4.846876018
24.3450,4.868434938
24.3500,4.892027448
24.3550,4.917689622
24.3600,4.945479583
24.3650,4.975303885
24.3700,5.007416596
24.3750,5.041613572
24.3800,5.077785764
24.3850,5.115980097
24.3900,5.155969026
24.3950,5.197611903
24.4000,5.240520829
24.4050,5.284738888
24.4100,5.330120431
24.4150,5.376371334
24.4200,5.423493371
24.4250,5.471481251
24.4300,5.52024844
24.4350,5.569749555
24.4400,5.619704988
24.4450,5.669984664
24.4500,5.72078534
24.4550,5.771954086
24.4600,5.823706676
24.4650,5.875906885
24.4700,5.92855415
24.4750,5.981634595
24.4800,6.035225636
24.4850,6.089428452
24.4900,6.144094902
24.4950,6.199456209
24.5000,6.255616593
24.5050,6.312639152
24.5100,6.370448166
24.5150,6.429054667
24.5200,6.488385704
24.5250,6.548949039
24.5300,6.610559999
24.5350,6.67337519
24.5400,6.737803206
24.5450,6.80388734
24.5500,6.871960013
24.5550,6.942276618
24.5600,7.014803522
24.5650,7.089883789
24.5700,7.167463916
24.5750,7.247860995
24.5800,7.330984152
24.5850,7.416792757
24.5900,7.505344673
24.5950,7.596780687
24.6000,7.691075586
24.6050,7.788430357
24.6100,7.888806638
24.6150,7.992194624
24.6200,8.098714844
24.6250,8.208047319
24.6300,8.320200632
24.6350,8.43500035
24.6400,8.552677496
24.6450,8.673048231
24.6500,8.795899156
24.6550,8.92138769
24.6600,9.049664101
24.6650,9.180992443
24.6700,9.315352017
24.6750,9.453090825
24.6800,9.594458748
24.6850,9.739629354
24.6900,9.888810323
24.6950,10.04230401
24.7000,10.20029334
24.7050,10.36281312
24.7100,10.5298585
24.7150,10.70148297
24.7200,10.87784023
24.7250,11.05896473
24.7300,11.24479999
24.7350,11.43529631
24.7400,11.63052946
24.7450,11.8306066
24.7500,12.03514615
24.7550,12.24413822
24.7600,12.45750014
24.7650,12.67509759
24.7700,12.89678183
24.7750,13.12264736
24.7800,13.3522402
24.7850,13.58541587
24.7900,13.82226255
24.7950,14.06265767
24.8000,14.30622433
24.8050,14.55301235
24.8100,14.80307904
24.8150,15.05615791
24.8200,15.31233485
24.8250,15.57124484
24.8300,15.832923
24.8350,16.09721337
24.8400,16.36387084
24.8450,16.63270365
24.8500,16.90347977
24.8550,17.17609716
24.8600,17.45040638
24.8650,17.72632103
24.8700,18.00370952
24.8750,18.28255156
24.8800,18.56298508
24.8850,18.84494633
24.8900,19.12869044
24.8950,19.41408902
24.9000,19.70105777
24.9050,19.98958407
24.9100,20.27950802
24.9150,20.57078073
24.9200,20.86334886
24.9250,21.15753283
24.9300,21.45328595
24.9350,21.75063798
24.9400,22.04965106
24.9450,22.35029068
24.9500,22.65306598
24.9550,22.9578466
24.9600,23.26473493
24.9650,23.57353404
24.9700,23.88457736
24.9750,24.19756591
24.9800,24.51237776
24.9850,24.82893282
24.9900,25.14709899
24.9950,25.46669116
25.0000,25.7879373
25.0050,26.11083378
25.0100,26.43538375
25.0150,26.76163337
25.0200,27.08948598
25.0250,27.41864132
25.0300,27.74905837
25.0350,28.08084965
25.0400,28.41378133
25.0450,28.74778448
25.0500,29.08298871
25.0550,29.41949545
25.0600,29.75710751
25.0650,30.09572234
25.0700,30.43548727
25.0750,30.7761099
25.0800,31.11774715
25.0850,31.46048087
25.0900,31.80418426
25.0950,32.14901508
25.1000,32.49507801
25.1050,32.84220794
25.1100,33.19031279
25.1150,33.53973386
25.1200,33.89034187
25.1250,34.24193366
25.1300,34.59452121
25.1350,34.94823623
25.1400,35.30278589
25.1450,35.65825167
25.1500,36.01459681
25.1550,36.3716984
25.1600,36.72975545
25.1650,37.08902135
25.1700,37.44941786
25.1750,37.81091577
25.1800,38.1738517
25.1850,38.53843013
25.1900,38.90462912
25.1950,39.27276163
25.2000,39.6430919
25.2050,40.01588552
25.2100,40.39193553
25.2150,40.77172813
25.2200,41.1558798
25.2250,41.54503273
25.2300,41.94039443
25.2350,42.34278652
25.2400,42.75320444
25.2450,43.17318375
25.2500,43.60353138
25.2550,44.0454065
25.2600,44.50035666
25.2650,44.97016823
25.2700,45.45613787
25.2750,45.96047104
25.2800,46.48528844
25.2850,47.03271434
25.2900,47.604782
25.2950,48.20384649
25.3000,48.83147797
25.3050,49.48938455
25.3100,50.17868615
25.3150,50.44516409
25.3200,50.73740401
25.3250,51.05451202
25.3300,51.39512078
25.3350,51.75746428
25.3400,52.13943791
25.3450,52.53864493
25.3500,52.95243199
25.3550,53.37791639
25.3600,53.81200835
25.3650,54.25143037
25.3700,54.69273467
25.3750,55.13232095
25.3800,55.56645925
25.3850,55.99132128
25.3900,56.40302219
25.3950,56.7976747
25.4000,57.17145665
25.4050,57.52069067
25.4100,57.84193642
25.4150,58.1320987
25.4200,58.38855362
25.4250,58.60929364
25.4300,58.79309351
25.4350,58.93969695
