type,name,time_units,begin_time,frequency,count,units
signal,"Noraxon MyoMotion-Joints-Elbow RT-Flexion","s",0.0000,200,5088,"deg"

time,value
0.0000,3.217804759
0.0050,3.210561475
0.0100,3.203319364
0.0150,3.196078424
0.0200,3.188811747
0.0250,3.181677066
0.0300,3.1748415
0.0350,3.168474906
0.0400,3.162744516
0.0450,3.157809901
0.0500,3.153816851
0.0550,3.150891546
0.0600,3.149137079
0.0650,3.148631426
0.0700,3.149425482
0.0750,3.151541673
0.0800,3.154974062
0.0850,3.15968944
0.0900,3.165628176
0.0950,3.172705518
0.1000,3.180814275
0.1050,3.189827457
0.1100,3.199600406
0.1150,3.209973919
0.1200,3.220778985
0.1250,3.231841754
0.1300,3.242986897
0.1350,3.254039584
0.1400,3.264827772
0.1450,3.275185878
0.1500,3.284959658
0.1550,3.293656141
0.1600,3.30169723
0.1650,3.308811538
0.1700,3.315160585
0.1750,3.320808997
0.1800,3.325579651
0.1850,3.329512724
0.1900,3.332523349
0.1950,3.33463683
0.2000,3.336063398
0.2050,3.336545712
0.2100,3.336324266
0.2150,3.33531653
0.2200,3.333723116
0.2250,3.331561131
0.2300,3.328659837
0.2350,3.325373567
0.2400,3.321666476
0.2450,3.317393567
0.2500,3.312801749
0.2550,3.307986377
0.2600,3.302842722
0.2650,3.297486665
0.2700,3.29187593
0.2750,3.286329618
0.2800,3.280763792
0.2850,3.27513809
0.2900,3.269575497
0.2950,3.264066936
0.3000,3.25851069
0.3050,3.253228252
0.3100,3.248251311
0.3150,3.243701871
0.3200,3.239423236
0.3250,3.235560801
0.3300,3.232157594
0.3350,3.229415687
0.3400,3.227092329
0.3450,3.225150364
0.3500,3.223840287
0.3550,3.223076
0.3600,3.222698141
0.3650,3.222693548
0.3700,3.223129359
0.3750,3.223866743
0.3800,3.224876721
0.3850,3.22629826
0.3900,3.227883283
0.3950,3.229907105
0.4000,3.232478145
0.4050,3.235313995
0.4100,3.238735738
0.4150,3.242682322
0.4200,3.246936784
0.4250,3.251746228
0.4300,3.256857727
0.4350,3.262608461
0.4400,3.26879455
0.4450,3.275009713
0.4500,3.281784445
0.4550,3.289084375
0.4600,3.296480175
0.4650,3.3043889
0.4700,3.312458254
0.4750,3.320862254
0.4800,3.329434739
0.4850,3.338245933
0.4900,3.347226639
0.4950,3.35653672
0.5000,3.366361031
0.5050,3.376590406
0.5100,3.387410157
0.5150,3.398925253
0.5200,3.411190751
0.5250,3.423979778
0.5300,3.437560819
0.5350,3.451670504
0.5400,3.466694724
0.5450,3.482368067
0.5500,3.498792093
0.5550,3.516114224
0.5600,3.534060512
0.5650,3.552989794
0.5700,3.572814002
0.5750,3.593299857
0.5800,3.614842744
0.5850,3.637345223
0.5900,3.660907127
0.5950,3.685387711
0.6000,3.711058877
0.6050,3.737675162
0.6100,3.76539498
0.6150,3.794161802
0.6200,3.824226753
0.6250,3.855655351
0.6300,3.888403033
0.6350,3.92253469
0.6400,3.958138069
0.6450,3.995312669
0.6500,4.033965474
0.6550,4.074082505
0.6600,4.115769954
0.6650,4.159041006
0.6700,4.20396966
0.6750,4.250679041
0.6800,4.299030332
0.6850,4.348957229
0.6900,4.400879518
0.6950,4.454432174
0.7000,4.509507795
0.7050,4.566141643
0.7100,4.624463028
0.7150,4.684423494
0.7200,4.746014457
0.7250,4.809469835
0.7300,4.874913727
0.7350,4.941979294
0.7400,5.010903742
0.7450,5.081798683
0.7500,5.154523182
0.7550,5.229270775
0.7600,5.306396984
0.7650,5.385852842
0.7700,5.467977061
0.7750,5.552539025
0.7800,5.639744472
0.7850,5.729815238
0.7900,5.822878867
0.7950,5.91885121
0.8000,6.017771731
0.8050,6.119760327
0.8100,6.22437892
0.8150,6.332022363
0.8200,6.442538503
0.8250,6.556462504
0.8300,6.673640467
0.8350,6.794075364
0.8400,6.917840852
0.8450,7.045040219
0.8500,7.1756103
0.8550,7.309582343
0.8600,7.447176412
0.8650,7.588274517
0.8700,7.732844256
0.8750,7.881190079
0.8800,8.033089503
0.8850,8.188763797
0.8900,8.34817424
0.8950,8.511356105
0.9000,8.678329044
0.9050,8.849100285
0.9100,9.023646641
0.9150,9.202068403
0.9200,9.384198545
0.9250,9.569823599
0.9300,9.759071344
0.9350,9.951797858
0.9400,10.1477963
0.9450,10.34700394
0.9500,10.54934148
0.9550,10.75461394
0.9600,10.96266169
0.9650,11.1734727
0.9700,11.38661998
0.9750,11.60203587
0.9800,11.81934376
0.9850,12.03864594
0.9900,12.25963139
0.9950,12.48222871
1.0000,12.70654739
1.0050,12.93236255
1.0100,13.15948844
1.0150,13.38799294
1.0200,13.61799709
1.0250,13.84923053
1.0300,14.08171868
1.0350,14.31541502
1.0400,14.55047048
1.0450,14.78701562
1.0500,15.0247884
1.0550,15.26393147
1.0600,15.50431237
1.0650,15.74585782
1.0700,15.98850775
1.0750,16.23228189
1.0800,16.47712087
1.0850,16.72285134
1.0900,16.96937499
1.0950,17.21665866
1.1000,17.46459989
1.1050,17.71307074
1.1100,17.96219397
1.1150,18.21168542
1.1200,18.4614621
1.1250,18.71107704
1.1300,18.96068753
1.1350,19.2102378
1.1400,19.45937871
1.1450,19.70844871
1.1500,19.95712921
1.1550,20.20554095
1.1600,20.45357282
1.1650,20.70136028
1.1700,20.94898765
1.1750,21.19651688
1.1800,21.44389902
1.1850,21.69112864
1.1900,21.93840145
1.1950,22.18585454
1.2000,22.43360355
1.2050,22.68184001
1.2100,22.93015697
1.2150,23.17893868
1.2200,23.42800748
1.2250,23.67747866
1.2300,23.92726487
1.2350,24.17759296
1.2400,24.42842747
1.2450,24.67989409
1.2500,24.93201474
1.2550,25.18507268
1.2600,25.43913774
1.2650,25.69424162
1.2700,25.95077798
1.2750,26.20873686
1.2800,26.46843008
1.2850,26.72981304
1.2900,26.99316631
1.2950,27.25850729
1.3000,27.52579799
1.3050,27.79509152
1.3100,28.0662133
1.3150,28.33922562
1.3200,28.61378067
1.3250,28.89004522
1.3300,29.16772629
1.3350,29.44682021
1.3400,29.7271798
1.3450,30.00853492
1.3500,30.29094935
1.3550,30.57431211
1.3600,30.85864743
1.3650,31.14387408
1.3700,31.42984613
1.3750,31.71685736
1.3800,32.00525616
1.3850,32.2946405
1.3900,32.58545137
1.3950,32.87749938
1.4000,33.17085468
1.4050,33.46544622
1.4100,33.7614628
1.4150,34.05885453
1.4200,34.3575803
1.4250,34.65780843
1.4300,34.95943842
1.4350,35.26243914
1.4400,35.56695021
1.4450,35.87250923
1.4500,36.17943938
1.4550,36.48730537
1.4600,36.79609681
1.4650,37.10545671
1.4700,37.41527268
1.4750,37.72533086
1.4800,38.03585632
1.4850,38.3467735
1.4900,38.65782869
1.4950,38.96884429
1.5000,39.2796021
1.5050,39.59010678
1.5100,39.90063135
1.5150,40.210935
1.5200,40.5212712
1.5250,40.83156121
1.5300,41.14184879
1.5350,41.45190434
1.5400,41.76188721
1.5450,42.0716541
1.5500,42.38136198
1.5550,42.69085498
1.5600,42.99995739
1.5650,43.30870449
1.5700,43.61666002
1.5750,43.92389964
1.5800,44.23038411
1.5850,44.53594276
1.5900,44.84031694
1.5950,45.14357222
1.6000,45.4454257
1.6050,45.74609072
1.6100,46.04570028
1.6150,46.34392932
1.6200,46.64100782
1.6250,46.93678004
1.6300,47.23165019
1.6350,47.52541691
1.6400,47.81791857
1.6450,48.10947517
1.6500,48.400155
1.6550,48.69005159
1.6600,48.97908426
1.6650,49.2674644
1.6700,49.55519111
1.6750,49.84230509
1.6800,50.12832962
1.6850,50.41365934
1.6900,50.69789688
1.6950,50.98133845
1.7000,51.26409272
1.7050,51.54606971
1.7100,51.82754859
1.7150,52.10807455
1.7200,52.38797558
1.7250,52.66702281
1.7300,52.9451742
1.7350,53.22267049
1.7400,53.49938165
1.7450,53.77536532
1.7500,54.05060359
1.7550,54.32519279
1.7600,54.59940922
1.7650,54.87319413
1.7700,55.14669181
1.7750,55.4201791
1.7800,55.69339367
1.7850,55.9668053
1.7900,56.24038009
1.7950,56.51430454
1.8000,56.78869325
1.8050,57.06352578
1.8100,57.33892095
1.8150,57.61467679
1.8200,57.89065891
1.8250,58.16709957
1.8300,58.44386334
1.8350,58.72100639
1.8400,58.99857648
1.8450,59.2762905
1.8500,59.55424318
1.8550,59.83228871
1.8600,60.11055743
1.8650,60.38865091
1.8700,60.66671666
1.8750,60.94460904
1.8800,61.22226521
1.8850,61.49968058
1.8900,61.77669869
1.8950,62.05317272
1.9000,62.32923241
1.9050,62.60449016
1.9100,62.87916178
1.9150,63.15319402
1.9200,63.42659602
1.9250,63.69928769
1.9300,63.97101718
1.9350,64.24223938
1.9400,64.51259332
1.9450,64.78222905
1.9500,65.05099254
1.9550,65.31891497
1.9600,65.58600325
1.9650,65.85207885
1.9700,66.11748343
1.9750,66.38216254
1.9800,66.64614887
1.9850,66.90986596
1.9900,67.17336508
1.9950,67.43652619
2.0000,67.69904867
2.0050,67.9611159
2.0100,68.22228594
2.0150,68.48291856
2.0200,68.74272286
2.0250,69.00182751
2.0300,69.26019233
2.0350,69.51784576
2.0400,69.77492221
2.0450,70.03115496
2.0500,70.28672708
2.0550,70.54173054
2.0600,70.79588106
2.0650,71.04962828
2.0700,71.30312346
2.0750,71.55609724
2.0800,71.80875211
2.0850,72.06091808
2.0900,72.31289088
2.0950,72.5644697
2.1000,72.81594154
2.1050,73.06747164
2.1100,73.31898994
2.1150,73.57079704
2.1200,73.82312534
2.1250,74.07603818
2.1300,74.3295231
2.1350,74.58336882
2.1400,74.83771742
2.1450,75.09253416
2.1500,75.34779974
2.1550,75.60330177
2.1600,75.85905802
2.1650,76.11538742
2.1700,76.37190054
2.1750,76.62884816
2.1800,76.88621168
2.1850,77.14386665
2.1900,77.40179184
2.1950,77.66016498
2.2000,77.91898939
2.2050,78.1786334
2.2100,78.43849932
2.2150,78.69902998
2.2200,78.96004664
2.2250,79.22148871
2.2300,79.4833961
2.2350,79.74568123
2.2400,80.00826937
2.2450,80.2711704
2.2500,80.53418438
2.2550,80.79712782
2.2600,81.06029441
2.2650,81.32370946
2.2700,81.5870824
2.2750,81.85037694
2.2800,82.11364006
2.2850,82.37634749
2.2900,82.63859002
2.2950,82.9003298
2.3000,83.16161155
2.3050,83.42252538
2.3100,83.68297485
2.3150,83.94277748
2.3200,84.2022999
2.3250,84.46136971
2.3300,84.72037745
2.3350,84.97934139
2.3400,85.23811568
2.3450,85.49698077
2.3500,85.75602759
2.3550,86.01512011
2.3600,86.27462169
2.3650,86.53405979
2.3700,86.79357612
2.3750,87.05330964
2.3800,87.31352849
2.3850,87.57356021
2.3900,87.83357666
2.3950,88.09421167
2.4000,88.35539991
2.4050,88.61676621
2.4100,88.87831248
2.4150,89.14001807
2.4200,89.40203172
2.4250,89.66421051
2.4300,89.92678326
2.4350,90.18963695
2.4400,90.45252009
2.4450,90.71585685
2.4500,90.97915947
2.4550,91.24279213
2.4600,91.50675814
2.4650,91.77091198
2.4700,92.03556899
2.4750,92.30024677
2.4800,92.56470458
2.4850,92.8289883
2.4900,93.0933575
2.4950,93.3576314
2.5000,93.62140161
2.5050,93.88461255
2.5100,94.14747037
2.5150,94.40971277
2.5200,94.67137305
2.5250,94.93256781
2.5300,95.19307329
2.5350,95.4527509
2.5400,95.71170371
2.5450,95.97003503
2.5500,96.22803169
2.5550,96.48566975
2.5600,96.74274242
2.5650,96.99918367
2.5700,97.25495187
2.5750,97.50969807
2.5800,97.76341484
2.5850,98.01611456
2.5900,98.26753658
2.5950,98.5174361
2.6000,98.76626865
2.6050,99.01307548
2.6100,99.25824127
2.6150,99.50164256
2.6200,99.74289315
2.6250,99.98239909
2.6300,100.2197208
2.6350,100.454621
2.6400,100.6875078
2.6450,100.9185729
2.6500,101.1479047
2.6550,101.375515
2.6600,101.6013238
2.6650,101.8255391
2.6700,102.0482075
2.6750,102.2688899
2.6800,102.487876
2.6850,102.7060418
2.6900,102.9230588
2.6950,103.139202
2.7000,103.3544024
2.7050,103.568854
2.7100,103.7831337
2.7150,103.9969716
2.7200,104.2106148
2.7250,104.4243562
2.7300,104.6382849
2.7350,104.8527643
2.7400,105.0682625
2.7450,105.2848537
2.7500,105.502726
2.7550,105.7221228
2.7600,105.9429322
2.7650,106.1657742
2.7700,106.390406
2.7750,106.6173768
2.7800,106.8467226
2.7850,107.0779565
2.7900,107.311333
2.7950,107.5464265
2.8000,107.7832349
2.8050,108.021459
2.8100,108.2610549
2.8150,108.5016238
2.8200,108.7426974
2.8250,108.9835943
2.8300,109.2241716
2.8350,109.46421
2.8400,109.7034141
2.8450,109.9413993
2.8500,110.17818
2.8550,110.4136426
2.8600,110.6473108
2.8650,110.8794152
2.8700,111.1097491
2.8750,111.3384177
2.8800,111.5652056
2.8850,111.7902102
2.8900,112.0135036
2.8950,112.2349594
2.9000,112.4543881
2.9050,112.6729753
2.9100,112.8896236
2.9150,113.1049983
2.9200,113.3190328
2.9250,113.5315174
2.9300,113.7428999
2.9350,113.9528597
2.9400,114.1612098
2.9450,114.367544
2.9500,114.5717399
2.9550,114.7741437
2.9600,114.9743272
2.9650,115.1725624
2.9700,115.3684051
2.9750,115.5625972
2.9800,115.7547926
2.9850,115.9450246
2.9900,116.1333289
2.9950,116.3191968
3.0000,116.5030559
3.0050,116.6851509
3.0100,116.8650626
3.0150,117.0429088
3.0200,117.2187298
3.0250,117.3922687
3.0300,117.5633429
3.0350,117.7324272
3.0400,117.8990132
3.0450,118.0631216
3.0500,118.2249291
3.0550,118.3843596
3.0600,118.5413394
3.0650,118.6957481
3.0700,118.8477904
3.0750,118.9971627
3.0800,119.1440829
3.0850,119.2888127
3.0900,119.4311107
3.0950,119.5710677
3.1000,119.7089341
3.1050,119.8448434
3.1100,119.9782375
3.1150,120.1097775
3.1200,120.2395252
3.1250,120.3677041
3.1300,120.4945327
3.1350,120.6200376
3.1400,120.7442022
3.1450,120.8672496
3.1500,120.9889308
3.1550,121.1093267
3.1600,121.2283092
3.1650,121.3460147
3.1700,121.4627909
3.1750,121.5785678
3.1800,121.6934841
3.1850,121.8078285
3.1900,121.9212916
3.1950,122.0343484
3.2000,122.1465299
3.2050,122.2577511
3.2100,122.3688349
3.2150,122.4797478
3.2200,122.5902371
3.2250,122.7001445
3.2300,122.8092682
3.2350,122.9176714
3.2400,123.0252045
3.2450,123.1321982
3.2500,123.2381761
3.2550,123.3429008
3.2600,123.4466381
3.2650,123.5492379
3.2700,123.6505274
3.2750,123.7500291
3.2800,123.8480756
3.2850,123.9443271
3.2900,124.039068
3.2950,124.1324268
3.3000,124.2239932
3.3050,124.3142759
3.3100,124.4031359
3.3150,124.4911997
3.3200,124.578476
3.3250,124.6650834
3.3300,124.7516435
3.3350,124.8377882
3.3400,124.9239862
3.3450,125.0103787
3.3500,125.0969672
3.3550,125.1836862
3.3600,125.2712628
3.3650,125.3593033
3.3700,125.4479702
3.3750,125.5372438
3.3800,125.6271735
3.3850,125.7178562
3.3900,125.8091085
3.3950,125.9008962
3.4000,125.9931851
3.4050,126.0857774
3.4100,126.1792781
3.4150,126.272776
3.4200,126.3670056
3.4250,126.4618501
3.4300,126.557178
3.4350,126.6532249
3.4400,126.7500971
3.4450,126.8472484
3.4500,126.9446331
3.4550,127.0423223
3.4600,127.140659
3.4650,127.2389004
3.4700,127.3370397
3.4750,127.4347768
3.4800,127.5325693
3.4850,127.6295068
3.4900,127.7258898
3.4950,127.8210945
3.5000,127.9154885
3.5050,128.0085382
3.5100,128.0999178
3.5150,128.1892216
3.5200,128.2764301
3.5250,128.361977
3.5300,128.4453373
3.5350,128.5264675
3.5400,128.6056096
3.5450,128.6825107
3.5500,128.7578571
3.5550,128.8315615
3.5600,128.9040009
3.5650,128.9747308
3.5700,129.0442196
3.5750,129.1127543
3.5800,129.1802631
3.5850,129.247362
3.5900,129.3141319
3.5950,129.3806963
3.6000,129.4474905
3.6050,129.5143089
3.6100,129.581461
3.6150,129.648962
3.6200,129.7167583
3.6250,129.7850224
3.6300,129.8536406
3.6350,129.9226317
3.6400,129.991924
3.6450,130.0618312
3.6500,130.132451
3.6550,130.2040544
3.6600,130.2763869
3.6650,130.3493528
3.6700,130.4230214
3.6750,130.4973197
3.6800,130.5723097
3.6850,130.6478641
3.6900,130.7241963
3.6950,130.8014275
3.7000,130.8794915
3.7050,130.9584076
3.7100,131.0378013
3.7150,131.1176802
3.7200,131.1976512
3.7250,131.2775882
3.7300,131.3571033
3.7350,131.4359006
3.7400,131.5143987
3.7450,131.5923421
3.7500,131.6697555
3.7550,131.7460631
3.7600,131.8209507
3.7650,131.8941633
3.7700,131.965438
3.7750,132.0351249
3.7800,132.1025881
3.7850,132.1680601
3.7900,132.2312273
3.7950,132.2924188
3.8000,132.3510443
3.8050,132.4076124
3.8100,132.4620805
3.8150,132.5145325
3.8200,132.565114
3.8250,132.6135703
3.8300,132.6600808
3.8350,132.7047642
3.8400,132.7477103
3.8450,132.7892692
3.8500,132.8293284
3.8550,132.8678585
3.8600,132.9049766
3.8650,132.9410197
3.8700,132.9761208
3.8750,133.0100113
3.8800,133.0428684
3.8850,133.0747226
3.8900,133.1058473
3.8950,133.136186
3.9000,133.1662112
3.9050,133.1959007
3.9100,133.2257528
3.9150,133.2556018
3.9200,133.2854768
3.9250,133.3159215
3.9300,133.3470033
3.9350,133.3792619
3.9400,133.4129099
3.9450,133.447704
3.9500,133.4842168
3.9550,133.5218897
3.9600,133.5612339
3.9650,133.6025562
3.9700,133.6460824
3.9750,133.6918981
3.9800,133.7399045
3.9850,133.7904941
3.9900,133.8432376
3.9950,133.8982823
4.0000,133.955594
4.0050,134.0151189
4.0100,134.0767694
4.0150,134.1408411
4.0200,134.2071169
4.0250,134.2754599
4.0300,134.345692
4.0350,134.4178934
4.0400,134.491185
4.0450,134.565677
4.0500,134.6413667
4.0550,134.717867
4.0600,134.7954561
4.0650,134.8741151
4.0700,134.9535625
4.0750,135.0330776
4.0800,135.1128526
4.0850,135.1922712
4.0900,135.2713644
4.0950,135.349809
4.1000,135.4271065
4.1050,135.5029507
4.1100,135.5771764
4.1150,135.6494604
4.1200,135.7194774
4.1250,135.7871544
4.1300,135.8522367
4.1350,135.9144729
4.1400,135.9734204
4.1450,136.0290812
4.1500,136.0806996
4.1550,136.1284189
4.1600,136.1719531
4.1650,136.21111
4.1700,136.2458143
4.1750,136.2763615
4.1800,136.3026415
4.1850,136.3246624
4.1900,136.3423203
4.1950,136.3560481
4.2000,136.3654775
4.2050,136.3707423
4.2100,136.3718211
4.2150,136.3690227
4.2200,136.3623327
4.2250,136.3520502
4.2300,136.3382299
4.2350,136.3203592
4.2400,136.2987429
4.2450,136.273686
4.2500,136.2444669
4.2550,136.2121268
4.2600,136.1760327
4.2650,136.136367
4.2700,136.0928888
4.2750,136.0461582
4.2800,135.9956292
4.2850,135.9414479
4.2900,135.8839879
4.2950,135.8233036
4.3000,135.7590929
4.3050,135.6914565
4.3100,135.6207488
4.3150,135.5469799
4.3200,135.46972
4.3250,135.3894268
4.3300,135.306333
4.3350,135.219638
4.3400,135.1297596
4.3450,135.036901
4.3500,134.9408237
4.3550,134.8417627
4.3600,134.7392259
4.3650,134.6332963
4.3700,134.523888
4.3750,134.4114213
4.3800,134.2955332
4.3850,134.1766773
4.3900,134.0543813
4.3950,133.9287552
4.4000,133.8002442
4.4050,133.6684989
4.4100,133.5335901
4.4150,133.3955548
4.4200,133.2545647
4.4250,133.1104408
4.4300,132.9637072
4.4350,132.8149044
4.4400,132.6638092
4.4450,132.5103307
4.4500,132.3546913
4.4550,132.1967993
4.4600,132.0365122
4.4650,131.8738206
4.4700,131.7092145
4.4750,131.5426338
4.4800,131.3741275
4.4850,131.2037071
4.4900,131.0314704
4.4950,130.8572487
4.5000,130.6812887
4.5050,130.5037614
4.5100,130.3247098
4.5150,130.1444024
4.5200,129.9629031
4.5250,129.7796386
4.5300,129.5950654
4.5350,129.4096161
4.5400,129.2232115
4.5450,129.0352768
4.5500,128.8462883
4.5550,128.6561425
4.5600,128.4652916
4.5650,128.2736756
4.5700,128.0811936
4.5750,127.8873416
4.5800,127.693048
4.5850,127.498028
4.5900,127.3019478
4.5950,127.1050929
4.6000,126.9078418
4.6050,126.7100902
4.6100,126.5120724
4.6150,126.3134755
4.6200,126.1148519
4.6250,125.9159802
4.6300,125.7170467
4.6350,125.5185957
4.6400,125.3204621
4.6450,125.1226932
4.6500,124.9248652
4.6550,124.7272215
4.6600,124.5296037
4.6650,124.3319659
4.6700,124.1340811
4.6750,123.9359244
4.6800,123.7378153
4.6850,123.539134
4.6900,123.3401985
4.6950,123.1411812
4.7000,122.9416519
4.7050,122.7419384
4.7100,122.5415485
4.7150,122.3404751
4.7200,122.1385402
4.7250,121.9358789
4.7300,121.732003
4.7350,121.5266838
4.7400,121.3204513
4.7450,121.1129021
4.7500,120.9039552
4.7550,120.6937894
4.7600,120.4824985
4.7650,120.2699584
4.7700,120.0557338
4.7750,119.8400013
4.7800,119.6224471
4.7850,119.4034125
4.7900,119.1825574
4.7950,118.9597389
4.8000,118.735356
4.8050,118.5090264
4.8100,118.2804028
4.8150,118.0495363
4.8200,117.8161851
4.8250,117.5807228
4.8300,117.3427219
4.8350,117.1020575
4.8400,116.8586432
4.8450,116.6128628
4.8500,116.3644407
4.8550,116.1128609
4.8600,115.85829
4.8650,115.6007006
4.8700,115.3398838
4.8750,115.0758335
4.8800,114.8080322
4.8850,114.5364784
4.8900,114.2615896
4.8950,113.9826585
4.9000,113.6994796
4.9050,113.4119061
4.9100,113.1198002
4.9150,112.8234411
4.9200,112.5227384
4.9250,112.217402
4.9300,111.907138
4.9350,111.5921206
4.9400,111.27231
4.9450,110.9476797
4.9500,110.6185736
4.9550,110.2846931
4.9600,109.9461271
4.9650,109.6028043
4.9700,109.2552303
4.9750,108.903178
4.9800,108.5467077
4.9850,108.1857265
4.9900,107.8205709
4.9950,107.4510413
5.0000,107.0777026
5.0050,106.7001742
5.0100,106.3189196
5.0150,105.9338052
5.0200,105.5453563
5.0250,105.1534954
5.0300,104.7586616
5.0350,104.3602087
5.0400,103.9581993
5.0450,103.5525632
5.0500,103.1440841
5.0550,102.7331185
5.0600,102.3197541
5.0650,101.9043586
5.0700,101.4868181
5.0750,101.0672086
5.0800,100.6461689
5.0850,100.2233767
5.0900,99.79915102
5.0950,99.37329755
5.1000,98.94593577
5.1050,98.51686085
5.1100,98.08691098
5.1150,97.6555335
5.1200,97.22351655
5.1250,96.79083186
5.1300,96.35734269
5.1350,95.92330637
5.1400,95.48837153
5.1450,95.05247483
5.1500,94.61597896
5.1550,94.17909414
5.1600,93.74130724
5.1650,93.30257279
5.1700,92.86323377
5.1750,92.42346962
5.1800,91.98363264
5.1850,91.54364774
5.1900,91.10366835
5.1950,90.66402173
5.2000,90.22468933
5.2050,89.78621055
5.2100,89.34838205
5.2150,88.9112138
5.2200,88.47449753
5.2250,88.03874066
5.2300,87.60394367
5.2350,87.17021924
5.2400,86.73781126
5.2450,86.30689472
5.2500,85.87774409
5.2550,85.45067489
5.2600,85.02564734
5.2650,84.60329961
5.2700,84.18332669
5.2750,83.76588639
5.2800,83.35083788
5.2850,82.93894161
5.2900,82.53056083
5.2950,82.12578028
5.3000,81.72508043
5.3050,81.32855683
5.3100,80.93653835
5.3150,80.54949689
5.3200,80.16737369
5.3250,79.7904003
5.3300,79.41833682
5.3350,79.05157999
5.3400,78.68982847
5.3450,78.33330558
5.3500,77.98139128
5.3550,77.63334567
5.3600,77.28865621
5.3650,76.94732508
5.3700,76.60955263
5.3750,76.2749133
5.3800,75.94272017
5.3850,75.612867
5.3900,75.28470819
5.3950,74.95811693
5.4000,74.63248495
5.4050,74.3078014
5.4100,73.98332996
5.4150,73.65908745
5.4200,73.33464929
5.4250,73.00939022
5.4300,72.68300542
5.4350,72.35519114
5.4400,72.02582261
5.4450,71.69493377
5.4500,71.36203889
5.4550,71.02707293
5.4600,70.69026494
5.4650,70.35159502
5.4700,70.01088598
5.4750,69.66795458
5.4800,69.3227782
5.4850,68.97542044
5.4900,68.62609822
5.4950,68.27508581
5.5000,67.9225485
5.5050,67.56828334
5.5100,67.2123138
5.5150,66.85486972
5.5200,66.49646011
5.5250,66.13682081
5.5300,65.77615853
5.5350,65.41468805
5.5400,65.05212947
5.5450,64.68890193
5.5500,64.3249065
5.5550,63.96060163
5.5600,63.59679037
5.5650,63.23336996
5.5700,62.87120839
5.5750,62.51036538
5.5800,62.15140509
5.5850,61.79463979
5.5900,61.43989327
5.5950,61.08755053
5.6000,60.73769528
5.6050,60.3910312
5.6100,60.04749452
5.6150,59.70725151
5.6200,59.37050259
5.6250,59.03764682
5.6300,58.70871453
5.6350,58.38431482
5.6400,58.06419248
5.6450,57.74835769
5.6500,57.43726463
5.6550,57.13055268
5.6600,56.828423
5.6650,56.53040407
5.6700,56.23622617
5.6750,55.94519274
5.6800,55.65756142
5.6850,55.37253148
5.6900,55.09034567
5.6950,54.81098575
5.7000,54.53421438
5.7050,54.25996821
5.7100,53.98790364
5.7150,53.71784223
5.7200,53.4488506
5.7250,53.18123996
5.7300,52.91427267
5.7350,52.64780479
5.7400,52.38138364
5.7450,52.11459168
5.7500,51.84730593
5.7550,51.57913763
5.7600,51.30994337
5.7650,51.03949841
5.7700,50.76781188
5.7750,50.49458154
5.7800,50.21985962
5.7850,49.94390051
5.7900,49.66627697
5.7950,49.38658678
5.8000,49.10471028
5.8050,48.82061549
5.8100,48.53402647
5.8150,48.24510869
5.8200,47.95369095
5.8250,47.66005816
5.8300,47.36451564
5.8350,47.06699173
5.8400,46.76812997
5.8450,46.46800302
5.8500,46.1668217
5.8550,45.86497403
5.8600,45.56238548
5.8650,45.2594449
5.8700,44.95602414
5.8750,44.65252542
5.8800,44.34918909
5.8850,44.04617468
5.8900,43.74392334
5.8950,43.44259349
5.9000,43.14237833
5.9050,42.8429538
5.9100,42.54490458
5.9150,42.24831029
5.9200,41.95336249
5.9250,41.66026838
5.9300,41.36911949
5.9350,41.079602
5.9400,40.79241422
5.9450,40.50771784
5.9500,40.22555814
5.9550,39.94603744
5.9600,39.66896901
5.9650,39.39444746
5.9700,39.12220381
5.9750,38.85262787
5.9800,38.58512758
5.9850,38.31995315
5.9900,38.0567526
5.9950,37.79552932
6.0000,37.53604959
6.0050,37.27793668
6.0100,37.02138828
6.0150,36.76601423
6.0200,36.51172147
6.0250,36.25801169
6.0300,36.0051805
6.0350,35.75280823
6.0400,35.50084015
6.0450,35.24893689
6.0500,34.99710102
6.0550,34.74513923
6.0600,34.49278593
6.0650,34.2399482
6.0700,33.98673211
6.0750,33.73297675
6.0800,33.47829869
6.0850,33.22259429
6.0900,32.96584837
6.0950,32.70808931
6.1000,32.44936656
6.1050,32.18957468
6.1100,31.92897984
6.1150,31.66727613
6.1200,31.40481323
6.1250,31.14156381
6.1300,30.87737548
6.1350,30.61240135
6.1400,30.34662026
6.1450,30.08007568
6.1500,29.81310751
6.1550,29.54540292
6.1600,29.27702991
6.1650,29.00838358
6.1700,28.73929818
6.1750,28.46996182
6.1800,28.20023761
6.1850,27.93004099
6.1900,27.65942053
6.1950,27.38847401
6.2000,27.11705146
6.2050,26.84566267
6.2100,26.5740901
6.2150,26.30232011
6.2200,26.03058264
6.2250,25.75875212
6.2300,25.48713279
6.2350,25.21569716
6.2400,24.94458339
6.2450,24.67366023
6.2500,24.40278428
6.2550,24.1323823
6.2600,23.86257805
6.2650,23.59339781
6.2700,23.32503368
6.2750,23.05747677
6.2800,22.79093125
6.2850,22.52552197
6.2900,22.26138048
6.2950,21.99845109
6.3000,21.73697606
6.3050,21.47673456
6.3100,21.2176561
6.3150,20.95987677
6.3200,20.70338234
6.3250,20.44825397
6.3300,20.19438018
6.3350,19.94193753
6.3400,19.6909673
6.3450,19.44152628
6.3500,19.19369513
6.3550,18.94782977
6.3600,18.70407455
6.3650,18.46248298
6.3700,18.22296196
6.3750,17.98594433
6.3800,17.75168379
6.3850,17.52005058
6.3900,17.29105344
6.3950,17.06499086
6.4000,16.84166455
6.4050,16.62132107
6.4100,16.40383916
6.4150,16.18924026
6.4200,15.97734098
6.4250,15.76837891
6.4300,15.56234279
6.4350,15.35924904
6.4400,15.15930979
6.4450,14.96254154
6.4500,14.76894292
6.4550,14.57862883
6.4600,14.39170156
6.4650,14.20781136
6.4700,14.0273785
6.4750,13.85028533
6.4800,13.67649952
6.4850,13.50628091
6.4900,13.33973693
6.4950,13.17667077
6.5000,13.0171662
6.5050,12.86125497
6.5100,12.70906375
6.5150,12.56059616
6.5200,12.41582977
6.5250,12.27474136
6.5300,12.13701954
6.5350,12.00280819
6.5400,11.87174795
6.5450,11.74391299
6.5500,11.61948411
6.5550,11.49799794
6.5600,11.37963044
6.5650,11.26433544
6.5700,11.15200938
6.5750,11.04281084
6.5800,10.93666677
6.5850,10.8335965
6.5900,10.7334189
6.5950,10.636151
6.6000,10.54155461
6.6050,10.44985802
6.6100,10.3606573
6.6150,10.27382566
6.6200,10.18931737
6.6250,10.10683888
6.6300,10.02632052
6.6350,9.94759916
6.6400,9.870495781
6.6450,9.795098584
6.6500,9.721084544
6.6550,9.648407159
6.6600,9.577134966
6.6650,9.507069925
6.6700,9.438075786
6.6750,9.369931473
6.6800,9.302770122
6.6850,9.236386706
6.6900,9.170617762
6.6950,9.105127492
6.7000,9.039882171
6.7050,8.974675307
6.7100,8.909275481
6.7150,8.843852708
6.7200,8.778198934
6.7250,8.711803567
6.7300,8.644723658
6.7350,8.576884178
6.7400,8.50806249
6.7450,8.438060134
6.7500,8.366744963
6.7550,8.294194438
6.7600,8.220163357
6.7650,8.14464244
6.7700,8.067559312
6.7750,7.988914388
6.7800,7.908981352
6.7850,7.827603004
6.7900,7.745025371
6.7950,7.661281532
6.8000,7.576668887
6.8050,7.491034963
6.8100,7.404380748
6.8150,7.317233027
6.8200,7.229340147
6.8250,7.141107047
6.8300,7.052675762
6.8350,6.964374727
6.8400,6.876311242
6.8450,6.788745159
6.8500,6.701760114
6.8550,6.616188972
6.8600,6.531944628
6.8650,6.449605374
6.8700,6.36950443
6.8750,6.291581043
6.8800,6.216480678
6.8850,6.144197026
6.8900,6.075023347
6.8950,6.00895274
6.9000,5.946351244
6.9050,5.887094745
6.9100,5.831393303
6.9150,5.778963627
6.9200,5.730070071
6.9250,5.684783054
6.9300,5.642768543
6.9350,5.603929452
6.9400,5.568227541
6.9450,5.535367028
6.9500,5.505134861
6.9550,5.477326231
6.9600,5.451528093
6.9650,5.427665146
6.9700,5.405701392
6.9750,5.385327027
6.9800,5.366306057
6.9850,5.348608308
6.9900,5.332354218
6.9950,5.317384896
7.0000,5.303605164
7.0050,5.291027217
7.0100,5.279491116
7.0150,5.268613993
7.0200,5.258373166
7.0250,5.2487744
7.0300,5.239574946
7.0350,5.230444203
7.0400,5.221132382
7.0450,5.21159241
7.0500,5.201533197
7.0550,5.190752796
7.0600,5.179144918
7.0650,5.166527462
7.0700,5.152657876
7.0750,5.137497051
7.0800,5.121049116
7.0850,5.103507307
7.0900,5.084595931
7.0950,5.064554029
7.1000,5.043255357
7.1050,5.021075182
7.1100,4.998447162
7.1150,4.975159862
7.1200,4.951781409
7.1250,4.928364046
7.1300,4.905434794
7.1350,4.882743986
7.1400,4.860757212
7.1450,4.839624539
7.1500,4.819506043
7.1550,4.800341155
7.1600,4.782306546
7.1650,4.765288122
7.1700,4.7493513
7.1750,4.73453943
7.1800,4.720993803
7.1850,4.708636925
7.1900,4.697720592
7.1950,4.68853324
7.2000,4.680934649
7.2050,4.675067998
7.2100,4.671153508
7.2150,4.669397979
7.2200,4.669823357
7.2250,4.672268697
7.2300,4.677133547
7.2350,4.684529239
7.2400,4.694542449
7.2450,4.70762117
7.2500,4.723845901
7.2550,4.743232723
7.2600,4.766010673
7.2650,4.792692998
7.2700,4.82304533
7.2750,4.857554059
7.2800,4.896072937
7.2850,4.938869451
7.2900,4.985603495
7.2950,5.036387737
7.3000,5.091390329
7.3050,5.150326449
7.3100,5.213466398
7.3150,5.280750507
7.3200,5.35197559
7.3250,5.427132799
7.3300,5.506144446
7.3350,5.589054393
7.3400,5.675688056
7.3450,5.766067925
7.3500,5.860005274
7.3550,5.957527324
7.3600,6.058490258
7.3650,6.162805545
7.3700,6.270541941
7.3750,6.381694837
7.3800,6.496124114
7.3850,6.613422365
7.3900,6.733862756
7.3950,6.85731802
7.4000,6.983898038
7.4050,7.113398596
7.4100,7.245668624
7.4150,7.380707318
7.4200,7.518303627
7.4250,7.658049042
7.4300,7.800118242
7.4350,7.944537459
7.4400,8.090928161
7.4450,8.239125462
7.4500,8.389308769
7.4550,8.541227763
7.4600,8.694665191
7.4650,8.850051604
7.4700,9.007025415
7.4750,9.165795488
7.4800,9.326188292
7.4850,9.488368645
7.4900,9.652416642
7.4950,9.818211565
7.5000,9.985534311
7.5050,10.15478336
7.5100,10.3255261
7.5150,10.4980851
7.5200,10.67247645
7.5250,10.84888037
7.5300,11.02734988
7.5350,11.20785626
7.5400,11.39062814
7.5450,11.57539665
7.5500,11.76237999
7.5550,11.95177501
7.5600,12.14343482
7.5650,12.33710701
7.5700,12.53332186
7.5750,12.73174932
7.5800,12.93272854
7.5850,13.13600716
7.5900,13.34180356
7.5950,13.55004416
7.6000,13.76064771
7.6050,13.97360084
7.6100,14.18870873
7.6150,14.40610166
7.6200,14.62567732
7.6250,14.84721292
7.6300,15.07087072
7.6350,15.29652296
7.6400,15.52397696
7.6450,15.75323761
7.6500,15.98438609
7.6550,16.21705077
7.6600,16.45136287
7.6650,16.68719127
7.6700,16.92466429
7.6750,17.16351057
7.6800,17.40373991
7.6850,17.64545598
7.6900,17.88840914
7.6950,18.13251237
7.7000,18.3776784
7.7050,18.62396828
7.7100,18.8708903
7.7150,19.11842242
7.7200,19.36666065
7.7250,19.61540496
7.7300,19.8644724
7.7350,20.11363491
7.7400,20.36319083
7.7450,20.61298614
7.7500,20.86258212
7.7550,21.11204464
7.7600,21.36173975
7.7650,21.61105363
7.7700,21.86008541
7.7750,22.1089849
7.7800,22.35747822
7.7850,22.60570354
7.7900,22.85337617
7.7950,23.10062399
7.8000,23.34761999
7.8050,23.59414906
7.8100,23.84062312
7.8150,24.08679872
7.8200,24.33263445
7.8250,24.57843457
7.8300,24.82390766
7.8350,25.06928277
7.8400,25.31435915
7.8450,25.55940056
7.8500,25.80446708
7.8550,26.04927531
7.8600,26.29416816
7.8650,26.53910515
7.8700,26.78363132
7.8750,27.02809893
7.8800,27.27224781
7.8850,27.5161499
7.8900,27.76002917
7.8950,28.00356685
7.9000,28.24696364
7.9050,28.49023875
7.9100,28.73353625
7.9150,28.97649702
7.9200,29.2195227
7.9250,29.46261623
7.9300,29.70563227
7.9350,29.9489327
7.9400,30.19256604
7.9450,30.43631397
7.9500,30.68047867
7.9550,30.92521547
7.9600,31.17057042
7.9650,31.41678317
7.9700,31.66369868
7.9750,31.91161462
7.9800,32.16062492
7.9850,32.41104953
7.9900,32.66289934
7.9950,32.91646087
8.0000,33.17193913
8.0050,33.42885196
8.0100,33.68776452
8.0150,33.94855959
8.0200,34.21109771
8.0250,34.4757096
8.0300,34.74248401
8.0350,35.01120172
8.0400,35.28172296
8.0450,35.55398465
8.0500,35.82831884
8.0550,36.10463614
8.0600,36.38259779
8.0650,36.66250306
8.0700,36.94426752
8.0750,37.22777778
8.0800,37.51304094
8.0850,37.80004705
8.0900,38.08915061
8.0950,38.38015969
8.1000,38.67310446
8.1050,38.96833036
8.1100,39.26527895
8.1150,39.56402825
8.1200,39.86465005
8.1250,40.16697989
8.1300,40.47112625
8.1350,40.77669685
8.1400,41.08358464
8.1450,41.39184038
8.1500,41.70123263
8.1550,42.01191939
8.1600,42.32353427
8.1650,42.6363554
8.1700,42.9504094
8.1750,43.26556668
8.1800,43.58177898
8.1850,43.89926575
8.1900,44.21782544
8.1950,44.53773443
8.2000,44.85871154
8.2050,45.18092556
8.2100,45.50423253
8.2150,45.82878958
8.2200,46.15422618
8.2250,46.4809089
8.2300,46.80898087
8.2350,47.13809855
8.2400,47.46829601
8.2450,47.7998694
8.2500,48.13269834
8.2550,48.46656831
8.2600,48.80170473
8.2650,49.13751675
8.2700,49.47430159
8.2750,49.81221914
8.2800,50.151301
8.2850,50.4913151
8.2900,50.83246033
8.2950,51.17480142
8.3000,51.51839489
8.3050,51.86342352
8.3100,52.20984081
8.3150,52.55754934
8.3200,52.9065799
8.3250,53.25668143
8.3300,53.60763216
8.3350,53.95953302
8.3400,54.31241045
8.3450,54.66610731
8.3500,55.02041617
8.3550,55.37516009
8.3600,55.7304261
8.3650,56.08602956
8.3700,56.44196415
8.3750,56.79811625
8.3800,57.1543626
8.3850,57.51056682
8.3900,57.86620022
8.3950,58.22111655
8.4000,58.57534163
8.4050,58.92831806
8.4100,59.28043174
8.4150,59.63164183
8.4200,59.98164077
8.4250,60.33058468
8.4300,60.67840774
8.4350,61.0250953
8.4400,61.37065218
8.4450,61.71458987
8.4500,62.05707525
8.4550,62.39825843
8.4600,62.73831883
8.4650,63.07667923
8.4700,63.41355143
8.4750,63.7490936
8.4800,64.08349913
8.4850,64.41655952
8.4900,64.74851471
8.4950,65.07971941
8.5000,65.41018025
8.5050,65.74004317
8.5100,66.06943997
8.5150,66.39834784
8.5200,66.72718525
8.5250,67.05597572
8.5300,67.38469875
8.5350,67.71364579
8.5400,68.04298896
8.5450,68.37283568
8.5500,68.70309231
8.5550,69.03395303
8.5600,69.36531975
8.5650,69.69787379
8.5700,70.03167214
8.5750,70.36572483
8.5800,70.70043064
8.5850,71.03634394
8.5900,71.37278225
8.5950,71.70997059
8.6000,72.04777407
8.6050,72.38598475
8.6100,72.72464388
8.6150,73.06366257
8.6200,73.40323058
8.6250,73.74363582
8.6300,74.08436555
8.6350,74.42545973
8.6400,74.76710143
8.6450,75.10893319
8.6500,75.45065046
8.6550,75.79219613
8.6600,76.13290155
8.6650,76.47274355
8.6700,76.81128014
8.6750,77.14842333
8.6800,77.48389437
8.6850,77.81713005
8.6900,78.14791962
8.6950,78.47616389
8.7000,78.80135626
8.7050,79.12355412
8.7100,79.4423244
8.7150,79.75752018
8.7200,80.06905278
8.7250,80.37634677
8.7300,80.67922405
8.7350,80.97780636
8.7400,81.27173305
8.7450,81.56123235
8.7500,81.8461485
8.7550,82.12635749
8.7600,82.40166311
8.7650,82.67253134
8.7700,82.93913402
8.7750,83.20131956
8.7800,83.45920235
8.7850,83.71310147
8.7900,83.96266552
8.7950,84.20802916
8.8000,84.44972616
8.8050,84.68812921
8.8100,84.92354343
8.8150,85.15639567
8.8200,85.3869932
8.8250,85.61596128
8.8300,85.84355187
8.8350,86.07038511
8.8400,86.29698721
8.8450,86.52399098
8.8500,86.75199597
8.8550,86.98152077
8.8600,87.21238919
8.8650,87.4450706
8.8700,87.67931635
8.8750,87.91671864
8.8800,88.1567385
8.8850,88.39941104
8.8900,88.64533779
8.8950,88.89433732
8.9000,89.14615298
8.9050,89.40090223
8.9100,89.65838625
8.9150,89.91848945
8.9200,90.18104254
8.9250,90.44558396
8.9300,90.71264508
8.9350,90.98171812
8.9400,91.25254279
8.9450,91.52536083
8.9500,91.80012352
8.9550,92.07638677
8.9600,92.35447657
8.9650,92.63400978
8.9700,92.91537399
8.9750,93.19875031
8.9800,93.48371961
8.9850,93.77061718
8.9900,94.05943329
8.9950,94.35023539
9.0000,94.64295562
9.0050,94.93715359
9.0100,95.23296303
9.0150,95.53017309
9.0200,95.82834875
9.0250,96.12765957
9.0300,96.42786495
9.0350,96.72874663
9.0400,97.03036748
9.0450,97.33245533
9.0500,97.63456537
9.0550,97.93642365
9.0600,98.23824745
9.0650,98.53964704
9.0700,98.84061149
9.0750,99.14072169
9.0800,99.43958771
9.0850,99.7372991
9.0900,100.0342535
9.0950,100.3302729
9.1000,100.6254248
9.1050,100.9189188
9.1100,101.2112132
9.1150,101.5025399
9.1200,101.7929539
9.1250,102.0819066
9.1300,102.369958
9.1350,102.6563034
9.1400,102.9410952
9.1450,103.2241845
9.1500,103.5053141
9.1550,103.7848846
9.1600,104.0631244
9.1650,104.3401827
9.1700,104.6161219
9.1750,104.8907977
9.1800,105.1640817
9.1850,105.4359038
9.1900,105.7059131
9.1950,105.97442
9.2000,106.2412771
9.2050,106.5068486
9.2100,106.7708879
9.2150,107.0338626
9.2200,107.2954225
9.2250,107.5557544
9.2300,107.8145562
9.2350,108.0725833
9.2400,108.3294289
9.2450,108.5851165
9.2500,108.8398475
9.2550,109.0940863
9.2600,109.3477968
9.2650,109.6009861
9.2700,109.8538586
9.2750,110.1062038
9.2800,110.3589632
9.2850,110.6122229
9.2900,110.8655193
9.2950,111.1186392
9.3000,111.3715616
9.3050,111.6243696
9.3100,111.8767633
9.3150,112.1285368
9.3200,112.380017
9.3250,112.6305928
9.3300,112.8803124
9.3350,113.1291838
9.3400,113.3769135
9.3450,113.6233146
9.3500,113.8681959
9.3550,114.1113823
9.3600,114.352357
9.3650,114.5910566
9.3700,114.8273533
9.3750,115.0612275
9.3800,115.2930611
9.3850,115.5225596
9.3900,115.7488884
9.3950,115.9720138
9.4000,116.191854
9.4050,116.4088069
9.4100,116.6231138
9.4150,116.8343006
9.4200,117.042222
9.4250,117.247408
9.4300,117.44947
9.4350,117.6485106
9.4400,117.8446714
9.4450,118.0374964
9.4500,118.227349
9.4550,118.4143482
9.4600,118.598672
9.4650,118.7798954
9.4700,118.9582082
9.4750,119.1334348
9.4800,119.3055457
9.4850,119.4749932
9.4900,119.6418539
9.4950,119.8064661
9.5000,119.9692824
9.5050,120.1305169
9.5100,120.2903036
9.5150,120.4485117
9.5200,120.6051965
9.5250,120.7603643
9.5300,120.9144456
9.5350,121.0671618
9.5400,121.2186711
9.5450,121.3691539
9.5500,121.5187265
9.5550,121.6671812
9.5600,121.8148604
9.5650,121.9621062
9.5700,122.1089504
9.5750,122.2552889
9.5800,122.4007932
9.5850,122.5451698
9.5900,122.6888678
9.5950,122.8314584
9.6000,122.973178
9.6050,123.1142346
9.6100,123.2546499
9.6150,123.3946031
9.6200,123.5338614
9.6250,123.6724971
9.6300,123.8102203
9.6350,123.9470264
9.6400,124.0824593
9.6450,124.2164119
9.6500,124.3488415
9.6550,124.479379
9.6600,124.6080266
9.6650,124.7349107
9.6700,124.8595188
9.6750,124.9815397
9.6800,125.1008938
9.6850,125.2171729
9.6900,125.3310972
9.6950,125.4427501
9.7000,125.5523733
9.7050,125.6602317
9.7100,125.7659552
9.7150,125.8701989
9.7200,125.9728924
9.7250,126.0743215
9.7300,126.1749704
9.7350,126.2754432
9.7400,126.3762501
9.7450,126.4776949
9.7500,126.5801121
9.7550,126.6833511
9.7600,126.7875053
9.7650,126.8931557
9.7700,127.0003532
9.7750,127.109492
9.7800,127.2206755
9.7850,127.3341461
9.7900,127.4497515
9.7950,127.5674425
9.8000,127.6872684
9.8050,127.8089312
9.8100,127.9327305
9.8150,128.0588878
9.8200,128.1879168
9.8250,128.3195569
9.8300,128.4539231
9.8350,128.5908583
9.8400,128.7305986
9.8450,128.8728052
9.8500,129.0167719
9.8550,129.1627377
9.8600,129.3102408
9.8650,129.4586411
9.8700,129.6074483
9.8750,129.7562674
9.8800,129.9043373
9.8850,130.0514109
9.8900,130.1967241
9.8950,130.3401147
9.9000,130.4807275
9.9050,130.6179994
9.9100,130.7513181
9.9150,130.8800608
9.9200,131.0038594
9.9250,131.1221477
9.9300,131.2345808
9.9350,131.3409679
9.9400,131.440894
9.9450,131.5345292
9.9500,131.6219674
9.9550,131.7032955
9.9600,131.7785875
9.9650,131.8475132
9.9700,131.9107984
9.9750,131.9685552
9.9800,132.0206316
9.9850,132.0674155
9.9900,132.1089237
9.9950,132.1456413
10.0000,132.177497
10.0050,132.2049618
10.0100,132.2285533
10.0150,132.2481539
10.0200,132.2641256
10.0250,132.2770003
10.0300,132.2863437
10.0350,132.2925456
10.0400,132.2955097
10.0450,132.2957912
10.0500,132.2930324
10.0550,132.287566
10.0600,132.2795137
10.0650,132.2690476
10.0700,132.2562101
10.0750,132.2408056
10.0800,132.223367
10.0850,132.2034179
10.0900,132.1810616
10.0950,132.1561493
10.1000,132.128819
10.1050,132.0986408
10.1100,132.065629
10.1150,132.0295553
10.1200,131.990232
10.1250,131.947731
10.1300,131.9015878
10.1350,131.8519727
10.1400,131.7984005
10.1450,131.7410827
10.1500,131.6807858
10.1550,131.6173122
10.1600,131.5506457
10.1650,131.481089
10.1700,131.4087305
10.1750,131.3333087
10.1800,131.2551074
10.1850,131.1743278
10.1900,131.0907964
10.1950,131.0044563
10.2000,130.9150286
10.2050,130.8225154
10.2100,130.7267448
10.2150,130.627998
10.2200,130.5259524
10.2250,130.4207132
10.2300,130.3125822
10.2350,130.2009442
10.2400,130.086396
10.2450,129.96839
10.2500,129.846851
10.2550,129.7220524
10.2600,129.5938315
10.2650,129.4621438
10.2700,129.326786
10.2750,129.187886
10.2800,129.04559
10.2850,128.9000983
10.2900,128.7515107
10.2950,128.5994565
10.3000,128.4447514
10.3050,128.2872857
10.3100,128.1268489
10.3150,127.9635583
10.3200,127.7975055
10.3250,127.6283427
10.3300,127.4567391
10.3350,127.2827329
10.3400,127.105829
10.3450,126.9264417
10.3500,126.7447301
10.3550,126.5606702
10.3600,126.3745556
10.3650,126.1860893
10.3700,125.9959404
10.3750,125.8039972
10.3800,125.6106119
10.3850,125.4160603
10.3900,125.2207481
10.3950,125.0244624
10.4000,124.8271636
10.4050,124.6299955
10.4100,124.4324511
10.4150,124.2348799
10.4200,124.0373392
10.4250,123.8399761
10.4300,123.6433507
10.4350,123.447151
10.4400,123.2517409
10.4450,123.0570757
10.4500,122.8628592
10.4550,122.6692588
10.4600,122.4758735
10.4650,122.282835
10.4700,122.0895333
10.4750,121.896263
10.4800,121.7031163
10.4850,121.5095176
10.4900,121.3159283
10.4950,121.1222089
10.5000,120.9288017
10.5050,120.7350213
10.5100,120.5411454
10.5150,120.3469189
10.5200,120.1524996
10.5250,119.9577695
10.5300,119.7620265
10.5350,119.5653431
10.5400,119.3671003
10.5450,119.1673152
10.5500,118.9654467
10.5550,118.7612509
10.5600,118.5539356
10.5650,118.3437898
10.5700,118.1302186
10.5750,117.9137507
10.5800,117.6943741
10.5850,117.4719257
10.5900,117.2462276
10.5950,117.0177144
10.6000,116.7859085
10.6050,116.5507662
10.6100,116.3125378
10.6150,116.0712856
10.6200,115.8269733
10.6250,115.5793571
10.6300,115.3284183
10.6350,115.0743033
10.6400,114.817262
10.6450,114.5569717
10.6500,114.2936283
10.6550,114.0270054
10.6600,113.7568238
10.6650,113.4835686
10.6700,113.2070356
10.6750,112.9272199
10.6800,112.6440801
10.6850,112.3575373
10.6900,112.0673862
10.6950,111.7744301
10.7000,111.4785621
10.7050,111.1798229
10.7100,110.8786433
10.7150,110.5755342
10.7200,110.2708065
10.7250,109.9646419
10.7300,109.657018
10.7350,109.3484573
10.7400,109.0393163
10.7450,108.7295448
10.7500,108.4191043
10.7550,108.1078912
10.7600,107.7965857
10.7650,107.4845316
10.7700,107.1725666
10.7750,106.8600401
10.7800,106.5466439
10.7850,106.2329681
10.7900,105.9187009
10.7950,105.6039383
10.8000,105.288697
10.8050,104.9734364
10.8100,104.658617
10.8150,104.3438565
10.8200,104.0294373
10.8250,103.7155622
10.8300,103.4028649
10.8350,103.091375
10.8400,102.780964
10.8450,102.471622
10.8500,102.1637186
10.8550,101.8566706
10.8600,101.5509809
10.8650,101.2460493
10.8700,100.9414905
10.8750,100.6362222
10.8800,100.3299844
10.8850,100.0224041
10.8900,99.71316382
10.8950,99.40164888
10.9000,99.08753515
10.9050,98.77023117
10.9100,98.44977941
10.9150,98.12599076
10.9200,97.79842984
10.9250,97.46736923
10.9300,97.13260596
10.9350,96.79387223
10.9400,96.45124313
10.9450,96.10446534
10.9500,95.75365676
10.9550,95.39867691
10.9600,95.04023466
10.9650,94.67758652
10.9700,94.31075629
10.9750,93.94012115
10.9800,93.56528243
10.9850,93.18673995
10.9900,92.80485156
10.9950,92.41928639
11.0000,92.03007734
11.0050,91.637102
11.0100,91.24067335
11.0150,90.8405486
11.0200,90.43698409
11.0250,90.03010125
11.0300,89.61980284
11.0350,89.20674052
11.0400,88.79046967
11.0450,88.37139306
11.0500,87.94960683
11.0550,87.52524671
11.0600,87.0981712
11.0650,86.66930924
11.0700,86.23886658
11.0750,85.8074833
11.0800,85.37516033
11.0850,84.94204452
11.0900,84.50819958
11.0950,84.07362087
11.1000,83.63821954
11.1050,83.20216375
11.1100,82.76507316
11.1150,82.32727008
11.1200,81.88830762
11.1250,81.44859434
11.1300,81.00769343
11.1350,80.56625435
11.1400,80.12496888
11.1450,79.68390959
11.1500,79.24312621
11.1550,78.80276452
11.1600,78.36315897
11.1650,77.92445984
11.1700,77.48703491
11.1750,77.05113057
11.1800,76.61680355
11.1850,76.18417082
11.1900,75.75347307
11.1950,75.32479315
11.2000,74.8981972
11.2050,74.47403707
11.2100,74.05280672
11.2150,73.63443842
11.2200,73.21938638
11.2250,72.80746409
11.2300,72.39864369
11.2350,71.99339362
11.2400,71.5911844
11.2450,71.19218173
11.2500,70.79659039
11.2550,70.40375965
11.2600,70.01354433
11.2650,69.62594487
11.2700,69.2407913
11.2750,68.85810557
11.2800,68.4780805
11.2850,68.10032562
11.2900,67.72487759
11.2950,67.35222722
11.3000,66.9825203
11.3050,66.61613362
11.3100,66.25307662
11.3150,65.8932983
11.3200,65.53671527
11.3250,65.18321998
11.3300,64.83320577
11.3350,64.48596094
11.3400,64.14204273
11.3450,63.80104386
11.3500,63.46327911
11.3550,63.1288677
11.3600,62.79754381
11.3650,62.46921264
11.3700,62.14348534
11.3750,61.82035987
11.3800,61.49985457
11.3850,61.18162486
11.3900,60.86561789
11.3950,60.55164802
11.4000,60.23941922
11.4050,59.92862787
11.4100,59.61902389
11.4150,59.31103508
11.4200,59.00484362
11.4250,58.70041246
11.4300,58.39753365
11.4350,58.0959234
11.4400,57.79538037
11.4450,57.49577932
11.4500,57.19762235
11.4550,56.90073388
11.4600,56.60494176
11.4650,56.31023999
11.4700,56.01649994
11.4750,55.7237015
11.4800,55.43171516
11.4850,55.14073767
11.4900,54.85034665
11.4950,54.56065535
11.5000,54.27190077
11.5050,53.98411116
11.5100,53.69670716
11.5150,53.40998189
11.5200,53.12377899
11.5250,52.83854594
11.5300,52.55446087
11.5350,52.2709871
11.5400,51.98844238
11.5450,51.70730821
11.5500,51.42697448
11.5550,51.14826531
11.5600,50.87088331
11.5650,50.59505145
11.5700,50.32046311
11.5750,50.04731905
11.5800,49.77528501
11.5850,49.50438485
11.5900,49.23455529
11.5950,48.96556906
11.6000,48.69741657
11.6050,48.43000777
11.6100,48.16332299
11.6150,47.89726692
11.6200,47.63204256
11.6250,47.36720502
11.6300,47.1027561
11.6350,46.83881335
11.6400,46.57511067
11.6450,46.31177821
11.6500,46.04836671
11.6550,45.78447001
11.6600,45.51962553
11.6650,45.2540376
11.6700,44.98731935
11.6750,44.71939847
11.6800,44.45028978
11.6850,44.17985759
11.6900,43.90842213
11.6950,43.63587103
11.7000,43.36257428
11.7050,43.08854263
11.7100,42.81374941
11.7150,42.53763124
11.7200,42.26019047
11.7250,41.98098576
11.7300,41.69992207
11.7350,41.41674506
11.7400,41.13125659
11.7450,40.84356043
11.7500,40.55319293
11.7550,40.26042744
11.7600,39.9654155
11.7650,39.66830237
11.7700,39.36902286
11.7750,39.06770952
11.7800,38.76446061
11.7850,38.45938653
11.7900,38.15253107
11.7950,37.843738
11.8000,37.53317731
11.8050,37.22118546
11.8100,36.90781377
11.8150,36.59329507
11.8200,36.27766371
11.8250,35.96114831
11.8300,35.64361453
11.8350,35.32586753
11.8400,35.00822318
11.8450,34.69096957
11.8500,34.37484013
11.8550,34.06000289
11.8600,33.74660542
11.8650,33.4352445
11.8700,33.12669952
11.8750,32.82104942
11.8800,32.51887188
11.8850,32.22033742
11.8900,31.92579769
11.8950,31.63518709
11.9000,31.34869001
11.9050,31.06621452
11.9100,30.78759266
11.9150,30.51274703
11.9200,30.24135396
11.9250,29.97354831
11.9300,29.70864583
11.9350,29.44641479
11.9400,29.18655193
11.9450,28.9289999
11.9500,28.67350626
11.9550,28.42016518
11.9600,28.16946408
11.9650,27.9209001
11.9700,27.67457214
11.9750,27.43013244
11.9800,27.18704427
11.9850,26.94508879
11.9900,26.703569
11.9950,26.46224915
12.0000,26.22074812
12.0050,25.97860744
12.0100,25.73577843
12.0150,25.49226782
12.0200,25.248012
12.0250,25.00293039
12.0300,24.75737223
12.0350,24.51151452
12.0400,24.26541755
12.0450,24.0193032
12.0500,23.7732348
12.0550,23.52737036
12.0600,23.28154683
12.0650,23.03613103
12.0700,22.79117734
12.0750,22.54689557
12.0800,22.30338085
12.0850,22.06064751
12.0900,21.81910463
12.0950,21.57881012
12.1000,21.33995144
12.1050,21.10251449
12.1100,20.86648159
12.1150,20.63202051
12.1200,20.39910682
12.1250,20.16788017
12.1300,19.93839886
12.1350,19.71048345
12.1400,19.48425167
12.1450,19.2596423
12.1500,19.0366563
12.1550,18.81536583
12.1600,18.59651748
12.1650,18.38010301
12.1700,18.16592422
12.1750,17.95460319
12.1800,17.74646318
12.1850,17.54173986
12.1900,17.34060603
12.1950,17.14329051
12.2000,16.94986658
12.2050,16.76046704
12.2100,16.57515795
12.2150,16.39387076
12.2200,16.21632589
12.2250,16.04248506
12.2300,15.87228999
12.2350,15.70572055
12.2400,15.54256635
12.2450,15.38239214
12.2500,15.22532833
12.2550,15.07083796
12.2600,14.91869496
12.2650,14.76849478
12.2700,14.61978077
12.2750,14.47250433
12.2800,14.32665449
12.2850,14.18179287
12.2900,14.03796221
12.2950,13.89473133
12.3000,13.75205253
12.3050,13.60963833
12.3100,13.46765919
12.3150,13.32590331
12.3200,13.18426047
12.3250,13.04278189
12.3300,12.90109979
12.3350,12.7591974
12.3400,12.61712486
12.3450,12.47452431
12.3500,12.33150298
12.3550,12.18812542
12.3600,12.0440341
12.3650,11.89927563
12.3700,11.75381798
12.3750,11.60765519
12.3800,11.46092863
12.3850,11.31393684
12.3900,11.16692502
12.3950,11.02020163
12.4000,10.87412416
12.4050,10.72885134
12.4100,10.58476361
12.4150,10.44222988
12.4200,10.30166287
12.4250,10.16306579
12.4300,10.02664038
12.4350,9.892630648
12.4400,9.761231974
12.4450,9.63237219
12.4500,9.506230818
12.4550,9.382992468
12.4600,9.262471937
12.4650,9.144935436
12.4700,9.030803024
12.4750,8.91963563
12.4800,8.811549816
12.4850,8.70654949
12.4900,8.604687959
12.4950,8.505929152
12.5000,8.410339251
12.5050,8.317677585
12.5100,8.227889015
12.5150,8.14076635
12.5200,8.056432013
12.5250,7.974516526
12.5300,7.894956746
12.5350,7.817455519
12.5400,7.741977788
12.5450,7.668203785
12.5500,7.595832612
12.5550,7.524853059
12.5600,7.454856153
12.5650,7.385860213
12.5700,7.317511614
12.5750,7.249493478
12.5800,7.181167311
12.5850,7.112758315
12.5900,7.043699532
12.5950,6.974199523
12.6000,6.903724128
12.6050,6.832676726
12.6100,6.760517523
12.6150,6.687465805
12.6200,6.613351016
12.6250,6.538330516
12.6300,6.462323307
12.6350,6.385533964
12.6400,6.308033321
12.6450,6.230014221
12.6500,6.15155315
12.6550,6.07262288
12.6600,5.993663674
12.6650,5.914901663
12.6700,5.836571382
12.6750,5.759042809
12.6800,5.682329711
12.6850,5.606382421
12.6900,5.531223485
12.6950,5.457206711
12.7000,5.38405492
12.7050,5.312071295
12.7100,5.241429647
12.7150,5.17177561
12.7200,5.103093464
12.7250,5.035207716
12.7300,4.968380184
12.7350,4.902401295
12.7400,4.83745279
12.7450,4.773665117
12.7500,4.711054049
12.7550,4.649863303
12.7600,4.590407544
12.7650,4.532594887
12.7700,4.476704031
12.7750,4.423432919
12.7800,4.372989538
12.7850,4.325892822
12.7900,4.282466366
12.7950,4.243109991
12.8000,4.208104814
12.8050,4.177826342
12.8100,4.152532008
12.8150,4.132558639
12.8200,4.117979195
12.8250,4.108859826
12.8300,4.105036991
12.8350,4.10658316
12.8400,4.11319875
12.8450,4.124849814
12.8500,4.14120372
12.8550,4.161985172
12.8600,4.186803979
12.8650,4.215306898
12.8700,4.247365319
12.8750,4.282380774
12.8800,4.320448015
12.8850,4.36124952
12.8900,4.404894818
12.8950,4.450729058
12.9000,4.499343642
12.9050,4.550249899
12.9100,4.603564319
12.9150,4.659317325
12.9200,4.717440964
12.9250,4.778071522
12.9300,4.841329757
12.9350,4.907185827
12.9400,4.975747782
12.9450,5.046966523
12.9500,5.120962111
12.9550,5.197849916
12.9600,5.277622373
12.9650,5.359865381
12.9700,5.444724093
12.9750,5.532047952
12.9800,5.621750452
12.9850,5.713966128
12.9900,5.808516923
12.9950,5.905103559
13.0000,6.003923947
13.0050,6.104909479
13.0100,6.207940056
13.0150,6.313282838
13.0200,6.420905913
13.0250,6.530932109
13.0300,6.643652756
13.0350,6.759088167
13.0400,6.877210319
13.0450,6.998282819
13.0500,7.122451148
13.0550,7.249765528
13.0600,7.380211117
13.0650,7.513854186
13.0700,7.650736567
13.0750,7.790766586
13.0800,7.933842239
13.0850,8.080129647
13.0900,8.22932988
13.0950,8.381514221
13.1000,8.536720202
13.1050,8.694951213
13.1100,8.856068663
13.1150,9.020080724
13.1200,9.187018769
13.1250,9.356883391
13.1300,9.529929399
13.1350,9.706014636
13.1400,9.885401431
13.1450,10.06801868
13.1500,10.25422149
13.1550,10.44379303
13.1600,10.63694259
13.1650,10.83364415
13.1700,11.03393881
13.1750,11.2380812
13.1800,11.44592539
13.1850,11.65727727
13.1900,11.87175778
13.1950,12.08954612
13.2000,12.31005137
13.2050,12.53336372
13.2100,12.7590389
13.2150,12.98701687
13.2200,13.21717222
13.2250,13.44927097
13.2300,13.68315796
13.2350,13.91875353
13.2400,14.15585091
13.2450,14.3944165
13.2500,14.634458
13.2550,14.87563166
13.2600,15.11828046
13.2650,15.36231167
13.2700,15.60762483
13.2750,15.85403174
13.2800,16.10167513
13.2850,16.35057342
13.2900,16.60054622
13.2950,16.85175559
13.3000,17.10401507
13.3050,17.35707414
13.3100,17.61079249
13.3150,17.86531815
13.3200,18.12055986
13.3250,18.37646072
13.3300,18.63297256
13.3350,18.89026995
13.3400,19.14827758
13.3450,19.40698054
13.3500,19.66667634
13.3550,19.92732192
13.3600,20.18893844
13.3650,20.45157935
13.3700,20.71535738
13.3750,20.9802165
13.3800,21.24629566
13.3850,21.51359615
13.3900,21.78230878
13.3950,22.05206416
13.4000,22.3228129
13.4050,22.59463096
13.4100,22.86718665
13.4150,23.14064379
13.4200,23.41481366
13.4250,23.68966532
13.4300,23.96521414
13.4350,24.24157065
13.4400,24.51848213
13.4450,24.79615431
13.4500,25.07426363
13.4550,25.35314149
13.4600,25.63284371
13.4650,25.91319399
13.4700,26.19433698
13.4750,26.47604338
13.4800,26.75827981
13.4850,27.04069917
13.4900,27.32364502
13.4950,27.60685435
13.5000,27.89045435
13.5050,28.17414172
13.5100,28.45811656
13.5150,28.74214386
13.5200,29.02630145
13.5250,29.31032084
13.5300,29.59449933
13.5350,29.87858503
13.5400,30.16271314
13.5450,30.44689756
13.5500,30.73114522
13.5550,31.01526301
13.5600,31.29924746
13.5650,31.58331174
13.5700,31.86708096
13.5750,32.15097195
13.5800,32.43495259
13.5850,32.71864721
13.5900,33.00252868
13.5950,33.28639793
13.6000,33.57037035
13.6050,33.85472065
13.6100,34.13908498
13.6150,34.42346437
13.6200,34.70782517
13.6250,34.99210484
13.6300,35.27606441
13.6350,35.55978541
13.6400,35.84325263
13.6450,36.12631461
13.6500,36.40874392
13.6550,36.69050398
13.6600,36.97175151
13.6650,37.25239943
13.6700,37.53231004
13.6750,37.81139921
13.6800,38.08945496
13.6850,38.36611624
13.6900,38.64130517
13.6950,38.91505253
13.7000,39.18761471
13.7050,39.45873774
13.7100,39.72845387
13.7150,39.99686651
13.7200,40.26381393
13.7250,40.52973318
13.7300,40.79407304
13.7350,41.05696441
13.7400,41.31865827
13.7450,41.57933613
13.7500,41.83882252
13.7550,42.09740681
13.7600,42.35514011
13.7650,42.61218138
13.7700,42.86851816
13.7750,43.12428705
13.7800,43.37942948
13.7850,43.63426434
13.7900,43.88852694
13.7950,44.14259207
13.8000,44.39639102
13.8050,44.64971582
13.8100,44.90255079
13.8150,45.15469179
13.8200,45.40613527
13.8250,45.65659678
13.8300,45.90586142
13.8350,46.15376356
13.8400,46.40025037
13.8450,46.64519479
13.8500,46.88846276
13.8550,47.13032653
13.8600,47.37066873
13.8650,47.60925729
13.8700,47.84635229
13.8750,48.08178962
13.8800,48.31574987
13.8850,48.54829342
13.8900,48.77944843
13.8950,49.00931214
13.9000,49.23771909
13.9050,49.46464478
13.9100,49.69068142
13.9150,49.91553366
13.9200,50.1395313
13.9250,50.36282471
13.9300,50.58548511
13.9350,50.80769896
13.9400,51.02963731
13.9450,51.25136556
13.9500,51.47305054
13.9550,51.6945776
13.9600,51.91615047
13.9650,52.13798361
13.9700,52.36017836
13.9750,52.58277578
13.9800,52.80609293
13.9850,53.03028718
13.9900,53.25535399
13.9950,53.4819467
14.0000,53.70969907
14.0050,53.93843961
14.0100,54.1685148
14.0150,54.39947998
14.0200,54.63168794
14.0250,54.8649919
14.0300,55.09980252
14.0350,55.33612937
14.0400,55.5740315
14.0450,55.81341348
14.0500,56.05471717
14.0550,56.29777228
14.0600,56.54245939
14.0650,56.78895368
14.0700,57.037038
14.0750,57.28657419
14.0800,57.53802131
14.0850,57.79091741
14.0900,58.04517778
14.0950,58.30055017
14.1000,58.55672989
14.1050,58.81387169
14.1100,59.07188591
14.1150,59.33040441
14.1200,59.58955868
14.1250,59.84937481
14.1300,60.10965471
14.1350,60.37043845
14.1400,60.63149126
14.1450,60.89271025
14.1500,61.15386398
14.1550,61.41483271
14.1600,61.6754542
14.1650,61.93580888
14.1700,62.19594125
14.1750,62.45536597
14.1800,62.71430523
14.1850,62.97297109
14.1900,63.23111548
14.1950,63.48876858
14.2000,63.74599733
14.2050,64.00289919
14.2100,64.25929841
14.2150,64.51509727
14.2200,64.7701924
14.2250,65.02449725
14.2300,65.2777289
14.2350,65.52987039
14.2400,65.78120813
14.2450,66.03170143
14.2500,66.28143153
14.2550,66.53076293
14.2600,66.77991884
14.2650,67.02870527
14.2700,67.2774951
14.2750,67.52636016
14.2800,67.77526133
14.2850,68.02463819
14.2900,68.27427623
14.2950,68.52404763
14.3000,68.77428373
14.3050,69.02561996
14.3100,69.27800594
14.3150,69.5319214
14.3200,69.78748598
14.3250,70.04467243
14.3300,70.30357906
14.3350,70.56421216
14.3400,70.82669705
14.3450,71.09115358
14.3500,71.35737849
14.3550,71.62540644
14.3600,71.89547864
14.3650,72.16735298
14.3700,72.44120975
14.3750,72.71719785
14.3800,72.9953459
14.3850,73.2758981
14.3900,73.5586596
14.3950,73.84346082
14.4000,74.13055564
14.4050,74.41985299
14.4100,74.71133892
14.4150,75.00510025
14.4200,75.30071918
14.4250,75.59834954
14.4300,75.89803604
14.4350,76.19959335
14.4400,76.5026702
14.4450,76.80740699
14.4500,77.11355281
14.4550,77.42131445
14.4600,77.73097364
14.4650,78.04242952
14.4700,78.35578362
14.4750,78.67148263
14.4800,78.98847536
14.4850,79.30694639
14.4900,79.62650769
14.4950,79.94717727
14.5000,80.26883898
14.5050,80.59114598
14.5100,80.91385469
14.5150,81.23719503
14.5200,81.56091864
14.5250,81.88484004
14.5300,82.20893251
14.5350,82.53329092
14.5400,82.85729824
14.5450,83.18108196
14.5500,83.50452473
14.5550,83.82756643
14.5600,84.14934556
14.5650,84.4705195
14.5700,84.79070368
14.5750,85.1101391
14.5800,85.42862462
14.5850,85.74608729
14.5900,86.06289237
14.5950,86.37871529
14.6000,86.69368876
14.6050,87.0074566
14.6100,87.32049926
14.6150,87.63257671
14.6200,87.94349137
14.6250,88.25332107
14.6300,88.56208653
14.6350,88.86961351
14.6400,89.17582218
14.6450,89.48073061
14.6500,89.78468872
14.6550,90.08742648
14.6600,90.38895379
14.6650,90.68984012
14.6700,90.98979004
14.6750,91.28866644
14.6800,91.5859745
14.6850,91.8820885
14.6900,92.17725272
14.6950,92.47155952
14.7000,92.76506654
14.7050,93.05740999
14.7100,93.3486773
14.7150,93.63895603
14.7200,93.92796104
14.7250,94.21589798
14.7300,94.50279701
14.7350,94.78844773
14.7400,95.07337265
14.7450,95.35681467
14.7500,95.63906203
14.7550,95.92066568
14.7600,96.20071043
14.7650,96.47953406
14.7700,96.7570661
14.7750,97.03271652
14.7800,97.30695057
14.7850,97.57954444
14.7900,97.85092399
14.7950,98.12056321
14.8000,98.38902352
14.8050,98.65603236
14.8100,98.92211639
14.8150,99.18676693
14.8200,99.45024015
14.8250,99.71260709
14.8300,99.97409747
14.8350,100.2348037
14.8400,100.4947709
14.8450,100.7545021
14.8500,101.0136815
14.8550,101.272596
14.8600,101.5320648
14.8650,101.7919992
14.8700,102.0530596
14.8750,102.3149843
14.8800,102.5786086
14.8850,102.8442485
14.8900,103.1123192
14.8950,103.3830155
14.9000,103.656611
14.9050,103.9332197
14.9100,104.2124807
14.9150,104.494755
14.9200,104.7801132
14.9250,105.068915
14.9300,105.3609736
14.9350,105.6565691
14.9400,105.9553536
14.9450,106.2570533
14.9500,106.5607807
14.9550,106.8666229
14.9600,107.1739897
14.9650,107.4821504
14.9700,107.791068
14.9750,108.1006979
14.9800,108.4110763
14.9850,108.7215343
14.9900,109.0316487
14.9950,109.3405666
15.0000,109.6474989
15.0050,109.9526405
15.0100,110.2555057
15.0150,110.5555926
15.0200,110.853372
15.0250,111.1481403
15.0300,111.439579
15.0350,111.7274586
15.0400,112.0115254
15.0450,112.292031
15.0500,112.568642
15.0550,112.8405569
15.0600,113.1080905
15.0650,113.3706971
15.0700,113.6286375
15.0750,113.8821345
15.0800,114.1312633
15.0850,114.3762195
15.0900,114.6165005
15.0950,114.8526651
15.1000,115.0838612
15.1050,115.3105663
15.1100,115.5323371
15.1150,115.7501151
15.1200,115.963754
15.1250,116.1733724
15.1300,116.3795176
15.1350,116.5820611
15.1400,116.7815405
15.1450,116.9776871
15.1500,117.1714011
15.1550,117.3623845
15.1600,117.5505029
15.1650,117.7362934
15.1700,117.9191046
15.1750,118.0995504
15.1800,118.2772816
15.1850,118.4522833
15.1900,118.6248048
15.1950,118.7944986
15.2000,118.9616653
15.2050,119.1263555
15.2100,119.2886001
15.2150,119.4482588
15.2200,119.6052815
15.2250,119.759657
15.2300,119.9112427
15.2350,120.0598389
15.2400,120.2058395
15.2450,120.3490425
15.2500,120.4897076
15.2550,120.6280008
15.2600,120.7638753
15.2650,120.8971661
15.2700,121.0282339
15.2750,121.1566119
15.2800,121.2820853
15.2850,121.4046725
15.2900,121.5244212
15.2950,121.6416578
15.3000,121.7565333
15.3050,121.8691349
15.3100,121.9792248
15.3150,122.0868957
15.3200,122.1918299
15.3250,122.2942971
15.3300,122.3943153
15.3350,122.4921825
15.3400,122.5880503
15.3450,122.6822593
15.3500,122.775212
15.3550,122.8672045
15.3600,122.9588773
15.3650,123.0505655
15.3700,123.1424414
15.3750,123.2348744
15.3800,123.328055
15.3850,123.4219259
15.3900,123.5172945
15.3950,123.6141776
15.4000,123.7129861
15.4050,123.814203
15.4100,123.9173596
15.4150,124.0225846
15.4200,124.1293869
15.4250,124.2381523
15.4300,124.3483431
15.4350,124.4598711
15.4400,124.5727607
15.4450,124.6866972
15.4500,124.8010536
15.4550,124.9160363
15.4600,125.0316653
15.4650,125.1477394
15.4700,125.2641241
15.4750,125.3807721
15.4800,125.497484
15.4850,125.6140239
15.4900,125.72996
15.4950,125.8456982
15.5000,125.9610796
15.5050,126.0760207
15.5100,126.1905825
15.5150,126.304313
15.5200,126.4172784
15.5250,126.5288982
15.5300,126.6391174
15.5350,126.7477805
15.5400,126.8544639
15.5450,126.9595185
15.5500,127.062487
15.5550,127.1631381
15.5600,127.261163
15.5650,127.3567936
15.5700,127.4495157
15.5750,127.5396384
15.5800,127.6265386
15.5850,127.7099897
15.5900,127.7900061
15.5950,127.8664785
15.6000,127.9391412
15.6050,128.008002
15.6100,128.0735721
15.6150,128.135934
15.6200,128.1952806
15.6250,128.2515004
15.6300,128.3048404
15.6350,128.3556817
15.6400,128.4045976
15.6450,128.4519309
15.6500,128.4983968
15.6550,128.5437736
15.6600,128.5884751
15.6650,128.6323744
15.6700,128.6756699
15.6750,128.718875
15.6800,128.7621961
15.6850,128.8060932
15.6900,128.8504306
15.6950,128.8955073
15.7000,128.9416421
15.7050,128.9885913
15.7100,129.0367869
15.7150,129.0859864
15.7200,129.1373265
15.7250,129.1903917
15.7300,129.2448642
15.7350,129.3011633
15.7400,129.3585416
15.7450,129.4174825
15.7500,129.4777547
15.7550,129.5395915
15.7600,129.6027132
15.7650,129.6671457
15.7700,129.7328363
15.7750,129.7994467
15.7800,129.8664289
15.7850,129.9337212
15.7900,130.0012121
15.7950,130.0685612
15.8000,130.1350231
15.8050,130.2004311
15.8100,130.2642
15.8150,130.3261212
15.8200,130.3859344
15.8250,130.4435923
15.8300,130.4986827
15.8350,130.5511624
15.8400,130.6008022
15.8450,130.6470927
15.8500,130.6902006
15.8550,130.7297497
15.8600,130.7658107
15.8650,130.7980932
15.8700,130.8265579
15.8750,130.8510972
15.8800,130.8722421
15.8850,130.8897541
15.8900,130.9034271
15.8950,130.9133106
15.9000,130.9196623
15.9050,130.9221183
15.9100,130.9205378
15.9150,130.9150145
15.9200,130.9054983
15.9250,130.8922456
15.9300,130.8752631
15.9350,130.8546754
15.9400,130.8301572
15.9450,130.8018393
15.9500,130.7693022
15.9550,130.7335625
15.9600,130.6939988
15.9650,130.6510717
15.9700,130.6048686
15.9750,130.555506
15.9800,130.5028732
15.9850,130.4469203
15.9900,130.3876154
15.9950,130.3248514
16.0000,130.2585667
16.0050,130.1884289
16.0100,130.1148872
16.0150,130.0373477
16.0200,129.955119
16.0250,129.8684393
16.0300,129.7773978
16.0350,129.6816676
16.0400,129.5814642
16.0450,129.4765015
16.0500,129.3669971
16.0550,129.2524697
16.0600,129.1331273
16.0650,129.0091218
16.0700,128.8804513
16.0750,128.7472871
16.0800,128.6099752
16.0850,128.4688025
16.0900,128.3233031
16.0950,128.173455
16.1000,128.0197008
16.1050,127.8618132
16.1100,127.6996046
16.1150,127.5331898
16.1200,127.3623576
16.1250,127.186918
16.1300,127.0076409
16.1350,126.8238889
16.1400,126.6359587
16.1450,126.4440977
16.1500,126.2486768
16.1550,126.0498529
16.1600,125.8476567
16.1650,125.6422808
16.1700,125.4334624
16.1750,125.2216149
16.1800,125.0063989
16.1850,124.7885565
16.1900,124.5680812
16.1950,124.3450421
16.2000,124.1199221
16.2050,123.892549
16.2100,123.6635139
16.2150,123.4328041
16.2200,123.2006834
16.2250,122.9672979
16.2300,122.7327849
16.2350,122.4967898
16.2400,122.259836
16.2450,122.0213668
16.2500,121.7818705
16.2550,121.5409903
16.2600,121.2991141
16.2650,121.0566948
16.2700,120.8133978
16.2750,120.5692313
16.2800,120.3244383
16.2850,120.0796017
16.2900,119.8343491
16.2950,119.5893346
16.3000,119.3442695
16.3050,119.0990354
16.3100,118.8534944
16.3150,118.6078061
16.3200,118.3619009
16.3250,118.11525
16.3300,117.8680363
16.3350,117.6201258
16.3400,117.3717784
16.3450,117.1227275
16.3500,116.8731969
16.3550,116.6233794
16.3600,116.3730004
16.3650,116.1218781
16.3700,115.8702946
16.3750,115.6181679
16.3800,115.3657792
16.3850,115.1126797
16.3900,114.8593259
16.3950,114.6055452
16.4000,114.3513548
16.4050,114.0965982
16.4100,113.8417346
16.4150,113.5863851
16.4200,113.331024
16.4250,113.0749426
16.4300,112.8180086
16.4350,112.5600951
16.4400,112.3014337
16.4450,112.0416517
16.4500,111.7800538
16.4550,111.5171844
16.4600,111.2529757
16.4650,110.9870153
16.4700,110.7200074
16.4750,110.451255
16.4800,110.1813951
16.4850,109.910227
16.4900,109.6378141
16.4950,109.3642252
16.5000,109.0897339
16.5050,108.8146687
16.5100,108.5386848
16.5150,108.262076
16.5200,107.9846427
16.5250,107.7064734
16.5300,107.4273133
16.5350,107.1477534
16.5400,106.8673941
16.5450,106.5864134
16.5500,106.3046895
16.5550,106.022279
16.5600,105.7393642
16.5650,105.4554119
16.5700,105.17021
16.5750,104.8833044
16.5800,104.5948045
16.5850,104.3040038
16.5900,104.0107902
16.5950,103.7145991
16.6000,103.4152275
16.6050,103.1133531
16.6100,102.8082899
16.6150,102.5005465
16.6200,102.1900181
16.6250,101.8770776
16.6300,101.5616841
16.6350,101.2434371
16.6400,100.9220966
16.6450,100.5974692
16.6500,100.2690329
16.6550,99.9361076
16.6600,99.59838199
16.6650,99.25552137
16.6700,98.90649488
16.6750,98.55152959
16.6800,98.19012255
16.6850,97.82261773
16.6900,97.44825852
16.6950,97.06744922
16.7000,96.67950636
16.7050,96.2848789
16.7100,95.88269511
16.7150,95.47340665
16.7200,95.05679137
16.7250,94.63348051
16.7300,94.20330598
16.7350,93.76656156
16.7400,93.32353649
16.7450,92.87450234
16.7500,92.42032313
16.7550,91.96084639
16.7600,91.49655834
16.7650,91.02854749
16.7700,90.55695424
16.7750,90.08281751
16.7800,89.60634747
16.7850,89.12844183
16.7900,88.64963474
16.7950,88.17032264
16.8000,87.69069212
16.8050,87.21141401
16.8100,86.73274002
16.8150,86.25545154
16.8200,85.77997447
16.8250,85.30675133
16.8300,84.83636485
16.8350,84.36903035
16.8400,83.90483159
16.8450,83.44421843
16.8500,82.98753443
16.8550,82.53476427
16.8600,82.08591871
16.8650,81.64113399
16.8700,81.20087496
16.8750,80.76519294
16.8800,80.33402858
16.8850,79.90728365
16.8900,79.48510911
16.8950,79.06761364
16.9000,78.65475793
16.9050,78.24548607
16.9100,77.84012911
16.9150,77.43848361
16.9200,77.04018817
16.9250,76.64534985
16.9300,76.25368087
16.9350,75.86506726
16.9400,75.4793501
16.9450,75.0964424
16.9500,74.71600147
16.9550,74.33774352
16.9600,73.96137826
16.9650,73.58606327
16.9700,73.21209683
16.9750,72.83853533
16.9800,72.46515862
16.9850,72.09122654
16.9900,71.71688946
16.9950,71.34153485
17.0000,70.96505689
17.0050,70.58731771
17.0100,70.20833816
17.0150,69.82784158
17.0200,69.44544337
17.0250,69.06130738
17.0300,68.67512485
17.0350,68.28700102
17.0400,67.8965437
17.0450,67.50420214
17.0500,67.10953294
17.0550,66.71273602
17.0600,66.3141151
17.0650,65.91391215
17.0700,65.5124296
17.0750,65.11022731
17.0800,64.70743977
17.0850,64.30420022
17.0900,63.90060371
17.0950,63.49714701
17.1000,63.09411369
17.1050,62.69150809
17.1100,62.29015076
17.1150,61.88961167
17.1200,61.49051581
17.1250,61.09270632
17.1300,60.69620636
17.1350,60.3013655
17.1400,59.9084773
17.1450,59.51759049
17.1500,59.12848149
17.1550,58.74183564
17.1600,58.35774706
17.1650,57.97659277
17.1700,57.59820472
17.1750,57.22304651
17.1800,56.85108258
17.1850,56.48267238
17.1900,56.11779251
17.1950,55.75662254
17.2000,55.3987269
17.2050,55.04443143
17.2100,54.69350357
17.2150,54.34556474
17.2200,54.00092919
17.2250,53.6591478
17.2300,53.32005879
17.2350,52.98379234
17.2400,52.65028389
17.2450,52.31936808
17.2500,51.99099222
17.2550,51.66521724
17.2600,51.34225336
17.2650,51.02257957
17.2700,50.70564081
17.2750,50.39140681
17.2800,50.07939391
17.2850,49.76921084
17.2900,49.46065529
17.2950,49.1535429
17.3000,48.84802438
17.3050,48.54395152
17.3100,48.24134885
17.3150,47.93975477
17.3200,47.63936432
17.3250,47.33996704
17.3300,47.04168705
17.3350,46.74470479
17.3400,46.44917971
17.3450,46.15465083
17.3500,45.86120829
17.3550,45.56862348
17.3600,45.27676124
17.3650,44.98530077
17.3700,44.69417607
17.3750,44.40301055
17.3800,44.11191048
17.3850,43.82085926
17.3900,43.53021668
17.3950,43.2398361
17.4000,42.94980099
17.4050,42.66026414
17.4100,42.3710532
17.4150,42.08265358
17.4200,41.7948897
17.4250,41.50757754
17.4300,41.22058931
17.4350,40.93363105
17.4400,40.64625829
17.4450,40.35873016
17.4500,40.07072023
17.4550,39.78219002
17.4600,39.49310377
17.4650,39.20332536
17.4700,38.91308101
17.4750,38.62263939
17.4800,38.33212178
17.4850,38.04164943
17.4900,37.75154503
17.4950,37.46198193
17.5000,37.17357538
17.5050,36.88635757
17.5100,36.60057501
17.5150,36.31625962
17.5200,36.03316136
17.5250,35.75150195
17.5300,35.47111312
17.5350,35.19163602
17.5400,34.91322723
17.5450,34.63563082
17.5500,34.35899163
17.5550,34.08285366
17.5600,33.80727706
17.5650,33.5319482
17.5700,33.25705911
17.5750,32.98252313
17.5800,32.70841356
17.5850,32.43508116
17.5900,32.16225107
17.5950,31.89018812
17.6000,31.61914145
17.6050,31.34894911
17.6100,31.0799667
17.6150,30.81248052
17.6200,30.54664462
17.6250,30.28272543
17.6300,30.02070301
17.6350,29.76070876
17.6400,29.50262185
17.6450,29.2470487
17.6500,28.99407597
17.6550,28.74400584
17.6600,28.49678658
17.6650,28.25227712
17.6700,28.01056602
17.6750,27.77166162
17.6800,27.53550195
17.6850,27.30199218
17.6900,27.0710327
17.6950,26.84258634
17.7000,26.61668248
17.7050,26.39307004
17.7100,26.17165602
17.7150,25.95219771
17.7200,25.73470462
17.7250,25.51911192
17.7300,25.30572163
17.7350,25.09445688
17.7400,24.8856096
17.7450,24.67895559
17.7500,24.47459253
17.7550,24.27239046
17.7600,24.07230613
17.7650,23.87432088
17.7700,23.6781915
17.7750,23.48357973
17.7800,23.29037548
17.7850,23.09831246
17.7900,22.9069885
17.7950,22.71625434
17.8000,22.52559486
17.8050,22.33519677
17.8100,22.14503845
17.8150,21.95512386
17.8200,21.76550218
17.8250,21.57603621
17.8300,21.38683272
17.8350,21.198173
17.8400,21.00971882
17.8450,20.82149318
17.8500,20.63363159
17.8550,20.44640416
17.8600,20.25950951
17.8650,20.07316444
17.8700,19.88760066
17.8750,19.70308175
17.8800,19.51962543
17.8850,19.33740535
17.8900,19.15710881
17.8950,18.97844392
17.9000,18.80164394
17.9050,18.62688994
17.9100,18.4540995
17.9150,18.28368392
17.9200,18.11551975
17.9250,17.94965795
17.9300,17.78630076
17.9350,17.62528901
17.9400,17.46650584
17.9450,17.31002693
17.9500,17.15590511
17.9550,17.00429682
17.9600,16.85506552
17.9650,16.70841312
17.9700,16.56439421
17.9750,16.42288633
17.9800,16.28398593
17.9850,16.1475356
17.9900,16.01364705
17.9950,15.88215651
18.0000,15.75293941
18.0050,15.6261963
18.0100,15.50190085
18.0150,15.37986352
18.0200,15.25984009
18.0250,15.14194779
18.0300,15.02608589
18.0350,14.91219798
18.0400,14.80015035
18.0450,14.68990489
18.0500,14.5811652
18.0550,14.47380293
18.0600,14.36784848
18.0650,14.26290065
18.0700,14.15887572
18.0750,14.05564912
18.0800,13.95300179
18.0850,13.85088397
18.0900,13.74936674
18.0950,13.64821527
18.1000,13.54743022
18.1050,13.44680863
18.1100,13.34609869
18.1150,13.24535165
18.1200,13.14434628
18.1250,13.04305104
18.1300,12.94143308
18.1350,12.83940493
18.1400,12.73681609
18.1450,12.63365918
18.1500,12.52976029
18.1550,12.42508924
18.1600,12.3195678
18.1650,12.21326007
18.1700,12.10596731
18.1750,11.997653
18.1800,11.8886817
18.1850,11.77880795
18.1900,11.66808099
18.1950,11.55648154
18.2000,11.44429873
18.2050,11.3314124
18.2100,11.2179599
18.2150,11.10368566
18.2200,10.98875428
18.2250,10.87330455
18.2300,10.75724775
18.2350,10.64076422
18.2400,10.52407324
18.2450,10.40712979
18.2500,10.29012741
18.2550,10.17322991
18.2600,10.05660136
18.2650,9.940594435
18.2700,9.825000352
18.2750,9.710115169
18.2800,9.596094929
18.2850,9.483219292
18.2900,9.371543545
18.2950,9.261388531
18.3000,9.15292496
18.3050,9.045964801
18.3100,8.940780486
18.3150,8.837776514
18.3200,8.736928502
18.3250,8.638468334
18.3300,8.5418382
18.3350,8.447482095
18.3400,8.355450265
18.3450,8.265294478
18.3500,8.177308898
18.3550,8.091318521
18.3600,8.006963722
18.3650,7.924201753
18.3700,7.843046556
18.3750,7.763149091
18.3800,7.684517786
18.3850,7.606878081
18.3900,7.530052133
18.3950,7.454009129
18.4000,7.378757808
18.4050,7.304212399
18.4100,7.230170857
18.4150,7.156601008
18.4200,7.083460988
18.4250,7.010762665
18.4300,6.938484625
18.4350,6.866433494
18.4400,6.795001997
18.4450,6.723815802
18.4500,6.653119096
18.4550,6.582778255
18.4600,6.512987072
18.4650,6.443566687
18.4700,6.374770738
18.4750,6.306316939
18.4800,6.238039004
18.4850,6.1701771
18.4900,6.102469234
18.4950,6.034906357
18.5000,5.967207451
18.5050,5.899569204
18.5100,5.831920649
18.5150,5.764388232
18.5200,5.697033572
18.5250,5.629808904
18.5300,5.562811285
18.5350,5.49621976
18.5400,5.430015631
18.5450,5.364302777
18.5500,5.299201089
18.5550,5.234653965
18.5600,5.171164495
18.5650,5.108525474
18.5700,5.047166768
18.5750,4.986894584
18.5800,4.928139526
18.5850,4.870900229
18.5900,4.815330741
18.5950,4.761480491
18.6000,4.709333364
18.6050,4.659310318
18.6100,4.611230735
18.6150,4.564980077
18.6200,4.520904119
18.6250,4.479000698
18.6300,4.439490942
18.6350,4.402317402
18.6400,4.367294476
18.6450,4.33471932
18.6500,4.304491036
18.6550,4.276863487
18.6600,4.251950862
18.6650,4.229951765
18.6700,4.210633058
18.6750,4.194141947
18.6800,4.180478733
18.6850,4.169476947
18.6900,4.161111854
18.6950,4.155345799
18.7000,4.152126619
18.7050,4.151336568
18.7100,4.15303655
18.7150,4.156939121
18.7200,4.163007917
18.7250,4.171143573
18.7300,4.181107026
18.7350,4.193067414
18.7400,4.206647711
18.7450,4.222137096
18.7500,4.239207758
18.7550,4.258076907
18.7600,4.278553285
18.7650,4.300609586
18.7700,4.324198685
18.7750,4.349554712
18.7800,4.376610093
18.7850,4.405353994
18.7900,4.436002742
18.7950,4.468706371
18.8000,4.503396342
18.8050,4.540246762
18.8100,4.579296688
18.8150,4.620736703
18.8200,4.664672989
18.8250,4.71122987
18.8300,4.760474898
18.8350,4.812471659
18.8400,4.867509317
18.8450,4.925545141
18.8500,4.986687549
18.8550,5.051060187
18.8600,5.118669105
18.8650,5.189763448
18.8700,5.264396768
18.8750,5.342970961
18.8800,5.425248761
18.8850,5.511391343
18.8900,5.601327968
18.8950,5.695020329
18.9000,5.792510946
18.9050,5.893587143
18.9100,5.99824957
18.9150,6.106279329
18.9200,6.217619773
18.9250,6.331986153
18.9300,6.449482169
18.9350,6.569767507
18.9400,6.692987205
18.9450,6.819077658
18.9500,6.947620763
18.9550,7.078435871
18.9600,7.211533958
18.9650,7.346563823
18.9700,7.483504964
18.9750,7.622635458
18.9800,7.763623973
18.9850,7.90707975
18.9900,8.05273354
18.9950,8.200636488
19.0000,8.350893186
19.0050,8.503708673
19.0100,8.659269117
19.0150,8.817682729
19.0200,8.97919898
19.0250,9.143813894
19.0300,9.311988519
19.0350,9.483947458
19.0400,9.659739803
19.0450,9.839591651
19.0500,10.02348735
19.0550,10.21143573
19.0600,10.40358319
19.0650,10.60016553
19.0700,10.8012931
19.0750,11.00696739
19.0800,11.21730418
19.0850,11.43217416
19.0900,11.65131255
19.0950,11.87496536
19.1000,12.10308536
19.1050,12.3355293
19.1100,12.57223173
19.1150,12.81313053
19.1200,13.05798357
19.1250,13.30666621
19.1300,13.55923195
19.1350,13.8152762
19.1400,14.07475846
19.1450,14.33774375
19.1500,14.60391901
19.1550,14.87304868
19.1600,15.14500698
19.1650,15.41943671
19.1700,15.69617426
19.1750,15.97470815
19.1800,16.2549982
19.1850,16.5367354
19.1900,16.81954181
19.1950,17.10347181
19.2000,17.38830196
19.2050,17.67378537
19.2100,17.95971761
19.2150,18.24614491
19.2200,18.53275978
19.2250,18.81933062
19.2300,19.10576172
19.2350,19.39177912
19.2400,19.67724312
19.2450,19.96203372
19.2500,20.24613055
19.2550,20.52962972
19.2600,20.81210957
19.2650,21.0938837
19.2700,21.37495192
19.2750,21.65515231
19.2800,21.93458423
19.2850,22.21317143
19.2900,22.49101637
19.2950,22.76825964
19.3000,23.04512761
19.3050,23.3217977
19.3100,23.598001
19.3150,23.87417506
19.3200,24.15013557
19.3250,24.42612088
19.3300,24.70202156
19.3350,24.97759232
19.3400,25.25306486
19.3450,25.52855616
19.3500,25.80407545
19.3550,26.0799089
19.3600,26.35636529
19.3650,26.63323813
19.3700,26.91058541
19.3750,27.18849254
19.3800,27.46705866
19.3850,27.74644
19.3900,28.02673963
19.3950,28.30785216
19.4000,28.58975944
19.4050,28.87261975
19.4100,29.15656332
19.4150,29.4413477
19.4200,29.72722992
19.4250,30.01409601
19.4300,30.30211001
19.4350,30.59114371
19.4400,30.8812262
19.4450,31.17220318
19.4500,31.46399304
19.4550,31.75656569
19.4600,32.04978932
19.4650,32.34392982
19.4700,32.63878303
19.4750,32.93435122
19.4800,33.23045955
19.4850,33.5268732
19.4900,33.82369223
19.4950,34.12073162
19.5000,34.41804037
19.5050,34.71538478
19.5100,35.01256549
19.5150,35.30951117
19.5200,35.60593977
19.5250,35.90215812
19.5300,36.19780939
19.5350,36.49274098
19.5400,36.78724231
19.5450,37.08121207
19.5500,37.37510252
19.5550,37.66875686
19.5600,37.96246256
19.5650,38.25642895
19.5700,38.55086401
19.5750,38.84584909
19.5800,39.14194772
19.5850,39.43866932
19.5900,39.73668294
19.5950,40.03580565
19.6000,40.336053
19.6050,40.63718707
19.6100,40.93952203
19.6150,41.24285686
19.6200,41.54738264
19.6250,41.85307181
19.6300,42.16001335
19.6350,42.46788381
19.6400,42.77680719
19.6450,43.08633429
19.6500,43.39666067
19.6550,43.70755929
19.6600,44.01870856
19.6650,44.33010521
19.6700,44.6416603
19.6750,44.95361629
19.6800,45.26560199
19.6850,45.57752586
19.6900,45.88954306
19.6950,46.20170905
19.7000,46.5140604
19.7050,46.82671405
19.7100,47.13958525
19.7150,47.45284157
19.7200,47.76640954
19.7250,48.08044811
19.7300,48.3948583
19.7350,48.70995234
19.7400,49.0255492
19.7450,49.34166799
19.7500,49.65866914
19.7550,49.97666123
19.7600,50.29546421
19.7650,50.61502157
19.7700,50.93529879
19.7750,51.2563278
19.7800,51.5781881
19.7850,51.90100122
19.7900,52.22496518
19.7950,52.5497981
19.8000,52.87532164
19.8050,53.20177155
19.8100,53.52922345
19.8150,53.85785853
19.8200,54.18782109
19.8250,54.51900154
19.8300,54.85133487
19.8350,55.1852655
19.8400,55.52043613
19.8450,55.85682274
19.8500,56.19441407
19.8550,56.53311255
19.8600,56.8729131
19.8650,57.21409412
19.8700,57.55624701
19.8750,57.89920076
19.8800,58.24286932
19.8850,58.58757166
19.8900,58.93277695
19.8950,59.27872429
19.9000,59.62530438
19.9050,59.97218291
19.9100,60.3191074
19.9150,60.66601333
19.9200,61.0126627
19.9250,61.35872211
19.9300,61.70399286
19.9350,62.04881039
19.9400,62.39277758
19.9450,62.7360145
19.9500,63.0783842
19.9550,63.41971859
19.9600,63.76021849
19.9650,64.09987671
19.9700,64.43849798
19.9750,64.77598573
19.9800,65.1126947
19.9850,65.44861332
19.9900,65.78365888
19.9950,66.11802471
20.0000,66.45171232
20.0050,66.78480335
20.0100,67.11721963
20.0150,67.44938536
20.0200,67.78131369
20.0250,68.113226
20.0300,68.44471446
20.0350,68.77611659
20.0400,69.10718394
20.0450,69.43827561
20.0500,69.76915843
20.0550,70.10011292
20.0600,70.43094747
20.0650,70.76171507
20.0700,71.09293019
20.0750,71.42449189
20.0800,71.75615662
20.0850,72.08803483
20.0900,72.42007845
20.0950,72.752243
20.1000,73.08465492
20.1050,73.41699389
20.1100,73.74902506
20.1150,74.08040671
20.1200,74.41083503
20.1250,74.73985508
20.1300,75.06777784
20.1350,75.39411659
20.1400,75.71852696
20.1450,76.04074546
20.1500,76.36056697
20.1550,76.67793587
20.1600,76.99308839
20.1650,77.30537328
20.1700,77.61491483
20.1750,77.92222107
20.1800,78.22679192
20.1850,78.52873703
20.1900,78.82859415
20.1950,79.12608
20.2000,79.42170286
20.2050,79.71557887
20.2100,80.00819939
20.2150,80.29946981
20.2200,80.59029169
20.2250,80.88072984
20.2300,81.17085499
20.2350,81.46083756
20.2400,81.75069331
20.2450,82.0403588
20.2500,82.32984364
20.2550,82.61955316
20.2600,82.90936469
20.2650,83.19909473
20.2700,83.48925794
20.2750,83.77965988
20.2800,84.07008132
20.2850,84.36098775
20.2900,84.65228537
20.2950,84.94385789
20.3000,85.2356192
20.3050,85.52753399
20.3100,85.82001179
20.3150,86.11306972
20.3200,86.40676664
20.3250,86.70110526
20.3300,86.9964939
20.3350,87.29276156
20.3400,87.59026671
20.3450,87.8892774
20.3500,88.1893574
20.3550,88.49024195
20.3600,88.79242222
20.3650,89.09543599
20.3700,89.39892386
20.3750,89.70297701
20.3800,90.00726774
20.3850,90.31125979
20.3900,90.61484333
20.3950,90.91808756
20.4000,91.22049932
20.4050,91.52216936
20.4100,91.8234194
20.4150,92.12414875
20.4200,92.4247192
20.4250,92.72494345
20.4300,93.02455113
20.4350,93.32350852
20.4400,93.62222422
20.4450,93.92063806
20.4500,94.21886229
20.4550,94.51698468
20.4600,94.81484929
20.4650,95.11232868
20.4700,95.40966953
20.4750,95.70635752
20.4800,96.00259732
20.4850,96.29896902
20.4900,96.59492666
20.4950,96.89089574
20.5000,97.18625098
20.5050,97.48147031
20.5100,97.77671108
20.5150,98.07183749
20.5200,98.36653225
20.5250,98.66070793
20.5300,98.95441825
20.5350,99.24809262
20.5400,99.54191537
20.5450,99.8360568
20.5500,100.1305726
20.5550,100.4250699
20.5600,100.7196181
20.5650,101.0140968
20.5700,101.3079739
20.5750,101.6011869
20.5800,101.8938204
20.5850,102.1856208
20.5900,102.4764534
20.5950,102.7660518
20.6000,103.0543365
20.6050,103.3406477
20.6100,103.6246499
20.6150,103.906075
20.6200,104.1847488
20.6250,104.4604162
20.6300,104.7331326
20.6350,105.0028097
20.6400,105.2693497
20.6450,105.532454
20.6500,105.7923261
20.6550,106.049105
20.6600,106.3030449
20.6650,106.5539288
20.6700,106.8020399
20.6750,107.0468736
20.6800,107.2887381
20.6850,107.5280678
20.6900,107.7651796
20.6950,107.9997439
20.7000,108.2323719
20.7050,108.4625229
20.7100,108.6903476
20.7150,108.915588
20.7200,109.1379026
20.7250,109.3575264
20.7300,109.5742425
20.7350,109.7880663
20.7400,109.9987272
20.7450,110.2064038
20.7500,110.4108627
20.7550,110.6124459
20.7600,110.8111941
20.7650,111.0076748
20.7700,111.2018614
20.7750,111.3943337
20.7800,111.5850668
20.7850,111.7738119
20.7900,111.9605782
20.7950,112.1456302
20.8000,112.3294022
20.8050,112.5116558
20.8100,112.6923612
20.8150,112.8710749
20.8200,113.0478387
20.8250,113.2226272
20.8300,113.3952524
20.8350,113.5651896
20.8400,113.7324641
20.8450,113.8967097
20.8500,114.0582736
20.8550,114.2171387
20.8600,114.3732216
20.8650,114.5269293
20.8700,114.67784
20.8750,114.826569
20.8800,114.9729339
20.8850,115.1168613
20.8900,115.2591055
20.8950,115.3997504
20.9000,115.539573
20.9050,115.6790955
20.9100,115.8189054
20.9150,115.9592529
20.9200,116.1003164
20.9250,116.2426029
20.9300,116.385943
20.9350,116.5310761
20.9400,116.6780545
20.9450,116.8267835
20.9500,116.9777452
20.9550,117.1308993
20.9600,117.2856853
20.9650,117.4426553
20.9700,117.6014463
20.9750,117.7624568
20.9800,117.9259265
20.9850,118.0916075
20.9900,118.2592843
20.9950,118.4291301
21.0000,118.6006843
21.0050,118.7745197
21.0100,118.949958
21.0150,119.1272557
21.0200,119.3065192
21.0250,119.487855
21.0300,119.6712636
21.0350,119.8567631
21.0400,120.0442835
21.0450,120.2340228
21.0500,120.4258369
21.0550,120.6198366
21.0600,120.8158073
21.0650,121.013619
21.0700,121.2133878
21.0750,121.4144051
21.0800,121.6168406
21.0850,121.8200679
21.0900,122.0244166
21.0950,122.2291579
21.1000,122.434303
21.1050,122.6396727
21.1100,122.8451515
21.1150,123.0510019
21.1200,123.2571626
21.1250,123.4633756
21.1300,123.6696631
21.1350,123.876102
21.1400,124.0821516
21.1450,124.2880506
21.1500,124.4931391
21.1550,124.6975394
21.1600,124.9007529
21.1650,125.1025174
21.1700,125.3030622
21.1750,125.5021888
21.1800,125.7001466
21.1850,125.8970445
21.1900,126.0922367
21.1950,126.2860869
21.2000,126.4779507
21.2050,126.6679594
21.2100,126.8559605
21.2150,127.0415727
21.2200,127.225077
21.2250,127.4062918
21.2300,127.5854623
21.2350,127.7615493
21.2400,127.935057
21.2450,128.1060186
21.2500,128.274524
21.2550,128.4405554
21.2600,128.6043604
21.2650,128.7659852
21.2700,128.9251835
21.2750,129.0822607
21.2800,129.2369842
21.2850,129.3893176
21.2900,129.5391028
21.2950,129.6860048
21.3000,129.830068
21.3050,129.9708921
21.3100,130.1089181
21.3150,130.2434715
21.3200,130.3746716
21.3250,130.5018978
21.3300,130.6253781
21.3350,130.744928
21.3400,130.8602662
21.3450,130.9714261
21.3500,131.0782536
21.3550,131.1804378
21.3600,131.2778972
21.3650,131.3705037
21.3700,131.4579514
21.3750,131.5407633
21.3800,131.6186015
21.3850,131.691742
21.3900,131.7601516
21.3950,131.82421
21.4000,131.8841047
21.4050,131.9396353
21.4100,131.9909159
21.4150,132.0384384
21.4200,132.0818965
21.4250,132.1220608
21.4300,132.1587619
21.4350,132.1921395
21.4400,132.222901
21.4450,132.2511266
21.4500,132.2769949
21.4550,132.3006234
21.4600,132.3228505
21.4650,132.343988
21.4700,132.3641177
21.4750,132.3834661
21.4800,132.4017394
21.4850,132.4189384
21.4900,132.4356456
21.4950,132.4515594
21.5000,132.466797
21.5050,132.481296
21.5100,132.4948637
21.5150,132.5074008
21.5200,132.5187884
21.5250,132.5290037
21.5300,132.5377248
21.5350,132.5450438
21.5400,132.5507184
21.5450,132.5547521
21.5500,132.5566564
21.5550,132.5562089
21.5600,132.5535951
21.5650,132.5484366
21.5700,132.5408087
21.5750,132.5305664
21.5800,132.5175089
21.5850,132.5018672
21.5900,132.4837012
21.5950,132.4631148
21.6000,132.4396902
21.6050,132.4135114
21.6100,132.3842681
21.6150,132.3521034
21.6200,132.3166853
21.6250,132.27848
21.6300,132.2367517
21.6350,132.1912671
21.6400,132.1419904
21.6450,132.0884439
21.6500,132.0304183
21.6550,131.9678592
21.6600,131.9005548
21.6650,131.8282548
21.6700,131.750848
21.6750,131.6681405
21.6800,131.5802539
21.6850,131.4871516
21.6900,131.3884769
21.6950,131.284549
21.7000,131.1746706
21.7050,131.0592941
21.7100,130.9384077
21.7150,130.8115574
21.7200,130.6787598
21.7250,130.5394304
21.7300,130.393857
21.7350,130.2417596
21.7400,130.0829909
21.7450,129.91726
21.7500,129.7448566
21.7550,129.565885
21.7600,129.3798217
21.7650,129.1864971
21.7700,128.9862193
21.7750,128.7787605
21.7800,128.5647472
21.7850,128.3444549
21.7900,128.1176663
21.7950,127.8847498
21.8000,127.6457799
21.8050,127.4005175
21.8100,127.1492057
21.8150,126.8922293
21.8200,126.6294019
21.8250,126.3611298
21.8300,126.0876525
21.8350,125.8093434
21.8400,125.5262471
21.8450,125.2383244
21.8500,124.9458665
21.8550,124.6495018
21.8600,124.3486928
21.8650,124.0439159
21.8700,123.7352294
21.8750,123.4226791
21.8800,123.1064455
21.8850,122.786278
21.8900,122.462507
21.8950,122.1352647
21.9000,121.8049428
21.9050,121.4717429
21.9100,121.1359498
21.9150,120.7981
21.9200,120.4582986
21.9250,120.1162881
21.9300,119.7728708
21.9350,119.4279023
21.9400,119.0814326
21.9450,118.7335028
21.9500,118.3842939
21.9550,118.033732
21.9600,117.6819302
21.9650,117.3287536
21.9700,116.974583
21.9750,116.6193029
21.9800,116.2630509
21.9850,115.9056276
21.9900,115.5478035
21.9950,115.1892296
22.0000,114.8303192
22.0050,114.4709808
22.0100,114.1111966
22.0150,113.7509257
22.0200,113.3905847
22.0250,113.0302875
22.0300,112.6698299
22.0350,112.3094104
22.0400,111.9492506
22.0450,111.5888908
22.0500,111.2283668
22.0550,110.8675524
22.0600,110.5064565
22.0650,110.1452883
22.0700,109.7839632
22.0750,109.4227901
22.0800,109.0620343
22.0850,108.7012402
22.0900,108.3406416
22.0950,107.9804973
22.1000,107.62081
22.1050,107.2619156
22.1100,106.9036252
22.1150,106.5462255
22.1200,106.1895121
22.1250,105.8330437
22.1300,105.4767395
22.1350,105.1203302
22.1400,104.7634349
22.1450,104.406058
22.1500,104.048088
22.1550,103.6890594
22.1600,103.3293071
22.1650,102.9682034
22.1700,102.6062349
22.1750,102.2430268
22.1800,101.8784602
22.1850,101.5126559
22.1900,101.145229
22.1950,100.776147
22.2000,100.405557
22.2050,100.0332345
22.2100,99.6592601
22.2150,99.28312116
22.2200,98.90527278
22.2250,98.52556202
22.2300,98.14362876
22.2350,97.75991955
22.2400,97.37425453
22.2450,96.9867476
22.2500,96.59793418
22.2550,96.20733644
22.2600,95.8154668
22.2650,95.42241058
22.2700,95.0280785
22.2750,94.63243723
22.2800,94.23539331
22.2850,93.83707858
22.2900,93.43728828
22.2950,93.03617449
22.3000,92.63381364
22.3050,92.23016487
22.3100,91.82575266
22.3150,91.42090525
22.3200,91.0153914
22.3250,90.60968318
22.3300,90.20426211
22.3350,89.79920893
22.3400,89.39449191
22.3450,88.99056982
22.3500,88.58753853
22.3550,88.18573679
22.3600,87.78493046
22.3650,87.38513187
22.3700,86.98651534
22.3750,86.58888118
22.3800,86.19186821
22.3850,85.79618894
22.3900,85.4011971
22.3950,85.0066224
22.4000,84.61255502
22.4050,84.218778
22.4100,83.82529537
22.4150,83.43147742
22.4200,83.03772941
22.4250,82.6439112
22.4300,82.24996114
22.4350,81.85585843
22.4400,81.46137657
22.4450,81.06635517
22.4500,80.67064104
22.4550,80.27391907
22.4600,79.87618064
22.4650,79.47768093
22.4700,79.07788404
22.4750,78.67683137
22.4800,78.27492006
22.4850,77.87214571
22.4900,77.46860109
22.4950,77.06438785
22.5000,76.65956137
22.5050,76.25420498
22.5100,75.84785705
22.5150,75.44130213
22.5200,75.03382353
22.5250,74.62572292
22.5300,74.21713647
22.5350,73.80799088
22.5400,73.3986882
22.5450,72.98954817
22.5500,72.58051049
22.5550,72.17228589
22.5600,71.7648491
22.5650,71.35843299
22.5700,70.95292028
22.5750,70.54884555
22.5800,70.1461282
22.5850,69.74532459
22.5900,69.34586617
22.5950,68.94777956
22.6000,68.55099486
22.6050,68.15585816
22.6100,67.76208026
22.6150,67.36923348
22.6200,66.97779839
22.6250,66.58747188
22.6300,66.19797682
22.6350,65.80949232
22.6400,65.42218254
22.6450,65.03663495
22.6500,64.65284208
22.6550,64.27028842
22.6600,63.88943939
22.6650,63.51042034
22.6700,63.13264926
22.6750,62.75648373
22.6800,62.38194305
22.6850,62.00843965
22.6900,61.63658242
22.6950,61.26630829
22.7000,60.89762324
22.7050,60.53092119
22.7100,60.16633703
22.7150,59.8040803
22.7200,59.44410945
22.7250,59.08641228
22.7300,58.73114856
22.7350,58.37797674
22.7400,58.02695344
22.7450,57.67811635
22.7500,57.3314172
22.7550,56.98653816
22.7600,56.6432529
22.7650,56.30130798
22.7700,55.96081448
22.7750,55.62184273
22.7800,55.28399881
22.7850,54.94729553
22.7900,54.61170098
22.7950,54.27715085
22.8000,53.94351975
22.8050,53.61059394
22.8100,53.27877716
22.8150,52.94763779
22.8200,52.61761346
22.8250,52.28851639
22.8300,51.96030261
22.8350,51.63281818
22.8400,51.30611519
22.8450,50.97974852
22.8500,50.65367438
22.8550,50.3278853
22.8600,50.00234914
22.8650,49.67722582
22.8700,49.35238913
22.8750,49.02793933
22.8800,48.70384286
22.8850,48.37972775
22.8900,48.05604359
22.8950,47.7324954
22.9000,47.40899333
22.9050,47.08526758
22.9100,46.76139492
22.9150,46.4372023
22.9200,46.11247927
22.9250,45.7872924
22.9300,45.46138026
22.9350,45.13486001
22.9400,44.80770555
22.9450,44.47965429
22.9500,44.15002995
22.9550,43.81932463
22.9600,43.48741139
22.9650,43.154376
22.9700,42.82053738
22.9750,42.4857739
22.9800,42.14990421
22.9850,41.81319501
22.9900,41.47548545
22.9950,41.13694874
23.0000,40.79766745
23.0050,40.45755581
23.0100,40.11675351
23.0150,39.77543292
23.0200,39.43339217
23.0250,39.09074975
23.0300,38.74754495
23.0350,38.40417136
23.0400,38.06072335
23.0450,37.71713448
23.0500,37.37367679
23.0550,37.03046072
23.0600,36.68760935
23.0650,36.3449855
23.0700,36.00277626
23.0750,35.66065109
23.0800,35.31875874
23.0850,34.97718369
23.0900,34.63588855
23.0950,34.29497333
23.1000,33.95448566
23.1050,33.61452369
23.1100,33.27547388
23.1150,32.93757769
23.1200,32.60057451
23.1250,32.26488557
23.1300,31.93050218
23.1350,31.59779209
23.1400,31.26663861
23.1450,30.93724967
23.1500,30.60983981
23.1550,30.28419568
23.1600,29.96030251
23.1650,29.63817713
23.1700,29.3179689
23.1750,28.99945432
23.1800,28.68300062
23.1850,28.36864485
23.1900,28.05644212
23.1950,27.74629845
23.2000,27.43851243
23.2050,27.13308357
23.2100,26.82991088
23.2150,26.52894757
23.2200,26.23050747
23.2250,25.93423392
23.2300,25.64058489
23.2350,25.34922989
23.2400,25.05992379
23.2450,24.77279846
23.2500,24.48822527
23.2550,24.20575021
23.2600,23.9255491
23.2650,23.64752528
23.2700,23.3715052
23.2750,23.09738321
23.2800,22.82531859
23.2850,22.55511031
23.2900,22.28674513
23.2950,22.02028628
23.3000,21.75554293
23.3050,21.49265624
23.3100,21.23137747
23.3150,20.97158287
23.3200,20.71327983
23.3250,20.45632558
23.3300,20.2008203
23.3350,19.94666525
23.3400,19.69377365
23.3450,19.44223359
23.3500,19.19217112
23.3550,18.94355117
23.3600,18.69653301
23.3650,18.45150719
23.3700,18.20839366
23.3750,17.96746577
23.3800,17.72865554
23.3850,17.49212201
23.3900,17.25786068
23.3950,17.02593033
23.4000,16.79643459
23.4050,16.56954841
23.4100,16.34512448
23.4150,16.12312221
23.4200,15.90358364
23.4250,15.6863432
23.4300,15.47186236
23.4350,15.25993463
23.4400,15.05067002
23.4450,14.84439834
23.4500,14.64095323
23.4550,14.44057041
23.4600,14.24338994
23.4650,14.04936965
23.4700,13.85843166
23.4750,13.67086881
23.4800,13.48658088
23.4850,13.30569742
23.4900,13.12790077
23.4950,12.95346642
23.5000,12.7822663
23.5050,12.61446713
23.5100,12.4499661
23.5150,12.28903444
23.5200,12.13166796
23.5250,11.97790276
23.5300,11.82755643
23.5350,11.68069147
23.5400,11.53765144
23.5450,11.39812069
23.5500,11.2619179
23.5550,11.12928408
23.5600,11.00016
23.5650,10.87440527
23.5700,10.75182584
23.5750,10.63234245
23.5800,10.51571699
23.5850,10.40199218
23.5900,10.2909343
23.5950,10.18232647
23.6000,10.0764324
23.6050,9.972782595
23.6100,9.871389628
23.6150,9.772199092
23.6200,9.675090471
23.6250,9.580009881
23.6300,9.486636112
23.6350,9.394750768
23.6400,9.304147381
23.6450,9.214541378
23.6500,9.125604497
23.6550,9.037444736
23.6600,8.949648761
23.6650,8.861923338
23.6700,8.774250481
23.6750,8.686224507
23.6800,8.597997793
23.6850,8.509193886
23.6900,8.419616394
23.6950,8.329325305
23.7000,8.238062843
23.7050,8.145732735
23.7100,8.052147318
23.7150,7.957089773
23.7200,7.861020528
23.7250,7.763832438
23.7300,7.665277307
23.7350,7.565461509
23.7400,7.464458448
23.7450,7.362050068
23.7500,7.25854816
23.7550,7.153637751
23.7600,7.047443137
23.7650,6.940069054
23.7700,6.831526114
23.7750,6.721823299
23.7800,6.611057015
23.7850,6.49922241
23.7900,6.386749909
23.7950,6.273945605
23.8000,6.160853201
23.8050,6.047935951
23.8100,5.935695103
23.8150,5.824373246
23.8200,5.714136857
23.8250,5.605615139
23.8300,5.499082759
23.8350,5.395112902
23.8400,5.293678284
23.8450,5.195203016
23.8500,5.100124487
23.8550,5.008566207
23.8600,4.920511919
23.8650,4.8363423
23.8700,4.756008729
23.8750,4.679657298
23.8800,4.60745674
23.8850,4.539456922
23.8900,4.475806664
23.8950,4.416396177
23.9000,4.360995976
23.9050,4.309493433
23.9100,4.261883072
23.9150,4.217795225
23.9200,4.177302044
23.9250,4.139912696
23.9300,4.105805874
23.9350,4.07464165
23.9400,4.046452887
23.9450,4.020970861
23.9500,3.998174547
23.9550,3.977589667
23.9600,3.959415875
23.9650,3.943184537
23.9700,3.92854544
23.9750,3.915560961
23.9800,3.903488674
23.9850,3.89225066
23.9900,3.88141897
23.9950,3.870661373
24.0000,3.859635263
24.0050,3.84808872
24.0100,3.835819622
24.0150,3.822762565
24.0200,3.808487953
24.0250,3.792861679
24.0300,3.776128481
24.0350,3.757853062
24.0400,3.737985174
24.0450,3.716656797
24.0500,3.693522048
24.0550,3.668717254
24.0600,3.642253705
24.0650,3.614332578
24.0700,3.584980133
24.0750,3.554568725
24.0800,3.523055556
24.0850,3.490871077
24.0900,3.458115626
24.0950,3.424793509
24.1000,3.391454888
24.1050,3.357788769
24.1100,3.324026931
24.1150,3.290259587
24.1200,3.256499002
24.1250,3.222747312
24.1300,3.189159204
24.1350,3.155590646
24.1400,3.122119699
24.1450,3.088909755
24.1500,3.05589043
24.1550,3.02347252
24.1600,2.991600441
24.1650,2.960230163
24.1700,2.929716246
24.1750,2.90015504
24.1800,2.871664988
24.1850,2.844079017
24.1900,2.817527883
24.1950,2.792349476
24.2000,2.768257042
24.2050,2.745834611
24.2100,2.724947965
24.2150,2.705517987
24.2200,2.687643012
24.2250,2.671478825
24.2300,2.656801134
24.2350,2.643721751
24.2400,2.632026819
24.2450,2.621986498
24.2500,2.613328276
24.2550,2.60614638
24.2600,2.600158956
24.2650,2.595592671
24.2700,2.592315395
24.2750,2.590316623
24.2800,2.589644417
24.2850,2.590595199
24.2900,2.593101398
24.2950,2.597246701
24.3000,2.603278366
24.3050,2.611382446
24.3100,2.621488969
24.3150,2.633889564
24.3200,2.648540417
24.3250,2.66554324
24.3300,2.684687681
24.3350,2.706177461
24.3400,2.730298703
24.3450,2.756965729
24.3500,2.786462481
24.3550,2.818732562
24.3600,2.853774187
24.3650,2.891421401
24.3700,2.931521994
24.3750,2.973689407
24.3800,3.017769229
24.3850,3.063618671
24.3900,3.110889862
24.3950,3.159445117
24.4000,3.208799957
24.4050,3.25895337
24.4100,3.309294012
24.4150,3.360062202
24.4200,3.410852283
24.4250,3.461617327
24.4300,3.512240657
24.4350,3.562419497
24.4400,3.61217672
24.4450,3.661382343
24.4500,3.71015766
24.4550,3.757957073
24.4600,3.804851937
24.4650,3.85121701
24.4700,3.896995828
24.4750,3.942182025
24.4800,3.986775999
24.4850,4.030828424
24.4900,4.07443396
24.4950,4.117392138
24.5000,4.160140973
24.5050,4.202478179
24.5100,4.24470916
24.5150,4.287291105
24.5200,4.330319438
24.5250,4.374253808
24.5300,4.419388542
24.5350,4.466362159
24.5400,4.515512957
24.5450,4.56717288
24.5500,4.621820543
24.5550,4.679816012
24.5600,4.741452731
24.5650,4.806884285
24.5700,4.876635338
24.5750,4.950730816
24.5800,5.029312023
24.5850,5.112453543
24.5900,5.200412636
24.5950,5.293038807
24.6000,5.390538417
24.6050,5.492646366
24.6100,5.5994389
24.6150,5.710749969
24.6200,5.82653128
24.6250,5.946626233
24.6300,6.070829569
24.6350,6.199362353
24.6400,6.331819649
24.6450,6.468438249
24.6500,6.609060449
24.6550,6.753749022
24.6600,6.902557715
24.6650,7.055668527
24.6700,7.213360754
24.6750,7.375745013
24.6800,7.543058748
24.6850,7.715282659
24.6900,7.892801874
24.6950,8.07554315
24.7000,8.263719002
24.7050,8.457293669
24.7100,8.656607829
24.7150,8.861182263
24.7200,9.070988905
24.7250,9.285991917
24.7300,9.505982159
24.7350,9.730810184
24.7400,9.960438695
24.7450,10.19438787
24.7500,10.4323228
24.7550,10.67441497
24.7600,10.92019541
24.7650,11.16897104
24.7700,11.42057449
24.7750,11.67500187
24.7800,11.93189943
24.7850,12.19121613
24.7900,12.45289163
24.7950,12.71691259
24.8000,12.98296554
24.8050,13.25109398
24.8100,13.52107034
24.8150,13.79302105
24.8200,14.0667294
24.8250,14.34233772
24.8300,14.61947412
24.8350,14.89783463
24.8400,15.17734169
24.8450,15.4580917
24.8500,15.73963417
24.8550,16.02168584
24.8600,16.30432145
24.8650,16.58747302
24.8700,16.87122294
24.8750,17.1555013
24.8800,17.44026455
24.8850,17.72539272
24.8900,18.01088575
24.8950,18.29666685
24.9000,18.5827179
24.9050,18.86907193
24.9100,19.15585769
24.9150,19.44307769
24.9200,19.73075416
24.9250,20.01906658
24.9300,20.30812112
24.9350,20.59811305
24.9400,20.88912228
24.9450,21.18118265
24.9500,21.47431249
24.9550,21.76876365
24.9600,22.06452385
24.9650,22.36136833
24.9700,22.65955633
24.9750,22.95917755
24.9800,23.26019342
24.9850,23.56254857
24.9900,23.86590027
24.9950,24.1705176
25.0000,24.47607271
25.0050,24.78255229
25.0100,25.08981494
25.0150,25.39767267
25.0200,25.70614231
25.0250,26.0148955
25.0300,26.32405015
25.0350,26.63347277
25.0400,26.94284511
25.0450,27.25223407
25.0500,27.56144113
25.0550,27.87009546
25.0600,28.17841562
25.0650,28.48657113
25.0700,28.79437269
25.0750,29.10136721
25.0800,29.40786243
25.0850,29.71383937
25.0900,30.01914901
25.0950,30.32377087
25.1000,30.62790496
25.1050,30.93128072
25.1100,31.2339024
25.1150,31.53577642
25.1200,31.83710308
25.1250,32.13758056
25.1300,32.43756647
25.1350,32.73697787
25.1400,33.03576778
25.1450,33.33383593
25.1500,33.63126478
25.1550,33.92819842
25.1600,34.22478258
25.1650,34.52108589
25.1700,34.81678174
25.1750,35.11197662
25.1800,35.40721358
25.1850,35.70226132
25.1900,35.99751325
25.1950,36.29343385
25.2000,36.58987151
25.2050,36.88748069
25.2100,37.18688159
25.2150,37.48819612
25.2200,37.7920162
25.2250,38.09858264
25.2300,38.40889898
25.2350,38.72338412
25.2400,39.04270456
25.2450,39.36761364
25.2500,39.69894345
25.2550,40.0373712
25.2600,40.38409721
25.2650,40.74035745
25.2700,41.10678601
25.2750,41.48489826
25.2800,41.8759673
25.2850,42.28132518
25.2900,42.70199062
25.2950,43.13946746
25.3000,43.59455111
25.3050,44.06828954
25.3100,44.56082887
25.3150,44.74908886
25.3200,44.95450474
25.3250,45.17630721
25.3300,45.41339362
25.3350,45.66438515
25.3400,45.92767417
25.3450,46.20146346
25.3500,46.48379831
25.3550,46.77259298
25.3600,47.06565514
25.3650,47.36070932
25.3700,47.65541665
25.3750,47.94739056
25.3800,48.23421265
25.3850,48.51345264
25.3900,48.7826933
25.3950,49.03955983
25.4000,49.28175497
25.4050,49.50710089
25.4100,49.71358933
25.4150,49.8994422
25.4200,50.06318321
25.4250,50.20372147
25.4300,50.32044962
25.4350,50.41335612
