type,name,time_units,begin_time,frequency,count,units
signal,"Noraxon MyoMotion-Joints-Elbow RT-Flexion","s",0.0000,200,5088,"deg"

time,value
0.0000,3.217804759
0.0050,3.210561475
0.0100,3.203319364
0.0150,3.196078424
0.0200,3.188811747
0.0250,3.181677066
0.0300,3.1748415
0.0350,3.168474906
0.0400,3.162744516
0.0450,3.157809901
0.0500,3.153816851
0.0550,3.150891546
0.0600,3.149137079
0.0650,3.148631426
0.0700,3.149425482
0.0750,3.151541673
0.0800,3.154974062
0.0850,3.15968944
0.0900,3.165628176
0.0950,3.172705518
0.1000,3.180814275
0.1050,3.189827457
0.1100,3.199600406
0.1150,3.209973919
0.1200,3.220778985
0.1250,3.231841754
0.1300,3.242986897
0.1350,3.254039584
0.1400,3.264827772
0.1450,3.275185878
0.1500,3.284959658
0.1550,3.293656141
0.1600,3.30169723
0.1650,3.308811538
0.1700,3.315160585
0.1750,3.320808997
0.1800,3.325579651
0.1850,3.329512724
0.1900,3.332523349
0.1950,3.33463683
0.2000,3.336063398
0.2050,3.336545712
0.2100,3.336324266
0.2150,3.33531653
0.2200,3.333723116
0.2250,3.331561131
0.2300,3.328659837
0.2350,3.325373567
0.2400,3.321666476
0.2450,3.317393567
0.2500,3.312801749
0.2550,3.307986377
0.2600,3.302842722
0.2650,3.297486665
0.2700,3.29187593
0.2750,3.286329618
0.2800,3.280763792
0.2850,3.27513809
0.2900,3.269575497
0.2950,3.264066936
0.3000,3.25851069
0.3050,3.253228252
0.3100,3.248251311
0.3150,3.243701871
0.3200,3.239423236
0.3250,3.235560801
0.3300,3.232157594
0.3350,3.229415687
0.3400,3.227092329
0.3450,3.225150364
0.3500,3.223840287
0.3550,3.223076
0.3600,3.222698141
0.3650,3.222693548
0.3700,3.223129359
0.3750,3.223866743
0.3800,3.224876721
0.3850,3.22629826
0.3900,3.227883283
0.3950,3.229907105
0.4000,3.232478145
0.4050,3.235313995
0.4100,3.238735738
0.4150,3.242682322
0.4200,3.246936784
0.4250,3.251746228
0.4300,3.256857727
0.4350,3.262608461
0.4400,3.26879455
0.4450,3.275009713
0.4500,3.281784445
0.4550,3.289084375
0.4600,3.296480175
0.4650,3.3043889
0.4700,3.312458254
0.4750,3.320862254
0.4800,3.329434739
0.4850,3.338245933
0.4900,3.347226639
0.4950,3.35653672
0.5000,3.366361031
0.5050,3.376590406
0.5100,3.387410157
0.5150,3.398925253
0.5200,3.411190751
0.5250,3.423979778
0.5300,3.437560819
0.5350,3.451670504
0.5400,3.466694724
0.5450,3.482368067
0.5500,3.498792093
0.5550,3.516114224
0.5600,3.534060512
0.5650,3.552989794
0.5700,3.572814002
0.5750,3.593299857
0.5800,3.614842744
0.5850,3.637345223
0.5900,3.660907127
0.5950,3.685387711
0.6000,3.711058877
0.6050,3.737675162
0.6100,3.76539498
0.6150,3.794161802
0.6200,3.824226753
0.6250,3.855655351
0.6300,3.888403033
0.6350,3.92253469
0.6400,3.958138069
0.6450,3.995312669
0.6500,4.033965474
0.6550,4.074082505
0.6600,4.115769954
0.6650,4.159041006
0.6700,4.20396966
0.6750,4.250679041
0.6800,4.299030332
0.6850,4.348957229
0.6900,4.400879518
0.6950,4.454432174
0.7000,4.509507795
0.7050,4.566141643
0.7100,4.624463028
0.7150,4.684423494
0.7200,4.746014457
0.7250,4.809469835
0.7300,4.874913727
0.7350,4.941979294
0.7400,5.010903742
0.7450,5.081798683
0.7500,5.154523182
0.7550,5.229270775
0.7600,5.306396984
0.7650,5.385852842
0.7700,5.467977061
0.7750,5.552539025
0.7800,5.639744472
0.7850,5.729815238
0.7900,5.822878867
0.7950,5.91885121
0.8000,6.017771731
0.8050,6.119760327
0.8100,6.22437892
0.8150,6.332022363
0.8200,6.442538503
0.8250,6.556462504
0.8300,6.673640467
0.8350,6.794075364
0.8400,6.917840852
0.8450,7.045040219
0.8500,7.1756103
0.8550,7.309582343
0.8600,7.447176412
0.8650,7.588274517
0.8700,7.732844256
0.8750,7.881190079
0.8800,8.033089503
0.8850,8.188763797
0.8900,8.34817424
0.8950,8.511356105
0.9000,8.678329044
0.9050,8.849100285
0.9100,9.023646641
0.9150,9.202068403
0.9200,9.384198545
0.9250,9.569823599
0.9300,9.759071344
0.9350,9.951797858
0.9400,10.1477963
0.9450,10.34700394
0.9500,10.54934148
0.9550,10.75461394
0.9600,10.96266169
0.9650,11.1734727
0.9700,11.38661998
0.9750,11.60203587
0.9800,11.81934376
0.9850,12.03864594
0.9900,12.25963139
0.9950,12.48222871
1.0000,12.70654739
1.0050,12.93236255
1.0100,13.15948844
1.0150,13.38799294
1.0200,13.61799709
1.0250,13.84923053
1.0300,14.08171868
1.0350,14.31541502
1.0400,14.55047048
1.0450,14.78701562
1.0500,15.0247884
1.0550,15.26393147
1.0600,15.50431237
1.0650,15.74585782
1.0700,15.98850775
1.0750,16.23228189
1.0800,16.47712087
1.0850,16.72285134
1.0900,16.96937499
1.0950,17.21665866
1.1000,17.46459989
1.1050,17.71307074
1.1100,17.96219397
1.1150,18.21168542
1.1200,18.4614621
1.1250,18.71107704
1.1300,18.96068753
1.1350,19.2102378
1.1400,19.45937871
1.1450,19.70844871
1.1500,19.95712921
1.1550,20.20554095
1.1600,20.45357282
1.1650,20.70136028
1.1700,20.94898765
1.1750,21.19651688
1.1800,21.44389902
1.1850,21.69112864
1.1900,21.93840145
1.1950,22.18585454
1.2000,22.43360355
1.2050,22.68184001
1.2100,22.93015697
1.2150,23.17893868
1.2200,23.42800748
1.2250,23.67747866
1.2300,23.92726487
1.2350,24.17759296
1.2400,24.42842747
1.2450,24.67989409
1.2500,24.93201474
1.2550,25.18507268
1.2600,25.43913774
1.2650,25.69424162
1.2700,25.95077798
1.2750,26.20873686
1.2800,26.46843008
1.2850,26.72981304
1.2900,26.99316631
1.2950,27.25850729
1.3000,27.52579799
1.3050,27.79509152
1.3100,28.0662133
1.3150,28.33922562
1.3200,28.61378067
1.3250,28.89004522
1.3300,29.16772629
1.3350,29.44682021
1.3400,29.7271798
1.3450,30.00853492
1.3500,30.29094935
1.3550,30.57431211
1.3600,30.85864743
1.3650,31.14387408
1.3700,31.42984613
1.3750,31.71685736
1.3800,32.00525616
1.3850,32.2946405
1.3900,32.58545137
1.3950,32.87749938
1.4000,33.17085468
1.4050,33.46544622
1.4100,33.7614628
1.4150,34.05885453
1.4200,34.3575803
1.4250,34.65780843
1.4300,34.95943842
1.4350,35.26243914
1.4400,35.56695021
1.4450,35.87250923
1.4500,36.17943938
1.4550,36.48730537
1.4600,36.79609681
1.4650,37.10545671
1.4700,37.41527268
1.4750,37.72533086
1.4800,38.03585632
1.4850,38.3467735
1.4900,38.65782869
1.4950,38.96884429
1.5000,39.2796021
1.5050,39.59010678
1.5100,39.90063135
1.5150,40.210935
1.5200,40.5212712
1.5250,40.83156121
1.5300,41.14184879
1.5350,41.45190434
1.5400,41.76188721
1.5450,42.0716541
1.5500,42.38136198
1.5550,42.69085498
1.5600,42.99995739
1.5650,43.30870449
1.5700,43.61666002
1.5750,43.92389964
1.5800,44.23038411
1.5850,44.53594276
1.5900,44.84031694
1.5950,45.14357222
1.6000,45.4454257
1.6050,45.74609072
1.6100,46.04570028
1.6150,46.34392932
1.6200,46.64100782
1.6250,46.93678004
1.6300,47.23165019
1.6350,47.52541691
1.6400,47.81791857
1.6450,48.10947517
1.6500,48.400155
1.6550,48.69005159
1.6600,48.97908426
1.6650,49.2674644
1.6700,49.55519111
1.6750,49.84230509
1.6800,50.12832962
1.6850,50.41365934
1.6900,50.69789688
1.6950,50.98133845
1.7000,51.26409272
1.7050,51.54606971
1.7100,51.82754859
1.7150,52.10807455
1.7200,52.38797558
1.7250,52.66702281
1.7300,52.9451742
1.7350,53.22267049
1.7400,53.49938165
1.7450,53.77536532
1.7500,54.05060359
1.7550,54.32519279
1.7600,54.59940922
1.7650,54.87319413
1.7700,55.14669181
1.7750,55.4201791
1.7800,55.69339367
1.7850,55.9668053
1.7900,56.24038009
1.7950,56.51430454
1.8000,56.78869325
1.8050,57.06352578
1.8100,57.33892095
1.8150,57.61467679
1.8200,57.89065891
1.8250,58.16709957
1.8300,58.44386334
1.8350,58.72100639
1.8400,58.99857648
1.8450,59.2762905
1.8500,59.55424318
1.8550,59.83228871
1.8600,60.11055743
1.8650,60.38865091
1.8700,60.66671666
1.8750,60.94460904
1.8800,61.22226521
1.8850,61.49968058
1.8900,61.77669869
1.8950,62.05317272
1.9000,62.32923241
1.9050,62.60449016
1.9100,62.87916178
1.9150,63.15319402
1.9200,63.42659602
1.9250,63.69928769
1.9300,63.97101718
1.9350,64.24223938
1.9400,64.51259332
1.9450,64.78222905
1.9500,65.05099254
1.9550,65.31891497
1.9600,65.58600325
1.9650,65.85207885
1.9700,66.11748343
1.9750,66.38216254
1.9800,66.64614887
1.9850,66.90986596
1.9900,67.17336508
1.9950,67.43652619
2.0000,67.69904867
2.0050,67.9611159
2.0100,68.22228594
2.0150,68.48291856
2.0200,68.74272286
2.0250,69.00182751
2.0300,69.26019233
2.0350,69.51784576
2.0400,69.77492221
2.0450,70.03115496
2.0500,70.28672708
2.0550,70.54173054
2.0600,70.79588106
2.0650,71.04962828
2.0700,71.30312346
2.0750,71.55609724
2.0800,71.80875211
2.0850,72.06091808
2.0900,72.31289088
2.0950,72.5644697
2.1000,72.81594154
2.1050,73.06747164
2.1100,73.31898994
2.1150,73.57079704
2.1200,73.82312534
2.1250,74.07603818
2.1300,74.3295231
2.1350,74.58336882
2.1400,74.83771742
2.1450,75.09253416
2.1500,75.34779974
2.1550,75.60330177
2.1600,75.85905802
2.1650,76.11538742
2.1700,76.37190054
2.1750,76.62884816
2.1800,76.88621168
2.1850,77.14386665
2.1900,77.40179184
2.1950,77.66016498
2.2000,77.91898939
2.2050,78.1786334
2.2100,78.43849932
2.2150,78.69902998
2.2200,78.96004664
2.2250,79.22148871
2.2300,79.4833961
2.2350,79.74568123
2.2400,80.00826937
2.2450,80.2711704
2.2500,80.53418438
2.2550,80.79712782
2.2600,81.06029441
2.2650,81.32370946
2.2700,81.5870824
2.2750,81.85037694
2.2800,82.11364006
2.2850,82.37634749
2.2900,82.63859002
2.2950,82.9003298
2.3000,83.16161155
2.3050,83.42252538
2.3100,83.68297485
2.3150,83.94277748
2.3200,84.2022999
2.3250,84.46136971
2.3300,84.72037745
2.3350,84.97934139
2.3400,85.23811568
2.3450,85.49698077
2.3500,85.75602759
2.3550,86.01512011
2.3600,86.27462169
2.3650,86.53405979
2.3700,86.79357612
2.3750,87.05330964
2.3800,87.31352849
2.3850,87.57356021
2.3900,87.83357666
2.3950,88.09421167
2.4000,88.35539991
2.4050,88.61676621
2.4100,88.87831248
2.4150,89.14001807
2.4200,89.40203172
2.4250,89.66421051
2.4300,89.92678326
2.4350,90.18963695
2.4400,90.45252009
2.4450,90.71585685
2.4500,90.97915947
2.4550,91.24279213
2.4600,91.50675814
2.4650,91.77091198
2.4700,92.03556899
2.4750,92.30024677
2.4800,92.56470458
2.4850,92.8289883
2.4900,93.0933575
2.4950,93.3576314
2.5000,93.62140161
2.5050,93.88461255
2.5100,94.14747037
2.5150,94.40971277
2.5200,94.67137305
2.5250,94.93256781
2.5300,95.19307329
2.5350,95.4527509
2.5400,95.71170371
2.5450,95.97003503
2.5500,96.22803169
2.5550,96.48566975
2.5600,96.74274242
2.5650,96.99918367
2.5700,97.25495187
2.5750,97.50969807
2.5800,97.76341484
2.5850,98.01611456
2.5900,98.26753658
2.5950,98.5174361
2.6000,98.76626865
2.6050,99.01307548
2.6100,99.25824127
2.6150,99.50164256
2.6200,99.74289315
2.6250,99.98239909
2.6300,100.2197208
2.6350,100.454621
2.6400,100.6875078
2.6450,100.9185729
2.6500,101.1479047
2.6550,101.375515
2.6600,101.6013238
2.6650,101.8255391
2.6700,102.0482075
2.6750,102.2688899
2.6800,102.487876
2.6850,102.7060418
2.6900,102.9230588
2.6950,103.139202
2.7000,103.3544024
2.7050,103.568854
2.7100,103.7831337
2.7150,103.9969716
2.7200,104.2106148
2.7250,104.4243562
2.7300,104.6382849
2.7350,104.8527643
2.7400,105.0682625
2.7450,105.2848537
2.7500,105.502726
2.7550,105.7221228
2.7600,105.9429322
2.7650,106.1657742
2.7700,106.390406
2.7750,106.6173768
2.7800,106.8467226
2.7850,107.0779565
2.7900,107.311333
2.7950,107.5464265
2.8000,107.7832349
2.8050,108.021459
2.8100,108.2610549
2.8150,108.5016238
2.8200,108.7426974
2.8250,108.9835943
2.8300,109.2241716
2.8350,109.46421
2.8400,109.7034141
2.8450,109.9413993
2.8500,110.17818
2.8550,110.4136426
2.8600,110.6473108
2.8650,110.8794152
2.8700,111.1097491
2.8750,111.3384177
2.8800,111.5652056
2.8850,111.7902102
2.8900,112.0135036
2.8950,112.2349594
2.9000,112.4543881
2.9050,112.6729753
2.9100,112.8896236
2.9150,113.1049983
2.9200,113.3190328
2.9250,113.5315174
2.9300,113.7428999
2.9350,113.9528597
2.9400,114.1612098
2.9450,114.367544
2.9500,114.5717399
2.9550,114.7741437
2.9600,114.9743272
2.9650,115.1725624
2.9700,115.3684051
2.9750,115.5625972
2.9800,115.7547926
2.9850,115.9450246
2.9900,116.1333289
2.9950,116.3191968
3.0000,116.5030559
3.0050,116.6851509
3.0100,116.8650626
3.0150,117.0429088
3.0200,117.2187298
3.0250,117.3922687
3.0300,117.5633429
3.0350,117.7324272
3.0400,117.8990132
3.0450,118.0631216
3.0500,118.2249291
3.0550,118.3843596
3.0600,118.5413394
3.0650,118.6957481
3.0700,118.8477904
3.0750,118.9971627
3.0800,119.1440829
3.0850,119.2888127
3.0900,119.4311107
3.0950,119.5710677
3.1000,119.7089341
3.1050,119.8448434
3.1100,119.9782375
3.1150,120.1097775
3.1200,120.2395252
3.1250,120.3677041
3.1300,120.4945327
3.1350,120.6200376
3.1400,120.7442022
3.1450,120.8672496
3.1500,120.9889308
3.1550,121.1093267
3.1600,121.2283092
3.1650,121.3460147
3.1700,121.4627909
3.1750,121.5785678
3.1800,121.6934841
3.1850,121.8078285
3.1900,121.9212916
3.1950,122.0343484
3.2000,122.1465299
3.2050,122.2577511
3.2100,122.3688349
3.2150,122.4797478
3.2200,122.5902371
3.2250,122.7001445
3.2300,122.8092682
3.2350,122.9176714
3.2400,123.0252045
3.2450,123.1321982
3.2500,123.2381761
3.2550,123.3429008
3.2600,123.4466381
3.2650,123.5492379
3.2700,123.6505274
3.2750,123.7500291
3.2800,123.8480756
3.2850,123.9443271
3.2900,124.039068
3.2950,124.1324268
3.3000,124.2239932
3.3050,124.3142759
3.3100,124.4031359
3.3150,124.4911997
3.3200,124.578476
3.3250,124.6650834
3.3300,124.7516435
3.3350,124.8377882
3.3400,124.9239862
3.3450,125.0103787
3.3500,125.0969672
3.3550,125.1836862
3.3600,125.2712628
3.3650,125.3593033
3.3700,125.4479702
3.3750,125.5372438
3.3800,125.6271735
3.3850,125.7178562
3.3900,125.8091085
3.3950,125.9008962
3.4000,125.9931851
3.4050,126.0857774
3.4100,126.1792781
3.4150,126.272776
3.4200,126.3670056
3.4250,126.4618501
3.4300,126.557178
3.4350,126.6532249
3.4400,126.7500971
3.4450,126.8472484
3.4500,126.9446331
3.4550,127.0423223
3.4600,127.140659
3.4650,127.2389004
3.4700,127.3370397
3.4750,127.4347768
3.4800,127.5325693
3.4850,127.6295068
3.4900,127.7258898
3.4950,127.8210945
3.5000,127.9154885
3.5050,128.0085382
3.5100,128.0999178
3.5150,128.1892216
3.5200,128.2764301
3.5250,128.361977
3.5300,128.4453373
3.5350,128.5264675
3.5400,128.6056096
3.5450,128.6825107
3.5500,128.7578571
3.5550,128.8315615
3.5600,128.9040009
3.5650,128.9747308
3.5700,129.0442196
3.5750,129.1127543
3.5800,129.1802631
3.5850,129.247362
3.5900,129.3141319
3.5950,129.3806963
3.6000,129.4474905
3.6050,129.5143089
3.6100,129.581461
3.6150,129.648962
3.6200,129.7167583
3.6250,129.7850224
3.6300,129.8536406
3.6350,129.9226317
3.6400,129.991924
3.6450,130.0618312
3.6500,130.132451
3.6550,130.2040544
3.6600,130.2763869
3.6650,130.3493528
3.6700,130.4230214
3.6750,130.4973197
3.6800,130.5723097
3.6850,130.6478641
3.6900,130.7241963
3.6950,130.8014275
3.7000,130.8794915
3.7050,130.9584076
3.7100,131.0378013
3.7150,131.1176802
3.7200,131.1976512
3.7250,131.2775882
3.7300,131.3571033
3.7350,131.4359006
3.7400,131.5143987
3.7450,131.5923421
3.7500,131.6697555
3.7550,131.7460631
3.7600,131.8209507
3.7650,131.8941633
3.7700,131.965438
3.7750,132.0351249
3.7800,132.1025881
3.7850,132.1680601
3.7900,132.2312273
3.7950,132.2924188
3.8000,132.3510443
3.8050,132.4076124
3.8100,132.4620805
3.8150,132.5145325
3.8200,132.565114
3.8250,132.6135703
3.8300,132.6600808
3.8350,132.7047642
3.8400,132.7477103
3.8450,132.7892692
3.8500,132.8293284
3.8550,132.8678585
3.8600,132.9049766
3.8650,132.9410197
3.8700,132.9761208
3.8750,133.0100113
3.8800,133.0428684
3.8850,133.0747226
3.8900,133.1058473
3.8950,133.136186
3.9000,133.1662112
3.9050,133.1959007
3.9100,133.2257528
3.9150,133.2556018
3.9200,133.2854768
3.9250,133.3159215
3.9300,133.3470033
3.9350,133.3792619
3.9400,133.4129099
3.9450,133.447704
3.9500,133.4842168
3.9550,133.5218897
3.9600,133.5612339
3.9650,133.6025562
3.9700,133.6460824
3.9750,133.6918981
3.9800,133.7399045
3.9850,133.7904941
3.9900,133.8432376
3.9950,133.8982823
4.0000,133.955594
4.0050,134.0151189
4.0100,134.0767694
4.0150,134.1408411
4.0200,134.2071169
4.0250,134.2754599
4.0300,134.345692
4.0350,134.4178934
4.0400,134.491185
4.0450,134.565677
4.0500,134.6413667
4.0550,134.717867
4.0600,134.7954561
4.0650,134.8741151
4.0700,134.9535625
4.0750,135.0330776
4.0800,135.1128526
4.0850,135.1922712
4.0900,135.2713644
4.0950,135.349809
4.1000,135.4271065
4.1050,135.5029507
4.1100,135.5771764
4.1150,135.6494604
4.1200,135.7194774
4.1250,135.7871544
4.1300,135.8522367
4.1350,135.9144729
4.1400,135.9734204
4.1450,136.0290812
4.1500,136.0806996
4.1550,136.1284189
4.1600,136.1719531
4.1650,136.21111
4.1700,136.2458143
4.1750,136.2763615
4.1800,136.3026415
4.1850,136.3246624
4.1900,136.3423203
4.1950,136.3560481
4.2000,136.3654775
4.2050,136.3707423
4.2100,136.3718211
4.2150,136.3690227
4.2200,136.3623327
4.2250,136.3520502
4.2300,136.3382299
4.2350,136.3203592
4.2400,136.2987429
4.2450,136.273686
4.2500,136.2444669
4.2550,136.2121268
4.2600,136.1760327
4.2650,136.136367
4.2700,136.0928888
4.2750,136.0461582
4.2800,135.9956292
4.2850,135.9414479
4.2900,135.8839879
4.2950,135.8233036
4.3000,135.7590929
4.3050,135.6914565
4.3100,135.6207488
4.3150,135.5469799
4.3200,135.46972
4.3250,135.3894268
4.3300,135.306333
4.3350,135.219638
4.3400,135.1297596
4.3450,135.036901
4.3500,134.9408237
4.3550,134.8417627
4.3600,134.7392259
4.3650,134.6332963
4.3700,134.523888
4.3750,134.4114213
4.3800,134.2955332
4.3850,134.1766773
4.3900,134.0543813
4.3950,133.9287552
4.4000,133.8002442
4.4050,133.6684989
4.4100,133.5335901
4.4150,133.3955548
4.4200,133.2545647
4.4250,133.1104408
4.4300,132.9637072
4.4350,132.8149044
4.4400,132.6638092
4.4450,132.5103307
4.4500,132.3546913
4.4550,132.1967993
4.4600,132.0365122
4.4650,131.8738206
4.4700,131.7092145
4.4750,131.5426338
4.4800,131.3741275
4.4850,131.2037071
4.4900,131.0314704
4.4950,130.8572487
4.5000,130.6812887
4.5050,130.5037614
4.5100,130.3247098
4.5150,130.1444024
4.5200,129.9629031
4.5250,129.7796386
4.5300,129.5950654
4.5350,129.4096161
4.5400,129.2232115
4.5450,129.0352768
4.5500,128.8462883
4.5550,128.6561425
4.5600,128.4652916
4.5650,128.2736756
4.5700,128.0811936
4.5750,127.8873416
4.5800,127.693048
4.5850,127.498028
4.5900,127.3019478
4.5950,127.1050929
4.6000,126.9078418
4.6050,126.7100902
4.6100,126.5120724
4.6150,126.3134755
4.6200,126.1148519
4.6250,125.9159802
4.6300,125.7170467
4.6350,125.5185957
4.6400,125.3204621
4.6450,125.1226932
4.6500,124.9248652
4.6550,124.7272215
4.6600,124.5296037
4.6650,124.3319659
4.6700,124.1340811
4.6750,123.9359244
4.6800,123.7378153
4.6850,123.539134
4.6900,123.3401985
4.6950,123.1411812
4.7000,122.9416519
4.7050,122.7419384
4.7100,122.5415485
4.7150,122.3404751
4.7200,122.1385402
4.7250,121.9358789
4.7300,121.732003
4.7350,121.5266838
4.7400,121.3204513
4.7450,121.1129021
4.7500,120.9039552
4.7550,120.6937894
4.7600,120.4824985
4.7650,120.2699584
4.7700,120.0557338
4.7750,119.8400013
4.7800,119.6224471
4.7850,119.4034125
4.7900,119.1825574
4.7950,118.9597389
4.8000,118.735356
4.8050,118.5090264
4.8100,118.2804028
4.8150,118.0495363
4.8200,117.8161851
4.8250,117.5807228
4.8300,117.3427219
4.8350,117.1020575
4.8400,116.8586432
4.8450,116.6128628
4.8500,116.3644407
4.8550,116.1128609
4.8600,115.85829
4.8650,115.6007006
4.8700,115.3398838
4.8750,115.0758335
4.8800,114.8080322
4.8850,114.5364784
4.8900,114.2615896
4.8950,113.9826585
4.9000,113.6994796
4.9050,113.4119061
4.9100,113.1198002
4.9150,112.8234411
4.9200,112.5227384
4.9250,112.217402
4.9300,111.907138
4.9350,111.5921206
4.9400,111.27231
4.9450,110.9476797
4.9500,110.6185736
4.9550,110.2846931
4.9600,109.9461271
4.9650,109.6028043
4.9700,109.2552303
4.9750,108.903178
4.9800,108.5467077
4.9850,108.1857265
4.9900,107.8205709
4.9950,107.4510413
5.0000,107.0777026
5.0050,106.7001742
5.0100,106.3189196
5.0150,105.9338052
5.0200,105.5453563
5.0250,105.1534954
5.0300,104.7586616
5.0350,104.3602087
5.0400,103.9581993
5.0450,103.5525632
5.0500,103.1440841
5.0550,102.7331185
5.0600,102.3197541
5.0650,101.9043586
5.0700,101.4868181
5.0750,101.0672086
5.0800,100.6461689
5.0850,100.2233767
5.0900,99.79915102
5.0950,99.37329755
5.1000,98.94593577
5.1050,98.51686085
5.1100,98.08691098
5.1150,97.6555335
5.1200,97.22351655
5.1250,96.79083186
5.1300,96.35734269
5.1350,95.92330637
5.1400,95.48837153
5.1450,95.05247483
5.1500,94.61597896
5.1550,94.17909414
5.1600,93.74130724
5.1650,93.30257279
5.1700,92.86323377
5.1750,92.42346962
5.1800,91.98363264
5.1850,91.54364774
5.1900,91.10366835
5.1950,90.66402173
5.2000,90.22468933
5.2050,89.78621055
5.2100,89.34838205
5.2150,88.9112138
5.2200,88.47449753
5.2250,88.03874066
5.2300,87.60394367
5.2350,87.17021924
5.2400,86.73781126
5.2450,86.30689472
5.2500,85.87774409
