type,name,time_units,begin_time,frequency,count,units
signal,"Noraxon MyoMotion-Segments-Upper arm RT-Course","s",0.0000,200,5088,"deg"

time,value
0.0000,3.206970829
0.0050,3.215874236
0.0100,3.224777191
0.0150,3.233679695
0.0200,3.24446595
0.0250,3.257281956
0.0300,3.272243344
0.0350,3.289428547
0.0400,3.308873493
0.0450,3.330567832
0.0500,3.354453032
0.0550,3.380421868
0.0600,3.408319115
0.0650,3.437944057
0.0700,3.469054769
0.0750,3.501373964
0.0800,3.53459653
0.0850,3.568398044
0.0900,3.602443357
0.0950,3.636394627
0.1000,3.669918802
0.1050,3.702695015
0.1100,3.734421312
0.1150,3.764819805
0.1200,3.793640395
0.1250,3.82066357
0.1300,3.845702529
0.1350,3.868604634
0.1400,3.88925229
0.1450,3.907563627
0.1500,3.923493696
0.1550,3.952329655
0.1600,3.97873009
0.1650,4.002936943
0.1700,4.025106463
0.1750,4.04520847
0.1800,4.063395746
0.1850,4.07979703
0.1900,4.094680777
0.1950,4.108075651
0.2000,4.120204048
0.2050,4.13125186
0.2100,4.141208916
0.2150,4.15012024
0.2200,4.158098368
0.2250,4.165019633
0.2300,4.170835521
0.2350,4.175630849
0.2400,4.179378022
0.2450,4.182134099
0.2500,4.183840081
0.2550,4.184591093
0.2600,4.184430129
0.2650,4.183358424
0.2700,4.18167181
0.2750,4.179393973
0.2800,4.17677235
0.2850,4.173851124
0.2900,4.17096725
0.2950,4.168274084
0.3000,4.165859615
0.3050,4.163959259
0.3100,4.162608648
0.3150,4.162026691
0.3200,4.161890442
0.3250,4.162601902
0.3300,4.163903014
0.3350,4.165872001
0.3400,4.168300089
0.3450,4.171140693
0.3500,4.174237722
0.3550,4.17747801
0.3600,4.180877492
0.3650,4.184178132
0.3700,4.187517161
0.3750,4.190880616
0.3800,4.194124883
0.3850,4.197459566
0.3900,4.201071676
0.3950,4.20497881
0.4000,4.209234252
0.4050,4.213995278
0.4100,4.219541239
0.4150,4.226077194
0.4200,4.23383577
0.4250,4.242645976
0.4300,4.252782814
0.4350,4.264165838
0.4400,4.276988282
0.4450,4.291011001
0.4500,4.306247747
0.4550,4.322356754
0.4600,4.339379074
0.4650,4.357017804
0.4700,4.375210129
0.4750,4.393814235
0.4800,4.412777079
0.4850,4.431845316
0.4900,4.451036218
0.4950,4.470207687
0.5000,4.489236433
0.5050,4.508212179
0.5100,4.526990869
0.5150,4.545790934
0.5200,4.564441666
0.5250,4.582921319
0.5300,4.6012202
0.5350,4.619158723
0.5400,4.636637502
0.5450,4.65368155
0.5500,4.670018085
0.5550,4.685633267
0.5600,4.700490429
0.5650,4.714670624
0.5700,4.727844402
0.5750,4.740004505
0.5800,4.750998289
0.5850,4.760995896
0.5900,4.769661238
0.5950,4.776953749
0.6000,4.782828624
0.6050,4.787116564
0.6100,4.78990588
0.6150,4.791193654
0.6200,4.791233828
0.6250,4.789841592
0.6300,4.787329625
0.6350,4.783761462
0.6400,4.779072505
0.6450,4.773392933
0.6500,4.766791181
0.6550,4.759219998
0.6600,4.750728679
0.6650,4.741352037
0.6700,4.731009579
0.6750,4.719816626
0.6800,4.707755765
0.6850,4.694647483
0.6900,4.68038689
0.6950,4.665182967
0.7000,4.649020166
0.7050,4.632007616
0.7100,4.614047022
0.7150,4.59508358
0.7200,4.574977949
0.7250,4.553792599
0.7300,4.531539379
0.7350,4.508221456
0.7400,4.48388606
0.7450,4.458486683
0.7500,4.432043916
0.7550,4.404693182
0.7600,4.376202017
0.7650,4.346620085
0.7700,4.315754148
0.7750,4.283669869
0.7800,4.250170573
0.7850,4.215162532
0.7900,4.178609163
0.7950,4.14025356
0.8000,4.099976806
0.8050,4.057455581
0.8100,4.012600368
0.8150,3.965184059
0.8200,3.915062664
0.8250,3.86223207
0.8300,3.806594977
0.8350,3.748283487
0.8400,3.687185984
0.8450,3.623228366
0.8500,3.556444392
0.8550,3.486725502
0.8600,3.414148455
0.8650,3.338507499
0.8700,3.259995694
0.8750,3.178523807
0.8800,3.094369622
0.8850,3.007397752
0.8900,2.917870865
0.8950,2.825934631
0.9000,2.731882742
0.9050,2.635937827
0.9100,2.53823779
0.9150,2.438735944
0.9200,2.337605696
0.9250,2.23505755
0.9300,2.131073929
0.9350,2.025748175
0.9400,1.919162156
0.9450,1.811361413
0.9500,1.702492104
0.9550,1.592543413
0.9600,1.4815031
0.9650,1.369415362
0.9700,1.25653264
0.9750,1.142793219
0.9800,1.028447462
0.9850,0.9136735865
0.9900,0.798600735
0.9950,0.6833187127
1.0000,0.5678369158
1.0050,0.4522583426
1.0100,0.3366483235
1.0150,0.2211160509
1.0200,0.1057050996
1.0250,-0.009601191885
1.0300,-0.1247952852
1.0350,-0.239779766
1.0400,-0.3548744697
1.0450,-0.4698382501
1.0500,-0.5847919969
1.0550,-0.6997431058
1.0600,-0.8146641506
1.0650,-0.9294387456
1.0700,-1.0441559
1.0750,-1.158843259
1.0800,-1.273498076
1.0850,-1.388105921
1.0900,-1.502791945
1.0950,-1.617285966
1.1000,-1.731689252
1.1050,-1.845788575
1.1100,-1.959359815
1.1150,-2.072414717
1.1200,-2.184719628
1.1250,-2.296019953
1.1300,-2.406190315
1.1350,-2.515434261
1.1400,-2.623604627
1.1450,-2.730777675
1.1500,-2.836824522
1.1550,-2.941987024
1.1600,-3.046252519
1.1650,-3.149626701
1.1700,-3.252341462
1.1750,-3.354301536
1.1800,-3.455516867
1.1850,-3.555981243
1.1900,-3.655442356
1.1950,-3.75392679
1.2000,-3.851618467
1.2050,-3.948404649
1.2100,-4.044066987
1.2150,-4.138689344
1.2200,-4.232080609
1.2250,-4.324405556
1.2300,-4.415810917
1.2350,-4.506319491
1.2400,-4.596016651
1.2450,-4.684990457
1.2500,-4.773397449
1.2550,-4.861424207
1.2600,-4.949002998
1.2650,-5.036142429
1.2700,-5.123211354
1.2750,-5.210194047
1.2800,-5.297208971
1.2850,-5.38430366
1.2900,-5.471529404
1.2950,-5.558913506
1.3000,-5.646347777
1.3050,-5.733646548
1.3100,-5.820718766
1.3150,-5.907376185
1.3200,-5.993479068
1.3250,-6.078813886
1.3300,-6.163238474
1.3350,-6.246624339
1.3400,-6.328857475
1.3450,-6.409837149
1.3500,-6.489568091
1.3550,-6.56815085
1.3600,-6.645562398
1.3650,-6.721856834
1.3700,-6.797125609
1.3750,-6.871398713
1.3800,-6.944704561
1.3850,-7.016868019
1.3900,-7.087748823
1.3950,-7.15723806
1.4000,-7.225227068
1.4050,-7.29140219
1.4100,-7.355958215
1.4150,-7.418809284
1.4200,-7.479966966
1.4250,-7.539533111
1.4300,-7.597675883
1.4350,-7.654016918
1.4400,-7.708918041
1.4450,-7.762103233
1.4500,-7.813755497
1.4550,-7.863641178
1.4600,-7.911980011
1.4650,-7.958653645
1.4700,-8.003490833
1.4750,-8.046738223
1.4800,-8.088304502
1.4850,-8.128287372
1.4900,-8.166892928
1.4950,-8.204012413
1.5000,-8.239273918
1.5050,-8.273040179
1.5100,-8.305419892
1.5150,-8.336420345
1.5200,-8.366285876
1.5250,-8.395023233
1.5300,-8.422647863
1.5350,-8.449592298
1.5400,-8.475670161
1.5450,-8.501196839
1.5500,-8.52627486
1.5550,-8.550747528
1.5600,-8.574715405
1.5650,-8.598292941
1.5700,-8.621366829
1.5750,-8.644065165
1.5800,-8.666399387
1.5850,-8.68838937
1.5900,-8.709902708
1.5950,-8.730934013
1.6000,-8.751239649
1.6050,-8.771131003
1.6100,-8.790430016
1.6150,-8.809175148
1.6200,-8.82735676
1.6250,-8.84483531
1.6300,-8.861724618
1.6350,-8.877930421
1.6400,-8.893371551
1.6450,-8.908260818
1.6500,-8.922593992
1.6550,-8.936395523
1.6600,-8.949642629
1.6650,-8.962458189
1.6700,-8.974906343
1.6750,-8.986931648
1.6800,-8.99854169
1.6850,-9.009867259
1.6900,-9.021100059
1.6950,-9.032409952
1.7000,-9.043712299
1.7050,-9.055229884
1.7100,-9.066886204
1.7150,-9.07851323
1.7200,-9.0899799
1.7250,-9.101227288
1.7300,-9.111924182
1.7350,-9.122311715
1.7400,-9.131930289
1.7450,-9.141082448
1.7500,-9.14966938
1.7550,-9.15758636
1.7600,-9.164917008
1.7650,-9.171750108
1.7700,-9.178423105
1.7750,-9.184684122
1.7800,-9.190993761
1.7850,-9.197429513
1.7900,-9.204061076
1.7950,-9.211049044
1.8000,-9.218771669
1.8050,-9.227119
1.8100,-9.236078512
1.8150,-9.245512169
1.8200,-9.255704067
1.8250,-9.266697628
1.8300,-9.278437865
1.8350,-9.290670412
1.8400,-9.303473891
1.8450,-9.31669435
1.8500,-9.330120109
1.8550,-9.343748731
1.8600,-9.357469753
1.8650,-9.37113302
1.8700,-9.384547967
1.8750,-9.397796359
1.8800,-9.410685718
1.8850,-9.423090339
1.8900,-9.435026099
1.8950,-9.446334647
1.9000,-9.457283256
1.9050,-9.467564568
1.9100,-9.47730067
1.9150,-9.486389157
1.9200,-9.494822048
1.9250,-9.50265402
1.9300,-9.509792287
1.9350,-9.516325568
1.9400,-9.522104547
1.9450,-9.527223668
1.9500,-9.531533818
1.9550,-9.53513849
1.9600,-9.538070207
1.9650,-9.540569547
1.9700,-9.542581837
1.9750,-9.544110159
1.9800,-9.545146406
1.9850,-9.545632923
1.9900,-9.545441771
1.9950,-9.544404158
2.0000,-9.542462494
2.0050,-9.539538365
2.0100,-9.53553779
2.0150,-9.530716101
2.0200,-9.524938735
2.0250,-9.51833545
2.0300,-9.51104027
2.0350,-9.50304344
2.0400,-9.494602356
2.0450,-9.485497973
2.0500,-9.475892461
2.0550,-9.466022068
2.0600,-9.455846398
2.0650,-9.4454
2.0700,-9.434716652
2.0750,-9.423887008
2.0800,-9.412950956
2.0850,-9.401726121
2.0900,-9.39047745
2.0950,-9.379170956
2.1000,-9.367732967
2.1050,-9.356166601
2.1100,-9.34455224
2.1150,-9.33304702
2.1200,-9.321481354
2.1250,-9.309757049
2.1300,-9.29801308
2.1350,-9.286121648
2.1400,-9.274012863
2.1450,-9.261663113
2.1500,-9.249041441
2.1550,-9.236214124
2.1600,-9.223164831
2.1650,-9.210068466
2.1700,-9.196916637
2.1750,-9.183592051
2.1800,-9.17010332
2.1850,-9.156552227
2.1900,-9.142920703
2.1950,-9.129248948
2.2000,-9.115465805
2.2050,-9.101775134
2.2100,-9.088080048
2.2150,-9.074367966
2.2200,-9.060511111
2.2250,-9.046598921
2.2300,-9.032823357
2.2350,-9.018944405
2.2400,-9.005186078
2.2450,-8.991405444
2.2500,-8.977765995
2.2550,-8.964349297
2.2600,-8.951178531
2.2650,-8.937997296
2.2700,-8.924829321
2.2750,-8.911914994
2.2800,-8.898932209
2.2850,-8.885915492
2.2900,-8.872961982
2.2950,-8.860095567
2.3000,-8.847147561
2.3050,-8.834134472
2.3100,-8.820938054
2.3150,-8.807440714
2.3200,-8.793707334
2.3250,-8.77964432
2.3300,-8.76536575
2.3350,-8.750816627
2.3400,-8.7360929
2.3450,-8.721259211
2.3500,-8.706432041
2.3550,-8.691568629
2.3600,-8.676746616
2.3650,-8.662091317
2.3700,-8.647482146
2.3750,-8.633069913
2.3800,-8.618742581
2.3850,-8.604682744
2.3900,-8.59078052
2.3950,-8.577124099
2.4000,-8.56397617
2.4050,-8.551245446
2.4100,-8.538908028
2.4150,-8.526840143
2.4200,-8.514986089
2.4250,-8.503089828
2.4300,-8.491008537
2.4350,-8.478807192
2.4400,-8.466515136
2.4450,-8.454038937
2.4500,-8.441536753
2.4550,-8.428956637
2.4600,-8.416311243
2.4650,-8.403465654
2.4700,-8.390336612
2.4750,-8.376878204
2.4800,-8.363288986
2.4850,-8.349251765
2.4900,-8.334834172
2.4950,-8.319992022
2.5000,-8.304496574
2.5050,-8.288257926
2.5100,-8.271140721
2.5150,-8.253198073
2.5200,-8.234573618
2.5250,-8.215232366
2.5300,-8.194994074
2.5350,-8.174325413
2.5400,-8.152997596
2.5450,-8.131234026
2.5500,-8.109170475
2.5550,-8.086498512
2.5600,-8.063373545
2.5650,-8.039982977
2.5700,-8.016220758
2.5750,-7.991975256
2.5800,-7.967486387
2.5850,-7.942907742
2.5900,-7.91812573
2.5950,-7.892966772
2.6000,-7.867625276
2.6050,-7.842102308
2.6100,-7.816203193
2.6150,-7.789970734
2.6200,-7.763190202
2.6250,-7.736058299
2.6300,-7.708507123
2.6350,-7.680427767
2.6400,-7.651648224
2.6450,-7.622143501
2.6500,-7.591900562
2.6550,-7.560923344
2.6600,-7.529270661
2.6650,-7.496987056
2.6700,-7.464190339
2.6750,-7.430767526
2.6800,-7.396922513
2.6850,-7.362720666
2.6900,-7.328147515
2.6950,-7.293233267
2.7000,-7.257990519
2.7050,-7.222295122
2.7100,-7.186443299
2.7150,-7.150438547
2.7200,-7.114083646
2.7250,-7.077799008
2.7300,-7.041548958
2.7350,-7.005293043
2.7400,-6.969031047
2.7450,-6.932659702
2.7500,-6.896280372
2.7550,-6.859917535
2.7600,-6.82361873
2.7650,-6.787450595
2.7700,-6.75166914
2.7750,-6.716207968
2.7800,-6.680905003
2.7850,-6.646060444
2.7900,-6.611698083
2.7950,-6.577859251
2.8000,-6.544730853
2.8050,-6.512564337
2.8100,-6.481590307
2.8150,-6.45185837
2.8200,-6.423300153
2.8250,-6.395715646
2.8300,-6.369414952
2.8350,-6.344098183
2.8400,-6.319939529
2.8450,-6.296791812
2.8500,-6.274666856
2.8550,-6.253541992
2.8600,-6.23341316
2.8650,-6.214224793
2.8700,-6.195956388
2.8750,-6.178422516
2.8800,-6.161797105
2.8850,-6.14564293
2.8900,-6.130097326
2.8950,-6.115096071
2.9000,-6.100578446
2.9050,-6.086387904
2.9100,-6.072725815
2.9150,-6.059424822
2.9200,-6.046550337
2.9250,-6.033962857
2.9300,-6.021543965
2.9350,-6.009133342
2.9400,-5.996979161
2.9450,-5.984913721
2.9500,-5.97292954
2.9550,-5.96104829
2.9600,-5.949186377
2.9650,-5.937187812
2.9700,-5.925123772
2.9750,-5.912994736
2.9800,-5.900663186
2.9850,-5.887993873
2.9900,-5.875037587
2.9950,-5.861730055
3.0000,-5.847834904
3.0050,-5.83353748
3.0100,-5.81875654
3.0150,-5.803482158
3.0200,-5.787767683
3.0250,-5.771535499
3.0300,-5.754648986
3.0350,-5.737133207
3.0400,-5.718990481
3.0450,-5.700448647
3.0500,-5.681349388
3.0550,-5.661574062
3.0600,-5.641330209
3.0650,-5.620441661
3.0700,-5.598966349
3.0750,-5.577064437
3.0800,-5.554873957
3.0850,-5.532454096
3.0900,-5.509750348
3.0950,-5.486961355
3.1000,-5.464090753
3.1050,-5.441018536
3.1100,-5.417758926
3.1150,-5.394339981
3.1200,-5.370926687
3.1250,-5.347927337
3.1300,-5.324925789
3.1350,-5.302062371
3.1400,-5.279399148
3.1450,-5.257005424
3.1500,-5.234712977
3.1550,-5.212751485
3.1600,-5.191081928
3.1650,-5.169599896
3.1700,-5.148557213
3.1750,-5.127983804
3.1800,-5.107823157
3.1850,-5.088114134
3.1900,-5.06877339
3.1950,-5.049858282
3.2000,-5.031263279
3.2050,-5.012993238
3.2100,-4.994791671
3.2150,-4.976458029
3.2200,-4.95807158
3.2250,-4.939689032
3.2300,-4.921074515
3.2350,-4.902423623
3.2400,-4.883475061
3.2450,-4.864501283
3.2500,-4.845364292
3.2550,-4.826099605
3.2600,-4.806814786
3.2650,-4.787576605
3.2700,-4.768332543
3.2750,-4.749346668
3.2800,-4.730716877
3.2850,-4.712391093
3.2900,-4.694420038
3.2950,-4.676728587
3.3000,-4.659322634
3.3050,-4.642090914
3.3100,-4.625007385
3.3150,-4.607985474
3.3200,-4.591103979
3.3250,-4.574141506
3.3300,-4.55704111
3.3350,-4.539880231
3.3400,-4.52266496
3.3450,-4.505088933
3.3500,-4.48705558
3.3550,-4.468765707
3.3600,-4.450073629
3.3650,-4.431013343
3.3700,-4.411569206
3.3750,-4.391755741
3.3800,-4.371549428
3.3850,-4.35101055
3.3900,-4.330090423
3.3950,-4.308833826
3.4000,-4.28739713
3.4050,-4.265757213
3.4100,-4.243818315
3.4150,-4.221833505
3.4200,-4.199688706
3.4250,-4.177200939
3.4300,-4.154560897
3.4350,-4.13173364
3.4400,-4.108605517
3.4450,-4.085034593
3.4500,-4.061029652
3.4550,-4.036520828
3.4600,-4.011466421
3.4650,-3.985942043
3.4700,-3.959617842
3.4750,-3.932735296
3.4800,-3.905245042
3.4850,-3.877409668
3.4900,-3.849142826
3.4950,-3.820564768
3.5000,-3.791672166
3.5050,-3.762677708
3.5100,-3.73366107
3.5150,-3.704883103
3.5200,-3.676405702
3.5250,-3.647985457
3.5300,-3.619933254
3.5350,-3.592368552
3.5400,-3.565382418
3.5450,-3.538903478
3.5500,-3.512829523
3.5550,-3.487512821
3.5600,-3.462938312
3.5650,-3.439373507
3.5700,-3.416757342
3.5750,-3.395156461
3.5800,-3.374448658
3.5850,-3.354848567
3.5900,-3.336481821
3.5950,-3.319459407
3.6000,-3.30394413
3.6050,-3.290056485
3.6100,-3.277659389
3.6150,-3.266740878
3.6200,-3.257304788
3.6250,-3.249347973
3.6300,-3.243082108
3.6350,-3.238524881
3.6400,-3.235331533
3.6450,-3.233759978
3.6500,-3.233799676
3.6550,-3.235144818
3.6600,-3.237363938
3.6650,-3.240515944
3.6700,-3.244226285
3.6750,-3.248230622
3.6800,-3.252210207
3.6850,-3.256097598
3.6900,-3.259652629
3.6950,-3.262593663
3.7000,-3.264624328
3.7050,-3.265590093
3.7100,-3.265324538
3.7150,-3.263386394
3.7200,-3.259579502
3.7250,-3.253427128
3.7300,-3.244789534
3.7350,-3.233078873
3.7400,-3.218049408
3.7450,-3.199608952
3.7500,-3.177516886
3.7550,-3.151695203
3.7600,-3.122057287
3.7650,-3.088568989
3.7700,-3.0512355
3.7750,-3.009987338
3.7800,-2.964800057
3.7850,-2.915610651
3.7900,-2.862475945
3.7950,-2.805607474
3.8000,-2.745260351
3.8050,-2.681507479
3.8100,-2.614543902
3.8150,-2.544593458
3.8200,-2.47191827
3.8250,-2.396882585
3.8300,-2.319864609
3.8350,-2.241192945
3.8400,-2.161175496
3.8450,-2.080275357
3.8500,-1.998894624
3.8550,-1.917083331
3.8600,-1.835155497
3.8650,-1.753188604
3.8700,-1.671637544
3.8750,-1.590829717
3.8800,-1.511105416
3.8850,-1.432678519
3.8900,-1.355725365
3.8950,-1.280525608
3.9000,-1.206995818
3.9050,-1.135360081
3.9100,-1.065873677
3.9150,-0.9988638395
3.9200,-0.9344293071
3.9250,-0.8728094667
3.9300,-0.8139946428
3.9350,-0.7577432291
3.9400,-0.7042718118
3.9450,-0.6533395915
3.9500,-0.6048907689
3.9550,-0.5588358794
3.9600,-0.5153737433
3.9650,-0.4744347101
3.9700,-0.4361088088
3.9750,-0.4005474682
3.9800,-0.3676184313
3.9850,-0.3370746603
3.9900,-0.3089854765
3.9950,-0.2834295434
4.0000,-0.2600643297
4.0050,-0.2386876872
4.0100,-0.2194248237
4.0150,-0.2019893224
4.0200,-0.186387586
4.0250,-0.1728068753
4.0300,-0.1610020336
4.0350,-0.1510753612
4.0400,-0.1428225073
4.0450,-0.1361544401
4.0500,-0.1306626106
4.0550,-0.1260234377
4.0600,-0.121997341
4.0650,-0.1181907316
4.0700,-0.1144896921
4.0750,-0.1105289957
4.0800,-0.1060053809
4.0850,-0.1007817343
4.0900,-0.09488810021
4.0950,-0.08793563736
4.1000,-0.07971701403
4.1050,-0.07008313153
4.1100,-0.05898522901
4.1150,-0.04624531506
4.1200,-0.03180012642
4.1250,-0.01574564148
4.1300,0.002037786878
4.1350,0.02176303937
4.1400,0.04322037139
4.1450,0.06655692562
4.1500,0.09155878627
4.1550,0.1181357276
4.1600,0.1460621475
4.1650,0.1750707873
4.1700,0.2050418295
4.1750,0.2360960149
4.1800,0.2680635672
4.1850,0.3008935357
4.1900,0.3345584309
4.1950,0.3688117073
4.2000,0.4032740814
4.2050,0.437826937
4.2100,0.472359043
4.2150,0.5067688364
4.2200,0.5408093155
4.2250,0.5745507216
4.2300,0.6078300823
4.2350,0.6405970029
4.2400,0.6726079371
4.2450,0.7038582885
4.2500,0.7341808506
4.2550,0.7633458776
4.2600,0.79112096
4.2650,0.8174418675
4.2700,0.8424301808
4.2750,0.8660182371
4.2800,0.888203239
4.2850,0.9088233383
4.2900,0.9279498009
4.2950,0.9456075143
4.3000,0.961579534
4.3050,0.9757541437
4.3100,0.9882026722
4.3150,0.9988621069
4.3200,1.007786914
4.3250,1.015122921
4.3300,1.020892445
4.3350,1.025085616
4.3400,1.02759369
4.3450,1.028775884
4.3500,1.028151234
4.3550,1.025845255
4.3600,1.021837055
4.3650,1.016061873
4.3700,1.00855093
4.3750,0.9993000598
4.3800,0.9882246302
4.3850,0.975402712
4.3900,0.9610409585
4.3950,0.9450146123
4.4000,0.9275142565
4.4050,0.9084116412
4.4100,0.8877136597
4.4150,0.865461606
4.4200,0.8417537521
4.4250,0.8168118808
4.4300,0.7905610822
4.4350,0.7631710488
4.4400,0.7347401865
4.4450,0.7051241799
4.4500,0.6743346347
4.4550,0.6424765984
4.4600,0.6096354204
4.4650,0.5758838871
4.4700,0.5413223172
4.4750,0.505941488
4.4800,0.4696220109
4.4850,0.4323746982
4.4900,0.3940898979
4.4950,0.3547448102
4.5000,0.3146487484
4.5050,0.2737518679
4.5100,0.2322519723
4.5150,0.1902668314
4.5200,0.1479684616
4.5250,0.1053431517
4.5300,0.06252251482
4.5350,0.01931957505
4.5400,-0.02413690181
4.5450,-0.06801713172
4.5500,-0.1121142517
4.5550,-0.1562983908
4.5600,-0.2004641399
4.5650,-0.2446086971
4.5700,-0.2888529294
4.5750,-0.3329038361
4.5800,-0.376939331
4.5850,-0.4209386328
4.5900,-0.4645941624
4.5950,-0.5079805724
4.6000,-0.5510833264
4.6050,-0.593966666
4.6100,-0.6363999628
4.6150,-0.6783869991
4.6200,-0.7199413012
4.6250,-0.7609107512
4.6300,-0.8014452229
4.6350,-0.8414970289
4.6400,-0.880884256
4.6450,-0.9196777574
4.6500,-0.9578002993
4.6550,-0.9952832001
4.6600,-1.032275833
4.6650,-1.068848698
4.6700,-1.1050429
4.6750,-1.141040193
4.6800,-1.176707768
4.6850,-1.212438155
4.6900,-1.248080724
4.6950,-1.28366084
4.7000,-1.3193863
4.7050,-1.355027468
4.7100,-1.390573152
4.7150,-1.426038095
4.7200,-1.461439262
4.7250,-1.496763957
4.7300,-1.531766856
4.7350,-1.566948102
4.7400,-1.602161483
4.7450,-1.637570639
4.7500,-1.673174648
4.7550,-1.709134749
4.7600,-1.745455374
4.7650,-1.782149792
4.7700,-1.819117532
4.7750,-1.856409106
4.7800,-1.893775341
4.7850,-1.931360327
4.7900,-1.968986221
4.7950,-2.006559069
4.8000,-2.044450864
4.8050,-2.08245695
4.8100,-2.120895831
4.8150,-2.159744919
4.8200,-2.199033162
4.8250,-2.238560767
4.8300,-2.278428091
4.8350,-2.318548064
4.8400,-2.358935158
4.8450,-2.3995812
4.8500,-2.440647348
4.8550,-2.482251338
4.8600,-2.524142379
4.8650,-2.56618417
4.8700,-2.608360959
4.8750,-2.650951275
4.8800,-2.693962752
4.8850,-2.737354875
4.8900,-2.781616304
4.8950,-2.82667779
4.9000,-2.872628472
4.9050,-2.919533686
4.9100,-2.96758059
4.9150,-3.016860847
4.9200,-3.0671322
4.9250,-3.118658305
4.9300,-3.171166142
4.9350,-3.224327291
4.9400,-3.278396771
4.9450,-3.333060112
4.9500,-3.38834836
4.9550,-3.444217003
4.9600,-3.500359043
4.9650,-3.556843169
4.9700,-3.613458599
4.9750,-3.670298995
4.9800,-3.727505396
4.9850,-3.784946567
4.9900,-3.842785983
4.9950,-3.901244801
5.0000,-3.959931058
5.0050,-4.018951713
5.0100,-4.07826323
5.0150,-4.137708676
5.0200,-4.19741797
5.0250,-4.257537914
5.0300,-4.318495989
5.0350,-4.380300698
5.0400,-4.442890178
5.0450,-4.506142009
5.0500,-4.56994545
5.0550,-4.634407839
5.0600,-4.699487313
5.0650,-4.765378503
5.0700,-4.832138885
5.0750,-4.899847593
5.0800,-4.968280101
5.0850,-5.037447135
5.0900,-5.107407968
5.0950,-5.178090799
5.1000,-5.24939884
5.1050,-5.321570994
5.1100,-5.394486291
5.1150,-5.468239077
5.1200,-5.542884774
5.1250,-5.618596412
5.1300,-5.695472834
5.1350,-5.773354388
5.1400,-5.852129474
5.1450,-5.931630679
5.1500,-6.011653847
5.1550,-6.092103321
5.1600,-6.172991873
5.1650,-6.254218673
5.1700,-6.335786016
5.1750,-6.417464372
5.1800,-6.499329743
5.1850,-6.581213418
5.1900,-6.662920303
5.1950,-6.744248599
5.2000,-6.825194431
5.2050,-6.905536458
5.2100,-6.985247084
5.2150,-7.064300145
5.2200,-7.142884437
5.2250,-7.220856998
5.2300,-7.298423679
5.2350,-7.376041608
5.2400,-7.453674833
5.2450,-7.531815609
5.2500,-7.61046242
5.2550,-7.68966553
5.2600,-7.769753677
5.2650,-7.85059761
5.2700,-7.932248606
5.2750,-8.014405771
5.2800,-8.096824984
5.2850,-8.179335246
5.2900,-8.261758672
5.2950,-8.343918687
5.3000,-8.426075606
5.3050,-8.508189986
5.3100,-8.590443813
5.3150,-8.672944195
5.3200,-8.755419825
5.3250,-8.8378561
5.3300,-8.919808508
5.3350,-9.001295953
5.3400,-9.082524869
5.3450,-9.163574916
5.3500,-9.244728844
5.3550,-9.325833252
5.3600,-9.406911022
5.3650,-9.48772291
5.3700,-9.568322585
5.3750,-9.648644012
5.3800,-9.728891349
5.3850,-9.808893825
5.3900,-9.888566102
5.3950,-9.967676656
5.4000,-10.04597648
5.4050,-10.12302819
5.4100,-10.19862021
5.4150,-10.27261414
5.4200,-10.34499397
5.4250,-10.41561113
5.4300,-10.48431885
5.4350,-10.55115869
5.4400,-10.6159123
5.4450,-10.67888455
5.4500,-10.74003922
5.4550,-10.79958367
5.4600,-10.85786972
5.4650,-10.91534194
5.4700,-10.97231839
5.4750,-11.02892998
5.4800,-11.08540148
5.4850,-11.14193273
5.4900,-11.19855196
5.4950,-11.25575107
5.5000,-11.31340628
5.5050,-11.37162916
5.5100,-11.43041349
5.5150,-11.48958444
5.5200,-11.54897773
5.5250,-11.60845626
5.5300,-11.66779902
5.5350,-11.72672971
5.5400,-11.7850056
5.5450,-11.84249815
5.5500,-11.89900424
5.5550,-11.95492742
5.5600,-12.01025786
5.5650,-12.06524148
5.5700,-12.12019236
5.5750,-12.17539647
5.5800,-12.23119409
5.5850,-12.28768516
5.5900,-12.34502541
5.5950,-12.4032793
5.6000,-12.46253127
5.6050,-12.52291903
5.6100,-12.58423981
5.6150,-12.64667096
5.6200,-12.71034615
5.6250,-12.77525896
5.6300,-12.84163482
5.6350,-12.90946542
5.6400,-12.97857631
5.6450,-13.04887653
5.6500,-13.12003778
5.6550,-13.19173692
5.6600,-13.26383143
5.6650,-13.33592535
5.6700,-13.40790339
5.6750,-13.47915241
5.6800,-13.549642
5.6850,-13.61901229
5.6900,-13.68717756
5.6950,-13.75419398
5.7000,-13.8201613
5.7050,-13.88505936
5.7100,-13.94887699
5.7150,-14.01137726
5.7200,-14.07236403
5.7250,-14.13177322
5.7300,-14.18928395
5.7350,-14.24483246
5.7400,-14.29837786
5.7450,-14.34968967
5.7500,-14.39887312
5.7550,-14.44574998
5.7600,-14.49044775
5.7650,-14.53291431
5.7700,-14.57306019
5.7750,-14.61112194
5.7800,-14.64710432
5.7850,-14.6813004
5.7900,-14.7137366
5.7950,-14.74412676
5.8000,-14.77237536
5.8050,-14.79849214
5.8100,-14.82233953
5.8150,-14.84420176
5.8200,-14.86401506
5.8250,-14.88202362
5.8300,-14.89832601
5.8350,-14.9131192
5.8400,-14.92682063
5.8450,-14.9398018
5.8500,-14.95236601
5.8550,-14.96465471
5.8600,-14.97674556
5.8650,-14.988654
5.8700,-15.00024638
5.8750,-15.01160042
5.8800,-15.02269478
5.8850,-15.03355995
5.8900,-15.04433026
5.8950,-15.05494783
5.9000,-15.0656024
5.9050,-15.0762386
5.9100,-15.08688679
5.9150,-15.09750169
5.9200,-15.1081568
5.9250,-15.11883205
5.9300,-15.1292182
5.9350,-15.13914836
5.9400,-15.14858372
5.9450,-15.15732517
5.9500,-15.16582848
5.9550,-15.17428303
5.9600,-15.18272574
5.9650,-15.19133634
5.9700,-15.19977357
5.9750,-15.20830211
5.9800,-15.21679238
5.9850,-15.22527358
5.9900,-15.23364344
5.9950,-15.2417463
6.0000,-15.24930209
6.0050,-15.25637409
6.0100,-15.26285355
6.0150,-15.26877126
6.0200,-15.27397891
6.0250,-15.27840823
6.0300,-15.28201165
6.0350,-15.28471287
6.0400,-15.28639515
6.0450,-15.28705412
6.0500,-15.2863484
6.0550,-15.2844002
6.0600,-15.28080949
6.0650,-15.2754334
6.0700,-15.26830662
6.0750,-15.25922428
6.0800,-15.24802987
6.0850,-15.23451744
6.0900,-15.21873662
6.0950,-15.20075762
6.1000,-15.18068712
6.1050,-15.15847527
6.1100,-15.13427078
6.1150,-15.10790309
6.1200,-15.07950054
6.1250,-15.04885625
6.1300,-15.01610505
6.1350,-14.98142829
6.1400,-14.94477087
6.1450,-14.90609402
6.1500,-14.86558932
6.1550,-14.82288896
6.1600,-14.77791708
6.1650,-14.73056033
6.1700,-14.68064274
6.1750,-14.62809829
6.1800,-14.57279121
6.1850,-14.51460801
6.1900,-14.45366171
6.1950,-14.39010024
6.2000,-14.32376345
6.2050,-14.25478708
6.2100,-14.18322355
6.2150,-14.10910487
6.2200,-14.03255301
6.2250,-13.95373835
6.2300,-13.87297427
6.2350,-13.79030704
6.2400,-13.70592503
6.2450,-13.62012875
6.2500,-13.5328124
6.2550,-13.444335
6.2600,-13.35469293
6.2650,-13.26405348
6.2700,-13.17286506
6.2750,-13.08136909
6.2800,-12.98975478
6.2850,-12.89824841
6.2900,-12.8068654
6.2950,-12.71584565
6.3000,-12.62546485
6.3050,-12.53547896
6.3100,-12.44596594
6.3150,-12.35685984
6.3200,-12.26810934
6.3250,-12.17981909
6.3300,-12.09213264
6.3350,-12.00506872
6.3400,-11.91904203
6.3450,-11.83399194
6.3500,-11.75025144
6.3550,-11.66773316
6.3600,-11.58674746
6.3650,-11.50730049
6.3700,-11.42961096
6.3750,-11.35385188
6.3800,-11.28009784
6.3850,-11.20832168
6.3900,-11.13851733
6.3950,-11.07065426
6.4000,-11.00484548
6.4050,-10.941028
6.4100,-10.87899963
6.4150,-10.81865638
6.4200,-10.7601295
6.4250,-10.70354167
6.4300,-10.64889767
6.4350,-10.59620888
6.4400,-10.54545493
6.4450,-10.49665465
6.4500,-10.44975513
6.4550,-10.40500015
6.4600,-10.36246857
6.4650,-10.3221938
6.4700,-10.28453433
6.4750,-10.24938009
6.4800,-10.21683721
6.4850,-10.18685631
6.4900,-10.15936196
6.4950,-10.13394636
6.5000,-10.11061598
6.5050,-10.08921958
6.5100,-10.06988751
6.5150,-10.0524266
6.5200,-10.03693118
6.5250,-10.02313652
6.5300,-10.01099103
6.5350,-10.00038967
6.5400,-9.99102961
6.5450,-9.982766725
6.5500,-9.975368298
6.5550,-9.968376738
6.5600,-9.961986003
6.5650,-9.956297656
6.5700,-9.951109877
6.5750,-9.946404656
6.5800,-9.942110834
6.5850,-9.938232585
6.5900,-9.934572318
6.5950,-9.931240638
6.6000,-9.927835423
6.6050,-9.924628988
6.6100,-9.921380574
6.6150,-9.917949129
6.6200,-9.914300394
6.6250,-9.910330192
6.6300,-9.905765958
6.6350,-9.90078328
6.6400,-9.895124993
6.6450,-9.889026029
6.6500,-9.88235947
6.6550,-9.87549761
6.6600,-9.86832152
6.6650,-9.86093851
6.6700,-9.853169486
6.6750,-9.845075502
6.6800,-9.836622926
6.6850,-9.827853332
6.6900,-9.818974476
6.6950,-9.809828893
6.7000,-9.800547535
6.7050,-9.791192837
6.7100,-9.781890599
6.7150,-9.772835552
6.7200,-9.764027913
6.7250,-9.755509353
6.7300,-9.747319577
6.7350,-9.739460057
6.7400,-9.731976934
6.7450,-9.7248638
6.7500,-9.718113016
6.7550,-9.711691656
6.7600,-9.705691353
6.7650,-9.70030545
6.7700,-9.695418143
6.7750,-9.691299247
6.7800,-9.687840584
6.7850,-9.685292801
6.7900,-9.683848222
6.7950,-9.683636971
6.8000,-9.684692309
6.8050,-9.687185211
6.8100,-9.690852459
6.8150,-9.695699814
6.8200,-9.701311508
6.8250,-9.70768604
6.8300,-9.714498905
6.8350,-9.721621289
6.8400,-9.728974956
6.8450,-9.736356738
6.8500,-9.74365211
6.8550,-9.750816384
6.8600,-9.757597469
6.8650,-9.763444942
6.8700,-9.768464285
6.8750,-9.772437403
6.8800,-9.775317488
6.8850,-9.77705084
6.8900,-9.777696288
6.8950,-9.776963544
6.9000,-9.775035265
6.9050,-9.771689181
6.9100,-9.766983207
6.9150,-9.760965582
6.9200,-9.75357392
6.9250,-9.744555808
6.9300,-9.734036223
6.9350,-9.721647709
6.9400,-9.70736506
6.9450,-9.690879622
6.9500,-9.67229225
6.9550,-9.65120342
6.9600,-9.627767072
6.9650,-9.601822376
6.9700,-9.573448221
6.9750,-9.54252347
6.9800,-9.509316157
6.9850,-9.473763955
6.9900,-9.435951756
6.9950,-9.396323407
7.0000,-9.354909962
7.0050,-9.31196089
7.0100,-9.267868884
7.0150,-9.222759364
7.0200,-9.176955999
7.0250,-9.130714592
7.0300,-9.084462402
7.0350,-9.038416476
7.0400,-8.993012546
7.0450,-8.94857601
7.0500,-8.905441938
7.0550,-8.863871071
7.0600,-8.824025985
7.0650,-8.785783209
7.0700,-8.74933562
7.0750,-8.714600351
7.0800,-8.681716501
7.0850,-8.650502701
7.0900,-8.620739984
7.0950,-8.592369402
7.1000,-8.565299167
7.1050,-8.539291882
7.1100,-8.514383601
7.1150,-8.49051979
7.1200,-8.467591356
7.1250,-8.445605607
7.1300,-8.424495218
7.1350,-8.404230543
7.1400,-8.384996043
7.1450,-8.366571455
7.1500,-8.348936189
7.1550,-8.332110617
7.1600,-8.315877388
7.1650,-8.300473532
7.1700,-8.285772968
7.1750,-8.271674205
7.1800,-8.258156861
7.1850,-8.24512905
7.1900,-8.2325739
7.1950,-8.220535425
7.2000,-8.2088453
7.2050,-8.197421228
7.2100,-8.186107609
7.2150,-8.174874572
7.2200,-8.16354121
7.2250,-8.152276982
7.2300,-8.140923281
7.2350,-8.129705721
7.2400,-8.118671128
7.2450,-8.108041325
7.2500,-8.097830022
7.2550,-8.088214458
7.2600,-8.079120614
7.2650,-8.070787572
7.2700,-8.063167255
7.2750,-8.056499292
7.2800,-8.050823922
7.2850,-8.046432877
7.2900,-8.043323558
7.2950,-8.04154956
7.3000,-8.041370375
7.3050,-8.042783642
7.3100,-8.045973337
7.3150,-8.051159186
7.3200,-8.058206335
7.3250,-8.067407585
7.3300,-8.078774867
7.3350,-8.092408677
7.3400,-8.108218576
7.3450,-8.126200766
7.3500,-8.146127932
7.3550,-8.167990658
7.3600,-8.191745092
7.3650,-8.217390692
7.3700,-8.244955074
7.3750,-8.274347412
7.3800,-8.305374184
7.3850,-8.338145609
7.3900,-8.372649996
7.3950,-8.408916296
7.4000,-8.446830705
7.4050,-8.486337519
7.4100,-8.527409424
7.4150,-8.569979951
7.4200,-8.614083615
7.4250,-8.659550623
7.4300,-8.706548341
7.4350,-8.754946458
7.4400,-8.804522139
7.4450,-8.855394067
7.4500,-8.907486631
7.4550,-8.960741013
7.4600,-9.015092837
7.4650,-9.070614363
7.4700,-9.127070829
7.4750,-9.184523912
7.4800,-9.242799108
7.4850,-9.301632926
7.4900,-9.361007619
7.4950,-9.420704938
7.5000,-9.480474867
7.5050,-9.540446284
7.5100,-9.600543606
7.5150,-9.660665277
7.5200,-9.720946029
7.5250,-9.781362095
7.5300,-9.842014684
7.5350,-9.902978917
7.5400,-9.964130494
7.5450,-10.02543398
7.5500,-10.0868572
7.5550,-10.14855124
7.5600,-10.21059281
7.5650,-10.27293333
7.5700,-10.335773
7.5750,-10.39906962
7.5800,-10.46283148
7.5850,-10.52704537
7.5900,-10.59179035
7.5950,-10.65729125
7.6000,-10.72341064
7.6050,-10.79028562
7.6100,-10.85787987
7.6150,-10.9261581
7.6200,-10.99532174
7.6250,-11.06521541
7.6300,-11.13579017
7.6350,-11.20712389
7.6400,-11.27915445
7.6450,-11.35196756
7.6500,-11.42569202
7.6550,-11.50010411
7.6600,-11.57524574
7.6650,-11.65138898
7.6700,-11.72844464
7.6750,-11.80650824
7.6800,-11.88568537
7.6850,-11.96585166
7.6900,-12.04672373
7.6950,-12.12832757
7.7000,-12.21044993
7.7050,-12.29311669
7.7100,-12.37628637
7.7150,-12.45991698
7.7200,-12.54392823
7.7250,-12.62823079
7.7300,-12.71276935
7.7350,-12.79745752
7.7400,-12.88217319
7.7450,-12.96700024
7.7500,-13.05162094
7.7550,-13.13619624
7.7600,-13.22046694
7.7650,-13.30442121
7.7700,-13.38794377
7.7750,-13.47090626
7.7800,-13.5531917
7.7850,-13.63493441
7.7900,-13.7159712
7.7950,-13.7963634
7.8000,-13.87622927
7.8050,-13.95533301
7.8100,-14.03382072
7.8150,-14.11169325
7.8200,-14.18875381
7.8250,-14.26499534
7.8300,-14.34052392
7.8350,-14.41526947
7.8400,-14.4892733
7.8450,-14.56263715
7.8500,-14.63575594
7.8550,-14.70836978
7.8600,-14.78062846
7.8650,-14.85260591
7.8700,-14.92403915
7.8750,-14.995066
7.8800,-15.06550027
7.8850,-15.13533438
7.8900,-15.20463904
7.8950,-15.27307828
7.9000,-15.34079053
7.9050,-15.40778651
7.9100,-15.4739141
7.9150,-15.53924901
7.9200,-15.60358018
7.9250,-15.66695126
7.9300,-15.72918571
7.9350,-15.79037017
7.9400,-15.85045793
7.9450,-15.90930795
7.9500,-15.96694283
7.9550,-16.02354641
7.9600,-16.07904998
7.9650,-16.13339642
7.9700,-16.18647118
7.9750,-16.23836722
7.9800,-16.2890642
7.9850,-16.33875663
7.9900,-16.38751169
7.9950,-16.43537141
8.0000,-16.48266441
8.0050,-16.52919277
8.0100,-16.57490964
8.0150,-16.61966038
8.0200,-16.66362411
8.0250,-16.70674516
8.0300,-16.74896284
8.0350,-16.79027823
8.0400,-16.83084468
8.0450,-16.87042871
8.0500,-16.90923932
8.0550,-16.9472774
8.0600,-16.98466272
8.0650,-17.02116603
8.0700,-17.05698019
8.0750,-17.09211664
8.0800,-17.12675818
8.0850,-17.16100347
8.0900,-17.19495637
8.0950,-17.22853637
8.1000,-17.26176537
8.1050,-17.29481592
8.1100,-17.32743695
8.1150,-17.35971846
8.1200,-17.39165005
8.1250,-17.42327077
8.1300,-17.45432789
8.1350,-17.4846569
8.1400,-17.51437856
8.1450,-17.54347677
8.1500,-17.57140342
8.1550,-17.59821725
8.1600,-17.62383742
8.1650,-17.6483455
8.1700,-17.67168672
8.1750,-17.69402207
8.1800,-17.71522946
8.1850,-17.73552917
8.1900,-17.75471401
8.1950,-17.77281445
8.2000,-17.78977719
8.2050,-17.80548493
8.2100,-17.81998341
8.2150,-17.83305493
8.2200,-17.84501715
8.2250,-17.8557318
8.2300,-17.86543188
8.2350,-17.87403712
8.2400,-17.88142006
8.2450,-17.88772035
8.2500,-17.89277077
8.2550,-17.89646535
8.2600,-17.89897398
8.2650,-17.90006318
8.2700,-17.89994331
8.2750,-17.89852906
8.2800,-17.89596923
8.2850,-17.89211241
8.2900,-17.88712942
8.2950,-17.88122718
8.3000,-17.87423699
8.3050,-17.86646504
8.3100,-17.85773836
8.3150,-17.8483501
8.3200,-17.83809806
8.3250,-17.82716788
8.3300,-17.81568912
8.3350,-17.80370662
8.3400,-17.79121056
8.3450,-17.77838221
8.3500,-17.76527693
8.3550,-17.75161273
8.3600,-17.73757379
8.3650,-17.7232543
8.3700,-17.70856925
8.3750,-17.69352552
8.3800,-17.6781363
8.3850,-17.66209014
8.3900,-17.64525791
8.3950,-17.62765933
8.4000,-17.60933676
8.4050,-17.59019415
8.4100,-17.5705549
8.4150,-17.55018955
8.4200,-17.52947491
8.4250,-17.50826561
8.4300,-17.4868506
8.4350,-17.46519738
8.4400,-17.44319073
8.4450,-17.42069142
8.4500,-17.39796372
8.4550,-17.37488829
8.4600,-17.3514572
8.4650,-17.32735707
8.4700,-17.30260478
8.4750,-17.27691072
8.4800,-17.25046601
8.4850,-17.22306427
8.4900,-17.19482054
8.4950,-17.16563351
8.5000,-17.13550778
8.5050,-17.10439784
8.5100,-17.07241695
8.5150,-17.03957538
8.5200,-17.00565979
8.5250,-16.97084551
8.5300,-16.93527043
8.5350,-16.89906132
8.5400,-16.86237573
8.5450,-16.82535524
8.5500,-16.78814109
8.5550,-16.75095703
8.5600,-16.71370767
8.5650,-16.67661116
8.5700,-16.63970838
8.5750,-16.60285799
8.5800,-16.56607125
8.5850,-16.52953297
8.5900,-16.49294489
8.5950,-16.45636927
8.6000,-16.4196846
8.6050,-16.38277019
8.6100,-16.34575229
8.6150,-16.30862138
8.6200,-16.27166244
8.6250,-16.23493411
8.6300,-16.1984395
8.6350,-16.16223186
8.6400,-16.126415
8.6450,-16.09095712
8.6500,-16.0559436
8.6550,-16.02157937
8.6600,-15.98782917
8.6650,-15.95482308
8.6700,-15.92262897
8.6750,-15.89131995
8.6800,-15.86080859
8.6850,-15.8313463
8.6900,-15.80305717
8.6950,-15.77601467
8.7000,-15.75021609
8.7050,-15.72556085
8.7100,-15.7018413
8.7150,-15.67919035
8.7200,-15.65705549
8.7250,-15.63533348
8.7300,-15.61399945
8.7350,-15.59309027
8.7400,-15.57284221
8.7450,-15.55312365
8.7500,-15.53392929
8.7550,-15.51510244
8.7600,-15.49650009
8.7650,-15.47813773
8.7700,-15.46002505
8.7750,-15.44194512
8.7800,-15.42381782
8.7850,-15.40545323
8.7900,-15.3866843
8.7950,-15.36749443
8.8000,-15.34784511
8.8050,-15.32788329
8.8100,-15.30740844
8.8150,-15.28650957
8.8200,-15.2651923
8.8250,-15.24351195
8.8300,-15.22128192
8.8350,-15.19846858
8.8400,-15.17528881
8.8450,-15.15160145
8.8500,-15.12759071
8.8550,-15.10325924
8.8600,-15.0786601
8.8650,-15.05397852
8.8700,-15.02935246
8.8750,-15.00506774
8.8800,-14.98104086
8.8850,-14.95726572
8.8900,-14.93419998
8.8950,-14.91141878
8.9000,-14.88914078
8.9050,-14.86718646
8.9100,-14.8455856
8.9150,-14.82414048
8.9200,-14.80272002
8.9250,-14.78114596
8.9300,-14.75936203
8.9350,-14.73758613
8.9400,-14.71579525
8.9450,-14.6940149
8.9500,-14.67225788
8.9550,-14.65042182
8.9600,-14.62873954
8.9650,-14.60718781
8.9700,-14.58583909
8.9750,-14.5648153
8.9800,-14.54424709
8.9850,-14.52432618
8.9900,-14.50501912
8.9950,-14.48619445
9.0000,-14.46778904
9.0050,-14.44985761
9.0100,-14.43236725
9.0150,-14.41554191
9.0200,-14.39946231
9.0250,-14.38420178
9.0300,-14.36953284
9.0350,-14.35546909
9.0400,-14.34183849
9.0450,-14.32848826
9.0500,-14.31534047
9.0550,-14.30235168
9.0600,-14.2894068
9.0650,-14.27643732
9.0700,-14.26351617
9.0750,-14.25036415
9.0800,-14.23705346
9.0850,-14.22346069
9.0900,-14.20947108
9.0950,-14.1953216
9.1000,-14.18103383
9.1050,-14.16668015
9.1100,-14.15226939
9.1150,-14.13800199
9.1200,-14.12378592
9.1250,-14.10966818
9.1300,-14.09555821
9.1350,-14.08145709
9.1400,-14.06723862
9.1450,-14.0529953
9.1500,-14.0385843
9.1550,-14.02399759
9.1600,-14.00923091
9.1650,-13.99422095
9.1700,-13.97864926
9.1750,-13.96246785
9.1800,-13.94555141
9.1850,-13.92776198
9.1900,-13.90890703
9.1950,-13.88906747
9.2000,-13.86816058
9.2050,-13.84616542
9.2100,-13.82324114
9.2150,-13.79955978
9.2200,-13.77515635
9.2250,-13.75006473
9.2300,-13.72454263
9.2350,-13.69846512
9.2400,-13.67197244
9.2450,-13.64525555
9.2500,-13.61825315
9.2550,-13.59125242
9.2600,-13.5641853
9.2650,-13.53714749
9.2700,-13.51014404
9.2750,-13.48288021
9.2800,-13.45541126
9.2850,-13.42758406
9.2900,-13.39939391
9.2950,-13.37076363
9.3000,-13.34189945
9.3050,-13.31271901
9.3100,-13.28346603
9.3150,-13.25383281
9.3200,-13.22422346
9.3250,-13.19469675
9.3300,-13.16535317
9.3350,-13.13605202
9.3400,-13.10665826
9.3450,-13.07727949
9.3500,-13.04796079
9.3550,-13.01902555
9.3600,-12.99056021
9.3650,-12.96276557
9.3700,-12.9354816
9.3750,-12.90908959
9.3800,-12.88352752
9.3850,-12.8589878
9.3900,-12.83554824
9.3950,-12.81318847
9.4000,-12.79174901
9.4050,-12.77100604
9.4100,-12.75088317
9.4150,-12.73106349
9.4200,-12.7114881
9.4250,-12.69186693
9.4300,-12.67220887
9.4350,-12.65234656
9.4400,-12.63266301
9.4450,-12.6130556
9.4500,-12.59373136
9.4550,-12.57458828
9.4600,-12.55556911
9.4650,-12.53673503
9.4700,-12.5183645
9.4750,-12.50027085
9.4800,-12.48303055
9.4850,-12.46669938
9.4900,-12.45099419
9.4950,-12.43591052
9.5000,-12.42125678
9.5050,-12.40706399
9.5100,-12.39325419
9.5150,-12.37977097
9.5200,-12.36643225
9.5250,-12.35355451
9.5300,-12.34076455
9.5350,-12.32833173
9.5400,-12.31609633
9.5450,-12.30408771
9.5500,-12.29248599
9.5550,-12.28123765
9.5600,-12.27023141
9.5650,-12.25962968
9.5700,-12.24962362
9.5750,-12.24035463
9.5800,-12.23186805
9.5850,-12.22431095
9.5900,-12.21777532
9.5950,-12.21247378
9.6000,-12.20820902
9.6050,-12.20521552
9.6100,-12.20324536
9.6150,-12.20228561
9.6200,-12.20187095
9.6250,-12.20184136
9.6300,-12.20202582
9.6350,-12.2025442
9.6400,-12.2032822
9.6450,-12.20410103
9.6500,-12.20497453
9.6550,-12.20588598
9.6600,-12.20683484
9.6650,-12.20758687
9.6700,-12.20808015
9.6750,-12.2083555
9.6800,-12.20831515
9.6850,-12.2079955
9.6900,-12.20744018
9.6950,-12.20679707
9.7000,-12.20607474
9.7050,-12.20549342
9.7100,-12.20536716
9.7150,-12.20589446
9.7200,-12.20734232
9.7250,-12.20973548
9.7300,-12.21301643
9.7350,-12.2172645
9.7400,-12.22212634
9.7450,-12.227887
9.7500,-12.23442241
9.7550,-12.24187241
9.7600,-12.25012153
9.7650,-12.25903469
9.7700,-12.2686256
9.7750,-12.27926952
9.7800,-12.29075437
9.7850,-12.30327184
9.7900,-12.31727719
9.7950,-12.33270523
9.8000,-12.34989293
9.8050,-12.36877825
9.8100,-12.38944876
9.8150,-12.41182547
9.8200,-12.43605037
9.8250,-12.46218183
9.8300,-12.49030015
9.8350,-12.52027941
9.8400,-12.55207826
9.8450,-12.58574266
9.8500,-12.62138532
9.8550,-12.6587971
9.8600,-12.69817842
9.8650,-12.73927074
9.8700,-12.78154711
9.8750,-12.82496539
9.8800,-12.86911748
9.8850,-12.91364238
9.8900,-12.95817783
9.8950,-13.00247909
9.9000,-13.04633372
9.9050,-13.08940427
9.9100,-13.13176971
9.9150,-13.17333154
9.9200,-13.21436145
9.9250,-13.25493555
9.9300,-13.29500448
9.9350,-13.33446071
9.9400,-13.37331817
9.9450,-13.41150681
9.9500,-13.44883752
9.9550,-13.48509372
9.9600,-13.520321
9.9650,-13.55454988
9.9700,-13.58770808
9.9750,-13.61990319
9.9800,-13.65113739
9.9850,-13.68132195
9.9900,-13.71062992
9.9950,-13.73864121
10.0000,-13.76548258
10.0050,-13.79067108
10.0100,-13.81404872
10.0150,-13.83555887
10.0200,-13.85499791
10.0250,-13.87246249
10.0300,-13.88809075
10.0350,-13.90173705
10.0400,-13.91333442
10.0450,-13.92276328
10.0500,-13.93013984
10.0550,-13.93547908
10.0600,-13.93912957
10.0650,-13.94104285
10.0700,-13.94131662
10.0750,-13.9397814
10.0800,-13.93633145
10.0850,-13.93072007
10.0900,-13.92302529
10.0950,-13.91341172
10.1000,-13.90193671
10.1050,-13.88898073
10.1100,-13.8744225
10.1150,-13.85881911
10.1200,-13.84229068
10.1250,-13.82465507
10.1300,-13.80626778
10.1350,-13.78719721
10.1400,-13.76779699
10.1450,-13.74799167
10.1500,-13.7274377
10.1550,-13.70618596
10.1600,-13.68412838
10.1650,-13.66111008
10.1700,-13.63747202
10.1750,-13.61322975
10.1800,-13.58838173
10.1850,-13.56302641
10.1900,-13.53737977
10.1950,-13.51142295
10.2000,-13.48538776
10.2050,-13.4594077
10.2100,-13.43330885
10.2150,-13.40698729
10.2200,-13.38025895
10.2250,-13.3531366
10.2300,-13.3256062
10.2350,-13.29771771
10.2400,-13.26963936
10.2450,-13.24154144
10.2500,-13.21351768
10.2550,-13.18581785
10.2600,-13.1584938
10.2650,-13.13172876
10.2700,-13.10584991
10.2750,-13.08094703
10.2800,-13.05689733
10.2850,-13.03386404
10.2900,-13.01156437
10.2950,-12.99030193
10.3000,-12.96964922
10.3050,-12.94996933
10.3100,-12.93097073
10.3150,-12.91255011
10.3200,-12.89470054
10.3250,-12.87741585
10.3300,-12.86066582
10.3350,-12.84439537
10.3400,-12.82875051
10.3450,-12.81354333
10.3500,-12.79875146
10.3550,-12.78436665
10.3600,-12.77039442
10.3650,-12.7572132
10.3700,-12.74471202
10.3750,-12.73282816
10.3800,-12.72162377
10.3850,-12.7111978
10.3900,-12.70142908
10.3950,-12.69245591
10.4000,-12.68415491
10.4050,-12.67639631
10.4100,-12.66919285
10.4150,-12.66221333
10.4200,-12.65554822
10.4250,-12.64900644
10.4300,-12.64239256
10.4350,-12.63566568
10.4400,-12.6285274
10.4450,-12.62103596
10.4500,-12.61320425
10.4550,-12.60511931
10.4600,-12.59657696
10.4650,-12.58765583
10.4700,-12.57835744
10.4750,-12.56875591
10.4800,-12.55903055
10.4850,-12.54911707
10.4900,-12.5389726
10.4950,-12.52882719
10.5000,-12.51872991
10.5050,-12.50874862
10.5100,-12.49901694
10.5150,-12.48950976
10.5200,-12.48040783
10.5250,-12.47174522
10.5300,-12.46366603
10.5350,-12.45618507
10.5400,-12.44935037
10.5450,-12.44325032
10.5500,-12.43794477
10.5550,-12.43344909
10.5600,-12.42969304
10.5650,-12.426588
10.5700,-12.42418367
10.5750,-12.42220838
10.5800,-12.42110055
10.5850,-12.42072274
10.5900,-12.4211617
10.5950,-12.42204659
10.6000,-12.4235844
10.6050,-12.42542582
10.6100,-12.42763143
10.6150,-12.43014432
10.6200,-12.43304625
10.6250,-12.43645156
10.6300,-12.44033821
10.6350,-12.44502305
10.6400,-12.4505231
10.6450,-12.45697333
10.6500,-12.46436205
10.6550,-12.47292999
10.6600,-12.4825754
10.6650,-12.49320651
10.6700,-12.50475657
10.6750,-12.51747138
10.6800,-12.53148961
10.6850,-12.54686384
10.6900,-12.56350656
10.6950,-12.58132841
10.7000,-12.60032626
10.7050,-12.62038674
10.7100,-12.64156594
10.7150,-12.66372715
10.7200,-12.68659635
10.7250,-12.71026784
10.7300,-12.73460942
10.7350,-12.75932508
10.7400,-12.78441451
10.7450,-12.80963913
10.7500,-12.83523752
10.7550,-12.86086414
10.7600,-12.88659838
10.7650,-12.91226982
10.7700,-12.93762326
10.7750,-12.96273441
10.7800,-12.98763791
10.7850,-13.01238357
10.7900,-13.03719675
10.7950,-13.06197769
10.8000,-13.0867574
10.8050,-13.11160201
10.8100,-13.13647661
10.8150,-13.16132436
10.8200,-13.18605681
10.8250,-13.21041321
10.8300,-13.2343728
10.8350,-13.25772991
10.8400,-13.28041013
10.8450,-13.30215083
10.8500,-13.32322002
10.8550,-13.34343389
10.8600,-13.36288041
10.8650,-13.38188388
10.8700,-13.40055618
10.8750,-13.41921504
10.8800,-13.43766665
10.8850,-13.45607518
10.8900,-13.47475502
10.8950,-13.49410883
10.9000,-13.51406183
10.9050,-13.53477701
10.9100,-13.55632068
10.9150,-13.57874436
10.9200,-13.60195256
10.9250,-13.62598991
10.9300,-13.65073495
10.9350,-13.67616857
10.9400,-13.70214957
10.9450,-13.72845579
10.9500,-13.75522871
10.9550,-13.78225704
10.9600,-13.8096042
10.9650,-13.83733067
10.9700,-13.86556133
10.9750,-13.89441435
10.9800,-13.92391296
10.9850,-13.95410741
10.9900,-13.98539044
10.9950,-14.01776928
11.0000,-14.05130104
11.0050,-14.08599652
11.0100,-14.12202532
11.0150,-14.15915132
11.0200,-14.19730193
11.0250,-14.23643354
11.0300,-14.27635288
11.0350,-14.31706227
11.0400,-14.35833417
11.0450,-14.39999611
11.0500,-14.44162861
11.0550,-14.48340888
11.0600,-14.52526052
11.0650,-14.56721325
11.0700,-14.60922321
11.0750,-14.65106922
11.0800,-14.69243878
11.0850,-14.73326021
11.0900,-14.77302167
11.0950,-14.811792
11.1000,-14.8492438
11.1050,-14.88515826
11.1100,-14.91960638
11.1150,-14.95276469
11.1200,-14.98448299
11.1250,-15.01508804
11.1300,-15.04469398
11.1350,-15.0737364
11.1400,-15.10245463
11.1450,-15.13157154
11.1500,-15.16099774
11.1550,-15.19092101
11.1600,-15.22149672
11.1650,-15.25270061
11.1700,-15.28445254
11.1750,-15.31677174
11.1800,-15.34992357
11.1850,-15.38379474
11.1900,-15.4184493
11.1950,-15.45368054
11.2000,-15.48960156
11.2050,-15.52654484
11.2100,-15.56467396
11.2150,-15.60403632
11.2200,-15.64469012
11.2250,-15.68650278
11.2300,-15.72967
11.2350,-15.77414578
11.2400,-15.81986191
11.2450,-15.86681467
11.2500,-15.91472531
11.2550,-15.96332413
11.2600,-16.01236479
11.2650,-16.06168805
11.2700,-16.11124788
11.2750,-16.16097397
11.2800,-16.21068457
11.2850,-16.26041331
11.2900,-16.30987594
11.2950,-16.35912445
11.3000,-16.40799481
11.3050,-16.45659969
11.3100,-16.50472043
11.3150,-16.55239427
11.3200,-16.59959431
11.3250,-16.64613089
11.3300,-16.69223916
11.3350,-16.73770564
11.3400,-16.78245245
11.3450,-16.82642686
11.3500,-16.86966791
11.3550,-16.91209532
11.3600,-16.95357239
11.3650,-16.99402423
11.3700,-17.03361158
11.3750,-17.07236167
11.3800,-17.11024376
11.3850,-17.14706783
11.3900,-17.18318469
11.3950,-17.21819862
11.4000,-17.25216235
11.4050,-17.28501943
11.4100,-17.31658168
11.4150,-17.34695738
11.4200,-17.37638533
11.4250,-17.40480148
11.4300,-17.43244012
11.4350,-17.45920143
11.4400,-17.48512489
11.4450,-17.50994979
11.4500,-17.53372161
11.4550,-17.55668956
11.4600,-17.57866347
11.4650,-17.59951312
11.4700,-17.61927962
11.4750,-17.63768735
11.4800,-17.65475867
11.4850,-17.67074596
11.4900,-17.6854751
11.4950,-17.69916594
11.5000,-17.7119811
11.5050,-17.72376018
11.5100,-17.73454712
11.5150,-17.74452545
11.5200,-17.75369195
11.5250,-17.76240456
11.5300,-17.77067353
11.5350,-17.77856206
11.5400,-17.78632762
11.5450,-17.79417796
11.5500,-17.80210817
11.5550,-17.8104493
11.5600,-17.81936034
11.5650,-17.82878937
11.5700,-17.83851009
11.5750,-17.84828506
11.5800,-17.85807919
11.5850,-17.86772022
11.5900,-17.87723299
11.5950,-17.88632383
11.6000,-17.89508179
11.6050,-17.90338635
11.6100,-17.91115525
11.6150,-17.91841908
11.6200,-17.92515618
11.6250,-17.93138412
11.6300,-17.93687349
11.6350,-17.94185561
11.6400,-17.94646066
11.6450,-17.9507407
11.6500,-17.95456098
11.6550,-17.95764126
11.6600,-17.95990011
11.6650,-17.96151514
11.6700,-17.96230461
11.6750,-17.96234361
11.6800,-17.96172902
11.6850,-17.96075703
11.6900,-17.9593849
11.6950,-17.95792689
11.7000,-17.95654418
11.7050,-17.95522486
11.7100,-17.95383549
11.7150,-17.95223586
11.7200,-17.95021244
11.7250,-17.94751788
11.7300,-17.94380794
11.7350,-17.93894224
11.7400,-17.93271945
11.7450,-17.92496012
11.7500,-17.9156197
11.7550,-17.90461123
11.7600,-17.89208254
11.7650,-17.8782375
11.7700,-17.86318986
11.7750,-17.84719444
11.7800,-17.83017747
11.7850,-17.8122727
11.7900,-17.79353917
11.7950,-17.77393865
11.8000,-17.75352757
11.8050,-17.73240892
11.8100,-17.71063886
11.8150,-17.68820755
11.8200,-17.66505591
11.8250,-17.64091492
11.8300,-17.61579393
11.8350,-17.58981285
11.8400,-17.56290692
11.8450,-17.53518842
11.8500,-17.50680824
11.8550,-17.47789146
11.8600,-17.44854727
11.8650,-17.41902989
11.8700,-17.38998059
11.8750,-17.36162067
11.8800,-17.33410864
11.8850,-17.30743978
11.8900,-17.2816772
11.8950,-17.25693104
11.9000,-17.23324423
11.9050,-17.2105376
11.9100,-17.18870109
11.9150,-17.16763472
11.9200,-17.14733028
11.9250,-17.12750561
11.9300,-17.10814446
11.9350,-17.0890261
11.9400,-17.0700504
11.9450,-17.05118015
11.9500,-17.03246129
11.9550,-17.01384078
11.9600,-16.9956052
11.9650,-16.97758733
11.9700,-16.96001302
11.9750,-16.94280246
11.9800,-16.92582914
11.9850,-16.90889783
11.9900,-16.89158857
11.9950,-16.87386154
12.0000,-16.85564492
12.0050,-16.83743598
12.0100,-16.81959305
12.0150,-16.80232715
12.0200,-16.78591628
12.0250,-16.77049059
12.0300,-16.75621887
12.0350,-16.74297235
12.0400,-16.73081047
12.0450,-16.71988092
12.0500,-16.71030978
12.0550,-16.7020923
12.0600,-16.69526682
12.0650,-16.68998579
12.0700,-16.68628203
12.0750,-16.68423417
12.0800,-16.68383527
12.0850,-16.68508016
12.0900,-16.68828687
12.0950,-16.69352312
12.1000,-16.70111386
12.1050,-16.71132408
12.1100,-16.7243838
12.1150,-16.74030841
12.1200,-16.75952646
12.1250,-16.78210002
12.1300,-16.80806739
12.1350,-16.83715407
12.1400,-16.86920449
12.1450,-16.90371876
12.1500,-16.94040553
12.1550,-16.97864513
12.1600,-17.01797398
12.1650,-17.05777467
12.1700,-17.09717724
12.1750,-17.13558404
12.1800,-17.17237345
12.1850,-17.20723405
12.1900,-17.23966468
12.1950,-17.26938309
12.2000,-17.29618029
12.2050,-17.3197358
12.2100,-17.34005318
12.2150,-17.35696638
12.2200,-17.37018818
12.2250,-17.37986016
12.2300,-17.38619665
12.2350,-17.3892973
12.2400,-17.38935925
12.2450,-17.38666788
12.2500,-17.38159196
12.2550,-17.37457601
12.2600,-17.36565926
12.2650,-17.35523071
12.2700,-17.34312886
12.2750,-17.32932099
12.2800,-17.3141541
12.2850,-17.29761485
12.2900,-17.27999864
12.2950,-17.26124426
12.3000,-17.24144209
12.3050,-17.22012812
12.3100,-17.19732079
12.3150,-17.1729027
12.3200,-17.14691922
12.3250,-17.1195762
12.3300,-17.09088733
12.3350,-17.06127917
12.3400,-17.03109604
12.3450,-17.00044189
12.3500,-16.96929301
12.3550,-16.93773132
12.3600,-16.90563153
12.3650,-16.8728824
12.3700,-16.83954054
12.3750,-16.80580299
12.3800,-16.77163062
12.3850,-16.73716059
12.3900,-16.70240154
12.3950,-16.66748458
12.4000,-16.63234347
12.4050,-16.59694623
12.4100,-16.561271
12.4150,-16.52538339
12.4200,-16.48912597
12.4250,-16.45257103
12.4300,-16.4158246
12.4350,-16.37877981
12.4400,-16.34159741
12.4450,-16.30432592
12.4500,-16.26685027
12.4550,-16.2293049
12.4600,-16.19171117
12.4650,-16.15396436
12.4700,-16.11619421
12.4750,-16.07849414
12.4800,-16.04100472
12.4850,-16.00377126
12.4900,-15.9668508
12.4950,-15.93006599
12.5000,-15.89326485
12.5050,-15.85644507
12.5100,-15.81942339
12.5150,-15.78224197
12.5200,-15.74506663
12.5250,-15.70797667
12.5300,-15.67082916
12.5350,-15.63359443
12.5400,-15.59641586
12.5450,-15.55902013
12.5500,-15.52121063
12.5550,-15.48306661
12.5600,-15.44464496
12.5650,-15.40558715
12.5700,-15.36602076
12.5750,-15.32605277
12.5800,-15.28540621
12.5850,-15.24422388
12.5900,-15.20274761
12.5950,-15.16095561
12.6000,-15.11877559
12.6050,-15.07633696
12.6100,-15.03358759
12.6150,-14.99075726
12.6200,-14.9478345
12.6250,-14.90483155
12.6300,-14.86188463
12.6350,-14.81903056
12.6400,-14.77605577
12.6450,-14.73311273
12.6500,-14.69024644
12.6550,-14.64738624
12.6600,-14.60465535
12.6650,-14.56212331
12.6700,-14.51963626
12.6750,-14.47698836
12.6800,-14.43428985
12.6850,-14.39121266
12.6900,-14.34746461
12.6950,-14.3030284
12.7000,-14.25784642
12.7050,-14.21186626
12.7100,-14.1649704
12.7150,-14.11731816
12.7200,-14.0687839
12.7250,-14.01941078
12.7300,-13.96914223
12.7350,-13.91828276
12.7400,-13.86675413
12.7450,-13.81461169
12.7500,-13.76201494
12.7550,-13.70866852
12.7600,-13.65454466
12.7650,-13.5996813
12.7700,-13.543848
12.7750,-13.48699398
12.7800,-13.42886683
12.7850,-13.36942644
12.7900,-13.30858028
12.7950,-13.24621489
12.8000,-13.18235632
12.8050,-13.11701805
12.8100,-13.05024721
12.8150,-12.98230362
12.8200,-12.91320802
12.8250,-12.84319928
12.8300,-12.7723586
12.8350,-12.70080781
12.8400,-12.62884461
12.8450,-12.55686268
12.8500,-12.48528743
12.8550,-12.41446009
12.8600,-12.34474102
12.8650,-12.27669732
12.8700,-12.21062337
12.8750,-12.14675669
12.8800,-12.08550575
12.8850,-12.02700577
12.8900,-11.97133574
12.8950,-11.91855177
12.9000,-11.86875657
12.9050,-11.82214549
12.9100,-11.77883003
12.9150,-11.73887488
12.9200,-11.70261862
12.9250,-11.67041413
12.9300,-11.64221398
12.9350,-11.61823011
12.9400,-11.59870234
12.9450,-11.58347953
12.9500,-11.57271496
12.9550,-11.56637052
12.9600,-11.56445574
12.9650,-11.56672011
12.9700,-11.57325948
12.9750,-11.58382901
12.9800,-11.59821521
12.9850,-11.61632543
12.9900,-11.6381983
12.9950,-11.66339027
13.0000,-11.69187883
13.0050,-11.72338203
13.0100,-11.75787944
13.0150,-11.79500521
13.0200,-11.83493576
13.0250,-11.87723764
13.0300,-11.92185772
13.0350,-11.96855867
13.0400,-12.01696977
13.0450,-12.06717221
13.0500,-12.11883145
13.0550,-12.17219813
13.0600,-12.2270471
13.0650,-12.28342679
13.0700,-12.34124336
13.0750,-12.40024769
13.0800,-12.46064538
13.0850,-12.52213141
13.0900,-12.5843527
13.0950,-12.64744759
13.1000,-12.71095686
13.1050,-12.77467281
13.1100,-12.83838423
13.1150,-12.90166383
13.1200,-12.96438993
13.1250,-13.02624374
13.1300,-13.08728737
13.1350,-13.14785386
13.1400,-13.20772708
13.1450,-13.26697324
13.1500,-13.32566035
13.1550,-13.38370448
13.1600,-13.44097553
13.1650,-13.49746232
13.1700,-13.55309144
13.1750,-13.60789413
13.1800,-13.66191598
13.1850,-13.71522432
13.1900,-13.76765562
13.1950,-13.81930937
13.2000,-13.87027405
13.2050,-13.92054457
13.2100,-13.97008541
13.2150,-14.01914691
13.2200,-14.06751005
13.2250,-14.11521878
13.2300,-14.1624467
13.2350,-14.20916735
13.2400,-14.25540214
13.2450,-14.30145742
13.2500,-14.34731636
13.2550,-14.39315828
13.2600,-14.43912833
13.2650,-14.48550364
13.2700,-14.53231673
13.2750,-14.57970579
13.2800,-14.62784715
13.2850,-14.67670921
13.2900,-14.7262424
13.2950,-14.77664181
13.3000,-14.8276443
13.3050,-14.87931134
13.3100,-14.93138606
13.3150,-14.98391411
13.3200,-15.03662435
13.3250,-15.08964193
13.3300,-15.14284754
13.3350,-15.19618399
13.3400,-15.24985126
13.3450,-15.30373361
13.3500,-15.35795544
13.3550,-15.41254068
13.3600,-15.4675061
13.3650,-15.52277977
13.3700,-15.5782816
13.3750,-15.63410509
13.3800,-15.68998469
13.3850,-15.74575506
13.3900,-15.80156731
13.3950,-15.85703476
13.4000,-15.9122176
13.4050,-15.9670137
13.4100,-16.02130177
13.4150,-16.07497919
13.4200,-16.12786827
13.4250,-16.18000503
13.4300,-16.23125509
13.4350,-16.28161605
13.4400,-16.33112091
13.4450,-16.37975229
13.4500,-16.42765592
13.4550,-16.47478222
13.4600,-16.5214361
13.4650,-16.56759369
13.4700,-16.61337086
13.4750,-16.65883729
13.4800,-16.70388702
13.4850,-16.74844065
13.4900,-16.79284132
13.4950,-16.83710425
13.5000,-16.88137494
13.5050,-16.92568671
13.5100,-16.97024879
13.5150,-17.01509358
13.5200,-17.06029411
13.5250,-17.10577376
13.5300,-17.15172841
13.5350,-17.19809703
13.5400,-17.24496326
13.5450,-17.29212993
13.5500,-17.33964612
13.5550,-17.38723512
13.5600,-17.43483755
13.5650,-17.48209699
13.5700,-17.5288528
13.5750,-17.57509635
13.5800,-17.62059539
13.5850,-17.66541537
13.5900,-17.70951736
13.5950,-17.75291534
13.6000,-17.79578067
13.6050,-17.8379897
13.6100,-17.87956714
13.6150,-17.92064254
13.6200,-17.96114249
13.6250,-18.00125413
13.6300,-18.0409336
13.6350,-18.08039948
13.6400,-18.11964611
13.6450,-18.15879024
13.6500,-18.19803661
13.6550,-18.23716631
13.6600,-18.27627894
13.6650,-18.31528231
13.6700,-18.35396143
13.6750,-18.39217002
13.6800,-18.42955626
13.6850,-18.46610765
13.6900,-18.50162615
13.6950,-18.53603929
13.7000,-18.56928714
13.7050,-18.60132843
13.7100,-18.63215526
13.7150,-18.66184399
13.7200,-18.69064681
13.7250,-18.71879079
13.7300,-18.74625479
13.7350,-18.77306817
13.7400,-18.79924939
13.7450,-18.82517436
13.7500,-18.85058568
13.7550,-18.87584202
13.7600,-18.90095952
13.7650,-18.92586887
13.7700,-18.9507786
13.7750,-18.975681
13.7800,-19.00066854
13.7850,-19.02584469
13.7900,-19.05097961
13.7950,-19.07608232
13.8000,-19.10097567
13.8050,-19.12551424
13.8100,-19.14937538
13.8150,-19.17233721
13.8200,-19.19417341
13.8250,-19.21479343
13.8300,-19.23381875
13.8350,-19.25106483
13.8400,-19.26629647
13.8450,-19.2794842
13.8500,-19.29048688
13.8550,-19.29930725
13.8600,-19.30605707
13.8650,-19.31073458
13.8700,-19.3133791
13.8750,-19.31425474
13.8800,-19.31350721
13.8850,-19.31114733
13.8900,-19.30726428
13.8950,-19.30181773
13.9000,-19.29456157
13.9050,-19.2857695
13.9100,-19.27567897
13.9150,-19.26420045
13.9200,-19.25165045
13.9250,-19.23812486
13.9300,-19.22379305
13.9350,-19.20857562
13.9400,-19.1925875
13.9450,-19.17588046
13.9500,-19.1582748
13.9550,-19.14015795
13.9600,-19.12153303
13.9650,-19.10251505
13.9700,-19.08342216
13.9750,-19.06406176
13.9800,-19.04478944
13.9850,-19.02558847
13.9900,-19.00637237
13.9950,-18.98735228
14.0000,-18.96844197
14.0050,-18.94950348
14.0100,-18.93053849
14.0150,-18.9114425
14.0200,-18.89207765
14.0250,-18.87246471
14.0300,-18.85264283
14.0350,-18.83292097
14.0400,-18.81348975
14.0450,-18.79431875
14.0500,-18.77585965
14.0550,-18.75798711
14.0600,-18.74070279
14.0650,-18.72417142
14.0700,-18.70817756
14.0750,-18.69269597
14.0800,-18.67781944
14.0850,-18.6634008
14.0900,-18.64940187
14.0950,-18.63554067
14.1000,-18.62182238
14.1050,-18.60823466
14.1100,-18.59466944
14.1150,-18.58100165
14.1200,-18.56725286
14.1250,-18.55343733
14.1300,-18.53946205
14.1350,-18.52530745
14.1400,-18.51089857
14.1450,-18.49605668
14.1500,-18.4808317
14.1550,-18.46532604
14.1600,-18.44938059
14.1650,-18.43323038
14.1700,-18.41704894
14.1750,-18.40059525
14.1800,-18.38413662
14.1850,-18.36767257
14.1900,-18.35124826
14.1950,-18.33495427
14.2000,-18.31902764
14.2050,-18.3034587
14.2100,-18.28799866
14.2150,-18.27274594
14.2200,-18.25754774
14.2250,-18.24217233
14.2300,-18.22669893
14.2350,-18.21118402
14.2400,-18.19576594
14.2450,-18.18042324
14.2500,-18.16540543
14.2550,-18.15049237
14.2600,-18.13571799
14.2650,-18.12095258
14.2700,-18.10603835
14.2750,-18.09122383
14.2800,-18.07621745
14.2850,-18.06104411
14.2900,-18.0457114
14.2950,-18.03026571
14.3000,-18.01482634
14.3050,-17.99952336
14.3100,-17.98428192
14.3150,-17.96922631
14.3200,-17.9542582
14.3250,-17.93935596
14.3300,-17.92461557
14.3350,-17.90959648
14.3400,-17.89434492
14.3450,-17.87868769
14.3500,-17.86235435
14.3550,-17.84550447
14.3600,-17.82820159
14.3650,-17.81040191
14.3700,-17.79217625
14.3750,-17.77353679
14.3800,-17.75427463
14.3850,-17.73449403
14.3900,-17.71402136
14.3950,-17.69285391
14.4000,-17.6707497
14.4050,-17.6474927
14.4100,-17.62343446
14.4150,-17.59838565
14.4200,-17.57258335
14.4250,-17.54586122
14.4300,-17.51837877
14.4350,-17.49014351
14.4400,-17.46126053
14.4450,-17.43190146
14.4500,-17.40214352
14.4550,-17.37222699
14.4600,-17.34228894
14.4650,-17.31231436
14.4700,-17.28223389
14.4750,-17.25227844
14.4800,-17.22224214
14.4850,-17.19223089
14.4900,-17.16240314
14.4950,-17.13293442
14.5000,-17.10361059
14.5050,-17.07455849
14.5100,-17.04573473
14.5150,-17.01714509
14.5200,-16.98900682
14.5250,-16.96141811
14.5300,-16.93435787
14.5350,-16.90775197
14.5400,-16.88151776
14.5450,-16.85553039
14.5500,-16.82972129
14.5550,-16.80397968
14.5600,-16.77822585
14.5650,-16.75256976
14.5700,-16.72699883
14.5750,-16.70117347
14.5800,-16.67525256
14.5850,-16.64901494
14.5900,-16.62249422
14.5950,-16.59532491
14.6000,-16.56758864
14.6050,-16.53909958
14.6100,-16.50997953
14.6150,-16.48002259
14.6200,-16.44956856
14.6250,-16.41863323
14.6300,-16.38732509
14.6350,-16.35571303
14.6400,-16.32366106
14.6450,-16.2913462
14.6500,-16.25876057
14.6550,-16.22599628
14.6600,-16.19287919
14.6650,-16.15947978
14.6700,-16.12593132
14.6750,-16.09237923
14.6800,-16.05903485
14.6850,-16.02592517
14.6900,-15.99297403
14.6950,-15.96028424
14.7000,-15.92786715
14.7050,-15.89573714
14.7100,-15.86363971
14.7150,-15.83166716
14.7200,-15.79952536
14.7250,-15.767098
14.7300,-15.73443723
14.7350,-15.70154434
14.7400,-15.668437
14.7450,-15.63523086
14.7500,-15.60188894
14.7550,-15.5681539
14.7600,-15.53420834
14.7650,-15.49992606
14.7700,-15.46571442
14.7750,-15.43161836
14.7800,-15.39780455
14.7850,-15.36448226
14.7900,-15.33139779
14.7950,-15.29845139
14.8000,-15.26564019
14.8050,-15.23276409
14.8100,-15.19987366
14.8150,-15.16682836
14.8200,-15.13346705
14.8250,-15.09954244
14.8300,-15.06490139
14.8350,-15.02951534
14.8400,-14.99332516
14.8450,-14.95637931
14.8500,-14.91853339
14.8550,-14.8800388
14.8600,-14.84107769
14.8650,-14.80175254
14.8700,-14.76222893
14.8750,-14.72292556
14.8800,-14.68386321
14.8850,-14.64540816
14.8900,-14.60774219
14.8950,-14.57119523
14.9000,-14.53601017
14.9050,-14.50249598
14.9100,-14.47059906
14.9150,-14.44080309
14.9200,-14.41287241
14.9250,-14.38689408
14.9300,-14.36264034
14.9350,-14.33986268
14.9400,-14.31833783
14.9450,-14.29763795
14.9500,-14.27765839
14.9550,-14.2578877
14.9600,-14.23821663
14.9650,-14.21853198
14.9700,-14.19866796
14.9750,-14.17841998
14.9800,-14.15740976
14.9850,-14.13532774
14.9900,-14.1122647
14.9950,-14.08805775
15.0000,-14.06283768
15.0050,-14.03655034
15.0100,-14.00915225
15.0150,-13.9806674
15.0200,-13.95112602
15.0250,-13.92066328
15.0300,-13.88905872
15.0350,-13.85640088
15.0400,-13.82272093
15.0450,-13.78786989
15.0500,-13.75176882
15.0550,-13.71461677
15.0600,-13.6766256
15.0650,-13.63807826
15.0700,-13.59885437
15.0750,-13.55899976
15.0800,-13.51847166
15.0850,-13.47731357
15.0900,-13.43570098
15.0950,-13.39393946
15.1000,-13.35243162
15.1050,-13.31122895
15.1100,-13.27065893
15.1150,-13.23087927
15.1200,-13.19177353
15.1250,-13.15363579
15.1300,-13.11648605
15.1350,-13.08044953
15.1400,-13.04564761
15.1450,-13.01215696
15.1500,-12.98029896
15.1550,-12.94992021
15.1600,-12.92116776
15.1650,-12.89399543
15.1700,-12.86844143
15.1750,-12.8446347
15.1800,-12.8224902
15.1850,-12.80195694
15.1900,-12.78302338
15.1950,-12.76581896
15.2000,-12.75008158
15.2050,-12.73597338
15.2100,-12.72349322
15.2150,-12.71229115
15.2200,-12.702285
15.2250,-12.6929646
15.2300,-12.68429245
15.2350,-12.67621901
15.2400,-12.66850768
15.2450,-12.66113509
15.2500,-12.65373509
15.2550,-12.64613488
15.2600,-12.63788929
15.2650,-12.6287636
15.2700,-12.61821991
15.2750,-12.60618642
15.2800,-12.59232265
15.2850,-12.57696065
15.2900,-12.55984578
15.2950,-12.54117592
15.3000,-12.52106367
15.3050,-12.49946331
15.3100,-12.47663044
15.3150,-12.45241657
15.3200,-12.42702055
15.3250,-12.4004978
15.3300,-12.37322783
15.3350,-12.3454386
15.3400,-12.31722779
15.3450,-12.28888923
15.3500,-12.26066426
15.3550,-12.23285773
15.3600,-12.20529995
15.3650,-12.17807062
15.3700,-12.151048
15.3750,-12.12434758
15.3800,-12.0980826
15.3850,-12.07223518
15.3900,-12.04698366
15.3950,-12.02226171
15.4000,-11.99793695
15.4050,-11.97423425
15.4100,-11.95112064
15.4150,-11.92866113
15.4200,-11.90697454
15.4250,-11.8859402
15.4300,-11.86561071
15.4350,-11.84607211
15.4400,-11.82710699
15.4450,-11.80885479
15.4500,-11.79123038
15.4550,-11.77453481
15.4600,-11.75849833
15.4650,-11.74308029
15.4700,-11.72813295
15.4750,-11.71342751
15.4800,-11.69919034
15.4850,-11.68545362
15.4900,-11.67234226
15.4950,-11.65993561
15.5000,-11.64817391
15.5050,-11.63708491
15.5100,-11.62654431
15.5150,-11.61659622
15.5200,-11.60719909
15.5250,-11.59839234
15.5300,-11.58997831
15.5350,-11.58186684
15.5400,-11.57402365
15.5450,-11.56628418
15.5500,-11.55871499
15.5550,-11.55109643
15.5600,-11.54354193
15.5650,-11.53582864
15.5700,-11.52806088
15.5750,-11.52001848
15.5800,-11.51217732
15.5850,-11.50440683
15.5900,-11.49693745
15.5950,-11.48957485
15.6000,-11.48221462
15.6050,-11.47517445
15.6100,-11.46829789
15.6150,-11.46176838
15.6200,-11.45563569
15.6250,-11.45002405
15.6300,-11.44499765
15.6350,-11.44078536
15.6400,-11.43752091
15.6450,-11.43538177
15.6500,-11.43416366
15.6550,-11.43396583
15.6600,-11.43464708
15.6650,-11.43657085
15.6700,-11.43998865
15.6750,-11.44519263
15.6800,-11.45222252
15.6850,-11.46115835
15.6900,-11.47198809
15.6950,-11.48468318
15.7000,-11.4991315
15.7050,-11.51512577
15.7100,-11.53258799
15.7150,-11.55136113
15.7200,-11.57154174
15.7250,-11.59312621
15.7300,-11.61625916
15.7350,-11.64063714
15.7400,-11.66629773
15.7450,-11.69317083
15.7500,-11.72106079
15.7550,-11.74954601
15.7600,-11.77854649
15.7650,-11.8079401
15.7700,-11.83797064
15.7750,-11.86865994
15.7800,-11.90008732
15.7850,-11.93238517
15.7900,-11.96538364
15.7950,-11.99911487
15.8000,-12.03340485
15.8050,-12.06801953
15.8100,-12.10312094
15.8150,-12.13865064
15.8200,-12.17447514
15.8250,-12.21058856
15.8300,-12.24697334
15.8350,-12.28337505
15.8400,-12.31957637
15.8450,-12.35542941
15.8500,-12.39063483
15.8550,-12.42528782
15.8600,-12.45924451
15.8650,-12.49229284
15.8700,-12.52431105
15.8750,-12.55507187
15.8800,-12.58442667
15.8850,-12.611975
15.8900,-12.63779515
15.8950,-12.66199844
15.9000,-12.68457724
15.9050,-12.70542077
15.9100,-12.72464671
15.9150,-12.74245714
15.9200,-12.75859658
15.9250,-12.77322958
15.9300,-12.78628065
15.9350,-12.79753181
15.9400,-12.80694936
15.9450,-12.81447942
15.9500,-12.82003705
15.9550,-12.82331768
15.9600,-12.82438513
15.9650,-12.82299051
15.9700,-12.81901377
15.9750,-12.81200711
15.9800,-12.80203286
15.9850,-12.78898677
15.9900,-12.77291076
15.9950,-12.75408116
16.0000,-12.73280008
16.0050,-12.70945293
16.0100,-12.68415648
16.0150,-12.65734213
16.0200,-12.6289029
16.0250,-12.59924191
16.0300,-12.56836418
16.0350,-12.53673222
16.0400,-12.50462045
16.0450,-12.47209115
16.0500,-12.43927123
16.0550,-12.40633778
16.0600,-12.3736826
16.0650,-12.34105761
16.0700,-12.30850351
16.0750,-12.27580054
16.0800,-12.24291189
16.0850,-12.20973775
16.0900,-12.17645552
16.0950,-12.14301013
16.1000,-12.10974871
16.1050,-12.07663623
16.1100,-12.0438824
16.1150,-12.01157676
16.1200,-11.98001699
16.1250,-11.94939979
16.1300,-11.91962877
16.1350,-11.89095254
16.1400,-11.86323526
16.1450,-11.83648683
16.1500,-11.81087708
16.1550,-11.78628429
16.1600,-11.7625781
16.1650,-11.74005422
16.1700,-11.71881271
16.1750,-11.69903246
16.1800,-11.680436
16.1850,-11.66316128
16.1900,-11.64712117
16.1950,-11.63241185
16.2000,-11.6188537
16.2050,-11.60642424
16.2100,-11.59517684
16.2150,-11.58497503
16.2200,-11.57579067
16.2250,-11.56774198
16.2300,-11.56076675
16.2350,-11.55493275
16.2400,-11.55031559
16.2450,-11.54689573
16.2500,-11.5448531
16.2550,-11.54421569
16.2600,-11.54495112
16.2650,-11.54686821
16.2700,-11.55003585
16.2750,-11.55451295
16.2800,-11.56003859
16.2850,-11.56677769
16.2900,-11.57476081
16.2950,-11.58342505
16.3000,-11.59284545
16.3050,-11.60271271
16.3100,-11.61327153
16.3150,-11.62412769
16.3200,-11.63559116
16.3250,-11.64757747
16.3300,-11.66012921
16.3350,-11.67323995
16.3400,-11.68692651
16.3450,-11.70100259
16.3500,-11.71560948
16.3550,-11.73075806
16.3600,-11.74623302
16.3650,-11.76256472
16.3700,-11.77951428
16.3750,-11.79727676
16.3800,-11.81570294
16.3850,-11.83476768
16.3900,-11.85436157
16.3950,-11.87440821
16.4000,-11.89484589
16.4050,-11.91556998
16.4100,-11.93639069
16.4150,-11.95736978
16.4200,-11.97844571
16.4250,-11.99935777
16.4300,-12.02021111
16.4350,-12.04099229
16.4400,-12.06224125
16.4450,-12.08389256
16.4500,-12.1058846
16.4550,-12.12840326
16.4600,-12.15161063
16.4650,-12.1753686
16.4700,-12.19968856
16.4750,-12.22447213
16.4800,-12.24989659
16.4850,-12.27569468
16.4900,-12.30199331
16.4950,-12.32849774
16.5000,-12.355379
16.5050,-12.38263162
16.5100,-12.41003789
16.5150,-12.43784851
16.5200,-12.46632815
16.5250,-12.4952838
16.5300,-12.52497806
16.5350,-12.55528506
16.5400,-12.58621241
16.5450,-12.61759033
16.5500,-12.64948965
16.5550,-12.68172535
16.5600,-12.71423675
16.5650,-12.74718096
16.5700,-12.78039805
16.5750,-12.81381722
16.5800,-12.84760208
16.5850,-12.88150198
16.5900,-12.91538637
16.5950,-12.94956955
16.6000,-12.98410386
16.6050,-13.01918376
16.6100,-13.05457098
16.6150,-13.09030001
16.6200,-13.12611962
16.6250,-13.1618948
16.6300,-13.19738689
16.6350,-13.23253494
16.6400,-13.26728588
16.6450,-13.30190888
16.6500,-13.33656259
16.6550,-13.3714351
16.6600,-13.40660225
16.6650,-13.44206695
16.6700,-13.47795711
16.6750,-13.51449512
16.6800,-13.55199941
16.6850,-13.59056624
16.6900,-13.62992738
16.6950,-13.67016212
16.7000,-13.71092594
16.7050,-13.75226055
16.7100,-13.79412098
16.7150,-13.83624637
16.7200,-13.8785582
16.7250,-13.92109255
16.7300,-13.96403739
16.7350,-14.00740517
16.7400,-14.05101495
16.7450,-14.0949334
16.7500,-14.13952804
16.7550,-14.18459927
16.7600,-14.23058023
16.7650,-14.27788498
16.7700,-14.32646111
16.7750,-14.37666518
16.7800,-14.42864047
16.7850,-14.48276814
16.7900,-14.53891665
16.7950,-14.59730847
16.8000,-14.65765536
16.8050,-14.72004565
16.8100,-14.78443456
16.8150,-14.85037302
16.8200,-14.91745243
16.8250,-14.98557287
16.8300,-15.05449673
16.8350,-15.12404535
16.8400,-15.19394682
16.8450,-15.26416711
16.8500,-15.33468014
16.8550,-15.40544156
16.8600,-15.47625085
16.8650,-15.54706067
16.8700,-15.61773821
16.8750,-15.68821347
16.8800,-15.75826549
16.8850,-15.82796686
16.8900,-15.89721213
16.8950,-15.96578871
16.9000,-16.0335973
16.9050,-16.10048493
16.9100,-16.16649739
16.9150,-16.23187252
16.9200,-16.29682777
16.9250,-16.36141113
16.9300,-16.42590607
16.9350,-16.48999958
16.9400,-16.55359799
16.9450,-16.61657269
16.9500,-16.67881732
16.9550,-16.74006997
16.9600,-16.8001852
16.9650,-16.85898937
16.9700,-16.91647607
16.9750,-16.9726298
16.9800,-17.02772596
16.9850,-17.08206512
16.9900,-17.13608643
16.9950,-17.18986657
17.0000,-17.24356139
17.0050,-17.29735575
17.0100,-17.3511387
17.0150,-17.40497453
17.0200,-17.45882402
17.0250,-17.51269118
17.0300,-17.5665306
17.0350,-17.62003996
17.0400,-17.67306537
17.0450,-17.72555395
17.0500,-17.77730864
17.0550,-17.82845781
17.0600,-17.87885428
17.0650,-17.92854851
17.0700,-17.97800219
17.0750,-18.02743018
17.0800,-18.07696392
17.0850,-18.12678823
17.0900,-18.17697335
17.0950,-18.22746609
17.1000,-18.27861897
17.1050,-18.33010126
17.1100,-18.38218665
17.1150,-18.43490386
17.1200,-18.48834418
17.1250,-18.54230401
17.1300,-18.59647092
17.1350,-18.65056225
17.1400,-18.70417302
17.1450,-18.7571079
17.1500,-18.80908956
17.1550,-18.86012022
17.1600,-18.91009457
17.1650,-18.95893579
17.1700,-19.00661271
17.1750,-19.0528429
17.1800,-19.09785949
17.1850,-19.14152389
17.1900,-19.18389035
17.1950,-19.22514578
17.2000,-19.26506478
17.2050,-19.30364998
17.2100,-19.34093861
17.2150,-19.37678654
17.2200,-19.41106307
17.2250,-19.44401684
17.2300,-19.47553036
17.2350,-19.50608337
17.2400,-19.53561819
17.2450,-19.5643363
17.2500,-19.59218381
17.2550,-19.61918299
17.2600,-19.64552824
17.2650,-19.67136376
17.2700,-19.696678
17.2750,-19.72128411
17.2800,-19.74474737
17.2850,-19.76676427
17.2900,-19.78753911
17.2950,-19.80700477
17.3000,-19.82552045
17.3050,-19.84326538
17.3100,-19.8604953
17.3150,-19.87745663
17.3200,-19.89439005
17.3250,-19.91138858
17.3300,-19.92849798
17.3350,-19.94612829
17.3400,-19.96469877
17.3450,-19.98434838
17.3500,-20.00509957
17.3550,-20.02706814
17.3600,-20.05007642
17.3650,-20.07377584
17.3700,-20.09807625
17.3750,-20.1224826
17.3800,-20.14691744
17.3850,-20.17141791
17.3900,-20.19603823
17.3950,-20.22071844
17.4000,-20.24534702
17.4050,-20.27008553
17.4100,-20.29452046
17.4150,-20.31855863
17.4200,-20.34180641
17.4250,-20.36378154
17.4300,-20.38404288
17.4350,-20.40214542
17.4400,-20.4177935
17.4450,-20.43050902
17.4500,-20.43997912
17.4550,-20.44572441
17.4600,-20.44774236
17.4650,-20.44560812
17.4700,-20.43934382
17.4750,-20.42917039
17.4800,-20.41506488
17.4850,-20.39734496
17.4900,-20.37620184
17.4950,-20.35200478
17.5000,-20.32545344
17.5050,-20.29689527
17.5100,-20.26656185
17.5150,-20.23466224
17.5200,-20.20120583
17.5250,-20.16618525
17.5300,-20.12962108
17.5350,-20.09149114
17.5400,-20.05220598
17.5450,-20.01162435
17.5500,-19.97003567
17.5550,-19.92770789
17.5600,-19.88473938
17.5650,-19.84111721
17.5700,-19.79704508
17.5750,-19.75287528
17.5800,-19.70879104
17.5850,-19.66500523
17.5900,-19.62140635
17.5950,-19.57828951
17.6000,-19.53579204
17.6050,-19.49399145
17.6100,-19.45321151
17.6150,-19.41358749
17.6200,-19.37532439
17.6250,-19.33845732
17.6300,-19.30297993
17.6350,-19.26891222
17.6400,-19.23608644
17.6450,-19.20457585
17.6500,-19.17447071
17.6550,-19.14548211
17.6600,-19.11758563
17.6650,-19.09069238
17.6700,-19.06457112
17.6750,-19.03931583
17.6800,-19.01481592
17.6850,-18.99063644
17.6900,-18.96651727
17.6950,-18.94231554
17.7000,-18.91770091
17.7050,-18.89226947
17.7100,-18.86585265
17.7150,-18.83828585
17.7200,-18.8096258
17.7250,-18.77994902
17.7300,-18.7494547
17.7350,-18.71828272
17.7400,-18.68672529
17.7450,-18.6549807
17.7500,-18.62292624
17.7550,-18.590863
17.7600,-18.55875686
17.7650,-18.52680052
17.7700,-18.49486534
17.7750,-18.46300875
17.7800,-18.43112778
17.7850,-18.39898256
17.7900,-18.36644931
17.7950,-18.33323237
17.8000,-18.29903077
17.8050,-18.26365673
17.8100,-18.22721566
17.8150,-18.18977021
17.8200,-18.15147656
17.8250,-18.11253011
17.8300,-18.0730111
17.8350,-18.03309454
17.8400,-17.9924586
17.8450,-17.95126049
17.8500,-17.90929888
17.8550,-17.86673336
17.8600,-17.82347225
17.8650,-17.77965316
17.8700,-17.7354953
17.8750,-17.69116783
17.8800,-17.64684063
17.8850,-17.60287484
17.8900,-17.559666
17.8950,-17.51718585
17.9000,-17.47560226
17.9050,-17.43511868
17.9100,-17.39573675
17.9150,-17.35752837
17.9200,-17.32035158
17.9250,-17.28431009
17.9300,-17.24929911
17.9350,-17.21525438
17.9400,-17.18213454
17.9450,-17.14977909
17.9500,-17.11812349
17.9550,-17.08722765
17.9600,-17.05729505
17.9650,-17.02821262
17.9700,-17.00006007
17.9750,-16.97273903
17.9800,-16.94620917
17.9850,-16.92060561
17.9900,-16.89593053
17.9950,-16.87231289
18.0000,-16.84990114
18.0050,-16.82891245
18.0100,-16.80976192
18.0150,-16.79254245
18.0200,-16.77744457
18.0250,-16.76475468
18.0300,-16.75472376
18.0350,-16.74750718
18.0400,-16.74321766
18.0450,-16.74186823
18.0500,-16.74336832
18.0550,-16.7475526
18.0600,-16.75406949
18.0650,-16.76256495
18.0700,-16.7727301
18.0750,-16.78404274
18.0800,-16.79626329
18.0850,-16.80918065
18.0900,-16.82265265
18.0950,-16.8365699
18.1000,-16.85067453
18.1050,-16.86498668
18.1100,-16.87912016
18.1150,-16.89301126
18.1200,-16.90671449
18.1250,-16.92003453
18.1300,-16.93306267
18.1350,-16.94568441
18.1400,-16.95813287
18.1450,-16.97038126
18.1500,-16.98240331
18.1550,-16.99434728
18.1600,-17.00635756
18.1650,-17.01866327
18.1700,-17.03114842
18.1750,-17.04393358
18.1800,-17.0571093
18.1850,-17.07071973
18.1900,-17.08465486
18.1950,-17.09888158
18.2000,-17.1133995
18.2050,-17.12804421
18.2100,-17.14270949
18.2150,-17.15716058
18.2200,-17.17151498
18.2250,-17.18558542
18.2300,-17.1991776
18.2350,-17.21250663
18.2400,-17.2254266
18.2450,-17.23801033
18.2500,-17.25020572
18.2550,-17.26221689
18.2600,-17.27390675
18.2650,-17.28541987
18.2700,-17.29664321
18.2750,-17.3076142
18.2800,-17.31835791
18.2850,-17.32884263
18.2900,-17.3389755
18.2950,-17.3486177
18.3000,-17.35766582
18.3050,-17.36595929
18.3100,-17.37327594
18.3150,-17.37963068
18.3200,-17.38485556
18.3250,-17.38890535
18.3300,-17.39149407
18.3350,-17.39286265
18.3400,-17.39275531
18.3450,-17.39110309
18.3500,-17.3880802
18.3550,-17.38350765
18.3600,-17.37750932
18.3650,-17.37021131
18.3700,-17.3616307
18.3750,-17.35201366
18.3800,-17.34129029
18.3850,-17.3296443
18.3900,-17.31696797
18.3950,-17.3031842
18.4000,-17.28833393
18.4050,-17.2723919
18.4100,-17.25542505
18.4150,-17.23741886
18.4200,-17.21836959
18.4250,-17.19830185
18.4300,-17.17734081
18.4350,-17.15560837
18.4400,-17.13321501
18.4450,-17.11047203
18.4500,-17.0877063
18.4550,-17.064955
18.4600,-17.04263664
18.4650,-17.02068339
18.4700,-16.99953704
18.4750,-16.97913182
18.4800,-16.95954488
18.4850,-16.9409098
18.4900,-16.92332847
18.4950,-16.90706044
18.5000,-16.89228337
18.5050,-16.87915372
18.5100,-16.8679896
18.5150,-16.8590448
18.5200,-16.85244773
18.5250,-16.84855295
18.5300,-16.84774063
18.5350,-16.84985747
18.5400,-16.85527612
18.5450,-16.86415997
18.5500,-16.87655519
18.5550,-16.89241985
18.5600,-16.911768
18.5650,-16.93483531
18.5700,-16.96169435
18.5750,-16.99238698
18.5800,-17.02684818
18.5850,-17.06490526
18.5900,-17.10663986
18.5950,-17.1516204
18.6000,-17.19965463
18.6050,-17.25043801
18.6100,-17.30332971
18.6150,-17.35773137
18.6200,-17.41312137
18.6250,-17.46886213
18.6300,-17.52435441
18.6350,-17.57898496
18.6400,-17.63228948
18.6450,-17.68379367
18.6500,-17.73318756
18.6550,-17.78023093
18.6600,-17.82480273
18.6650,-17.86672336
18.6700,-17.90587081
18.6750,-17.94224756
18.6800,-17.9759467
18.6850,-18.00695213
18.6900,-18.03551339
18.6950,-18.06164501
18.7000,-18.08560812
18.7050,-18.10748908
18.7100,-18.12767736
18.7150,-18.14651844
18.7200,-18.16429349
18.7250,-18.18128593
18.7300,-18.19764324
18.7350,-18.21345816
18.7400,-18.22865343
18.7450,-18.24336558
18.7500,-18.25748322
18.7550,-18.2710561
18.7600,-18.2839451
18.7650,-18.29632204
18.7700,-18.30800074
18.7750,-18.31937573
18.7800,-18.33070666
18.7850,-18.34209953
18.7900,-18.35386919
18.7950,-18.36622598
18.8000,-18.37925568
18.8050,-18.39337765
18.8100,-18.40829363
18.8150,-18.42426305
18.8200,-18.4411243
18.8250,-18.45866807
18.8300,-18.47681718
18.8350,-18.49554216
18.8400,-18.51452247
18.8450,-18.53373042
18.8500,-18.55314556
18.8550,-18.57270255
18.8600,-18.59220894
18.8650,-18.61151155
18.8700,-18.63049094
18.8750,-18.64897574
18.8800,-18.6668631
18.8850,-18.68418379
18.8900,-18.70065582
18.8950,-18.71645131
18.9000,-18.73134313
18.9050,-18.74562684
18.9100,-18.75936473
18.9150,-18.77260837
18.9200,-18.78559624
18.9250,-18.79832561
18.9300,-18.81114606
18.9350,-18.82393654
18.9400,-18.83680127
18.9450,-18.84990583
18.9500,-18.86312211
18.9550,-18.87634254
18.9600,-18.88945654
18.9650,-18.90244017
18.9700,-18.91529203
18.9750,-18.9282062
18.9800,-18.94114992
18.9850,-18.95423161
18.9900,-18.96750665
18.9950,-18.98088699
19.0000,-18.99415544
19.0050,-19.00746707
19.0100,-19.02056579
19.0150,-19.0333364
19.0200,-19.0456845
19.0250,-19.05748944
19.0300,-19.06862242
19.0350,-19.07919317
19.0400,-19.08927664
19.0450,-19.0986585
19.0500,-19.1075874
19.0550,-19.11585631
19.0600,-19.12367067
19.0650,-19.13123709
19.0700,-19.13864249
19.0750,-19.14583119
19.0800,-19.15292563
19.0850,-19.1599513
19.0900,-19.16682129
19.0950,-19.17381675
19.1000,-19.18088566
19.1050,-19.18810156
19.1100,-19.1957531
19.1150,-19.20377452
19.1200,-19.21227718
19.1250,-19.22149125
19.1300,-19.23153142
19.1350,-19.24254442
19.1400,-19.25464022
19.1450,-19.26777526
19.1500,-19.28196154
19.1550,-19.29724636
19.1600,-19.31387469
19.1650,-19.33170087
19.1700,-19.35075365
19.1750,-19.37100093
19.1800,-19.39235107
19.1850,-19.41487495
19.1900,-19.43854429
19.1950,-19.46330963
19.2000,-19.48923379
19.2050,-19.51599682
19.2100,-19.54370491
19.2150,-19.57218074
19.2200,-19.60126438
19.2250,-19.63106854
19.2300,-19.66135953
19.2350,-19.69218448
19.2400,-19.72339897
19.2450,-19.7550252
19.2500,-19.78686592
19.2550,-19.81906639
19.2600,-19.85139965
19.2650,-19.88376716
19.2700,-19.916209
19.2750,-19.94844882
19.2800,-19.98039777
19.2850,-20.01192788
19.2900,-20.04293397
19.2950,-20.07377458
19.3000,-20.10453993
19.3050,-20.13519495
19.3100,-20.16580293
19.3150,-20.19648364
19.3200,-20.22692735
19.3250,-20.25721674
19.3300,-20.2873747
19.3350,-20.31731383
19.3400,-20.34718251
19.3450,-20.37719599
19.3500,-20.40721417
19.3550,-20.43754595
19.3600,-20.46810954
19.3650,-20.49883472
19.3700,-20.52992706
19.3750,-20.56138629
19.3800,-20.59321672
19.3850,-20.6254725
19.3900,-20.65840461
19.3950,-20.6917134
19.4000,-20.72549347
19.4050,-20.75992529
19.4100,-20.79498307
19.4150,-20.83071893
19.4200,-20.86713084
19.4250,-20.90433433
19.4300,-20.94239109
19.4350,-20.9811732
19.4400,-21.02072786
19.4450,-21.06103473
19.4500,-21.1018894
19.4550,-21.14315939
19.4600,-21.18465663
19.4650,-21.22652951
19.4700,-21.26856017
19.4750,-21.31071119
19.4800,-21.3528306
19.4850,-21.39461783
19.4900,-21.43601299
19.4950,-21.47679726
19.5000,-21.51678541
19.5050,-21.55579476
19.5100,-21.59339934
19.5150,-21.62944188
19.5200,-21.66367119
19.5250,-21.69599529
19.5300,-21.72632579
19.5350,-21.7544203
19.5400,-21.78048299
19.5450,-21.80454474
19.5500,-21.82683118
19.5550,-21.84746691
19.5600,-21.86670955
19.5650,-21.8848372
19.5700,-21.9020148
19.5750,-21.91827542
19.5800,-21.93397258
19.5850,-21.94913074
19.5900,-21.96389713
19.5950,-21.97824908
19.6000,-21.99224789
19.6050,-22.00580769
19.6100,-22.01897073
19.6150,-22.03159648
19.6200,-22.04399259
19.6250,-22.05608044
19.6300,-22.06794404
19.6350,-22.07934477
19.6400,-22.09017025
19.6450,-22.10003417
19.6500,-22.10892842
19.6550,-22.1167076
19.6600,-22.12324743
19.6650,-22.12864487
19.6700,-22.13282129
19.6750,-22.13573976
19.6800,-22.13737774
19.6850,-22.13779803
19.6900,-22.13703802
19.6950,-22.13530823
19.7000,-22.13276344
19.7050,-22.12921053
19.7100,-22.12496789
19.7150,-22.12006899
19.7200,-22.11459348
19.7250,-22.10853055
19.7300,-22.10179956
19.7350,-22.09430671
19.7400,-22.0860357
19.7450,-22.07694509
19.7500,-22.06716209
19.7550,-22.05676408
19.7600,-22.04582776
19.7650,-22.03405862
19.7700,-22.02154728
19.7750,-22.00820448
19.7800,-21.99408557
19.7850,-21.9790221
19.7900,-21.96319126
19.7950,-21.94672401
19.8000,-21.92959477
19.8050,-21.91205141
19.8100,-21.89438355
19.8150,-21.87690394
19.8200,-21.85991956
19.8250,-21.84355915
19.8300,-21.82780807
19.8350,-21.81291716
19.8400,-21.79862809
19.8450,-21.78457168
19.8500,-21.77082993
19.8550,-21.75729735
19.8600,-21.74403383
19.8650,-21.73090653
19.8700,-21.71786414
19.8750,-21.70475799
19.8800,-21.69154169
19.8850,-21.67804302
19.8900,-21.66419106
19.8950,-21.64986481
19.9000,-21.63493615
19.9050,-21.61933234
19.9100,-21.60294129
19.9150,-21.58565599
19.9200,-21.56745938
19.9250,-21.54826485
19.9300,-21.52810084
19.9350,-21.50695259
19.9400,-21.48512951
19.9450,-21.46275013
19.9500,-21.43993733
19.9550,-21.41647193
19.9600,-21.39233067
19.9650,-21.36730337
19.9700,-21.3412919
19.9750,-21.31445107
19.9800,-21.28700843
19.9850,-21.25876662
19.9900,-21.22964658
19.9950,-21.19965764
20.0000,-21.16861879
20.0050,-21.1366475
20.0100,-21.10347476
20.0150,-21.06933904
20.0200,-21.03426035
20.0250,-20.99834945
20.0300,-20.96168777
20.0350,-20.92456771
20.0400,-20.88701101
20.0450,-20.84913068
20.0500,-20.81074203
20.0550,-20.77194815
20.0600,-20.73278632
20.0650,-20.69357098
20.0700,-20.65423663
20.0750,-20.61482263
20.0800,-20.57535415
20.0850,-20.53607892
20.0900,-20.49681789
20.0950,-20.45765308
20.1000,-20.41871639
20.1050,-20.37994177
20.1100,-20.34126571
20.1150,-20.30256328
20.1200,-20.2636415
20.1250,-20.22433586
20.1300,-20.18476171
20.1350,-20.14469304
20.1400,-20.10443876
20.1450,-20.06399229
20.1500,-20.02319324
20.1550,-19.98192252
20.1600,-19.93998153
20.1650,-19.89714783
20.1700,-19.85316546
20.1750,-19.80803384
20.1800,-19.76141211
20.1850,-19.71323363
20.1900,-19.66331918
20.1950,-19.61167025
20.2000,-19.55830514
20.2050,-19.50324104
20.2100,-19.44677066
20.2150,-19.38890088
20.2200,-19.3297276
20.2250,-19.26925378
20.2300,-19.20743843
20.2350,-19.14469364
20.2400,-19.08093023
20.2450,-19.01641886
20.2500,-18.95130561
20.2550,-18.8862966
20.2600,-18.82170683
20.2650,-18.75766748
20.2700,-18.69442036
20.2750,-18.63206589
20.2800,-18.57035745
20.2850,-18.50964343
20.2900,-18.44990774
20.2950,-18.39134528
20.3000,-18.33413681
20.3050,-18.27829511
20.3100,-18.22389734
20.3150,-18.17050776
20.3200,-18.11827862
20.3250,-18.06692251
20.3300,-18.01653648
20.3350,-17.96688796
20.3400,-17.91791125
20.3450,-17.86960784
20.3500,-17.8222993
20.3550,-17.77605817
20.3600,-17.73073717
20.3650,-17.68596836
20.3700,-17.64199847
20.3750,-17.59881691
20.3800,-17.55663738
20.3850,-17.5153425
20.3900,-17.47488643
20.3950,-17.43503819
20.4000,-17.39572252
20.4050,-17.35671856
20.4100,-17.31815801
20.4150,-17.27989973
20.4200,-17.24192006
20.4250,-17.20397864
20.4300,-17.16609094
20.4350,-17.12831605
20.4400,-17.09029371
20.4450,-17.05231458
20.4500,-17.01424163
20.4550,-16.97612336
20.4600,-16.93786569
20.4650,-16.89951368
20.4700,-16.86097065
20.4750,-16.82213852
20.4800,-16.78303729
20.4850,-16.74365784
20.4900,-16.70399388
20.4950,-16.6638771
20.5000,-16.62310835
20.5050,-16.58173746
20.5100,-16.53964762
20.5150,-16.49689411
20.5200,-16.45359082
20.5250,-16.41000092
20.5300,-16.36642274
20.5350,-16.32281177
20.5400,-16.2792807
20.5450,-16.2360322
20.5500,-16.19318729
20.5550,-16.15063102
20.5600,-16.10839038
20.5650,-16.06664629
20.5700,-16.02548457
20.5750,-15.98487461
20.5800,-15.94516067
20.5850,-15.90621331
20.5900,-15.86800118
20.5950,-15.83047521
20.6000,-15.79349907
20.6050,-15.75689564
20.6100,-15.72068088
20.6150,-15.68485462
20.6200,-15.64898867
20.6250,-15.61321952
20.6300,-15.57728786
20.6350,-15.54127555
20.6400,-15.50535186
20.6450,-15.46949546
20.6500,-15.43357644
20.6550,-15.39745772
20.6600,-15.3613987
20.6650,-15.3257236
20.6700,-15.2903987
20.6750,-15.25544252
20.6800,-15.22077208
20.6850,-15.18654777
20.6900,-15.15266404
20.6950,-15.11921524
20.7000,-15.08600802
20.7050,-15.05310114
20.7100,-15.02021212
20.7150,-14.9872997
20.7200,-14.95440513
20.7250,-14.92169771
20.7300,-14.88892434
20.7350,-14.85602703
20.7400,-14.82296235
20.7450,-14.78945624
20.7500,-14.75578534
20.7550,-14.72169985
20.7600,-14.68722558
20.7650,-14.65200581
20.7700,-14.61611669
20.7750,-14.57922995
20.7800,-14.54132396
20.7850,-14.50231766
20.7900,-14.46217698
20.7950,-14.42081233
20.8000,-14.3784999
20.8050,-14.3351907
20.8100,-14.29072562
20.8150,-14.24525604
20.8200,-14.19885093
20.8250,-14.15132913
20.8300,-14.10273389
20.8350,-14.05325634
20.8400,-14.00296342
20.8450,-13.95186566
20.8500,-13.89998238
20.8550,-13.84774597
20.8600,-13.79509894
20.8650,-13.74257049
20.8700,-13.6903708
20.8750,-13.63876945
20.8800,-13.58794803
20.8850,-13.53813806
20.8900,-13.48953771
20.8950,-13.44241143
20.9000,-13.3970893
20.9050,-13.35324809
20.9100,-13.31082445
20.9150,-13.26971156
20.9200,-13.23008395
20.9250,-13.1917417
20.9300,-13.15482685
20.9350,-13.11914626
20.9400,-13.08456625
20.9450,-13.05089347
20.9500,-13.01828942
20.9550,-12.98672486
20.9600,-12.95614217
20.9650,-12.92637863
20.9700,-12.89740457
20.9750,-12.86942273
20.9800,-12.84228793
20.9850,-12.8155808
20.9900,-12.7894939
20.9950,-12.76390269
21.0000,-12.73886944
21.0050,-12.71434586
21.0100,-12.69024694
21.0150,-12.66664854
21.0200,-12.64352018
21.0250,-12.62055013
21.0300,-12.59775018
21.0350,-12.57491327
21.0400,-12.55201111
21.0450,-12.52883277
21.0500,-12.50474435
21.0550,-12.47960373
21.0600,-12.4532137
21.0650,-12.42578157
21.0700,-12.39697876
21.0750,-12.36698182
21.0800,-12.33557345
21.0850,-12.30289308
21.0900,-12.26863164
21.0950,-12.23298579
21.1000,-12.19561974
21.1050,-12.15654103
21.1100,-12.1157433
21.1150,-12.07302907
21.1200,-12.02832875
21.1250,-11.98190691
21.1300,-11.93373296
21.1350,-11.88377003
21.1400,-11.83212043
21.1450,-11.77893465
21.1500,-11.72424591
21.1550,-11.66790886
21.1600,-11.61029744
21.1650,-11.55128772
21.1700,-11.49097983
21.1750,-11.42924972
21.1800,-11.36587706
21.1850,-11.3007043
21.1900,-11.23358186
21.1950,-11.16429548
21.2000,-11.09262057
21.2050,-11.01905588
21.2100,-10.94384219
21.2150,-10.86768104
21.2200,-10.79064067
21.2250,-10.71295407
21.2300,-10.63476307
21.2350,-10.55665343
21.2400,-10.47873102
21.2450,-10.40144892
21.2500,-10.32461423
21.2550,-10.24850499
21.2600,-10.17292074
21.2650,-10.09828669
21.2700,-10.02473685
21.2750,-9.952221467
21.2800,-9.88112128
21.2850,-9.811932299
21.2900,-9.7444551
21.2950,-9.678626889
21.3000,-9.614534914
21.3050,-9.551877587
21.3100,-9.490629871
21.3150,-9.43060673
21.3200,-9.371610577
21.3250,-9.313806431
21.3300,-9.257014413
21.3350,-9.201126164
21.3400,-9.145863149
21.3450,-9.090989974
21.3500,-9.036604126
21.3550,-8.982779579
21.3600,-8.929335019
21.3650,-8.876140775
21.3700,-8.823328562
21.3750,-8.770763283
21.3800,-8.718626831
21.3850,-8.666656912
21.3900,-8.61498399
21.3950,-8.563610205
21.4000,-8.512634379
21.4050,-8.461977175
21.4100,-8.411731136
21.4150,-8.361851888
21.4200,-8.312195912
21.4250,-8.262728889
21.4300,-8.213432656
21.4350,-8.16440604
21.4400,-8.115464478
21.4450,-8.066641665
21.4500,-8.017941042
21.4550,-7.969229651
21.4600,-7.920407737
21.4650,-7.87104337
21.4700,-7.82127029
21.4750,-7.771132843
21.4800,-7.720682885
21.4850,-7.670139884
21.4900,-7.619770513
21.4950,-7.569523889
21.5000,-7.519525624
21.5050,-7.469756296
21.5100,-7.420068391
21.5150,-7.370239351
21.5200,-7.320309471
21.5250,-7.270151817
21.5300,-7.219865508
21.5350,-7.169165038
21.5400,-7.118317004
21.5450,-7.067243216
21.5500,-7.016186304
21.5550,-6.965167441
21.5600,-6.914334833
21.5650,-6.863631011
21.5700,-6.812981625
21.5750,-6.762671907
21.5800,-6.712318844
21.5850,-6.661878062
21.5900,-6.611438604
21.5950,-6.561134418
21.6000,-6.511101254
21.6050,-6.461678824
21.6100,-6.412848198
21.6150,-6.364818068
21.6200,-6.317612893
21.6250,-6.271320269
21.6300,-6.225974135
21.6350,-6.181899711
21.6400,-6.139330136
21.6450,-6.098478153
21.6500,-6.059505532
21.6550,-6.022456311
21.6600,-5.98740699
21.6650,-5.954433673
21.6700,-5.923476958
21.6750,-5.894519939
21.6800,-5.867353134
21.6850,-5.842061315
21.6900,-5.818619314
21.6950,-5.797017059
21.7000,-5.777541302
21.7050,-5.760052715
21.7100,-5.744691767
21.7150,-5.731615735
21.7200,-5.720840834
21.7250,-5.712510322
21.7300,-5.706469981
21.7350,-5.702861046
21.7400,-5.701788272
21.7450,-5.703196858
21.7500,-5.707065765
21.7550,-5.713449779
21.7600,-5.722370063
21.7650,-5.734260863
21.7700,-5.748673559
21.7750,-5.765414416
21.7800,-5.784556478
21.7850,-5.805814839
21.7900,-5.829024801
21.7950,-5.85411922
21.8000,-5.881073903
21.8050,-5.90971744
21.8100,-5.940139605
21.8150,-5.97225808
21.8200,-6.00615928
21.8250,-6.041547937
21.8300,-6.078326553
21.8350,-6.116480117
21.8400,-6.155883876
21.8450,-6.196566079
21.8500,-6.23855653
21.8550,-6.28157684
21.8600,-6.325759864
21.8650,-6.371032742
21.8700,-6.417469028
21.8750,-6.464874109
21.8800,-6.51366657
21.8850,-6.563904225
21.8900,-6.615737442
21.8950,-6.668979046
21.9000,-6.723603597
21.9050,-6.77939443
21.9100,-6.836631828
21.9150,-6.894989769
21.9200,-6.95448069
21.9250,-7.014752777
21.9300,-7.075787306
21.9350,-7.137413148
21.9400,-7.199585784
21.9450,-7.262220985
21.9500,-7.325477175
21.9550,-7.389176204
21.9600,-7.453460264
21.9650,-7.518242547
21.9700,-7.583828477
21.9750,-7.650272254
21.9800,-7.717622667
21.9850,-7.78597231
21.9900,-7.855305815
21.9950,-7.92543841
22.0000,-7.995905747
22.0050,-8.066768721
22.0100,-8.137802433
22.0150,-8.209040659
22.0200,-8.280567477
22.0250,-8.352317506
22.0300,-8.424458801
22.0350,-8.496849002
22.0400,-8.569433295
22.0450,-8.642312068
22.0500,-8.715659412
22.0550,-8.789593211
22.0600,-8.864186315
22.0650,-8.939306913
22.0700,-9.015125633
22.0750,-9.091410835
22.0800,-9.168082703
22.0850,-9.244868996
22.0900,-9.321666815
22.0950,-9.39840864
22.1000,-9.475040445
22.1050,-9.55137235
22.1100,-9.627313108
22.1150,-9.702629999
22.1200,-9.777242932
22.1250,-9.851673151
22.1300,-9.925932914
22.1350,-10.00019046
22.1400,-10.07458946
22.1450,-10.14920027
22.1500,-10.22420163
22.1550,-10.29974267
22.1600,-10.37589416
22.1650,-10.45251195
22.1700,-10.52943095
22.1750,-10.60662214
22.1800,-10.68393188
22.1850,-10.76101341
22.1900,-10.83786009
22.1950,-10.91473922
22.2000,-10.99141141
22.2050,-11.06817876
22.2100,-11.14480744
22.2150,-11.22136062
22.2200,-11.29803479
22.2250,-11.3750809
22.2300,-11.45254585
22.2350,-11.53037136
22.2400,-11.60853794
22.2450,-11.68719071
22.2500,-11.76602445
22.2550,-11.84487816
22.2600,-11.92369887
22.2650,-12.0022106
22.2700,-12.08027013
22.2750,-12.15774149
22.2800,-12.23479126
22.2850,-12.31125537
22.2900,-12.387206
22.2950,-12.46282913
22.3000,-12.53834758
22.3050,-12.61399819
22.3100,-12.68988045
22.3150,-12.76596555
22.3200,-12.84221834
22.3250,-12.91867526
22.3300,-12.99523582
22.3350,-13.0718428
22.3400,-13.14870083
22.3450,-13.225494
22.3500,-13.30214439
22.3550,-13.37840213
22.3600,-13.45417211
22.3650,-13.52915229
22.3700,-13.60376587
22.3750,-13.67842161
22.3800,-13.75307366
22.3850,-13.82810662
22.3900,-13.90367002
22.3950,-13.97984704
22.4000,-14.05635942
22.4050,-14.13335458
22.4100,-14.21053716
22.4150,-14.28782509
22.4200,-14.36510672
22.4250,-14.44209772
22.4300,-14.51854678
22.4350,-14.59414724
22.4400,-14.66881195
22.4450,-14.74219015
22.4500,-14.81430951
22.4550,-14.8853782
22.4600,-14.95549142
22.4650,-15.02507776
22.4700,-15.09437907
22.4750,-15.16370169
22.4800,-15.23320066
22.4850,-15.30295134
22.4900,-15.37307618
22.4950,-15.44330302
22.5000,-15.51360622
22.5050,-15.58377803
22.5100,-15.65350564
22.5150,-15.72281892
22.5200,-15.79149263
22.5250,-15.85938791
22.5300,-15.92642897
22.5350,-15.99267978
22.5400,-16.05822168
22.5450,-16.12304961
22.5500,-16.18748016
22.5550,-16.2518769
22.5600,-16.31616483
22.5650,-16.38058856
22.5700,-16.44498873
22.5750,-16.50945031
22.5800,-16.57376592
22.5850,-16.63777757
22.5900,-16.70131636
22.5950,-16.76424133
22.6000,-16.82634707
22.6050,-16.88746069
22.6100,-16.94754325
22.6150,-17.00669891
22.6200,-17.06503149
22.6250,-17.12246747
22.6300,-17.17919923
22.6350,-17.23527156
22.6400,-17.29046811
22.6450,-17.34489035
22.6500,-17.39852325
22.6550,-17.4513279
22.6600,-17.50298911
22.6650,-17.55364052
22.6700,-17.60266249
22.6750,-17.65005729
22.6800,-17.69579632
22.6850,-17.73997702
22.6900,-17.78248576
22.6950,-17.82332488
22.7000,-17.86282815
22.7050,-17.90095668
22.7100,-17.93822077
22.7150,-17.97468374
22.7200,-18.01067392
22.7250,-18.04626765
22.7300,-18.08170132
22.7350,-18.116983
22.7400,-18.15199699
22.7450,-18.18684867
22.7500,-18.22127539
22.7550,-18.25506348
22.7600,-18.28814264
22.7650,-18.32027323
22.7700,-18.3515647
22.7750,-18.38183042
22.7800,-18.41075228
22.7850,-18.43845919
22.7900,-18.4646857
22.7950,-18.48955612
22.8000,-18.51306242
22.8050,-18.53529172
22.8100,-18.55655855
22.8150,-18.57680266
22.8200,-18.59612324
22.8250,-18.6144448
22.8300,-18.63172565
22.8350,-18.6478984
22.8400,-18.66310142
22.8450,-18.67724003
22.8500,-18.69036355
22.8550,-18.70238181
22.8600,-18.7134278
22.8650,-18.72366019
22.8700,-18.73308507
22.8750,-18.74183869
22.8800,-18.74995921
22.8850,-18.75742611
22.8900,-18.76438873
22.8950,-18.77097422
22.9000,-18.77721703
22.9050,-18.78322346
22.9100,-18.78898869
22.9150,-18.79437135
22.9200,-18.79935281
22.9250,-18.80381761
22.9300,-18.80754936
22.9350,-18.81039166
22.9400,-18.81228079
22.9450,-18.8130408
22.9500,-18.81257194
22.9550,-18.81070289
22.9600,-18.80751287
22.9650,-18.80291353
22.9700,-18.79713692
22.9750,-18.79006112
22.9800,-18.78178149
22.9850,-18.7723917
22.9900,-18.76206982
22.9950,-18.7509563
23.0000,-18.73907266
23.0050,-18.7265258
23.0100,-18.71333053
23.0150,-18.69966261
23.0200,-18.6855148
23.0250,-18.67095456
23.0300,-18.65587777
23.0350,-18.6405798
23.0400,-18.62497313
23.0450,-18.6092345
23.0500,-18.59330343
23.0550,-18.57701533
23.0600,-18.56040245
23.0650,-18.54312998
23.0700,-18.52498816
23.0750,-18.50563005
23.0800,-18.48497531
23.0850,-18.46313031
23.0900,-18.44017164
23.0950,-18.41613483
23.1000,-18.39138411
23.1050,-18.36618459
23.1100,-18.3410362
23.1150,-18.31648758
23.1200,-18.29278634
23.1250,-18.27029207
23.1300,-18.24930229
23.1350,-18.22989331
23.1400,-18.21182916
23.1450,-18.19520698
23.1500,-18.17975029
23.1550,-18.16513818
23.1600,-18.15124005
23.1650,-18.13770346
23.1700,-18.12431632
23.1750,-18.11094172
23.1800,-18.09744697
23.1850,-18.08395722
23.1900,-18.07032899
23.1950,-18.05625123
23.2000,-18.0417134
23.2050,-18.02661306
23.2100,-18.01080358
23.2150,-17.99422465
23.2200,-17.97678996
23.2250,-17.95842805
23.2300,-17.93918712
23.2350,-17.91930239
23.2400,-17.89908749
23.2450,-17.8788057
23.2500,-17.85855517
23.2550,-17.83868891
23.2600,-17.81920938
23.2650,-17.8003229
23.2700,-17.78198644
23.2750,-17.76398633
23.2800,-17.74613731
23.2850,-17.72808358
23.2900,-17.70935053
23.2950,-17.68977629
23.3000,-17.66923369
23.3050,-17.6476377
23.3100,-17.62475554
23.3150,-17.60026333
23.3200,-17.57404617
23.3250,-17.54617954
23.3300,-17.51675927
23.3350,-17.48553201
23.3400,-17.45262562
23.3450,-17.41796563
23.3500,-17.38176883
23.3550,-17.3444796
23.3600,-17.30600134
23.3650,-17.26677177
23.3700,-17.22690921
23.3750,-17.18680274
23.3800,-17.14660434
23.3850,-17.10632038
23.3900,-17.06593536
23.3950,-17.02574483
23.4000,-16.98563914
23.4050,-16.94546655
23.4100,-16.90501295
23.4150,-16.86404296
23.4200,-16.82239688
23.4250,-16.78007268
23.4300,-16.73723715
23.4350,-16.69408178
23.4400,-16.65077577
23.4450,-16.60737768
23.4500,-16.56400693
23.4550,-16.52082634
23.4600,-16.47778382
23.4650,-16.43500712
23.4700,-16.39249329
23.4750,-16.35028841
23.4800,-16.30831231
23.4850,-16.26655572
23.4900,-16.2249961
23.4950,-16.18373113
23.5000,-16.14275396
23.5050,-16.10215251
23.5100,-16.06203803
23.5150,-16.02263519
23.5200,-15.98395616
23.5250,-15.94606784
23.5300,-15.90896873
23.5350,-15.8724842
23.5400,-15.83649562
23.5450,-15.80068238
23.5500,-15.76487497
23.5550,-15.728704
23.5600,-15.69208496
23.5650,-15.65477406
23.5700,-15.61656485
23.5750,-15.57744405
23.5800,-15.53740711
23.5850,-15.49647313
23.5900,-15.45494023
23.5950,-15.41286514
23.6000,-15.37039865
23.6050,-15.32762504
23.6100,-15.28463737
23.6150,-15.24178099
23.6200,-15.19920688
23.6250,-15.15692126
23.6300,-15.11494378
23.6350,-15.07351298
23.6400,-15.03270405
23.6450,-14.99281057
23.6500,-14.95391503
23.6550,-14.91618281
23.6600,-14.87969592
23.6650,-14.84443311
23.6700,-14.8103956
23.6750,-14.77770774
23.6800,-14.74627051
23.6850,-14.71605764
23.6900,-14.68729368
23.6950,-14.6600297
23.7000,-14.6344335
23.7050,-14.61070326
23.7100,-14.58894574
23.7150,-14.56955302
23.7200,-14.55287891
23.7250,-14.53908718
23.7300,-14.52834388
23.7350,-14.52078672
23.7400,-14.51657265
23.7450,-14.51582518
23.7500,-14.5185933
23.7550,-14.52481999
23.7600,-14.53447461
23.7650,-14.547303
23.7700,-14.56319995
23.7750,-14.58182012
23.7800,-14.60283241
23.7850,-14.6258761
23.7900,-14.65044038
23.7950,-14.67623505
23.8000,-14.70305362
23.8050,-14.73043279
23.8100,-14.75799164
23.8150,-14.78535254
23.8200,-14.81206306
23.8250,-14.83802308
23.8300,-14.86306556
23.8350,-14.88688586
23.8400,-14.90938231
23.8450,-14.93049199
23.8500,-14.95009035
23.8550,-14.9682559
23.8600,-14.9849468
23.8650,-15.00003307
23.8700,-15.01346175
23.8750,-15.02526345
23.8800,-15.03549917
23.8850,-15.04392876
23.8900,-15.05069691
23.8950,-15.05551222
23.9000,-15.05823211
23.9050,-15.05876042
23.9100,-15.05688556
23.9150,-15.05257663
23.9200,-15.04563801
23.9250,-15.03605519
23.9300,-15.02403232
23.9350,-15.00938733
23.9400,-14.99234584
23.9450,-14.97263915
23.9500,-14.95050036
23.9550,-14.92575741
23.9600,-14.89881817
23.9650,-14.86983985
23.9700,-14.83912245
23.9750,-14.80689856
23.9800,-14.7736615
23.9850,-14.73979377
23.9900,-14.70550028
23.9950,-14.67094206
24.0000,-14.63618422
24.0050,-14.60130499
24.0100,-14.5665952
24.0150,-14.53193806
24.0200,-14.49748828
24.0250,-14.46352388
24.0300,-14.43006132
24.0350,-14.39730674
24.0400,-14.3653924
24.0450,-14.33439698
24.0500,-14.3043262
24.0550,-14.27548995
24.0600,-14.24790646
24.0650,-14.22162403
24.0700,-14.19663693
24.0750,-14.17300533
24.0800,-14.15071299
24.0850,-14.12973552
24.0900,-14.11022025
24.0950,-14.09225891
24.1000,-14.07574717
24.1050,-14.06064559
24.1100,-14.04688456
24.1150,-14.03450169
24.1200,-14.02353908
24.1250,-14.01393795
24.1300,-14.00554821
24.1350,-13.9984148
24.1400,-13.99233364
24.1450,-13.98744941
24.1500,-13.98350328
24.1550,-13.98047443
24.1600,-13.97849195
24.1650,-13.97745766
24.1700,-13.97748334
24.1750,-13.97851139
24.1800,-13.98017172
24.1850,-13.98266075
24.1900,-13.9857504
24.1950,-13.98953269
24.2000,-13.99412137
24.2050,-13.99944284
24.2100,-14.0057323
24.2150,-14.01279702
24.2200,-14.0207221
24.2250,-14.02953384
24.2300,-14.03897417
24.2350,-14.04930088
24.2400,-14.06048395
24.2450,-14.07271554
24.2500,-14.0858633
24.2550,-14.10004806
24.2600,-14.11507577
24.2650,-14.13096684
24.2700,-14.14776506
24.2750,-14.16532621
24.2800,-14.18363059
24.2850,-14.20242016
24.2900,-14.22156636
24.2950,-14.24080786
24.3000,-14.26015941
24.3050,-14.27952699
24.3100,-14.29875671
24.3150,-14.31764818
24.3200,-14.33600001
24.3250,-14.35358506
24.3300,-14.37028178
24.3350,-14.38576692
24.3400,-14.40000546
24.3450,-14.41278219
24.3500,-14.42431247
24.3550,-14.43441772
24.3600,-14.44301427
24.3650,-14.45032966
24.3700,-14.45631085
24.3750,-14.46128775
24.3800,-14.4653516
24.3850,-14.46870703
24.3900,-14.47168078
24.3950,-14.47425557
24.4000,-14.47669329
24.4050,-14.47914255
24.4100,-14.48197569
24.4150,-14.48517437
24.4200,-14.48890093
24.4250,-14.49310613
24.4300,-14.49794692
24.4350,-14.50345232
24.4400,-14.5096279
24.4450,-14.51631958
24.4500,-14.52385803
24.4550,-14.53211543
24.4600,-14.54104279
24.4650,-14.55076854
24.4700,-14.56116546
24.4750,-14.57214868
24.4800,-14.58396919
24.4850,-14.59672649
24.4900,-14.6103722
24.4950,-14.62500122
24.5000,-14.64041078
24.5050,-14.65676737
24.5100,-14.67399038
24.5150,-14.692159
24.5200,-14.71117632
24.5250,-14.730779
24.5300,-14.75107268
24.5350,-14.77188392
24.5400,-14.79308551
24.5450,-14.81475052
24.5500,-14.83675244
24.5550,-14.85905021
24.5600,-14.88158121
24.5650,-14.9041852
24.5700,-14.92678702
24.5750,-14.94937243
24.5800,-14.97208185
24.5850,-14.99514054
24.5900,-15.01872822
24.5950,-15.0431026
24.6000,-15.0681442
24.6050,-15.09394773
24.6100,-15.12036492
24.6150,-15.14748839
24.6200,-15.17527931
24.6250,-15.20376086
24.6300,-15.23275791
24.6350,-15.26234453
24.6400,-15.2926365
24.6450,-15.32372807
24.6500,-15.3554586
24.6550,-15.38788045
24.6600,-15.42095268
24.6650,-15.45466973
24.6700,-15.48891514
24.6750,-15.52314517
24.6800,-15.55760174
24.6850,-15.5921406
24.6900,-15.62678519
24.6950,-15.66153763
24.7000,-15.6965876
24.7050,-15.73195047
24.7100,-15.76764928
24.7150,-15.80369872
24.7200,-15.84031781
24.7250,-15.87747882
24.7300,-15.91501284
24.7350,-15.95300969
24.7400,-15.9914221
24.7450,-16.030163
24.7500,-16.06909055
24.7550,-16.10816357
24.7600,-16.14718882
24.7650,-16.18612217
24.7700,-16.22477361
24.7750,-16.26327308
24.7800,-16.30169342
24.7850,-16.33985084
24.7900,-16.37790386
24.7950,-16.41587751
24.8000,-16.45403588
24.8050,-16.4922525
24.8100,-16.53065045
24.8150,-16.56934454
24.8200,-16.6083807
24.8250,-16.64804848
24.8300,-16.68843996
24.8350,-16.72959333
24.8400,-16.77159853
24.8450,-16.81430517
24.8500,-16.85769151
24.8550,-16.9016771
24.8600,-16.94623101
24.8650,-16.99138192
24.8700,-17.03698938
24.8750,-17.08302264
24.8800,-17.12899659
24.8850,-17.17484375
24.8900,-17.22043736
24.8950,-17.26547663
24.9000,-17.310037
24.9050,-17.35405744
24.9100,-17.39755227
24.9150,-17.44073063
24.9200,-17.48347619
24.9250,-17.5258069
24.9300,-17.56797653
24.9350,-17.61002127
24.9400,-17.65166907
24.9450,-17.69294883
24.9500,-17.7337631
24.9550,-17.7741773
24.9600,-17.81430854
24.9650,-17.85406765
24.9700,-17.89371206
24.9750,-17.93361255
24.9800,-17.97366275
24.9850,-18.01395124
24.9900,-18.05440438
24.9950,-18.0950092
25.0000,-18.13549763
25.0050,-18.17582484
25.0100,-18.21601863
25.0150,-18.25609791
25.0200,-18.29580502
25.0250,-18.33507462
25.0300,-18.37423044
25.0350,-18.41315648
25.0400,-18.45181851
25.0450,-18.4902573
25.0500,-18.5283749
25.0550,-18.56621901
25.0600,-18.60388757
25.0650,-18.64134007
25.0700,-18.67873906
25.0750,-18.715955
25.0800,-18.75312569
25.0850,-18.79033128
25.0900,-18.82769264
25.0950,-18.86524141
25.1000,-18.902983
25.1050,-18.94114222
25.1100,-18.9795348
25.1150,-19.01838265
25.1200,-19.05783045
25.1250,-19.09781343
25.1300,-19.13843918
25.1350,-19.17959583
25.1400,-19.22116565
25.1450,-19.26322448
25.1500,-19.30579467
25.1550,-19.34870508
25.1600,-19.39189557
25.1650,-19.43520136
25.1700,-19.47857756
25.1750,-19.52171973
25.1800,-19.56486882
25.1850,-19.60773002
25.1900,-19.65023421
25.1950,-19.69243158
25.2000,-19.73424398
25.2050,-19.77586127
25.2100,-19.81725862
25.2150,-19.85844244
25.2200,-19.89967832
25.2250,-19.94063632
25.2300,-19.98157261
25.2350,-20.02232891
25.2400,-20.06302955
25.2450,-20.10351562
25.2500,-20.14379085
25.2550,-20.18374122
25.2600,-20.22322494
25.2650,-20.2623534
25.2700,-20.30087382
25.2750,-20.33872469
25.2800,-20.37578549
25.2850,-20.41201806
25.2900,-20.44717615
25.2950,-20.48146994
25.3000,-20.51477576
25.3050,-20.54723411
25.3100,-20.57874681
25.3150,-20.58711033
25.3200,-20.59540934
25.3250,-20.60365746
25.3300,-20.61185909
25.3350,-20.62000981
25.3400,-20.62809638
25.3450,-20.63609652
25.3500,-20.64397848
25.3550,-20.65170137
25.3600,-20.65921701
25.3650,-20.66647333
25.3700,-20.67341841
25.3750,-20.68000389
25.3800,-20.68618733
25.3850,-20.69193427
25.3900,-20.69721967
25.3950,-20.70202776
25.4000,-20.70635049
25.4050,-20.71018581
25.4100,-20.71353616
25.4150,-20.71640819
25.4200,-20.71881404
25.4250,-20.7207731
25.4300,-20.72231362
25.4350,-20.72347336
