type,name,time_units,begin_time,frequency,count,units
signal,"Noraxon MyoMotion-Segments-Upper arm RT-Pitch","s",0.0000,200,5088,"deg"

time,value
0.0000,11.10355798
0.0050,11.09966773
0.0100,11.09577676
0.0150,11.09188507
0.0200,11.08752658
0.0250,11.08268835
0.0300,11.07735786
0.0350,11.07152308
0.0400,11.06517311
0.0450,11.05829959
0.0500,11.05089839
0.0550,11.04297087
0.0600,11.03452437
0.0650,11.02557277
0.0700,11.01613692
0.0750,11.00624474
0.0800,10.99593113
0.0850,10.98523818
0.0900,10.97421591
0.0950,10.96292281
0.1000,10.95142536
0.1050,10.93979692
0.1100,10.92811684
0.1150,10.91646931
0.1200,10.90494134
0.1250,10.89362105
0.1300,10.88259678
0.1350,10.87195634
0.1400,10.86178507
0.1450,10.85216256
0.1500,10.84315836
0.1550,10.82513641
0.1600,10.80775828
0.1650,10.79118043
0.1700,10.77532748
0.1750,10.76006127
0.1800,10.74552933
0.1850,10.73155189
0.1900,10.71816389
0.1950,10.70534953
0.2000,10.69298373
0.2050,10.68117754
0.2100,10.6697359
0.2150,10.65878847
0.2200,10.64829382
0.2250,10.63813019
0.2300,10.62844848
0.2350,10.61902778
0.2400,10.60992197
0.2450,10.60109743
0.2500,10.59260716
0.2550,10.5843211
0.2600,10.57638535
0.2650,10.56859769
0.2700,10.56097593
0.2750,10.55333464
0.2800,10.54576982
0.2850,10.53824072
0.2900,10.53077766
0.2950,10.52341427
0.3000,10.51612257
0.3050,10.50884998
0.3100,10.50141483
0.3150,10.49395356
0.3200,10.48651994
0.3250,10.47898012
0.3300,10.47146412
0.3350,10.46381101
0.3400,10.45623386
0.3450,10.44867439
0.3500,10.44108415
0.3550,10.43350114
0.3600,10.42604171
0.3650,10.41873548
0.3700,10.41159144
0.3750,10.4046368
0.3800,10.39790453
0.3850,10.3913758
0.3900,10.38514517
0.3950,10.37914888
0.4000,10.37331808
0.4050,10.36782542
0.4100,10.36248898
0.4150,10.35725001
0.4200,10.35236211
0.4250,10.34761747
0.4300,10.34317409
0.4350,10.3388151
0.4400,10.33453738
0.4450,10.33062065
0.4500,10.32680677
0.4550,10.32304775
0.4600,10.31957482
0.4650,10.31625363
0.4700,10.31323931
0.4750,10.31036571
0.4800,10.30778756
0.4850,10.30550636
0.4900,10.30344592
0.4950,10.30152479
0.5000,10.29981072
0.5050,10.29820011
0.5100,10.29660323
0.5150,10.29488799
0.5200,10.2930309
0.5250,10.29118936
0.5300,10.28905235
0.5350,10.28678257
0.5400,10.28417212
0.5450,10.28143624
0.5500,10.27839734
0.5550,10.27495816
0.5600,10.27117195
0.5650,10.26701418
0.5700,10.26259457
0.5750,10.25780467
0.5800,10.25256611
0.5850,10.24687402
0.5900,10.24076095
0.5950,10.23414747
0.6000,10.22694736
0.6050,10.21928347
0.6100,10.21114262
0.6150,10.20244631
0.6200,10.193161
0.6250,10.1832428
0.6300,10.17272853
0.6350,10.16162579
0.6400,10.14984993
0.6450,10.13748221
0.6500,10.12445812
0.6550,10.11087415
0.6600,10.09666732
0.6650,10.08188003
0.6700,10.0664557
0.6750,10.05031912
0.6800,10.0335893
0.6850,10.01622645
0.6900,9.998090777
0.6950,9.97943037
0.7000,9.960166782
0.7050,9.94029983
0.7100,9.91985002
0.7150,9.898991878
0.7200,9.877568452
0.7250,9.855498369
0.7300,9.832783077
0.7350,9.809577862
0.7400,9.785951537
0.7450,9.761750993
0.7500,9.737050338
0.7550,9.711824419
0.7600,9.685925635
0.7650,9.659426118
0.7700,9.632083491
0.7750,9.604136749
0.7800,9.575514854
0.7850,9.546055527
0.7900,9.515829183
0.7950,9.484835377
0.8000,9.453077089
0.8050,9.420565216
0.8100,9.38762998
0.8150,9.354186206
0.8200,9.320237901
0.8250,9.285588793
0.8300,9.250405112
0.8350,9.21474354
0.8400,9.178429659
0.8450,9.141454938
0.8500,9.103880857
0.8550,9.065773059
0.8600,9.027022752
0.8650,8.987707563
0.8700,8.947780998
0.8750,8.907221411
0.8800,8.865990257
0.8850,8.824142779
0.8900,8.781467733
0.8950,8.738097043
0.9000,8.693996018
0.9050,8.64921715
0.9100,8.60376434
0.9150,8.557667967
0.9200,8.510859952
0.9250,8.463614476
0.9300,8.415742103
0.9350,8.367459816
0.9400,8.318825076
0.9450,8.2697351
0.9500,8.220319879
0.9550,8.170724868
0.9600,8.120924299
0.9650,8.07095027
0.9700,8.020981427
0.9750,7.970971177
0.9800,7.921082144
0.9850,7.871302659
0.9900,7.821716093
0.9950,7.772221781
1.0000,7.722818467
1.0050,7.673723079
1.0100,7.624830224
1.0150,7.576090886
1.0200,7.527388089
1.0250,7.478863462
1.0300,7.430555828
1.0350,7.382418042
1.0400,7.334359581
1.0450,7.286304641
1.0500,7.238478281
1.0550,7.190739965
1.0600,7.143129482
1.0650,7.095745405
1.0700,7.048660217
1.0750,7.001840879
1.0800,6.955281414
1.0850,6.909144459
1.0900,6.863457028
1.0950,6.818294491
1.1000,6.773708193
1.1050,6.729713256
1.1100,6.686179327
1.1150,6.643244259
1.1200,6.600947239
1.1250,6.559498378
1.1300,6.518709099
1.1350,6.478731592
1.1400,6.43986169
1.1450,6.401903908
1.1500,6.365147283
1.1550,6.329578085
1.1600,6.295230743
1.1650,6.262136014
1.1700,6.230266708
1.1750,6.199726346
1.1800,6.170527895
1.1850,6.142686546
1.1900,6.116266978
1.1950,6.091111547
1.2000,6.067226585
1.2050,6.044571965
1.2100,6.023353179
1.2150,6.003365657
1.2200,5.984799189
1.2250,5.967523411
1.2300,5.951745922
1.2350,5.937311642
1.2400,5.924309569
1.2450,5.912683119
1.2500,5.902478462
1.2550,5.893567938
1.2600,5.885899034
1.2650,5.879508671
1.2700,5.874160451
1.2750,5.870088728
1.2800,5.866942204
1.2850,5.864900399
1.2900,5.863794798
1.2950,5.863637884
1.3000,5.864514492
1.3050,5.866249935
1.3100,5.86902867
1.3150,5.872792184
1.3200,5.877742742
1.3250,5.883848071
1.3300,5.891155418
1.3350,5.89974372
1.3400,5.909658692
1.3450,5.920975698
1.3500,5.933682765
1.3550,5.947863526
1.3600,5.963544023
1.3650,5.980691168
1.3700,5.999381605
1.3750,6.019420992
1.3800,6.040616622
1.3850,6.063074439
1.3900,6.08653365
1.3950,6.110992592
1.4000,6.136278536
1.4050,6.162394247
1.4100,6.189205011
1.4150,6.216796787
1.4200,6.245052647
1.4250,6.273934241
1.4300,6.30368097
1.4350,6.334081942
1.4400,6.365117229
1.4450,6.396872603
1.4500,6.429207835
1.4550,6.462060866
1.4600,6.495479348
1.4650,6.529477027
1.4700,6.564142538
1.4750,6.599505114
1.4800,6.63556502
1.4850,6.672162546
1.4900,6.709481422
1.4950,6.747499586
1.5000,6.786262783
1.5050,6.825664326
1.5100,6.865587335
1.5150,6.906062973
1.5200,6.947036378
1.5250,6.988537389
1.5300,7.030419693
1.5350,7.072831315
1.5400,7.115724983
1.5450,7.159062893
1.5500,7.202864135
1.5550,7.247065339
1.5600,7.291836402
1.5650,7.337020049
1.5700,7.382753271
1.5750,7.428951544
1.5800,7.475926093
1.5850,7.52331059
1.5900,7.571294871
1.5950,7.619791325
1.6000,7.668743792
1.6050,7.718083749
1.6100,7.767704272
1.6150,7.817620089
1.6200,7.867897678
1.6250,7.918433032
1.6300,7.969078666
1.6350,8.019905135
1.6400,8.071006776
1.6450,8.122250658
1.6500,8.173561983
1.6550,8.225013737
1.6600,8.276697318
1.6650,8.328443957
1.6700,8.380262342
1.6750,8.432244055
1.6800,8.484540216
1.6850,8.536987968
1.6900,8.589696726
1.6950,8.642614278
1.7000,8.695731422
1.7050,8.749209004
1.7100,8.802866075
1.7150,8.856646343
1.7200,8.910426394
1.7250,8.9640612
1.7300,9.017493428
1.7350,9.070675356
1.7400,9.123516844
1.7450,9.17627164
1.7500,9.228746171
1.7550,9.281075538
1.7600,9.333234646
1.7650,9.385222329
1.7700,9.436952731
1.7750,9.488366619
1.7800,9.539584667
1.7850,9.590608628
1.7900,9.641246203
1.7950,9.691591344
1.8000,9.741665925
1.8050,9.791420414
1.8100,9.840781054
1.8150,9.889890144
1.8200,9.938854672
1.8250,9.987485293
1.8300,10.03600127
1.8350,10.08429417
1.8400,10.1320964
1.8450,10.17979851
1.8500,10.22719068
1.8550,10.27436152
1.8600,10.32112732
1.8650,10.36768527
1.8700,10.41396024
1.8750,10.45999708
1.8800,10.50558183
1.8850,10.5510842
1.8900,10.59632882
1.8950,10.64142251
1.9000,10.68646324
1.9050,10.7315755
1.9100,10.77681334
1.9150,10.82230212
1.9200,10.86794932
1.9250,10.91388457
1.9300,10.96026454
1.9350,11.00687737
1.9400,11.05377469
1.9450,11.10124218
1.9500,11.14932258
1.9550,11.19797792
1.9600,11.24737699
1.9650,11.29766711
1.9700,11.34873873
1.9750,11.40057487
1.9800,11.45314854
1.9850,11.50631435
1.9900,11.56010125
1.9950,11.6142668
2.0000,11.66893809
2.0050,11.72383024
2.0100,11.77913818
2.0150,11.8347689
2.0200,11.89082191
2.0250,11.94736535
2.0300,12.00429379
2.0350,12.06165595
2.0400,12.11931861
2.0450,12.17717715
2.0500,12.23534406
2.0550,12.29380953
2.0600,12.3525253
2.0650,12.41146515
2.0700,12.47065698
2.0750,12.53019935
2.0800,12.58994494
2.0850,12.65002025
2.0900,12.71055891
2.0950,12.77156771
2.1000,12.83309973
2.1050,12.8949956
2.1100,12.95716134
2.1150,13.01956927
2.1200,13.08200307
2.1250,13.14449664
2.1300,13.20688164
2.1350,13.26918748
2.1400,13.33127384
2.1450,13.39312146
2.1500,13.45469298
2.1550,13.51602888
2.1600,13.57712859
2.1650,13.63780002
2.1700,13.69815915
2.1750,13.75808666
2.1800,13.81773093
2.1850,13.87699168
2.1900,13.9360454
2.1950,13.99488115
2.2000,14.0535838
2.2050,14.1120065
2.2100,14.17026982
2.2150,14.22814957
2.2200,14.28578545
2.2250,14.34314015
2.2300,14.4002381
2.2350,14.45716699
2.2400,14.51406533
2.2450,14.57076364
2.2500,14.62727401
2.2550,14.68372737
2.2600,14.73996563
2.2650,14.79591017
2.2700,14.8516953
2.2750,14.90731153
2.2800,14.96284634
2.2850,15.01828458
2.2900,15.07384757
2.2950,15.12966496
2.3000,15.185578
2.3050,15.24170459
2.3100,15.29800321
2.3150,15.35456747
2.3200,15.41133587
2.3250,15.46838761
2.3300,15.52566875
2.3350,15.58304817
2.3400,15.6407758
2.3450,15.69877997
2.3500,15.75696498
2.3550,15.81539808
2.3600,15.8740094
2.3650,15.93286892
2.3700,15.99175716
2.3750,16.05074545
2.3800,16.10979673
2.3850,16.16894386
2.3900,16.22813478
2.3950,16.28718783
2.4000,16.34622153
2.4050,16.40529218
2.4100,16.46457401
2.4150,16.52387006
2.4200,16.58333361
2.4250,16.64286048
2.4300,16.70249802
2.4350,16.76220782
2.4400,16.82232196
2.4450,16.8825809
2.4500,16.9431191
2.4550,17.00378285
2.4600,17.06465767
2.4650,17.12581521
2.4700,17.1871376
2.4750,17.24862524
2.4800,17.3102757
2.4850,17.37201061
2.4900,17.43376974
2.4950,17.49559492
2.5000,17.55747283
2.5050,17.61952588
2.5100,17.68172143
2.5150,17.74416539
2.5200,17.80690987
2.5250,17.8700364
2.5300,17.93354589
2.5350,17.99757551
2.5400,18.06200898
2.5450,18.1268794
2.5500,18.19228075
2.5550,18.25812702
2.5600,18.32421002
2.5650,18.39058059
2.5700,18.45721312
2.5750,18.52405645
2.5800,18.59110695
2.5850,18.65826569
2.5900,18.72548279
2.5950,18.79268854
2.6000,18.85969294
2.6050,18.92676336
2.6100,18.99365069
2.6150,19.06028156
2.6200,19.12689554
2.6250,19.19343677
2.6300,19.25990292
2.6350,19.32651752
2.6400,19.39291534
2.6450,19.45912418
2.6500,19.52514699
2.6550,19.59098057
2.6600,19.65674346
2.6650,19.72242098
2.6700,19.78808338
2.6750,19.85364069
2.6800,19.91904741
2.6850,19.98424189
2.6900,20.04904926
2.6950,20.11364092
2.7000,20.17780144
2.7050,20.24156487
2.7100,20.30484302
2.7150,20.36771396
2.7200,20.4300259
2.7250,20.4917619
2.7300,20.55297294
2.7350,20.61357329
2.7400,20.67331299
2.7450,20.73227038
2.7500,20.79031509
2.7550,20.84776776
2.7600,20.90466774
2.7650,20.96103561
2.7700,21.01689753
2.7750,21.0722672
2.7800,21.12710581
2.7850,21.18176126
2.7900,21.23598197
2.7950,21.28999664
2.8000,21.34375641
2.8050,21.39731143
2.8100,21.45075163
2.8150,21.50407268
2.8200,21.55723981
2.8250,21.61023477
2.8300,21.66319648
2.8350,21.71600111
2.8400,21.76868764
2.8450,21.82130347
2.8500,21.8736567
2.8550,21.92577386
2.8600,21.97785882
2.8650,22.02974366
2.8700,22.08158654
2.8750,22.13345728
2.8800,22.18521442
2.8850,22.23699764
2.8900,22.28869295
2.8950,22.34035204
2.9000,22.39218517
2.9050,22.44400638
2.9100,22.4960907
2.9150,22.54842138
2.9200,22.60082523
2.9250,22.65339897
2.9300,22.70606448
2.9350,22.75891751
2.9400,22.81211709
2.9450,22.86576497
2.9500,22.9198712
2.9550,22.97428018
2.9600,23.02915323
2.9650,23.08428995
2.9700,23.13978291
2.9750,23.19555707
2.9800,23.25152422
2.9850,23.30771272
2.9900,23.36416026
2.9950,23.42084108
3.0000,23.47741019
3.0050,23.53386797
3.0100,23.59014669
3.0150,23.64637819
3.0200,23.70248183
3.0250,23.75845444
3.0300,23.81419609
3.0350,23.86967456
3.0400,23.92504985
3.0450,23.98019139
3.0500,24.03521362
3.0550,24.08977741
3.0600,24.1440832
3.0650,24.19798064
3.0700,24.25162348
3.0750,24.30507296
3.0800,24.35836201
3.0850,24.41131103
3.0900,24.46403907
3.0950,24.51631456
3.1000,24.56824453
3.1050,24.61979145
3.1100,24.6709452
3.1150,24.72161762
3.1200,24.77187622
3.1250,24.82168576
3.1300,24.87084741
3.1350,24.91943894
3.1400,24.96740388
3.1450,25.01469741
3.1500,25.06149452
3.1550,25.10760863
3.1600,25.15303931
3.1650,25.19777744
3.1700,25.24170766
3.1750,25.28479516
3.1800,25.32701225
3.1850,25.3683828
3.1900,25.40879793
3.1950,25.44831249
3.2000,25.4869332
3.2050,25.5246512
3.2100,25.56131523
3.2150,25.59675705
3.2200,25.63116194
3.2250,25.6646255
3.2300,25.69719567
3.2350,25.72891162
3.2400,25.75981407
3.2450,25.78982817
3.2500,25.81924945
3.2550,25.84817964
3.2600,25.87635631
3.2650,25.9041209
3.2700,25.93148362
3.2750,25.95867276
3.2800,25.98591913
3.2850,26.01285706
3.2900,26.03968915
3.2950,26.06634817
3.3000,26.09313641
3.3050,26.11998101
3.3100,26.1468832
3.3150,26.17372065
3.3200,26.20035969
3.3250,26.22702649
3.3300,26.25339948
3.3350,26.27962226
3.3400,26.30558406
3.3450,26.33124399
3.3500,26.3565977
3.3550,26.38177968
3.3600,26.40649973
3.3650,26.43101373
3.3700,26.45518753
3.3750,26.47913266
3.3800,26.50270325
3.3850,26.52589312
3.3900,26.54887395
3.3950,26.57189707
3.4000,26.59485941
3.4050,26.61788042
3.4100,26.64080455
3.4150,26.66386145
3.4200,26.68685816
3.4250,26.70981479
3.4300,26.73278623
3.4350,26.75579224
3.4400,26.77870123
3.4450,26.8015144
3.4500,26.82413337
3.4550,26.84668391
3.4600,26.86904106
3.4650,26.89130637
3.4700,26.91340131
3.4750,26.93548309
3.4800,26.95736895
3.4850,26.97922583
3.4900,27.00099432
3.4950,27.0228298
3.5000,27.04465843
3.5050,27.06655577
3.5100,27.08866797
3.5150,27.11113834
3.5200,27.13400402
3.5250,27.15706261
3.5300,27.1803552
3.5350,27.20389758
3.5400,27.2278165
3.5450,27.25200236
3.5500,27.27621995
3.5550,27.30054262
3.5600,27.32490149
3.5650,27.34939129
3.5700,27.37388138
3.5750,27.39823628
3.5800,27.4223395
3.5850,27.44641067
3.5900,27.47023725
3.5950,27.49394226
3.6000,27.51745907
3.6050,27.54069314
3.6100,27.56363969
3.6150,27.58629778
3.6200,27.60882066
3.6250,27.63106248
3.6300,27.65321649
3.6350,27.67525088
3.6400,27.69712082
3.6450,27.71895096
3.6500,27.74074121
3.6550,27.76237884
3.6600,27.78394587
3.6650,27.80532702
3.6700,27.82672558
3.6750,27.848192
3.6800,27.86991815
3.6850,27.89203797
3.6900,27.91450693
3.6950,27.93730662
3.7000,27.9604291
3.7050,27.98398622
3.7100,28.00823196
3.7150,28.03312345
3.7200,28.05894958
3.7250,28.08583663
3.7300,28.1138686
3.7350,28.14299977
3.7400,28.17335207
3.7450,28.20489906
3.7500,28.23756183
3.7550,28.27145177
3.7600,28.30668467
3.7650,28.34324998
3.7700,28.38120302
3.7750,28.42010706
3.7800,28.46020751
3.7850,28.5011168
3.7900,28.54305103
3.7950,28.58563694
3.8000,28.6290228
3.8050,28.6729061
3.8100,28.71716263
3.8150,28.76183433
3.8200,28.80658862
3.8250,28.85143806
3.8300,28.89631766
3.8350,28.94109471
3.8400,28.98551593
3.8450,29.02943748
3.8500,29.07271047
3.8550,29.11535377
3.8600,29.15721068
3.8650,29.19803096
3.8700,29.2378576
3.8750,29.27655929
3.8800,29.31406174
3.8850,29.3502827
3.8900,29.38512397
3.8950,29.41829958
3.9000,29.44969315
3.9050,29.47918601
3.9100,29.50669964
3.9150,29.53204065
3.9200,29.55541837
3.9250,29.57662169
3.9300,29.59566065
3.9350,29.61228179
3.9400,29.62660448
3.9450,29.63862343
3.9500,29.64819237
3.9550,29.65558471
3.9600,29.66075536
3.9650,29.66380622
3.9700,29.66470985
3.9750,29.66351736
3.9800,29.66029386
3.9850,29.65494885
3.9900,29.64785796
3.9950,29.63905502
4.0000,29.6289098
4.0050,29.61724117
4.0100,29.60422342
4.0150,29.59012166
4.0200,29.57488013
4.0250,29.55869433
4.0300,29.54174705
4.0350,29.52413983
4.0400,29.50594084
4.0450,29.48734672
4.0500,29.46847378
4.0550,29.44934907
4.0600,29.42975234
4.0650,29.40980795
4.0700,29.38939185
4.0750,29.36896441
4.0800,29.34828135
4.0850,29.32772485
4.0900,29.30721798
4.0950,29.28686247
4.1000,29.26668284
4.1050,29.24669331
4.1100,29.22697223
4.1150,29.20747681
4.1200,29.18831824
4.1250,29.16945061
4.1300,29.15097225
4.1350,29.13285104
4.1400,29.11515464
4.1450,29.09803156
4.1500,29.08169893
4.1550,29.06589381
4.1600,29.05071125
4.1650,29.03625017
4.1700,29.02238931
4.1750,29.00908057
4.1800,28.99615883
4.1850,28.98366712
4.1900,28.9714349
4.1950,28.95943965
4.2000,28.94759902
4.2050,28.93604471
4.2100,28.9246557
4.2150,28.91340974
4.2200,28.90201421
4.2250,28.89030756
4.2300,28.87829563
4.2350,28.8660548
4.2400,28.85345664
4.2450,28.84031033
4.2500,28.82672382
4.2550,28.81242651
4.2600,28.79751454
4.2650,28.78200659
4.2700,28.76587827
4.2750,28.74889233
4.2800,28.73109459
4.2850,28.71249694
4.2900,28.69290772
4.2950,28.6722828
4.3000,28.65050187
4.3050,28.62770003
4.3100,28.60377893
4.3150,28.57839648
4.3200,28.55181708
4.3250,28.52385185
4.3300,28.49452735
4.3350,28.46399959
4.3400,28.43240586
4.3450,28.39972746
4.3500,28.36597994
4.3550,28.33125792
4.3600,28.2959696
4.3650,28.26018652
4.3700,28.2240027
4.3750,28.18743313
4.3800,28.15064186
4.3850,28.11354491
4.3900,28.0762722
4.3950,28.03894774
4.4000,28.00150265
4.4050,27.96404927
4.4100,27.92670911
4.4150,27.88940209
4.4200,27.8521841
4.4250,27.81508741
4.4300,27.77813027
4.4350,27.74110673
4.4400,27.70415845
4.4450,27.66722886
4.4500,27.63029586
4.4550,27.59348511
4.4600,27.55694925
4.4650,27.52049905
4.4700,27.48401693
4.4750,27.44749434
4.4800,27.41109799
4.4850,27.37476626
4.4900,27.33862567
4.4950,27.30266938
4.5000,27.26680941
4.5050,27.23108373
4.5100,27.19525806
4.5150,27.15935082
4.5200,27.12330996
4.5250,27.08729748
4.5300,27.05106957
4.5350,27.01473975
4.5400,26.97834331
4.5450,26.94206577
4.5500,26.90590093
4.5550,26.86981462
4.5600,26.83387332
4.5650,26.79802219
4.5700,26.76235395
4.5750,26.72709167
4.5800,26.69203946
4.5850,26.65725196
4.5900,26.6228867
4.5950,26.58882706
4.6000,26.55508372
4.6050,26.52160968
4.6100,26.48862291
4.6150,26.45607585
4.6200,26.42388255
4.6250,26.39208602
4.6300,26.36057159
4.6350,26.32926403
4.6400,26.29792431
4.6450,26.26658764
4.6500,26.23537817
4.6550,26.20428178
4.6600,26.17321514
4.6650,26.14212644
4.6700,26.11118129
4.6750,26.0801366
4.6800,26.04902769
4.6850,26.01792768
4.6900,25.9866864
4.6950,25.95537292
4.7000,25.92397228
4.7050,25.89248009
4.7100,25.86079654
4.7150,25.82900729
4.7200,25.79706011
4.7250,25.76497196
4.7300,25.73259508
4.7350,25.70021792
4.7400,25.66776118
4.7450,25.63534066
4.7500,25.60295175
4.7550,25.57043225
4.7600,25.537783
4.7650,25.5048973
4.7700,25.47215063
4.7750,25.4393814
4.7800,25.40674242
4.7850,25.37403761
4.7900,25.34131437
4.7950,25.30867622
4.8000,25.27617431
4.8050,25.24376012
4.8100,25.21151984
4.8150,25.1792647
4.8200,25.14694079
4.8250,25.11449221
4.8300,25.08198302
4.8350,25.04930055
4.8400,25.01662158
4.8450,24.98401756
4.8500,24.9515723
4.8550,24.91943846
4.8600,24.88745252
4.8650,24.85576933
4.8700,24.82429519
4.8750,24.79303038
4.8800,24.76211508
4.8850,24.73164129
4.8900,24.70121466
4.8950,24.67118494
4.9000,24.6413557
4.9050,24.61179219
4.9100,24.58209923
4.9150,24.55253446
4.9200,24.5229458
4.9250,24.49334911
4.9300,24.46362778
4.9350,24.43366215
4.9400,24.40362277
4.9450,24.37332937
4.9500,24.34280658
4.9550,24.31183186
4.9600,24.28023038
4.9650,24.24787153
4.9700,24.21454546
4.9750,24.18043972
4.9800,24.14569538
4.9850,24.11032945
4.9900,24.07437301
4.9950,24.0377386
5.0000,24.00034383
5.0050,23.96233959
5.0100,23.92341047
5.0150,23.88362084
5.0200,23.84292364
5.0250,23.8013558
5.0300,23.75897372
5.0350,23.71580794
5.0400,23.67185113
5.0450,23.62706342
5.0500,23.58120791
5.0550,23.53429382
5.0600,23.48628901
5.0650,23.43744507
5.0700,23.38759537
5.0750,23.33691417
5.0800,23.28516423
5.0850,23.23236027
5.0900,23.17866574
5.0950,23.12385
5.1000,23.06831056
5.1050,23.01194656
5.1100,22.95502139
5.1150,22.89777557
5.1200,22.84022319
5.1250,22.78246441
5.1300,22.72438876
5.1350,22.66596894
5.1400,22.60721287
5.1450,22.54803826
5.1500,22.48823995
5.1550,22.42789304
5.1600,22.36720461
5.1650,22.30604251
5.1700,22.24446374
5.1750,22.18234292
5.1800,22.11983879
5.1850,22.05698293
5.1900,21.99399905
5.1950,21.93068841
5.2000,21.86714266
5.2050,21.80326389
5.2100,21.73931976
5.2150,21.67514061
5.2200,21.61074162
5.2250,21.54601807
5.2300,21.48107725
5.2350,21.41583085
5.2400,21.35008612
5.2450,21.28390277
