type,name,time_units,begin_time,frequency,count,units
signal,"Noraxon MyoMotion-Segments-Forearm RT-Pitch","s",0.0000,200,5088,"deg"

time,value
0.0000,14.28009564
0.0050,14.26855966
0.0100,14.25702396
0.0150,14.24548853
0.0200,14.23355763
0.0250,14.22140176
0.0300,14.20920036
0.0350,14.19713424
0.0400,14.1853799
0.0450,14.17410514
0.0500,14.163464
0.0550,14.15359175
0.0600,14.14460173
0.0650,14.13658375
0.0700,14.1296027
0.0750,14.12369749
0.0800,14.11888133
0.0850,14.11514335
0.0900,14.11245046
0.0950,14.11074969
0.1000,14.10997078
0.1050,14.11002835
0.1100,14.11082381
0.1150,14.11224803
0.1200,14.11418485
0.1250,14.11651493
0.1300,14.11911893
0.1350,14.12187943
0.1400,14.124682
0.1450,14.12741608
0.1500,14.1299762
0.1550,14.12327934
0.1600,14.1163976
0.1650,14.10919761
0.1700,14.10177605
0.1750,14.09403802
0.1800,14.08597933
0.1850,14.07745959
0.1900,14.06844424
0.1950,14.05895497
0.2000,14.04907351
0.2050,14.03869354
0.2100,14.02784538
0.2150,14.01660951
0.2200,14.00515979
0.2250,13.99342284
0.2300,13.98136227
0.2350,13.96914704
0.2400,13.95676659
0.2450,13.94409829
0.2500,13.93140034
0.2550,13.91865763
0.2600,13.90593963
0.2650,13.89312815
0.2700,13.88025419
0.2750,13.8674491
0.2800,13.85473506
0.2850,13.84201461
0.2900,13.82950678
0.2950,13.81723097
0.3000,13.80509489
0.3050,13.7933485
0.3100,13.78186076
0.3150,13.7709167
0.3200,13.76039761
0.3250,13.75034017
0.3300,13.74089407
0.3350,13.73211631
0.3400,13.72395467
0.3450,13.71631933
0.3500,13.70939917
0.3550,13.70310749
0.3600,13.69743841
0.3650,13.69239582
0.3700,13.68802928
0.3750,13.68424348
0.3800,13.6810343
0.3850,13.67850275
0.3900,13.6765431
0.3950,13.67532388
0.4000,13.67491327
0.4050,13.67521257
0.4100,13.67634969
0.4150,13.67824649
0.4200,13.68093441
0.4250,13.6844633
0.4300,13.68869402
0.4350,13.69376256
0.4400,13.69946509
0.4450,13.70568092
0.4500,13.71266175
0.4550,13.72030121
0.4600,13.72839574
0.4650,13.73719993
0.4700,13.7465209
0.4750,13.75637887
0.4800,13.76672661
0.4850,13.7776449
0.4900,13.78898103
0.4950,13.80083113
0.5000,13.81345469
0.5050,13.82663103
0.5100,13.8404884
0.5150,13.85499701
0.5200,13.87016988
0.5250,13.88595934
0.5300,13.90232842
0.5350,13.91920063
0.5400,13.93676414
0.5450,13.95498062
0.5500,13.97376041
0.5550,13.99316066
0.5600,14.01299603
0.5650,14.0336032
0.5700,14.05497894
0.5750,14.07679956
0.5800,14.09935657
0.5850,14.12260359
0.5900,14.14661061
0.5950,14.17113689
0.6000,14.1963769
0.6050,14.22221935
0.6100,14.24877582
0.6150,14.27594432
0.6200,14.30394254
0.6250,14.33278703
0.6300,14.36248001
0.6350,14.39311588
0.6400,14.42470303
0.6450,14.45742707
0.6500,14.49114133
0.6550,14.52593339
0.6600,14.56182539
0.6650,14.59888896
0.6700,14.63714699
0.6750,14.67663925
0.6800,14.71732536
0.6850,14.75911188
0.6900,14.80224137
0.6950,14.84663143
0.7000,14.89206219
0.7050,14.93856649
0.7100,14.9862904
0.7150,15.03534803
0.7200,15.08560778
0.7250,15.13716366
0.7300,15.19017799
0.7350,15.24444981
0.7400,15.30027746
0.7450,15.35760841
0.7500,15.41640294
0.7550,15.47684424
0.7600,15.53912613
0.7650,15.60330677
0.7700,15.66946483
0.7750,15.73763448
0.7800,15.80793941
0.7850,15.8804328
0.7900,15.95534317
0.7950,16.0325568
0.8000,16.11211904
0.8050,16.19412455
0.8100,16.27845628
0.8150,16.3654123
0.8200,16.45480311
0.8250,16.54696764
0.8300,16.641922
0.8350,16.73970994
0.8400,16.84023247
0.8450,16.94356149
0.8500,17.04970409
0.8550,17.15873412
0.8600,17.27071507
0.8650,17.38560258
0.8700,17.50329171
0.8750,17.62404451
0.8800,17.74761021
0.8850,17.87422715
0.8900,18.00365977
0.8950,18.13607349
0.9000,18.27150729
0.9050,18.41000186
0.9100,18.55156319
0.9150,18.69626202
0.9200,18.843887
0.9250,18.99445657
0.9300,19.14788586
0.9350,19.30416349
0.9400,19.46318623
0.9450,19.62468182
0.9500,19.78870904
0.9550,19.95515543
0.9600,20.12379548
0.9650,20.29464208
0.9700,20.46739249
0.9750,20.64190491
0.9800,20.81799826
0.9850,20.99569359
0.9900,21.17474728
0.9950,21.35499779
1.0000,21.53651486
1.0050,21.71920562
1.0100,21.90278694
1.0150,22.08724301
1.0200,22.27253715
1.0250,22.45846452
1.0300,22.64510602
1.0350,22.83233502
1.0400,23.02012851
1.0450,23.20855671
1.0500,23.3975362
1.0550,23.58709226
1.0600,23.77710795
1.0650,23.96759692
1.0700,24.15850979
1.0750,24.34981446
1.0800,24.54147358
1.0850,24.7334313
1.0900,24.92556937
1.0950,25.11795711
1.1000,25.31050526
1.1050,25.50315063
1.1100,25.69593321
1.1150,25.88871798
1.1200,26.08163645
1.1250,26.27448228
1.1300,26.46731664
1.1350,26.66016925
1.1400,26.85297873
1.1450,27.0459091
1.1500,27.23902324
1.1550,27.43240969
1.1600,27.6261113
1.1650,27.82021785
1.1700,28.01484458
1.1750,28.21022698
1.1800,28.40638733
1.1850,28.60326997
1.1900,28.8012364
1.1950,29.00024342
1.2000,29.20022588
1.2050,29.40133447
1.2100,29.60349086
1.2150,29.80678822
1.2200,30.01133088
1.2250,30.2170735
1.2300,30.4240911
1.2350,30.63250852
1.2400,30.84222585
1.2450,31.05332875
1.2500,31.26577474
1.2550,31.47961875
1.2600,31.69468516
1.2650,31.91095106
1.2700,32.12840449
1.2750,32.34714012
1.2800,32.56699807
1.2850,32.78802598
1.2900,33.01031234
1.2950,33.23369434
1.3000,33.45819245
1.3050,33.68384434
1.3100,33.91052109
1.3150,34.13821506
1.3200,34.36679556
1.3250,34.59640153
1.3300,34.82676734
1.3350,35.05797732
1.3400,35.28999072
1.3450,35.52266176
1.3500,35.75610631
1.3550,35.99016328
1.3600,36.22490415
1.3650,36.46019833
1.3700,36.69592675
1.3750,36.93207323
1.3800,37.16861934
1.3850,37.4054334
1.3900,37.64255988
1.3950,37.87993714
1.4000,38.11739952
1.4050,38.35506576
1.4100,38.59293629
1.4150,38.83088791
1.4200,39.06887783
1.4250,39.3069469
1.4300,39.54508753
1.4350,39.78319329
1.4400,40.02142357
1.4450,40.25955404
1.4500,40.49762138
1.4550,40.73542624
1.4600,40.97276958
1.4650,41.20959794
1.4700,41.44593689
1.4750,41.68147369
1.4800,41.91632368
1.4850,42.15033878
1.4900,42.38342567
1.4950,42.61547733
1.5000,42.84663838
1.5050,43.07690681
1.5100,43.30612637
1.5150,43.53432278
1.5200,43.76150283
1.5250,43.98744601
1.5300,44.21216898
1.5350,44.43538139
1.5400,44.6572294
1.5450,44.87754269
1.5500,45.09634509
1.5550,45.31355879
1.5600,45.52940333
1.5650,45.74374161
1.5700,45.95636043
1.5750,46.16743569
1.5800,46.37702061
1.5850,46.58492212
1.5900,46.79095579
1.5950,46.99533543
1.6000,47.19786867
1.6050,47.39834718
1.6100,47.59691839
1.6150,47.79344945
1.6200,47.98794248
1.6250,48.18036104
1.6300,48.3708682
1.6350,48.55940179
1.6400,48.74595831
1.6450,48.93053992
1.6500,49.11320277
1.6550,49.29401593
1.6600,49.47310481
1.6650,49.65040905
1.6700,49.82604004
1.6750,50.00006091
1.6800,50.1725464
1.6850,50.34349328
1.6900,50.51271845
1.6950,50.68030444
1.7000,50.8463699
1.7050,51.01088018
1.7100,51.17376403
1.7150,51.33504842
1.7200,51.49465388
1.7250,51.65232995
1.7300,51.80795596
1.7350,51.96176219
1.7400,52.11348051
1.7450,52.26324721
1.7500,52.41095616
1.7550,52.55659689
1.7600,52.70032011
1.7650,52.84220023
1.7700,52.98197152
1.7750,53.11983043
1.7800,53.25574115
1.7850,53.38974359
1.7900,53.52165357
1.7950,53.65165487
1.8000,53.7796696
1.8050,53.90553123
1.8100,54.0295663
1.8150,54.15155012
1.8200,54.27161671
1.8250,54.38992982
1.8300,54.50627325
1.8350,54.62069927
1.8400,54.73315035
1.8450,54.8435474
1.8500,54.95196247
1.8550,55.05848186
1.8600,55.16303447
1.8650,55.2654589
1.8700,55.3659843
1.8750,55.46438867
1.8800,55.56065997
1.8850,55.65495713
1.8900,55.74731222
1.8950,55.83752848
1.9000,55.92578897
1.9050,56.012159
1.9100,56.0966193
1.9150,56.17902164
1.9200,56.25961042
1.9250,56.33834261
1.9300,56.4151757
1.9350,56.49023657
1.9400,56.56343144
1.9450,56.63505861
1.9500,56.70509986
1.9550,56.77350951
1.9600,56.840333
1.9650,56.90558739
1.9700,56.96933768
1.9750,57.03166509
1.9800,57.09238647
1.9850,57.15173235
1.9900,57.20970825
1.9950,57.26620724
2.0000,57.32099125
2.0050,57.37394226
2.0100,57.42506139
2.0150,57.4743605
2.0200,57.52186872
2.0250,57.56789549
2.0300,57.6124735
2.0350,57.65552262
2.0400,57.69703321
2.0450,57.73686109
2.0500,57.77512372
2.0550,57.81161053
2.0600,57.84653905
2.0650,57.87933519
2.0700,57.91027725
2.0750,57.93929023
2.0800,57.96654932
2.0850,57.99228637
2.0900,58.01657975
2.0950,58.03945337
2.1000,58.06105832
2.1050,58.08138182
2.1100,58.10042815
2.1150,58.11788945
2.1200,58.13369539
2.1250,58.14766572
2.1300,58.16011392
2.1350,58.17081279
2.1400,58.17976293
2.1450,58.186973
2.1500,58.19207159
2.1550,58.19516206
2.1600,58.19637614
2.1650,58.19586554
2.1700,58.1937058
2.1750,58.1899931
2.1800,58.1845555
2.1850,58.17740436
2.1900,58.16856553
2.1950,58.15795103
2.2000,58.14551927
2.2050,58.13111175
2.2100,58.11473299
2.2150,58.09648465
2.2200,58.07646255
2.2250,58.05474375
2.2300,58.03118743
2.2350,58.00589275
2.2400,57.97885911
2.2450,57.94994629
2.2500,57.91912983
2.2550,57.88645841
2.2600,57.85205797
2.2650,57.81605025
2.2700,57.77830589
2.2750,57.73883507
2.2800,57.69744417
2.2850,57.65420152
2.2900,57.60920917
2.2950,57.56266845
2.3000,57.51475676
2.3050,57.46545459
2.3100,57.41502943
2.3150,57.3633059
2.3200,57.31013693
2.3250,57.2554563
2.3300,57.19924703
2.3350,57.14158089
2.3400,57.08255963
2.3450,57.02245736
2.3500,56.96102059
2.3550,56.89862912
2.3600,56.83505407
2.3650,56.77063483
2.3700,56.70518804
2.3750,56.6386528
2.3800,56.570879
2.3850,56.50181296
2.3900,56.43168714
2.3950,56.3601633
2.4000,56.28725702
2.4050,56.21325216
2.4100,56.13802804
2.4150,56.06196051
2.4200,55.98494202
2.4250,55.90714783
2.4300,55.82818338
2.4350,55.74807586
2.4400,55.66688774
2.4450,55.58460636
2.4500,55.50152317
2.4550,55.41737001
2.4600,55.33218175
2.4650,55.24614275
2.4700,55.15886455
2.4750,55.0705025
2.4800,54.98122882
2.4850,54.89059509
2.4900,54.79861531
2.4950,54.70546805
2.5000,54.61107307
2.5050,54.51558412
2.5100,54.41919893
2.5150,54.32205017
2.5200,54.22406556
2.5250,54.12523223
2.5300,54.02591895
2.5350,53.92591604
2.5400,53.82526941
2.5450,53.72391827
2.5500,53.62167717
2.5550,53.51865701
2.5600,53.41474073
2.5650,53.30991314
2.5700,53.20411222
2.5750,53.09737761
2.5800,52.98988512
2.5850,52.8815614
2.5900,52.77249598
2.5950,52.66263531
2.6000,52.55198049
2.6050,52.44085907
2.6100,52.32913376
2.6150,52.21712946
2.6200,52.10481129
2.6250,51.99238818
2.6300,51.88000062
2.6350,51.7675887
2.6400,51.65517492
2.6450,51.54256801
2.6500,51.42991989
2.6550,51.31716637
2.6600,51.20446731
2.6650,51.09210547
2.6700,50.98030762
2.6750,50.86916919
2.6800,50.7584386
2.6850,50.64820426
2.6900,50.5380848
2.6950,50.42827216
2.7000,50.31858576
2.7050,50.20884306
2.7100,50.09888453
2.7150,49.98858338
2.7200,49.87795026
2.7250,49.76678896
2.7300,49.65534399
2.7350,49.54355568
2.7400,49.43135655
2.7450,49.31852452
2.7500,49.20508364
2.7550,49.0909639
2.7600,48.97612024
2.7650,48.86038099
2.7700,48.74389176
2.7750,48.62664576
2.7800,48.5085034
2.7850,48.38988939
2.7900,48.27047312
2.7950,48.1503831
2.8000,48.02976021
2.8050,47.9086769
2.8100,47.78704393
2.8150,47.6649165
2.8200,47.54226125
2.8250,47.41935613
2.8300,47.29610295
2.8350,47.17269822
2.8400,47.04911663
2.8450,46.92563368
2.8500,46.80234841
2.8550,46.67912333
2.8600,46.55603529
2.8650,46.43301637
2.8700,46.31028975
2.8750,46.18767251
2.8800,46.06524563
2.8850,45.94302261
2.8900,45.82102742
2.8950,45.69918413
2.9000,45.57748206
2.9050,45.45578741
2.9100,45.3342269
2.9150,45.21266101
2.9200,45.09125079
2.9250,44.96984252
2.9300,44.84851441
2.9350,44.72732807
2.9400,44.60638991
2.9450,44.48570839
2.9500,44.36553711
2.9550,44.24578692
2.9600,44.12635528
2.9650,44.00713792
2.9700,43.88819911
2.9750,43.76926973
2.9800,43.65057647
2.9850,43.53196082
2.9900,43.41353166
2.9950,43.29539911
3.0000,43.1776744
3.0050,43.06021249
3.0100,42.94320841
3.0150,42.82661579
3.0200,42.71041209
3.0250,42.5945772
3.0300,42.47912477
3.0350,42.36397457
3.0400,42.24917585
3.0450,42.13478717
3.0500,42.02083052
3.0550,41.90731294
3.0600,41.79427784
3.0650,41.68180085
3.0700,41.56997454
3.0750,41.45873806
3.0800,41.34833486
3.0850,41.2387019
3.0900,41.13003351
3.0950,41.02230532
3.1000,40.91556065
3.1050,40.80975277
3.1100,40.70500898
3.1150,40.60114338
3.1200,40.49840903
3.1250,40.39664394
3.1300,40.29583308
3.1350,40.1960012
3.1400,40.09733047
3.1450,39.99975839
3.1500,39.90329716
3.1550,39.80807181
3.1600,39.71410932
3.1650,39.62141919
3.1700,39.52978813
3.1750,39.4393
3.1800,39.34990348
3.1850,39.2613694
3.1900,39.17381442
3.1950,39.0871009
3.2000,39.00126292
3.2050,38.91623112
3.2100,38.83192898
3.2150,38.74838458
3.2200,38.66539283
3.2250,38.58303032
3.2300,38.50124363
3.2350,38.42005587
3.2400,38.33923379
3.2450,38.25884534
3.2500,38.17880065
3.2550,38.09919224
3.2600,38.02015634
3.2650,37.94152257
3.2700,37.86329255
3.2750,37.78567931
3.2800,37.70870257
3.2850,37.632479
3.2900,37.55706626
3.2950,37.48244976
3.3000,37.40860198
3.3050,37.33543659
3.3100,37.26306619
3.3150,37.19146727
3.3200,37.12060678
3.3250,37.05065242
3.3300,36.98139891
3.3350,36.91297301
3.3400,36.8451402
3.3450,36.77795129
3.3500,36.71108354
3.3550,36.64469059
3.3600,36.57849671
3.3650,36.51244363
3.3700,36.44652152
3.3750,36.38074323
3.3800,36.31502456
3.3850,36.24923555
3.3900,36.18347494
3.3950,36.11780168
3.4000,36.05191238
3.4050,35.98600533
3.4100,35.91991148
3.4150,35.85392156
3.4200,35.78778569
3.4250,35.72156526
3.4300,35.65543784
3.4350,35.58936699
3.4400,35.52325704
3.4450,35.45711723
3.4500,35.39118025
3.4550,35.32526646
3.4600,35.25930408
3.4650,35.19333845
3.4700,35.12753737
3.4750,35.06180257
3.4800,34.99606127
3.4850,34.93067316
3.4900,34.86520125
3.4950,34.799895
3.5000,34.73483094
3.5050,34.66996961
3.5100,34.60532564
3.5150,34.54101337
3.5200,34.47717761
3.5250,34.41373207
3.5300,34.3506553
3.5350,34.28810684
3.5400,34.22617898
3.5450,34.16482636
3.5500,34.10392397
3.5550,34.04364826
3.5600,33.98392829
3.5650,33.92474828
3.5700,33.86612372
3.5750,33.80796318
3.5800,33.75026344
3.5850,33.6929088
3.5900,33.63574366
3.5950,33.57886469
3.6000,33.52206479
3.6050,33.465498
3.6100,33.40889413
3.6150,33.35231007
3.6200,33.29564565
3.6250,33.23886743
3.6300,33.18178296
3.6350,33.12439045
3.6400,33.06675501
3.6450,33.00878483
3.6500,32.95044097
3.6550,32.89160414
3.6600,32.83239585
3.6650,32.77268908
3.6700,32.71234855
3.6750,32.65122956
3.6800,32.58926715
3.6850,32.52644064
3.6900,32.46255922
3.6950,32.39759413
3.7000,32.33168536
3.7050,32.26476874
3.7100,32.1968299
3.7150,32.12788513
3.7200,32.05782762
3.7250,31.98676789
3.7300,31.91466428
3.7350,31.84163145
3.7400,31.76760181
3.7450,31.69282488
3.7500,31.61727213
3.7550,31.5412062
3.7600,31.46460942
3.7650,31.38762624
3.7700,31.31021814
3.7750,31.23261396
3.7800,31.15481311
3.7850,31.07670032
3.7900,30.99861947
3.7950,30.9203686
3.8000,30.84198602
3.8050,30.76371175
3.8100,30.68542961
3.8150,30.6072459
3.8200,30.52904142
3.8250,30.45125903
3.8300,30.3738445
3.8350,30.29665892
3.8400,30.2198305
3.8450,30.14344848
3.8500,30.06766985
3.8550,29.99229704
3.8600,29.91741098
3.8650,29.84327012
3.8700,29.76977633
3.8750,29.69706456
3.8800,29.62505275
3.8850,29.55381676
3.8900,29.48347966
3.8950,29.41395868
3.9000,29.34521919
3.9050,29.27735175
3.9100,29.21029233
3.9150,29.14407087
3.9200,29.07866078
3.9250,29.01388365
3.9300,28.94988173
3.9350,28.88639758
3.9400,28.82334913
3.9450,28.76085469
3.9500,28.69901493
3.9550,28.63779097
3.9600,28.57699761
3.9650,28.51672232
3.9700,28.45682132
3.9750,28.39734948
3.9800,28.33819418
3.9850,28.27939756
3.9900,28.22100277
3.9950,28.16302053
4.0000,28.10538202
4.0050,28.04796548
4.0100,27.99076995
4.0150,27.93356282
4.0200,27.87659586
4.0250,27.81966116
4.0300,27.76283368
4.0350,27.70596706
4.0400,27.64938444
4.0450,27.59279163
4.0500,27.53611018
4.0550,27.47936417
4.0600,27.42256482
4.0650,27.36576384
4.0700,27.30894774
4.0750,27.25210355
4.0800,27.19534504
4.0850,27.13876891
4.0900,27.08237321
4.0950,27.02646664
4.1000,26.97108162
4.1050,26.91620098
4.1100,26.86209161
4.1150,26.80872727
4.1200,26.75639803
4.1250,26.70492287
4.1300,26.65453904
4.1350,26.60558
4.1400,26.55812482
4.1450,26.51224039
4.1500,26.46821463
4.1550,26.42611698
4.1600,26.3861779
4.1650,26.34837124
4.1700,26.31301542
4.1750,26.28009928
4.1800,26.24974469
4.1850,26.22215643
4.1900,26.19731474
4.1950,26.17535168
4.2000,26.15644188
4.2050,26.14045167
4.2100,26.12764435
4.2150,26.11796282
4.2200,26.11162853
4.2250,26.10854245
4.2300,26.10874288
4.2350,26.11242222
4.2400,26.11964315
4.2450,26.13042352
4.2500,26.14467288
4.2550,26.16219561
4.2600,26.18313929
4.2650,26.2075265
4.2700,26.23532256
4.2750,26.26640335
4.2800,26.30095667
4.2850,26.33875517
4.2900,26.37976628
4.2950,26.4238092
4.3000,26.47084379
4.3050,26.5207579
4.3100,26.57349265
4.3150,26.62899963
4.3200,26.68713084
4.3250,26.74787116
4.3300,26.81099882
4.3350,26.87669145
4.3400,26.94459833
4.3450,27.01487013
4.3500,27.08742284
4.3550,27.16224747
4.3600,27.23944515
4.3650,27.31878348
4.3700,27.40037301
4.3750,27.48412064
4.3800,27.57003877
4.3850,27.65803721
4.3900,27.74820112
4.3950,27.84026534
4.4000,27.93422132
4.4050,28.03008751
4.4100,28.12763171
4.4150,28.22695044
4.4200,28.32791921
4.4250,28.43052849
4.4300,28.53459986
4.4350,28.63990611
4.4400,28.74639016
4.4450,28.8539649
4.4500,28.96241587
4.4550,29.0719006
4.4600,29.18219544
4.4650,29.29336
4.4700,29.40519886
4.4750,29.51768823
4.4800,29.63077612
4.4850,29.74437741
4.4900,29.85848701
4.4950,29.97300091
4.5000,30.08807819
4.5050,30.20363841
4.5100,30.31957857
4.5150,30.43590614
4.5200,30.5525125
4.5250,30.66955427
4.5300,30.78697842
4.5350,30.90470827
4.5400,31.02273307
4.5450,31.14098099
4.5500,31.2595468
4.5550,31.37861125
4.5600,31.49808421
4.5650,31.61800744
4.5700,31.73833689
4.5750,31.85922191
4.5800,31.98041454
4.5850,32.1022001
4.5900,32.22456387
4.5950,32.34746784
4.6000,32.47090239
4.6050,32.59491274
4.6100,32.71938449
4.6150,32.84450784
4.6200,32.97003539
4.6250,33.0962055
4.6300,33.22299461
4.6350,33.35009201
4.6400,33.47777477
4.6450,33.60590579
4.6500,33.73447193
4.6550,33.86352436
4.6600,33.99276178
4.6650,34.12245429
4.6700,34.25246209
4.6750,34.38277018
4.6800,34.51327295
4.6850,34.64390416
4.6900,34.7745219
4.6950,34.90522062
4.7000,35.03602667
4.7050,35.1667501
4.7100,35.29773264
4.7150,35.42877112
4.7200,35.55999053
4.7250,35.69131422
4.7300,35.82299651
4.7350,35.95505412
4.7400,36.08739538
4.7450,36.22016951
4.7500,36.35340874
4.7550,36.48705321
4.7600,36.62110708
4.7650,36.75563571
4.7700,36.89060807
4.7750,37.0260935
4.7800,37.16223309
4.7850,37.29896153
4.7900,37.43648247
4.7950,37.57493119
4.8000,37.71421321
4.8050,37.85460837
4.8100,37.99617512
4.8150,38.13897032
4.8200,38.28302145
4.8250,38.42835381
4.8300,38.57488612
4.8350,38.72284433
4.8400,38.87199238
4.8450,39.02256128
4.8500,39.17453788
4.8550,39.32809173
4.8600,39.48325213
4.8650,39.63990685
4.8700,39.79837663
4.8750,39.95857187
4.8800,40.12081627
4.8850,40.28489518
4.8900,40.45090083
4.8950,40.6189075
4.9000,40.78894257
4.9050,40.96105764
4.9100,41.13532785
4.9150,41.31149928
4.9200,41.48990732
4.9250,41.67022681
4.9300,41.85262014
4.9350,42.03713296
4.9400,42.22362346
4.9450,42.41216771
4.9500,42.60274864
4.9550,42.79530556
4.9600,42.990079
4.9650,43.18677927
4.9700,43.3853492
4.9750,43.58573926
4.9800,43.787837
4.9850,43.99200698
4.9900,44.19820534
4.9950,44.40651733
5.0000,44.61681865
5.0050,44.82913769
5.0100,45.04323427
5.0150,45.25915747
5.0200,45.4766312
5.0250,45.6957696
5.0300,45.91631431
5.0350,46.13827704
5.0400,46.36173237
5.0450,46.58659239
5.0500,46.81280021
5.0550,47.04029057
5.0600,47.26907796
5.0650,47.49887758
5.0700,47.72973485
5.0750,47.96157525
5.0800,48.19416126
5.0850,48.42755244
5.0900,48.66162271
5.0950,48.89628235
5.1000,49.13124765
5.1050,49.36659688
5.1100,49.6022257
5.1150,49.83796185
5.1200,50.07382084
5.1250,50.30971252
5.1300,50.54576219
5.1350,50.78169888
5.1400,51.0176065
5.1450,51.25323604
5.1500,51.48862065
5.1550,51.72351108
5.1600,51.95807807
5.1650,52.19216511
5.1700,52.42553463
5.1750,52.65800189
5.1800,52.88922175
5.1850,53.11931413
5.1900,53.3481985
5.1950,53.57567563
5.2000,53.80184652
5.2050,54.02656049
5.2100,54.24987558
5.2150,54.47187673
5.2200,54.69228364
5.2250,54.91102901
5.2300,55.12790499
5.2350,55.34294557
5.2400,55.55617545
5.2450,55.76743207
5.2500,55.97663721
5.2550,56.18359803
5.2600,56.38817504
5.2650,56.590275
5.2700,56.79001309
5.2750,56.98731031
5.2800,57.18232056
5.2850,57.37453447
5.2900,57.56376335
5.2950,57.74985257
5.3000,57.93283949
5.3050,58.11267428
5.3100,58.28924177
5.3150,58.46214273
5.3200,58.63112408
5.3250,58.79585489
5.3300,58.9561848
5.3350,59.11191553
5.3400,59.26286149
5.3450,59.4088147
5.3500,59.5497329
5.3550,59.68538776
5.3600,59.81546974
5.3650,59.9401136
5.3700,60.05955989
5.3750,60.17431832
5.3800,60.28485654
5.3850,60.39098491
5.3900,60.49284959
5.3950,60.59047959
5.4000,60.68395867
5.4050,60.77320283
5.4100,60.85833305
5.4150,60.93960416
5.4200,61.01702523
5.4250,61.09086857
5.4300,61.16122644
5.4350,61.22829384
5.4400,61.29260313
5.4450,61.35438202
5.4500,61.413781
5.4550,61.47039708
5.4600,61.5240922
5.4650,61.57484041
5.4700,61.62260819
5.4750,61.66737909
5.4800,61.70909625
5.4850,61.74756311
5.4900,61.78272219
5.4950,61.81447943
5.5000,61.84262932
5.5050,61.86702388
5.5100,61.8875982
5.5150,61.90456111
5.5200,61.91836509
5.5250,61.92907148
5.5300,61.93673928
5.5350,61.94121747
5.5400,61.94225223
5.5450,61.93976875
5.5500,61.93357993
5.5550,61.92362072
5.5600,61.90977203
5.5650,61.8923494
5.5700,61.87125845
5.5750,61.84671077
5.5800,61.81861049
5.5850,61.78668482
5.5900,61.7508228
5.5950,61.71085414
5.6000,61.66670129
5.6050,61.61851126
5.6100,61.56648799
5.6150,61.51099381
5.6200,61.45237289
5.6250,61.39045251
5.6300,61.32536624
5.6350,61.25702976
5.6400,61.18556462
5.6450,61.11090642
5.6500,61.03325241
5.6550,60.95270307
5.6600,60.86967594
5.6650,60.78396025
5.6700,60.69561722
5.6750,60.60427691
5.6800,60.50997998
5.6850,60.41302468
5.6900,60.31336485
5.6950,60.21132547
5.7000,60.10685874
5.7050,59.99985944
5.7100,59.89073654
5.7150,59.77934638
5.7200,59.66576577
5.7250,59.55019902
5.7300,59.43242262
5.7350,59.31252705
5.7400,59.19012057
5.7450,59.06507119
5.7500,58.93722527
5.7550,58.80713774
5.7600,58.67513409
5.7650,58.54149897
5.7700,58.40636802
5.7750,58.26974102
5.7800,58.13176273
5.7850,57.99232442
5.7900,57.85123493
5.7950,57.70861405
5.8000,57.56435059
5.8050,57.41869583
5.8100,57.27148789
5.8150,57.12247479
5.8200,56.97125238
5.8250,56.81783427
5.8300,56.66221229
5.8350,56.50449878
5.8400,56.34466391
5.8450,56.1826009
5.8500,56.0182579
5.8550,55.8514835
5.8600,55.68230341
5.8650,55.51049085
5.8700,55.3359712
5.8750,55.15868525
5.8800,54.97850817
5.8850,54.79577701
5.8900,54.6109261
5.8950,54.42411935
5.9000,54.23530066
5.9050,54.04432657
5.9100,53.85123854
5.9150,53.65612838
5.9200,53.458846
5.9250,53.25976464
5.9300,53.05893716
5.9350,52.85637725
5.9400,52.65243352
5.9450,52.44735918
5.9500,52.24124609
5.9550,52.03409363
5.9600,51.82580231
5.9650,51.61659955
5.9700,51.40630942
5.9750,51.19519324
5.9800,50.98304746
5.9850,50.7698257
5.9900,50.55564275
5.9950,50.34043647
6.0000,50.12456551
6.0050,49.9081069
6.0100,49.69116789
6.0150,49.47384151
6.0200,49.25612908
6.0250,49.03800967
6.0300,48.8198216
6.0350,48.60147505
6.0400,48.38328341
6.0450,48.16520506
6.0500,47.94727815
6.0550,47.72948787
6.0600,47.51161803
6.0650,47.29367594
6.0700,47.07581149
6.0750,46.8580146
6.0800,46.64016238
6.0850,46.42253297
6.0900,46.20506549
6.0950,45.98774932
6.1000,45.77075864
6.1050,45.55386343
6.1100,45.33700813
6.1150,45.12008978
6.1200,44.90303765
6.1250,44.68573342
6.1300,44.4679098
6.1350,44.24950661
6.1400,44.03047087
6.1450,43.81067106
6.1500,43.59026063
6.1550,43.3692188
6.1600,43.14745039
6.1650,42.9251961
6.1700,42.70259543
6.1750,42.47949794
6.1800,42.2560674
6.1850,42.03210537
6.1900,41.80755906
6.1950,41.58224702
6.2000,41.35619415
6.2050,41.1296225
6.2100,40.90249158
6.2150,40.6745973
6.2200,40.44615402
6.2250,40.21711669
6.2300,39.98756552
6.2350,39.75752237
6.2400,39.52698885
6.2450,39.29595916
6.2500,39.06423758
6.2550,38.83210594
6.2600,38.59962993
6.2650,38.36682667
6.2700,38.13367624
6.2750,37.89996619
6.2800,37.66574409
6.2850,37.43111907
6.2900,37.19617001
6.2950,36.96085577
6.3000,36.72505213
6.3050,36.48879466
6.3100,36.25217601
6.3150,36.01521169
6.3200,35.77808421
6.3250,35.54086408
6.3300,35.30354992
6.3350,35.06633495
6.3400,34.82903058
6.3450,34.59175815
6.3500,34.35459032
6.3550,34.1173884
6.3600,33.88031836
6.3650,33.64327343
6.3700,33.40626948
6.3750,33.16940365
6.3800,32.93280925
6.3850,32.69645529
6.3900,32.46043254
6.3950,32.22489035
6.4000,31.9896418
6.4050,31.75497866
6.4100,31.52081827
6.4150,31.28719268
6.4200,31.05415161
6.4250,30.82178741
6.4300,30.59020438
6.4350,30.35931489
6.4400,30.12946416
6.4450,29.90067559
6.4500,29.67297537
6.4550,29.44649429
6.4600,29.22134289
6.4650,28.99737131
6.4700,28.7746688
6.4750,28.55344093
6.4800,28.33353759
6.4850,28.11525199
6.4900,27.89848567
6.4950,27.68338867
6.5000,27.46999442
6.5050,27.25847827
6.5100,27.04879703
6.5150,26.84115799
6.5200,26.63550281
6.5250,26.43190511
6.5300,26.23033635
6.5350,26.03097892
6.5400,25.83372137
6.5450,25.6385607
6.5500,25.44572864
6.5550,25.25498984
6.5600,25.06639844
6.5650,24.87980284
6.5700,24.69517232
6.5750,24.51249875
6.5800,24.33190946
6.5850,24.15334688
6.5900,23.97678489
6.5950,23.80228621
6.6000,23.62975715
6.6050,23.45933924
6.6100,23.29072733
6.6150,23.12403898
6.6200,22.95928515
6.6250,22.7963186
6.6300,22.63520932
6.6350,22.47582438
6.6400,22.31819104
6.6450,22.16224594
6.6500,22.00789199
6.6550,21.85516507
6.6600,21.70418367
6.6650,21.55486056
6.6700,21.40701784
6.6750,21.26071373
6.6800,21.11602609
6.6850,20.97272535
6.6900,20.83064582
6.6950,20.6896504
6.7000,20.5496413
6.7050,20.41043011
6.7100,20.27213339
6.7150,20.13461325
6.7200,19.99770361
6.7250,19.86128611
6.7300,19.72521406
6.7350,19.58959543
6.7400,19.45406552
6.7450,19.31861056
6.7500,19.18323355
6.7550,19.04792583
6.7600,18.9124961
6.7650,18.77687058
6.7700,18.64115309
6.7750,18.50517364
6.7800,18.36920581
6.7850,18.23299838
6.7900,18.09676673
6.7950,17.96036164
6.8000,17.82396139
6.8050,17.68737334
6.8100,17.55059464
6.8150,17.41386337
6.8200,17.27713057
6.8250,17.14052213
6.8300,17.00412656
6.8350,16.86804489
6.8400,16.73222644
6.8450,16.59690665
6.8500,16.46200026
6.8550,16.3278708
6.8600,16.19454001
6.8650,16.06238771
6.8700,15.93153014
6.8750,15.80202273
6.8800,15.67413502
6.8850,15.54785769
6.8900,15.42339004
6.8950,15.30072753
6.9000,15.18000224
6.9050,15.06137648
6.9100,14.94499524
6.9150,14.83066923
6.9200,14.71858891
6.9250,14.60888894
6.9300,14.50147975
6.9350,14.39645107
6.9400,14.29379885
6.9450,14.19337794
6.9500,14.09515541
6.9550,13.99912187
6.9600,13.90489543
6.9650,13.81252663
6.9700,13.72205579
6.9750,13.63319884
6.9800,13.54582418
6.9850,13.45991924
6.9900,13.37552276
6.9950,13.29255094
7.0000,13.21086441
7.0050,13.13046549
7.0100,13.05115489
7.0150,12.97280345
7.0200,12.89542889
7.0250,12.81887252
7.0300,12.74331244
7.0350,12.66842499
7.0400,12.59429631
7.0450,12.52086981
7.0500,12.44797066
7.0550,12.37559153
7.0600,12.30381899
7.0650,12.23265859
7.0700,12.16191674
7.0750,12.09167737
7.0800,12.02194653
7.0850,11.95293841
7.0900,11.88448214
7.0950,11.81678442
7.1000,11.74970691
7.1050,11.6835331
7.1100,11.61852461
7.1150,11.55462232
7.1200,11.4920693
7.1250,11.43082817
7.1300,11.37127726
7.1350,11.31332789
7.1400,11.25725146
7.1450,11.20307079
7.1500,11.15107851
7.1550,11.1011984
7.1600,11.05352179
7.1650,11.00794994
7.1700,10.96471399
7.1750,10.9239076
7.1800,10.88551248
7.1850,10.84963691
7.1900,10.81633298
7.1950,10.78579137
7.2000,10.75810126
7.2050,10.73311501
7.2100,10.71109564
7.2150,10.69224956
7.2200,10.67655813
7.2250,10.66382151
7.2300,10.65439076
7.2350,10.64818275
7.2400,10.64524326
7.2450,10.64599681
7.2500,10.65037634
7.2550,10.65842317
7.2600,10.67030013
7.2650,10.68622349
7.2700,10.70608943
7.2750,10.73010777
7.2800,10.75815601
7.2850,10.79050449
7.2900,10.82700524
7.2950,10.86769624
7.3000,10.91268129
7.3050,10.96180142
7.3100,11.01521832
7.3150,11.07289273
7.3200,11.13478728
7.3250,11.20086978
7.3300,11.27110837
7.3350,11.34552493
7.3400,11.42403437
7.3450,11.50656217
7.3500,11.5931832
7.3550,11.68395304
7.3600,11.77875898
7.3650,11.87740397
7.3700,11.98009902
7.3750,12.08678398
7.3800,12.19738407
7.3850,12.31168561
7.3900,12.42986141
7.3950,12.55186168
7.4000,12.67777008
7.4050,12.80740808
7.4100,12.94063729
7.4150,13.07750325
7.4200,13.2178652
7.4250,13.36162215
7.4300,13.50863244
7.4350,13.65897566
7.4400,13.81244908
7.4450,13.96887908
7.4500,14.12821115
7.4550,14.29037435
7.4600,14.45528517
7.4650,14.62310538
7.4700,14.79366184
7.4750,14.96678642
7.4800,15.14248107
7.4850,15.32060216
7.4900,15.5012768
7.4950,15.68427158
7.5000,15.8694704
7.5050,16.05702143
7.5100,16.24662299
7.5150,16.43842129
7.5200,16.63233826
7.5250,16.82854584
7.5300,17.02683775
7.5350,17.22725901
7.5400,17.42995232
7.5450,17.63453944
7.5500,17.84120978
7.5550,18.04988317
7.5600,18.26040677
7.5650,18.47263697
7.5700,18.68669397
7.5750,18.90243113
7.5800,19.11996074
7.5850,19.33895603
7.5900,19.55953216
7.5950,19.78155683
7.6000,20.00511481
7.6050,20.23007854
7.6100,20.45633324
7.6150,20.68392777
7.6200,20.9127721
7.6250,21.14274797
7.6300,21.37381189
7.6350,21.60596759
7.6400,21.83892474
7.6450,22.07294073
7.6500,22.30773365
7.6550,22.54312839
7.6600,22.77931637
7.6650,23.01626156
7.6700,23.25379558
7.6750,23.49198197
7.6800,23.73073021
7.6850,23.97006658
7.6900,24.20983211
7.6950,24.44993176
7.7000,24.69027315
7.7050,24.93083862
7.7100,25.17136337
7.7150,25.41181415
7.7200,25.65226717
7.7250,25.89264203
7.7300,26.13287825
7.7350,26.37272681
7.7400,26.61249692
7.7450,26.85203805
7.7500,27.09116597
7.7550,27.32981749
7.7600,27.56811908
7.7650,27.80572129
7.7700,28.04255087
7.7750,28.27886198
7.7800,28.51449409
7.7850,28.7495807
7.7900,28.98392345
7.7950,29.21768281
7.8000,29.45088045
7.8050,29.68348259
7.8100,29.91550442
7.8150,30.14681164
7.8200,30.37748194
7.8250,30.60743999
7.8300,30.83675805
7.8350,31.06545611
7.8400,31.29325239
7.8450,31.52037628
7.8500,31.74685617
7.8550,31.97263416
7.8600,32.1979113
7.8650,32.42268688
7.8700,32.64691546
7.8750,32.87058368
7.8800,33.09364311
7.8850,33.31610507
7.8900,33.53795032
7.8950,33.75904223
7.9000,33.97942139
7.9050,34.19916391
7.9100,34.41828925
7.9150,34.63669074
7.9200,34.85458433
7.9250,35.07213886
7.9300,35.28916151
7.9350,35.50589785
7.9400,35.72250548
7.9450,35.93874313
7.9500,36.15488586
7.9550,36.37082636
7.9600,36.58649925
7.9650,36.8019889
7.9700,37.01724459
7.9750,37.2321343
7.9800,37.44671555
7.9850,37.66120698
7.9900,37.87545209
7.9950,38.08961576
8.0000,38.30366238
8.0050,38.5173722
8.0100,38.73107011
8.0150,38.94461459
8.0200,39.15789621
8.0250,39.37081667
8.0300,39.58335821
8.0350,39.79541872
8.0400,40.0066937
8.0450,40.21741163
8.0500,40.4275742
8.0550,40.63723159
8.0600,40.84618633
8.0650,41.05485896
8.0700,41.2631391
8.0750,41.47114413
8.0800,41.67879581
8.0850,41.88587268
8.0900,42.09263941
8.0950,42.29905177
8.1000,42.50497732
8.1050,42.71051755
8.1100,42.91554771
8.1150,43.12016387
8.1200,43.32447476
8.1250,43.52857019
8.1300,43.73253994
8.1350,43.93630803
8.1400,44.13981802
8.1450,44.34305204
8.1500,44.54578045
8.1550,44.74821989
8.1600,44.95006823
8.1650,45.15120517
8.1700,45.35148312
8.1750,45.55073235
8.1800,45.74898966
8.1850,45.94642253
8.1900,46.14293952
8.1950,46.33851741
8.2000,46.53315365
8.2050,46.72660665
8.2100,46.91889925
8.2150,47.11002035
8.2200,47.29982085
8.2250,47.4883277
8.2300,47.67557765
8.2350,47.86147016
8.2400,48.04592477
8.2450,48.22897232
8.2500,48.41057152
8.2550,48.5908485
8.2600,48.76973889
8.2650,48.94729702
8.2700,49.12345402
8.2750,49.29825901
8.2800,49.47171176
8.2850,49.64365165
8.2900,49.81413061
8.2950,49.98295264
8.3000,50.15019107
8.3050,50.31584273
8.3100,50.48010032
8.3150,50.64254625
8.3200,50.80319203
8.3250,50.9619918
8.3300,51.11892493
8.3350,51.27414141
8.3400,51.42792728
8.3450,51.58005262
8.3500,51.73043454
8.3550,51.87913573
8.3600,52.02641159
8.3650,52.17223419
8.3700,52.31678317
8.3750,52.45971315
8.3800,52.60109328
8.3850,52.74117962
8.3900,52.87980631
8.3950,53.01697616
8.4000,53.15270322
8.4050,53.28704884
8.4100,53.42039114
8.4150,53.5524859
8.4200,53.68310884
8.4250,53.81228293
8.4300,53.93988186
8.4350,54.06591576
8.4400,54.19048815
8.4450,54.31351152
8.4500,54.43507661
8.4550,54.5549983
8.4600,54.67341212
8.4650,54.79019589
8.4700,54.9053494
8.4750,55.01892314
8.4800,55.13072782
8.4850,55.24050472
8.4900,55.34839482
8.4950,55.45437301
8.5000,55.55841632
8.5050,55.66075857
8.5100,55.76142327
8.5150,55.8601492
8.5200,55.95681875
8.5250,56.05104338
8.5300,56.14266317
8.5350,56.23136121
8.5400,56.31731371
8.5450,56.40034933
8.5500,56.48046049
8.5550,56.55752311
8.5600,56.63163934
8.5650,56.70277623
8.5700,56.77110453
8.5750,56.83663566
8.5800,56.89919064
8.5850,56.9586282
8.5900,57.01480258
8.5950,57.06762688
8.6000,57.11675843
8.6050,57.16204897
8.6100,57.20303113
8.6150,57.24000295
8.6200,57.27308812
8.6250,57.30259512
8.6300,57.32849423
8.6350,57.35067668
8.6400,57.36933534
8.6450,57.38476313
8.6500,57.39738263
8.6550,57.40715175
8.6600,57.4140153
8.6650,57.41790873
8.6700,57.41902141
8.6750,57.41758579
8.6800,57.41372094
8.6850,57.40759441
8.6900,57.39944721
8.6950,57.3896526
8.7000,57.37849729
8.7050,57.3660567
8.7100,57.35236749
8.7150,57.3376476
8.7200,57.32193975
8.7250,57.30548354
8.7300,57.288274
8.7350,57.27061424
8.7400,57.25262956
8.7450,57.23445813
8.7500,57.2164251
8.7550,57.19871771
8.7600,57.18182709
8.7650,57.1658943
8.7700,57.15124613
8.7750,57.1378976
8.7800,57.12595696
8.7850,57.11526825
8.7900,57.10550469
8.7950,57.09686304
8.8000,57.08877797
8.8050,57.08097255
8.8100,57.07323809
8.8150,57.0656806
8.8200,57.05793154
8.8250,57.0499516
8.8300,57.04147301
8.8350,57.03214783
8.8400,57.02174291
8.8450,57.01025435
8.8500,56.99757171
8.8550,56.98380168
8.8600,56.96896261
8.8650,56.95289093
8.8700,56.93515119
8.8750,56.91572057
8.8800,56.89445992
8.8850,56.87130723
8.8900,56.84603912
8.8950,56.81858938
8.9000,56.78907929
8.9050,56.75743503
8.9100,56.72381386
8.9150,56.68794147
8.9200,56.64946252
8.9250,56.60812062
8.9300,56.56377914
8.9350,56.51659552
8.9400,56.46659923
8.9450,56.41385813
8.9500,56.35834125
8.9550,56.30008656
8.9600,56.2391196
8.9650,56.17554498
8.9700,56.10922149
8.9750,56.04023344
8.9800,55.96873784
8.9850,55.894639
8.9900,55.81821532
8.9950,55.73935475
9.0000,55.65814834
9.0050,55.57450463
9.0100,55.48849571
9.0150,55.40015346
9.0200,55.30983385
9.0250,55.21750738
9.0300,55.12337323
9.0350,55.027225
9.0400,54.92916659
9.0450,54.82927382
9.0500,54.72760601
9.0550,54.62418978
9.0600,54.51874933
9.0650,54.4112556
9.0700,54.30161137
9.0750,54.1901534
9.0800,54.07701177
9.0850,53.96243719
9.0900,53.84661615
9.0950,53.72948947
9.1000,53.61118159
9.1050,53.49238116
9.1100,53.37296351
9.1150,53.25304772
9.1200,53.13281894
9.1250,53.01235928
9.1300,52.89171008
9.1350,52.77121409
9.1400,52.65087795
9.1450,52.53057977
9.1500,52.41028104
9.1550,52.28967401
9.1600,52.16870616
9.1650,52.04738345
9.1700,51.92586212
9.1750,51.80412133
9.1800,51.68221516
9.1850,51.56025093
9.1900,51.43840562
9.1950,51.31684806
9.2000,51.19559361
9.2050,51.0746038
9.2100,50.95351509
9.2150,50.832403
9.2200,50.71147363
9.2250,50.5905799
9.2300,50.47014114
9.2350,50.35010207
9.2400,50.23042846
9.2450,50.11095121
9.2500,49.99142077
9.2550,49.87200731
9.2600,49.75254028
9.2650,49.63291597
9.2700,49.51319422
9.2750,49.39344505
9.2800,49.27360664
9.2850,49.15392313
9.2900,49.03430024
9.2950,48.91467775
9.3000,48.79513917
9.3050,48.67575154
9.3100,48.55651669
9.3150,48.43750161
9.3200,48.31839959
9.3250,48.1993776
9.3300,48.08037334
9.3350,47.96159242
9.3400,47.84285394
9.3450,47.72429096
9.3500,47.60579225
9.3550,47.48729447
9.3600,47.36875899
9.3650,47.25033464
9.3700,47.13203667
9.3750,47.01375507
9.3800,46.89550012
9.3850,46.77748565
9.3900,46.65980906
9.3950,46.5425008
9.4000,46.42563094
9.4050,46.30870956
9.4100,46.1917445
9.4150,46.0746021
9.4200,45.957241
9.4250,45.83972522
9.4300,45.72227377
9.4350,45.60505152
9.4400,45.48799393
9.4450,45.37153852
9.4500,45.25575579
9.4550,45.14072141
9.4600,45.02640869
9.4650,44.91316703
9.4700,44.80097888
9.4750,44.68973406
9.4800,44.57966682
9.4850,44.47066038
9.4900,44.36274493
9.4950,44.25586406
9.5000,44.14982644
9.5050,44.0447748
9.5100,43.94089795
9.5150,43.83839945
9.5200,43.73714494
9.5250,43.63732611
9.5300,43.53854476
9.5350,43.44084812
9.5400,43.34424476
9.5450,43.24879663
9.5500,43.15447157
9.5550,43.06120173
9.5600,42.96897863
9.5650,42.87770895
9.5700,42.7873913
9.5750,42.69814898
9.5800,42.61006186
9.5850,42.52302501
9.5900,42.43699683
9.5950,42.35218043
9.6000,42.26856228
9.6050,42.18613531
9.6100,42.10501914
9.6150,42.02499113
9.6200,41.94614802
9.6250,41.86846918
9.6300,41.79194138
9.6350,41.71627706
9.6400,41.64173126
9.6450,41.56825476
9.6500,41.49560738
9.6550,41.42370349
9.6600,41.35267124
9.6650,41.28245173
9.6700,41.21324903
9.6750,41.14486667
9.6800,41.07735393
9.6850,41.01032356
9.6900,40.94371551
9.6950,40.87729268
9.7000,40.81121155
9.7050,40.74546275
9.7100,40.68024768
9.7150,40.61552655
9.7200,40.55135323
9.7250,40.48760907
9.7300,40.42432147
9.7350,40.36137099
9.7400,40.298699
9.7450,40.23626427
9.7500,40.17417157
9.7550,40.11249115
9.7600,40.05118073
9.7650,39.99008198
9.7700,39.92915805
9.7750,39.86845498
9.7800,39.8079769
9.7850,39.74771533
9.7900,39.687788
9.7950,39.62836096
9.8000,39.56944232
9.8050,39.51101974
9.8100,39.453354
9.8150,39.39619585
9.8200,39.33981023
9.8250,39.2843005
9.8300,39.22998933
9.8350,39.17679897
9.8400,39.12491926
9.8450,39.0742498
9.8500,39.0250311
9.8550,38.97729647
9.8600,38.93122181
9.8650,38.88705847
9.8700,38.844845
9.8750,38.80455937
9.8800,38.76625503
9.8850,38.73001548
9.8900,38.69579819
9.8950,38.6636217
9.9000,38.63356985
9.9050,38.6057741
9.9100,38.57999132
9.9150,38.55647755
9.9200,38.53519935
9.9250,38.51604411
9.9300,38.49899115
9.9350,38.48425321
9.9400,38.47165343
9.9450,38.46128881
9.9500,38.45303074
9.9550,38.44694428
9.9600,38.4429488
9.9650,38.44088038
9.9700,38.44043431
9.9750,38.44175196
9.9800,38.44467203
9.9850,38.44912827
9.9900,38.45494277
9.9950,38.46209135
10.0000,38.47030125
10.0050,38.47946099
10.0100,38.48937686
10.0150,38.499951
10.0200,38.5112218
10.0250,38.52320062
10.0300,38.53593507
10.0350,38.54934909
10.0400,38.56353202
10.0450,38.57836798
10.0500,38.59371825
10.0550,38.60965346
10.0600,38.62630611
10.0650,38.64378922
10.0700,38.6620804
10.0750,38.68142448
10.0800,38.70188745
10.0850,38.72375217
10.0900,38.74697719
10.0950,38.77158749
10.1000,38.79778113
10.1050,38.82574091
10.1100,38.85536716
10.1150,38.88703366
10.1200,38.92062133
10.1250,38.95614176
10.1300,38.99381595
10.1350,39.0337832
10.1400,39.07597963
10.1450,39.1205082
10.1500,39.16745655
10.1550,39.21671664
10.1600,39.26808956
10.1650,39.32172612
10.1700,39.37755676
10.1750,39.43552487
10.1800,39.49567911
10.1850,39.55789468
10.1900,39.62212522
10.1950,39.68827814
10.2000,39.75643515
10.2050,39.82615135
10.2100,39.89743087
10.2150,39.97021604
10.2200,40.04434717
10.2250,40.11988575
10.2300,40.19666525
10.2350,40.27461235
10.2400,40.35359707
10.2450,40.43331569
10.2500,40.51402999
10.2550,40.59554459
10.2600,40.67765702
10.2650,40.76051929
10.2700,40.84413277
10.2750,40.92836137
10.2800,41.01318731
10.2850,41.09858663
10.2900,41.18448222
10.2950,41.27090034
10.3000,41.3577288
10.3050,41.44498837
10.3100,41.53267553
10.3150,41.62076957
10.3200,41.70905069
10.3250,41.79749251
10.3300,41.88594556
10.3350,41.97426311
10.3400,42.06258034
10.3450,42.15096326
10.3500,42.23934486
10.3550,42.32772577
10.3600,42.41599623
10.3650,42.50403392
10.3700,42.59196989
10.3750,42.67977957
10.3800,42.76730449
10.3850,42.85457971
10.3900,42.94160962
10.3950,43.02840791
10.4000,43.11510078
10.4050,43.20157401
10.4100,43.28794764
10.4150,43.37408769
10.4200,43.46013588
10.4250,43.54609524
10.4300,43.631615
10.4350,43.71680133
10.4400,43.80169403
10.4450,43.88627213
10.4500,43.97055664
10.4550,44.05458836
10.4600,44.13867276
10.4650,44.22253424
10.4700,44.30637212
10.4750,44.39032016
10.4800,44.47410868
10.4850,44.55799082
10.4900,44.64191917
10.4950,44.72600134
10.5000,44.81008535
10.5050,44.89458259
10.5100,44.9795336
10.5150,45.06503299
10.5200,45.15116392
10.5250,45.23788267
10.5300,45.32534074
10.5350,45.41365005
10.5400,45.5030224
10.5450,45.59353925
10.5500,45.68530254
10.5550,45.77840603
10.5600,45.87302649
10.5650,45.96897646
10.5700,46.0662926
10.5750,46.16479423
10.5800,46.2643162
10.5850,46.36489141
10.5900,46.46656874
10.5950,46.56933509
10.6000,46.67312055
10.6050,46.77824569
10.6100,46.88456915
10.6150,46.99220533
10.6200,47.10126967
10.6250,47.21190192
10.6300,47.32423562
10.6350,47.43845859
10.6400,47.5543776
10.6450,47.67192507
10.6500,47.79124428
10.6550,47.91208537
10.6600,48.0345699
10.6650,48.15862883
10.6700,48.2841248
10.6750,48.41117762
10.6800,48.53966449
10.6850,48.66956403
10.6900,48.80099134
10.6950,48.93382348
10.7000,49.06787982
10.7050,49.20322224
10.7100,49.33971385
10.7150,49.47715995
10.7200,49.6152883
10.7250,49.75422742
10.7300,49.89379848
10.7350,50.03403662
10.7400,50.17458358
10.7450,50.31527637
10.7500,50.4561253
10.7550,50.59730722
10.7600,50.73865398
10.7650,50.8805535
10.7700,51.02265522
10.7750,51.16489894
10.7800,51.30728241
10.7850,51.44959692
10.7900,51.59204702
10.7950,51.73426023
10.8000,51.87611928
10.8050,52.01750674
10.8100,52.15822955
10.8150,52.29815187
10.8200,52.43727411
10.8250,52.5752997
10.8300,52.71200257
10.8350,52.84738197
10.8400,52.98132305
10.8450,53.11376601
10.8500,53.2444708
10.8550,53.37354096
10.8600,53.50095683
10.8650,53.6270085
10.8700,53.75161394
10.8750,53.87518539
10.8800,53.99769395
10.8850,54.11912346
10.8900,54.23941259
10.8950,54.35861976
10.9000,54.47701785
10.9050,54.59418134
10.9100,54.71044995
10.9150,54.82589587
10.9200,54.94078936
10.9250,55.05530433
10.9300,55.1695952
10.9350,55.28381601
10.9400,55.39830849
10.9450,55.51303912
10.9500,55.62808176
10.9550,55.74363179
10.9600,55.8594042
10.9650,55.9757484
10.9700,56.09276949
10.9750,56.21046899
10.9800,56.32902968
10.9850,56.44840238
10.9900,56.56831238
10.9950,56.68884555
11.0000,56.81004469
11.0050,56.93185934
11.0100,57.05416421
11.0150,57.17692369
11.0200,57.30025983
11.0250,57.42398498
11.0300,57.54813584
11.0350,57.67243663
11.0400,57.79720917
11.0450,57.92237314
11.0500,58.04775396
11.0550,58.17342438
11.0600,58.2988867
11.0650,58.42366397
11.0700,58.54762034
11.0750,58.67055641
11.0800,58.79246486
11.0850,58.91289923
11.0900,59.03134248
11.0950,59.14774721
11.1000,59.2619926
11.1050,59.37395247
11.1100,59.48361419
11.1150,59.59067979
11.1200,59.69488286
11.1250,59.79615823
11.1300,59.89455363
11.1350,59.98961421
11.1400,60.08121021
11.1450,60.16925941
11.1500,60.2537691
11.1550,60.33446878
11.1600,60.41109596
11.1650,60.48343632
11.1700,60.55144679
11.1750,60.61521782
11.1800,60.6748101
11.1850,60.73037383
11.1900,60.78184274
11.1950,60.82921959
11.2000,60.87255892
11.2050,60.91200607
11.2100,60.94717774
11.2150,60.97801152
11.2200,61.00408735
11.2250,61.02511994
11.2300,61.04090888
11.2350,61.05149033
11.2400,61.05693282
11.2450,61.0573583
11.2500,61.05290185
11.2550,61.04378505
11.2600,61.03006962
11.2650,61.01162872
11.2700,60.98849805
11.2750,60.96053167
11.2800,60.92783653
11.2850,60.89060902
11.2900,60.84916825
11.2950,60.80368017
11.3000,60.75435605
11.3050,60.70128371
11.3100,60.64463069
11.3150,60.58443302
11.3200,60.52056347
11.3250,60.4532312
11.3300,60.38243911
11.3350,60.30827213
11.3400,60.23062547
11.3450,60.14967835
11.3500,60.06572267
11.3550,59.97860958
11.3600,59.88877833
11.3650,59.79636056
11.3700,59.70174236
11.3750,59.60486057
11.3800,59.50568391
11.3850,59.40482243
11.3900,59.30226927
11.3950,59.19803668
11.4000,59.09202427
11.4050,58.98402299
11.4100,58.87406138
11.4150,58.76237178
11.4200,58.64910412
11.4250,58.53463672
11.4300,58.41890797
11.4350,58.30212668
11.4400,58.18424453
11.4450,58.06517222
11.4500,57.94488999
11.4550,57.82338923
11.4600,57.70088172
11.4650,57.57720405
11.4700,57.45243513
11.4750,57.32657205
11.4800,57.19968853
11.4850,57.07196688
11.4900,56.94343048
11.4950,56.81412642
11.5000,56.68398283
11.5050,56.55297469
11.5100,56.42133973
11.5150,56.28909143
11.5200,56.15637892
11.5250,56.02333047
11.5300,55.88990811
11.5350,55.755797
11.5400,55.62082512
11.5450,55.48502138
11.5500,55.34811529
11.5550,55.2102547
11.5600,55.07150055
11.5650,54.93184763
11.5700,54.79146174
11.5750,54.6505281
11.5800,54.50898327
11.5850,54.36676177
11.5900,54.22362913
11.5950,54.07951752
11.6000,53.93445543
11.6050,53.78828586
11.6100,53.64108099
11.6150,53.49285355
11.6200,53.34378474
11.6250,53.19384716
11.6300,53.04311839
11.6350,52.89173681
11.6400,52.73969271
11.6450,52.58682007
11.6500,52.43307009
11.6550,52.27815004
11.6600,52.12202187
11.6650,51.9648258
11.6700,51.80658716
11.6750,51.64737236
11.6800,51.4874022
11.6850,51.32639647
11.6900,51.16436113
11.6950,51.00146325
11.7000,50.8375127
11.7050,50.67285736
11.7100,50.5074271
11.7150,50.34113637
11.7200,50.17388443
11.7250,50.00537175
11.7300,49.83579723
11.7350,49.66493699
11.7400,49.49256139
11.7450,49.31893517
11.7500,49.14389699
11.7550,48.96760365
11.7600,48.78989795
11.7650,48.61078959
11.7700,48.43021012
11.7750,48.24789186
11.7800,48.06398528
11.7850,47.87842495
11.7900,47.69140117
11.7950,47.50287492
11.8000,47.3129994
11.8050,47.12186412
11.8100,46.92954357
11.8150,46.736045
11.8200,46.54123943
11.8250,46.34512746
11.8300,46.14737963
11.8350,45.94828097
11.8400,45.74766905
11.8450,45.54566158
11.8500,45.34249991
11.8550,45.13802425
11.8600,44.93205282
11.8650,44.72470501
11.8700,44.51579252
11.8750,44.30527994
11.8800,44.09303464
11.8850,43.87898074
11.8900,43.66340827
11.8950,43.44607199
11.9000,43.22718718
11.9050,43.00679259
11.9100,42.78487906
11.9150,42.56170653
11.9200,42.33721596
11.9250,42.11165745
11.9300,41.88492783
11.9350,41.65701511
11.9400,41.42796583
11.9450,41.19815885
11.9500,40.96751113
11.9550,40.73639152
11.9600,40.50498115
11.9650,40.27323536
11.9700,40.04116554
11.9750,39.80889831
11.9800,39.57621248
11.9850,39.34336092
11.9900,39.11031716
11.9950,38.87711563
12.0000,38.64401732
12.0050,38.41075603
12.0100,38.17752233
12.0150,37.94423979
12.0200,37.71102083
12.0250,37.47783516
12.0300,37.24469078
12.0350,37.01160026
12.0400,36.77869586
12.0450,36.54587433
12.0500,36.3132274
12.0550,36.08064708
12.0600,35.84817952
12.0650,35.61591321
12.0700,35.38390003
12.0750,35.15236207
12.0800,34.92134629
12.0850,34.69085519
12.0900,34.46089809
12.0950,34.23147797
12.1000,34.00255699
12.1050,33.77418915
12.1100,33.54620739
12.1150,33.31865174
12.1200,33.09144733
12.1250,32.86463618
12.1300,32.63836746
12.1350,32.41239046
12.1400,32.18676545
12.1450,31.96133976
12.1500,31.7358543
12.1550,31.51038201
12.1600,31.28500819
12.1650,31.0596797
12.1700,30.83433829
12.1750,30.60915352
12.1800,30.38429666
12.1850,30.15995422
12.1900,29.93599119
12.1950,29.71276791
12.2000,29.4901294
12.2050,29.26818575
12.2100,29.04707067
12.2150,28.82675959
12.2200,28.60724755
12.2250,28.38857869
12.2300,28.1708953
12.2350,27.95422053
12.2400,27.73877846
12.2450,27.52417779
12.2500,27.31061941
12.2550,27.09797712
12.2600,26.88631497
12.2650,26.67559381
12.2700,26.46584105
12.2750,26.25691769
12.2800,26.04913672
12.2850,25.84226492
12.2900,25.63644272
12.2950,25.43135671
12.3000,25.22705507
12.3050,25.02340653
12.3100,24.82035555
12.3150,24.61791454
12.3200,24.41598182
12.3250,24.21471801
12.3300,24.01400337
12.3350,23.8138186
12.3400,23.61422179
12.3450,23.41510882
12.3500,23.2164671
12.3550,23.01852101
12.3600,22.82117604
12.3650,22.6245927
12.3700,22.42880721
12.3750,22.23372052
12.3800,22.0394352
12.3850,21.84598242
12.3900,21.65351002
12.3950,21.46205298
12.4000,21.27195028
12.4050,21.08304995
12.4100,20.89553243
12.4150,20.70954
12.4200,20.5251818
12.4250,20.34237034
12.4300,20.16119773
12.4350,19.98181649
12.4400,19.80409644
12.4450,19.6281547
12.4500,19.45426254
12.4550,19.28230633
12.4600,19.11240186
12.4650,18.94455886
12.4700,18.77907496
12.4750,18.61571225
12.4800,18.45444486
12.4850,18.29536207
12.4900,18.13849146
12.4950,17.98381916
12.5000,17.83142839
12.5050,17.68137791
12.5100,17.53364509
12.5150,17.38822325
12.5200,17.24528784
12.5250,17.10449629
12.5300,16.96587289
12.5350,16.82936224
12.5400,16.69486415
12.5450,16.56226421
12.5500,16.43146911
12.5550,16.30247879
12.5600,16.17492803
12.5650,16.04884538
12.5700,15.92401857
12.5750,15.80039782
12.5800,15.67753832
12.5850,15.55563193
12.5900,15.43420731
12.5950,15.31368806
12.6000,15.19364753
12.6050,15.07431021
12.6100,14.95536616
12.6150,14.8369796
12.6200,14.71903475
12.6250,14.60153413
12.6300,14.48455298
12.6350,14.36810652
12.6400,14.25231643
12.6450,14.1371876
12.6500,14.02301966
12.6550,13.9096869
12.6600,13.79743635
12.6650,13.68637985
12.6700,13.5765707
12.6750,13.46827052
12.6800,13.361403
12.6850,13.25610587
12.6900,13.15235447
12.6950,13.05042932
12.7000,12.95011961
12.7050,12.85164039
12.7100,12.75500175
12.7150,12.66014662
12.7200,12.56707655
12.7250,12.47575257
12.7300,12.38634148
12.7350,12.29863486
12.7400,12.21299131
12.7450,12.12915288
12.7500,12.04720041
12.7550,11.96734578
12.7600,11.88978545
12.7650,11.81451581
12.7700,11.74164542
12.7750,11.67153548
12.7800,11.60448873
12.7850,11.54066152
12.7900,11.480317
12.7950,11.42370925
12.8000,11.37097219
12.8050,11.32222723
12.8100,11.27764153
12.8150,11.23716165
12.8200,11.20092886
12.8250,11.16891278
12.8300,11.14098134
12.8350,11.11709262
12.8400,11.09705118
12.8450,11.08078666
12.8500,11.06814983
12.8550,11.05883333
12.8600,11.05275019
12.8650,11.04959962
12.8700,11.04936026
12.8750,11.05173973
12.8800,11.05680958
12.8850,11.06428514
12.8900,11.07453619
12.8950,11.0871117
12.9000,11.10237077
12.9050,11.12014837
12.9100,11.14072038
12.9150,11.16415234
12.9200,11.19052496
12.9250,11.22001538
12.9300,11.25261469
12.9350,11.28855817
12.9400,11.32781961
12.9450,11.37057838
12.9500,11.41676991
12.9550,11.46651026
12.9600,11.51987573
12.9650,11.57669455
12.9700,11.6370045
12.9750,11.7007515
12.9800,11.76799071
12.9850,11.83858607
12.9900,11.91256827
12.9950,11.98970061
13.0000,12.07010345
13.0050,12.15372794
13.0100,12.24056721
13.0150,12.3305755
13.0200,12.42378673
13.0250,12.52029457
13.0300,12.62010748
13.0350,12.7233598
13.0400,12.83003738
13.0450,12.94038161
13.0500,13.05437542
13.0550,13.17204155
13.0600,13.29324568
13.0650,13.41807992
13.0700,13.54649795
13.0750,13.67851634
13.0800,13.81393993
13.0850,13.95295435
13.0900,14.09533474
13.0950,14.24099608
13.1000,14.38999273
13.1050,14.5423611
13.1100,14.69801876
13.1150,14.85701573
13.1200,15.01920841
13.1250,15.1846842
13.1300,15.35351256
13.1350,15.52544131
13.1400,15.70060367
13.1450,15.87894646
13.1500,16.06054169
13.1550,16.24515325
13.1600,16.43294176
13.1650,16.62378972
13.1700,16.81758927
13.1750,17.01436568
13.1800,17.21401914
13.1850,17.41637505
13.1900,17.62110019
13.1950,17.82830093
13.2000,18.03762271
13.2050,18.24908165
13.2100,18.46229892
13.2150,18.6771334
13.2200,18.89353084
13.2250,19.11126011
13.2300,19.3301059
13.2350,19.54989647
13.2400,19.7704598
13.2450,19.99164249
13.2500,20.21331362
13.2550,20.4353068
13.2600,20.6576135
13.2650,20.8800803
13.2700,21.10276298
13.2750,21.32554438
13.2800,21.54847382
13.2850,21.77168347
13.2900,21.994994
13.2950,22.21863236
13.3000,22.4426272
13.3050,22.66687606
13.3100,22.89146529
13.3150,23.11647678
13.3200,23.34205682
13.3250,23.56812554
13.3300,23.79483061
13.3350,24.02234112
13.3400,24.25067802
13.3450,24.47985472
13.3500,24.71002444
13.3550,24.94133524
13.3600,25.17382592
13.3650,25.40751525
13.3700,25.64276258
13.3750,25.87938861
13.3800,26.1176298
13.3850,26.35735744
13.3900,26.59875619
13.3950,26.84171331
13.4000,27.08618734
13.4050,27.33227902
13.4100,27.57980151
13.4150,27.82904899
13.4200,28.0799731
13.4250,28.33264554
13.4300,28.58698151
13.4350,28.84317139
13.4400,29.10085647
13.4450,29.36006231
13.4500,29.62042154
13.4550,29.88223122
13.4600,30.14521485
13.4650,30.40922862
13.4700,30.67431334
13.4750,30.94029196
13.4800,31.2071442
13.4850,31.47470043
13.4900,31.74297174
13.4950,32.01159579
13.5000,32.28057018
13.5050,32.54969009
13.5100,32.8188243
13.5150,33.0878187
13.5200,33.35654197
13.5250,33.62491384
13.5300,33.89284765
13.5350,34.16027912
13.5400,34.42720511
13.5450,34.6933983
13.5500,34.95886329
13.5550,35.22335446
13.5600,35.48670597
13.5650,35.74899714
13.5700,36.00980713
13.5750,36.26921093
13.5800,36.52703799
13.5850,36.78313919
13.5900,37.0374331
13.5950,37.28959668
13.6000,37.53961451
13.6050,37.78766886
13.6100,38.03355615
13.6150,38.27735228
13.6200,38.51887007
13.6250,38.75837038
13.6300,38.99576713
13.6350,39.2310604
13.6400,39.46432467
13.6450,39.69551874
13.6500,39.92464319
13.6550,40.15170299
13.6600,40.37687873
13.6650,40.60023608
13.6700,40.82181598
13.6750,41.04165895
13.6800,41.25965458
13.6850,41.47581935
13.6900,41.69026029
13.6950,41.90301606
13.7000,42.11421162
13.7050,42.32370807
13.7100,42.53176015
13.7150,42.73808401
13.7200,42.9426048
13.7250,43.14552361
13.7300,43.34666785
13.7350,43.54593217
13.7400,43.74368594
13.7450,43.93997186
13.7500,44.13491177
13.7550,44.32845191
13.7600,44.52062325
13.7650,44.71171263
13.7700,44.90173102
13.7750,45.0907179
13.7800,45.27856582
13.7850,45.46536629
13.7900,45.65094824
13.7950,45.83571434
13.8000,46.01965563
13.8050,46.20275397
13.8100,46.38525554
13.8150,46.56699867
13.8200,46.74814712
13.8250,46.92856403
13.8300,47.108503
13.8350,47.28781679
13.8400,47.46636194
13.8450,47.64433639
13.8500,47.82159541
13.8550,47.99834011
13.8600,48.17460717
13.8650,48.35037401
13.8700,48.52560623
13.8750,48.70023867
13.8800,48.87435998
13.8850,49.04792062
13.8900,49.22114449
13.8950,49.39416079
13.9000,49.56695393
13.9050,49.73921099
13.9100,49.91097148
13.9150,50.08210256
13.9200,50.25284991
13.9250,50.42288819
13.9300,50.59214879
13.9350,50.76069337
13.9400,50.92856869
13.9450,51.09576805
13.9500,51.26241303
13.9550,51.42847265
13.9600,51.59390169
13.9650,51.75860837
13.9700,51.92218864
13.9750,52.0845928
13.9800,52.24570893
13.9850,52.40544165
13.9900,52.56354492
13.9950,52.72026482
14.0000,52.87526744
14.0050,53.0285964
14.0100,53.17991841
14.0150,53.32924058
14.0200,53.47657322
14.0250,53.62172539
14.0300,53.76497335
14.0350,53.90640368
14.0400,54.04592071
14.0450,54.18331644
14.0500,54.31859087
14.0550,54.45172625
14.0600,54.58288865
14.0650,54.71178344
14.0700,54.83835706
14.0750,54.9626073
14.0800,55.08464543
14.0850,55.20448032
14.0900,55.32250639
14.0950,55.43841621
14.1000,55.55209759
14.1050,55.66354642
14.1100,55.77275056
14.1150,55.87996043
14.1200,55.98499514
14.1250,56.08775333
14.1300,56.18817991
14.1350,56.28621249
14.1400,56.38217565
14.1450,56.47604468
14.1500,56.56770571
14.1550,56.65739376
14.1600,56.74520078
14.1650,56.83117202
14.1700,56.91572588
14.1750,56.99881701
14.1800,57.08064542
14.1850,57.16131019
14.1900,57.24068312
14.1950,57.31868117
14.2000,57.39515708
14.2050,57.47022658
14.2100,57.54403491
14.2150,57.61649941
14.2200,57.6873883
14.2250,57.75704234
14.2300,57.82530611
14.2350,57.89222173
14.2400,57.95762503
14.2450,58.02161327
14.2500,58.08394259
14.2550,58.14463208
14.2600,58.20387588
14.2650,58.26168633
14.2700,58.31820503
14.2750,58.37350062
14.2800,58.42766028
14.2850,58.48068619
14.2900,58.53280851
14.2950,58.58369709
14.3000,58.63328611
14.3050,58.68149103
14.3100,58.72848686
14.3150,58.77424557
14.3200,58.81852459
14.3250,58.86120563
14.3300,58.90219556
14.3350,58.94151957
14.3400,58.97906387
14.3450,59.01489774
14.3500,59.04902345
14.3550,59.08126894
14.3600,59.11150118
14.3650,59.139966
14.3700,59.16621234
14.3750,59.19019865
14.3800,59.21181205
14.3850,59.23088518
14.3900,59.24744894
14.3950,59.26155948
14.4000,59.27334389
14.4050,59.28274342
14.4100,59.28994661
14.4150,59.29481043
14.4200,59.29717805
14.4250,59.29717232
14.4300,59.29473726
14.4350,59.29014457
14.4400,59.2833835
14.4450,59.27432359
14.4500,59.26283345
14.4550,59.24880498
14.4600,59.23209063
14.4650,59.21294167
14.4700,59.19119334
14.4750,59.16690926
14.4800,59.13978497
14.4850,59.10927673
14.4900,59.07562977
14.4950,59.03866573
14.5000,58.99833205
14.5050,58.95450851
14.5100,58.90713855
14.5150,58.85644132
14.5200,58.80283123
14.5250,58.7461547
14.5300,58.68675948
14.5350,58.62463872
14.5400,58.56013379
14.5450,58.49331217
14.5500,58.42427326
14.5550,58.35288349
14.5600,58.27913557
14.5650,58.20301619
14.5700,58.12482148
14.5750,58.04464819
14.5800,57.96282931
14.5850,57.87939566
14.5900,57.79423493
14.5950,57.70744873
14.6000,57.61898696
14.6050,57.52885422
14.6100,57.43691082
14.6150,57.34328067
14.6200,57.24815065
14.6250,57.15153178
14.6300,57.05334791
14.6350,56.95350331
14.6400,56.85219501
14.6450,56.74958347
14.6500,56.64551681
14.6550,56.54035573
14.6600,56.43422078
14.6650,56.32696911
14.6700,56.21913083
14.6750,56.11089032
14.6800,56.00236748
14.6850,55.89361711
14.6900,55.78438849
14.6950,55.6746778
14.7000,55.56418751
14.7050,55.45304399
14.7100,55.34089358
14.7150,55.22760031
14.7200,55.11328924
14.7250,54.99805164
14.7300,54.88182816
14.7350,54.76440419
14.7400,54.64570066
14.7450,54.52602968
14.7500,54.40553399
14.7550,54.28412559
14.7600,54.16214788
14.7650,54.03927726
14.7700,53.91548704
14.7750,53.79074098
14.7800,53.66519861
14.7850,53.53927534
14.7900,53.41272368
14.7950,53.28591636
14.8000,53.15867287
14.8050,53.03111702
14.8100,52.90300532
14.8150,52.77445019
14.8200,52.6451067
14.8250,52.51496857
14.8300,52.38379011
14.8350,52.25167239
14.8400,52.11885538
14.8450,51.98522158
14.8500,51.85100432
14.8550,51.71643036
14.8600,51.58152533
14.8650,51.44633639
14.8700,51.31070794
14.8750,51.17487705
14.8800,51.03839233
14.8850,50.90140884
14.8900,50.76381182
14.8950,50.6256595
14.9000,50.48737376
14.9050,50.34883493
14.9100,50.2102095
14.9150,50.07124928
14.9200,49.93167504
14.9250,49.79130832
14.9300,49.65019587
14.9350,49.50830511
14.9400,49.36550246
14.9450,49.2216211
14.9500,49.07688241
14.9550,48.93120488
14.9600,48.78468338
14.9650,48.63752077
14.9700,48.48960836
14.9750,48.34106152
14.9800,48.19204171
14.9850,48.04308637
14.9900,47.89425319
14.9950,47.74580016
15.0000,47.59814554
15.0050,47.45123187
15.0100,47.30537996
15.0150,47.16058458
15.0200,47.01713701
15.0250,46.87494576
15.0300,46.73412962
15.0350,46.59474257
15.0400,46.45678171
15.0450,46.31998884
15.0500,46.1844966
15.0550,46.05034846
15.0600,45.9173191
15.0650,45.78558769
15.0700,45.65518518
15.0750,45.52613075
15.0800,45.3983243
15.0850,45.27169766
15.0900,45.14633969
15.0950,45.02206893
15.1000,44.89903056
15.1050,44.77730663
15.1100,44.65703726
15.1150,44.53801391
15.1200,44.42070046
15.1250,44.3050969
15.1300,44.19109679
15.1350,44.07873897
15.1400,43.96770981
15.1450,43.85825545
15.1500,43.7500825
15.1550,43.64324931
15.1600,43.53772245
15.1650,43.43356099
15.1700,43.33074508
15.1750,43.22907559
15.1800,43.12872813
15.1850,43.02947521
15.1900,42.93135924
15.1950,42.83418126
15.2000,42.73777957
15.2050,42.64200067
15.2100,42.54681719
15.2150,42.45219555
15.2200,42.35820619
15.2250,42.26504198
15.2300,42.17250978
15.2350,42.08052794
15.2400,41.98916
15.2450,41.89841245
15.2500,41.80821187
15.2550,41.71855516
15.2600,41.62925361
15.2650,41.54058222
15.2700,41.45250895
15.2750,41.36506385
15.2800,41.27821321
15.2850,41.19161979
15.2900,41.10535109
15.2950,41.01943075
15.3000,40.93353836
15.3050,40.84779886
15.3100,40.76224878
15.3150,40.67699592
15.3200,40.59202912
15.3250,40.50726963
15.3300,40.42291346
15.3350,40.33906594
15.3400,40.25571149
15.3450,40.17295744
15.3500,40.0907966
15.3550,40.00930222
15.3600,39.9284701
15.3650,39.84823791
15.3700,39.76870526
15.3750,39.68964871
15.3800,39.61105642
15.3850,39.53288426
15.3900,39.45502866
15.3950,39.37742169
15.4000,39.30014658
15.4050,39.22297895
15.4100,39.14602864
15.4150,39.06916107
15.4200,38.99208503
15.4250,38.91481981
15.4300,38.83728981
15.4350,38.75949704
15.4400,38.6813269
15.4450,38.60297501
15.4500,38.52449492
15.4550,38.44597892
15.4600,38.36733862
15.4650,38.28866657
15.4700,38.20997594
15.4750,38.13146948
15.4800,38.05323367
15.4850,37.97536242
15.4900,37.89788453
15.4950,37.82082417
15.5000,37.74424986
15.5050,37.66826112
15.5100,37.59267193
15.5150,37.51757812
15.5200,37.4430366
15.5250,37.36894434
15.5300,37.29542635
15.5350,37.22253789
15.5400,37.15021227
15.5450,37.07847761
15.5500,37.00745996
15.5550,36.93716619
15.5600,36.86787447
15.5650,36.79935628
15.5700,36.73171414
15.5750,36.66493322
15.5800,36.5989795
15.5850,36.53418257
15.5900,36.47059537
15.5950,36.40818431
15.6000,36.34723297
15.6050,36.28781311
15.6100,36.22998337
15.6150,36.1737833
15.6200,36.11917232
15.6250,36.06642902
15.6300,36.01536332
15.6350,35.96595787
15.6400,35.91807271
15.6450,35.8717268
15.6500,35.82677619
15.6550,35.78318001
15.6600,35.74103273
15.6650,35.70023059
15.6700,35.66065523
15.6750,35.62232685
15.6800,35.58517956
15.6850,35.549164
15.6900,35.51418595
15.6950,35.48021755
15.7000,35.44692547
15.7050,35.4143118
15.7100,35.38207101
15.7150,35.35025626
15.7200,35.31865005
15.7250,35.28726101
15.7300,35.25634403
15.7350,35.22576372
15.7400,35.19578505
15.7450,35.16627403
15.7500,35.13745708
15.7550,35.10935213
15.7600,35.08212449
15.7650,35.05607192
15.7700,35.03138498
15.7750,35.00794299
15.7800,34.98614423
15.7850,34.96602924
15.7900,34.9477537
15.7950,34.93164241
15.8000,34.91758587
15.8050,34.90587968
15.8100,34.89667528
15.8150,34.89003465
15.8200,34.88587422
15.8250,34.88437814
15.8300,34.88542606
15.8350,34.88905931
15.8400,34.89517531
15.8450,34.90373052
15.8500,34.91469476
15.8550,34.92800754
15.8600,34.94353928
15.8650,34.96135236
15.8700,34.98144632
15.8750,35.00383708
15.8800,35.0285346
15.8850,35.05546188
15.8900,35.08449797
15.8950,35.11581748
15.9000,35.14918704
15.9050,35.1846404
15.9100,35.22205283
15.9150,35.26145401
15.9200,35.30286325
15.9250,35.34585144
15.9300,35.39034237
15.9350,35.43628399
15.9400,35.4836981
15.9450,35.53239011
15.9500,35.58235543
15.9550,35.63320235
15.9600,35.6849135
15.9650,35.73741948
15.9700,35.79041649
15.9750,35.84395815
15.9800,35.89798102
15.9850,35.95232191
15.9900,36.00698348
15.9950,36.06194737
16.0000,36.11729985
16.0050,36.17301722
16.0100,36.22920586
16.0150,36.28599345
16.0200,36.34353932
16.0250,36.40169956
16.0300,36.46054973
16.0350,36.5201126
16.0400,36.58049789
16.0450,36.64156846
16.0500,36.70352294
16.0550,36.76629641
16.0600,36.83004724
16.0650,36.89459837
16.0700,36.9600553
16.0750,37.02645025
16.0800,37.09363018
16.0850,37.16173711
16.0900,37.23069158
16.0950,37.30045062
16.1000,37.37125914
16.1050,37.44294837
16.1100,37.51573792
16.1150,37.58947196
16.1200,37.66434009
16.1250,37.74014821
16.1300,37.81685737
16.1350,37.89450553
16.1400,37.97307177
16.1450,38.05245765
16.1500,38.13253932
16.1550,38.2134922
16.1600,38.29512118
16.1650,38.37748758
16.1700,38.46076619
16.1750,38.54482405
16.1800,38.62975906
16.1850,38.71537836
16.1900,38.80184343
16.1950,38.88882475
16.2000,38.97648473
16.2050,39.06467785
16.2100,39.15330837
16.2150,39.24234857
16.2200,39.33157884
16.2250,39.42113952
16.2300,39.51103061
16.2350,39.60124247
16.2400,39.69174659
16.2450,39.7825496
16.2500,39.87373624
16.2550,39.96544554
16.2600,40.05760571
16.2650,40.15019876
16.2700,40.24346199
16.2750,40.33730874
16.2800,40.43159617
16.2850,40.52627154
16.2900,40.62130115
16.2950,40.71658211
16.3000,40.81197492
16.3050,40.9076457
16.3100,41.00348866
16.3150,41.09956347
16.3200,41.19589705
16.3250,41.29274536
16.3300,41.39005502
16.3350,41.48786943
16.3400,41.586268
16.3450,41.68548511
16.3500,41.78540572
16.3550,41.88619034
16.3600,41.98797051
16.3650,42.09073535
16.3700,42.19451966
16.3750,42.29950244
16.3800,42.40559235
16.3850,42.51296362
16.3900,42.62163987
16.3950,42.73198681
16.4000,42.84398936
16.4050,42.95781705
16.4100,43.07347133
16.4150,43.19112128
16.4200,43.31060711
16.4250,43.43229148
16.4300,43.55626784
16.4350,43.68235374
16.4400,43.81050493
16.4450,43.94091834
16.4500,44.07351329
16.4550,44.20815036
16.4600,44.34481217
16.4650,44.48334582
16.4700,44.62348605
16.4750,44.76527485
16.4800,44.90846426
16.4850,45.05298114
16.4900,45.19867423
16.4950,45.34560274
16.5000,45.4935467
16.5050,45.6424471
16.5100,45.79227048
16.5150,45.9428943
16.5200,46.09428589
16.5250,46.24630885
16.5300,46.39884731
16.5350,46.55173368
16.5400,46.70469899
16.5450,46.85776465
16.5500,47.01058092
16.5550,47.16307566
16.5600,47.31500696
16.5650,47.46656122
16.5700,47.61750748
16.5750,47.76796064
16.5800,47.91787283
16.5850,48.0674159
16.5900,48.21665483
16.5950,48.36578524
16.6000,48.51493652
16.6050,48.6641239
16.6100,48.81377932
16.6150,48.96374953
16.6200,49.11402666
16.6250,49.26458137
16.6300,49.41535536
16.6350,49.5663446
16.6400,49.71742063
16.6450,49.8685763
16.6500,50.01993597
16.6550,50.17164574
16.6600,50.32360411
16.6650,50.47587428
16.6700,50.62876486
16.6750,50.78217535
16.6800,50.93654873
16.6850,51.09206539
16.6900,51.24893368
16.6950,51.40689403
16.7000,51.5660391
16.7050,51.72623005
16.7100,51.88764932
16.7150,52.0504147
16.7200,52.21484085
16.7250,52.38076428
16.7300,52.54815656
16.7350,52.71739107
16.7400,52.8884671
16.7450,53.06124363
16.7500,53.23559157
16.7550,53.41126405
16.7600,53.58810166
16.7650,53.76576119
16.7700,53.94405945
16.7750,54.1226648
16.7800,54.30121187
16.7850,54.47927266
16.7900,54.6566095
16.7950,54.83291592
16.8000,55.00813956
16.8050,55.18223016
16.8100,55.35506822
16.8150,55.52607982
16.8200,55.6949207
16.8250,55.86148742
16.8300,56.02566821
16.8350,56.18703019
16.8400,56.34554608
16.8450,56.50082958
16.8500,56.65280615
16.8550,56.80155961
16.8600,56.94685187
16.8650,57.0881748
16.8700,57.22537161
16.8750,57.35823628
16.8800,57.48670368
16.8850,57.61084633
16.8900,57.73062007
16.8950,57.84566525
16.9000,57.95629164
16.9050,58.06233012
16.9100,58.16358106
16.9150,58.259924
16.9200,58.35159201
16.9250,58.43853396
16.9300,58.520996
16.9350,58.59910387
16.9400,58.67297932
16.9450,58.74297198
16.9500,58.80944139
16.9550,58.87242462
16.9600,58.93191152
16.9650,58.98779369
16.9700,59.03980739
16.9750,59.08804441
16.9800,59.13216056
16.9850,59.17219181
16.9900,59.2085218
16.9950,59.24129
17.0000,59.27073823
17.0050,59.29724356
17.0100,59.32063826
17.0150,59.34090429
17.0200,59.35788064
17.0250,59.37159114
17.0300,59.38225461
17.0350,59.38977308
17.0400,59.39452782
17.0450,59.39637936
17.0500,59.39517886
17.0550,59.390763
17.0600,59.38315016
17.0650,59.37192835
17.0700,59.35680891
17.0750,59.33783014
17.0800,59.31522836
17.0850,59.28916778
17.0900,59.25935123
17.0950,59.22552862
17.1000,59.18688609
17.1050,59.14290342
17.1100,59.09308219
17.1150,59.0375567
17.1200,58.97625175
17.1250,58.90930645
17.1300,58.83667709
17.1350,58.75882782
17.1400,58.67608223
17.1450,58.58872225
17.1500,58.49698122
17.1550,58.40077855
17.1600,58.30036616
17.1650,58.19580846
17.1700,58.08723688
17.1750,57.97444779
17.1800,57.85752804
17.1850,57.73630011
17.1900,57.61087921
17.1950,57.48143084
17.2000,57.34774339
17.2050,57.21005955
17.2100,57.0683742
17.2150,56.92291207
17.2200,56.77388682
17.2250,56.62151667
17.2300,56.46614709
17.2350,56.30799365
17.2400,56.1476326
17.2450,55.98493372
17.2500,55.8198922
17.2550,55.65268309
17.2600,55.48338078
17.2650,55.31211825
17.2700,55.13919884
17.2750,54.96483422
17.2800,54.78920378
17.2850,54.61209886
17.2900,54.43353473
17.2950,54.25347775
17.3000,54.07197145
17.3050,53.88907489
17.3100,53.704923
17.3150,53.51955111
17.3200,53.33298868
17.3250,53.14512337
17.3300,52.95581658
17.3350,52.76527223
17.3400,52.57348741
17.3450,52.38042456
17.3500,52.18628897
17.3550,51.99093971
17.3600,51.79461278
17.3650,51.597666
17.3700,51.40032392
17.3750,51.20228518
17.3800,51.00357439
17.3850,50.80386462
17.3900,50.60327487
17.3950,50.40163535
17.4000,50.19912766
17.4050,49.99574126
17.4100,49.79165386
17.4150,49.58683165
17.4200,49.38128789
17.4250,49.17488105
17.4300,48.9676678
17.4350,48.75947721
17.4400,48.55008147
17.4450,48.33955744
17.4500,48.12770082
17.4550,47.91458951
17.4600,47.70010712
17.4650,47.48429771
17.4700,47.26712787
17.4750,47.04885652
17.4800,46.82956987
17.4850,46.60917995
17.4900,46.38790168
17.4950,46.16565819
17.5000,45.94270554
17.5050,45.71912402
17.5100,45.49492111
17.5150,45.27012203
17.5200,45.04463713
17.5250,44.81844465
17.5300,44.591511
17.5350,44.36365358
17.5400,44.13471576
17.5450,43.90457128
17.5500,43.67333068
17.5550,43.44077241
17.5600,43.20741234
17.5650,42.97346137
17.5700,42.73900777
17.5750,42.50416301
17.5800,42.26894948
17.5850,42.03359353
17.5900,41.79807356
17.5950,41.56259129
17.6000,41.32710445
17.6050,41.09148163
17.6100,40.85585874
17.6150,40.62030081
17.6200,40.38501698
17.6250,40.15016552
17.6300,39.91588141
17.6350,39.68212037
17.6400,39.44891169
17.6450,39.21628304
17.6500,38.98443828
17.6550,38.75353002
17.6600,38.52355677
17.6650,38.294373
17.6700,38.06606724
17.6750,37.83867019
17.6800,37.61206718
17.6850,37.38650748
17.6900,37.16203295
17.6950,36.93876097
17.7000,36.71686426
17.7050,36.49634842
17.7100,36.27725516
17.7150,36.05963885
17.7200,35.84351541
17.7250,35.62880044
17.7300,35.41572149
17.7350,35.20424748
17.7400,34.99462967
17.7450,34.78677304
17.7500,34.58090255
17.7550,34.37699784
17.7600,34.17516197
17.7650,33.97548546
17.7700,33.77803083
17.7750,33.58265365
17.7800,33.38933659
17.7850,33.19798481
17.7900,33.00835531
17.7950,32.82038872
17.8000,32.63388873
17.8050,32.44874989
17.8100,32.2651172
17.8150,32.08297338
17.8200,31.90222478
17.8250,31.72291727
17.8300,31.54494047
17.8350,31.36833419
17.8400,31.19290121
17.8450,31.01854096
17.8500,30.84537896
17.8550,30.67335874
17.8600,30.50220252
17.8650,30.33191241
17.8700,30.16247619
17.8750,29.99383443
17.8800,29.82589933
17.8850,29.65860437
17.8900,29.49210752
17.8950,29.32619143
17.9000,29.16108571
17.9050,28.99676608
17.9100,28.83318998
17.9150,28.67037604
17.9200,28.50811289
17.9250,28.34643459
17.9300,28.18549051
17.9350,28.02507936
17.9400,27.86498012
17.9450,27.70537929
17.9500,27.54630133
17.9550,27.38801644
17.9600,27.23023744
17.9650,27.0732809
17.9700,26.91712111
17.9750,26.76195682
17.9800,26.60788906
17.9850,26.45490653
17.9900,26.30317215
17.9950,26.15262796
18.0000,26.00319016
18.0050,25.85507883
18.0100,25.70822799
18.0150,25.5626865
18.0200,25.41837046
18.0250,25.27545929
18.0300,25.13380787
18.0350,24.99355085
18.0400,24.85449569
18.0450,24.71670553
18.0500,24.57982101
18.0550,24.44388855
18.0600,24.30887366
18.0650,24.17452152
18.0700,24.04088593
18.0750,23.90790637
18.0800,23.7755239
18.0850,23.64377093
18.0900,23.51267376
18.0950,23.38211034
18.1000,23.25204442
18.1050,23.12236058
18.1100,22.99293632
18.1150,22.86379803
18.1200,22.73482865
18.1250,22.60580901
18.1300,22.47675856
18.1350,22.34762321
18.1400,22.21822493
18.1450,22.08857978
18.1500,21.95851228
18.1550,21.8280788
18.1600,21.69715951
18.1650,21.56583144
18.1700,21.43390817
18.1750,21.30136342
18.1800,21.16841776
18.1850,21.03499592
18.1900,20.9010173
18.1950,20.76650673
18.2000,20.63145713
18.2050,20.49579061
18.2100,20.35950883
18.2150,20.22259798
18.2200,20.0852228
18.2250,19.94743451
18.2300,19.8092043
18.2350,19.67058138
18.2400,19.53176653
18.2450,19.39275921
18.2500,19.25352973
18.2550,19.11404516
18.2600,18.97451615
18.2650,18.83502507
18.2700,18.69547538
18.2750,18.55584581
18.2800,18.41619547
18.2850,18.27662647
18.2900,18.13716909
18.2950,17.99792523
18.3000,17.85902801
18.3050,17.72036758
18.3100,17.58201141
18.3150,17.44421552
18.3200,17.30693827
18.3250,17.17028171
18.3300,17.03395267
18.3350,16.89810188
18.3400,16.76275027
18.3450,16.62776051
18.3500,16.49333221
18.3550,16.35935703
18.3600,16.22560641
18.3650,16.09230682
18.3700,15.95930967
18.3750,15.82642344
18.3800,15.69374097
18.3850,15.56110744
18.3900,15.42850157
18.3950,15.29591286
18.4000,15.16347468
18.4050,15.03114764
18.4100,14.89894117
18.4150,14.76673076
18.4200,14.63455079
18.4250,14.50263473
18.4300,14.37094127
18.4350,14.23949713
18.4400,14.10861309
18.4450,13.97832213
18.4500,13.84864095
18.4550,13.71966358
18.4600,13.59141303
18.4650,13.46392596
18.4700,13.33736193
18.4750,13.211791
18.4800,13.08699207
18.4850,12.96332063
18.4900,12.84068616
18.4950,12.71922111
18.5000,12.59893159
18.5050,12.48002537
18.5100,12.3625689
18.5150,12.24681552
18.5200,12.13283858
18.5250,12.02072727
18.5300,11.91055846
18.5350,11.80267232
18.5400,11.69704068
18.5450,11.59389563
18.5500,11.49339607
18.5550,11.39561379
18.5600,11.30089345
18.5650,11.20912444
18.5700,11.12062757
18.5750,11.03539198
18.5800,10.95368785
18.5850,10.87543752
18.5900,10.80074129
18.5950,10.72965772
18.6000,10.66208055
18.6050,10.59819851
18.6100,10.53813447
18.6150,10.48161178
18.6200,10.42876391
18.6250,10.37958544
18.6300,10.33414134
18.6350,10.29238624
18.6400,10.25424912
18.6450,10.21978825
18.6500,10.18908039
18.6550,10.16199857
18.6600,10.13876942
18.6650,10.11917946
18.6700,10.10321654
18.6750,10.09097526
18.6800,10.08240753
18.6850,10.07738166
18.6900,10.07580749
18.6950,10.077682
18.7000,10.08299154
18.7050,10.0916601
18.7100,10.10348453
18.7150,10.11849869
18.7200,10.13664583
18.7250,10.15774462
18.7300,10.18165904
18.7350,10.20831313
18.7400,10.23757112
18.7450,10.2693618
18.7500,10.30356522
18.7550,10.34013871
18.7600,10.37905837
18.7650,10.42009856
18.7700,10.46335576
18.7750,10.50879476
18.7800,10.55645805
18.7850,10.6061374
18.7900,10.65804705
18.7950,10.71216021
18.8000,10.76840593
18.8050,10.82694314
18.8100,10.8878174
18.8150,10.9509875
18.8200,11.01642009
18.8250,11.08428845
18.8300,11.15465329
18.8350,11.22754354
18.8400,11.30316636
18.8450,11.38140153
18.8500,11.46230376
18.8550,11.54611697
18.8600,11.6327668
18.8650,11.72232544
18.8700,11.8148887
18.8750,11.91054967
18.8800,12.00929946
18.8850,12.11134714
18.8900,12.21660538
18.8950,12.32508452
18.9000,12.43690555
18.9050,12.55194762
18.9100,12.67007147
18.9150,12.79123144
18.9200,12.91559603
18.9250,13.04296858
18.9300,13.17344873
18.9350,13.3069236
18.9400,13.44348984
18.9450,13.58312262
18.9500,13.72555573
18.9550,13.87093589
18.9600,14.01910016
18.9650,14.17015992
18.9700,14.32414115
18.9750,14.48117021
18.9800,14.64112218
18.9850,14.80434922
18.9900,14.97078765
18.9950,15.14048869
19.0000,15.31337316
19.0050,15.48959832
19.0100,15.66938947
19.0150,15.85268074
19.0200,16.03960224
19.0250,16.23010875
19.0300,16.42440352
19.0350,16.62266153
19.0400,16.82474265
19.0450,17.03082183
19.0500,17.24066143
19.0550,17.45444294
19.0600,17.67199318
19.0650,17.89341812
19.0700,18.11858822
19.0750,18.34745666
19.0800,18.5800711
19.0850,18.81623522
19.0900,19.05582226
19.0950,19.29881378
19.1000,19.54511006
19.1050,19.79448869
19.1100,20.04696575
19.1150,20.30242626
19.1200,20.56080243
19.1250,20.82190525
19.1300,21.0856666
19.1350,21.35182261
19.1400,21.62035878
19.1450,21.89137497
19.1500,22.16481363
19.1550,22.44032557
19.1600,22.71793809
19.1650,22.99748871
19.1700,23.2789017
19.1750,23.56201017
19.1800,23.84677446
19.1850,24.13288746
19.1900,24.42028087
19.1950,24.70880721
19.2000,24.99827944
19.2050,25.28869629
19.2100,25.57985669
19.2150,25.87178109
19.2200,26.16417811
19.2250,26.45692245
19.2300,26.74998969
19.2350,27.04315317
19.2400,27.33631711
19.2450,27.62950306
19.2500,27.92261629
19.2550,28.21564545
19.2600,28.50846022
19.2650,28.80105134
19.2700,29.09329889
19.2750,29.38514713
19.2800,29.67641137
19.2850,29.96723306
19.2900,30.25759129
19.2950,30.54741846
19.3000,30.83686164
19.3050,31.12588892
19.3100,31.41436969
19.3150,31.70236053
19.3200,31.98975265
19.3250,32.27669212
19.3300,32.56304255
19.3350,32.84869363
19.3400,33.13363666
19.3450,33.41783645
19.3500,33.70139413
19.3550,33.9839826
19.3600,34.26598272
19.3650,34.54719036
19.3700,34.82763478
19.3750,35.10716765
19.3800,35.38586641
19.3850,35.66386048
19.3900,35.94089366
19.3950,36.21709646
19.4000,36.49249362
19.4050,36.76708194
19.4100,37.04095229
19.4150,37.31411034
19.4200,37.58685029
19.4250,37.85901753
19.4300,38.13084207
19.4350,38.40236679
19.4400,38.67346473
19.4450,38.94404477
19.4500,39.21400493
19.4550,39.4834709
19.4600,39.75215451
19.4650,40.02011758
19.4700,40.28717695
19.4750,40.55322034
19.4800,40.81800346
19.4850,41.08145972
19.4900,41.34330499
19.4950,41.60349558
19.5000,41.86191884
19.5050,42.11839273
19.5100,42.37275238
19.5150,42.62494735
19.5200,42.87464637
19.5250,43.12189351
19.5300,43.36648838
19.5350,43.60833389
19.5400,43.84750913
19.5450,44.08391054
19.5500,44.3178025
19.5550,44.54919338
19.5600,44.77814891
19.5650,45.00473438
19.5700,45.22889244
19.5750,45.45062467
19.5800,45.67018073
19.5850,45.88725573
19.5900,46.10190664
19.5950,46.3143896
19.6000,46.52445678
19.6050,46.73230411
19.6100,46.93790497
19.6150,47.14114529
19.6200,47.34193196
19.6250,47.54035682
19.6300,47.73638469
19.6350,47.93006779
19.6400,48.12150716
19.6450,48.31070887
19.6500,48.49778468
19.6550,48.68287891
19.6600,48.86585123
19.6650,49.04676077
19.6700,49.22558168
19.6750,49.40257692
19.6800,49.57762259
19.6850,49.75085049
19.6900,49.92243609
19.6950,50.09228617
19.7000,50.2604706
19.7050,50.42713577
19.7100,50.59219387
19.7150,50.75570029
19.7200,50.91738666
19.7250,51.07760314
19.7300,51.23608739
19.7350,51.39301086
19.7400,51.54841508
19.7450,51.70212946
19.7500,51.85418891
19.7550,52.00468862
19.7600,52.15373439
19.7650,52.30142206
19.7700,52.44751684
19.7750,52.59202779
19.7800,52.73502029
19.7850,52.87658502
19.7900,53.01686428
19.7950,53.15595551
19.8000,53.29390011
19.8050,53.43043623
19.8100,53.56561999
19.8150,53.69940134
19.8200,53.83169885
19.8250,53.96248303
19.8300,54.09191117
19.8350,54.21987123
19.8400,54.34646329
19.8450,54.47159961
19.8500,54.5951847
19.8550,54.71704511
19.8600,54.83724099
19.8650,54.95584565
19.8700,55.07278596
19.8750,55.18818327
19.8800,55.30205713
19.8850,55.41410821
19.8900,55.52468692
19.8950,55.63341228
19.9000,55.74040123
19.9050,55.84528214
19.9100,55.9480448
19.9150,56.04884994
19.9200,56.14776991
19.9250,56.24481699
19.9300,56.34009773
19.9350,56.43341177
19.9400,56.5247011
19.9450,56.61384174
19.9500,56.70071766
19.9550,56.78530176
19.9600,56.8674681
19.9650,56.94705058
19.9700,57.02412837
19.9750,57.09871674
19.9800,57.1709304
19.9850,57.24057112
19.9900,57.30765765
19.9950,57.37227232
20.0000,57.43450452
20.0050,57.49436105
20.0100,57.55180123
20.0150,57.60686395
20.0200,57.65941947
20.0250,57.70928155
20.0300,57.75639714
20.0350,57.80052374
20.0400,57.84176534
20.0450,57.87993312
20.0500,57.91499394
20.0550,57.94689615
20.0600,57.97585029
20.0650,58.0018694
20.0700,58.02507381
20.0750,58.0453275
20.0800,58.06265379
20.0850,58.07702026
20.0900,58.08803453
20.0950,58.09567232
20.1000,58.09981125
20.1050,58.10092643
20.1100,58.0995156
20.1150,58.09556828
20.1200,58.08931287
20.1250,58.0809451
20.1300,58.07034989
20.1350,58.0577667
20.1400,58.04317077
20.1450,58.02683322
20.1500,58.00857779
20.1550,57.98875624
20.1600,57.96727442
20.1650,57.94411036
20.1700,57.91948445
20.1750,57.89326161
20.1800,57.86548321
20.1850,57.83647802
20.1900,57.80595034
20.1950,57.77386538
20.2000,57.74015644
20.2050,57.70484874
20.2100,57.66805425
20.2150,57.62981578
20.2200,57.59002431
20.2250,57.5484174
20.2300,57.50486076
20.2350,57.45945796
20.2400,57.41193541
20.2450,57.36223361
20.2500,57.31032398
20.2550,57.2561227
20.2600,57.19972508
20.2650,57.14120764
20.2700,57.08046349
20.2750,57.01738225
20.2800,56.95188339
20.2850,56.88392115
20.2900,56.81349696
20.2950,56.740513
20.3000,56.66488306
20.3050,56.58656107
20.3100,56.50519454
20.3150,56.42079136
20.3200,56.33320994
20.3250,56.24250172
20.3300,56.14866041
20.3350,56.05190527
20.3400,55.9521497
20.3450,55.84962686
20.3500,55.74444675
20.3550,55.63662115
20.3600,55.52591055
20.3650,55.41265137
20.3700,55.29693529
20.3750,55.17891867
20.3800,55.05880414
20.3850,54.93675193
20.3900,54.8133725
20.3950,54.68873247
20.4000,54.5631638
20.4050,54.43652349
20.4100,54.30864732
20.4150,54.17985146
20.4200,54.05015632
20.4250,53.91958748
20.4300,53.788229
20.4350,53.65626781
20.4400,53.52365063
20.4450,53.39047093
20.4500,53.25690255
20.4550,53.12297028
20.4600,52.98871036
20.4650,52.85426043
20.4700,52.71948502
20.4750,52.58473611
20.4800,52.45001449
20.4850,52.31520005
20.4900,52.18042835
20.4950,52.04569177
20.5000,51.91123785
20.5050,51.77709651
20.5100,51.64310735
20.5150,51.50946799
20.5200,51.3762308
20.5250,51.24345851
20.5300,51.11092473
20.5350,50.97871002
20.5400,50.84678527
20.5450,50.71530153
20.5500,50.58420945
20.5550,50.45355256
20.5600,50.32331055
20.5650,50.19330058
20.5700,50.06332067
20.5750,49.93330253
20.5800,49.80297078
20.5850,49.67236254
20.5900,49.54124823
20.5950,49.40970018
20.6000,49.2776217
20.6050,49.14513891
20.6100,49.01237371
20.6150,48.87937281
20.6200,48.74620663
20.6250,48.61287759
20.6300,48.47938065
20.6350,48.34571867
20.6400,48.21197926
20.6450,48.07834876
20.6500,47.9449922
20.6550,47.81211549
20.6600,47.67992047
20.6650,47.54849757
20.6700,47.41806353
20.6750,47.28892728
20.6800,47.16105968
20.6850,47.03452937
20.6900,46.90895338
20.6950,46.78446987
20.7000,46.66097792
20.7050,46.53863014
20.7100,46.41719317
20.7150,46.29669423
20.7200,46.17727586
20.7250,46.05902612
20.7300,45.94220435
20.7350,45.82663864
20.7400,45.71243099
20.7450,45.59925026
20.7500,45.48696118
20.7550,45.37531721
20.7600,45.26436509
20.7650,45.15396764
20.7700,45.04429561
20.7750,44.93506392
20.7800,44.82661543
20.7850,44.71878227
20.7900,44.61182374
20.7950,44.50578695
20.8000,44.40069587
20.8050,44.29660196
20.8100,44.19397738
20.8150,44.09288975
20.8200,43.99343007
20.8250,43.89556041
20.8300,43.79954637
20.8350,43.70536616
20.8400,43.61312605
20.8450,43.52277103
20.8500,43.43420668
20.8550,43.34746486
20.8600,43.26236934
20.8650,43.17875852
20.8700,43.09683813
20.8750,43.0164885
20.8800,42.93763305
20.8850,42.8603459
20.8900,42.78439769
20.8950,42.70961583
20.9000,42.63575847
20.9050,42.56261213
20.9100,42.49011168
20.9150,42.41798987
20.9200,42.3461835
20.9250,42.2747442
20.9300,42.20335288
20.9350,42.13200126
20.9400,42.06042207
20.9450,41.98867738
20.9500,41.9163314
20.9550,41.84334299
20.9600,41.76960628
20.9650,41.69473099
20.9700,41.61876158
20.9750,41.54134978
20.9800,41.46251668
20.9850,41.38211114
20.9900,41.3000749
20.9950,41.21644934
21.0000,41.13096213
21.0050,41.04362098
21.0100,40.95454394
21.0150,40.86366375
21.0200,40.77068354
21.0250,40.67545959
21.0300,40.57772145
21.0350,40.47766361
21.0400,40.37511405
21.0450,40.27008681
21.0500,40.16291954
21.0550,40.05340481
21.0600,39.94165103
21.0650,39.82765614
21.0700,39.71133769
21.0750,39.59261509
21.0800,39.47141246
21.0850,39.34796135
21.0900,39.22207436
21.0950,39.09394795
21.1000,38.96348083
21.1050,38.83089165
21.1100,38.69590361
21.1150,38.55865681
21.1200,38.4190979
21.1250,38.27744153
21.1300,38.13375884
21.1350,37.98815826
21.1400,37.84091372
21.1450,37.69201285
21.1500,37.54176702
21.1550,37.39013202
21.1600,37.23726689
21.1650,37.08348922
21.1700,36.92881191
21.1750,36.77322928
21.1800,36.61702041
21.1850,36.46005776
21.1900,36.30255479
21.1950,36.14449392
21.2000,35.98591443
21.2050,35.82694808
21.2100,35.66766637
21.2150,35.50826016
21.2200,35.34900116
21.2250,35.18972832
21.2300,35.03068932
21.2350,34.87206294
21.2400,34.71388009
21.2450,34.55611872
21.2500,34.39913506
21.2550,34.24303803
21.2600,34.08802026
21.2650,33.93429177
21.2700,33.78187543
21.2750,33.63073241
21.2800,33.48109502
21.2850,33.33289326
21.2900,33.18655531
21.2950,33.04222191
21.3000,32.90010805
21.3050,32.76019939
21.3100,32.62252251
21.3150,32.48702176
21.3200,32.35385594
21.3250,32.22325496
21.3300,32.09507216
21.3350,31.96955748
21.3400,31.84670303
21.3450,31.72666202
21.3500,31.60926546
21.3550,31.49465412
21.3600,31.38280021
21.3650,31.27391209
21.3700,31.16799884
21.3750,31.06524471
21.3800,30.96540726
21.3850,30.86869036
21.3900,30.77505162
21.3950,30.68449982
21.4000,30.5970969
21.4050,30.51270671
21.4100,30.43150432
21.4150,30.35315718
21.4200,30.27783179
21.4250,30.20545864
21.4300,30.13595088
21.4350,30.06936042
21.4400,30.00546282
21.4450,29.94425457
21.4500,29.88562543
21.4550,29.82955793
21.4600,29.77601615
21.4650,29.72479429
21.4700,29.67567353
21.4750,29.62874995
21.4800,29.58394851
21.4850,29.54121683
21.4900,29.50037878
21.4950,29.46167185
21.5000,29.42505348
21.5050,29.39046401
21.5100,29.35786387
21.5150,29.32720394
21.5200,29.29830189
21.5250,29.27132879
21.5300,29.24645623
21.5350,29.2233832
21.5400,29.20238271
21.5450,29.18339657
21.5500,29.16646223
21.5550,29.15157906
21.5600,29.13880993
21.5650,29.12822628
21.5700,29.11996388
21.5750,29.11426671
21.5800,29.11122065
21.5850,29.11109179
21.5900,29.11372641
21.5950,29.11903524
21.6000,29.12722389
21.6050,29.13827637
21.6100,29.1523482
21.6150,29.16954558
21.6200,29.19000968
21.6250,29.21370018
21.6300,29.24083618
21.6350,29.27117105
21.6400,29.30491299
21.6450,29.34209178
21.6500,29.3828381
21.6550,29.42715355
21.6600,29.4752222
21.6650,29.52695367
21.6700,29.58235377
21.6750,29.64149002
21.6800,29.70453139
21.6850,29.77137125
21.6900,29.84185537
21.6950,29.91631781
21.7000,29.9947079
21.7050,30.07704951
21.7100,30.16332622
21.7150,30.2536961
21.7200,30.34834461
21.7250,30.44726389
21.7300,30.55049896
21.7350,30.65812494
21.7400,30.7701489
21.7450,30.88652774
21.7500,31.00730211
21.7550,31.13208961
21.7600,31.26091525
21.7650,31.39398193
21.7700,31.53112093
21.7750,31.6721758
21.7800,31.81708571
21.7850,31.96561499
21.7900,32.11791369
21.7950,32.27369993
21.8000,32.43295107
21.8050,32.59565626
21.8100,32.7616717
21.8150,32.93084458
21.8200,33.10326481
21.8250,33.2786226
21.8300,33.4567335
21.8350,33.63755376
21.8400,33.82080087
21.8450,34.00668448
21.8500,34.19496141
21.8550,34.38556084
21.8600,34.57849795
21.8650,34.77378836
21.8700,34.9712753
21.8750,35.1709091
21.8800,35.37250424
21.8850,35.57605643
21.8900,35.78152136
21.8950,35.98888625
21.9000,36.19800225
21.9050,36.40872183
21.9100,36.62086625
21.9150,36.8342225
21.9200,37.04879914
21.9250,37.26443138
21.9300,37.48103491
21.9350,37.69857926
21.9400,37.91692097
21.9450,38.13615466
21.9500,38.3560061
21.9550,38.57665833
21.9600,38.79775162
21.9650,39.01944121
21.9700,39.24146418
21.9750,39.46386489
21.9800,39.68633939
21.9850,39.90899842
21.9900,40.13171445
21.9950,40.35426028
22.0000,40.57660005
22.0050,40.79864902
22.0100,41.02039014
22.0150,41.24174465
22.0200,41.46242585
22.0250,41.68237754
22.0300,41.90174521
22.0350,42.12043694
22.0400,42.33832204
22.0450,42.55564488
22.0500,42.77208543
22.0550,42.98801476
22.0600,43.20328685
22.0650,43.41770053
22.0700,43.63135689
22.0750,43.84410124
22.0800,44.05567468
22.0850,44.26627053
22.0900,44.47571723
22.0950,44.68411308
22.1000,44.89141712
22.1050,45.09748328
22.1100,45.30254901
22.1150,45.5063146
22.1200,45.70882544
22.1250,45.91013973
22.1300,46.11051853
22.1350,46.31015061
22.1400,46.50913551
22.1450,46.70717796
22.1500,46.90460816
22.1550,47.10146947
22.1600,47.29776582
22.1650,47.4934537
22.1700,47.68847876
22.1750,47.88300938
22.1800,48.07707631
22.1850,48.27059978
22.1900,48.46364919
22.1950,48.65628105
22.2000,48.84836747
22.2050,49.04001814
22.2100,49.23147407
22.2150,49.4230375
22.2200,49.61464749
22.2250,49.80668888
22.2300,49.99917502
22.2350,50.19191784
22.2400,50.38480407
22.2450,50.57753967
22.2500,50.77007592
22.2550,50.9621671
22.2600,51.15387966
22.2650,51.34500686
22.2700,51.53565785
22.2750,51.72573705
22.2800,51.91555693
22.2850,52.10496904
22.2900,52.29410804
22.2950,52.48281394
22.3000,52.67120203
22.3050,52.85939368
22.3100,53.04711575
22.3150,53.23436115
22.3200,53.4210304
22.3250,53.6070079
22.3300,53.79209069
22.3350,53.97602054
22.3400,54.15864611
22.3450,54.33952074
22.3500,54.51869567
22.3550,54.69583875
22.3600,54.87092692
22.3650,55.04377558
22.3700,55.21418466
22.3750,55.38226352
22.3800,55.5481439
22.3850,55.71161403
22.3900,55.87279512
22.3950,56.03147411
22.4000,56.18752853
22.4050,56.34091915
22.4100,56.49136847
22.4150,56.63900282
22.4200,56.78359969
22.4250,56.92486449
22.4300,57.06245546
22.4350,57.19635546
22.4400,57.32639789
22.4450,57.45261339
22.4500,57.57463118
22.4550,57.69247145
22.4600,57.80620388
22.4650,57.91586847
22.4700,58.02169815
22.4750,58.12349998
22.4800,58.2211095
22.4850,58.31436578
22.4900,58.40326376
22.4950,58.48766465
22.5000,58.5677413
22.5050,58.64335941
22.5100,58.71427992
22.5150,58.78037893
22.5200,58.84166247
22.5250,58.89786374
22.5300,58.94931883
22.5350,58.9960126
22.5400,59.03817076
22.5450,59.07588122
22.5500,59.108979
22.5550,59.13776523
22.5600,59.16214366
22.5650,59.1821388
22.5700,59.19767203
22.5750,59.20844701
22.5800,59.21388375
22.5850,59.21375752
22.5900,59.20814184
22.5950,59.19688534
22.6000,59.17965902
22.6050,59.15640992
22.6100,59.12757932
22.6150,59.0935993
22.6200,59.0546015
22.6250,59.01060678
22.6300,58.96154587
22.6350,58.90712867
22.6400,58.84730485
22.6450,58.78246828
22.6500,58.71284464
22.6550,58.63860178
22.6600,58.55987635
22.6650,58.47673749
22.6700,58.38946969
22.6750,58.29829278
22.6800,58.20316016
22.6850,58.1040569
22.6900,58.00080372
22.6950,57.89306759
22.7000,57.78105153
22.7050,57.66465963
22.7100,57.54393698
22.7150,57.41885373
22.7200,57.28976389
22.7250,57.15692664
22.7300,57.02062999
22.7350,56.88068355
22.7400,56.73741751
22.7450,56.59085101
22.7500,56.44118423
22.7550,56.28851638
22.7600,56.13288366
22.7650,55.97443844
22.7700,55.81304622
22.7750,55.64914356
22.7800,55.48264071
22.7850,55.31389149
22.7900,55.14303521
22.7950,54.97021443
22.8000,54.79564312
22.8050,54.61960243
22.8100,54.44217197
22.8150,54.2633635
22.8200,54.08353978
22.8250,53.90270965
22.8300,53.72071701
22.8350,53.53791096
22.8400,53.35421012
22.8450,53.16978322
22.8500,52.98477032
22.8550,52.79900586
22.8600,52.61225572
22.8650,52.42452037
22.8700,52.23582792
22.8750,52.04635865
22.8800,51.85632178
22.8850,51.66574005
22.8900,51.47478661
22.8950,51.28373414
22.9000,51.09257192
22.9050,50.90126542
22.9100,50.70944311
22.9150,50.51669928
22.9200,50.32283348
22.9250,50.12775588
22.9300,49.93119846
22.9350,49.73355014
22.9400,49.5349056
22.9450,49.33525891
22.9500,49.13426287
22.9550,48.93195879
22.9600,48.72824195
22.9650,48.52320259
22.9700,48.3166726
22.9750,48.10861701
22.9800,47.89902805
22.9850,47.68784104
22.9900,47.47494726
22.9950,47.26057124
23.0000,47.04455954
23.0050,46.82694325
23.0100,46.6075332
23.0150,46.38655921
23.0200,46.16363627
23.0250,45.93886332
23.0300,45.71204009
23.0350,45.48341552
23.0400,45.25287787
23.0450,45.02047887
23.0500,44.78622366
23.0550,44.55021383
23.0600,44.31237954
23.0650,44.07266795
23.0700,43.83130309
23.0750,43.58803476
23.0800,43.34316821
23.0850,43.09647303
23.0900,42.84787013
23.0950,42.59733414
23.1000,42.34472818
23.1050,42.09009097
23.1100,41.83361388
23.1150,41.57542556
23.1200,41.31515468
23.1250,41.05318571
23.1300,40.78944737
23.1350,40.5240072
23.1400,40.25702183
23.1450,39.98839402
23.1500,39.71842953
23.1550,39.44723491
23.1600,39.17491815
23.1650,38.9015235
23.1700,38.62728884
23.1750,38.35207138
23.1800,38.07627529
23.1850,37.79988188
23.1900,37.52305034
23.1950,37.24577494
23.2000,36.96836465
23.2050,36.69082741
23.2100,36.41340053
23.2150,36.13620696
23.2200,35.8595007
23.2250,35.58328405
23.2300,35.30787037
23.2350,35.0332365
23.2400,34.75929459
23.2450,34.48607517
23.2500,34.21387857
23.2550,33.94262275
23.2600,33.67250968
23.2650,33.40332572
23.2700,33.13526767
23.2750,32.86809527
23.2800,32.60188974
23.2850,32.33674805
23.2900,32.072749
23.2950,31.80996247
23.3000,31.54835151
23.3050,31.28801477
23.3100,31.02886984
23.3150,30.7709533
23.3200,30.51435566
23.3250,30.25902873
23.3300,30.00490868
23.3350,29.75219788
23.3400,29.50088247
23.3450,29.25106464
23.3500,29.00295979
23.3550,28.75633855
23.3600,28.51139247
23.3650,28.26799718
23.3700,28.0262502
23.3750,27.78622461
23.3800,27.54766358
23.3850,27.31085088
23.3900,27.07576252
23.3950,26.84239319
23.4000,26.61089164
23.4050,26.38126407
23.4100,26.15350963
23.4150,25.92766124
23.4200,25.70372256
23.4250,25.48149905
23.4300,25.2611357
23.4350,25.04252149
23.4400,24.82562745
23.4450,24.61058841
23.4500,24.3972625
23.4550,24.1858658
23.4600,23.97646781
23.4650,23.76921971
23.4700,23.56398311
23.4750,23.36107371
23.4800,23.16050263
23.4850,22.96234509
23.4900,22.76644426
23.4950,22.57291413
23.5000,22.38159232
23.5050,22.19266779
23.5100,22.00597969
23.5150,21.82168516
23.5200,21.63977733
23.5250,21.46019676
23.5300,21.28289456
23.5350,21.10787241
23.5400,20.93532062
23.5450,20.76516759
23.5500,20.59736133
23.5550,20.43202075
23.5600,20.26917938
23.5650,20.10889447
23.5700,19.95092328
23.5750,19.79542727
23.5800,19.64226322
23.5850,19.49139598
23.5900,19.34274318
23.5950,19.1961993
23.6000,19.05167698
23.6050,18.90901927
23.6100,18.76845301
23.6150,18.62969057
23.6200,18.49263073
23.6250,18.35720683
23.6300,18.22336991
23.6350,18.09093919
23.6400,17.95970786
23.6450,17.82958987
23.6500,17.70031765
23.6550,17.57192983
23.6600,17.44407296
23.6650,17.31682336
23.6700,17.19002032
23.6750,17.06331929
23.6800,16.9370247
23.6850,16.81071709
23.6900,16.68437625
23.6950,16.55807064
23.7000,16.43167321
23.7050,16.30516157
23.7100,16.17844716
23.7150,16.05129276
23.7200,15.92376627
23.7250,15.79586812
23.7300,15.66739973
23.7350,15.53839232
23.7400,15.40891082
23.7450,15.27879381
23.7500,15.14813439
23.7550,15.01678206
23.7600,14.88487832
23.7650,14.75232533
23.7700,14.61921506
23.7750,14.48559488
23.7800,14.35161593
23.7850,14.21731128
23.7900,14.08295096
23.7950,13.94859492
23.8000,13.81451747
23.8050,13.68095659
23.8100,13.54814387
23.8150,13.41627444
23.8200,13.28555402
23.8250,13.15638405
23.8300,13.02887532
23.8350,12.90349363
23.8400,12.78020848
23.8450,12.65919528
23.8500,12.54073191
23.8550,12.42501212
23.8600,12.31196115
23.8650,12.20178007
23.8700,12.09453963
23.8750,11.99028972
23.8800,11.88913449
23.8850,11.79115663
23.8900,11.69639057
23.8950,11.60480828
23.9000,11.51648886
23.9050,11.43141382
23.9100,11.34947905
23.9150,11.27071626
23.9200,11.19509635
23.9250,11.12252049
23.9300,11.05321768
23.9350,10.98684777
23.9400,10.92352089
23.9450,10.86303053
23.9500,10.80546322
23.9550,10.7505649
23.9600,10.69836951
23.9650,10.64864897
23.9700,10.60121613
23.9750,10.55622711
23.9800,10.51307028
23.9850,10.47193664
23.9900,10.43253724
23.9950,10.39469674
24.0000,10.35828466
24.0050,10.32308742
24.0100,10.28891457
24.0150,10.25569543
24.0200,10.2234937
24.0250,10.19211596
24.0300,10.16175784
24.0350,10.13210134
24.0400,10.10304206
24.0450,10.07470194
24.0500,10.04691485
24.0550,10.01971928
24.0600,9.993055006
24.0650,9.967103462
24.0700,9.941818943
24.0750,9.917326573
24.0800,9.893477706
24.0850,9.870472548
24.0900,9.848329518
24.0950,9.827095024
24.1000,9.806830604
24.1050,9.787335843
24.1100,9.768749839
24.1150,9.750926957
24.1200,9.733899211
24.1250,9.717539589
24.1300,9.701954276
24.1350,9.686887749
24.1400,9.672276226
24.1450,9.658246319
24.1500,9.644635883
24.1550,9.631582241
24.1600,9.618998251
24.1650,9.606711613
24.1700,9.594957258
24.1750,9.583684623
24.1800,9.572905211
24.1850,9.562421875
24.1900,9.55243205
24.1950,9.542944664
24.2000,9.533794164
24.2050,9.525191203
24.2100,9.517050605
24.2150,9.509356371
24.2200,9.502242905
24.2250,9.495671658
24.2300,9.489610382
24.2350,9.484086806
24.2400,9.479067029
24.2450,9.474637509
24.2500,9.470610506
24.2550,9.467073248
24.2600,9.463976597
24.2650,9.461399842
24.2700,9.459296046
24.2750,9.457677844
24.2800,9.456681498
24.2850,9.456330917
24.2900,9.456635458
24.2950,9.457538829
24.3000,9.459180541
24.3050,9.461722279
24.3100,9.465092399
24.3150,9.46950214
24.3200,9.474776074
24.3250,9.481097417
24.3300,9.488427144
24.3350,9.49689318
24.3400,9.506669909
24.3450,9.517784114
24.3500,9.530436391
24.3550,9.54458552
24.3600,9.560374797
24.3650,9.57767664
24.3700,9.596573399
24.3750,9.617004186
24.3800,9.638846586
24.3850,9.6621894
24.3900,9.686838366
24.3950,9.712710786
24.4000,9.739693128
24.4050,9.767713447
24.4100,9.796486806
24.4150,9.826263485
24.4200,9.856700696
24.4250,9.888042619
24.4300,9.92014954
24.4350,9.952945194
24.4400,9.986521021
24.4450,10.02080208
24.4500,10.05596334
24.4550,10.09171111
24.4600,10.12808656
24.4650,10.16545313
24.4700,10.20381745
24.4750,10.24310321
24.4800,10.28342992
24.4850,10.32484161
24.4900,10.3672955
24.4950,10.41080048
24.5000,10.45543866
24.5050,10.50124406
24.5100,10.54833522
24.5150,10.59688554
24.5200,10.64694192
24.5250,10.69877346
24.5300,10.7523111
24.5350,10.80803334
24.5400,10.86596933
24.5450,10.92623887
24.5500,10.98917471
24.5550,11.05492823
24.5600,11.1236452
24.5650,11.19532987
24.5700,11.27012146
24.5750,11.34814882
24.5800,11.42940018
24.5850,11.51409802
24.5900,11.60227502
24.5950,11.69393453
24.6000,11.78907432
24.6050,11.88762438
24.6100,11.9896645
24.6150,12.09514473
24.6200,12.20409391
24.6250,12.31638782
24.6300,12.43195148
24.6350,12.55090963
24.6400,12.67314622
24.6450,12.79874483
24.6500,12.92779168
24.6550,13.0601496
24.6600,13.1958834
24.6650,13.3351805
24.6700,13.47821631
24.6750,13.6250193
24.6800,13.77566976
24.6850,13.93017291
24.6900,14.08863355
24.6950,14.25120017
24.7000,14.41788853
24.7050,14.58882456
24.7100,14.76411776
24.7150,14.94353629
24.7200,15.12700016
24.7250,15.31432394
24.7300,15.50548189
24.7350,15.70030263
24.7400,15.89875561
24.7450,16.10049745
24.7500,16.30526849
24.7550,16.51314894
24.7600,16.72382862
24.7650,16.93699769
24.7700,17.15250902
24.7750,17.37031976
24.7800,17.59015637
24.7850,17.8121292
24.7900,18.0361856
24.7950,18.26224612
24.8000,18.49039299
24.8050,18.72050283
24.8100,18.95253894
24.8150,19.18654468
24.8200,19.42253812
24.8250,19.66050849
24.8300,19.90020322
24.8350,20.1415843
24.8400,20.38460964
24.8450,20.62951896
24.8500,20.87592864
24.8550,21.12379169
24.8600,21.37311048
24.8650,21.62394859
24.8700,21.8764631
24.8750,22.1304432
24.8800,22.38585889
24.8850,22.64250138
24.8900,22.90025238
24.8950,23.15918416
24.9000,23.41933273
24.9050,23.68062767
24.9100,23.94307958
24.9150,24.20665949
24.9200,24.47133823
24.9250,24.73705471
24.9300,25.00383095
24.9350,25.27172461
24.9400,25.54064862
24.9450,25.81062274
24.9500,26.08138289
24.9550,26.35319672
24.9600,26.62590074
24.9650,26.89939861
24.9700,27.17355462
24.9750,27.44846328
24.9800,27.72424432
24.9850,28.00088683
24.9900,28.278211
24.9950,28.55621817
25.0000,28.83474046
25.0050,29.11361733
25.0100,29.39274723
25.0150,29.67184318
25.0200,29.95107108
25.0250,30.23025418
25.0300,30.50937645
25.0350,30.78840554
25.0400,31.06720504
25.0450,31.34587966
25.0500,31.62421823
25.0550,31.90209195
25.0600,32.17968139
25.0650,32.45694155
25.0700,32.733764
25.0750,33.01000985
25.0800,33.28594697
25.0850,33.56140124
25.0900,33.83634604
25.0950,34.11066713
25.1000,34.38440043
25.1050,34.65729563
25.1100,34.9294325
25.1150,35.20046997
25.1200,35.470544
25.1250,35.73931425
25.1300,36.00718286
25.1350,36.27364169
25.1400,36.53871581
25.1450,36.80210827
25.1500,37.06389693
25.1550,37.32399902
25.1600,37.58240023
25.1650,37.8389414
25.1700,38.09347267
25.1750,38.34607215
25.1800,38.5968743
25.1850,38.8456886
25.1900,39.09301439
25.1950,39.33885799
25.2000,39.58329348
25.2050,39.826626
25.2100,40.06941232
25.2150,40.31161714
25.2200,40.55357836
25.2250,40.79573578
25.2300,41.03841979
25.2350,41.28210579
25.2400,41.52734285
25.2450,41.77456488
25.2500,42.02484199
25.2550,42.2789192
25.2600,42.53772967
25.2650,42.80225439
25.2700,43.07330267
25.2750,43.35177432
25.2800,43.63841214
25.2850,43.93389975
25.2900,44.23883212
25.2950,44.55396056
25.3000,44.87952575
25.3050,45.21576591
25.3100,45.56243433
25.3150,45.69262839
25.3200,45.83550227
25.3250,45.99030239
25.3300,46.15602017
25.3350,46.33144282
25.3400,46.51519747
25.3450,46.70579006
25.3500,46.90163932
25.3550,47.10110603
25.3600,47.3025193
25.3650,47.50420047
25.3700,47.7044829
25.3750,47.9017273
25.3800,48.09433366
25.3850,48.28075103
25.3900,48.45948621
25.3950,48.62911223
25.4000,48.78827887
25.4050,48.93572831
25.4100,49.07031837
25.4150,49.19105392
25.4200,49.29712645
25.4250,49.38796193
25.4300,49.46327798
25.4350,49.52315111
