type,name,time_units,begin_time,frequency,count,units
signal,"Noraxon Ultium-RT BRACHIORAD.","s",0.00000,2000,50880,"uV"

time,value
0.00000,-6.396118282
0.00050,-1.818202166
0.00100,-0.2922301275
0.00150,-7.92209032
0.00200,-22.8766163
0.00250,-36.61036464
0.00300,-42.7142528
0.00350,-42.7142528
0.00400,-40.27269754
0.00450,-36.61036464
0.00500,-29.89608767
0.00550,-22.57142189
0.00600,-18.909089
0.00650,-17.68831137
0.00700,-11.58442321
0.00750,4.285685988
0.00800,24.12332249
0.00850,35.41551557
0.00900,34.80512676
0.00950,26.87007216
0.01000,14.96749026
0.01050,-1.818202166
0.01100,-21.65583867
0.01150,-34.7791982
0.01200,-36.91555905
0.01250,-35.99997583
0.01300,-41.49347517
0.01350,-52.17527944
0.01400,-57.05838996
0.01450,-52.48047384
0.01500,-42.40905839
0.01550,-32.64283734
0.01600,-21.65583867
0.01650,-5.785729466
0.01700,13.44151822
0.01750,30.53240505
0.01800,40.6038205
0.01850,43.96095899
0.01900,43.65576458
0.01950,41.82459814
0.02000,37.85707084
0.02050,32.6687659
0.02100,28.3960442
0.02150,26.25968334
0.02200,22.90254486
0.02250,18.32462874
0.02300,16.18826789
0.02350,16.4934623
0.02400,13.74671263
0.02450,3.370102765
0.02500,-7.92209032
0.02550,-11.88961762
0.02600,-10.66883999
0.02650,-14.9415617
0.02700,-27.75972682
0.02750,-39.66230872
0.02800,-43.93503043
0.02850,-45.76619688
0.02900,-50.34411299
0.02950,-52.78566825
0.03000,-44.54541924
0.03050,-28.37011564
0.03100,-12.19481203
0.03150,0.3181586879
0.03200,12.8311294
0.03250,25.03890571
0.03300,32.3635715
0.03350,34.49993235
0.03400,34.19473794
0.03450,32.3635715
0.03500,25.64929453
0.03550,16.18826789
0.03600,9.473990919
0.03650,9.168796511
0.03700,9.168796511
0.03750,3.370102765
0.03800,-7.616895912
0.03850,-18.60389459
0.03900,-24.40258834
0.03950,-23.18181071
0.04000,-17.38311696
0.04050,-11.2792288
0.04100,-8.837673543
0.04150,-9.142867951
0.04200,-7.311701505
0.04250,-2.428590981
0.04300,1.538936319
0.04350,3.98049158
0.04400,8.253213288
0.04450,16.7986567
0.04500,26.56487775
0.04550,32.97396031
0.04600,35.11032117
0.04650,35.11032117
0.04700,32.05837709
0.04750,25.34410012
0.04800,16.7986567
0.04850,9.168796511
0.04900,4.285685988
0.04950,1.844130726
0.05000,0.6233530956
0.05050,0.3181586879
0.05100,-1.513007758
0.05150,-4.259757428
0.05200,-6.090923874
0.05250,-6.701312689
0.05300,-8.837673543
0.05350,-13.72078407
0.05400,-18.29870018
0.05450,-18.909089
0.05500,-16.16233933
0.05550,-14.33117288
0.05600,-13.72078407
0.05650,-13.41558966
0.05700,-13.11039525
0.05750,-12.80520084
0.05800,-10.36364558
0.05850,-3.344174205
0.05900,7.642824473
0.05950,20.15579519
0.06000,30.22721064
0.06050,35.41551557
0.06100,34.49993235
0.06150,27.48046097
0.06200,19.24021197
0.06250,14.05190703
0.06300,9.168796511
0.06350,-1.207813351
0.06400,-17.68831137
0.06450,-30.50647649
0.06500,-31.72725412
0.06550,-25.31817156
0.06600,-18.909089
0.06650,-14.63636729
0.06700,-7.92209032
0.06750,0.9285475033
0.06800,6.116852434
0.06850,4.896074803
0.06900,1.844130726
0.06950,3.675297173
0.07000,11.30515737
0.07050,21.37657282
0.07100,29.92201623
0.07150,35.11032117
0.07200,34.19473794
0.07250,27.17526657
0.07300,17.40904552
0.07350,9.168796511
0.07400,2.75971395
0.07450,-2.123396574
0.07500,-7.006507097
0.07550,-9.753256766
0.07600,-11.58442321
0.07650,-14.9415617
0.07700,-18.909089
0.07750,-20.74025544
0.07800,-19.82467222
0.07850,-21.04544985
0.07900,-26.53894919
0.07950,-28.98050445
0.08000,-19.51947781
0.08050,0.6233530956
0.08100,18.62982315
0.08150,24.12332249
0.08200,20.766184
0.08250,18.62982315
0.08300,19.24021197
0.08350,14.66229585
0.08400,-0.9026189429
0.08450,-20.43506104
0.08500,-32.64283734
0.08550,-33.55842057
0.08600,-29.59089327
0.08650,-27.14933801
0.08700,-25.01297715
0.08750,-19.82467222
0.08800,-11.88961762
0.08850,-6.396118282
0.08900,-3.344174205
0.08950,3.064908357
0.09000,18.62982315
0.09050,36.94148761
0.09100,48.84406951
0.09150,51.89601359
0.09200,53.42198563
0.09250,57.69470734
0.09300,61.35704023
0.09350,59.22067937
0.09400,52.201208
0.09450,44.5713478
0.09500,39.07784847
0.09550,35.11032117
0.09600,32.05837709
0.09650,28.7012386
0.09700,24.12332249
0.09750,19.24021197
0.09800,16.7986567
0.09850,17.10385111
0.09900,16.4934623
0.09950,13.44151822
0.10000,9.779185327
0.10050,9.168796511
0.10100,10.38957414
0.10150,11.30515737
0.10200,10.99996296
0.10250,10.38957414
0.10300,10.08437973
0.10350,9.779185327
0.10400,9.473990919
0.10450,8.558407696
0.10500,6.422046842
0.10550,1.233741911
0.10600,-5.480535058
0.10650,-12.50000644
0.10700,-18.29870018
0.10750,-21.96103307
0.10800,-22.26622748
0.10850,-18.909089
0.10900,-14.02597847
0.10950,-10.36364558
0.11000,-9.448062359
0.11050,-8.837673543
0.11100,-4.870146243
0.11150,0.3181586879
0.11200,2.454519542
0.11250,0.3181586879
0.11300,-1.207813351
0.11350,1.844130726
0.11400,7.337630065
0.11450,7.642824473
0.11500,0.9285475033
0.11550,-7.006507097
0.11600,-10.36364558
0.11650,-9.753256766
0.11700,-8.532479135
0.11750,-6.396118282
0.11800,1.844130726
0.11850,18.01943433
0.11900,35.11032117
0.11950,42.43498695
0.12000,36.6362932
0.12050,25.34410012
0.12100,18.32462874
0.12150,17.71423993
0.12200,17.40904552
0.12250,13.74671263
0.12300,10.08437973
0.12350,9.168796511
0.12400,7.642824473
0.12450,2.75971395
0.12500,-0.5974245352
0.12550,1.538936319
0.12600,7.94801888
0.12650,10.99996296
0.12700,8.558407696
0.12750,2.454519542
0.12800,-4.564951835
0.12850,-11.58442321
0.12900,-16.16233933
0.12950,-16.46753374
0.13000,-14.63636729
0.13050,-13.11039525
0.13100,-11.2792288
0.13150,-8.227284728
0.13200,-5.785729466
0.13250,-5.785729466
0.13300,-3.649368612
0.13350,3.064908357
0.13400,8.558407696
0.13450,6.72724125
0.13500,0.3181586879
0.13550,-4.564951835
0.13600,-7.006507097
0.13650,-12.50000644
0.13700,-19.82467222
0.13750,-22.8766163
0.13800,-20.74025544
0.13850,-21.04544985
0.13900,-25.01297715
0.13950,-26.53894919
0.14000,-22.57142189
0.14050,-17.07792255
0.14100,-13.72078407
0.14150,-7.616895912
0.14200,3.98049158
0.14250,18.32462874
0.14300,28.3960442
0.14350,34.19473794
0.14400,38.77265406
0.14450,41.51940373
0.14500,37.85707084
0.14550,29.00643301
0.14600,19.54540637
0.14650,13.74671263
0.14700,10.38957414
0.14750,7.032435657
0.14800,3.98049158
0.14850,1.844130726
0.14900,0.3181586879
0.14950,-2.733785389
0.15000,-4.564951835
0.15050,0.3181586879
0.15100,13.13632381
0.15150,29.00643301
0.15200,40.6038205
0.15250,43.35057017
0.15300,37.55187643
0.15350,22.90254486
0.15400,1.538936319
0.15450,-17.38311696
0.15500,-26.53894919
0.15550,-24.40258834
0.15600,-19.51947781
0.15650,-18.909089
0.15700,-19.82467222
0.15750,-17.38311696
0.15800,-12.50000644
0.15850,-9.753256766
0.15900,-10.36364558
0.15950,-9.142867951
0.16000,-2.123396574
0.16050,8.253213288
0.16100,16.4934623
0.16150,18.32462874
0.16200,14.66229585
0.16250,8.558407696
0.16300,2.75971395
0.16350,-0.9026189429
0.16400,-2.428590981
0.16450,-2.123396574
0.16500,-3.649368612
0.16550,-8.227284728
0.16600,-11.58442321
0.16650,-8.837673543
0.16700,-1.513007758
0.16750,2.149325134
0.16800,0.3181586879
0.16850,-3.038979797
0.16900,-5.175340651
0.16950,-10.9740344
0.17000,-23.79219952
0.17050,-36.61036464
0.17100,-41.49347517
0.17150,-40.27269754
0.17200,-40.27269754
0.17250,-41.18828076
0.17300,-39.96750313
0.17350,-39.66230872
0.17400,-46.98697451
0.17450,-55.22722351
0.17500,-48.81814095
0.17550,-23.18181071
0.17600,7.032435657
0.17650,27.17526657
0.17700,36.6362932
0.17750,41.21420932
0.17800,39.68823728
0.17850,27.17526657
0.17900,8.863602104
0.17950,-2.123396574
0.18000,-1.207813351
0.18050,5.811658027
0.18100,10.08437973
0.18150,7.642824473
0.18200,0.3181586879
0.18250,-7.92209032
0.18300,-11.2792288
0.18350,-6.701312689
0.18400,2.149325134
0.18450,9.473990919
0.18500,10.08437973
0.18550,3.675297173
0.18600,-5.480535058
0.18650,-12.80520084
0.18700,-14.9415617
0.18750,-11.88961762
0.18800,-6.090923874
0.18850,0.3181586879
0.18900,4.896074803
0.18950,4.590880396
0.19000,0.3181586879
0.19050,-3.649368612
0.19100,-1.207813351
0.19150,5.201269211
0.19200,7.94801888
0.19250,3.064908357
0.19300,-5.785729466
0.19350,-15.85714492
0.19400,-27.75972682
0.19450,-40.88308635
0.19500,-50.95450181
0.19550,-54.6168347
0.19600,-54.6168347
0.19650,-52.78566825
0.19700,-44.85061365
0.19750,-29.28569886
0.19800,-14.33117288
0.19850,-9.448062359
0.19900,-11.2792288
0.19950,-6.701312689
0.20000,7.032435657
0.20050,20.4609896
0.20100,23.20773927
0.20150,19.24021197
0.20200,18.93501756
0.20250,26.25968334
0.20300,33.88954354
0.20350,36.6362932
0.20400,35.72070998
0.20450,38.16226524
0.20500,44.87654221
0.20550,51.28562477
0.20600,51.28562477
0.20650,44.5713478
0.20700,36.3310988
0.20750,30.83759946
0.20800,25.64929453
0.20850,13.44151822
0.20900,-5.480535058
0.20950,-21.35064426
0.21000,-24.70778274
0.21050,-19.82467222
0.21100,-17.07792255
0.21150,-19.82467222
0.21200,-22.57142189
0.21250,-24.40258834
0.21300,-32.33764294
0.21350,-47.29216891
0.21400,-58.584362
0.21450,-55.83761233
0.21500,-44.85061365
0.21550,-37.22075346
0.21600,-34.16880938
0.21650,-28.37011564
0.21700,-17.38311696
0.21750,-7.92209032
0.21800,-3.038979797
0.21850,3.064908357
0.21900,14.35710144
0.21950,26.25968334
0.22000,32.3635715
0.22050,29.92201623
0.22100,21.37657282
0.22150,10.99996296
0.22200,2.454519542
0.22250,-2.123396574
0.22300,-7.006507097
0.22350,-14.63636729
0.22400,-21.04544985
0.22450,-18.909089
0.22500,-8.532479135
0.22550,0.6233530956
0.22600,3.675297173
0.22650,3.370102765
0.22700,3.675297173
0.22750,3.98049158
0.22800,1.538936319
0.22850,-0.9026189429
0.22900,-1.207813351
0.22950,-2.123396574
0.23000,-7.311701505
0.23050,-15.85714492
0.23100,-24.40258834
0.23150,-32.94803175
0.23200,-40.57789194
0.23250,-43.93503043
0.23300,-41.49347517
0.23350,-37.52594787
0.23400,-36.30517024
0.23450,-34.7791982
0.23500,-28.67531004
0.23550,-18.909089
0.23600,-10.9740344
0.23650,-5.175340651
0.23700,1.233741911
0.23750,10.38957414
0.23800,17.71423993
0.23850,21.07137841
0.23900,21.37657282
0.23950,20.15579519
0.24000,16.7986567
0.24050,12.525935
0.24100,9.779185327
0.24150,9.168796511
0.24200,8.863602104
0.24250,7.94801888
0.24300,7.94801888
0.24350,7.94801888
0.24400,4.896074803
0.24450,-0.9026189429
0.24500,-6.396118282
0.24550,-9.753256766
0.24600,-11.58442321
0.24650,-11.88961762
0.24700,-7.92209032
0.24750,0.01296428019
0.24800,7.032435657
0.24850,7.94801888
0.24900,2.149325134
0.24950,-4.259757428
0.25000,-6.701312689
0.25050,-8.227284728
0.25100,-13.72078407
0.25150,-22.26622748
0.25200,-26.53894919
0.25250,-22.57142189
0.25300,-16.16233933
0.25350,-14.9415617
0.25400,-17.38311696
0.25450,-16.16233933
0.25500,-9.448062359
0.25550,-3.038979797
0.25600,0.3181586879
0.25650,3.064908357
0.25700,6.116852434
0.25750,3.370102765
0.25800,-4.870146243
0.25850,-9.753256766
0.25900,-6.090923874
0.25950,-2.733785389
0.26000,-10.66883999
0.26050,-25.31817156
0.26100,-30.50647649
0.26150,-19.51947781
0.26200,-1.513007758
0.26250,11.30515737
0.26300,18.32462874
0.26350,24.12332249
0.26400,28.3960442
0.26450,27.17526657
0.26500,23.51293367
0.26550,24.12332249
0.26600,31.14279387
0.26650,37.55187643
0.26700,36.3310988
0.26750,29.61682183
0.26800,23.20773927
0.26850,18.01943433
0.26900,11.61035177
0.26950,5.811658027
0.27000,3.370102765
0.27050,3.98049158
0.27100,1.538936319
0.27150,-6.090923874
0.27200,-16.46753374
0.27250,-26.23375478
0.27300,-35.99997583
0.27350,-44.85061365
0.27400,-47.90255773
0.27450,-41.18828076
0.27500,-27.14933801
0.27550,-12.19481203
0.27600,0.01296428019
0.27650,10.08437973
0.27700,19.54540637
0.27750,29.00643301
0.27800,36.3310988
0.27850,40.2986261
0.27900,40.6038205
0.27950,37.24668202
0.28000,29.31162742
0.28050,15.88307348
0.28100,2.454519542
0.28150,-3.038979797
0.28200,-0.5974245352
0.28250,2.454519542
0.28300,0.6233530956
0.28350,-1.513007758
0.28400,2.75971395
0.28450,11.91554618
0.28500,17.10385111
0.28550,15.27268467
0.28600,11.91554618
0.28650,10.38957414
0.28700,9.779185327
0.28750,8.253213288
0.28800,7.032435657
0.28850,6.116852434
0.28900,2.75971395
0.28950,-0.9026189429
0.29000,-1.818202166
0.29050,-2.428590981
0.29100,-9.142867951
0.29150,-21.35064426
0.29200,-28.37011564
0.29250,-23.48700511
0.29300,-14.02597847
0.29350,-10.66883999
0.29400,-15.2467561
0.29450,-22.26622748
0.29500,-26.53894919
0.29550,-25.31817156
0.29600,-17.07792255
0.29650,-2.733785389
0.29700,10.69476855
0.29750,19.24021197
0.29800,22.90254486
0.29850,24.4285169
0.29900,23.51293367
0.29950,18.62982315
0.30000,12.8311294
0.30050,11.30515737
0.30100,14.66229585
0.30150,18.01943433
0.30200,18.32462874
0.30250,16.7986567
0.30300,14.35710144
0.30350,8.253213288
0.30400,-1.818202166
0.30450,-11.58442321
0.30500,-15.55195051
0.30550,-15.85714492
0.30600,-17.99350577
0.30650,-24.09739393
0.30700,-31.42205971
0.30750,-35.38958701
0.30800,-34.7791982
0.30850,-29.59089327
0.30900,-20.12986663
0.30950,-8.837673543
0.31000,-3.038979797
0.31050,-6.090923874
0.31100,-11.2792288
0.31150,-5.785729466
0.31200,13.44151822
0.31250,37.24668202
0.31300,50.67523596
0.31350,49.45445833
0.31400,39.07784847
0.31450,29.00643301
0.31500,22.29215604
0.31550,19.54540637
0.31600,18.01943433
0.31650,15.57787907
0.31700,10.99996296
0.31750,5.506463619
0.31800,0.9285475033
0.31850,-3.649368612
0.31900,-11.2792288
0.31950,-21.65583867
0.32000,-29.28569886
0.32050,-30.20128208
0.32100,-25.31817156
0.32150,-18.909089
0.32200,-10.66883999
0.32250,3.064908357
0.32300,25.34410012
0.32350,50.37004155
0.32400,68.0713172
0.32450,72.95442772
0.32500,66.85053957
0.32550,57.69470734
0.32600,50.98043037
0.32650,45.18173662
0.32700,36.3310988
0.32750,26.25968334
0.32800,21.07137841
0.32850,21.37657282
0.32900,21.68176723
0.32950,15.88307348
0.33000,6.72724125
0.33050,-1.207813351
0.33100,-10.05845117
0.33150,-22.26622748
0.33200,-34.7791982
0.33250,-37.22075346
0.33300,-27.14933801
0.33350,-13.11039525
0.33400,-5.175340651
0.33450,-3.038979797
0.33500,-0.9026189429
0.33550,4.896074803
0.33600,14.05190703
0.33650,23.51293367
0.33700,29.61682183
0.33750,31.14279387
0.33800,30.22721064
0.33850,29.00643301
0.33900,27.48046097
0.33950,22.90254486
0.34000,17.10385111
0.34050,12.22074059
0.34100,6.422046842
0.34150,-3.649368612
0.34200,-17.38311696
0.34250,-26.23375478
0.34300,-27.45453241
0.34350,-25.62336597
0.34400,-24.70778274
0.34450,-22.57142189
0.34500,-17.38311696
0.34550,-11.2792288
0.34600,-7.92209032
0.34650,-7.616895912
0.34700,-10.05845117
0.34750,-12.80520084
0.34800,-11.88961762
0.34850,-5.480535058
0.34900,-0.2922301275
0.34950,-5.480535058
0.35000,-20.74025544
0.35050,-35.69478142
0.35100,-43.01944721
0.35150,-43.01944721
0.35200,-39.05191991
0.35250,-31.11686531
0.35300,-19.51947781
0.35350,-9.448062359
0.35400,-4.259757428
0.35450,-2.733785389
0.35500,0.3181586879
0.35550,8.253213288
0.35600,19.24021197
0.35650,27.78565538
0.35700,30.22721064
0.35750,27.17526657
0.35800,25.03890571
0.35850,25.95448893
0.35900,25.34410012
0.35950,18.32462874
0.36000,7.032435657
0.36050,-1.513007758
0.36100,-5.175340651
0.36150,-4.564951835
0.36200,-0.5974245352
0.36250,5.201269211
0.36300,9.779185327
0.36350,9.168796511
0.36400,6.422046842
0.36450,7.337630065
0.36500,13.13632381
0.36550,18.32462874
0.36600,18.62982315
0.36650,16.7986567
0.36700,17.40904552
0.36750,21.37657282
0.36800,25.64929453
0.36850,25.34410012
0.36900,18.32462874
0.36950,7.337630065
0.37000,-3.038979797
0.37050,-8.837673543
0.37100,-8.837673543
0.37150,-7.616895912
0.37200,-11.2792288
0.37250,-21.04544985
0.37300,-32.33764294
0.37350,-39.35711431
0.37400,-41.79866957
0.37450,-42.7142528
0.37500,-42.10386398
0.37550,-38.44153109
0.37600,-35.38958701
0.37650,-36.30517024
0.37700,-36.61036464
0.37750,-26.53894919
0.37800,-4.564951835
0.37850,18.62982315
0.37900,32.3635715
0.37950,37.85707084
0.38000,41.21420932
0.38050,43.96095899
0.38100,45.79212544
0.38150,47.31809747
0.38200,49.14926392
0.38250,47.92848629
0.38300,41.51940373
0.38350,31.14279387
0.38400,17.40904552
0.38450,-1.207813351
0.38500,-21.35064426
0.38550,-29.89608767
0.38600,-24.09739393
0.38650,-19.21428341
0.38700,-29.28569886
0.38750,-46.07139128
0.38800,-48.51294654
0.38850,-33.25322616
0.38900,-18.909089
0.38950,-17.99350577
0.39000,-21.65583867
0.39050,-16.16233933
0.39100,-1.207813351
0.39150,13.13632381
0.39200,21.37657282
0.39250,25.34410012
0.39300,27.78565538
0.39350,29.92201623
0.39400,33.58434913
0.39450,39.68823728
0.39500,47.31809747
0.39550,55.86354089
0.39600,62.27262345
0.39650,62.27262345
0.39700,54.94795767
0.39750,46.70770866
0.39800,45.79212544
0.39850,50.06484714
0.39900,47.62329188
0.39950,33.88954354
0.40000,17.10385111
0.40050,6.116852434
0.40100,-0.2922301275
0.40150,-9.142867951
0.40200,-19.82467222
0.40250,-26.8441436
0.40300,-29.59089327
0.40350,-31.72725412
0.40400,-32.94803175
0.40450,-29.28569886
0.40500,-21.35064426
0.40550,-15.2467561
0.40600,-14.63636729
0.40650,-15.2467561
0.40700,-10.66883999
0.40750,0.3181586879
0.40800,14.05190703
0.40850,26.56487775
0.40900,35.41551557
0.40950,39.38304287
0.41000,39.38304287
0.41050,40.6038205
0.41100,46.70770866
0.41150,57.08431852
0.41200,66.85053957
0.41250,72.95442772
0.41300,75.09078857
0.41350,72.0388445
0.41400,62.27262345
0.41450,47.92848629
0.41500,36.6362932
0.41550,32.3635715
0.41600,32.05837709
0.41650,31.75318268
0.41700,31.75318268
0.41750,31.14279387
0.41800,21.37657282
0.41850,-2.428590981
0.41900,-31.11686531
0.41950,-47.90255773
0.42000,-49.73372418
0.42050,-48.81814095
0.42100,-53.70125148
0.42150,-60.41552844
0.42200,-61.94150048
0.42250,-57.97397318
0.42300,-51.87008503
0.42350,-42.10386398
0.42400,-28.37011564
0.42450,-14.9415617
0.42500,-7.616895912
0.42550,-6.396118282
0.42600,-7.92209032
0.42650,-10.36364558
0.42700,-12.80520084
0.42750,-14.02597847
0.42800,-15.2467561
0.42850,-17.99350577
0.42900,-21.65583867
0.42950,-21.96103307
0.43000,-18.29870018
0.43050,-16.16233933
0.43100,-19.51947781
0.43150,-24.09739393
0.43200,-26.8441436
0.43250,-30.20128208
0.43300,-38.44153109
0.43350,-48.51294654
0.43400,-50.95450181
0.43450,-42.40905839
0.43500,-29.59089327
0.43550,-19.51947781
0.43600,-12.80520084
0.43650,-7.616895912
0.43700,-4.870146243
0.43750,-8.532479135
0.43800,-21.35064426
0.43850,-37.52594787
0.43900,-47.90255773
0.43950,-46.37658569
0.44000,-38.44153109
0.44050,-32.03244853
0.44100,-29.28569886
0.44150,-25.31817156
0.44200,-19.51947781
0.44250,-17.07792255
0.44300,-18.29870018
0.44350,-11.88961762
0.44400,8.558407696
0.44450,36.3310988
0.44500,54.33756885
0.44550,56.77912411
0.44600,49.75965274
0.44650,40.6038205
0.44700,29.92201623
0.44750,19.85060078
0.44800,14.96749026
0.44850,15.57787907
0.44900,14.96749026
0.44950,8.253213288
0.45000,0.3181586879
0.45050,-3.038979797
0.45100,-1.513007758
0.45150,0.3181586879
0.45200,0.3181586879
0.45250,-0.5974245352
0.45300,-2.123396574
0.45350,-5.175340651
0.45400,-9.142867951
0.45450,-13.11039525
0.45500,-16.46753374
0.45550,-19.51947781
0.45600,-21.96103307
0.45650,-22.26622748
0.45700,-17.99350577
0.45750,-9.142867951
0.45800,1.538936319
0.45850,8.558407696
0.45900,7.032435657
0.45950,0.3181586879
0.46000,-3.344174205
0.46050,0.6233530956
0.46100,9.168796511
0.46150,13.74671263
0.46200,11.30515737
0.46250,7.032435657
0.46300,6.72724125
0.46350,10.99996296
0.46400,16.7986567
0.46450,21.07137841
0.46500,23.20773927
0.46550,22.90254486
0.46600,20.4609896
0.46650,18.32462874
0.46700,17.71423993
0.46750,14.35710144
0.46800,3.675297173
0.46850,-13.41558966
0.46900,-28.06492123
0.46950,-32.33764294
0.47000,-28.06492123
0.47050,-23.18181071
0.47100,-21.65583867
0.47150,-21.04544985
0.47200,-19.51947781
0.47250,-19.82467222
0.47300,-22.8766163
0.47350,-25.31817156
0.47400,-24.70778274
0.47450,-23.48700511
0.47500,-24.40258834
0.47550,-27.14933801
0.47600,-30.50647649
0.47650,-33.25322616
0.47700,-31.72725412
0.47750,-22.57142189
0.47800,-6.396118282
0.47850,8.558407696
0.47900,18.32462874
0.47950,26.87007216
0.48000,40.6038205
0.48050,58.91548497
0.48100,76.0063718
0.48150,85.46739844
0.48200,83.63623199
0.48250,70.51287246
0.48300,50.67523596
0.48350,32.05837709
0.48400,19.54540637
0.48450,11.30515737
0.48500,5.201269211
0.48550,1.233741911
0.48600,-1.207813351
0.48650,-3.649368612
0.48700,-3.344174205
0.48750,5.506463619
0.48800,21.68176723
0.48850,33.88954354
0.48900,32.3635715
0.48950,21.07137841
0.49000,9.473990919
0.49050,0.6233530956
0.49100,-6.396118282
0.49150,-10.66883999
0.49200,-8.227284728
0.49250,-1.818202166
0.49300,0.01296428019
0.49350,-4.870146243
0.49400,-11.88961762
0.49450,-14.9415617
0.49500,-11.58442321
0.49550,-2.428590981
0.49600,10.69476855
0.49650,21.98696163
0.49700,24.4285169
0.49750,17.40904552
0.49800,7.642824473
0.49850,1.538936319
0.49900,-1.513007758
0.49950,-8.227284728
0.50000,-21.35064426
0.50050,-36.91555905
0.50100,-46.37658569
0.50150,-47.29216891
0.50200,-44.24022484
0.50250,-43.32464161
0.50300,-40.88308635
0.50350,-29.89608767
0.50400,-10.36364558
0.50450,7.337630065
0.50500,14.66229585
0.50550,13.74671263
0.50600,13.44151822
0.50650,14.96749026
0.50700,13.74671263
0.50750,9.779185327
0.50800,11.61035177
0.50850,24.7337113
0.50900,44.87654221
0.50950,61.66223464
0.51000,69.90248364
0.51050,71.73365009
0.51100,71.73365009
0.51150,69.59728924
0.51200,62.57781786
0.51250,50.67523596
0.51300,36.94148761
0.51350,27.78565538
0.51400,24.4285169
0.51450,23.81812808
0.51500,23.51293367
0.51550,25.64929453
0.51600,31.75318268
0.51650,39.99343169
0.51700,44.87654221
0.51750,43.65576458
0.51800,35.72070998
0.51850,18.01943433
0.51900,-11.58442321
0.51950,-46.37658569
0.52000,-74.14927679
0.52050,-90.62977481
0.52100,-99.78560704
0.52150,-104.6687176
0.52200,-102.8375511
0.52250,-93.98691329
0.52300,-85.13627547
0.52350,-78.4219985
0.52400,-64.07786134
0.52450,-33.55842057
0.52500,3.370102765
0.52550,29.31162742
0.52600,37.85707084
0.52650,39.38304287
0.52700,40.2986261
0.52750,33.27915472
0.52800,10.38957414
0.52850,-23.79219952
0.52900,-55.53241792
0.52950,-75.98044324
0.53000,-89.10380277
0.53050,-100.3959959
0.53100,-110.7726057
0.53150,-115.3505218
0.53200,-112.6037722
0.53250,-104.6687176
0.53300,-93.07133007
0.53350,-75.37005442
0.53400,-51.87008503
0.53450,-28.67531004
0.53500,-13.72078407
0.53550,-6.701312689
0.53600,-2.733785389
0.53650,0.3181586879
0.53700,0.9285475033
0.53750,0.9285475033
0.53800,4.590880396
0.53850,10.08437973
0.53900,9.779185327
0.53950,1.233741911
0.54000,-7.92209032
0.54050,-10.66883999
0.54100,-8.227284728
0.54150,-7.92209032
0.54200,-12.50000644
0.54250,-21.65583867
0.54300,-35.69478142
0.54350,-54.31164029
0.54400,-72.01291594
0.54450,-82.69472021
0.54500,-82.99991461
0.54550,-74.14927679
0.54600,-59.19475081
0.54650,-44.24022484
0.54700,-34.16880938
0.54750,-26.8441436
0.54800,-16.16233933
0.54850,0.6233530956
0.54900,18.01943433
0.54950,29.00643301
0.55000,33.58434913
0.55050,34.80512676
0.55100,32.6687659
0.55150,26.87007216
0.55200,20.15579519
0.55250,16.18826789
0.55300,14.96749026
0.55350,15.88307348
0.55400,17.71423993
0.55450,19.24021197
0.55500,18.01943433
0.55550,17.40904552
0.55600,22.59735045
0.55650,32.05837709
0.55700,36.02590439
0.55750,28.09084979
0.55800,14.96749026
0.55850,5.811658027
0.55900,1.538936319
0.55950,-4.870146243
0.56000,-14.63636729
0.56050,-21.35064426
0.56100,-22.26622748
0.56150,-20.12986663
0.56200,-15.85714492
0.56250,-5.785729466
0.56300,10.38957414
0.56350,25.03890571
0.56400,30.53240505
0.56450,26.56487775
0.56500,21.37657282
0.56550,21.98696163
0.56600,29.00643301
0.56650,37.24668202
0.56700,41.82459814
0.56750,41.51940373
0.56800,37.24668202
0.56850,30.83759946
0.56900,23.51293367
0.56950,18.01943433
0.57000,16.4934623
0.57050,17.71423993
0.57100,16.4934623
0.57150,11.61035177
0.57200,10.38957414
0.57250,18.01943433
0.57300,29.31162742
0.57350,32.3635715
0.57400,22.90254486
0.57450,10.69476855
0.57500,4.896074803
0.57550,5.201269211
0.57600,6.422046842
0.57650,5.201269211
0.57700,1.538936319
0.57750,-4.870146243
0.57800,-13.72078407
0.57850,-21.35064426
0.57900,-22.8766163
0.57950,-17.07792255
0.58000,-9.142867951
0.58050,-4.259757428
0.58100,-2.428590981
0.58150,2.149325134
0.58200,13.74671263
0.58250,29.00643301
0.58300,40.90901491
0.58350,46.09731984
0.58400,44.87654221
0.58450,38.77265406
0.58500,26.87007216
0.58550,12.8311294
0.58600,2.454519542
0.58650,-2.428590981
0.58700,-7.92209032
0.58750,-17.07792255
0.58800,-25.92856037
0.58850,-29.89608767
0.58900,-32.03244853
0.58950,-35.38958701
0.59000,-36.30517024
0.59050,-29.59089327
0.59100,-17.07792255
0.59150,-7.311701505
0.59200,-1.818202166
0.59250,1.844130726
0.59300,5.506463619
0.59350,5.506463619
0.59400,4.285685988
0.59450,8.863602104
0.59500,18.62982315
0.59550,25.03890571
0.59600,23.51293367
0.59650,21.68176723
0.59700,28.09084979
0.59750,40.90901491
0.59800,53.11679122
0.59850,62.57781786
0.59900,69.90248364
0.59950,70.51287246
0.60000,58.91548497
0.60050,36.94148761
0.60100,12.22074059
0.60150,-13.11039525
0.60200,-40.57789194
0.60250,-63.46747252
0.60300,-70.79213831
0.60350,-63.16227811
0.60400,-54.6168347
0.60450,-53.39605707
0.60500,-50.03891858
0.60550,-31.72725412
0.60600,-1.513007758
0.60650,25.03890571
0.60700,42.12979254
0.60750,55.25315207
0.60800,66.54534516
0.60850,68.37651161
0.60900,57.99990174
0.60950,45.18173662
0.61000,41.21420932
0.61050,44.2661534
0.61100,42.12979254
0.61150,28.3960442
0.61200,8.558407696
0.61250,-8.532479135
0.61300,-20.74025544
0.61350,-30.8116709
0.61400,-38.13633668
0.61450,-39.66230872
0.61500,-34.7791982
0.61550,-28.67531004
0.61600,-25.62336597
0.61650,-25.62336597
0.61700,-23.18181071
0.61750,-14.63636729
0.61800,-2.123396574
0.61850,6.72724125
0.61900,8.253213288
0.61950,3.98049158
0.62000,0.3181586879
0.62050,1.538936319
0.62100,4.896074803
0.62150,3.064908357
0.62200,-5.480535058
0.62250,-14.63636729
0.62300,-17.07792255
0.62350,-12.80520084
0.62400,-7.311701505
0.62450,-4.870146243
0.62500,-5.175340651
0.62550,-6.701312689
0.62600,-7.311701505
0.62650,-3.95456302
0.62700,3.675297173
0.62750,11.91554618
0.62800,15.27268467
0.62850,14.05190703
0.62900,11.91554618
0.62950,10.38957414
0.63000,8.558407696
0.63050,6.116852434
0.63100,3.98049158
0.63150,1.233741911
0.63200,-4.259757428
0.63250,-11.2792288
0.63300,-15.55195051
0.63350,-17.38311696
0.63400,-19.51947781
0.63450,-23.48700511
0.63500,-25.92856037
0.63550,-25.92856037
0.63600,-26.23375478
0.63650,-29.28569886
0.63700,-33.55842057
0.63750,-34.47400379
0.63800,-31.11686531
0.63850,-25.92856037
0.63900,-21.35064426
0.63950,-18.909089
0.64000,-17.68831137
0.64050,-16.46753374
0.64100,-14.33117288
0.64150,-12.19481203
0.64200,-9.753256766
0.64250,-7.311701505
0.64300,-4.870146243
0.64350,-3.344174205
0.64400,-2.733785389
0.64450,0.3181586879
0.64500,6.116852434
0.64550,10.38957414
0.64600,11.61035177
0.64650,14.96749026
0.64700,25.34410012
0.64750,38.16226524
0.64800,44.2661534
0.64850,42.12979254
0.64900,37.55187643
0.64950,33.27915472
0.65000,26.56487775
0.65050,16.4934623
0.65100,10.38957414
0.65150,13.13632381
0.65200,20.15579519
0.65250,23.51293367
0.65300,21.68176723
0.65350,19.54540637
0.65400,20.15579519
0.65450,20.766184
0.65500,16.7986567
0.65550,8.558407696
0.65600,0.3181586879
0.65650,-1.818202166
0.65700,2.75971395
0.65750,10.38957414
0.65800,14.35710144
0.65850,12.525935
0.65900,9.473990919
0.65950,12.525935
0.66000,22.59735045
0.66050,33.88954354
0.66100,41.51940373
0.66150,45.18173662
0.66200,46.40251425
0.66250,45.48693103
0.66300,41.21420932
0.66350,34.19473794
0.66400,24.7337113
0.66450,13.13632381
0.66500,0.3181586879
0.66550,-10.9740344
0.66600,-18.909089
0.66650,-23.79219952
0.66700,-28.06492123
0.66750,-33.86361497
0.66800,-39.35711431
0.66850,-40.88308635
0.66900,-34.7791982
0.66950,-24.09739393
0.67000,-17.68831137
0.67050,-22.8766163
0.67100,-35.69478142
0.67150,-44.54541924
0.67200,-40.27269754
0.67250,-23.79219952
0.67300,-0.9026189429
0.67350,21.98696163
0.67400,38.46745965
0.67450,41.51940373
0.67500,31.75318268
0.67550,24.4285169
0.67600,32.3635715
0.67650,52.201208
0.67700,68.0713172
0.67750,69.90248364
0.67800,65.32456753
0.67850,65.32456753
0.67900,72.64923331
0.67950,79.05831587
0.68000,76.0063718
0.68050,59.52587378
0.68100,33.27915472
0.68150,6.116852434
0.68200,-13.72078407
0.68250,-26.53894919
0.68300,-37.83114227
0.68350,-50.95450181
0.68400,-62.24669489
0.68450,-67.12980541
0.68500,-65.60383338
0.68550,-61.02591726
0.68600,-55.22722351
0.68650,-45.15580806
0.68700,-27.45453241
0.68750,-6.396118282
0.68800,7.032435657
0.68850,7.642824473
0.68900,0.9285475033
0.68950,-0.9026189429
0.69000,3.370102765
0.69050,6.422046842
0.69100,3.064908357
0.69150,-2.123396574
0.69200,-4.870146243
0.69250,-6.701312689
0.69300,-9.448062359
0.69350,-11.2792288
0.69400,-10.36364558
0.69450,-11.2792288
0.69500,-16.16233933
0.69550,-20.43506104
0.69600,-19.21428341
0.69650,-16.46753374
0.69700,-19.51947781
0.69750,-23.79219952
0.69800,-19.82467222
0.69850,-7.616895912
0.69900,4.285685988
0.69950,10.38957414
0.70000,11.91554618
0.70050,11.30515737
0.70100,7.94801888
0.70150,2.149325134
0.70200,0.3181586879
0.70250,4.896074803
0.70300,14.05190703
0.70350,23.51293367
0.70400,30.83759946
0.70450,36.3310988
0.70500,39.68823728
0.70550,40.2986261
0.70600,37.55187643
0.70650,31.75318268
0.70700,24.12332249
0.70750,18.01943433
0.70800,13.13632381
0.70850,7.642824473
0.70900,3.064908357
0.70950,2.75971395
0.71000,5.506463619
0.71050,4.590880396
0.71100,-2.123396574
0.71150,-6.701312689
0.71200,-1.207813351
0.71250,11.30515737
0.71300,21.98696163
0.71350,27.48046097
0.71400,32.3635715
0.71450,38.16226524
0.71500,40.2986261
0.71550,37.24668202
0.71600,32.05837709
0.71650,29.00643301
0.71700,28.09084979
0.71750,26.25968334
0.71800,23.81812808
0.71850,22.90254486
0.71900,25.64929453
0.71950,29.31162742
0.72000,30.22721064
0.72050,28.3960442
0.72100,28.3960442
0.72150,32.05837709
0.72200,35.72070998
0.72250,32.3635715
0.72300,23.51293367
0.72350,16.7986567
0.72400,17.71423993
0.72450,21.98696163
0.72500,24.7337113
0.72550,27.17526657
0.72600,32.97396031
0.72650,39.99343169
0.72700,42.43498695
0.72750,39.99343169
0.72800,35.72070998
0.72850,32.05837709
0.72900,25.64929453
0.72950,13.44151822
0.73000,-3.038979797
0.73050,-20.74025544
0.73100,-38.44153109
0.73150,-57.36358437
0.73200,-78.72719291
0.73250,-100.0908014
0.73300,-117.4868827
0.73350,-127.2531037
0.73400,-129.694659
0.73450,-127.5582981
0.73500,-122.0647988
0.73550,-111.3829945
0.73600,-97.95444059
0.73650,-86.96744191
0.73700,-81.77913698
0.73750,-77.20122087
0.73800,-65.29863897
0.73850,-46.98697451
0.73900,-30.50647649
0.73950,-20.74025544
0.74000,-14.33117288
0.74050,-8.227284728
0.74100,-5.480535058
0.74150,-10.36364558
0.74200,-19.51947781
0.74250,-24.40258834
0.74300,-22.26622748
0.74350,-18.909089
0.74400,-18.909089
0.74450,-18.909089
0.74500,-13.11039525
0.74550,-1.818202166
0.74600,10.08437973
0.74650,19.24021197
0.74700,24.7337113
0.74750,27.17526657
0.74800,27.48046097
0.74850,25.34410012
0.74900,22.59735045
0.74950,21.07137841
0.75000,19.54540637
0.75050,14.96749026
0.75100,7.94801888
0.75150,2.149325134
0.75200,-0.2922301275
0.75250,-4.564951835
0.75300,-12.50000644
0.75350,-20.74025544
0.75400,-22.26622748
0.75450,-17.99350577
0.75500,-14.02597847
0.75550,-12.19481203
0.75600,-9.753256766
0.75650,-4.870146243
0.75700,-1.513007758
0.75750,-2.733785389
0.75800,-6.090923874
0.75850,-9.142867951
0.75900,-13.41558966
0.75950,-21.65583867
0.76000,-31.11686531
0.76050,-35.08439261
0.76100,-31.11686531
0.76150,-25.01297715
0.76200,-26.53894919
0.76250,-40.27269754
0.76300,-59.19475081
0.76350,-71.70772153
0.76400,-72.92849916
0.76450,-67.43499982
0.76500,-60.41552844
0.76550,-50.95450181
0.76600,-39.05191991
0.76650,-30.50647649
0.76700,-28.98050445
0.76750,-28.37011564
0.76800,-19.82467222
0.76850,-4.870146243
0.76900,6.116852434
0.76950,11.61035177
0.77000,19.85060078
0.77050,35.41551557
0.77100,49.75965274
0.77150,52.201208
0.77200,44.5713478
0.77250,36.6362932
0.77300,34.80512676
0.77350,36.94148761
0.77400,39.07784847
0.77450,37.85707084
0.77500,31.75318268
0.77550,22.29215604
0.77600,16.4934623
0.77650,18.93501756
0.77700,26.56487775
0.77750,31.44798827
0.77800,31.14279387
0.77850,27.78565538
0.77900,25.34410012
0.77950,24.4285169
0.78000,24.4285169
0.78050,25.95448893
0.78100,29.92201623
0.78150,33.88954354
0.78200,33.88954354
0.78250,26.87007216
0.78300,14.66229585
0.78350,3.675297173
0.78400,-2.428590981
0.78450,-5.175340651
0.78500,-8.227284728
0.78550,-12.19481203
0.78600,-14.63636729
0.78650,-13.11039525
0.78700,-8.227284728
0.78750,-1.513007758
0.78800,5.811658027
0.78850,12.525935
0.78900,16.18826789
0.78950,19.24021197
0.79000,22.90254486
0.79050,26.25968334
0.79100,26.56487775
0.79150,27.17526657
0.79200,31.75318268
0.79250,35.72070998
0.79300,31.44798827
0.79350,20.15579519
0.79400,11.91554618
0.79450,7.94801888
0.79500,-2.428590981
0.79550,-26.53894919
0.79600,-51.56489062
0.79650,-60.72072285
0.79700,-54.31164029
0.79750,-46.6817801
0.79800,-43.32464161
0.79850,-39.05191991
0.79900,-32.64283734
0.79950,-30.20128208
0.80000,-33.25322616
0.80050,-29.28569886
0.80100,-10.05845117
0.80150,17.40904552
0.80200,38.46745965
0.80250,47.01290307
0.80300,47.01290307
0.80350,41.51940373
0.80400,29.61682183
0.80450,10.99996296
0.80500,-7.616895912
0.80550,-20.74025544
0.80600,-27.14933801
0.80650,-30.50647649
0.80700,-31.11686531
0.80750,-28.37011564
0.80800,-23.48700511
0.80850,-21.04544985
0.80900,-21.96103307
0.80950,-19.51947781
0.81000,-7.92209032
0.81050,8.863602104
0.81100,20.15579519
0.81150,21.98696163
0.81200,19.85060078
0.81250,20.15579519
0.81300,20.766184
0.81350,17.71423993
0.81400,13.44151822
0.81450,13.74671263
0.81500,18.62982315
0.81550,22.90254486
0.81600,24.4285169
0.81650,25.95448893
0.81700,27.17526657
0.81750,24.7337113
0.81800,17.40904552
0.81850,11.91554618
0.81900,13.13632381
0.81950,18.32462874
0.82000,21.07137841
0.82050,19.85060078
0.82100,18.32462874
0.82150,18.32462874
0.82200,18.32462874
0.82250,17.71423993
0.82300,19.54540637
0.82350,24.7337113
0.82400,29.00643301
0.82450,27.78565538
0.82500,22.59735045
0.82550,19.24021197
0.82600,18.32462874
0.82650,15.88307348
0.82700,7.337630065
0.82750,-4.870146243
0.82800,-14.33117288
0.82850,-17.07792255
0.82900,-14.9415617
0.82950,-12.19481203
0.83000,-10.05845117
0.83050,-5.785729466
0.83100,1.844130726
0.83150,9.473990919
0.83200,11.91554618
0.83250,11.91554618
0.83300,16.4934623
0.83350,26.25968334
0.83400,34.49993235
0.83450,36.3310988
0.83500,34.49993235
0.83550,34.19473794
0.83600,34.80512676
0.83650,32.3635715
0.83700,27.48046097
0.83750,21.68176723
0.83800,13.44151822
0.83850,0.3181586879
0.83900,-15.2467561
0.83950,-24.40258834
0.84000,-22.8766163
0.84050,-15.85714492
0.84100,-10.9740344
0.84150,-10.36364558
0.84200,-12.50000644
0.84250,-16.46753374
0.84300,-22.57142189
0.84350,-26.53894919
0.84400,-23.79219952
0.84450,-15.55195051
0.84500,-9.753256766
0.84550,-10.66883999
0.84600,-16.16233933
0.84650,-19.82467222
0.84700,-21.04544985
0.84750,-24.09739393
0.84800,-31.42205971
0.84850,-38.44153109
0.84900,-39.05191991
0.84950,-32.33764294
0.85000,-24.40258834
0.85050,-19.21428341
0.85100,-15.55195051
0.85150,-11.2792288
0.85200,-8.532479135
0.85250,-10.9740344
0.85300,-17.38311696
0.85350,-21.65583867
0.85400,-20.74025544
0.85450,-17.68831137
0.85500,-16.77272814
0.85550,-20.12986663
0.85600,-27.14933801
0.85650,-36.30517024
0.85700,-41.49347517
0.85750,-36.30517024
0.85800,-22.26622748
0.85850,-10.36364558
0.85900,-8.227284728
0.85950,-10.66883999
0.86000,-4.564951835
0.86050,11.91554618
0.86100,26.25968334
0.86150,26.25968334
0.86200,14.35710144
0.86250,5.811658027
0.86300,9.473990919
0.86350,18.01943433
0.86400,21.07137841
0.86450,17.10385111
0.86500,12.8311294
0.86550,10.99996296
0.86600,7.032435657
0.86650,2.75971395
0.86700,7.94801888
0.86750,25.64929453
0.86800,42.43498695
0.86850,42.12979254
0.86900,25.64929453
0.86950,10.69476855
0.87000,11.91554618
0.87050,25.34410012
0.87100,34.80512676
0.87150,30.22721064
0.87200,16.4934623
0.87250,5.811658027
0.87300,4.285685988
0.87350,6.422046842
0.87400,4.896074803
0.87450,0.3181586879
0.87500,0.3181586879
0.87550,6.422046842
0.87600,12.22074059
0.87650,12.22074059
0.87700,10.99996296
0.87750,13.44151822
0.87800,18.01943433
0.87850,19.24021197
0.87900,17.71423993
0.87950,18.32462874
0.88000,22.90254486
0.88050,27.17526657
0.88100,29.92201623
0.88150,32.3635715
0.88200,36.94148761
0.88250,41.82459814
0.88300,41.21420932
0.88350,33.27915472
0.88400,22.90254486
0.88450,18.01943433
0.88500,21.07137841
0.88550,25.34410012
0.88600,21.68176723
0.88650,9.779185327
0.88700,-1.513007758
0.88750,-5.480535058
0.88800,-3.95456302
0.88850,-3.038979797
0.88900,-4.564951835
0.88950,-3.649368612
0.89000,0.3181586879
0.89050,3.98049158
0.89100,2.75971395
0.89150,-2.428590981
0.89200,-7.92209032
0.89250,-11.2792288
0.89300,-12.19481203
0.89350,-9.448062359
0.89400,-3.649368612
0.89450,1.538936319
0.89500,0.6233530956
0.89550,-7.311701505
0.89600,-18.909089
0.89650,-29.28569886
0.89700,-37.83114227
0.89750,-43.93503043
0.89800,-44.24022484
0.89850,-39.96750313
0.89900,-36.30517024
0.89950,-36.91555905
0.90000,-39.05191991
0.90050,-37.83114227
0.90100,-34.16880938
0.90150,-30.8116709
0.90200,-27.14933801
0.90250,-19.51947781
0.90300,-9.142867951
0.90350,-1.207813351
0.90400,0.3181586879
0.90450,-2.428590981
0.90500,-7.311701505
0.90550,-11.58442321
0.90600,-13.11039525
0.90650,-10.05845117
0.90700,-4.870146243
0.90750,0.01296428019
0.90800,3.98049158
0.90850,8.863602104
0.90900,12.8311294
0.90950,13.74671263
0.91000,12.8311294
0.91050,14.05190703
0.91100,20.4609896
0.91150,30.22721064
0.91200,38.16226524
0.91250,39.07784847
0.91300,33.27915472
0.91350,26.25968334
0.91400,23.81812808
0.91450,26.56487775
0.91500,29.31162742
0.91550,29.31162742
0.91600,26.25968334
0.91650,21.98696163
0.91700,16.18826789
0.91750,10.08437973
0.91800,4.285685988
0.91850,-0.9026189429
0.91900,-7.616895912
0.91950,-12.80520084
0.92000,-10.9740344
0.92050,-0.5974245352
0.92100,10.08437973
0.92150,14.05190703
0.92200,11.30515737
0.92250,8.253213288
0.92300,9.473990919
0.92350,14.35710144
0.92400,21.07137841
0.92450,28.09084979
0.92500,34.49993235
0.92550,38.46745965
0.92600,39.38304287
0.92650,39.07784847
0.92700,39.68823728
0.92750,38.46745965
0.92800,29.92201623
0.92850,11.30515737
0.92900,-10.66883999
0.92950,-28.06492123
0.93000,-37.83114227
0.93050,-46.37658569
0.93100,-57.97397318
0.93150,-67.74019423
0.93200,-69.26616627
0.93250,-64.07786134
0.93300,-59.49994522
0.93350,-56.14280674
0.93400,-47.59736332
0.93450,-31.72725412
0.93500,-16.16233933
0.93550,-8.837673543
0.93600,-7.616895912
0.93650,-5.480535058
0.93700,0.6233530956
0.93750,9.168796511
0.93800,19.24021197
0.93850,31.14279387
0.93900,41.51940373
0.93950,44.5713478
0.94000,39.99343169
0.94050,33.88954354
0.94100,32.97396031
0.94150,38.16226524
0.94200,43.96095899
0.94250,44.2661534
0.94300,37.24668202
0.94350,28.09084979
0.94400,21.07137841
0.94450,14.05190703
0.94500,1.233741911
0.94550,-15.55195051
0.94600,-27.45453241
0.94650,-29.28569886
0.94700,-28.06492123
0.94750,-31.42205971
0.94800,-37.52594787
0.94850,-40.27269754
0.94900,-41.18828076
0.94950,-44.85061365
0.95000,-46.37658569
0.95050,-38.44153109
0.95100,-22.26622748
0.95150,-7.92209032
0.95200,0.01296428019
0.95250,3.98049158
0.95300,3.064908357
0.95350,-5.480535058
0.95400,-16.77272814
0.95450,-18.29870018
0.95500,-7.311701505
0.95550,3.064908357
0.95600,4.896074803
0.95650,3.675297173
0.95700,6.72724125
0.95750,11.91554618
0.95800,11.91554618
0.95850,7.642824473
0.95900,4.896074803
0.95950,5.506463619
0.96000,6.116852434
0.96050,5.201269211
0.96100,2.149325134
0.96150,-2.123396574
0.96200,-5.480535058
0.96250,-5.175340651
0.96300,-5.480535058
0.96350,-11.88961762
0.96400,-19.51947781
0.96450,-18.60389459
0.96500,-10.05845117
0.96550,-5.785729466
0.96600,-10.36364558
0.96650,-12.19481203
0.96700,-1.513007758
0.96750,15.27268467
0.96800,28.09084979
0.96850,39.07784847
0.96900,53.72718004
0.96950,67.46092838
0.97000,69.29209483
0.97050,62.88301227
0.97100,61.96742904
0.97150,69.90248364
0.97200,75.39598298
0.97250,70.51287246
0.97300,61.35704023
0.97350,56.4739297
0.97400,52.81159681
0.97450,45.48693103
0.97500,36.6362932
0.97550,33.27915472
0.97600,32.6687659
0.97650,25.64929453
0.97700,10.08437973
0.97750,-5.175340651
0.97800,-9.753256766
0.97850,-5.480535058
0.97900,-3.649368612
0.97950,-13.72078407
0.98000,-34.7791982
0.98050,-56.44800114
0.98100,-69.57136068
0.98150,-71.70772153
0.98200,-67.43499982
0.98250,-63.16227811
0.98300,-59.19475081
0.98350,-52.17527944
0.98400,-41.79866957
0.98450,-33.55842057
0.98500,-29.28569886
0.98550,-22.26622748
0.98600,-6.090923874
0.98650,14.96749026
0.98700,29.31162742
0.98750,31.75318268
0.98800,29.92201623
0.98850,30.53240505
0.98900,32.3635715
0.98950,31.44798827
0.99000,28.3960442
0.99050,25.64929453
0.99100,22.90254486
0.99150,20.15579519
0.99200,20.766184
0.99250,25.34410012
0.99300,29.00643301
0.99350,28.3960442
0.99400,27.17526657
0.99450,28.09084979
0.99500,27.48046097
0.99550,21.68176723
0.99600,12.8311294
0.99650,6.72724125
0.99700,3.675297173
0.99750,0.3181586879
0.99800,-3.95456302
0.99850,-8.227284728
0.99900,-14.02597847
0.99950,-23.18181071
1.00000,-31.11686531
1.00050,-30.8116709
1.00100,-25.62336597
1.00150,-23.48700511
1.00200,-26.53894919
1.00250,-30.20128208
1.00300,-31.42205971
1.00350,-32.33764294
1.00400,-32.33764294
1.00450,-27.45453241
1.00500,-17.68831137
1.00550,-10.05845117
1.00600,-9.142867951
1.00650,-12.80520084
1.00700,-17.68831137
1.00750,-25.01297715
1.00800,-35.69478142
1.00850,-45.46100247
1.00900,-50.03891858
1.00950,-51.25969621
1.01000,-53.70125148
1.01050,-56.44800114
1.01100,-55.83761233
1.01150,-49.42852977
1.01200,-40.57789194
1.01250,-33.55842057
1.01300,-30.50647649
1.01350,-31.72725412
1.01400,-35.99997583
1.01450,-42.10386398
1.01500,-48.20775214
1.01550,-53.09086266
1.01600,-56.44800114
1.01650,-56.75319555
1.01700,-53.70125148
1.01750,-46.98697451
1.01800,-35.99997583
1.01850,-24.09739393
1.01900,-17.38311696
1.01950,-20.74025544
1.02000,-28.67531004
1.02050,-31.11686531
1.02100,-25.62336597
1.02150,-21.04544985
1.02200,-23.18181071
1.02250,-25.62336597
1.02300,-19.82467222
1.02350,-7.92209032
1.02400,0.3181586879
1.02450,0.9285475033
1.02500,0.3181586879
1.02550,1.538936319
1.02600,0.6233530956
1.02650,-4.870146243
1.02700,-12.50000644
1.02750,-17.38311696
1.02800,-19.51947781
1.02850,-24.40258834
1.02900,-32.03244853
1.02950,-37.83114227
1.03000,-35.08439261
1.03050,-23.18181071
1.03100,-7.92209032
1.03150,3.064908357
1.03200,10.08437973
1.03250,18.01943433
1.03300,31.44798827
1.03350,47.31809747
1.03400,60.1362626
1.03450,66.85053957
1.03500,66.54534516
1.03550,57.69470734
1.03600,39.38304287
1.03650,18.93501756
1.03700,4.590880396
1.03750,-2.428590981
1.03800,-9.753256766
1.03850,-19.82467222
1.03900,-25.92856037
1.03950,-20.74025544
1.04000,-9.753256766
1.04050,-4.870146243
1.04100,-9.448062359
1.04150,-17.07792255
1.04200,-21.35064426
1.04250,-22.8766163
1.04300,-24.09739393
1.04350,-23.79219952
1.04400,-20.43506104
1.04450,-15.85714492
1.04500,-14.63636729
1.04550,-17.07792255
1.04600,-18.29870018
1.04650,-13.72078407
1.04700,-4.870146243
1.04750,0.9285475033
1.04800,-0.9026189429
1.04850,-9.142867951
1.04900,-19.21428341
1.04950,-31.72725412
1.05000,-50.34411299
1.05050,-71.09733271
1.05100,-85.44146988
1.05150,-93.37652448
1.05200,-104.3635232
1.05250,-124.2011597
1.05300,-143.4284073
1.05350,-148.9219067
1.05400,-140.3764633
1.05450,-126.9479093
1.05500,-114.1297442
1.05550,-100.0908014
1.05600,-82.69472021
1.05650,-64.68825015
1.05700,-48.20775214
1.05750,-33.55842057
1.05800,-22.57142189
1.05850,-18.29870018
1.05900,-21.35064426
1.05950,-28.37011564
1.06000,-35.08439261
1.06050,-40.27269754
1.06100,-43.93503043
1.06150,-45.76619688
1.06200,-46.6817801
1.06250,-45.76619688
1.06300,-40.88308635
1.06350,-30.8116709
1.06400,-18.909089
1.06450,-10.05845117
1.06500,-4.564951835
1.06550,-0.5974245352
1.06600,1.844130726
1.06650,3.370102765
1.06700,6.116852434
1.06750,12.525935
1.06800,20.15579519
1.06850,23.51293367
1.06900,21.98696163
1.06950,22.90254486
1.07000,32.6687659
1.07050,47.62329188
1.07100,56.77912411
1.07150,54.94795767
1.07200,45.79212544
1.07250,34.80512676
1.07300,21.07137841
1.07350,2.454519542
1.07400,-16.46753374
1.07450,-27.14933801
1.07500,-24.70778274
1.07550,-15.55195051
1.07600,-9.448062359
1.07650,-9.142867951
1.07700,-10.66883999
1.07750,-9.753256766
1.07800,-4.564951835
1.07850,0.3181586879
1.07900,-0.5974245352
1.07950,-10.66883999
1.08000,-23.48700511
1.08050,-31.11686531
1.08100,-35.08439261
1.08150,-39.66230872
1.08200,-43.32464161
1.08250,-38.13633668
1.08300,-25.31817156
1.08350,-18.29870018
1.08400,-24.09739393
1.08450,-30.8116709
1.08500,-25.01297715
1.08550,-10.9740344
1.08600,-1.818202166
1.08650,0.9285475033
1.08700,8.863602104
1.08750,25.34410012
1.08800,41.51940373
1.08850,48.84406951
1.08900,49.45445833
1.08950,50.06484714
1.09000,51.59081918
1.09050,50.37004155
1.09100,45.79212544
1.09150,41.21420932
1.09200,37.55187643
1.09250,33.27915472
1.09300,26.87007216
1.09350,18.62982315
1.09400,11.30515737
1.09450,6.116852434
1.09500,2.149325134
1.09550,1.538936319
1.09600,8.863602104
1.09650,25.64929453
1.09700,45.18173662
1.09750,58.91548497
1.09800,64.71417871
1.09850,65.62976194
1.09900,61.96742904
1.09950,52.201208
1.10000,39.99343169
1.10050,32.3635715
1.10100,28.7012386
1.10150,21.98696163
1.10200,11.91554618
1.10250,7.642824473
1.10300,10.08437973
1.10350,8.863602104
1.10400,-3.038979797
1.10450,-14.02597847
1.10500,-8.532479135
1.10550,11.61035177
1.10600,31.14279387
1.10650,41.21420932
1.10700,45.79212544
1.10750,50.98043037
1.10800,54.33756885
1.10850,52.5064024
1.10900,43.04537577
1.10950,26.56487775
1.11000,5.506463619
1.11050,-14.02597847
1.11100,-26.23375478
1.11150,-29.59089327
1.11200,-28.37011564
1.11250,-25.92856037
1.11300,-23.79219952
1.11350,-24.09739393
1.11400,-28.37011564
1.11450,-32.64283734
1.11500,-28.98050445
1.11550,-14.33117288
1.11600,4.896074803
1.11650,20.4609896
1.11700,29.00643301
1.11750,31.75318268
1.11800,32.05837709
1.11850,32.6687659
1.11900,34.49993235
1.11950,36.94148761
1.12000,38.77265406
1.12050,40.90901491
1.12100,45.48693103
1.12150,49.45445833
1.12200,47.01290307
1.12250,38.46745965
1.12300,30.83759946
1.12350,29.61682183
1.12400,32.05837709
1.12450,34.49993235
1.12500,37.24668202
1.12550,41.51940373
1.12600,43.96095899
1.12650,41.51940373
1.12700,37.24668202
1.12750,35.41551557
1.12800,36.6362932
1.12850,37.24668202
1.12900,33.58434913
1.12950,26.25968334
1.13000,17.71423993
1.13050,11.61035177
1.13100,9.168796511
1.13150,7.032435657
1.13200,0.01296428019
1.13250,-10.05845117
1.13300,-14.9415617
1.13350,-10.66883999
1.13400,-3.038979797
1.13450,0.3181586879
1.13500,0.3181586879
1.13550,2.75971395
1.13600,7.94801888
1.13650,10.08437973
1.13700,7.642824473
1.13750,4.590880396
1.13800,5.201269211
1.13850,8.558407696
1.13900,12.525935
1.13950,14.96749026
1.14000,15.88307348
1.14050,15.57787907
1.14100,15.57787907
1.14150,16.18826789
1.14200,16.4934623
1.14250,14.96749026
1.14300,11.30515737
1.14350,7.337630065
1.14400,7.642824473
1.14450,16.4934623
1.14500,33.58434913
1.14550,51.28562477
1.14600,59.52587378
1.14650,57.99990174
1.14700,54.33756885
1.14750,54.33756885
1.14800,54.64276326
1.14850,50.98043037
1.14900,43.65576458
1.14950,37.24668202
1.15000,31.14279387
1.15050,22.59735045
1.15100,11.91554618
1.15150,2.149325134
1.15200,-2.428590981
1.15250,-3.038979797
1.15300,-2.733785389
1.15350,-4.564951835
1.15400,-7.92209032
1.15450,-10.05845117
1.15500,-9.753256766
1.15550,-10.05845117
1.15600,-13.11039525
1.15650,-14.02597847
1.15700,-4.870146243
1.15750,9.779185327
1.15800,18.01943433
1.15850,14.35710144
1.15900,10.38957414
1.15950,18.01943433
1.16000,36.3310988
1.16050,51.89601359
1.16100,58.61029056
1.16150,61.05184582
1.16200,66.54534516
1.16250,76.0063718
1.16300,86.07778725
1.16350,92.79206422
1.16400,95.23361948
1.16450,95.23361948
1.16500,96.14920271
1.16550,98.89595238
1.16600,97.67517474
1.16650,87.9089537
1.16700,72.95442772
1.16750,58.61029056
1.16800,45.48693103
1.16850,28.09084979
1.16900,4.896074803
1.16950,-17.68831137
1.17000,-34.7791982
1.17050,-46.37658569
1.17100,-52.48047384
1.17150,-52.48047384
1.17200,-48.20775214
1.17250,-45.15580806
1.17300,-45.46100247
1.17350,-41.79866957
1.17400,-28.98050445
1.17450,-11.58442321
1.17500,0.3181586879
1.17550,4.285685988
1.17600,7.337630065
1.17650,12.8311294
1.17700,18.01943433
1.17750,21.98696163
1.17800,27.48046097
1.17850,38.46745965
1.17900,53.11679122
1.17950,69.90248364
1.18000,88.82453692
1.18050,109.8829511
1.18100,128.8050043
1.18150,139.4868086
1.18200,141.317975
1.18250,138.5712254
1.18300,132.4673372
1.18350,119.6491721
1.18400,96.14920271
1.18450,63.79859549
1.18500,25.64929453
1.18550,-13.41558966
1.18600,-48.51294654
1.18650,-67.43499982
1.18700,-62.5518893
1.18750,-40.27269754
1.18800,-19.82467222
1.18850,-13.11039525
1.18900,-15.2467561
1.18950,-12.80520084
1.19000,-3.038979797
1.19050,5.201269211
1.19100,6.116852434
1.19150,2.149325134
1.19200,-2.733785389
1.19250,-11.2792288
1.19300,-24.09739393
1.19350,-35.38958701
1.19400,-37.52594787
1.19450,-31.42205971
1.19500,-21.96103307
1.19550,-12.19481203
1.19600,-3.038979797
1.19650,2.454519542
1.19700,5.201269211
1.19750,10.38957414
1.19800,25.03890571
1.19850,46.09731984
1.19900,61.66223464
1.19950,62.88301227
1.20000,51.59081918
1.20050,34.80512676
1.20100,19.24021197
1.20150,8.253213288
1.20200,1.233741911
1.20250,-7.92209032
1.20300,-25.01297715
1.20350,-45.15580806
1.20400,-57.05838996
1.20450,-58.27916759
1.20500,-59.80513963
1.20550,-68.35058304
1.20600,-74.75966561
1.20650,-67.43499982
1.20700,-50.34411299
1.20750,-38.44153109
1.20800,-38.7467255
1.20850,-48.20775214
1.20900,-60.72072285
1.20950,-72.31811035
1.21000,-77.20122087
1.21050,-71.09733271
1.21100,-55.53241792
1.21150,-39.66230872
1.21200,-28.98050445
1.21250,-23.79219952
1.21300,-21.04544985
1.21350,-17.07792255
1.21400,-8.837673543
1.21450,4.285685988
1.21500,18.62982315
1.21550,29.92201623
1.21600,39.38304287
1.21650,49.45445833
1.21700,59.22067937
1.21750,66.85053957
1.21800,72.64923331
1.21850,78.44792706
1.21900,82.41545436
1.21950,82.41545436
1.22000,79.66870469
1.22050,75.39598298
1.22100,70.20767805
1.22150,64.1037899
1.22200,57.99990174
1.22250,48.5388751
1.22300,32.97396031
1.22350,13.74671263
1.22400,2.75971395
1.22450,7.032435657
1.22500,20.766184
1.22550,34.19473794
1.22600,44.2661534
1.22650,51.89601359
1.22700,55.25315207
1.22750,52.5064024
1.22800,48.84406951
1.22850,53.11679122
1.22900,65.01937312
1.22950,72.0388445
1.23000,63.79859549
1.23050,42.43498695
1.23100,17.10385111
1.23150,-2.733785389
1.23200,-14.33117288
1.23250,-19.82467222
1.23300,-22.8766163
1.23350,-24.70778274
1.23400,-23.48700511
1.23450,-20.12986663
1.23500,-17.07792255
1.23550,-15.85714492
1.23600,-14.02597847
1.23650,-10.05845117
1.23700,-7.311701505
1.23750,-9.448062359
1.23800,-14.33117288
1.23850,-18.29870018
1.23900,-21.35064426
1.23950,-27.45453241
1.24000,-36.61036464
1.24050,-45.15580806
1.24100,-50.95450181
1.24150,-53.70125148
1.24200,-53.09086266
1.24250,-49.73372418
1.24300,-43.62983602
1.24350,-35.38958701
1.24400,-25.01297715
1.24450,-13.41558966
1.24500,-1.818202166
1.24550,9.779185327
1.24600,21.68176723
1.24650,27.78565538
1.24700,22.29215604
1.24750,9.779185327
1.24800,2.454519542
1.24850,6.116852434
1.24900,14.05190703
1.24950,21.07137841
1.25000,30.83759946
1.25050,46.70770866
1.25100,58.61029056
1.25150,54.94795767
1.25200,42.12979254
1.25250,36.6362932
1.25300,40.90901491
1.25350,40.90901491
1.25400,28.3960442
1.25450,11.30515737
1.25500,-0.2922301275
1.25550,-9.753256766
1.25600,-22.57142189
1.25650,-35.69478142
1.25700,-39.96750313
1.25750,-30.8116709
1.25800,-13.72078407
1.25850,2.75971395
1.25900,14.05190703
1.25950,20.766184
1.26000,28.09084979
1.26050,40.6038205
1.26100,54.94795767
1.26150,65.01937312
1.26200,69.59728924
1.26250,68.68170601
1.26300,60.1362626
1.26350,42.74018136
1.26400,21.37657282
1.26450,2.75971395
1.26500,-14.63636729
1.26550,-35.38958701
1.26600,-52.78566825
1.26650,-55.83761233
1.26700,-44.24022484
1.26750,-30.50647649
1.26800,-24.70778274
1.26850,-26.53894919
1.26900,-33.86361497
1.26950,-46.6817801
1.27000,-61.94150048
1.27050,-73.84408238
1.27100,-81.47394258
1.27150,-89.71419158
1.27200,-99.17521822
1.27250,-100.7011903
1.27300,-86.3570531
1.27350,-58.27916759
1.27400,-25.01297715
1.27450,7.032435657
1.27500,37.24668202
1.27550,64.1037899
1.27600,83.33103758
1.27650,88.21414811
1.27700,75.70117739
1.27750,52.81159681
1.27800,33.27915472
1.27850,24.4285169
1.27900,21.98696163
1.27950,17.10385111
1.28000,9.168796511
1.28050,2.454519542
1.28100,-2.123396574
1.28150,-8.227284728
1.28200,-14.63636729
1.28250,-15.85714492
1.28300,-15.2467561
1.28350,-21.35064426
1.28400,-37.83114227
1.28450,-57.66877878
1.28500,-72.01291594
1.28550,-75.06486001
1.28600,-66.21422219
1.28650,-48.81814095
1.28700,-32.33764294
1.28750,-23.18181071
1.28800,-17.68831137
1.28850,-5.480535058
1.28900,14.05190703
1.28950,32.05837709
1.29000,37.85707084
1.29050,32.3635715
1.29100,21.68176723
1.29150,9.168796511
1.29200,-5.480535058
1.29250,-21.96103307
1.29300,-35.08439261
1.29350,-40.88308635
1.29400,-39.96750313
1.29450,-38.7467255
1.29500,-43.32464161
1.29550,-53.09086266
1.29600,-61.33111167
1.29650,-62.5518893
1.29700,-59.80513963
1.29750,-59.19475081
1.29800,-62.5518893
1.29850,-65.60383338
1.29900,-65.29863897
1.29950,-61.94150048
1.30000,-55.83761233
1.30050,-46.07139128
1.30100,-34.16880938
1.30150,-24.09739393
1.30200,-17.68831137
1.30250,-13.11039525
1.30300,-8.532479135
1.30350,-3.038979797
1.30400,3.370102765
1.30450,13.44151822
1.30500,26.25968334
1.30550,38.16226524
1.30600,45.18173662
1.30650,47.62329188
1.30700,47.01290307
1.30750,44.87654221
1.30800,43.96095899
1.30850,42.43498695
1.30900,33.58434913
1.30950,10.38957414
1.31000,-22.8766163
1.31050,-52.78566825
1.31100,-70.18174949
1.31150,-77.50641528
1.31200,-82.08433139
1.31250,-83.91549784
1.31300,-79.94797054
1.31350,-73.23369357
1.31400,-69.57136068
1.31450,-67.43499982
1.31500,-57.05838996
1.31550,-33.55842057
1.31600,-4.870146243
1.31650,15.88307348
1.31700,24.12332249
1.31750,23.20773927
1.31800,18.93501756
1.31850,12.525935
1.31900,5.811658027
1.31950,1.538936319
1.32000,1.233741911
1.32050,0.6233530956
1.32100,-5.175340651
1.32150,-14.33117288
1.32200,-17.68831137
1.32250,-10.66883999
1.32300,0.9285475033
1.32350,9.168796511
1.32400,13.13632381
1.32450,17.71423993
1.32500,23.81812808
1.32550,26.25968334
1.32600,24.12332249
1.32650,20.4609896
1.32700,15.57787907
1.32750,3.370102765
1.32800,-19.51947781
1.32850,-46.6817801
1.32900,-67.12980541
1.32950,-76.59083205
1.33000,-79.33758172
1.33050,-79.94797054
1.33100,-79.64277613
1.33150,-80.86355376
1.33200,-85.44146988
1.33250,-88.18821955
1.33300,-78.11680409
1.33350,-50.03891858
1.33400,-13.72078407
1.33450,12.525935
1.33500,19.24021197
1.33550,13.13632381
1.33600,11.91554618
1.33650,25.64929453
1.33700,48.5388751
1.33750,64.71417871
1.33800,64.71417871
1.33850,51.28562477
1.33900,35.11032117
1.33950,23.20773927
1.34000,14.66229585
1.34050,7.032435657
1.34100,0.01296428019
1.34150,-6.396118282
1.34200,-10.36364558
1.34250,-12.80520084
1.34300,-14.02597847
1.34350,-15.55195051
1.34400,-17.68831137
1.34450,-17.68831137
1.34500,-13.11039525
1.34550,-4.564951835
1.34600,5.506463619
1.34650,15.57787907
1.34700,26.87007216
1.34750,42.43498695
1.34800,60.1362626
1.34850,74.78559417
1.34900,80.88948232
1.34950,79.9738991
1.35000,78.14273265
1.35050,79.9738991
1.35100,82.72064877
1.35150,83.33103758
1.35200,81.49987114
1.35250,76.61676061
1.35300,61.96742904
1.35350,32.3635715
1.35400,-7.006507097
1.35450,-44.54541924
1.35500,-71.40252712
1.35550,-86.96744191
1.35600,-91.85055244
1.35650,-89.10380277
1.35700,-85.13627547
1.35750,-86.66224751
1.35800,-91.54535803
1.35850,-87.57783073
1.35900,-65.60383338
1.35950,-28.98050445
1.36000,10.38957414
1.36050,40.6038205
1.36100,54.33756885
1.36150,53.72718004
1.36200,48.2336807
1.36250,46.09731984
1.36300,46.40251425
1.36350,42.12979254
1.36400,32.3635715
1.36450,21.37657282
1.36500,14.05190703
1.36550,10.08437973
1.36600,8.863602104
1.36650,10.38957414
1.36700,11.61035177
1.36750,7.642824473
1.36800,-0.2922301275
1.36850,-8.837673543
1.36900,-17.38311696
1.36950,-32.03244853
1.37000,-54.31164029
1.37050,-76.89602646
1.37100,-90.01938599
1.37150,-90.93496921
1.37200,-85.13627547
1.37250,-78.4219985
1.37300,-76.28563765
1.37350,-80.86355376
1.37400,-87.88302514
1.37450,-88.79860836
1.37500,-80.55835935
1.37550,-68.04538864
1.37600,-55.53241792
1.37650,-42.10386398
1.37700,-24.70778274
1.37750,-7.616895912
1.37800,1.844130726
1.37850,2.75971395
1.37900,0.01296428019
1.37950,-6.090923874
1.38000,-20.43506104
1.38050,-43.62983602
1.38100,-65.60383338
1.38150,-75.06486001
1.38200,-73.23369357
1.38250,-69.87655508
1.38300,-68.65577745
1.38350,-64.38305574
1.38400,-51.25969621
1.38450,-30.8116709
1.38500,-5.785729466
1.38550,22.90254486
1.38600,50.06484714
1.38650,63.18820667
1.38700,58.91548497
1.38750,49.75965274
1.38800,50.98043037
1.38850,62.27262345
1.38900,70.81806687
1.38950,70.81806687
1.39000,63.18820667
1.39050,49.75965274
1.39100,32.05837709
1.39150,18.62982315
1.39200,20.4609896
1.39250,37.85707084
1.39300,59.83106819
1.39350,73.56481654
1.39400,72.95442772
1.39450,56.77912411
1.39500,27.17526657
1.39550,-6.701312689
1.39600,-35.08439261
1.39650,-50.95450181
1.39700,-54.92202911
1.39750,-52.78566825
1.39800,-52.78566825
1.39850,-59.80513963
1.39900,-67.12980541
1.39950,-60.11033404
1.40000,-35.99997583
1.40050,-10.05845117
1.40100,0.3181586879
1.40150,-4.564951835
1.40200,-13.41558966
1.40250,-21.04544985
1.40300,-28.37011564
1.40350,-34.16880938
1.40400,-33.86361497
1.40450,-26.23375478
1.40500,-11.88961762
1.40550,7.642824473
1.40600,28.09084979
1.40650,39.68823728
1.40700,38.16226524
1.40750,32.05837709
1.40800,28.3960442
1.40850,23.81812808
1.40900,12.22074059
1.40950,-3.649368612
1.41000,-16.16233933
1.41050,-24.09739393
1.41100,-32.94803175
1.41150,-46.37658569
1.41200,-62.5518893
1.41250,-77.50641528
1.41300,-83.91549784
1.41350,-79.33758172
1.41400,-71.09733271
1.41450,-72.01291594
1.41500,-78.72719291
1.41550,-75.67524883
1.41600,-57.97397318
1.41650,-39.96750313
1.41700,-30.8116709
1.41750,-20.74025544
1.41800,-0.9026189429
1.41850,17.40904552
1.41900,22.90254486
1.41950,25.64929453
1.42000,39.38304287
1.42050,54.03237444
1.42100,48.5388751
1.42150,26.56487775
1.42200,9.779185327
1.42250,4.896074803
1.42300,0.3181586879
1.42350,-6.396118282
1.42400,-7.006507097
1.42450,-1.513007758
1.42500,-3.649368612
1.42550,-12.80520084
1.42600,-7.006507097
1.42650,25.03890571
1.42700,62.27262345
1.42750,78.75312147
1.42800,73.87001094
1.42850,63.49340108
1.42900,52.201208
1.42950,33.58434913
1.43000,9.168796511
1.43050,-6.701312689
1.43100,-7.616895912
1.43150,-1.513007758
1.43200,1.233741911
1.43250,-0.2922301275
1.43300,-3.038979797
1.43350,-6.396118282
1.43400,-11.2792288
1.43450,-14.63636729
1.43500,-12.19481203
1.43550,-5.785729466
1.43600,-4.564951835
1.43650,-13.41558966
1.43700,-27.75972682
1.43750,-39.96750313
1.43800,-47.29216891
1.43850,-53.39605707
1.43900,-58.27916759
1.43950,-58.584362
1.44000,-54.31164029
1.44050,-50.03891858
1.44100,-48.81814095
1.44150,-47.90255773
1.44200,-46.07139128
1.44250,-45.76619688
1.44300,-47.90255773
1.44350,-47.29216891
1.44400,-39.96750313
1.44450,-28.67531004
1.44500,-21.35064426
1.44550,-20.12986663
1.44600,-19.51947781
1.44650,-16.46753374
1.44700,-11.2792288
1.44750,-5.175340651
1.44800,1.844130726
1.44850,8.253213288
1.44900,8.253213288
1.44950,0.01296428019
1.45000,-8.532479135
1.45050,-6.396118282
1.45100,5.811658027
1.45150,16.7986567
1.45200,16.18826789
1.45250,6.72724125
1.45300,-2.733785389
1.45350,-8.227284728
1.45400,-10.9740344
1.45450,-10.9740344
1.45500,-6.701312689
1.45550,-2.123396574
1.45600,-4.870146243
1.45650,-16.16233933
1.45700,-25.01297715
1.45750,-22.57142189
1.45800,-12.50000644
1.45850,-6.396118282
1.45900,-7.006507097
1.45950,-9.448062359
1.46000,-11.58442321
1.46050,-14.63636729
1.46100,-18.60389459
1.46150,-21.35064426
1.46200,-24.70778274
1.46250,-31.11686531
1.46300,-38.44153109
1.46350,-40.88308635
1.46400,-40.27269754
1.46450,-41.18828076
1.46500,-43.32464161
1.46550,-42.40905839
1.46600,-39.66230872
1.46650,-41.79866957
1.46700,-44.54541924
1.46750,-35.08439261
1.46800,-9.448062359
1.46850,19.24021197
1.46900,39.99343169
1.46950,56.77912411
1.47000,76.92195502
1.47050,94.92842508
1.47100,99.8115356
1.47150,92.18167541
1.47200,82.72064877
1.47250,77.53234384
1.47300,73.25962213
1.47350,65.62976194
1.47400,54.03237444
1.47450,39.99343169
1.47500,26.25968334
1.47550,18.01943433
1.47600,15.57787907
1.47650,11.30515737
1.47700,0.3181586879
1.47750,-12.19481203
1.47800,-17.68831137
1.47850,-18.60389459
1.47900,-21.96103307
1.47950,-28.37011564
1.48000,-31.42205971
1.48050,-28.98050445
1.48100,-24.70778274
1.48150,-19.21428341
1.48200,-7.311701505
1.48250,12.525935
1.48300,36.94148761
1.48350,59.52587378
1.48400,73.87001094
1.48450,73.25962213
1.48500,55.55834648
1.48550,28.3960442
1.48600,2.454519542
1.48650,-20.74025544
1.48700,-46.98697451
1.48750,-73.23369357
1.48800,-86.66224751
1.48850,-77.20122087
1.48900,-49.42852977
1.48950,-14.33117288
1.49000,21.68176723
1.49050,54.64276326
1.49100,78.44792706
1.49150,89.43492574
1.49200,92.48686981
1.49250,95.23361948
1.49300,98.28556356
1.49350,92.79206422
1.49400,72.34403891
1.49450,40.6038205
1.49500,9.473990919
1.49550,-12.80520084
1.49600,-24.09739393
1.49650,-26.53894919
1.49700,-23.18181071
1.49750,-17.38311696
1.49800,-12.50000644
1.49850,-8.227284728
1.49900,-2.123396574
1.49950,7.032435657
1.50000,18.01943433
1.50050,26.56487775
1.50100,29.31162742
1.50150,24.7337113
1.50200,16.7986567
1.50250,13.74671263
1.50300,23.51293367
1.50350,43.04537577
1.50400,59.83106819
1.50450,65.32456753
1.50500,64.40898431
1.50550,68.68170601
1.50600,79.9738991
1.50650,91.57128659
1.50700,98.59075797
1.50750,99.20114678
1.50800,88.21414811
1.50850,60.44145701
1.50900,23.81812808
1.50950,-2.733785389
1.51000,-10.9740344
1.51050,-10.05845117
1.51100,-15.55195051
1.51150,-29.89608767
1.51200,-43.62983602
1.51250,-48.81814095
1.51300,-47.29216891
1.51350,-44.24022484
1.51400,-43.01944721
1.51450,-44.24022484
1.51500,-49.12333536
1.51550,-57.05838996
1.51600,-64.99344456
1.51650,-70.18174949
1.51700,-73.84408238
1.51750,-79.33758172
1.51800,-87.88302514
1.51850,-93.98691329
1.51900,-90.01938599
1.51950,-76.89602646
1.52000,-64.07786134
1.52050,-57.97397318
1.52100,-52.78566825
1.52150,-39.96750313
1.52200,-22.26622748
1.52250,-7.92209032
1.52300,2.149325134
1.52350,15.57787907
1.52400,32.6687659
1.52450,47.31809747
1.52500,56.4739297
1.52550,65.93495634
1.52600,81.49987114
1.52650,99.8115356
1.52700,112.6297007
1.52750,112.9348951
1.52800,100.7271188
1.52850,82.11025995
1.52900,70.20767805
1.52950,74.48039976
1.53000,90.65570337
1.53050,103.7790629
1.53100,104.0842573
1.53150,95.23361948
1.53200,86.68817607
1.53250,81.49987114
1.53300,78.44792706
1.53350,75.09078857
1.53400,70.51287246
1.53450,61.35704023
1.53500,45.79212544
1.53550,24.4285169
1.53600,1.233741911
1.53650,-20.43506104
1.53700,-39.05191991
1.53750,-53.70125148
1.53800,-64.68825015
1.53850,-73.23369357
1.53900,-77.20122087
1.53950,-75.67524883
1.54000,-69.26616627
1.54050,-61.02591726
1.54100,-48.20775214
1.54150,-25.01297715
1.54200,7.94801888
1.54250,39.99343169
1.54300,58.61029056
1.54350,63.18820667
1.54400,61.96742904
1.54450,59.22067937
1.54500,51.59081918
1.54550,38.77265406
1.54600,28.3960442
1.54650,26.87007216
1.54700,31.14279387
1.54750,34.19473794
1.54800,36.6362932
1.54850,44.87654221
1.54900,56.4739297
1.54950,62.27262345
1.55000,61.35704023
1.55050,63.79859549
1.55100,76.31156621
1.55150,89.12973133
1.55200,87.9089537
1.55250,71.12326127
1.55300,51.59081918
1.55350,39.38304287
1.55400,34.80512676
1.55450,31.75318268
1.55500,28.7012386
1.55550,28.3960442
1.55600,34.19473794
1.55650,44.87654221
1.55700,53.11679122
1.55750,50.67523596
1.55800,36.02590439
1.55850,15.27268467
1.55900,-5.480535058
1.55950,-29.59089327
1.56000,-59.49994522
1.56050,-92.46094125
1.56100,-119.6232435
1.56150,-135.7985471
1.56200,-137.6297136
1.56250,-124.2011597
1.56300,-101.3115791
1.56350,-82.3895258
1.56400,-75.98044324
1.56450,-70.18174949
1.56500,-46.6817801
1.56550,-4.564951835
1.56600,34.49993235
1.56650,49.45445833
1.56700,41.21420932
1.56750,25.64929453
1.56800,12.8311294
1.56850,1.538936319
1.56900,-12.80520084
1.56950,-29.89608767
1.57000,-45.76619688
1.57050,-57.97397318
1.57100,-60.41552844
1.57150,-49.73372418
1.57200,-29.28569886
1.57250,-11.58442321
1.57300,-6.396118282
1.57350,-9.142867951
1.57400,-6.396118282
1.57450,6.72724125
1.57500,22.29215604
1.57550,29.31162742
1.57600,28.7012386
1.57650,31.14279387
1.57700,41.82459814
1.57750,55.55834648
1.57800,65.62976194
1.57850,72.64923331
1.57900,80.27909351
1.57950,88.21414811
1.58000,91.57128659
1.58050,87.9089537
1.58100,77.83753824
1.58150,62.27262345
1.58200,42.43498695
1.58250,21.98696163
1.58300,5.201269211
1.58350,-7.92209032
1.58400,-20.12986663
1.58450,-30.50647649
1.58500,-33.86361497
1.58550,-27.45453241
1.58600,-16.16233933
1.58650,-5.480535058
1.58700,2.149325134
1.58750,4.896074803
1.58800,0.9285475033
1.58850,-7.006507097
1.58900,-12.50000644
1.58950,-13.11039525
1.59000,-12.50000644
1.59050,-14.63636729
1.59100,-14.9415617
1.59150,-9.753256766
1.59200,-3.344174205
1.59250,-1.513007758
1.59300,-3.95456302
1.59350,-4.564951835
1.59400,-3.038979797
1.59450,-2.733785389
1.59500,-0.9026189429
1.59550,6.116852434
1.59600,15.57787907
1.59650,19.54540637
1.59700,15.88307348
1.59750,10.08437973
1.59800,2.75971395
1.59850,-7.311701505
1.59900,-17.38311696
1.59950,-19.51947781
1.60000,-13.11039525
1.60050,-8.837673543
1.60100,-14.02597847
1.60150,-22.8766163
1.60200,-25.31817156
1.60250,-18.60389459
1.60300,-6.701312689
1.60350,6.422046842
1.60400,17.10385111
1.60450,21.68176723
1.60500,19.54540637
1.60550,16.18826789
1.60600,13.44151822
1.60650,9.473990919
1.60700,3.064908357
1.60750,-2.123396574
1.60800,-4.259757428
1.60850,-3.344174205
1.60900,-3.649368612
1.60950,-8.227284728
1.61000,-18.29870018
1.61050,-31.72725412
1.61100,-39.66230872
1.61150,-34.16880938
1.61200,-20.12986663
1.61250,-9.448062359
1.61300,-9.448062359
1.61350,-12.80520084
1.61400,-11.2792288
1.61450,-5.175340651
1.61500,1.844130726
1.61550,11.61035177
1.61600,22.90254486
1.61650,28.7012386
1.61700,23.20773927
1.61750,10.69476855
1.61800,0.3181586879
1.61850,-9.142867951
1.61900,-25.62336597
1.61950,-47.59736332
1.62000,-63.16227811
1.62050,-64.38305574
1.62100,-55.83761233
1.62150,-47.29216891
1.62200,-44.54541924
1.62250,-46.98697451
1.62300,-54.00644588
1.62350,-60.41552844
1.62400,-57.05838996
1.62450,-39.35711431
1.62500,-17.07792255
1.62550,-5.480535058
1.62600,-10.05845117
1.62650,-21.35064426
1.62700,-30.20128208
1.62750,-35.99997583
1.62800,-42.10386398
1.62850,-45.46100247
1.62900,-40.27269754
1.62950,-28.37011564
1.63000,-18.29870018
1.63050,-10.9740344
1.63100,1.233741911
1.63150,22.59735045
1.63200,44.5713478
1.63250,54.64276326
1.63300,50.98043037
1.63350,39.68823728
1.63400,23.20773927
1.63450,1.233741911
1.63500,-20.74025544
1.63550,-35.38958701
1.63600,-40.57789194
1.63650,-42.10386398
1.63700,-41.49347517
1.63750,-36.30517024
1.63800,-25.92856037
1.63850,-16.46753374
1.63900,-8.532479135
1.63950,0.6233530956
1.64000,9.473990919
1.64050,9.473990919
1.64100,-2.123396574
1.64150,-15.2467561
1.64200,-21.96103307
1.64250,-25.62336597
1.64300,-29.89608767
1.64350,-32.33764294
1.64400,-30.8116709
1.64450,-30.8116709
1.64500,-31.11686531
1.64550,-18.60389459
1.64600,14.96749026
1.64650,55.55834648
1.64700,78.14273265
1.64750,74.48039976
1.64800,57.69470734
1.64850,40.6038205
1.64900,23.51293367
1.64950,4.590880396
1.65000,-10.05845117
1.65050,-14.63636729
1.65100,-10.36364558
1.65150,-4.259757428
1.65200,-0.9026189429
1.65250,0.01296428019
1.65300,2.75971395
1.65350,14.05190703
1.65400,32.6687659
1.65450,49.75965274
1.65500,56.1687353
1.65550,51.59081918
1.65600,40.2986261
1.65650,25.95448893
1.65700,9.168796511
1.65750,-5.785729466
1.65800,-17.07792255
1.65850,-29.28569886
1.65900,-45.15580806
1.65950,-60.41552844
1.66000,-67.12980541
1.66050,-66.5194166
1.66100,-66.82461101
1.66150,-69.87655508
1.66200,-72.31811035
1.66250,-72.92849916
1.66300,-75.67524883
1.66350,-78.11680409
1.66400,-73.53888798
1.66450,-62.24669489
1.66500,-52.48047384
1.66550,-48.51294654
1.66600,-42.7142528
1.66650,-26.8441436
1.66700,-4.870146243
1.66750,10.38957414
1.66800,12.8311294
1.66850,7.642824473
1.66900,4.285685988
1.66950,7.94801888
1.67000,15.57787907
1.67050,15.88307348
1.67100,-0.5974245352
1.67150,-29.89608767
1.67200,-54.00644588
1.67250,-56.44800114
1.67300,-39.05191991
1.67350,-17.07792255
1.67400,-0.9026189429
1.67450,10.99996296
1.67500,24.7337113
1.67550,39.99343169
1.67600,51.89601359
1.67650,53.11679122
1.67700,42.43498695
1.67750,26.56487775
1.67800,14.66229585
1.67850,11.61035177
1.67900,15.57787907
1.67950,27.48046097
1.68000,47.31809747
1.68050,65.62976194
1.68100,66.85053957
1.68150,47.62329188
1.68200,25.64929453
1.68250,15.27268467
1.68300,10.08437973
1.68350,-1.207813351
1.68400,-12.80520084
1.68450,-10.36364558
1.68500,2.149325134
1.68550,10.08437973
1.68600,12.525935
1.68650,25.03890571
1.68700,51.28562477
1.68750,70.51287246
1.68800,65.01937312
1.68850,41.51940373
1.68900,18.62982315
1.68950,4.590880396
1.69000,-2.428590981
1.69050,-3.038979797
1.69100,1.538936319
1.69150,6.72724125
1.69200,10.38957414
1.69250,20.766184
1.69300,44.5713478
1.69350,75.70117739
1.69400,97.36998034
1.69450,99.50634119
1.69500,82.11025995
1.69550,50.37004155
1.69600,13.13632381
1.69650,-18.909089
1.69700,-40.27269754
1.69750,-51.87008503
1.69800,-57.36358437
1.69850,-55.22722351
1.69900,-40.88308635
1.69950,-19.21428341
1.70000,-1.818202166
1.70050,2.75971395
1.70100,-5.480535058
1.70150,-22.8766163
1.70200,-41.18828076
1.70250,-48.51294654
1.70300,-37.22075346
1.70350,-14.9415617
1.70400,1.233741911
1.70450,3.675297173
1.70500,-1.818202166
1.70550,-8.837673543
1.70600,-16.77272814
1.70650,-25.31817156
1.70700,-27.75972682
1.70750,-20.12986663
1.70800,-9.142867951
1.70850,-5.175340651
1.70900,-6.090923874
1.70950,-1.818202166
1.71000,11.61035177
1.71050,28.7012386
1.71100,39.68823728
1.71150,41.51940373
1.71200,34.80512676
1.71250,25.34410012
1.71300,21.68176723
1.71350,25.95448893
1.71400,31.75318268
1.71450,32.05837709
1.71500,31.14279387
1.71550,37.55187643
1.71600,49.45445833
1.71650,58.91548497
1.71700,62.57781786
1.71750,65.32456753
1.71800,67.46092838
1.71850,62.88301227
1.71900,50.37004155
1.71950,37.55187643
1.72000,29.61682183
1.72050,21.98696163
1.72100,8.253213288
1.72150,-8.532479135
1.72200,-21.04544985
1.72250,-25.31817156
1.72300,-24.40258834
1.72350,-18.909089
1.72400,-7.006507097
1.72450,9.473990919
1.72500,25.64929453
1.72550,36.94148761
1.72600,43.96095899
1.72650,49.75965274
1.72700,52.81159681
1.72750,50.06484714
1.72800,42.12979254
1.72850,33.88954354
1.72900,27.48046097
1.72950,19.85060078
1.73000,8.253213288
1.73050,-4.564951835
1.73100,-13.72078407
1.73150,-17.38311696
1.73200,-21.04544985
1.73250,-26.8441436
1.73300,-31.42205971
1.73350,-29.89608767
1.73400,-23.48700511
1.73450,-18.29870018
1.73500,-17.99350577
1.73550,-19.21428341
1.73600,-17.07792255
1.73650,-11.88961762
1.73700,-6.701312689
1.73750,0.3181586879
1.73800,14.35710144
1.73850,35.41551557
1.73900,53.42198563
1.73950,59.83106819
1.74000,59.83106819
1.74050,63.18820667
1.74100,70.81806687
1.74150,74.48039976
1.74200,71.12326127
1.74250,68.98690042
1.74300,70.51287246
1.74350,66.85053957
1.74400,49.75965274
1.74450,26.25968334
1.74500,11.61035177
1.74550,11.30515737
1.74600,14.35710144
1.74650,9.168796511
1.74700,-3.344174205
1.74750,-14.63636729
1.74800,-18.29870018
1.74850,-18.60389459
1.74900,-23.18181071
1.74950,-31.42205971
1.75000,-35.38958701
1.75050,-33.25322616
1.75100,-35.08439261
1.75150,-51.56489062
1.75200,-78.72719291
1.75250,-101.3115791
1.75300,-107.4154672
1.75350,-97.34405178
1.75400,-78.11680409
1.75450,-57.97397318
1.75500,-44.24022484
1.75550,-38.13633668
1.75600,-32.64283734
1.75650,-17.07792255
1.75700,9.779185327
1.75750,39.68823728
1.75800,62.27262345
1.75850,73.87001094
1.75900,74.48039976
1.75950,66.54534516
1.76000,57.99990174
1.76050,56.1687353
1.76100,57.08431852
1.76150,49.45445833
1.76200,28.3960442
1.76250,2.454519542
1.76300,-15.85714492
1.76350,-24.70778274
1.76400,-29.89608767
1.76450,-37.22075346
1.76500,-50.03891858
1.76550,-66.5194166
1.76600,-75.98044324
1.76650,-68.96097186
1.76700,-46.98697451
1.76750,-25.92856037
1.76800,-15.85714492
1.76850,-12.19481203
1.76900,-3.95456302
1.76950,11.61035177
1.77000,32.97396031
1.77050,57.69470734
1.77100,81.19467673
1.77150,89.43492574
1.77200,71.73365009
1.77250,36.3310988
1.77300,3.98049158
1.77350,-14.9415617
1.77400,-27.14933801
1.77450,-41.49347517
1.77500,-56.44800114
1.77550,-65.90902778
1.77600,-68.96097186
1.77650,-64.68825015
1.77700,-50.34411299
1.77750,-28.06492123
1.77800,-4.564951835
1.77850,14.96749026
1.77900,32.05837709
1.77950,43.65576458
1.78000,43.65576458
1.78050,29.92201623
1.78100,10.69476855
1.78150,-6.701312689
1.78200,-22.8766163
1.78250,-35.08439261
1.78300,-32.03244853
1.78350,-7.92209032
1.78400,24.12332249
1.78450,47.01290307
1.78500,57.99990174
1.78550,65.32456753
1.78600,68.0713172
1.78650,57.08431852
1.78700,31.75318268
1.78750,0.6233530956
1.78800,-31.42205971
1.78850,-72.31811035
1.78900,-121.7596044
1.78950,-163.8764327
1.79000,-183.1036803
1.79050,-180.6621251
1.79100,-170.895904
1.79150,-160.5192942
1.79200,-143.7336017
1.79250,-116.8764939
1.79300,-86.66224751
1.79350,-62.85708371
1.79400,-47.59736332
1.79450,-37.52594787
1.79500,-32.64283734
1.79550,-34.7791982
1.79600,-40.27269754
1.79650,-39.05191991
1.79700,-26.53894919
1.79750,-10.05845117
1.79800,-3.038979797
1.79850,-10.66883999
1.79900,-22.26622748
1.79950,-21.65583867
1.80000,-4.259757428
1.80050,16.18826789
1.80100,25.03890571
1.80150,19.85060078
1.80200,14.05190703
1.80250,16.4934623
1.80300,24.4285169
1.80350,29.92201623
1.80400,29.61682183
1.80450,25.64929453
1.80500,19.85060078
1.80550,11.91554618
1.80600,3.370102765
1.80650,-0.9026189429
1.80700,2.75971395
1.80750,14.96749026
1.80800,29.31162742
1.80850,38.16226524
1.80900,40.6038205
1.80950,43.04537577
1.81000,47.01290307
1.81050,45.79212544
1.81100,36.94148761
1.81150,31.14279387
1.81200,39.38304287
1.81250,54.03237444
1.81300,61.05184582
1.81350,57.38951293
1.81400,49.75965274
1.81450,36.6362932
1.81500,11.91554618
1.81550,-14.33117288
1.81600,-23.48700511
1.81650,-13.11039525
1.81700,-3.344174205
1.81750,-6.396118282
1.81800,-14.02597847
1.81850,-20.43506104
1.81900,-31.72725412
1.81950,-50.95450181
1.82000,-64.99344456
1.82050,-62.5518893
1.82100,-53.39605707
1.82150,-51.56489062
1.82200,-54.92202911
1.82250,-51.87008503
1.82300,-41.49347517
1.82350,-26.8441436
1.82400,-4.870146243
1.82450,26.56487775
1.82500,57.99990174
1.82550,73.56481654
1.82600,71.12326127
1.82650,58.91548497
1.82700,43.35057017
1.82750,24.4285169
1.82800,7.032435657
1.82850,-0.9026189429
1.82900,0.01296428019
1.82950,1.844130726
1.83000,0.3181586879
1.83050,-4.564951835
1.83100,-9.753256766
1.83150,-12.80520084
1.83200,-12.80520084
1.83250,-13.11039525
1.83300,-18.60389459
1.83350,-28.37011564
1.83400,-32.03244853
1.83450,-25.92856037
1.83500,-20.74025544
1.83550,-28.98050445
1.83600,-45.76619688
1.83650,-52.17527944
1.83700,-41.18828076
1.83750,-24.40258834
1.83800,-13.41558966
1.83850,-5.175340651
1.83900,7.032435657
1.83950,21.98696163
1.84000,33.27915472
1.84050,39.07784847
1.84100,41.51940373
1.84150,39.38304287
1.84200,29.31162742
1.84250,13.13632381
1.84300,-1.513007758
1.84350,-10.05845117
1.84400,-11.88961762
1.84450,-5.480535058
1.84500,12.22074059
1.84550,40.6038205
1.84600,69.90248364
1.84650,90.65570337
1.84700,104.9998405
1.84750,120.5647553
1.84800,138.5712254
1.84850,147.1166688
1.84900,133.3829204
1.84950,97.98036915
1.85000,55.86354089
1.85050,20.4609896
1.85100,-5.480535058
1.85150,-25.62336597
1.85200,-37.83114227
1.85250,-42.7142528
1.85300,-47.59736332
1.85350,-55.83761233
1.85400,-56.14280674
1.85450,-38.44153109
1.85500,-14.33117288
1.85550,-10.66883999
1.85600,-35.69478142
1.85650,-68.65577745
1.85700,-86.96744191
1.85750,-88.79860836
1.85800,-85.44146988
1.85850,-79.33758172
1.85900,-65.90902778
1.85950,-47.90255773
1.86000,-31.72725412
1.86050,-17.38311696
1.86100,-0.5974245352
1.86150,15.88307348
1.86200,24.4285169
1.86250,24.12332249
1.86300,21.07137841
1.86350,16.7986567
1.86400,5.811658027
1.86450,-12.50000644
1.86500,-29.89608767
1.86550,-38.44153109
1.86600,-39.66230872
1.86650,-39.66230872
1.86700,-41.18828076
1.86750,-43.93503043
1.86800,-44.54541924
1.86850,-40.27269754
1.86900,-30.20128208
1.86950,-17.99350577
1.87000,-9.753256766
1.87050,-4.870146243
1.87100,1.538936319
1.87150,10.99996296
1.87200,12.525935
1.87250,-4.564951835
1.87300,-33.55842057
1.87350,-50.34411299
1.87400,-36.91555905
1.87450,0.6233530956
1.87500,39.38304287
1.87550,61.96742904
1.87600,69.59728924
1.87650,73.56481654
1.87700,82.41545436
1.87750,97.67517474
1.87800,117.5128112
1.87850,133.077726
1.87900,130.025782
1.87950,102.8634797
1.88000,64.1037899
1.88050,32.05837709
1.88100,10.69476855
1.88150,-10.9740344
1.88200,-39.05191991
1.88250,-65.90902778
1.88300,-79.94797054
1.88350,-81.47394258
1.88400,-76.89602646
1.88450,-71.70772153
1.88500,-66.82461101
1.88550,-61.63630608
1.88600,-54.92202911
1.88650,-45.46100247
1.88700,-34.16880938
1.88750,-24.70778274
1.88800,-19.82467222
1.88850,-17.38311696
1.88900,-13.72078407
1.88950,-9.448062359
1.89000,-5.785729466
1.89050,0.01296428019
1.89100,10.99996296
1.89150,23.51293367
1.89200,28.3960442
1.89250,22.59735045
1.89300,13.44151822
1.89350,11.30515737
1.89400,16.4934623
1.89450,21.37657282
1.89500,21.37657282
1.89550,18.62982315
1.89600,18.32462874
1.89650,18.93501756
1.89700,20.4609896
1.89750,27.17526657
1.89800,39.38304287
1.89850,45.48693103
1.89900,36.02590439
1.89950,20.4609896
1.90000,16.7986567
1.90050,28.09084979
1.90100,36.6362932
1.90150,32.97396031
1.90200,25.64929453
1.90250,23.20773927
1.90300,20.766184
1.90350,14.35710144
1.90400,12.22074059
1.90450,18.93501756
1.90500,20.4609896
1.90550,3.370102765
1.90600,-21.35064426
1.90650,-33.55842057
1.90700,-32.03244853
1.90750,-34.16880938
1.90800,-48.81814095
1.90850,-62.5518893
1.90900,-59.80513963
1.90950,-36.30517024
1.91000,-1.207813351
1.91050,30.83759946
1.91100,43.96095899
1.91150,31.75318268
1.91200,7.032435657
1.91250,-10.05845117
1.91300,-15.55195051
1.91350,-20.43506104
1.91400,-31.42205971
1.91450,-39.66230872
1.91500,-33.25322616
1.91550,-14.63636729
1.91600,3.675297173
1.91650,16.18826789
1.91700,25.95448893
1.91750,39.07784847
1.91800,55.55834648
1.91850,70.20767805
1.91900,77.53234384
1.91950,78.75312147
1.92000,78.14273265
1.92050,77.22714943
1.92100,74.78559417
1.92150,68.98690042
1.92200,60.44145701
1.92250,49.45445833
1.92300,36.02590439
1.92350,21.37657282
1.92400,9.779185327
1.92450,3.064908357
1.92500,-1.207813351
1.92550,-8.227284728
1.92600,-18.60389459
1.92650,-29.89608767
1.92700,-37.52594787
1.92750,-40.88308635
1.92800,-43.93503043
1.92850,-50.6493074
1.92900,-60.11033404
1.92950,-65.60383338
1.93000,-63.46747252
1.93050,-58.27916759
1.93100,-57.66877878
1.93150,-60.72072285
1.93200,-57.97397318
1.93250,-42.40905839
1.93300,-20.74025544
1.93350,-6.090923874
1.93400,-3.344174205
1.93450,-5.785729466
1.93500,-5.480535058
1.93550,-3.649368612
1.93600,-6.090923874
1.93650,-13.11039525
1.93700,-19.82467222
1.93750,-24.09739393
1.93800,-26.53894919
1.93850,-25.01297715
1.93900,-17.07792255
1.93950,-9.142867951
1.94000,-12.80520084
1.94050,-22.8766163
1.94100,-19.82467222
1.94150,4.285685988
1.94200,29.92201623
1.94250,32.05837709
1.94300,14.66229585
1.94350,2.75971395
1.94400,5.811658027
1.94450,11.30515737
1.94500,5.201269211
1.94550,-9.448062359
1.94600,-22.26622748
1.94650,-26.23375478
1.94700,-21.65583867
1.94750,-14.02597847
1.94800,-9.448062359
1.94850,-7.311701505
1.94900,1.844130726
1.94950,23.81812808
1.95000,48.2336807
1.95050,60.44145701
1.95100,58.61029056
1.95150,53.42198563
1.95200,51.28562477
1.95250,47.92848629
1.95300,41.21420932
1.95350,37.85707084
1.95400,42.12979254
1.95450,48.84406951
1.95500,48.84406951
1.95550,38.46745965
1.95600,24.12332249
1.95650,12.8311294
1.95700,5.506463619
1.95750,-5.785729466
1.95800,-28.67531004
1.95850,-57.05838996
1.95900,-77.81160968
1.95950,-83.61030343
1.96000,-78.4219985
1.96050,-67.74019423
1.96100,-56.14280674
1.96150,-51.87008503
1.96200,-61.33111167
1.96250,-73.84408238
1.96300,-68.04538864
1.96350,-39.35711431
1.96400,-9.448062359
1.96450,-0.9026189429
1.96500,-10.66883999
1.96550,-23.18181071
1.96600,-33.86361497
1.96650,-46.37658569
1.96700,-58.27916759
1.96750,-61.94150048
1.96800,-57.36358437
1.96850,-50.03891858
1.96900,-41.79866957
1.96950,-33.25322616
1.97000,-29.89608767
1.97050,-35.99997583
1.97100,-43.01944721
1.97150,-39.66230872
1.97200,-30.50647649
1.97250,-32.64283734
1.97300,-51.87008503
1.97350,-74.75966561
1.97400,-84.83108106
1.97450,-77.50641528
1.97500,-60.41552844
1.97550,-43.62983602
1.97600,-35.99997583
1.97650,-39.05191991
1.97700,-42.40905839
1.97750,-31.42205971
1.97800,-3.038979797
1.97850,29.92201623
1.97900,50.37004155
1.97950,52.201208
1.98000,42.43498695
1.98050,32.97396031
1.98100,29.92201623
1.98150,32.3635715
1.98200,34.49993235
1.98250,34.19473794
1.98300,33.88954354
1.98350,35.41551557
1.98400,37.55187643
1.98450,37.24668202
1.98500,36.3310988
1.98550,38.16226524
1.98600,40.6038205
1.98650,39.99343169
1.98700,38.46745965
1.98750,44.2661534
1.98800,55.86354089
1.98850,64.40898431
1.98900,63.79859549
1.98950,62.27262345
1.99000,68.37651161
1.99050,80.58428791
1.99100,90.96089778
1.99150,94.01284185
1.99200,89.74012014
1.99250,76.92195502
1.99300,55.25315207
1.99350,30.53240505
1.99400,11.30515737
1.99450,0.3181586879
1.99500,-8.837673543
1.99550,-22.57142189
1.99600,-38.7467255
1.99650,-49.73372418
1.99700,-50.03891858
1.99750,-45.15580806
1.99800,-48.51294654
1.99850,-66.21422219
1.99900,-86.66224751
1.99950,-90.62977481
2.00000,-71.70772153
2.00050,-43.32464161
2.00100,-22.26622748
2.00150,-14.9415617
2.00200,-17.99350577
2.00250,-25.31817156
2.00300,-27.45453241
2.00350,-15.85714492
2.00400,7.337630065
2.00450,27.48046097
2.00500,33.88954354
2.00550,32.6687659
2.00600,34.49993235
2.00650,38.77265406
2.00700,33.58434913
2.00750,14.96749026
2.00800,-6.090923874
2.00850,-17.07792255
2.00900,-13.41558966
2.00950,-3.95456302
2.01000,-0.9026189429
2.01050,-6.701312689
2.01100,-12.80520084
2.01150,-12.19481203
2.01200,-9.448062359
2.01250,-13.11039525
2.01300,-20.74025544
2.01350,-21.35064426
2.01400,-11.88961762
2.01450,-0.9026189429
2.01500,3.370102765
2.01550,7.337630065
2.01600,20.4609896
2.01650,43.35057017
2.01700,65.01937312
2.01750,73.87001094
2.01800,70.20767805
2.01850,64.40898431
2.01900,66.85053957
2.01950,76.0063718
2.02000,84.55181521
2.02050,89.43492574
2.02100,95.23361948
2.02150,99.8115356
2.02200,96.45439711
2.02250,84.55181521
2.02300,72.95442772
2.02350,60.1362626
2.02400,30.53240505
2.02450,-21.35064426
2.02500,-75.06486001
2.02550,-106.1946896
2.02600,-115.6557162
2.02650,-116.8764939
2.02700,-113.5193554
2.02750,-100.0908014
2.02800,-82.08433139
2.02850,-72.31811035
2.02900,-68.96097186
2.02950,-57.66877878
2.03000,-35.99997583
2.03050,-19.82467222
2.03100,-21.65583867
2.03150,-34.16880938
2.03200,-44.54541924
2.03250,-47.90255773
2.03300,-46.37658569
2.03350,-41.49347517
2.03400,-33.55842057
2.03450,-25.01297715
2.03500,-18.909089
2.03550,-15.85714492
2.03600,-14.63636729
2.03650,-12.80520084
2.03700,-10.05845117
2.03750,-11.2792288
2.03800,-18.29870018
2.03850,-24.70778274
2.03900,-17.68831137
2.03950,3.98049158
2.04000,25.95448893
2.04050,33.27915472
2.04100,30.53240505
2.04150,32.3635715
2.04200,41.51940373
2.04250,44.2661534
2.04300,32.05837709
2.04350,18.01943433
2.04400,21.37657282
2.04450,41.51940373
2.04500,60.1362626
2.04550,63.79859549
2.04600,58.61029056
2.04650,61.05184582
2.04700,76.61676061
2.04750,94.01284185
2.04800,97.67517474
2.04850,80.27909351
2.04900,46.70770866
2.04950,6.422046842
2.05000,-30.50647649
2.05050,-58.27916759
2.05100,-72.92849916
2.05150,-74.4544712
2.05200,-68.04538864
2.05250,-59.49994522
2.05300,-49.42852977
2.05350,-34.47400379
2.05400,-14.33117288
2.05450,5.506463619
2.05500,19.54540637
2.05550,24.4285169
2.05600,20.4609896
2.05650,9.473990919
2.05700,-3.038979797
2.05750,-10.05845117
2.05800,-9.753256766
2.05850,-9.448062359
2.05900,-12.19481203
2.05950,-13.11039525
2.06000,-6.396118282
2.06050,5.811658027
2.06100,19.85060078
2.06150,34.49993235
2.06200,46.70770866
2.06250,52.5064024
2.06300,54.03237444
2.06350,61.66223464
2.06400,77.22714943
2.06450,86.38298166
2.06500,78.75312147
2.06550,63.18820667
2.06600,54.94795767
2.06650,55.86354089
2.06700,55.86354089
2.06750,52.5064024
2.06800,48.84406951
2.06850,43.04537577
2.06900,31.14279387
2.06950,16.7986567
2.07000,8.253213288
2.07050,5.811658027
2.07100,4.590880396
2.07150,5.506463619
2.07200,13.13632381
2.07250,27.48046097
2.07300,43.65576458
2.07350,56.1687353
2.07400,62.57781786
2.07450,58.61029056
2.07500,43.35057017
2.07550,22.90254486
2.07600,3.064908357
2.07650,-14.63636729
2.07700,-30.8116709
2.07750,-41.79866957
2.07800,-44.85061365
2.07850,-42.40905839
2.07900,-36.91555905
2.07950,-25.92856037
2.08000,-8.227284728
2.08050,8.253213288
2.08100,14.96749026
2.08150,11.91554618
2.08200,9.779185327
2.08250,17.10385111
2.08300,35.72070998
2.08350,58.91548497
2.08400,77.53234384
2.08450,87.9089537
2.08500,95.23361948
2.08550,103.1686741
2.08600,105.9154238
2.08650,90.65570337
2.08700,57.99990174
2.08750,29.61682183
2.08800,25.34410012
2.08850,38.46745965
2.08900,42.12979254
2.08950,18.32462874
2.09000,-20.43506104
2.09050,-52.48047384
2.09100,-68.65577745
2.09150,-76.59083205
2.09200,-80.86355376
2.09250,-76.59083205
2.09300,-62.5518893
2.09350,-50.95450181
2.09400,-52.78566825
2.09450,-59.49994522
2.09500,-51.87008503
2.09550,-22.57142189
2.09600,14.66229585
2.09650,42.12979254
2.09700,51.89601359
2.09750,47.01290307
2.09800,39.07784847
2.09850,39.99343169
2.09900,53.72718004
2.09950,71.12326127
2.10000,76.92195502
2.10050,67.15573397
2.10100,48.5388751
2.10150,29.31162742
2.10200,11.91554618
2.10250,-3.038979797
2.10300,-14.33117288
2.10350,-21.65583867
2.10400,-31.42205971
2.10450,-49.42852977
2.10500,-68.65577745
2.10550,-74.4544712
2.10600,-60.72072285
2.10650,-40.88308635
2.10700,-33.86361497
2.10750,-39.05191991
2.10800,-37.52594787
2.10850,-16.46753374
2.10900,12.22074059
2.10950,28.7012386
2.11000,29.92201623
2.11050,27.17526657
2.11100,26.25968334
2.11150,23.81812808
2.11200,22.90254486
2.11250,32.3635715
2.11300,50.06484714
2.11350,60.44145701
2.11400,57.99990174
2.11450,58.91548497
2.11500,78.75312147
2.11550,107.1362014
2.11600,118.7335889
2.11650,103.7790629
2.11700,76.92195502
2.11750,56.77912411
2.11800,48.2336807
2.11850,44.87654221
2.11900,40.90901491
2.11950,34.19473794
2.12000,23.81812808
2.12050,8.253213288
2.12100,-10.9740344
2.12150,-27.75972682
2.12200,-35.08439261
2.12250,-32.64283734
2.12300,-27.14933801
2.12350,-22.26622748
2.12400,-14.33117288
2.12450,1.233741911
2.12500,18.93501756
2.12550,26.87007216
2.12600,20.4609896
2.12650,7.032435657
2.12700,-6.090923874
2.12750,-21.35064426
2.12800,-42.7142528
2.12850,-63.46747252
2.12900,-69.57136068
2.12950,-55.53241792
2.13000,-31.11686531
2.13050,-11.88961762
2.13100,-7.006507097
2.13150,-12.19481203
2.13200,-17.07792255
2.13250,-15.55195051
2.13300,-11.88961762
2.13350,-14.63636729
2.13400,-26.23375478
2.13450,-36.30517024
2.13500,-34.7791982
2.13550,-24.40258834
2.13600,-17.38311696
2.13650,-15.55195051
2.13700,-7.311701505
2.13750,15.27268467
2.13800,44.5713478
2.13850,63.49340108
2.13900,67.46092838
2.13950,62.88301227
2.14000,54.64276326
2.14050,39.68823728
2.14100,17.71423993
2.14150,-3.344174205
2.14200,-14.33117288
2.14250,-13.41558966
2.14300,-7.616895912
2.14350,-6.090923874
2.14400,-9.753256766
2.14450,-11.88961762
2.14500,-4.564951835
2.14550,7.642824473
2.14600,12.8311294
2.14650,4.285685988
2.14700,-9.142867951
2.14750,-15.2467561
2.14800,-12.19481203
2.14850,-7.311701505
2.14900,-3.344174205
2.14950,4.896074803
2.15000,19.24021197
2.15050,29.92201623
2.15100,27.78565538
2.15150,14.96749026
2.15200,4.285685988
2.15250,4.285685988
2.15300,8.558407696
2.15350,3.064908357
2.15400,-18.60389459
2.15450,-48.81814095
2.15500,-70.18174949
2.15550,-72.62330475
2.15600,-59.80513963
2.15650,-39.35711431
2.15700,-17.38311696
2.15750,1.844130726
2.15800,14.96749026
2.15850,21.98696163
2.15900,29.92201623
2.15950,42.74018136
2.16000,55.55834648
2.16050,61.96742904
2.16100,63.49340108
2.16150,64.40898431
2.16200,63.18820667
2.16250,58.91548497
2.16300,55.25315207
2.16350,55.25315207
2.16400,49.14926392
2.16450,26.25968334
2.16500,-8.227284728
2.16550,-37.52594787
2.16600,-55.53241792
2.16650,-70.4869439
2.16700,-86.3570531
2.16750,-91.85055244
2.16800,-79.03238731
2.16850,-60.72072285
2.16900,-52.78566825
2.16950,-54.92202911
2.17000,-53.09086266
2.17050,-43.62983602
2.17100,-36.91555905
2.17150,-38.44153109
2.17200,-36.30517024
2.17250,-13.41558966
2.17300,33.58434913
2.17350,88.21414811
2.17400,126.9738379
2.17450,138.5712254
2.17500,126.3634491
2.17550,100.4219244
2.17600,68.0713172
2.17650,35.72070998
2.17700,12.525935
2.17750,2.75971395
2.17800,0.6233530956
2.17850,-2.733785389
2.17900,-11.58442321
2.17950,-25.31817156
2.18000,-44.54541924
2.18050,-68.35058304
2.18100,-91.24016362
2.18150,-106.1946896
2.18200,-113.214161
2.18250,-113.214161
2.18300,-101.9219679
2.18350,-76.59083205
2.18400,-43.62983602
2.18450,-13.11039525
2.18500,14.05190703
2.18550,43.35057017
2.18600,68.98690042
2.18650,78.44792706
2.18700,68.0713172
2.18750,46.40251425
2.18800,25.34410012
2.18850,13.13632381
2.18900,11.30515737
2.18950,8.863602104
2.19000,-11.2792288
2.19050,-52.17527944
2.19100,-88.18821955
2.19150,-97.03885737
2.19200,-88.18821955
2.19250,-91.24016362
2.19300,-112.6037722
2.19350,-131.8310198
2.19400,-133.0517975
2.19450,-123.2855764
2.19500,-115.3505218
2.19550,-111.3829945
2.19600,-111.6881889
2.19650,-117.4868827
2.19700,-122.0647988
2.19750,-113.5193554
2.19800,-92.76613566
2.19850,-74.75966561
2.19900,-69.87655508
2.19950,-71.40252712
2.20000,-68.04538864
2.20050,-57.05838996
2.20100,-39.66230872
2.20150,-18.60389459
2.20200,-2.733785389
2.20250,0.9285475033
2.20300,4.590880396
2.20350,30.22721064
2.20400,78.75312147
2.20450,120.5647553
2.20500,130.3309764
2.20550,116.9024224
2.20600,104.0842573
2.20650,97.67517474
2.20700,86.68817607
2.20750,68.98690042
2.20800,56.1687353
2.20850,54.64276326
2.20900,55.86354089
2.20950,49.14926392
2.21000,32.97396031
2.21050,13.13632381
2.21100,-2.733785389
2.21150,-9.448062359
2.21200,-7.006507097
2.21250,-2.428590981
2.21300,-3.038979797
2.21350,-7.311701505
2.21400,-11.2792288
2.21450,-17.07792255
2.21500,-28.37011564
2.21550,-41.79866957
2.21600,-53.70125148
2.21650,-66.5194166
2.21700,-85.74666428
2.21750,-105.8894952
2.21800,-115.0453274
2.21850,-112.2985778
2.21900,-106.8050784
2.21950,-101.9219679
2.22000,-92.15574685
2.22050,-72.92849916
2.22100,-48.51294654
2.22150,-25.01297715
2.22200,-8.532479135
2.22250,-4.564951835
2.22300,-10.66883999
2.22350,-12.80520084
2.22400,0.6233530956
2.22450,21.37657282
2.22500,30.22721064
2.22550,25.95448893
2.22600,26.56487775
2.22650,36.3310988
2.22700,37.85707084
2.22750,21.37657282
2.22800,2.75971395
2.22850,-0.5974245352
2.22900,3.98049158
2.22950,3.675297173
2.23000,-0.5974245352
2.23050,-1.818202166
2.23100,-5.785729466
2.23150,-21.96103307
2.23200,-46.07139128
2.23250,-64.07786134
2.23300,-74.14927679
2.23350,-82.3895258
2.23400,-87.88302514
2.23450,-85.44146988
2.23500,-78.72719291
2.23550,-78.4219985
2.23600,-82.08433139
2.23650,-77.50641528
2.23700,-62.85708371
2.23750,-48.51294654
2.23800,-39.96750313
2.23850,-34.47400379
2.23900,-27.45453241
2.23950,-19.21428341
2.24000,-8.532479135
2.24050,3.370102765
2.24100,11.61035177
2.24150,9.168796511
2.24200,-1.513007758
2.24250,-15.2467561
2.24300,-27.45453241
2.24350,-36.61036464
2.24400,-39.35711431
2.24450,-38.44153109
2.24500,-41.18828076
2.24550,-49.73372418
2.24600,-55.22722351
2.24650,-50.95450181
2.24700,-43.01944721
2.24750,-35.38958701
2.24800,-20.43506104
2.24850,8.863602104
2.24900,41.51940373
2.24950,60.74665141
2.25000,61.96742904
2.25050,47.92848629
2.25100,17.40904552
2.25150,-23.18181071
2.25200,-52.17527944
2.25250,-53.39605707
2.25300,-41.18828076
2.25350,-40.57789194
2.25400,-52.78566825
2.25450,-59.80513963
2.25500,-58.27916759
2.25550,-58.27916759
2.25600,-55.22722351
2.25650,-32.64283734
2.25700,5.506463619
2.25750,30.53240505
2.25800,28.3960442
2.25850,19.24021197
2.25900,23.20773927
2.25950,35.11032117
2.26000,41.21420932
2.26050,43.04537577
2.26100,46.09731984
2.26150,47.62329188
2.26200,48.2336807
2.26250,60.74665141
2.26300,88.21414811
2.26350,105.9154238
2.26400,92.18167541
2.26450,60.74665141
2.26500,43.96095899
2.26550,50.67523596
2.26600,60.44145701
2.26650,59.83106819
2.26700,57.99990174
2.26750,66.54534516
2.26800,81.19467673
2.26850,92.79206422
2.26900,97.06478593
2.26950,93.09725863
2.27000,82.11025995
2.27050,67.15573397
2.27100,51.89601359
2.27150,31.14279387
2.27200,-1.207813351
2.27250,-41.49347517
2.27300,-73.23369357
2.27350,-87.57783073
2.27400,-89.10380277
2.27450,-84.22069225
2.27500,-74.4544712
2.27550,-63.46747252
2.27600,-56.75319555
2.27650,-52.17527944
2.27700,-39.05191991
2.27750,-17.07792255
2.27800,-0.2922301275
2.27850,0.9285475033
2.27900,-8.227284728
2.27950,-17.68831137
2.28000,-25.31817156
2.28050,-30.20128208
2.28100,-27.45453241
2.28150,-14.9415617
2.28200,-0.2922301275
2.28250,8.253213288
2.28300,12.8311294
2.28350,19.24021197
2.28400,26.56487775
2.28450,32.3635715
2.28500,43.65576458
2.28550,68.37651161
2.28600,100.7271188
2.28650,122.0907274
2.28700,121.1751441
2.28750,105.3050349
2.28800,88.21414811
2.28850,78.14273265
2.28900,73.25962213
2.28950,72.34403891
2.29000,75.09078857
2.29050,80.88948232
2.29100,85.16220403
2.29150,84.55181521
2.29200,79.36351028
2.29250,73.25962213
2.29300,68.0713172
2.29350,60.44145701
2.29400,46.09731984
2.29450,24.4285169
2.29500,0.3181586879
2.29550,-16.77272814
2.29600,-22.8766163
2.29650,-23.48700511
2.29700,-28.06492123
2.29750,-38.7467255
2.29800,-47.59736332
2.29850,-46.6817801
2.29900,-39.96750313
2.29950,-38.13633668
2.30000,-41.79866957
2.30050,-41.18828076
2.30100,-29.89608767
2.30150,-14.02597847
2.30200,-5.480535058
2.30250,-5.785729466
2.30300,-8.227284728
2.30350,-9.142867951
2.30400,-12.50000644
2.30450,-22.57142189
2.30500,-33.86361497
2.30550,-35.69478142
2.30600,-24.09739393
2.30650,-7.616895912
2.30700,2.454519542
2.30750,5.506463619
2.30800,8.558407696
2.30850,12.8311294
2.30900,12.22074059
2.30950,7.94801888
2.31000,10.99996296
2.31050,27.48046097
2.31100,45.48693103
2.31150,46.70770866
2.31200,27.78565538
2.31250,1.538936319
2.31300,-21.35064426
2.31350,-43.62983602
2.31400,-70.4869439
2.31450,-96.73366296
2.31500,-105.8894952
2.31550,-84.22069225
2.31600,-34.47400379
2.31650,20.766184
2.31700,58.61029056
2.31750,72.64923331
2.31800,75.70117739
2.31850,79.05831587
2.31900,82.11025995
2.31950,80.27909351
2.32000,76.61676061
2.32050,74.17520535
2.32100,69.90248364
2.32150,60.74665141
2.32200,57.08431852
2.32250,70.51287246
2.32300,96.45439711
2.32350,114.4608672
2.32400,112.6297007
2.32450,97.67517474
2.32500,83.33103758
2.32550,69.90248364
2.32600,47.62329188
2.32650,11.30515737
2.32700,-26.8441436
2.32750,-49.73372418
2.32800,-52.48047384
2.32850,-49.12333536
2.32900,-54.00644588
2.32950,-63.16227811
2.33000,-57.66877878
2.33050,-29.28569886
2.33100,4.896074803
2.33150,17.40904552
2.33200,-3.344174205
2.33250,-46.07139128
2.33300,-89.40899718
2.33350,-123.5907708
2.33400,-149.8374899
2.33450,-171.2010984
2.33500,-184.324458
2.33550,-181.5777083
2.33600,-163.5712382
2.33650,-140.0712689
2.33700,-119.0128547
2.33750,-98.87002382
2.33800,-73.84408238
2.33850,-47.90255773
2.33900,-29.59089327
2.33950,-18.29870018
2.34000,-2.733785389
2.34050,22.29215604
2.34100,47.92848629
2.34150,61.35704023
2.34200,61.35704023
2.34250,55.55834648
2.34300,47.01290307
2.34350,35.41551557
2.34400,24.7337113
2.34450,21.37657282
2.34500,26.87007216
2.34550,34.80512676
2.34600,39.07784847
2.34650,37.24668202
2.34700,30.22721064
2.34750,22.90254486
2.34800,19.54540637
2.34850,22.90254486
2.34900,29.92201623
2.34950,32.6687659
2.35000,25.95448893
2.35050,11.91554618
2.35100,-3.649368612
2.35150,-18.60389459
2.35200,-33.86361497
2.35250,-46.07139128
2.35300,-47.29216891
2.35350,-33.55842057
2.35400,-10.9740344
2.35450,11.30515737
2.35500,34.19473794
2.35550,59.52587378
2.35600,79.05831587
2.35650,81.49987114
2.35700,68.98690042
2.35750,58.61029056
2.35800,57.99990174
2.35850,58.91548497
2.35900,54.94795767
2.35950,54.64276326
2.36000,65.93495634
2.36050,82.41545436
2.36100,88.82453692
2.36150,74.17520535
2.36200,36.3310988
2.36250,-16.16233933
2.36300,-62.24669489
2.36350,-80.86355376
2.36400,-73.23369357
2.36450,-61.33111167
2.36500,-61.02591726
2.36550,-64.99344456
2.36600,-61.94150048
2.36650,-53.09086266
2.36700,-41.79866957
2.36750,-25.92856037
2.36800,-7.006507097
2.36850,3.064908357
2.36900,0.3181586879
2.36950,-3.95456302
2.37000,0.01296428019
2.37050,3.064908357
2.37100,0.3181586879
2.37150,5.506463619
2.37200,33.88954354
2.37250,72.0388445
2.37300,90.96089778
2.37350,83.33103758
2.37400,68.0713172
2.37450,60.74665141
2.37500,57.69470734
2.37550,50.06484714
2.37600,38.46745965
2.37650,25.64929453
2.37700,10.38957414
2.37750,-7.311701505
2.37800,-25.62336597
2.37850,-44.85061365
2.37900,-65.60383338
2.37950,-83.61030343
2.38000,-91.24016362
2.38050,-89.10380277
2.38100,-89.10380277
2.38150,-97.95444059
2.38200,-108.025856
2.38250,-105.8894952
2.38300,-87.27263632
2.38350,-60.72072285
2.38400,-38.7467255
2.38450,-26.8441436
2.38500,-21.65583867
2.38550,-15.85714492
2.38600,-5.785729466
2.38650,5.201269211
2.38700,11.91554618
2.38750,10.99996296
2.38800,8.253213288
2.38850,13.44151822
2.38900,29.92201623
2.38950,48.2336807
2.39000,54.94795767
2.39050,49.14926392
2.39100,43.65576458
2.39150,44.87654221
2.39200,46.40251425
2.39250,38.77265406
2.39300,25.95448893
2.39350,18.32462874
2.39400,17.10385111
2.39450,14.66229585
2.39500,6.116852434
2.39550,-7.006507097
2.39600,-21.65583867
2.39650,-30.20128208
2.39700,-19.21428341
2.39750,15.27268467
2.39800,56.4739297
2.39850,75.70117739
2.39900,64.1037899
2.39950,39.07784847
2.40000,17.71423993
2.40050,0.3181586879
2.40100,-20.12986663
2.40150,-40.27269754
2.40200,-50.95450181
2.40250,-51.56489062
2.40300,-47.59736332
2.40350,-41.49347517
2.40400,-31.72725412
2.40450,-19.82467222
2.40500,-11.2792288
2.40550,-7.92209032
2.40600,-6.701312689
2.40650,-6.090923874
2.40700,-5.480535058
2.40750,-2.428590981
2.40800,4.590880396
2.40850,10.38957414
2.40900,7.032435657
2.40950,-3.95456302
2.41000,-17.38311696
2.41050,-31.42205971
2.41100,-45.76619688
2.41150,-50.95450181
2.41200,-38.13633668
2.41250,-15.2467561
2.41300,0.9285475033
2.41350,9.779185327
2.41400,23.20773927
2.41450,39.38304287
2.41500,38.46745965
2.41550,10.99996296
2.41600,-23.48700511
2.41650,-41.49347517
2.41700,-42.10386398
2.41750,-39.35711431
2.41800,-38.13633668
2.41850,-34.7791982
2.41900,-30.8116709
2.41950,-32.33764294
2.42000,-36.91555905
2.42050,-38.7467255
2.42100,-38.44153109
2.42150,-38.7467255
2.42200,-34.16880938
2.42250,-18.60389459
2.42300,3.064908357
2.42350,19.85060078
2.42400,29.61682183
2.42450,37.55187643
2.42500,44.5713478
2.42550,46.70770866
2.42600,46.40251425
2.42650,49.45445833
2.42700,54.94795767
2.42750,55.25315207
2.42800,48.2336807
2.42850,38.46745965
2.42900,28.7012386
2.42950,18.01943433
2.43000,6.422046842
2.43050,0.3181586879
2.43100,3.064908357
2.43150,13.74671263
2.43200,24.12332249
2.43250,29.61682183
2.43300,33.88954354
2.43350,41.51940373
2.43400,47.31809747
2.43450,41.82459814
2.43500,25.34410012
2.43550,13.13632381
2.43600,16.18826789
2.43650,22.90254486
2.43700,18.93501756
2.43750,12.22074059
2.43800,24.12332249
2.43850,53.42198563
2.43900,73.87001094
2.43950,67.76612279
2.44000,48.5388751
2.44050,39.07784847
2.44100,45.48693103
2.44150,56.4739297
2.44200,63.49340108
2.44250,66.54534516
2.44300,66.85053957
2.44350,66.54534516
2.44400,68.0713172
2.44450,71.12326127
2.44500,71.12326127
2.44550,63.18820667
2.44600,47.31809747
2.44650,24.7337113
2.44700,-0.5974245352
2.44750,-23.18181071
2.44800,-38.44153109
2.44850,-48.51294654
2.44900,-56.14280674
2.44950,-56.75319555
2.45000,-42.40905839
2.45050,-16.46753374
2.45100,7.337630065
2.45150,19.54540637
2.45200,24.12332249
2.45250,30.83759946
2.45300,40.2986261
2.45350,47.62329188
2.45400,51.59081918
2.45450,58.61029056
2.45500,71.12326127
2.45550,78.44792706
2.45600,63.79859549
2.45650,24.4285169
2.45700,-19.21428341
2.45750,-46.6817801
2.45800,-57.36358437
2.45850,-69.57136068
2.45900,-92.46094125
2.45950,-116.2661051
2.46000,-128.168687
2.46050,-126.9479093
2.46100,-115.6557162
2.46150,-97.03885737
2.46200,-73.23369357
2.46250,-50.34411299
2.46300,-32.64283734
2.46350,-19.82467222
2.46400,-9.753256766
2.46450,-0.9026189429
2.46500,9.168796511
2.46550,19.85060078
2.46600,24.4285169
2.46650,20.15579519
2.46700,15.57787907
2.46750,19.54540637
2.46800,25.34410012
2.46850,21.98696163
2.46900,14.66229585
2.46950,18.32462874
2.47000,33.58434913
2.47050,43.65576458
2.47100,37.24668202
2.47150,18.93501756
2.47200,-3.344174205
2.47250,-27.75972682
2.47300,-51.56489062
2.47350,-70.18174949
2.47400,-82.08433139
2.47450,-86.05185869
2.47500,-73.53888798
2.47550,-40.27269754
2.47600,-2.428590981
2.47650,15.57787907
2.47700,10.08437973
2.47750,0.3181586879
2.47800,3.370102765
2.47850,19.54540637
2.47900,40.2986261
2.47950,57.69470734
2.48000,63.49340108
2.48050,54.94795767
2.48100,41.21420932
2.48150,30.83759946
2.48200,17.10385111
2.48250,-7.92209032
2.48300,-31.42205971
2.48350,-32.94803175
2.48400,-18.909089
2.48450,-16.16233933
2.48500,-30.8116709
2.48550,-41.49347517
2.48600,-35.08439261
2.48650,-29.59089327
2.48700,-41.18828076
2.48750,-54.92202911
2.48800,-44.24022484
2.48850,-12.50000644
2.48900,8.863602104
2.48950,0.3181586879
2.49000,-19.51947781
2.49050,-16.77272814
2.49100,21.07137841
2.49150,68.37651161
2.49200,87.9089537
2.49250,70.51287246
2.49300,38.16226524
2.49350,14.35710144
2.49400,-3.344174205
2.49450,-26.8441436
2.49500,-50.34411299
2.49550,-56.75319555
2.49600,-43.01944721
2.49650,-21.04544985
2.49700,1.233741911
2.49750,21.37657282
2.49800,29.61682183
2.49850,15.88307348
2.49900,-9.448062359
2.49950,-21.96103307
2.50000,-14.02597847
2.50050,-3.038979797
2.50100,-4.870146243
2.50150,-13.11039525
2.50200,-16.16233933
2.50250,-16.77272814
2.50300,-19.51947781
2.50350,-19.82467222
2.50400,-13.41558966
2.50450,-7.92209032
2.50500,-10.05845117
2.50550,-13.72078407
2.50600,-12.50000644
2.50650,-10.66883999
2.50700,-12.50000644
2.50750,-7.311701505
2.50800,10.69476855
2.50850,26.87007216
2.50900,22.59735045
2.50950,8.253213288
2.51000,8.253213288
2.51050,21.07137841
2.51100,19.85060078
2.51150,-2.123396574
2.51200,-18.909089
2.51250,-11.88961762
2.51300,-0.9026189429
2.51350,-12.50000644
2.51400,-37.22075346
2.51450,-44.24022484
2.51500,-27.45453241
2.51550,-11.58442321
2.51600,-14.63636729
2.51650,-25.31817156
2.51700,-22.8766163
2.51750,-2.733785389
2.51800,21.07137841
2.51850,33.27915472
2.51900,27.48046097
2.51950,10.38957414
2.52000,-4.564951835
2.52050,-13.11039525
2.52100,-21.65583867
2.52150,-36.30517024
2.52200,-51.56489062
2.52250,-57.36358437
2.52300,-55.83761233
2.52350,-57.36358437
2.52400,-64.07786134
2.52450,-66.5194166
2.52500,-60.11033404
2.52550,-53.09086266
2.52600,-54.6168347
2.52650,-59.80513963
2.52700,-57.66877878
2.52750,-44.85061365
2.52800,-29.59089327
2.52850,-23.48700511
2.52900,-31.42205971
2.52950,-46.07139128
2.53000,-54.6168347
2.53050,-51.25969621
2.53100,-41.79866957
2.53150,-33.55842057
2.53200,-23.48700511
2.53250,-5.480535058
2.53300,13.13632381
2.53350,18.93501756
2.53400,9.473990919
2.53450,-0.9026189429
2.53500,-1.513007758
2.53550,0.9285475033
2.53600,-4.564951835
2.53650,-17.99350577
2.53700,-27.45453241
2.53750,-23.48700511
2.53800,-7.006507097
2.53850,10.08437973
2.53900,11.61035177
2.53950,-8.837673543
2.54000,-36.30517024
2.54050,-45.46100247
2.54100,-29.89608767
2.54150,-13.11039525
2.54200,-18.29870018
2.54250,-39.96750313
2.54300,-51.25969621
2.54350,-37.83114227
2.54400,-10.66883999
2.54450,12.8311294
2.54500,26.56487775
2.54550,36.3310988
2.54600,50.37004155
2.54650,72.64923331
2.54700,97.98036915
2.54750,115.3764504
2.54800,118.4283945
2.54850,111.7141175
2.54900,104.6946461
2.54950,102.8634797
2.55000,103.1686741
2.55050,99.8115356
2.55100,87.60375929
2.55150,65.01937312
2.55200,35.72070998
2.55250,7.642824473
2.55300,-12.19481203
2.55350,-24.70778274
2.55400,-33.86361497
2.55450,-42.10386398
2.55500,-47.90255773
2.55550,-47.59736332
2.55600,-36.61036464
2.55650,-17.99350577
2.55700,-0.9026189429
2.55750,6.116852434
2.55800,4.285685988
2.55850,-0.9026189429
2.55900,-8.837673543
2.55950,-21.65583867
2.56000,-34.47400379
2.56050,-31.72725412
2.56100,-3.344174205
2.56150,42.12979254
2.56200,82.72064877
2.56250,104.6946461
2.56300,113.8504784
2.56350,117.5128112
2.56400,110.1881455
2.56450,80.58428791
2.56500,36.02590439
2.56550,-1.207813351
2.56600,-19.82467222
2.56650,-29.89608767
2.56700,-43.62983602
2.56750,-56.75319555
2.56800,-64.38305574
2.56850,-70.4869439
2.56900,-72.31811035
2.56950,-49.73372418
2.57000,4.896074803
2.57050,62.88301227
2.57100,89.74012014
2.57150,90.04531455
2.57200,96.45439711
2.57250,116.2920336
2.57300,126.0582547
2.57350,115.071256
2.57400,99.50634119
2.57450,84.85700962
2.57500,54.64276326
2.57550,4.285685988
2.57600,-37.52594787
2.57650,-47.29216891
2.57700,-39.05191991
2.57750,-39.05191991
2.57800,-46.07139128
2.57850,-44.24022484
2.57900,-34.47400379
2.57950,-29.59089327
2.58000,-29.89608767
2.58050,-25.62336597
2.58100,-15.55195051
2.58150,-6.090923874
2.58200,4.590880396
2.58250,26.87007216
2.58300,56.1687353
2.58350,76.92195502
2.58400,84.55181521
2.58450,90.96089778
2.58500,101.9478965
2.58550,108.0517846
2.58600,101.642702
2.58650,90.35050896
2.58700,83.9414264
2.58750,74.17520535
2.58800,47.31809747
2.58850,10.99996296
2.58900,-11.88961762
2.58950,-19.51947781
2.59000,-33.86361497
2.59050,-61.63630608
2.59100,-70.4869439
2.59150,-30.8116709
2.59200,32.6687659
2.59250,62.57781786
2.59300,38.46745965
2.59350,-1.513007758
2.59400,-20.12986663
2.59450,-25.62336597
2.59500,-43.01944721
2.59550,-69.57136068
2.59600,-80.55835935
2.59650,-68.35058304
2.59700,-46.6817801
2.59750,-27.75972682
2.59800,-14.9415617
2.59850,-11.2792288
2.59900,-15.55195051
2.59950,-14.02597847
2.60000,5.506463619
2.60050,34.19473794
2.60100,50.37004155
2.60150,50.37004155
2.60200,51.59081918
2.60250,65.01937312
2.60300,81.19467673
2.60350,86.07778725
2.60400,78.14273265
2.60450,66.85053957
2.60500,61.66223464
2.60550,66.24015075
2.60600,75.09078857
2.60650,78.44792706
2.60700,71.12326127
2.60750,57.69470734
2.60800,43.35057017
2.60850,29.61682183
2.60900,18.62982315
2.60950,14.35710144
2.61000,14.35710144
2.61050,10.69476855
2.61100,0.6233530956
2.61150,-8.532479135
2.61200,-14.9415617
2.61250,-25.31817156
2.61300,-40.88308635
2.61350,-49.12333536
2.61400,-39.05191991
2.61450,-20.12986663
2.61500,-7.92209032
2.61550,-3.038979797
2.61600,6.116852434
2.61650,22.90254486
2.61700,38.16226524
2.61750,44.5713478
2.61800,45.18173662
2.61850,43.65576458
2.61900,40.6038205
2.61950,33.88954354
2.62000,21.07137841
2.62050,3.98049158
2.62100,-7.311701505
2.62150,-4.870146243
2.62200,5.201269211
2.62250,8.558407696
2.62300,2.454519542
2.62350,1.538936319
2.62400,13.74671263
2.62450,26.56487775
2.62500,27.78565538
2.62550,26.56487775
2.62600,36.3310988
2.62650,50.37004155
2.62700,51.89601359
2.62750,39.38304287
2.62800,26.56487775
2.62850,18.32462874
2.62900,9.168796511
2.62950,-1.513007758
2.63000,-7.616895912
2.63050,-10.9740344
2.63100,-21.35064426
2.63150,-38.7467255
2.63200,-49.73372418
2.63250,-49.12333536
2.63300,-48.51294654
2.63350,-55.83761233
2.63400,-63.16227811
2.63450,-60.72072285
2.63500,-54.00644588
2.63550,-51.56489062
2.63600,-50.34411299
2.63650,-42.7142528
2.63700,-32.33764294
2.63750,-28.67531004
2.63800,-35.69478142
2.63850,-46.98697451
2.63900,-58.88955641
2.63950,-69.26616627
2.64000,-73.23369357
2.64050,-69.26616627
2.64100,-66.5194166
2.64150,-75.67524883
2.64200,-92.76613566
2.64250,-100.3959959
2.64300,-87.57783073
2.64350,-65.29863897
2.64400,-53.09086266
2.64450,-60.11033404
2.64500,-72.92849916
2.64550,-68.65577745
2.64600,-39.96750313
2.64650,-2.123396574
2.64700,20.4609896
2.64750,22.29215604
2.64800,15.88307348
2.64850,11.91554618
2.64900,8.863602104
2.64950,6.116852434
2.65000,11.91554618
2.65050,29.31162742
2.65100,46.09731984
2.65150,47.92848629
2.65200,36.3310988
2.65250,21.37657282
2.65300,9.168796511
2.65350,6.72724125
2.65400,19.54540637
2.65450,39.38304287
2.65500,46.70770866
2.65550,38.77265406
2.65600,36.94148761
2.65650,47.01290307
2.65700,43.65576458
2.65750,13.74671263
2.65800,-11.58442321
2.65850,-0.5974245352
2.65900,25.03890571
2.65950,19.54540637
2.66000,-12.50000644
2.66050,-22.57142189
2.66100,7.94801888
2.66150,39.38304287
2.66200,34.49993235
2.66250,2.149325134
2.66300,-31.11686531
2.66350,-58.88955641
2.66400,-86.05185869
2.66450,-108.6362449
2.66500,-117.7920771
2.66550,-111.6881889
2.66600,-89.40899718
2.66650,-54.00644588
2.66700,-19.82467222
2.66750,-4.564951835
2.66800,-7.311701505
2.66850,-14.02597847
2.66900,-20.43506104
2.66950,-32.94803175
2.67000,-44.85061365
2.67050,-35.38958701
2.67100,-0.5974245352
2.67150,37.85707084
2.67200,59.83106819
2.67250,63.18820667
2.67300,51.59081918
2.67350,30.22721064
2.67400,14.05190703
2.67450,19.54540637
2.67500,39.38304287
2.67550,48.84406951
2.67600,37.24668202
2.67650,21.07137841
2.67700,14.05190703
2.67750,10.38957414
2.67800,0.6233530956
2.67850,-9.448062359
2.67900,-15.55195051
2.67950,-23.18181071
2.68000,-38.44153109
2.68050,-54.00644588
2.68100,-60.41552844
2.68150,-60.72072285
2.68200,-64.38305574
2.68250,-72.62330475
2.68300,-78.72719291
2.68350,-79.03238731
2.68400,-73.53888798
2.68450,-61.33111167
2.68500,-42.7142528
2.68550,-19.82467222
2.68600,2.75971395
2.68650,21.07137841
2.68700,29.31162742
2.68750,26.25968334
2.68800,18.01943433
2.68850,12.22074059
2.68900,12.22074059
2.68950,15.88307348
2.69000,20.766184
2.69050,22.90254486
2.69100,20.15579519
2.69150,16.7986567
2.69200,19.24021197
2.69250,25.34410012
2.69300,22.90254486
2.69350,10.38957414
2.69400,1.233741911
2.69450,4.896074803
2.69500,11.30515737
2.69550,9.168796511
2.69600,5.506463619
2.69650,14.96749026
2.69700,36.02590439
2.69750,54.03237444
2.69800,60.74665141
2.69850,57.69470734
2.69900,42.43498695
2.69950,15.88307348
2.70000,-9.753256766
2.70050,-23.79219952
2.70100,-33.86361497
2.70150,-53.70125148
2.70200,-73.53888798
2.70250,-68.96097186
2.70300,-39.05191991
2.70350,-15.2467561
2.70400,-17.99350577
2.70450,-32.64283734
2.70500,-33.25322616
2.70550,-17.38311696
2.70600,0.3181586879
2.70650,15.27268467
2.70700,32.6687659
2.70750,52.5064024
2.70800,62.27262345
2.70850,55.86354089
2.70900,40.6038205
2.70950,26.25968334
2.71000,15.27268467
2.71050,7.337630065
2.71100,2.75971395
2.71150,0.9285475033
2.71200,-2.428590981
2.71250,-11.58442321
2.71300,-22.57142189
2.71350,-29.59089327
2.71400,-32.03244853
2.71450,-32.33764294
2.71500,-25.92856037
2.71550,-9.448062359
2.71600,6.116852434
2.71650,4.590880396
2.71700,-16.77272814
2.71750,-40.57789194
2.71800,-53.70125148
2.71850,-64.07786134
2.71900,-82.69472021
2.71950,-101.3115791
2.72000,-99.78560704
2.72050,-75.37005442
2.72100,-47.90255773
2.72150,-33.25322616
2.72200,-30.20128208
2.72250,-29.59089327
2.72300,-28.37011564
2.72350,-27.14933801
2.72400,-20.74025544
2.72450,-1.207813351
2.72500,27.17526657
2.72550,51.59081918
2.72600,61.35704023
2.72650,59.83106819
2.72700,56.4739297
2.72750,50.67523596
2.72800,33.88954354
2.72850,6.116852434
2.72900,-14.9415617
2.72950,-19.21428341
2.73000,-19.21428341
2.73050,-32.64283734
2.73100,-51.25969621
2.73150,-49.42852977
2.73200,-24.09739393
2.73250,-3.038979797
2.73300,-1.207813351
2.73350,0.6233530956
2.73400,22.29215604
2.73450,49.14926392
2.73500,52.81159681
2.73550,33.27915472
2.73600,16.18826789
2.73650,10.69476855
2.73700,3.370102765
2.73750,-12.80520084
2.73800,-25.31817156
2.73850,-22.8766163
2.73900,-12.19481203
2.73950,-6.701312689
2.74000,-11.2792288
2.74050,-24.40258834
2.74100,-42.10386398
2.74150,-55.22722351
2.74200,-54.92202911
2.74250,-43.62983602
2.74300,-35.99997583
2.74350,-38.7467255
2.74400,-44.54541924
2.74450,-46.6817801
2.74500,-49.42852977
2.74550,-53.09086266
2.74600,-44.24022484
2.74650,-11.2792288
2.74700,34.80512676
2.74750,69.90248364
2.74800,80.88948232
2.74850,74.78559417
2.74900,62.27262345
2.74950,44.2661534
2.75000,15.88307348
2.75050,-17.99350577
2.75100,-44.24022484
2.75150,-52.78566825
2.75200,-47.90255773
2.75250,-44.24022484
2.75300,-50.03891858
2.75350,-60.72072285
2.75400,-64.07786134
2.75450,-54.92202911
2.75500,-36.61036464
2.75550,-18.60389459
2.75600,-8.227284728
2.75650,-4.564951835
2.75700,2.149325134
2.75750,23.81812808
2.75800,59.22067937
2.75850,91.876481
2.75900,107.1362014
2.75950,105.6102293
2.76000,98.28556356
2.76050,90.96089778
2.76100,83.63623199
2.76150,76.0063718
2.76200,70.81806687
2.76250,66.24015075
2.76300,56.1687353
2.76350,37.85707084
2.76400,15.88307348
2.76450,-1.207813351
2.76500,-9.753256766
2.76550,-9.448062359
2.76600,-4.870146243
2.76650,-2.428590981
2.76700,-3.95456302
2.76750,-5.175340651
2.76800,0.3181586879
2.76850,12.8311294
2.76900,25.64929453
2.76950,32.97396031
2.77000,35.11032117
2.77050,32.97396031
2.77100,23.51293367
2.77150,7.032435657
2.77200,-6.396118282
2.77250,-6.090923874
2.77300,6.116852434
2.77350,15.27268467
2.77400,9.473990919
2.77450,-7.311701505
2.77500,-23.48700511
2.77550,-35.08439261
2.77600,-47.59736332
2.77650,-64.68825015
2.77700,-82.08433139
2.77750,-93.07133007
2.77800,-98.87002382
2.77850,-102.8375511
2.77900,-106.499884
2.77950,-108.3310505
2.78000,-107.4154672
2.78050,-102.5323567
2.78100,-92.46094125
2.78150,-79.33758172
2.78200,-68.96097186
2.78250,-63.46747252
2.78300,-57.66877878
2.78350,-45.46100247
2.78400,-30.50647649
2.78450,-22.57142189
2.78500,-25.92856037
2.78550,-33.25322616
2.78600,-33.55842057
2.78650,-22.8766163
2.78700,-3.344174205
2.78750,21.37657282
2.78800,47.31809747
2.78850,68.98690042
2.78900,80.88948232
2.78950,79.05831587
2.79000,63.49340108
2.79050,39.07784847
2.79100,11.91554618
2.79150,-13.41558966
2.79200,-35.38958701
2.79250,-50.6493074
2.79300,-54.00644588
2.79350,-41.79866957
2.79400,-17.07792255
2.79450,13.13632381
2.79500,42.74018136
2.79550,62.88301227
2.79600,66.85053957
2.79650,56.77912411
2.79700,45.48693103
2.79750,42.43498695
2.79800,44.5713478
2.79850,45.18173662
2.79900,44.2661534
2.79950,44.5713478
2.80000,38.46745965
2.80050,18.01943433
2.80100,-12.80520084
2.80150,-46.98697451
2.80200,-86.3570531
2.80250,-133.0517975
2.80300,-165.0972103
2.80350,-151.3634619
2.80400,-95.20769092
2.80450,-40.27269754
2.80500,-19.21428341
2.80550,-16.16233933
2.80600,-0.2922301275
2.80650,28.09084979
2.80700,42.74018136
2.80750,35.11032117
2.80800,22.29215604
2.80850,16.4934623
2.80900,10.69476855
2.80950,-3.344174205
2.81000,-17.38311696
2.81050,-14.02597847
2.81100,15.88307348
2.81150,68.68170601
2.81200,126.0582547
2.81250,164.8179444
2.81300,170.0062494
2.81350,145.8958912
2.81400,108.356979
2.81450,69.90248364
2.81500,38.77265406
2.81550,25.95448893
2.81600,36.94148761
2.81650,56.1687353
2.81700,59.22067937
2.81750,42.12979254
2.81800,25.64929453
2.81850,24.4285169
2.81900,24.7337113
2.81950,8.253213288
2.82000,-21.35064426
2.82050,-44.54541924
2.82100,-53.39605707
2.82150,-55.83761233
2.82200,-57.97397318
2.82250,-57.66877878
2.82300,-54.31164029
2.82350,-50.03891858
2.82400,-44.54541924
2.82450,-34.7791982
2.82500,-24.70778274
2.82550,-17.99350577
2.82600,-7.311701505
2.82650,17.71423993
2.82700,53.42198563
2.82750,82.11025995
2.82800,93.09725863
2.82850,94.62323067
2.82900,94.92842508
2.82950,94.31803626
2.83000,89.12973133
2.83050,79.9738991
2.83100,68.68170601
2.83150,54.03237444
2.83200,37.85707084
2.83250,26.56487775
2.83300,18.93501756
2.83350,6.116852434
2.83400,-14.33117288
2.83450,-33.55842057
2.83500,-41.49347517
2.83550,-41.49347517
2.83600,-44.54541924
2.83650,-56.75319555
2.83700,-75.98044324
2.83750,-95.81807974
2.83800,-106.1946896
2.83850,-99.78560704
2.83900,-79.03238731
2.83950,-55.83761233
2.84000,-40.88308635
2.84050,-33.55842057
2.84100,-27.75972682
2.84150,-20.43506104
2.84200,-9.448062359
2.84250,6.72724125
2.84300,26.87007216
2.84350,43.35057017
2.84400,52.201208
2.84450,54.03237444
2.84500,52.5064024
2.84550,47.31809747
2.84600,37.55187643
2.84650,25.03890571
2.84700,14.66229585
2.84750,9.779185327
2.84800,11.61035177
2.84850,17.10385111
2.84900,24.4285169
2.84950,34.19473794
2.85000,47.62329188
2.85050,61.35704023
2.85100,68.37651161
2.85150,66.85053957
2.85200,67.15573397
2.85250,77.22714943
2.85300,87.9089537
2.85350,83.33103758
2.85400,60.1362626
2.85450,32.97396031
2.85500,14.35710144
2.85550,4.285685988
2.85600,-1.513007758
2.85650,-2.428590981
2.85700,-2.428590981
2.85750,-11.2792288
2.85800,-31.42205971
2.85850,-49.12333536
2.85900,-53.39605707
2.85950,-51.87008503
2.86000,-57.97397318
2.86050,-65.60383338
2.86100,-56.14280674
2.86150,-26.53894919
2.86200,3.98049158
2.86250,18.32462874
2.86300,19.24021197
2.86350,18.93501756
2.86400,21.68176723
2.86450,25.95448893
2.86500,29.92201623
2.86550,31.44798827
2.86600,28.7012386
2.86650,27.17526657
2.86700,36.6362932
2.86750,57.99990174
2.86800,81.19467673
2.86850,94.01284185
2.86900,94.62323067
2.86950,86.07778725
2.87000,70.20767805
2.87050,49.75965274
2.87100,30.53240505
2.87150,12.8311294
2.87200,-6.701312689
2.87250,-25.62336597
2.87300,-32.33764294
2.87350,-19.51947781
2.87400,7.337630065
2.87450,40.90901491
2.87500,76.0063718
2.87550,107.4413958
2.87600,124.5322826
2.87650,118.4283945
2.87700,91.876481
2.87750,55.86354089
2.87800,19.85060078
2.87850,-9.448062359
2.87900,-32.03244853
2.87950,-52.78566825
2.88000,-74.4544712
2.88050,-92.46094125
2.88100,-98.56482941
2.88150,-95.20769092
2.88200,-96.73366296
2.88250,-114.1297442
2.88300,-137.934908
2.88350,-145.2595738
2.88400,-121.1492156
2.88450,-73.53888798
2.88500,-25.92856037
2.88550,3.98049158
2.88600,19.24021197
2.88650,28.7012386
2.88700,31.44798827
2.88750,20.4609896
2.88800,5.201269211
2.88850,5.201269211
2.88900,23.20773927
2.88950,39.07784847
2.89000,39.07784847
2.89050,32.05837709
2.89100,27.48046097
2.89150,17.40904552
2.89200,-3.95456302
2.89250,-23.18181071
2.89300,-27.14933801
2.89350,-25.92856037
2.89400,-36.91555905
2.89450,-52.78566825
2.89500,-53.39605707
2.89550,-39.66230872
2.89600,-27.14933801
2.89650,-18.60389459
2.89700,-3.649368612
2.89750,16.18826789
2.89800,29.92201623
2.89850,34.49993235
2.89900,39.38304287
2.89950,43.96095899
2.90000,36.6362932
2.90050,16.4934623
2.90100,-3.649368612
2.90150,-15.85714492
2.90200,-22.8766163
2.90250,-25.01297715
2.90300,-14.63636729
2.90350,7.94801888
2.90400,29.00643301
2.90450,35.72070998
2.90500,28.09084979
2.90550,20.766184
2.90600,27.78565538
2.90650,50.06484714
2.90700,72.34403891
2.90750,76.0063718
2.90800,59.22067937
2.90850,34.49993235
2.90900,6.72724125
2.90950,-30.8116709
2.91000,-74.4544712
2.91050,-99.78560704
2.91100,-92.15574685
2.91150,-68.35058304
2.91200,-53.39605707
2.91250,-50.6493074
2.91300,-48.51294654
2.91350,-44.24022484
2.91400,-44.24022484
2.91450,-44.54541924
2.91500,-36.91555905
2.91550,-22.57142189
2.91600,-10.66883999
2.91650,-5.785729466
2.91700,-5.785729466
2.91750,-5.175340651
2.91800,4.896074803
2.91850,34.49993235
2.91900,76.92195502
2.91950,104.9998405
2.92000,97.36998034
2.92050,61.05184582
2.92100,19.54540637
2.92150,-9.448062359
2.92200,-17.68831137
2.92250,-1.207813351
2.92300,32.6687659
2.92350,63.79859549
2.92400,73.25962213
2.92450,58.30509615
2.92500,28.09084979
2.92550,-5.175340651
2.92600,-33.25322616
2.92650,-52.17527944
2.92700,-70.79213831
2.92750,-94.90249651
2.92800,-112.9089666
2.92850,-110.4674113
2.92900,-97.64924618
2.92950,-101.3115791
2.93000,-121.45441
2.93050,-127.5582981
2.93100,-100.0908014
2.93150,-57.66877878
2.93200,-27.14933801
2.93250,-12.50000644
2.93300,-4.870146243
2.93350,-0.9026189429
2.93400,0.3181586879
2.93450,6.116852434
2.93500,17.10385111
2.93550,21.68176723
2.93600,14.05190703
2.93650,4.285685988
