type,name,time_units,begin_time,frequency,count,units
signal,"Noraxon Ultium-RT BICEPS BR.","s",0.00000,2000,50880,"uV"

time,value
0.00000,-1.163734798
0.00050,-1.163734798
0.00100,-0.5533459826
0.00150,0.05704283282
0.00200,0.3622372405
0.00250,0.6674316482
0.00300,0.3622372405
0.00350,0.05704283282
0.00400,0.3622372405
0.00450,0.6674316482
0.00500,0.6674316482
0.00550,0.3622372405
0.00600,0.05704283282
0.00650,0.6674316482
0.00700,1.583014871
0.00750,1.277820464
0.00800,0.6674316482
0.00850,0.9726260559
0.00900,2.193403687
0.00950,3.10898691
0.01000,2.803792502
0.01050,1.888209279
0.01100,1.277820464
0.01150,1.583014871
0.01200,2.193403687
0.01250,2.803792502
0.01300,2.803792502
0.01350,2.498598094
0.01400,1.583014871
0.01450,0.3622372405
0.01500,0.05704283282
0.01550,0.05704283282
0.01600,0.05704283282
0.01650,-0.5533459826
0.01700,-1.774123613
0.01750,-1.468929206
0.01800,-0.5533459826
0.01850,-0.2481515749
0.01900,-0.5533459826
0.01950,-0.2481515749
0.02000,0.3622372405
0.02050,0.9726260559
0.02100,0.9726260559
0.02150,1.277820464
0.02200,1.888209279
0.02250,1.888209279
0.02300,1.277820464
0.02350,1.583014871
0.02400,2.193403687
0.02450,1.888209279
0.02500,0.9726260559
0.02550,0.6674316482
0.02600,2.193403687
0.02650,3.10898691
0.02700,3.10898691
0.02750,2.193403687
0.02800,1.277820464
0.02850,0.6674316482
0.02900,-0.2481515749
0.02950,-0.2481515749
0.03000,0.3622372405
0.03050,1.277820464
0.03100,0.9726260559
0.03150,0.05704283282
0.03200,0.05704283282
0.03250,0.05704283282
0.03300,0.05704283282
0.03350,0.6674316482
0.03400,1.583014871
0.03450,1.888209279
0.03500,1.277820464
0.03550,0.9726260559
0.03600,1.277820464
0.03650,1.888209279
0.03700,1.888209279
0.03750,2.193403687
0.03800,2.803792502
0.03850,2.498598094
0.03900,0.9726260559
0.03950,0.05704283282
0.04000,0.05704283282
0.04050,1.277820464
0.04100,1.888209279
0.04150,1.888209279
0.04200,1.583014871
0.04250,1.277820464
0.04300,1.277820464
0.04350,1.888209279
0.04400,2.498598094
0.04450,2.498598094
0.04500,1.583014871
0.04550,0.9726260559
0.04600,1.583014871
0.04650,2.803792502
0.04700,2.803792502
0.04750,2.803792502
0.04800,2.498598094
0.04850,2.193403687
0.04900,1.583014871
0.04950,1.583014871
0.05000,2.498598094
0.05050,2.803792502
0.05100,2.193403687
0.05150,1.888209279
0.05200,3.10898691
0.05250,4.024570133
0.05300,3.10898691
0.05350,0.9726260559
0.05400,0.05704283282
0.05450,0.9726260559
0.05500,2.498598094
0.05550,2.803792502
0.05600,1.888209279
0.05650,0.9726260559
0.05700,0.9726260559
0.05750,0.9726260559
0.05800,0.9726260559
0.05850,1.277820464
0.05900,1.277820464
0.05950,0.6674316482
0.06000,0.05704283282
0.06050,0.05704283282
0.06100,1.277820464
0.06150,2.498598094
0.06200,2.803792502
0.06250,2.193403687
0.06300,0.9726260559
0.06350,-0.2481515749
0.06400,-1.163734798
0.06450,-0.5533459826
0.06500,0.9726260559
0.06550,1.888209279
0.06600,0.05704283282
0.06650,-1.468929206
0.06700,-0.8585403903
0.06750,0.6674316482
0.06800,0.6674316482
0.06850,-0.8585403903
0.06900,-2.079318021
0.06950,-0.5533459826
0.07000,0.9726260559
0.07050,0.3622372405
0.07100,-0.8585403903
0.07150,-0.8585403903
0.07200,-0.2481515749
0.07250,0.05704283282
0.07300,-1.163734798
0.07350,-1.163734798
0.07400,0.05704283282
0.07450,1.277820464
0.07500,2.193403687
0.07550,1.583014871
0.07600,0.05704283282
0.07650,-1.163734798
0.07700,-1.163734798
0.07750,-0.5533459826
0.07800,0.05704283282
0.07850,0.3622372405
0.07900,0.9726260559
0.07950,0.9726260559
0.08000,0.05704283282
0.08050,-0.5533459826
0.08100,0.05704283282
0.08150,0.9726260559
0.08200,0.6674316482
0.08250,-0.5533459826
0.08300,-0.2481515749
0.08350,0.9726260559
0.08400,1.277820464
0.08450,0.3622372405
0.08500,0.3622372405
0.08550,2.193403687
0.08600,3.414181318
0.08650,2.193403687
0.08700,0.05704283282
0.08750,-0.2481515749
0.08800,0.05704283282
0.08850,0.05704283282
0.08900,0.05704283282
0.08950,0.05704283282
0.09000,0.3622372405
0.09050,0.05704283282
0.09100,0.05704283282
0.09150,0.9726260559
0.09200,1.888209279
0.09250,1.583014871
0.09300,0.9726260559
0.09350,0.6674316482
0.09400,0.6674316482
0.09450,0.05704283282
0.09500,-0.2481515749
0.09550,0.05704283282
0.09600,0.6674316482
0.09650,0.6674316482
0.09700,0.05704283282
0.09750,-0.2481515749
0.09800,0.05704283282
0.09850,-0.2481515749
0.09900,-0.5533459826
0.09950,-0.5533459826
0.10000,-0.2481515749
0.10050,0.05704283282
0.10100,0.3622372405
0.10150,0.05704283282
0.10200,-0.2481515749
0.10250,-0.2481515749
0.10300,0.05704283282
0.10350,0.9726260559
0.10400,1.277820464
0.10450,0.05704283282
0.10500,-0.8585403903
0.10550,-1.163734798
0.10600,-0.8585403903
0.10650,-0.5533459826
0.10700,-0.2481515749
0.10750,-0.2481515749
0.10800,-0.5533459826
0.10850,-1.468929206
0.10900,-2.079318021
0.10950,-1.774123613
0.11000,-0.8585403903
0.11050,-0.5533459826
0.11100,-0.8585403903
0.11150,-1.163734798
0.11200,-1.163734798
0.11250,-0.5533459826
0.11300,0.05704283282
0.11350,0.3622372405
0.11400,-0.2481515749
0.11450,-1.468929206
0.11500,-1.774123613
0.11550,-0.8585403903
0.11600,-0.2481515749
0.11650,-0.5533459826
0.11700,-1.163734798
0.11750,-0.8585403903
0.11800,0.3622372405
0.11850,0.6674316482
0.11900,0.05704283282
0.11950,-0.5533459826
0.12000,-0.8585403903
0.12050,-1.163734798
0.12100,-1.468929206
0.12150,-0.2481515749
0.12200,0.6674316482
0.12250,0.05704283282
0.12300,-1.468929206
0.12350,-2.384512429
0.12400,-1.468929206
0.12450,-0.8585403903
0.12500,-1.468929206
0.12550,-1.468929206
0.12600,-0.2481515749
0.12650,0.05704283282
0.12700,-0.8585403903
0.12750,-2.384512429
0.12800,-2.689706836
0.12850,-1.774123613
0.12900,-1.468929206
0.12950,-1.774123613
0.13000,-1.468929206
0.13050,-1.774123613
0.13100,-2.689706836
0.13150,-2.384512429
0.13200,-1.163734798
0.13250,-0.2481515749
0.13300,-1.468929206
0.13350,-2.689706836
0.13400,-1.774123613
0.13450,-0.2481515749
0.13500,-0.5533459826
0.13550,-1.774123613
0.13600,-2.079318021
0.13650,-1.468929206
0.13700,-1.163734798
0.13750,-2.079318021
0.13800,-2.384512429
0.13850,-1.774123613
0.13900,-1.163734798
0.13950,-1.163734798
0.14000,-0.8585403903
0.14050,-0.2481515749
0.14100,-0.2481515749
0.14150,-0.2481515749
0.14200,0.05704283282
0.14250,0.6674316482
0.14300,0.6674316482
0.14350,-0.2481515749
0.14400,-0.5533459826
0.14450,-0.5533459826
0.14500,-1.163734798
0.14550,-2.079318021
0.14600,-2.689706836
0.14650,-2.689706836
0.14700,-2.689706836
0.14750,-2.384512429
0.14800,-1.774123613
0.14850,-1.468929206
0.14900,-2.384512429
0.14950,-3.300095652
0.15000,-3.300095652
0.15050,-3.300095652
0.15100,-3.910484467
0.15150,-4.520873283
0.15200,-4.82606769
0.15250,-4.215678875
0.15300,-3.60529006
0.15350,-3.60529006
0.15400,-3.60529006
0.15450,-3.60529006
0.15500,-3.910484467
0.15550,-3.910484467
0.15600,-3.60529006
0.15650,-3.300095652
0.15700,-2.994901244
0.15750,-3.300095652
0.15800,-3.910484467
0.15850,-3.910484467
0.15900,-2.689706836
0.15950,-0.2481515749
0.16000,0.6674316482
0.16050,-0.2481515749
0.16100,-2.689706836
0.16150,-2.689706836
0.16200,-0.5533459826
0.16250,0.3622372405
0.16300,-0.2481515749
0.16350,-1.163734798
0.16400,-0.5533459826
0.16450,0.3622372405
0.16500,0.3622372405
0.16550,0.3622372405
0.16600,1.888209279
0.16650,2.803792502
0.16700,1.888209279
0.16750,0.9726260559
0.16800,1.277820464
0.16850,2.498598094
0.16900,2.803792502
0.16950,1.583014871
0.17000,1.277820464
0.17050,1.583014871
0.17100,1.583014871
0.17150,1.277820464
0.17200,1.277820464
0.17250,2.193403687
0.17300,2.498598094
0.17350,0.9726260559
0.17400,-0.2481515749
0.17450,-0.5533459826
0.17500,0.05704283282
0.17550,1.277820464
0.17600,1.583014871
0.17650,0.9726260559
0.17700,0.3622372405
0.17750,0.05704283282
0.17800,0.3622372405
0.17850,0.9726260559
0.17900,1.277820464
0.17950,1.277820464
0.18000,0.6674316482
0.18050,0.05704283282
0.18100,-0.2481515749
0.18150,0.05704283282
0.18200,0.3622372405
0.18250,0.05704283282
0.18300,-0.8585403903
0.18350,-1.163734798
0.18400,0.05704283282
0.18450,0.6674316482
0.18500,0.6674316482
0.18550,0.05704283282
0.18600,0.6674316482
0.18650,1.583014871
0.18700,1.277820464
0.18750,0.6674316482
0.18800,0.9726260559
0.18850,2.193403687
0.18900,2.193403687
0.18950,0.9726260559
0.19000,0.05704283282
0.19050,0.9726260559
0.19100,2.193403687
0.19150,2.193403687
0.19200,0.9726260559
0.19250,0.9726260559
0.19300,2.193403687
0.19350,2.498598094
0.19400,1.888209279
0.19450,1.583014871
0.19500,1.888209279
0.19550,2.498598094
0.19600,1.583014871
0.19650,0.05704283282
0.19700,-0.2481515749
0.19750,0.3622372405
0.19800,1.888209279
0.19850,3.10898691
0.19900,2.803792502
0.19950,2.498598094
0.20000,2.803792502
0.20050,3.414181318
0.20100,4.329764541
0.20150,4.634958948
0.20200,4.634958948
0.20250,5.245347764
0.20300,5.550542171
0.20350,4.329764541
0.20400,3.10898691
0.20450,2.498598094
0.20500,3.719375725
0.20550,4.634958948
0.20600,4.329764541
0.20650,3.414181318
0.20700,2.803792502
0.20750,3.10898691
0.20800,2.803792502
0.20850,1.277820464
0.20900,0.3622372405
0.20950,1.277820464
0.21000,3.10898691
0.21050,4.024570133
0.21100,4.329764541
0.21150,4.329764541
0.21200,4.329764541
0.21250,4.024570133
0.21300,4.024570133
0.21350,4.940153356
0.21400,4.940153356
0.21450,3.414181318
0.21500,1.888209279
0.21550,1.888209279
0.21600,2.803792502
0.21650,1.888209279
0.21700,0.05704283282
0.21750,0.6674316482
0.21800,4.940153356
0.21850,8.602486248
0.21900,8.907680656
0.21950,6.771319802
0.22000,5.550542171
0.22050,4.940153356
0.22100,3.719375725
0.22150,2.193403687
0.22200,0.3622372405
0.22250,-1.468929206
0.22300,-3.60529006
0.22350,-4.520873283
0.22400,-4.82606769
0.22450,-6.657234137
0.22500,-8.793594991
0.22550,-7.878011767
0.22600,-2.689706836
0.22650,3.10898691
0.22700,5.245347764
0.22750,3.414181318
0.22800,0.3622372405
0.22850,-0.8585403903
0.22900,-2.079318021
0.22950,-4.215678875
0.23000,-5.741650914
0.23050,-6.046845321
0.23100,-5.741650914
0.23150,-6.046845321
0.23200,-6.657234137
0.23250,-7.267622952
0.23300,-7.267622952
0.23350,-7.267622952
0.23400,-6.962428544
0.23450,-5.131262098
0.23500,-2.384512429
0.23550,0.05704283282
0.23600,0.6674316482
0.23650,0.05704283282
0.23700,-1.163734798
0.23750,-2.079318021
0.23800,-2.079318021
0.23850,-1.163734798
0.23900,-0.5533459826
0.23950,-1.163734798
0.24000,-2.994901244
0.24050,-5.741650914
0.24100,-7.878011767
0.24150,-9.709178214
0.24200,-11.23515025
0.24250,-11.84553907
0.24300,-11.23515025
0.24350,-10.31956703
0.24400,-9.403983806
0.24450,-8.793594991
0.24500,-8.183206175
0.24550,-7.267622952
0.24600,-5.436456506
0.24650,-2.994901244
0.24700,-0.8585403903
0.24750,0.3622372405
0.24800,0.9726260559
0.24850,0.6674316482
0.24900,1.277820464
0.24950,2.193403687
0.25000,2.803792502
0.25050,2.193403687
0.25100,0.6674316482
0.25150,-0.2481515749
0.25200,-1.163734798
0.25250,-1.774123613
0.25300,-2.384512429
0.25350,-2.079318021
0.25400,-1.163734798
0.25450,0.05704283282
0.25500,0.3622372405
0.25550,0.05704283282
0.25600,0.05704283282
0.25650,0.6674316482
0.25700,1.888209279
0.25750,2.193403687
0.25800,1.888209279
0.25850,1.583014871
0.25900,2.498598094
0.25950,3.414181318
0.26000,2.803792502
0.26050,0.9726260559
0.26100,0.05704283282
0.26150,0.9726260559
0.26200,2.193403687
0.26250,2.498598094
0.26300,2.193403687
0.26350,2.193403687
0.26400,1.888209279
0.26450,0.9726260559
0.26500,0.3622372405
0.26550,1.277820464
0.26600,2.498598094
0.26650,2.803792502
0.26700,1.583014871
0.26750,0.3622372405
0.26800,0.6674316482
0.26850,1.277820464
0.26900,1.583014871
0.26950,1.888209279
0.27000,2.803792502
0.27050,3.414181318
0.27100,3.414181318
0.27150,2.193403687
0.27200,1.888209279
0.27250,2.498598094
0.27300,3.414181318
0.27350,2.803792502
0.27400,1.888209279
0.27450,1.583014871
0.27500,2.193403687
0.27550,2.803792502
0.27600,2.193403687
0.27650,1.583014871
0.27700,1.277820464
0.27750,1.888209279
0.27800,1.888209279
0.27850,1.888209279
0.27900,2.803792502
0.27950,4.634958948
0.28000,6.160930987
0.28050,5.550542171
0.28100,4.024570133
0.28150,3.10898691
0.28200,3.414181318
0.28250,4.024570133
0.28300,4.024570133
0.28350,3.414181318
0.28400,2.803792502
0.28450,2.803792502
0.28500,2.498598094
0.28550,1.583014871
0.28600,0.9726260559
0.28650,0.9726260559
0.28700,0.6674316482
0.28750,0.05704283282
0.28800,-0.5533459826
0.28850,-0.8585403903
0.28900,-0.5533459826
0.28950,-0.2481515749
0.29000,0.05704283282
0.29050,0.6674316482
0.29100,0.9726260559
0.29150,0.9726260559
0.29200,0.9726260559
0.29250,1.583014871
0.29300,2.803792502
0.29350,4.024570133
0.29400,4.634958948
0.29450,4.634958948
0.29500,4.024570133
0.29550,4.024570133
0.29600,4.634958948
0.29650,4.940153356
0.29700,3.719375725
0.29750,1.583014871
0.29800,1.277820464
0.29850,2.498598094
0.29900,2.803792502
0.29950,1.277820464
0.30000,0.9726260559
0.30050,2.193403687
0.30100,2.498598094
0.30150,0.3622372405
0.30200,-0.8585403903
0.30250,1.277820464
0.30300,4.940153356
0.30350,7.07651421
0.30400,7.381708618
0.30450,9.518069472
0.30500,13.48559677
0.30550,17.45312407
0.30600,19.89467933
0.30650,22.03104019
0.30700,23.86220663
0.30750,25.08298426
0.30800,25.38817867
0.30850,24.77778986
0.30900,23.55701223
0.30950,20.81026256
0.31000,18.97909611
0.31050,19.58948493
0.31100,22.3362346
0.31150,26.3037619
0.31200,31.79726123
0.31250,39.12192702
0.31300,46.1413984
0.31350,48.88814807
0.31400,46.1413984
0.31450,40.03751024
0.31500,33.01803886
0.31550,25.38817867
0.31600,15.92715203
0.31650,4.024570133
0.31700,-7.57281736
0.31750,-15.81306637
0.31800,-20.08578808
0.31850,-23.44292656
0.31900,-29.54681471
0.31950,-39.31303576
0.32000,-50.30003444
0.32050,-60.37144989
0.32100,-70.13767094
0.32150,-78.37791995
0.32200,-82.34544725
0.32250,-81.12466962
0.32300,-77.76753113
0.32350,-75.02078146
0.32400,-73.18961502
0.32450,-69.22208772
0.32500,-60.6766443
0.32550,-48.16367358
0.32600,-34.12473083
0.32650,-21.30656571
0.32700,-10.62476144
0.32750,-0.8585403903
0.32800,7.381708618
0.32850,14.09598559
0.32900,17.45312407
0.32950,18.6739017
0.33000,18.36870729
0.33050,16.53754085
0.33100,13.18040236
0.33150,10.12845829
0.33200,8.297291841
0.33250,6.160930987
0.33300,2.193403687
0.33350,-1.774123613
0.33400,-5.436456506
0.33450,-9.098789398
0.33500,-14.59228874
0.33550,-21.30656571
0.33600,-27.41045386
0.33650,-31.68317557
0.33700,-33.81953642
0.33750,-34.12473083
0.33800,-31.98836998
0.33850,-28.02084268
0.33900,-24.35850978
0.33950,-21.30656571
0.34000,-18.86501044
0.34050,-17.033844
0.34100,-16.11826078
0.34150,-15.50787196
0.34200,-13.67670551
0.34250,-10.62476144
0.34300,-7.57281736
0.34350,-5.131262098
0.34400,-3.910484467
0.34450,-2.994901244
0.34500,-2.689706836
0.34550,-1.468929206
0.34600,0.3622372405
0.34650,2.193403687
0.34700,2.803792502
0.34750,3.414181318
0.34800,5.245347764
0.34850,7.381708618
0.34900,7.992097433
0.34950,8.297291841
0.35000,8.907680656
0.35050,10.43365269
0.35100,10.43365269
0.35150,9.212875064
0.35200,8.297291841
0.35250,8.602486248
0.35300,9.823263879
0.35350,10.12845829
0.35400,9.823263879
0.35450,9.212875064
0.35500,9.212875064
0.35550,8.907680656
0.35600,8.907680656
0.35650,8.297291841
0.35700,7.686903025
0.35750,8.297291841
0.35800,9.518069472
0.35850,10.12845829
0.35900,9.518069472
0.35950,8.907680656
0.36000,8.907680656
0.36050,9.212875064
0.36100,8.907680656
0.36150,8.602486248
0.36200,9.212875064
0.36250,9.212875064
0.36300,8.297291841
0.36350,7.686903025
0.36400,8.602486248
0.36450,10.12845829
0.36500,10.43365269
0.36550,9.212875064
0.36600,8.907680656
0.36650,10.12845829
0.36700,10.43365269
0.36750,9.823263879
0.36800,9.212875064
0.36850,10.12845829
0.36900,10.7388471
0.36950,9.823263879
0.37000,7.992097433
0.37050,6.771319802
0.37100,6.466125395
0.37150,6.466125395
0.37200,6.160930987
0.37250,6.466125395
0.37300,7.381708618
0.37350,7.686903025
0.37400,6.771319802
0.37450,5.550542171
0.37500,5.245347764
0.37550,4.940153356
0.37600,4.634958948
0.37650,4.329764541
0.37700,4.940153356
0.37750,5.855736579
0.37800,5.855736579
0.37850,4.940153356
0.37900,4.329764541
0.37950,4.024570133
0.38000,4.329764541
0.38050,4.329764541
0.38100,4.329764541
0.38150,4.940153356
0.38200,4.634958948
0.38250,4.024570133
0.38300,4.329764541
0.38350,6.160930987
0.38400,8.602486248
0.38450,10.7388471
0.38500,11.65443033
0.38550,12.87520796
0.38600,15.92715203
0.38650,21.42065137
0.38700,29.05051156
0.38750,35.45959413
0.38800,38.5115382
0.38850,40.64789906
0.38900,44.92062076
0.38950,52.55048096
0.39000,59.56995233
0.39050,61.40111878
0.39100,58.65436911
0.39150,54.3816474
0.39200,51.63489773
0.39250,49.49853688
0.39300,46.75178721
0.39350,41.56348228
0.39400,34.2388165
0.39450,25.38817867
0.39500,15.62195763
0.39550,5.855736579
0.39600,-3.910484467
0.39650,-11.84553907
0.39700,-17.033844
0.39750,-19.78059367
0.39800,-23.13773215
0.39850,-28.02084268
0.39900,-34.42992524
0.39950,-39.61823017
0.40000,-43.58575747
0.40050,-47.24809036
0.40100,-49.99484003
0.40150,-47.85847918
0.40200,-40.22861898
0.40250,-30.15720353
0.40300,-22.83253774
0.40350,-17.94942722
0.40400,-13.0663167
0.40450,-7.267622952
0.40500,-4.82606769
0.40550,-6.657234137
0.40600,-9.709178214
0.40650,-10.01437262
0.40700,-8.488400583
0.40750,-9.403983806
0.40800,-12.15073348
0.40850,-13.0663167
0.40900,-11.23515025
0.40950,-9.709178214
0.41000,-10.31956703
0.41050,-10.92995584
0.41100,-9.709178214
0.41150,-6.352039729
0.41200,-3.60529006
0.41250,-2.384512429
0.41300,-2.384512429
0.41350,-3.910484467
0.41400,-6.352039729
0.41450,-8.793594991
0.41500,-10.62476144
0.41550,-13.37151111
0.41600,-18.55981604
0.41650,-25.57928741
0.41700,-32.9039532
0.41750,-38.70264695
0.41800,-42.67017425
0.41850,-45.11172951
0.41900,-46.94289595
0.41950,-49.38445121
0.42000,-52.43639529
0.42050,-54.57275615
0.42100,-54.26756174
0.42150,-53.35197851
0.42200,-53.96236733
0.42250,-56.09872818
0.42300,-56.40392259
0.42350,-53.65717292
0.42400,-49.68964562
0.42450,-46.02731273
0.42500,-40.53381339
0.42550,-32.9039532
0.42600,-25.57928741
0.42650,-21.0013713
0.42700,-17.64423281
0.42750,-11.84553907
0.42800,-5.436456506
0.42850,-1.468929206
0.42900,0.05704283282
0.42950,1.277820464
0.43000,4.024570133
0.43050,5.855736579
0.43100,6.771319802
0.43150,8.297291841
0.43200,10.43365269
0.43250,11.34923592
0.43300,10.43365269
0.43350,10.43365269
0.43400,11.95962473
0.43450,12.57001355
0.43500,12.26481914
0.43550,12.26481914
0.43600,13.48559677
0.43650,13.79079118
0.43700,13.48559677
0.43750,13.18040236
0.43800,14.09598559
0.43850,13.79079118
0.43900,12.26481914
0.43950,11.34923592
0.44000,12.87520796
0.44050,15.01156881
0.44100,15.62195763
0.44150,15.62195763
0.44200,15.62195763
0.44250,15.92715203
0.44300,15.62195763
0.44350,16.23234644
0.44400,18.36870729
0.44450,19.89467933
0.44500,18.97909611
0.44550,17.45312407
0.44600,17.14792966
0.44650,17.45312407
0.44700,17.14792966
0.44750,15.92715203
0.44800,15.62195763
0.44850,16.23234644
0.44900,17.14792966
0.44950,16.53754085
0.45000,15.62195763
0.45050,15.01156881
0.45100,15.01156881
0.45150,15.01156881
0.45200,15.31676322
0.45250,15.31676322
0.45300,15.31676322
0.45350,15.31676322
0.45400,16.23234644
0.45450,17.45312407
0.45500,17.14792966
0.45550,15.92715203
0.45600,15.01156881
0.45650,15.31676322
0.45700,15.01156881
0.45750,13.79079118
0.45800,12.57001355
0.45850,12.87520796
0.45900,13.79079118
0.45950,13.79079118
0.46000,12.87520796
0.46050,12.26481914
0.46100,11.95962473
0.46150,11.04404151
0.46200,10.12845829
0.46250,9.823263879
0.46300,10.12845829
0.46350,10.12845829
0.46400,9.518069472
0.46450,9.212875064
0.46500,10.12845829
0.46550,10.7388471
0.46600,10.12845829
0.46650,9.212875064
0.46700,10.12845829
0.46750,11.34923592
0.46800,11.34923592
0.46850,9.823263879
0.46900,8.602486248
0.46950,8.602486248
0.47000,8.297291841
0.47050,7.07651421
0.47100,6.466125395
0.47150,6.771319802
0.47200,7.686903025
0.47250,7.686903025
0.47300,7.381708618
0.47350,7.07651421
0.47400,7.07651421
0.47450,6.771319802
0.47500,6.771319802
0.47550,6.160930987
0.47600,4.940153356
0.47650,4.024570133
0.47700,4.024570133
0.47750,4.634958948
0.47800,4.634958948
0.47850,3.719375725
0.47900,3.719375725
0.47950,4.329764541
0.48000,5.245347764
0.48050,5.245347764
0.48100,4.024570133
0.48150,3.10898691
0.48200,2.193403687
0.48250,2.498598094
0.48300,3.10898691
0.48350,2.803792502
0.48400,1.583014871
0.48450,0.6674316482
0.48500,1.277820464
0.48550,2.193403687
0.48600,1.888209279
0.48650,0.6674316482
0.48700,0.9726260559
0.48750,3.719375725
0.48800,6.771319802
0.48850,8.297291841
0.48900,8.297291841
0.48950,7.992097433
0.49000,7.686903025
0.49050,7.686903025
0.49100,7.686903025
0.49150,7.381708618
0.49200,5.855736579
0.49250,4.024570133
0.49300,5.550542171
0.49350,11.95962473
0.49400,19.89467933
0.49450,23.55701223
0.49500,21.42065137
0.49550,17.75831848
0.49600,16.53754085
0.49650,17.14792966
0.49700,16.23234644
0.49750,13.48559677
0.49800,11.34923592
0.49850,11.65443033
0.49900,11.04404151
0.49950,6.771319802
0.50000,0.6674316482
0.50050,-2.689706836
0.50100,-0.2481515749
0.50150,7.07651421
0.50200,18.36870729
0.50250,30.2712892
0.50300,38.81673261
0.50350,41.56348228
0.50400,37.59595498
0.50450,28.74531716
0.50500,16.84273526
0.50550,4.329764541
0.50600,-6.352039729
0.50650,-15.20267755
0.50700,-21.61176011
0.50750,-26.18967623
0.50800,-27.41045386
0.50850,-26.18967623
0.50900,-25.27409301
0.50950,-26.18967623
0.51000,-28.32603708
0.51050,-29.54681471
0.51100,-31.07278675
0.51150,-33.81953642
0.51200,-36.26109168
0.51250,-36.56628609
0.51300,-34.73511965
0.51350,-31.37798116
0.51400,-28.02084268
0.51450,-26.18967623
0.51500,-28.32603708
0.51550,-32.29356438
0.51600,-35.04031405
0.51650,-35.95589728
0.51700,-36.56628609
0.51750,-37.78706372
0.51800,-37.17667491
0.51850,-33.20914761
0.51900,-28.63123149
0.51950,-25.88448182
0.52000,-23.74812097
0.52050,-20.69617689
0.52100,-18.25462163
0.52150,-17.64423281
0.52200,-17.64423281
0.52250,-17.033844
0.52300,-17.94942722
0.52350,-23.13773215
0.52400,-30.46239794
0.52450,-36.26109168
0.52500,-40.22861898
0.52550,-43.89095188
0.52600,-46.63770155
0.52650,-46.02731273
0.52700,-42.36497984
0.52750,-38.09225813
0.52800,-34.42992524
0.52850,-30.46239794
0.52900,-26.49487064
0.52950,-24.05331538
0.53000,-22.52734334
0.53050,-19.17020485
0.53100,-14.28709433
0.53150,-11.23515025
0.53200,-10.31956703
0.53250,-8.793594991
0.53300,-4.82606769
0.53350,0.05704283282
0.53400,4.329764541
0.53450,8.602486248
0.53500,14.09598559
0.53550,19.28429052
0.53600,22.94662341
0.53650,25.38817867
0.53700,28.74531716
0.53750,31.79726123
0.53800,33.01803886
0.53850,33.01803886
0.53900,33.62842768
0.53950,34.84920531
0.54000,34.5440109
0.54050,31.49206683
0.54100,27.21934512
0.54150,23.55701223
0.54200,19.28429052
0.54250,13.48559677
0.54300,5.855736579
0.54350,-0.8585403903
0.54400,-6.352039729
0.54450,-10.92995584
0.54500,-15.50787196
0.54550,-19.47539926
0.54600,-22.52734334
0.54650,-24.35850978
0.54700,-24.05331538
0.54750,-21.61176011
0.54800,-18.25462163
0.54850,-14.89748314
0.54900,-12.45592788
0.54950,-10.31956703
0.55000,-7.267622952
0.55050,-3.910484467
0.55100,-1.163734798
0.55150,0.05704283282
0.55200,0.9726260559
0.55250,1.888209279
0.55300,2.803792502
0.55350,4.329764541
0.55400,6.466125395
0.55450,7.992097433
0.55500,7.992097433
0.55550,7.07651421
0.55600,7.07651421
0.55650,8.297291841
0.55700,9.823263879
0.55750,9.518069472
0.55800,8.297291841
0.55850,7.381708618
0.55900,7.686903025
0.55950,8.907680656
0.56000,11.34923592
0.56050,15.01156881
0.56100,18.06351289
0.56150,18.6739017
0.56200,17.14792966
0.56250,17.45312407
0.56300,21.11545696
0.56350,25.69337308
0.56400,27.52453953
0.56450,26.6089563
0.56500,25.08298426
0.56550,24.16740104
0.56600,22.3362346
0.56650,20.19987374
0.56700,21.72584578
0.56750,28.44012275
0.56800,35.15439972
0.56850,36.98556616
0.56900,33.93362209
0.56950,29.35570597
0.57000,24.47259545
0.57050,18.6739017
0.57100,13.18040236
0.57150,11.95962473
0.57200,15.62195763
0.57250,20.19987374
0.57300,20.81026256
0.57350,16.53754085
0.57400,10.12845829
0.57450,3.414181318
0.57500,-3.300095652
0.57550,-8.793594991
0.57600,-12.76112229
0.57650,-15.20267755
0.57700,-17.33903841
0.57750,-19.47539926
0.57800,-19.78059367
0.57850,-15.81306637
0.57900,-6.352039729
0.57950,4.940153356
0.58000,12.57001355
0.58050,11.04404151
0.58100,2.193403687
0.58150,-8.793594991
0.58200,-19.17020485
0.58250,-29.54681471
0.58300,-40.53381339
0.58350,-48.46886799
0.58400,-50.30003444
0.58450,-47.85847918
0.58500,-45.11172951
0.58550,-44.19614628
0.58600,-42.67017425
0.58650,-39.00784135
0.58700,-34.42992524
0.58750,-30.76759235
0.58800,-28.32603708
0.58850,-25.88448182
0.58900,-22.83253774
0.58950,-19.78059367
0.59000,-16.72864959
0.59050,-11.23515025
0.59100,-3.60529006
0.59150,4.329764541
0.59200,10.12845829
0.59250,12.87520796
0.59300,12.87520796
0.59350,11.95962473
0.59400,11.95962473
0.59450,15.62195763
0.59500,23.86220663
0.59550,33.93362209
0.59600,41.25828787
0.59650,41.86867669
0.59700,34.84920531
0.59750,24.47259545
0.59800,17.45312407
0.59850,18.36870729
0.59900,24.16740104
0.59950,27.82973393
0.60000,27.82973393
0.60050,25.69337308
0.60100,22.641429
0.60150,15.92715203
0.60200,5.550542171
0.60250,-2.994901244
0.60300,-7.57281736
0.60350,-10.62476144
0.60400,-14.59228874
0.60450,-19.17020485
0.60500,-24.66370419
0.60550,-32.59875879
0.60600,-39.92342458
0.60650,-38.70264695
0.60700,-25.57928741
0.60750,-8.488400583
0.60800,1.888209279
0.60850,6.466125395
0.60900,11.04404151
0.60950,17.14792966
0.61000,20.81026256
0.61050,21.72584578
0.61100,22.3362346
0.61150,22.3362346
0.61200,19.28429052
0.61250,15.31676322
0.61300,13.18040236
0.61350,13.18040236
0.61400,12.26481914
0.61450,10.7388471
0.61500,12.57001355
0.61550,16.23234644
0.61600,15.01156881
0.61650,6.771319802
0.61700,-4.215678875
0.61750,-14.59228874
0.61800,-22.83253774
0.61850,-29.85200912
0.61900,-34.73511965
0.61950,-36.8714805
0.62000,-38.39745254
0.62050,-40.8390078
0.62100,-43.58575747
0.62150,-43.58575747
0.62200,-40.53381339
0.62250,-36.8714805
0.62300,-33.81953642
0.62350,-31.98836998
0.62400,-30.15720353
0.62450,-28.02084268
0.62500,-26.49487064
0.62550,-26.49487064
0.62600,-27.71564827
0.62650,-29.54681471
0.62700,-30.76759235
0.62750,-31.98836998
0.62800,-32.59875879
0.62850,-31.98836998
0.62900,-28.63123149
0.62950,-24.66370419
0.63000,-21.30656571
0.63050,-18.25462163
0.63100,-14.89748314
0.63150,-9.403983806
0.63200,-2.689706836
0.63250,4.024570133
0.63300,9.212875064
0.63350,11.95962473
0.63400,13.79079118
0.63450,15.62195763
0.63500,16.84273526
0.63550,16.84273526
0.63600,15.62195763
0.63650,13.48559677
0.63700,10.43365269
0.63750,6.771319802
0.63800,3.414181318
0.63850,2.193403687
0.63900,0.9726260559
0.63950,-2.384512429
0.64000,-8.183206175
0.64050,-11.23515025
0.64100,-9.403983806
0.64150,-3.300095652
0.64200,4.024570133
0.64250,11.95962473
0.64300,19.89467933
0.64350,26.3037619
0.64400,29.35570597
0.64450,28.74531716
0.64500,25.69337308
0.64550,22.641429
0.64600,20.81026256
0.64650,18.6739017
0.64700,14.7063744
0.64750,11.04404151
0.64800,12.57001355
0.64850,20.50506815
0.64900,30.2712892
0.64950,37.59595498
0.65000,40.95309346
0.65050,43.08945432
0.65100,45.22581517
0.65150,47.97256484
0.65200,50.1089257
0.65250,49.49853688
0.65300,45.83620399
0.65350,41.86867669
0.65400,42.4790655
0.65450,45.22581517
0.65500,44.31023195
0.65550,36.68037176
0.65600,23.55701223
0.65650,7.992097433
0.65700,-9.098789398
0.65750,-26.49487064
0.65800,-39.92342458
0.65850,-47.24809036
0.65900,-51.52081207
0.65950,-54.87795055
0.66000,-56.09872818
0.66050,-54.26756174
0.66100,-49.68964562
0.66150,-44.19614628
0.66200,-36.8714805
0.66250,-27.41045386
0.66300,-18.86501044
0.66350,-13.0663167
0.66400,-9.403983806
0.66450,-5.436456506
0.66500,-1.468929206
0.66550,0.05704283282
0.66600,0.05704283282
0.66650,2.193403687
0.66700,15.01156881
0.66750,40.95309346
0.66800,73.9140895
0.66850,100.466003
0.66900,112.6737793
0.66950,112.0633905
0.67000,104.1283359
0.67050,90.69978192
0.67100,72.38811746
0.67150,53.16086977
0.67200,37.59595498
0.67250,24.77778986
0.67300,13.79079118
0.67350,6.466125395
0.67400,4.329764541
0.67450,3.719375725
0.67500,1.277820464
0.67550,1.583014871
0.67600,11.65443033
0.67650,28.44012275
0.67700,40.95309346
0.67750,44.92062076
0.67800,44.00503754
0.67850,41.56348228
0.67900,33.32323327
0.67950,17.45312407
0.68000,-0.5533459826
0.68050,-15.81306637
0.68100,-29.54681471
0.68150,-46.63770155
0.68200,-66.78053245
0.68250,-84.4818081
0.68300,-94.85841796
0.68350,-97.91036204
0.68400,-96.07919559
0.68450,-91.50127948
0.68500,-86.31297455
0.68550,-81.12466962
0.68600,-75.63117028
0.68650,-68.30650449
0.68700,-58.84547785
0.68750,-49.38445121
0.68800,-41.75459102
0.68850,-35.95589728
0.68900,-31.37798116
0.68950,-27.10525945
0.69000,-23.44292656
0.69050,-21.91695452
0.69100,-21.91695452
0.69150,-21.91695452
0.69200,-21.91695452
0.69250,-23.13773215
0.69300,-26.49487064
0.69350,-29.54681471
0.69400,-29.54681471
0.69450,-26.18967623
0.69500,-21.61176011
0.69550,-18.55981604
0.69600,-17.33903841
0.69650,-16.72864959
0.69700,-16.11826078
0.69750,-15.81306637
0.69800,-16.11826078
0.69850,-15.20267755
0.69900,-12.45592788
0.69950,-8.183206175
0.70000,-3.60529006
0.70050,0.05704283282
0.70100,2.803792502
0.70150,5.550542171
0.70200,7.686903025
0.70250,8.907680656
0.70300,10.7388471
0.70350,13.48559677
0.70400,16.53754085
0.70450,18.6739017
0.70500,20.19987374
0.70550,22.94662341
0.70600,27.82973393
0.70650,33.62842768
0.70700,36.98556616
0.70750,35.45959413
0.70800,31.49206683
0.70850,31.79726123
0.70900,40.95309346
0.70950,55.29723063
0.71000,65.36864608
0.71050,66.2842293
0.71100,62.316702
0.71150,58.65436911
0.71200,55.29723063
0.71250,49.49853688
0.71300,44.00503754
0.71350,43.69984313
0.71400,48.58295366
0.71450,53.77125859
0.71500,56.82320267
0.71550,59.87514674
0.71600,65.36864608
0.71650,72.08292305
0.71700,78.79720002
0.71750,83.98550495
0.71800,84.59589377
0.71850,78.1868112
0.71900,67.81020134
0.71950,60.18034115
0.72000,57.43359148
0.72050,54.3816474
0.72100,47.66737043
0.72150,41.56348228
0.72200,41.86867669
0.72250,47.05698162
0.72300,48.58295366
0.72350,42.4790655
0.72400,32.40765005
0.72450,22.3362346
0.72500,12.57001355
0.72550,0.3622372405
0.72600,-13.37151111
0.72650,-25.27409301
0.72700,-33.20914761
0.72750,-38.70264695
0.72800,-45.72211832
0.72850,-56.09872818
0.72900,-67.69611568
0.72950,-75.02078146
0.73000,-77.76753113
0.73050,-80.20908639
0.73100,-86.00778014
0.73150,-93.63764033
0.73200,-100.3519173
0.73250,-104.624639
0.73300,-107.0661943
0.73350,-105.2350278
0.73400,-94.55322355
0.73450,-74.71558705
0.73500,-52.13120088
0.73550,-33.51434201
0.73600,-21.0013713
0.73650,-12.76112229
0.73700,-7.267622952
0.73750,-4.520873283
0.73800,-2.384512429
0.73850,0.3622372405
0.73900,6.160930987
0.73950,13.18040236
0.74000,20.19987374
0.74050,26.3037619
0.74100,32.10245564
0.74150,36.37517735
0.74200,39.73231583
0.74250,41.25828787
0.74300,41.56348228
0.74350,40.34270465
0.74400,35.76478853
0.74450,27.21934512
0.74500,15.62195763
0.74550,2.193403687
0.74600,-11.23515025
0.74650,-25.57928741
0.74700,-40.8390078
0.74750,-54.57275615
0.74800,-64.33897719
0.74850,-68.6116989
0.74900,-69.83247653
0.74950,-70.13767094
0.75000,-69.52728212
0.75050,-67.08572686
0.75100,-63.72858838
0.75150,-60.06625548
0.75200,-57.31950582
0.75250,-53.96236733
0.75300,-49.07925681
0.75350,-43.89095188
0.75400,-38.39745254
0.75450,-30.76759235
0.75500,-20.08578808
0.75550,-9.709178214
0.75600,-2.994901244
0.75650,2.193403687
0.75700,13.18040236
0.75750,31.18687242
0.75800,47.05698162
0.75850,51.94009214
0.75900,48.58295366
0.75950,45.22581517
0.76000,42.4790655
0.76050,34.84920531
0.76100,21.72584578
0.76150,11.65443033
0.76200,10.12845829
0.76250,12.26481914
0.76300,12.87520796
0.76350,15.62195763
0.76400,24.16740104
0.76450,34.5440109
0.76500,39.12192702
0.76550,37.29076057
0.76600,35.15439972
0.76650,34.5440109
0.76700,32.10245564
0.76750,25.69337308
0.76800,15.62195763
0.76850,2.498598094
0.76900,-14.28709433
0.76950,-28.32603708
0.77000,-29.54681471
0.77050,-14.89748314
0.77100,5.245347764
0.77150,21.11545696
0.77200,31.18687242
0.77250,38.2063438
0.77300,41.56348228
0.77350,40.34270465
0.77400,40.34270465
0.77450,51.02450892
0.77500,71.47253423
0.77550,90.0893931
0.77600,95.88808685
0.77650,89.47900429
0.77700,76.96603357
0.77750,61.09592437
0.77800,41.25828787
0.77850,18.06351289
0.77900,-3.300095652
0.77950,-18.55981604
0.78000,-27.41045386
0.78050,-33.20914761
0.78100,-39.92342458
0.78150,-47.85847918
0.78200,-55.48833937
0.78250,-61.28703312
0.78300,-65.25456042
0.78350,-67.08572686
0.78400,-67.08572686
0.78450,-64.94936601
0.78500,-62.20261634
0.78550,-58.84547785
0.78600,-55.48833937
0.78650,-53.35197851
0.78700,-51.52081207
0.78750,-45.41692391
0.78800,-32.9039532
0.78850,-16.72864959
0.78900,-4.520873283
0.78950,1.277820464
0.79000,4.634958948
0.79050,8.602486248
0.79100,11.95962473
0.79150,12.57001355
0.79200,11.65443033
0.79250,9.518069472
0.79300,5.550542171
0.79350,0.9726260559
0.79400,-0.2481515749
0.79450,-0.5533459826
0.79500,-4.82606769
0.79550,-12.45592788
0.79600,-13.37151111
0.79650,-1.163734798
0.79700,15.62195763
0.79750,25.08298426
0.79800,23.55701223
0.79850,17.75831848
0.79900,9.518069472
0.79950,-3.60529006
0.80000,-22.52734334
0.80050,-40.53381339
0.80100,-54.26756174
0.80150,-65.55975482
0.80200,-74.71558705
0.80250,-76.85194791
0.80300,-69.52728212
0.80350,-56.40392259
0.80400,-45.11172951
0.80450,-39.00784135
0.80500,-37.17667491
0.80550,-37.17667491
0.80600,-36.8714805
0.80650,-33.81953642
0.80700,-27.41045386
0.80750,-20.69617689
0.80800,-18.25462163
0.80850,-19.47539926
0.80900,-19.17020485
0.80950,-11.84553907
0.81000,4.329764541
0.81050,24.47259545
0.81100,41.56348228
0.81150,51.32970333
0.81200,54.99203622
0.81250,53.46606418
0.81300,45.22581517
0.81350,30.5764836
0.81400,15.01156881
0.81450,5.245347764
0.81500,4.634958948
0.81550,11.95962473
0.81600,24.77778986
0.81650,38.2063438
0.81700,46.1413984
0.81750,47.97256484
0.81800,49.80373129
0.81850,57.43359148
0.81900,64.14786845
0.81950,58.65436911
0.82000,40.64789906
0.82050,19.58948493
0.82100,1.888209279
0.82150,-14.59228874
0.82200,-31.68317557
0.82250,-42.05978543
0.82300,-40.22861898
0.82350,-32.29356438
0.82400,-27.71564827
0.82450,-26.80006504
0.82500,-21.61176011
0.82550,-12.15073348
0.82600,-6.352039729
0.82650,-6.657234137
0.82700,-5.131262098
0.82750,4.329764541
0.82800,18.06351289
0.82850,25.69337308
0.82900,23.25181782
0.82950,15.31676322
0.83000,8.297291841
0.83050,3.414181318
0.83100,-1.468929206
0.83150,-7.57281736
0.83200,-11.54034466
0.83250,-9.709178214
0.83300,-2.384512429
0.83350,4.940153356
0.83400,11.04404151
0.83450,18.97909611
0.83500,31.49206683
0.83550,45.22581517
0.83600,55.60242503
0.83650,61.70631319
0.83700,65.9790349
0.83750,68.11539575
0.83800,63.53747963
0.83850,51.32970333
0.83900,35.45959413
0.83950,17.75831848
0.84000,-3.910484467
0.84050,-31.68317557
0.84100,-61.89742193
0.84150,-88.14414099
0.84200,-106.7609999
0.84250,-118.3583874
0.84300,-123.8518867
0.84350,-124.7674699
0.84400,-120.7999426
0.84450,-112.2544992
0.84500,-99.13113967
0.84550,-81.73505843
0.84600,-59.15067226
0.84650,-31.68317557
0.84700,-3.910484467
0.84750,18.6739017
0.84800,33.32323327
0.84850,40.95309346
0.84900,43.69984313
0.84950,43.08945432
0.85000,41.25828787
0.85050,40.03751024
0.85100,40.03751024
0.85150,40.03751024
0.85200,39.73231583
0.85250,40.34270465
0.85300,41.56348228
0.85350,43.69984313
0.85400,47.36217603
0.85450,54.076453
0.85500,60.18034115
0.85550,61.70631319
0.85600,58.65436911
0.85650,52.85567537
0.85700,44.61542636
0.85750,31.79726123
0.85800,16.53754085
0.85850,2.498598094
0.85900,-10.62476144
0.85950,-26.18967623
0.86000,-40.53381339
0.86050,-42.36497984
0.86100,-27.10525945
0.86150,-4.82606769
0.86200,8.602486248
0.86250,11.04404151
0.86300,8.297291841
0.86350,4.634958948
0.86400,-2.689706836
0.86450,-14.28709433
0.86500,-23.44292656
0.86550,-23.74812097
0.86600,-17.033844
0.86650,-9.709178214
0.86700,-3.910484467
0.86750,1.277820464
0.86800,8.297291841
0.86850,18.06351289
0.86900,34.2388165
0.86950,59.87514674
0.87000,88.25822666
0.87050,105.6543079
0.87100,103.517947
0.87150,85.51147699
0.87200,61.40111878
0.87250,36.68037176
0.87300,12.57001355
0.87350,-9.709178214
0.87400,-28.63123149
0.87450,-41.14420221
0.87500,-45.72211832
0.87550,-41.44939661
0.87600,-28.63123149
0.87650,-10.92995584
0.87700,5.245347764
0.87750,17.45312407
0.87800,27.21934512
0.87850,37.29076057
0.87900,46.4465928
0.87950,48.88814807
0.88000,42.1738711
0.88050,31.49206683
0.88100,25.08298426
0.88150,25.38817867
0.88200,26.6089563
0.88250,22.3362346
0.88300,14.09598559
0.88350,6.771319802
0.88400,4.634958948
0.88450,7.381708618
0.88500,13.48559677
0.88550,19.28429052
0.88600,17.75831848
0.88650,4.634958948
0.88700,-16.72864959
0.88750,-40.22861898
0.88800,-64.94936601
0.88850,-91.80647389
0.88900,-115.6116377
0.88950,-127.2090252
0.89000,-125.0726643
0.89050,-115.6116377
0.89100,-102.7934726
0.89150,-85.39739132
0.89200,-63.11819956
0.89250,-40.22861898
0.89300,-20.39098248
0.89350,-1.774123613
0.89400,14.7063744
0.89450,25.08298426
0.89500,25.38817867
0.89550,19.28429052
0.89600,10.7388471
0.89650,1.888209279
0.89700,-6.352039729
0.89750,-13.0663167
0.89800,-18.55981604
0.89850,-25.57928741
0.89900,-30.76759235
0.89950,-24.9688986
0.90000,-5.131262098
0.90050,18.06351289
0.90100,30.2712892
0.90150,28.13492834
0.90200,18.06351289
0.90250,5.550542171
0.90300,-7.267622952
0.90350,-15.81306637
0.90400,-14.89748314
0.90450,-7.267622952
0.90500,-0.5533459826
0.90550,2.193403687
0.90600,6.466125395
0.90650,13.79079118
0.90700,18.36870729
0.90750,15.92715203
0.90800,9.823263879
0.90850,5.245347764
0.90900,0.6674316482
0.90950,-6.352039729
0.91000,-13.67670551
0.91050,-14.89748314
0.91100,-8.793594991
0.91150,0.9726260559
0.91200,12.26481914
0.91250,24.77778986
0.91300,35.45959413
0.91350,39.12192702
0.91400,35.15439972
0.91450,26.91415071
0.91500,17.14792966
0.91550,5.855736579
0.91600,-5.131262098
0.91650,-12.45592788
0.91700,-14.28709433
0.91750,-14.59228874
0.91800,-16.11826078
0.91850,-17.33903841
0.91900,-16.42345518
0.91950,-17.033844
0.92000,-20.69617689
0.92050,-21.91695452
0.92100,-14.59228874
0.92150,-2.079318021
0.92200,6.466125395
0.92250,12.87520796
0.92300,25.99856749
0.92350,48.88814807
0.92400,70.55695101
0.92450,80.01797765
0.92500,78.49200561
0.92550,74.2192839
0.92600,70.2517566
0.92650,62.316702
0.92700,48.27775925
0.92750,32.71284446
0.92800,20.50506815
0.92850,13.18040236
0.92900,7.686903025
0.92950,1.888209279
0.93000,-3.60529006
0.93050,-6.657234137
0.93100,-2.079318021
0.93150,11.04404151
0.93200,27.52453953
0.93250,40.95309346
0.93300,53.46606418
0.93350,71.47253423
0.93400,94.66730922
0.93450,114.8101401
0.93500,122.1348059
0.93550,115.1153345
0.93600,97.7192533
0.93650,75.13486713
0.93700,48.88814807
0.93750,18.6739017
0.93800,-14.89748314
0.93850,-49.38445121
0.93900,-79.90389198
0.93950,-103.7090558
0.94000,-120.1895538
0.94050,-127.819414
0.94100,-121.4103314
0.94150,-98.82594526
0.94200,-67.69611568
0.94250,-40.53381339
0.94300,-19.78059367
0.94350,-0.5533459826
0.94400,18.97909611
0.94450,35.15439972
0.94500,43.08945432
0.94550,42.1738711
0.94600,31.18687242
0.94650,10.12845829
0.94700,-12.76112229
0.94750,-22.22214893
0.94800,-11.23515025
0.94850,8.602486248
0.94900,21.42065137
0.94950,22.03104019
0.95000,15.92715203
0.95050,7.07651421
0.95100,-5.131262098
0.95150,-21.61176011
0.95200,-37.48186931
0.95250,-47.85847918
0.95300,-50.30003444
0.95350,-46.33250714
0.95400,-40.53381339
0.95450,-40.53381339
0.95500,-47.55328477
0.95550,-56.40392259
0.95600,-60.37144989
0.95650,-60.98183871
0.95700,-63.42339397
0.95750,-68.00131008
0.95800,-68.00131008
0.95850,-60.6766443
0.95900,-53.04678411
0.95950,-50.91042325
0.96000,-51.82600648
0.96050,-49.99484003
0.96100,-47.24809036
0.96150,-49.38445121
0.96200,-52.13120088
0.96250,-44.19614628
0.96300,-23.13773215
0.96350,-1.163734798
0.96400,9.823263879
0.96450,13.48559677
0.96500,17.75831848
0.96550,22.641429
0.96600,22.3362346
0.96650,14.40117999
0.96700,3.414181318
0.96750,-8.488400583
0.96800,-22.52734334
0.96850,-35.34550846
0.96900,-40.53381339
0.96950,-38.39745254
0.97000,-36.8714805
0.97050,-40.22861898
0.97100,-43.89095188
0.97150,-40.53381339
0.97200,-30.15720353
0.97250,-20.08578808
0.97300,-15.81306637
0.97350,-18.55981604
0.97400,-25.57928741
0.97450,-32.59875879
0.97500,-36.8714805
0.97550,-39.31303576
0.97600,-42.05978543
0.97650,-44.19614628
0.97700,-40.22861898
0.97750,-28.9364259
0.97800,-14.89748314
0.97850,-2.384512429
0.97900,8.602486248
0.97950,23.55701223
0.98000,43.08945432
0.98050,64.14786845
0.98100,85.51147699
0.98150,106.5698911
0.98200,125.18675
0.98250,136.4789431
0.98300,138.0049151
0.98350,134.3425822
0.98400,129.1542773
0.98450,123.9659724
0.98500,116.3361122
0.98550,105.9595023
0.98600,90.39458751
0.98650,68.11539575
0.98700,41.86867669
0.98750,22.641429
0.98800,19.28429052
0.98850,26.6089563
0.98900,32.71284446
0.98950,32.10245564
0.99000,30.2712892
0.99050,32.71284446
0.99100,34.5440109
0.99150,30.2712892
0.99200,22.641429
0.99250,18.97909611
0.99300,19.58948493
0.99350,20.19987374
0.99400,19.28429052
0.99450,22.94662341
0.99500,35.45959413
0.99550,51.94009214
0.99600,59.26475793
0.99650,49.80373129
0.99700,24.16740104
0.99750,-10.31956703
0.99800,-47.85847918
0.99850,-83.87141929
0.99900,-115.0012489
0.99950,-136.9752462
1.00000,-149.1830225
1.00050,-154.9817163
1.00100,-154.9817163
1.00150,-146.1310785
1.00200,-124.7674699
1.00250,-94.85841796
1.00300,-64.33897719
1.00350,-37.17667491
1.00400,-14.28709433
1.00450,2.498598094
1.00500,14.40117999
1.00550,29.05051156
1.00600,55.90761944
1.00650,90.0893931
1.00700,111.4530016
1.00750,107.7906688
1.00800,87.03744903
1.00850,64.75825727
1.00900,45.53100958
1.00950,24.16740104
1.01000,0.6674316482
1.01050,-17.64423281
1.01100,-27.10525945
1.01150,-31.68317557
1.01200,-36.8714805
1.01250,-45.41692391
1.01300,-56.709117
1.01350,-68.6116989
1.01400,-75.63117028
1.01450,-73.80000383
1.01500,-65.25456042
1.01550,-56.09872818
1.01600,-48.7740624
1.01650,-42.97536865
1.01700,-37.48186931
1.01750,-32.59875879
1.01800,-25.88448182
1.01850,-17.94942722
1.01900,-13.37151111
1.01950,-13.37151111
1.02000,-9.403983806
1.02050,8.602486248
1.02100,34.84920531
1.02150,52.24528655
1.02200,53.77125859
1.02250,49.19334247
1.02300,49.49853688
1.02350,53.16086977
1.02400,52.24528655
1.02450,46.1413984
1.02500,37.90114939
1.02550,29.96609479
1.02600,23.55701223
1.02650,22.94662341
1.02700,27.52453953
1.02750,29.05051156
1.02800,23.55701223
1.02850,16.84273526
1.02900,15.92715203
1.02950,16.23234644
1.03000,8.907680656
1.03050,-3.910484467
1.03100,-13.67670551
1.03150,-19.47539926
1.03200,-30.15720353
1.03250,-50.30003444
1.03300,-72.88442061
1.03350,-90.58569625
1.03400,-103.7090558
1.03450,-114.0856656
1.03500,-119.2739706
1.03550,-116.5272209
1.03600,-108.2869719
1.03650,-98.52075085
1.03700,-87.83894659
1.03750,-75.02078146
1.03800,-57.92989463
1.03850,-35.04031405
1.03900,-8.488400583
1.03950,15.01156881
1.04000,31.49206683
1.04050,43.39464873
1.04100,54.68684181
1.04150,63.23228523
1.04200,65.06345167
1.04250,65.9790349
1.04300,77.57642239
1.04350,98.63483652
1.04400,115.4205289
1.04450,116.6413066
1.04500,106.2646967
1.04550,91.31017074
1.04600,73.60889509
1.04650,52.24528655
1.04700,31.79726123
1.04750,17.45312407
1.04800,6.160930987
1.04850,-6.657234137
1.04900,-19.17020485
1.04950,-25.27409301
1.05000,-27.10525945
1.05050,-31.37798116
1.05100,-39.00784135
1.05150,-44.19614628
1.05200,-43.89095188
1.05250,-41.44939661
1.05300,-39.61823017
1.05350,-35.65070287
1.05400,-28.02084268
1.05450,-19.78059367
1.05500,-13.67670551
1.05550,-5.131262098
1.05600,14.09598559
1.05650,45.83620399
1.05700,80.32317206
1.05750,105.0439191
1.05800,114.1997513
1.05850,110.8426128
1.05900,101.3815862
1.05950,89.7841987
1.06000,74.52447831
1.06050,51.94009214
1.06100,24.47259545
1.06150,-0.5533459826
1.06200,-18.25462163
1.06250,-29.85200912
1.06300,-39.31303576
1.06350,-45.11172951
1.06400,-38.39745254
1.06450,-15.20267755
1.06500,17.75831848
1.06550,49.80373129
1.06600,70.86214542
1.06650,77.57642239
1.06700,71.16733983
1.06750,57.73878589
1.06800,44.31023195
1.06850,32.10245564
1.06900,15.31676322
1.06950,-9.709178214
1.07000,-38.70264695
1.07050,-62.50781075
1.07100,-78.37791995
1.07150,-89.05972422
1.07200,-96.07919559
1.07250,-97.29997322
1.07300,-92.11166829
1.07350,-82.34544725
1.07400,-71.05325416
1.07450,-60.06625548
1.07500,-51.52081207
1.07550,-44.50134069
1.07600,-35.65070287
1.07650,-24.35850978
1.07700,-13.37151111
1.07750,-5.741650914
1.07800,0.6674316482
1.07850,10.7388471
1.07900,22.641429
1.07950,31.79726123
1.08000,37.29076057
1.08050,42.78425991
1.08100,47.66737043
1.08150,47.36217603
1.08200,39.73231583
1.08250,29.66090038
1.08300,21.11545696
1.08350,14.09598559
1.08400,9.518069472
1.08450,11.34923592
1.08500,20.50506815
1.08550,33.32323327
1.08600,44.92062076
1.08650,54.68684181
1.08700,61.70631319
1.08750,62.316702
1.08800,54.3816474
1.08850,39.12192702
1.08900,21.11545696
1.08950,3.719375725
1.09000,-10.62476144
1.09050,-22.22214893
1.09100,-34.73511965
1.09150,-48.46886799
1.09200,-57.62470022
1.09250,-59.15067226
1.09300,-57.62470022
1.09350,-58.84547785
1.09400,-57.62470022
1.09450,-43.89095188
1.09500,-21.0013713
1.09550,-2.994901244
1.09600,5.245347764
1.09650,12.87520796
1.09700,23.86220663
1.09750,28.13492834
1.09800,17.75831848
1.09850,-2.384512429
1.09900,-22.83253774
1.09950,-41.14420221
1.10000,-56.709117
1.10050,-62.50781075
1.10100,-52.43639529
1.10150,-34.12473083
1.10200,-22.22214893
1.10250,-20.08578808
1.10300,-19.78059367
1.10350,-17.64423281
1.10400,-18.86501044
1.10450,-24.9688986
1.10500,-29.24162031
1.10550,-25.88448182
1.10600,-18.86501044
1.10650,-13.98189992
1.10700,-12.15073348
1.10750,-11.23515025
1.10800,-11.23515025
1.10850,-13.37151111
1.10900,-16.11826078
1.10950,-19.78059367
1.11000,-26.18967623
1.11050,-34.42992524
1.11100,-39.92342458
1.11150,-40.22861898
1.11200,-41.14420221
1.11250,-43.89095188
1.11300,-42.05978543
1.11350,-28.63123149
1.11400,-9.403983806
1.11450,4.634958948
1.11500,12.57001355
1.11550,18.06351289
1.11600,22.641429
1.11650,26.6089563
1.11700,39.73231583
1.11750,70.2517566
1.11800,109.0114464
1.11850,134.952971
1.11900,137.3945263
1.11950,123.660778
1.12000,105.3491135
1.12050,84.90108817
1.12100,61.09592437
1.12150,37.59595498
1.12200,17.75831848
1.12250,1.888209279
1.12300,-10.92995584
1.12350,-19.47539926
1.12400,-24.35850978
1.12450,-27.71564827
1.12500,-29.54681471
1.12550,-26.49487064
1.12600,-18.86501044
1.12650,-10.01437262
1.12700,-2.079318021
1.12750,4.940153356
1.12800,11.95962473
1.12850,17.45312407
1.12900,22.94662341
1.12950,28.74531716
1.13000,31.79726123
1.13050,29.35570597
1.13100,23.86220663
1.13150,17.75831848
1.13200,10.7388471
1.13250,3.10898691
1.13300,-0.8585403903
1.13350,-0.2481515749
1.13400,0.05704283282
1.13450,-0.8585403903
1.13500,0.3622372405
1.13550,6.771319802
1.13600,10.12845829
1.13650,2.498598094
1.13700,-8.183206175
1.13750,-11.54034466
1.13800,-10.01437262
1.13850,-17.033844
1.13900,-33.51434201
1.13950,-46.94289595
1.14000,-48.46886799
1.14050,-41.44939661
1.14100,-31.68317557
1.14150,-19.17020485
1.14200,-2.689706836
1.14250,17.45312407
1.14300,44.00503754
1.14350,82.76472732
1.14400,130.0698605
1.14450,169.4399391
1.14500,181.9529098
1.14550,163.9464398
1.14600,127.9334997
1.14650,90.0893931
1.14700,58.0439803
1.14750,30.88167801
1.14800,4.024570133
1.14850,-23.44292656
1.14900,-49.07925681
1.14950,-68.6116989
1.15000,-81.12466962
1.15050,-87.53375218
1.15100,-87.83894659
1.15150,-84.4818081
1.15200,-83.26103047
1.15250,-89.67011303
1.15300,-104.9298334
1.15350,-123.2414979
1.15400,-136.3648574
1.15450,-141.2479679
1.15500,-140.6375791
1.15550,-138.1960239
1.15600,-134.533691
1.15650,-129.9557748
1.15700,-126.5986364
1.15750,-126.293442
1.15800,-124.1570811
1.15850,-111.9493048
1.15900,-89.36491862
1.15950,-67.08572686
1.16000,-52.13120088
1.16050,-39.92342458
1.16100,-21.0013713
1.16150,3.414181318
1.16200,25.38817867
1.16250,41.25828787
1.16300,55.29723063
1.16350,69.33617338
1.16400,81.54394969
1.16450,91.31017074
1.16500,102.2971694
1.16550,112.6737793
1.16600,116.946501
1.16650,110.5374184
1.16700,96.80367007
1.16750,78.49200561
1.16800,55.90761944
1.16850,29.35570597
1.16900,5.550542171
1.16950,-11.23515025
1.17000,-21.91695452
1.17050,-27.71564827
1.17100,-24.9688986
1.17150,-8.793594991
1.17200,15.62195763
1.17250,36.68037176
1.17300,47.36217603
1.17350,52.55048096
1.17400,62.0115076
1.17450,76.96603357
1.17500,90.69978192
1.17550,96.80367007
1.17600,95.88808685
1.17650,93.751726
1.17700,93.44653159
1.17750,93.44653159
1.17800,91.31017074
1.17850,89.17380988
1.17900,90.69978192
1.17950,98.32964211
1.18000,109.6218352
1.18050,118.472473
1.18100,118.1672786
1.18150,107.4854743
1.18200,87.34264344
1.18250,57.73878589
1.18300,15.31676322
1.18350,-38.70264695
1.18400,-92.11166829
1.18450,-128.7349972
1.18500,-143.9947176
1.18550,-146.1310785
1.18600,-145.825884
1.18650,-145.2154952
1.18700,-141.8583567
1.18750,-134.533691
1.18800,-124.7674699
1.18850,-113.1700824
1.18900,-100.6571117
1.18950,-86.92336336
1.19000,-73.80000383
1.19050,-64.33897719
1.19100,-62.20261634
1.19150,-65.86494923
1.19200,-66.47533805
1.19250,-52.43639529
1.19300,-20.08578808
1.19350,20.50506815
1.19400,53.16086977
1.19450,64.45306286
1.19500,54.99203622
1.19550,36.06998294
1.19600,21.42065137
1.19650,12.87520796
1.19700,4.024570133
1.19750,-8.793594991
1.19800,-21.61176011
1.19850,-29.24162031
1.19900,-33.81953642
1.19950,-39.00784135
1.20000,-42.36497984
1.20050,-39.00784135
1.20100,-28.9364259
1.20150,-15.50787196
1.20200,0.9726260559
1.20250,19.58948493
1.20300,35.45959413
1.20350,47.36217603
1.20400,58.65436911
1.20450,69.64136779
1.20500,71.77772864
1.20550,61.09592437
1.20600,43.08945432
1.20650,22.641429
1.20700,-4.215678875
1.20750,-37.78706372
1.20800,-60.98183871
1.20850,-59.15067226
1.20900,-42.36497984
1.20950,-34.42992524
1.21000,-40.22861898
1.21050,-42.67017425
1.21100,-31.98836998
1.21150,-20.08578808
1.21200,-17.94942722
1.21250,-19.17020485
1.21300,-14.59228874
1.21350,-10.01437262
1.21400,-11.23515025
1.21450,-7.878011767
1.21500,11.95962473
1.21550,41.86867669
1.21600,62.316702
1.21650,66.89461812
1.21700,64.14786845
1.21750,59.26475793
1.21800,47.36217603
1.21850,29.35570597
1.21900,15.62195763
1.21950,10.7388471
1.22000,8.297291841
1.22050,5.855736579
1.22100,7.686903025
1.22150,17.14792966
1.22200,29.35570597
1.22250,41.56348228
1.22300,54.3816474
1.22350,60.18034115
1.22400,47.36217603
1.22450,21.42065137
1.22500,4.024570133
1.22550,4.024570133
1.22600,4.329764541
1.22650,-12.15073348
1.22700,-33.51434201
1.22750,-33.81953642
1.22800,-7.267622952
1.22850,25.99856749
1.22900,46.1413984
1.22950,47.05698162
1.23000,36.68037176
1.23050,25.08298426
1.23100,19.28429052
1.23150,18.06351289
1.23200,12.57001355
1.23250,-3.910484467
1.23300,-28.9364259
1.23350,-55.79353378
1.23400,-81.12466962
1.23450,-100.3519173
1.23500,-105.5402222
1.23550,-95.77400119
1.23600,-82.65064165
1.23650,-78.98830876
1.23700,-83.87141929
1.23750,-89.36491862
1.23800,-94.85841796
1.23850,-104.624639
1.23900,-117.1376097
1.23950,-125.9882475
1.24000,-130.8713581
1.24050,-133.6181077
1.24100,-130.2609693
1.24150,-114.6960545
1.24200,-90.89089066
1.24250,-68.00131008
1.24300,-44.19614628
1.24350,-9.098789398
1.24400,36.06998294
1.24450,75.44006154
1.24500,96.49847567
1.24550,102.2971694
1.24600,100.466003
1.24650,91.61536514
1.24700,78.49200561
1.24750,73.9140895
1.24800,88.25822666
1.24850,112.0633905
1.24900,124.2711668
1.24950,115.1153345
1.25000,95.58289244
1.25050,83.98550495
1.25100,88.56342107
1.25150,98.94003093
1.25200,98.02444771
1.25250,81.8491441
1.25300,66.58942371
1.25350,66.58942371
1.25400,71.47253423
1.25450,62.0115076
1.25500,48.27775925
1.25550,62.0115076
1.25600,110.8426128
1.25650,158.147746
1.25700,169.4399391
1.25750,157.5373572
1.25800,158.4529404
1.25850,176.4594105
1.25900,181.6477154
1.25950,156.621774
1.26000,115.1153345
1.26050,73.60889509
1.26100,30.88167801
1.26150,-17.64423281
1.26200,-67.08572686
1.26250,-112.864888
1.26300,-160.4752156
1.26350,-211.7478761
1.26400,-254.4750932
1.26450,-276.4490905
1.26500,-281.0270067
1.26550,-277.0594794
1.26600,-263.6309254
1.26650,-238.604984
1.26700,-209.0011264
1.26750,-183.6699906
1.26800,-162.3063821
1.26850,-139.7219959
1.26900,-117.1376097
1.26950,-98.52075085
1.27000,-79.29350317
1.27050,-52.7415897
1.27100,-22.22214893
1.27150,2.803792502
1.27200,20.19987374
1.27250,32.40765005
1.27300,37.29076057
1.27350,32.40765005
1.27400,26.91415071
1.27450,34.5440109
1.27500,51.94009214
1.27550,60.18034115
1.27600,51.02450892
1.27650,36.98556616
1.27700,30.2712892
1.27750,25.69337308
1.27800,13.79079118
1.27850,-0.5533459826
1.27900,-8.793594991
1.27950,-11.23515025
1.28000,-15.50787196
1.28050,-21.30656571
1.28100,-20.69617689
1.28150,-13.37151111
1.28200,-8.183206175
1.28250,-8.488400583
1.28300,-9.403983806
1.28350,-6.962428544
1.28400,-5.741650914
1.28450,-9.709178214
1.28500,-17.033844
1.28550,-22.52734334
1.28600,-26.80006504
1.28650,-30.46239794
1.28700,-30.46239794
1.28750,-23.44292656
1.28800,-13.37151111
1.28850,-6.657234137
1.28900,-3.60529006
1.28950,0.05704283282
1.29000,4.329764541
1.29050,5.245347764
1.29100,2.193403687
1.29150,-0.2481515749
1.29200,-0.5533459826
1.29250,-1.774123613
1.29300,-6.046845321
1.29350,-9.403983806
1.29400,-10.01437262
1.29450,-10.31956703
1.29500,-7.267622952
1.29550,9.823263879
1.29600,45.53100958
1.29650,83.37511614
1.29700,104.1283359
1.29750,111.4530016
1.29800,124.8815556
1.29850,149.6023026
1.29900,167.3035783
1.29950,159.0633292
1.30000,127.9334997
1.30050,87.64783784
1.30100,46.1413984
1.30150,7.381708618
1.30200,-19.78059367
1.30250,-30.15720353
1.30300,-30.15720353
1.30350,-28.9364259
1.30400,-24.9688986
1.30450,-11.23515025
1.30500,8.297291841
1.30550,25.08298426
1.30600,38.5115382
1.30650,56.82320267
1.30700,78.49200561
1.30750,91.61536514
1.30800,94.0569204
1.30850,98.63483652
1.30900,114.1997513
1.30950,132.2062214
1.31000,140.4464704
1.31050,141.667248
1.31100,143.4984145
1.31150,139.2256927
1.31200,113.2841681
1.31250,66.89461812
1.31300,19.58948493
1.31350,-15.50787196
1.31400,-46.33250714
1.31450,-78.98830876
1.31500,-105.2350278
1.31550,-114.3908601
1.31600,-110.4233328
1.31650,-104.3194446
1.31700,-96.99477882
1.31750,-82.34544725
1.31800,-61.28703312
1.31850,-40.8390078
1.31900,-22.22214893
1.31950,-0.8585403903
1.32000,21.42065137
1.32050,41.25828787
1.32100,58.65436911
1.32150,74.2192839
1.32200,82.76472732
1.32250,80.32317206
1.32300,75.44006154
1.32350,76.96603357
1.32400,78.49200561
1.32450,64.75825727
1.32500,36.06998294
1.32550,8.297291841
1.32600,-10.01437262
1.32650,-24.9688986
1.32700,-42.67017425
1.32750,-61.89742193
1.32800,-83.56622488
1.32850,-111.0337216
1.32900,-136.9752462
1.32950,-144.9103008
1.33000,-129.6505804
1.33050,-104.3194446
1.33100,-81.73505843
1.33150,-63.11819956
1.33200,-47.85847918
1.33250,-38.39745254
1.33300,-33.81953642
1.33350,-25.88448182
1.33400,-12.15073348
1.33450,0.9726260559
1.33500,9.518069472
1.33550,15.92715203
1.33600,18.97909611
1.33650,11.95962473
1.33700,-6.962428544
1.33750,-26.49487064
1.33800,-35.65070287
1.33850,-36.8714805
1.33900,-39.31303576
1.33950,-43.28056306
1.34000,-42.36497984
1.34050,-36.26109168
1.34100,-29.24162031
1.34150,-21.61176011
1.34200,-6.046845321
1.34250,20.50506815
1.34300,49.19334247
1.34350,63.84267404
1.34400,61.70631319
1.34450,51.94009214
1.34500,42.1738711
1.34550,29.35570597
1.34600,9.823263879
1.34650,-12.15073348
1.34700,-29.24162031
1.34750,-39.00784135
1.34800,-43.89095188
1.34850,-43.28056306
1.34900,-37.17667491
1.34950,-33.20914761
1.35000,-33.20914761
1.35050,-22.52734334
1.35100,15.01156881
1.35150,73.30370068
1.35200,122.4400003
1.35250,140.7516648
1.35300,132.8166102
1.35350,115.4205289
1.35400,96.19328126
1.35450,69.64136779
1.35500,32.40765005
1.35550,-6.352039729
1.35600,-30.15720353
1.35650,-27.71564827
1.35700,-6.657234137
1.35750,13.48559677
1.35800,22.641429
1.35850,24.77778986
1.35900,25.99856749
1.35950,22.94662341
1.36000,13.18040236
1.36050,4.634958948
1.36100,6.160930987
1.36150,15.92715203
1.36200,26.91415071
1.36250,39.12192702
1.36300,56.51800826
1.36350,74.82967272
1.36400,85.20628258
1.36450,85.8166714
1.36500,80.93356087
1.36550,69.9465622
1.36600,49.80373129
1.36650,23.55701223
1.36700,-2.994901244
1.36750,-29.54681471
1.36800,-55.48833937
1.36850,-72.88442061
1.36900,-72.27403179
1.36950,-59.15067226
1.37000,-49.99484003
1.37050,-53.35197851
1.37100,-64.94936601
1.37150,-76.85194791
1.37200,-86.31297455
1.37250,-87.83894659
1.37300,-76.24155909
1.37350,-54.57275615
1.37400,-38.09225813
1.37450,-37.48186931
1.37500,-46.63770155
1.37550,-53.35197851
1.37600,-55.48833937
1.37650,-57.62470022
1.37700,-60.37144989
1.37750,-56.709117
1.37800,-45.11172951
1.37850,-32.59875879
1.37900,-25.57928741
1.37950,-22.52734334
1.38000,-19.47539926
1.38050,-17.94942722
1.38100,-18.86501044
1.38150,-16.11826078
1.38200,-2.994901244
1.38250,16.53754085
1.38300,29.96609479
1.38350,30.88167801
1.38400,26.3037619
1.38450,23.86220663
1.38500,22.03104019
1.38550,16.53754085
1.38600,14.09598559
1.38650,23.25181782
1.38700,39.73231583
1.38750,48.88814807
1.38800,44.00503754
1.38850,33.01803886
1.38900,24.77778986
1.38950,17.14792966
1.39000,5.855736579
1.39050,-5.436456506
1.39100,-10.62476144
1.39150,-10.62476144
1.39200,-13.98189992
1.39250,-23.44292656
1.39300,-33.51434201
1.39350,-37.78706372
1.39400,-36.56628609
1.39450,-33.51434201
1.39500,-28.9364259
1.39550,-20.08578808
1.39600,-6.962428544
1.39650,7.686903025
1.39700,18.6739017
1.39750,21.11545696
1.39800,13.48559677
1.39850,0.05704283282
1.39900,-10.62476144
1.39950,-16.72864959
1.40000,-22.83253774
1.40050,-32.59875879
1.40100,-40.22861898
1.40150,-43.28056306
1.40200,-48.16367358
1.40250,-61.89742193
1.40300,-77.15714232
1.40350,-82.34544725
1.40400,-77.46233672
1.40450,-71.35844857
1.40500,-60.98183871
1.40550,-37.17667491
1.40600,-6.657234137
1.40650,12.26481914
1.40700,25.38817867
1.40750,64.14786845
1.40800,142.5828312
1.40850,228.6476542
1.40900,278.3943427
1.40950,284.8034252
1.41000,272.2904545
1.41050,254.8943733
1.41100,226.8164878
1.41150,189.58277
1.41200,159.0633292
1.41250,141.9724424
1.41300,123.660778
1.41350,91.31017074
1.41400,51.94009214
1.41450,18.36870729
1.41500,-10.62476144
1.41550,-45.41692391
1.41600,-86.00778014
1.41650,-125.6830531
1.41700,-161.0856044
1.41750,-192.5206284
1.41800,-217.8517643
1.41850,-230.9751238
1.41900,-231.2803182
1.41950,-221.2089028
1.42000,-201.6764607
1.42050,-174.8193528
1.42100,-145.5206896
1.42150,-117.7479985
1.42200,-89.05972422
1.42250,-59.15067226
1.42300,-38.09225813
1.42350,-31.37798116
1.42400,-27.71564827
1.42450,-8.488400583
1.42500,24.47259545
1.42550,51.32970333
1.42600,60.79072997
1.42650,67.50500693
1.42700,88.25822666
1.42750,116.0309178
1.42800,130.0698605
1.42850,123.660778
1.42900,107.4854743
1.42950,91.92055955
1.43000,76.35564476
1.43050,53.77125859
1.43100,22.94662341
1.43150,-8.488400583
1.43200,-28.02084268
1.43250,-25.27409301
1.43300,-6.046845321
1.43350,11.34923592
1.43400,13.79079118
1.43450,1.583014871
1.43500,-16.11826078
1.43550,-37.48186931
1.43600,-63.72858838
1.43650,-90.28050185
1.43700,-109.2025551
1.43750,-120.4947482
1.43800,-130.5661637
1.43850,-142.4687456
1.43900,-149.4882169
1.43950,-144.9103008
1.44000,-131.1765525
1.44050,-117.4428041
1.44100,-108.8973607
1.44150,-101.8778893
1.44200,-88.75452981
1.44250,-66.78053245
1.44300,-42.67017425
1.44350,-24.66370419
1.44400,-13.98189992
1.44450,-6.046845321
1.44500,2.193403687
1.44550,9.823263879
1.44600,15.92715203
1.44650,20.81026256
1.44700,24.77778986
1.44750,24.77778986
1.44800,19.28429052
1.44850,11.95962473
1.44900,6.466125395
1.44950,4.634958948
1.45000,5.855736579
1.45050,11.04404151
1.45100,21.42065137
1.45150,34.5440109
1.45200,47.05698162
1.45250,56.82320267
1.45300,64.14786845
1.45350,69.33617338
1.45400,70.86214542
1.45450,69.64136779
1.45500,69.64136779
1.45550,74.2192839
1.45600,80.01797765
1.45650,80.32317206
1.45700,74.52447831
1.45750,69.03097897
1.45800,66.2842293
1.45850,57.43359148
1.45900,33.93362209
1.45950,1.888209279
1.46000,-25.57928741
1.46050,-44.19614628
1.46100,-57.01431141
1.46150,-61.89742193
1.46200,-49.38445121
1.46250,-17.33903841
1.46300,21.42065137
1.46350,53.16086977
1.46400,76.05045035
1.46450,96.19328126
1.46500,113.5893625
1.46550,119.3880562
1.46600,110.5374184
1.46650,92.22575396
1.46700,72.08292305
1.46750,52.24528655
1.46800,29.96609479
1.46850,2.803792502
1.46900,-25.57928741
1.46950,-49.99484003
1.47000,-68.91689331
1.47050,-86.00778014
1.47100,-100.0467229
1.47150,-104.624639
1.47200,-95.77400119
1.47250,-80.20908639
1.47300,-66.78053245
1.47350,-55.79353378
1.47400,-42.67017425
1.47450,-26.80006504
1.47500,-13.0663167
1.47550,-2.079318021
1.47600,7.07651421
1.47650,14.09598559
1.47700,18.6739017
1.47750,22.94662341
1.47800,25.99856749
1.47850,20.50506815
1.47900,1.888209279
1.47950,-17.033844
1.48000,-24.9688986
1.48050,-25.57928741
1.48100,-33.20914761
1.48150,-45.72211832
1.48200,-48.16367358
1.48250,-34.12473083
1.48300,-15.50787196
1.48350,-1.468929206
1.48400,11.04404151
1.48450,25.38817867
1.48500,35.76478853
1.48550,33.93362209
1.48600,20.19987374
1.48650,2.193403687
1.48700,-10.31956703
1.48750,-13.0663167
1.48800,-7.878011767
1.48850,-3.910484467
1.48900,-5.131262098
1.48950,-4.215678875
1.49000,6.771319802
1.49050,24.16740104
1.49100,33.93362209
1.49150,31.49206683
1.49200,22.03104019
1.49250,13.48559677
1.49300,7.07651421
1.49350,2.803792502
1.49400,0.05704283282
1.49450,-2.079318021
1.49500,-6.352039729
1.49550,-12.15073348
1.49600,-18.55981604
1.49650,-22.83253774
1.49700,-19.78059367
1.49750,-7.878011767
1.49800,6.771319802
1.49850,16.23234644
1.49900,21.42065137
1.49950,30.2712892
1.50000,44.00503754
1.50050,59.26475793
1.50100,76.66083917
1.50150,100.466003
1.50200,124.5763612
1.50250,135.8685543
1.50300,130.6802493
1.50350,118.472473
1.50400,101.6867806
1.50450,74.2192839
1.50500,35.15439972
1.50550,-6.046845321
1.50600,-43.28056306
1.50650,-78.98830876
1.50700,-110.1181383
1.50750,-123.8518867
1.50800,-113.1700824
1.50850,-86.00778014
1.50900,-54.26756174
1.50950,-24.9688986
1.51000,-2.689706836
1.51050,8.297291841
1.51100,11.04404151
1.51150,10.43365269
1.51200,2.803792502
1.51250,-16.11826078
1.51300,-35.34550846
1.51350,-38.39745254
1.51400,-27.10525945
1.51450,-21.61176011
1.51500,-29.24162031
1.51550,-39.00784135
1.51600,-44.8065351
1.51650,-54.57275615
1.51700,-71.05325416
1.51750,-82.65064165
1.51800,-80.5142808
1.51850,-74.71558705
1.51900,-74.10519824
1.51950,-73.49480942
1.52000,-66.47533805
1.52050,-56.09872818
1.52100,-45.41692391
1.52150,-30.46239794
1.52200,-11.54034466
1.52250,-0.5533459826
1.52300,-1.468929206
1.52350,-0.8585403903
1.52400,14.09598559
1.52450,34.84920531
1.52500,43.08945432
1.52550,36.68037176
1.52600,31.49206683
1.52650,41.86867669
1.52700,66.89461812
1.52750,97.10886448
1.52800,122.1348059
1.52850,135.8685543
1.52900,140.4464704
1.52950,140.141276
1.53000,137.3945263
1.53050,128.8490829
1.53100,114.5049457
1.53150,101.0763918
1.53200,93.44653159
1.53250,89.17380988
1.53300,81.8491441
1.53350,67.81020134
1.53400,45.83620399
1.53450,17.75831848
1.53500,-10.92995584
1.53550,-36.56628609
1.53600,-60.37144989
1.53650,-86.00778014
1.53700,-110.1181383
1.53750,-125.9882475
1.53800,-134.533691
1.53850,-144.6051064
1.53900,-160.4752156
1.53950,-172.6829919
1.54000,-171.1570199
1.54050,-159.5596324
1.54100,-150.0986058
1.54150,-143.9947176
1.54200,-128.1246084
1.54250,-92.72205711
1.54300,-46.94289595
1.54350,-7.878011767
1.54400,15.62195763
1.54450,31.18687242
1.54500,44.61542636
1.54550,52.85567537
1.54600,50.1089257
1.54650,40.95309346
1.54700,34.84920531
1.54750,29.96609479
1.54800,15.92715203
1.54850,-9.403983806
1.54900,-33.20914761
1.54950,-40.8390078
1.55000,-34.73511965
1.55050,-26.49487064
1.55100,-21.61176011
1.55150,-14.28709433
1.55200,-0.2481515749
1.55250,15.92715203
1.55300,29.96609479
1.55350,42.1738711
1.55400,53.77125859
1.55450,61.40111878
1.55500,60.48553556
1.55550,52.24528655
1.55600,41.86867669
1.55650,33.01803886
1.55700,25.38817867
1.55750,18.06351289
1.55800,11.95962473
1.55850,4.940153356
1.55900,-4.520873283
1.55950,-14.89748314
1.56000,-19.78059367
1.56050,-15.50787196
1.56100,-5.741650914
1.56150,2.498598094
1.56200,6.466125395
1.56250,7.992097433
1.56300,9.212875064
1.56350,12.26481914
1.56400,19.58948493
1.56450,31.49206683
1.56500,45.22581517
1.56550,56.51800826
1.56600,65.06345167
1.56650,74.82967272
1.56700,85.8166714
1.56750,92.22575396
1.56800,90.0893931
1.56850,85.51147699
1.56900,84.59589377
1.56950,83.37511614
1.57000,73.9140895
1.57050,58.0439803
1.57100,47.66737043
1.57150,46.4465928
1.57200,46.4465928
1.57250,36.68037176
1.57300,17.14792966
1.57350,-6.046845321
1.57400,-29.24162031
1.57450,-53.04678411
1.57500,-78.98830876
1.57550,-108.2869719
1.57600,-138.8064127
1.57650,-165.968715
1.57700,-184.5855738
1.57750,-193.1310172
1.57800,-192.5206284
1.57850,-179.3972689
1.57900,-151.6245778
1.57950,-115.9168321
1.58000,-82.34544725
1.58050,-53.35197851
1.58100,-20.39098248
1.58150,20.50506815
1.58200,62.92709082
1.58250,96.80367007
1.58300,116.0309178
1.58350,118.472473
1.58400,105.9595023
1.58450,89.17380988
1.58500,82.45953291
1.58550,89.17380988
1.58600,98.63483652
1.58650,100.466003
1.58700,101.991975
1.58750,114.5049457
1.58800,135.8685543
1.58850,152.3490523
1.58900,155.0958019
1.58950,149.907497
1.59000,145.0243865
1.59050,139.5308872
1.59100,125.7971388
1.59150,98.02444771
1.59200,57.73878589
1.59250,10.12845829
1.59300,-40.22861898
1.59350,-90.28050185
1.59400,-134.8388854
1.59450,-164.4427429
1.59500,-171.4622143
1.59550,-159.8648268
1.59600,-142.77394
1.59650,-128.7349972
1.59700,-114.6960545
1.59750,-95.46880678
1.59800,-75.93636468
1.59850,-67.39092127
1.59900,-70.13767094
1.59950,-72.27403179
1.60000,-64.94936601
1.60050,-52.43639529
1.60100,-42.67017425
1.60150,-35.65070287
1.60200,-24.66370419
1.60250,-6.657234137
1.60300,15.31676322
1.60350,37.90114939
1.60400,55.60242503
1.60450,64.45306286
1.60500,65.06345167
1.60550,64.75825727
1.60600,68.42059016
1.60650,73.30370068
1.60700,73.9140895
1.60750,70.86214542
1.60800,66.2842293
1.60850,55.29723063
1.60900,33.93362209
1.60950,7.992097433
1.61000,-10.92995584
1.61050,-19.17020485
1.61100,-22.22214893
1.61150,-26.49487064
1.61200,-35.95589728
1.61250,-53.04678411
1.61300,-73.18961502
1.61350,-84.78700251
1.61400,-80.81947521
1.61450,-69.83247653
1.61500,-62.20261634
1.61550,-56.09872818
1.61600,-42.67017425
1.61650,-27.10525945
1.61700,-21.61176011
1.61750,-26.80006504
1.61800,-28.9364259
1.61850,-20.69617689
1.61900,-8.488400583
1.61950,0.05704283282
1.62000,6.160930987
1.62050,12.57001355
1.62100,16.53754085
1.62150,16.23234644
1.62200,9.518069472
1.62250,-5.741650914
1.62300,-28.32603708
1.62350,-44.50134069
1.62400,-43.28056306
1.62450,-30.76759235
1.62500,-23.74812097
1.62550,-23.13773215
1.62600,-14.28709433
1.62650,8.602486248
1.62700,36.06998294
1.62750,60.18034115
1.62800,83.98550495
1.62850,108.4010576
1.62900,124.8815556
1.62950,130.6802493
1.63000,136.4789431
1.63050,147.4659418
1.63100,154.1802187
1.63150,147.7711362
1.63200,135.8685543
1.63250,126.4075276
1.63300,112.3685849
1.63350,83.98550495
1.63400,46.4465928
1.63450,10.43365269
1.63500,-24.05331538
1.63550,-64.6441716
1.63600,-105.5402222
1.63650,-133.9233021
1.63700,-146.7414673
1.63750,-152.2349666
1.63800,-153.7609386
1.63850,-145.825884
1.63900,-126.5986364
1.63950,-101.8778893
1.64000,-77.76753113
1.64050,-55.18314496
1.64100,-35.34550846
1.64150,-20.08578808
1.64200,-6.962428544
1.64250,7.07651421
1.64300,21.11545696
1.64350,30.5764836
1.64400,36.68037176
1.64450,43.69984313
1.64500,51.32970333
1.64550,54.99203622
1.64600,52.24528655
1.64650,44.92062076
1.64700,32.71284446
1.64750,15.31676322
1.64800,-3.60529006
1.64850,-19.78059367
1.64900,-29.85200912
1.64950,-36.26109168
1.65000,-41.75459102
1.65050,-48.46886799
1.65100,-55.48833937
1.65150,-56.09872818
1.65200,-42.97536865
1.65250,-18.86501044
1.65300,3.719375725
1.65350,17.45312407
1.65400,25.38817867
1.65450,34.2388165
1.65500,44.31023195
1.65550,54.68684181
1.65600,68.11539575
1.65650,87.03744903
1.65700,106.5698911
1.65750,120.9140283
1.65800,124.5763612
1.65850,110.5374184
1.65900,72.69331187
1.65950,18.6739017
1.66000,-31.07278675
1.66050,-62.50781075
1.66100,-80.5142808
1.66150,-96.38439
1.66200,-111.9493048
1.66250,-121.4103314
1.66300,-123.2414979
1.66350,-120.4947482
1.66400,-113.4752768
1.66450,-102.1830837
1.66500,-86.31297455
1.66550,-69.52728212
1.66600,-54.26756174
1.66650,-42.67017425
1.66700,-29.85200912
1.66750,-6.657234137
1.66800,29.05051156
1.66850,63.53747963
1.66900,80.32317206
1.66950,83.37511614
1.67000,93.44653159
1.67050,119.0828618
1.67100,144.7191921
1.67150,152.0438579
1.67200,139.8360816
1.67250,116.6413066
1.67300,89.7841987
1.67350,63.23228523
1.67400,39.42712143
1.67450,14.7063744
1.67500,-17.64423281
1.67550,-54.87795055
1.67600,-82.95583606
1.67650,-96.38439
1.67700,-103.7090558
1.67750,-112.864888
1.67800,-115.6116377
1.67850,-103.098667
1.67900,-78.68311435
1.67950,-50.60522885
1.68000,-19.47539926
1.68050,16.84273526
1.68100,53.46606418
1.68150,83.37511614
1.68200,109.0114464
1.68250,134.0373878
1.68300,153.5698299
1.68350,160.8944957
1.68400,159.0633292
1.68450,155.4009964
1.68500,147.1607473
1.68550,126.1023332
1.68600,91.31017074
1.68650,50.4141201
1.68700,5.245347764
1.68750,-47.55328477
1.68800,-104.3194446
1.68850,-150.4038002
1.68900,-176.3453248
1.68950,-187.9427123
1.69000,-194.3517949
1.69050,-195.8777669
1.69100,-185.8063515
1.69150,-162.3063821
1.69200,-131.7869413
1.69250,-103.098667
1.69300,-81.42986402
1.69350,-64.94936601
1.69400,-50.60522885
1.69450,-38.09225813
1.69500,-31.07278675
1.69550,-31.07278675
1.69600,-32.59875879
1.69650,-27.71564827
1.69700,-15.81306637
1.69750,-4.215678875
1.69800,4.329764541
1.69850,15.31676322
1.69900,27.82973393
1.69950,33.01803886
1.70000,25.99856749
1.70050,16.23234644
1.70100,17.14792966
1.70150,29.35570597
1.70200,41.56348228
1.70250,47.97256484
1.70300,51.02450892
1.70350,52.24528655
1.70400,49.49853688
1.70450,41.86867669
1.70500,30.88167801
1.70550,16.23234644
1.70600,-1.774123613
1.70650,-16.11826078
1.70700,-17.33903841
1.70750,-6.962428544
1.70800,3.719375725
1.70850,10.43365269
1.70900,18.36870729
1.70950,30.88167801
1.71000,41.86867669
1.71050,46.75178721
1.71100,49.49853688
1.71150,54.68684181
1.71200,60.18034115
1.71250,60.48553556
1.71300,53.77125859
1.71350,39.42712143
1.71400,20.50506815
1.71450,1.583014871
1.71500,-12.15073348
1.71550,-24.66370419
1.71600,-43.58575747
1.71650,-68.6116989
1.71700,-88.4493354
1.71750,-95.46880678
1.71800,-94.85841796
1.71850,-91.50127948
1.71900,-83.56622488
1.71950,-65.86494923
1.72000,-43.28056306
1.72050,-23.13773215
1.72100,-6.962428544
1.72150,7.686903025
1.72200,19.28429052
1.72250,25.69337308
1.72300,31.79726123
1.72350,44.61542636
1.72400,61.09592437
1.72450,69.64136779
1.72500,64.75825727
1.72550,51.94009214
1.72600,38.81673261
1.72650,29.05051156
1.72700,22.641429
1.72750,20.19987374
1.72800,16.53754085
1.72850,7.07651421
1.72900,-5.741650914
1.72950,-13.37151111
1.73000,-14.89748314
1.73050,-20.08578808
1.73100,-34.42992524
1.73150,-45.41692391
1.73200,-35.95589728
1.73250,-6.046845321
1.73300,26.3037619
1.73350,46.4465928
1.73400,57.12839707
1.73450,72.38811746
1.73500,97.7192533
1.73550,125.18675
1.73600,140.7516648
1.73650,140.7516648
1.73700,131.5958326
1.73750,119.9984451
1.73800,103.517947
1.73850,74.2192839
1.73900,35.45959413
1.73950,0.9726260559
1.74000,-14.89748314
1.74050,-15.50787196
1.74100,-12.45592788
1.74150,-13.67670551
1.74200,-16.11826078
1.74250,-16.72864959
1.74300,-18.86501044
1.74350,-26.18967623
1.74400,-32.59875879
1.74450,-27.41045386
1.74500,-9.709178214
1.74550,6.160930987
1.74600,5.550542171
1.74650,-10.62476144
1.74700,-26.18967623
1.74750,-33.81953642
1.74800,-42.36497984
1.74850,-60.06625548
1.74900,-76.5467535
1.74950,-76.24155909
1.75000,-60.98183871
1.75050,-48.7740624
1.75100,-46.63770155
1.75150,-43.28056306
1.75200,-31.98836998
1.75250,-23.44292656
1.75300,-30.46239794
1.75350,-47.55328477
1.75400,-58.84547785
1.75450,-56.09872818
1.75500,-42.05978543
1.75550,-22.83253774
1.75600,-5.436456506
1.75650,2.193403687
1.75700,-0.5533459826
1.75750,-4.520873283
1.75800,-2.994901244
1.75850,-0.5533459826
1.75900,-6.352039729
1.75950,-19.17020485
1.76000,-28.63123149
1.76050,-29.24162031
1.76100,-22.83253774
1.76150,-11.23515025
1.76200,2.803792502
1.76250,11.04404151
1.76300,5.550542171
1.76350,-10.01437262
1.76400,-25.27409301
1.76450,-35.04031405
1.76500,-42.67017425
1.76550,-44.8065351
1.76600,-32.59875879
1.76650,-5.436456506
1.76700,19.89467933
1.76750,31.79726123
1.76800,37.59595498
1.76850,54.076453
1.76900,81.23875528
1.76950,102.2971694
1.77000,106.2646967
1.77050,101.0763918
1.77100,99.85561415
1.77150,105.0439191
1.77200,106.8750855
1.77250,96.80367007
1.77300,73.60889509
1.77350,41.25828787
1.77400,7.686903025
1.77450,-21.91695452
1.77500,-48.7740624
1.77550,-76.24155909
1.77600,-102.7934726
1.77650,-119.579165
1.77700,-120.1895538
1.77750,-110.1181383
1.77800,-96.99477882
1.77850,-83.26103047
1.77900,-68.6116989
1.77950,-56.09872818
1.78000,-50.30003444
1.78050,-46.33250714
1.78100,-38.09225813
1.78150,-24.66370419
1.78200,-10.62476144
1.78250,3.10898691
1.78300,16.23234644
1.78350,19.28429052
1.78400,2.193403687
1.78450,-28.32603708
1.78500,-54.57275615
1.78550,-65.86494923
1.78600,-66.47533805
1.78650,-61.59222752
1.78700,-47.24809036
1.78750,-22.22214893
1.78800,4.024570133
1.78850,22.3362346
1.78900,31.49206683
1.78950,34.5440109
1.79000,30.2712892
1.79050,18.97909611
1.79100,8.907680656
1.79150,6.771319802
1.79200,6.771319802
1.79250,0.3622372405
1.79300,-10.92995584
1.79350,-16.11826078
1.79400,-11.23515025
1.79450,-4.82606769
1.79500,-3.60529006
1.79550,-2.689706836
1.79600,6.466125395
1.79650,24.16740104
1.79700,41.56348228
1.79750,54.99203622
1.79800,67.50500693
1.79850,79.10239443
1.79900,81.8491441
1.79950,68.11539575
1.80000,43.08945432
1.80050,18.6739017
1.80100,1.888209279
1.80150,-8.183206175
1.80200,-13.67670551
1.80250,-13.67670551
1.80300,-10.01437262
1.80350,-9.098789398
1.80400,-15.81306637
1.80450,-29.85200912
1.80500,-48.7740624
1.80550,-70.13767094
1.80600,-83.26103047
1.80650,-75.32597587
1.80700,-45.41692391
1.80750,-11.23515025
1.80800,8.602486248
1.80850,11.65443033
1.80900,7.992097433
1.80950,4.940153356
1.81000,3.719375725
1.81050,6.466125395
1.81100,19.89467933
1.81150,47.05698162
1.81200,83.37511614
1.81250,117.8620842
1.81300,142.8880256
1.81350,158.4529404
1.81400,170.0503279
1.81450,176.1542161
1.81500,169.1347447
1.81550,143.8036089
1.81600,108.706252
1.81650,78.1868112
1.81700,54.99203622
1.81750,29.35570597
1.81800,-3.60529006
1.81850,-33.20914761
1.81900,-43.89095188
1.81950,-32.9039532
1.82000,-13.98189992
1.82050,-2.994901244
1.82100,-4.82606769
1.82150,-11.84553907
1.82200,-14.28709433
1.82250,-8.793594991
1.82300,-1.468929206
1.82350,-1.468929206
1.82400,-11.23515025
1.82450,-27.41045386
1.82500,-45.72211832
1.82550,-61.28703312
1.82600,-67.69611568
1.82650,-62.50781075
1.82700,-53.04678411
1.82750,-51.21561766
1.82800,-57.62470022
1.82850,-62.81300515
1.82900,-58.54028345
1.82950,-50.60522885
1.83000,-46.94289595
1.83050,-46.33250714
1.83100,-43.28056306
1.83150,-39.92342458
1.83200,-40.22861898
1.83250,-41.44939661
1.83300,-36.26109168
1.83350,-28.9364259
1.83400,-32.9039532
1.83450,-48.16367358
1.83500,-57.01431141
1.83550,-48.16367358
1.83600,-33.20914761
1.83650,-27.71564827
1.83700,-28.02084268
1.83750,-18.25462163
1.83800,0.6674316482
1.83850,14.40117999
1.83900,19.89467933
1.83950,28.13492834
1.84000,44.31023195
1.84050,57.73878589
1.84100,62.0115076
1.84150,63.53747963
1.84200,65.36864608
1.84250,59.26475793
1.84300,39.12192702
1.84350,14.7063744
1.84400,-6.657234137
1.84450,-30.15720353
1.84500,-60.06625548
1.84550,-83.56622488
1.84600,-87.83894659
1.84650,-78.37791995
1.84700,-68.00131008
1.84750,-57.92989463
1.84800,-39.61823017
1.84850,-15.81306637
1.84900,0.3622372405
1.84950,4.634958948
1.85000,3.10898691
1.85050,0.3622372405
1.85100,-2.994901244
1.85150,-4.82606769
1.85200,-0.5533459826
1.85250,6.466125395
1.85300,7.992097433
1.85350,0.05704283282
1.85400,-9.709178214
1.85450,-8.793594991
1.85500,9.823263879
1.85550,45.53100958
1.85600,84.90108817
1.85650,110.8426128
1.85700,117.5568898
1.85750,115.4205289
1.85800,114.8101401
1.85850,113.5893625
1.85900,103.8231415
1.85950,86.1218658
1.86000,66.58942371
1.86050,46.1413984
1.86100,24.16740104
1.86150,5.855736579
1.86200,-4.520873283
1.86250,-13.67670551
1.86300,-30.76759235
1.86350,-53.96236733
1.86400,-71.96883738
1.86450,-80.5142808
1.86500,-82.95583606
1.86550,-82.04025284
1.86600,-74.10519824
1.86650,-59.76106108
1.86700,-45.72211832
1.86750,-35.34550846
1.86800,-25.27409301
1.86850,-11.84553907
1.86900,0.9726260559
1.86950,8.297291841
1.87000,7.381708618
1.87050,1.888209279
1.87100,-2.689706836
1.87150,-1.163734798
1.87200,11.34923592
1.87250,33.32323327
1.87300,53.16086977
1.87350,60.18034115
1.87400,52.85567537
1.87450,40.34270465
1.87500,32.71284446
1.87550,31.79726123
1.87600,32.10245564
1.87650,27.52453953
1.87700,14.09598559
1.87750,-4.520873283
1.87800,-20.69617689
1.87850,-27.71564827
1.87900,-29.54681471
1.87950,-34.73511965
1.88000,-43.89095188
1.88050,-46.33250714
1.88100,-38.39745254
1.88150,-30.15720353
1.88200,-28.9364259
1.88250,-29.24162031
1.88300,-23.74812097
1.88350,-19.47539926
1.88400,-22.83253774
1.88450,-26.18967623
1.88500,-17.94942722
1.88550,-2.994901244
1.88600,5.550542171
1.88650,13.79079118
1.88700,37.59595498
1.88750,73.60889509
1.88800,99.85561415
1.88850,106.2646967
1.88900,106.5698911
1.88950,112.6737793
1.89000,116.946501
1.89050,110.8426128
1.89100,99.24522534
1.89150,85.20628258
1.89200,60.48553556
1.89250,20.19987374
1.89300,-21.91695452
1.89350,-50.60522885
1.89400,-67.69611568
1.89450,-86.61816895
1.89500,-110.4233328
1.89550,-130.8713581
1.89600,-143.9947176
1.89650,-151.6245778
1.89700,-150.7089946
1.89750,-130.2609693
1.89800,-85.70258573
1.89850,-27.71564827
1.89900,24.16740104
1.89950,58.3491747
1.90000,75.44006154
1.90050,81.54394969
1.90100,79.71278324
1.90150,68.11539575
1.90200,47.05698162
1.90250,24.16740104
1.90300,7.07651421
1.90350,-3.60529006
1.90400,-14.28709433
1.90450,-27.41045386
1.90500,-42.97536865
1.90550,-59.15067226
1.90600,-73.49480942
1.90650,-80.5142808
1.90700,-77.46233672
1.90750,-64.6441716
1.90800,-42.36497984
1.90850,-11.54034466
1.90900,20.81026256
1.90950,42.1738711
1.91000,49.19334247
1.91050,52.55048096
1.91100,63.84267404
1.91150,77.27122798
1.91200,78.49200561
1.91250,67.19981253
1.91300,58.0439803
1.91350,59.87514674
1.91400,65.67384049
1.91450,65.36864608
1.91500,56.21281385
1.91550,45.22581517
1.91600,39.42712143
1.91650,43.08945432
1.91700,50.4141201
1.91750,50.4141201
1.91800,39.73231583
1.91850,27.82973393
1.91900,21.42065137
1.91950,11.65443033
1.92000,-12.15073348
1.92050,-37.78706372
1.92100,-40.22861898
1.92150,-16.11826078
1.92200,10.7388471
1.92250,22.03104019
1.92300,22.03104019
1.92350,17.45312407
1.92400,0.6674316482
1.92450,-31.37798116
1.92500,-60.37144989
1.92550,-62.50781075
1.92600,-38.39745254
1.92650,-10.01437262
1.92700,5.245347764
1.92750,9.518069472
1.92800,10.43365269
1.92850,6.771319802
1.92900,-6.046845321
1.92950,-29.24162031
1.93000,-52.43639529
1.93050,-62.50781075
1.93100,-52.43639529
1.93150,-28.02084268
1.93200,-4.215678875
1.93250,7.686903025
1.93300,5.550542171
1.93350,-4.520873283
1.93400,-15.50787196
1.93450,-21.91695452
1.93500,-23.74812097
1.93550,-24.05331538
1.93600,-24.35850978
1.93650,-21.30656571
1.93700,-13.98189992
1.93750,-8.793594991
1.93800,-16.42345518
1.93850,-38.09225813
1.93900,-63.72858838
1.93950,-82.04025284
1.94000,-91.50127948
1.94050,-95.16361237
1.94100,-94.85841796
1.94150,-92.72205711
1.94200,-91.19608507
1.94250,-90.58569625
1.94300,-87.22855777
1.94350,-77.76753113
1.94400,-65.86494923
1.94450,-56.709117
1.94500,-51.52081207
1.94550,-47.24809036
1.94600,-42.97536865
1.94650,-39.92342458
1.94700,-31.68317557
1.94750,-6.962428544
1.94800,34.84920531
1.94850,78.1868112
1.94900,102.6023638
1.94950,105.6543079
1.95000,102.2971694
1.95050,107.4854743
1.95100,119.9984451
1.95150,129.4594717
1.95200,128.5438885
1.95250,118.7776674
1.95300,104.1283359
1.95350,82.76472732
1.95400,47.36217603
1.95450,-4.215678875
1.95500,-62.50781075
1.95550,-109.8129439
1.95600,-136.3648574
1.95650,-143.6895232
1.95700,-135.7544686
1.95750,-110.1181383
1.95800,-65.55975482
1.95850,-10.92995584
1.95900,34.5440109
1.95950,57.73878589
1.96000,59.26475793
1.96050,48.88814807
1.96100,37.29076057
1.96150,27.82973393
1.96200,19.28429052
1.96250,9.823263879
1.96300,0.05704283282
1.96350,-8.793594991
1.96400,-16.72864959
1.96450,-20.69617689
1.96500,-19.17020485
1.96550,-17.33903841
1.96600,-24.35850978
1.96650,-41.44939661
1.96700,-55.18314496
1.96750,-49.38445121
1.96800,-24.05331538
1.96850,3.10898691
1.96900,21.11545696
1.96950,34.5440109
1.97000,49.80373129
1.97050,62.0115076
1.97100,65.06345167
1.97150,63.84267404
1.97200,69.03097897
1.97250,77.27122798
1.97300,76.66083917
1.97350,64.45306286
1.97400,47.66737043
1.97450,29.05051156
1.97500,1.888209279
1.97550,-33.20914761
1.97600,-63.42339397
1.97650,-79.90389198
1.97700,-89.36491862
1.97750,-97.60516763
1.97800,-95.16361237
1.97850,-71.05325416
1.97900,-34.73511965
1.97950,-9.403983806
1.98000,-4.82606769
1.98050,-7.57281736
1.98100,-2.384512429
1.98150,10.7388471
1.98200,22.3362346
1.98250,26.6089563
1.98300,27.21934512
1.98350,29.35570597
1.98400,30.88167801
1.98450,25.99856749
1.98500,14.7063744
1.98550,7.381708618
1.98600,14.7063744
1.98650,34.2388165
1.98700,50.4141201
1.98750,55.29723063
1.98800,55.60242503
1.98850,56.21281385
1.98900,51.32970333
1.98950,36.68037176
1.99000,20.81026256
1.99050,12.87520796
1.99100,7.07651421
1.99150,-7.57281736
1.99200,-29.85200912
1.99250,-44.50134069
1.99300,-43.28056306
1.99350,-34.42992524
1.99400,-27.71564827
1.99450,-25.57928741
1.99500,-23.13773215
1.99550,-17.64423281
1.99600,-11.54034466
1.99650,-9.098789398
1.99700,-12.76112229
1.99750,-18.86501044
1.99800,-21.0013713
1.99850,-17.33903841
1.99900,-9.098789398
1.99950,6.771319802
2.00000,36.68037176
2.00050,76.96603357
2.00100,113.5893625
2.00150,136.4789431
2.00200,145.3295809
2.00250,141.0568592
2.00300,123.0503891
2.00350,95.88808685
2.00400,66.58942371
2.00450,35.45959413
2.00500,-2.384512429
2.00550,-42.97536865
2.00600,-72.5792262
2.00650,-87.53375218
2.00700,-95.46880678
2.00750,-96.99477882
2.00800,-82.04025284
2.00850,-51.82600648
2.00900,-20.08578808
2.00950,9.518069472
2.01000,48.27775925
2.01050,94.36211481
2.01100,126.4075276
2.01150,133.7321934
2.01200,131.2906381
2.01250,127.9334997
2.01300,106.8750855
2.01350,56.82320267
2.01400,1.583014871
2.01450,-27.10525945
2.01500,-33.51434201
2.01550,-42.05978543
2.01600,-58.23508904
2.01650,-69.52728212
2.01700,-75.02078146
2.01750,-86.00778014
2.01800,-97.91036204
2.01850,-94.24802915
2.01900,-74.71558705
2.01950,-60.06625548
2.02000,-61.59222752
2.02050,-68.6116989
2.02100,-68.91689331
2.02150,-64.6441716
2.02200,-63.42339397
2.02250,-66.17014364
2.02300,-67.39092127
2.02350,-63.11819956
2.02400,-52.13120088
2.02450,-37.17667491
2.02500,-22.83253774
2.02550,-11.84553907
2.02600,-2.384512429
2.02650,0.3622372405
2.02700,-8.488400583
2.02750,-23.74812097
2.02800,-28.32603708
2.02850,-17.33903841
2.02900,-9.403983806
2.02950,-19.78059367
2.03000,-39.00784135
2.03050,-52.43639529
2.03100,-60.98183871
2.03150,-70.13767094
2.03200,-70.13767094
2.03250,-50.91042325
2.03300,-25.57928741
2.03350,-14.59228874
2.03400,-13.0663167
2.03450,3.10898691
2.03500,39.73231583
2.03550,75.13486713
2.03600,91.61536514
2.03650,93.751726
2.03700,89.17380988
2.03750,76.05045035
2.03800,54.99203622
2.03850,38.5115382
2.03900,37.90114939
2.03950,48.27775925
2.04000,56.51800826
2.04050,54.3816474
2.04100,40.03751024
2.04150,13.79079118
2.04200,-17.64423281
2.04250,-38.39745254
2.04300,-35.34550846
2.04350,-14.59228874
2.04400,4.329764541
2.04450,11.34923592
2.04500,15.31676322
2.04550,27.52453953
2.04600,44.92062076
2.04650,54.68684181
2.04700,54.3816474
2.04750,52.85567537
2.04800,53.16086977
2.04850,42.1738711
2.04900,12.26481914
2.04950,-21.91695452
2.05000,-34.42992524
2.05050,-13.67670551
2.05100,27.82973393
2.05150,67.50500693
2.05200,87.95303225
2.05250,85.20628258
2.05300,70.86214542
2.05350,64.45306286
2.05400,75.13486713
2.05450,91.00497633
2.05500,93.44653159
2.05550,80.01797765
2.05600,61.70631319
2.05650,42.78425991
2.05700,15.31676322
2.05750,-23.13773215
2.05800,-59.45586667
2.05850,-75.93636468
2.05900,-70.74805975
2.05950,-58.54028345
2.06000,-51.82600648
2.06050,-50.91042325
2.06100,-47.55328477
2.06150,-35.95589728
2.06200,-21.0013713
2.06250,-10.01437262
2.06300,-5.741650914
2.06350,-3.300095652
2.06400,0.05704283282
2.06450,-1.163734798
2.06500,-12.76112229
2.06550,-31.37798116
2.06600,-46.63770155
2.06650,-51.21561766
2.06700,-47.55328477
2.06750,-40.53381339
2.06800,-31.98836998
2.06850,-22.52734334
2.06900,-14.59228874
2.06950,-9.709178214
2.07000,-7.57281736
2.07050,-6.962428544
2.07100,-8.183206175
2.07150,-9.709178214
2.07200,-6.657234137
2.07250,5.550542171
2.07300,27.21934512
2.07350,48.58295366
2.07400,57.12839707
2.07450,48.58295366
2.07500,29.96609479
2.07550,14.7063744
2.07600,7.686903025
2.07650,5.550542171
2.07700,3.10898691
2.07750,0.05704283282
2.07800,-2.689706836
2.07850,-10.31956703
2.07900,-24.35850978
2.07950,-39.00784135
2.08000,-45.41692391
2.08050,-46.33250714
2.08100,-50.30003444
2.08150,-55.48833937
2.08200,-49.38445121
2.08250,-27.10525945
2.08300,1.888209279
2.08350,25.69337308
2.08400,39.73231583
2.08450,45.83620399
2.08500,44.92062076
2.08550,40.64789906
2.08600,37.90114939
2.08650,34.2388165
2.08700,24.16740104
2.08750,11.65443033
2.08800,11.04404151
2.08850,25.38817867
2.08900,36.98556616
2.08950,26.6089563
2.09000,2.193403687
2.09050,-14.28709433
2.09100,-21.30656571
2.09150,-38.39745254
2.09200,-76.5467535
2.09250,-118.6635818
2.09300,-140.0271903
2.09350,-134.533691
2.09400,-114.3908601
2.09450,-89.36491862
2.09500,-64.33897719
2.09550,-43.89095188
2.09600,-27.41045386
2.09650,-2.994901244
2.09700,38.5115382
2.09750,86.73225462
2.09800,114.5049457
2.09850,111.7581961
2.09900,94.36211481
2.09950,79.71278324
2.10000,67.50500693
2.10050,48.27775925
2.10100,21.72584578
2.10150,-4.520873283
2.10200,-21.61176011
2.10250,-24.35850978
2.10300,-11.84553907
2.10350,6.771319802
2.10400,19.58948493
2.10450,24.16740104
2.10500,29.05051156
2.10550,38.5115382
2.10600,45.53100958
2.10650,44.31023195
2.10700,36.68037176
2.10750,25.38817867
2.10800,5.855736579
2.10850,-20.69617689
2.10900,-42.97536865
2.10950,-52.7415897
2.11000,-56.709117
2.11050,-60.37144989
2.11100,-58.23508904
2.11150,-42.97536865
2.11200,-17.64423281
2.11250,11.34923592
2.11300,47.97256484
2.11350,88.86861547
2.11400,115.4205289
2.11450,110.8426128
2.11500,81.8491441
2.11550,50.4141201
2.11600,26.3037619
2.11650,4.634958948
2.11700,-13.98189992
2.11750,-23.74812097
2.11800,-28.63123149
2.11850,-45.41692391
2.11900,-79.90389198
2.11950,-118.0531929
2.12000,-142.1635512
2.12050,-150.4038002
2.12100,-151.3193834
2.12150,-148.8778281
2.12200,-142.4687456
2.12250,-133.9233021
2.12300,-127.819414
2.12350,-120.1895538
2.12400,-103.098667
2.12450,-76.24155909
2.12500,-50.91042325
2.12550,-38.39745254
2.12600,-34.12473083
2.12650,-25.88448182
2.12700,-9.403983806
2.12750,9.212875064
2.12800,24.47259545
2.12850,34.84920531
2.12900,40.34270465
2.12950,40.03751024
2.13000,38.81673261
2.13050,43.39464873
2.13100,52.24528655
2.13150,58.3491747
2.13200,61.70631319
2.13250,72.38811746
2.13300,89.17380988
2.13350,94.0569204
2.13400,77.8816168
2.13450,55.60242503
2.13500,42.4790655
2.13550,31.79726123
2.13600,11.34923592
2.13650,-7.267622952
2.13700,-3.910484467
2.13750,17.45312407
2.13800,30.88167801
2.13850,25.38817867
2.13900,13.79079118
2.13950,6.160930987
2.14000,-1.774123613
2.14050,-10.01437262
2.14100,-7.57281736
2.14150,8.297291841
2.14200,27.82973393
2.14250,40.03751024
2.14300,42.1738711
2.14350,27.21934512
2.14400,-7.267622952
2.14450,-40.53381339
2.14500,-41.75459102
2.14550,-7.878011767
2.14600,29.35570597
2.14650,45.53100958
2.14700,45.22581517
2.14750,43.08945432
2.14800,44.00503754
2.14850,51.02450892
2.14900,67.19981253
2.14950,81.8491441
2.15000,71.16733983
2.15050,34.2388165
2.15100,-1.774123613
2.15150,-19.17020485
2.15200,-37.78706372
2.15250,-80.81947521
2.15300,-136.3648574
2.15350,-169.6310478
2.15400,-167.7998814
2.15450,-148.5726337
2.15500,-127.5142196
2.15550,-101.8778893
2.15600,-68.00131008
2.15650,-31.68317557
2.15700,-1.774123613
2.15750,20.81026256
2.15800,36.37517735
2.15850,40.95309346
2.15900,35.45959413
2.15950,31.18687242
2.16000,36.37517735
2.16050,41.56348228
2.16100,27.82973393
2.16150,-5.131262098
2.16200,-36.26109168
2.16250,-48.46886799
2.16300,-52.43639529
2.16350,-67.39092127
2.16400,-87.22855777
2.16450,-85.39739132
2.16500,-54.87795055
2.16550,-21.0013713
2.16600,-6.962428544
2.16650,-6.657234137
2.16700,1.888209279
2.16750,22.3362346
2.16800,37.90114939
2.16850,39.73231583
2.16900,33.01803886
2.16950,27.82973393
2.17000,27.82973393
2.17050,34.5440109
2.17100,47.97256484
2.17150,64.14786845
2.17200,74.2192839
2.17250,72.38811746
2.17300,56.21281385
2.17350,26.91415071
2.17400,-9.403983806
2.17450,-41.75459102
2.17500,-59.45586667
2.17550,-62.20261634
2.17600,-57.62470022
2.17650,-55.18314496
2.17700,-58.84547785
2.17750,-64.03378278
2.17800,-57.01431141
2.17850,-25.57928741
2.17900,21.72584578
2.17950,61.40111878
2.18000,75.44006154
2.18050,69.03097897
2.18100,55.29723063
2.18150,36.37517735
2.18200,12.26481914
2.18250,-2.689706836
2.18300,5.245347764
2.18350,27.82973393
2.18400,37.29076057
2.18450,24.77778986
2.18500,15.92715203
2.18550,36.37517735
2.18600,78.1868112
2.18650,109.9270296
2.18700,114.5049457
2.18750,100.466003
2.18800,84.29069936
2.18850,68.72578457
2.18900,47.36217603
2.18950,17.45312407
2.19000,-14.89748314
2.19050,-42.05978543
2.19100,-59.45586667
2.19150,-69.83247653
2.19200,-78.37791995
2.19250,-85.70258573
2.19300,-86.31297455
2.19350,-75.93636468
2.19400,-57.01431141
2.19450,-33.81953642
2.19500,-13.37151111
2.19550,-5.131262098
2.19600,-16.42345518
2.19650,-39.00784135
2.19700,-50.91042325
2.19750,-38.09225813
2.19800,-9.709178214
2.19850,14.40117999
2.19900,24.47259545
2.19950,16.84273526
2.20000,-7.878011767
2.20050,-40.22861898
2.20100,-52.13120088
2.20150,-21.30656571
2.20200,36.98556616
2.20250,83.37511614
2.20300,93.44653159
2.20350,80.62836647
2.20400,67.81020134
2.20450,58.3491747
2.20500,44.31023195
2.20550,27.82973393
2.20600,18.6739017
2.20650,15.92715203
2.20700,9.823263879
2.20750,-3.300095652
2.20800,-16.42345518
2.20850,-21.91695452
2.20900,-19.78059367
2.20950,-13.67670551
2.21000,-8.183206175
2.21050,-5.436456506
2.21100,-6.657234137
2.21150,-8.793594991
2.21200,-7.878011767
2.21250,-5.741650914
2.21300,-5.741650914
2.21350,-6.657234137
2.21400,-1.468929206
2.21450,13.18040236
2.21500,32.10245564
2.21550,44.00503754
2.21600,43.69984313
2.21650,32.40765005
2.21700,15.92715203
2.21750,-2.384512429
2.21800,-21.91695452
2.21850,-37.78706372
2.21900,-42.97536865
2.21950,-35.95589728
2.22000,-30.15720353
2.22050,-40.22861898
2.22100,-64.33897719
2.22150,-84.4818081
2.22200,-87.22855777
2.22250,-74.10519824
2.22300,-53.65717292
2.22350,-31.98836998
2.22400,-14.28709433
2.22450,-4.82606769
2.22500,0.3622372405
2.22550,9.823263879
2.22600,19.89467933
2.22650,20.50506815
2.22700,16.23234644
2.22750,28.44012275
2.22800,65.9790349
2.22850,108.706252
2.22900,134.0373878
2.22950,144.7191921
2.23000,153.2646355
2.23050,155.7061908
2.23100,139.2256927
2.23150,106.8750855
2.23200,74.52447831
2.23250,45.83620399
2.23300,12.26481914
2.23350,-24.9688986
2.23400,-56.09872818
2.23450,-74.10519824
2.23500,-80.5142808
2.23550,-74.71558705
2.23600,-60.06625548
2.23650,-48.46886799
2.23700,-46.63770155
2.23750,-44.19614628
2.23800,-29.54681471
2.23850,-13.98189992
2.23900,-15.81306637
2.23950,-28.63123149
2.24000,-28.63123149
2.24050,-10.31956703
2.24100,6.466125395
2.24150,9.518069472
2.24200,7.07651421
2.24250,5.855736579
2.24300,-1.163734798
2.24350,-18.55981604
2.24400,-36.26109168
2.24450,-46.02731273
2.24500,-50.91042325
2.24550,-58.23508904
2.24600,-66.47533805
2.24650,-71.96883738
2.24700,-71.35844857
2.24750,-58.23508904
2.24800,-29.85200912
2.24850,5.245347764
2.24900,35.15439972
2.24950,60.79072997
2.25000,90.69978192
2.25050,117.8620842
2.25100,123.9659724
2.25150,111.4530016
2.25200,108.0958632
2.25250,130.6802493
2.25300,158.4529404
2.25350,162.7256621
2.25400,142.2776368
2.25450,114.1997513
2.25500,82.45953291
2.25550,40.64789906
2.25600,-5.741650914
2.25650,-36.8714805
2.25700,-45.11172951
2.25750,-45.41692391
2.25800,-53.04678411
2.25850,-67.08572686
2.25900,-77.76753113
2.25950,-83.26103047
2.26000,-86.92336336
2.26050,-87.22855777
2.26100,-81.12466962
2.26150,-71.66364298
2.26200,-67.69611568
2.26250,-70.44286535
2.26300,-69.22208772
2.26350,-56.09872818
2.26400,-35.95589728
2.26450,-19.17020485
2.26500,-8.488400583
2.26550,-0.2481515749
2.26600,10.12845829
2.26650,23.86220663
2.26700,39.73231583
2.26750,53.77125859
2.26800,58.95956352
2.26850,52.24528655
2.26900,40.64789906
2.26950,30.88167801
2.27000,24.16740104
2.27050,17.75831848
2.27100,12.87520796
2.27150,9.212875064
2.27200,-0.8585403903
2.27250,-26.49487064
2.27300,-61.28703312
2.27350,-86.92336336
2.27400,-90.28050185
2.27450,-76.85194791
2.27500,-60.06625548
2.27550,-46.94289595
2.27600,-34.12473083
2.27650,-19.17020485
2.27700,-3.910484467
2.27750,8.297291841
2.27800,23.55701223
2.27850,53.16086977
2.27900,100.1608086
2.27950,150.5178858
2.28000,187.1412148
2.28050,206.3684624
2.28100,214.9139059
2.28150,212.777545
2.28200,194.1606861
2.28250,161.1996901
2.28300,124.5763612
2.28350,87.64783784
2.28400,43.69984313
2.28450,-6.962428544
2.28500,-54.26756174
2.28550,-90.28050185
2.28600,-116.5272209
2.28650,-129.6505804
2.28700,-119.579165
2.28750,-87.53375218
2.28800,-51.21561766
2.28850,-22.22214893
2.28900,3.10898691
2.28950,28.44012275
2.29000,39.73231583
2.29050,27.52453953
2.29100,5.245347764
2.29150,-6.352039729
2.29200,-6.962428544
2.29250,-8.183206175
2.29300,-14.89748314
2.29350,-22.22214893
2.29400,-31.07278675
2.29450,-44.8065351
2.29500,-59.45586667
2.29550,-66.47533805
2.29600,-67.69611568
2.29650,-71.05325416
2.29700,-76.24155909
2.29750,-75.02078146
2.29800,-65.55975482
2.29850,-56.709117
2.29900,-53.96236733
2.29950,-52.43639529
2.30000,-44.50134069
2.30050,-32.9039532
2.30100,-26.18967623
2.30150,-25.57928741
2.30200,-22.22214893
2.30250,-12.76112229
2.30300,-9.403983806
2.30350,-25.27409301
2.30400,-55.18314496
2.30450,-77.15714232
2.30500,-73.49480942
2.30550,-46.94289595
2.30600,-11.54034466
2.30650,22.94662341
2.30700,54.68684181
2.30750,83.98550495
2.30800,109.3166408
2.30850,126.712722
2.30900,128.2386941
2.30950,112.3685849
2.31000,93.751726
2.31050,93.14133718
2.31100,110.232224
2.31150,120.6088339
2.31200,102.9075582
2.31250,63.53747963
2.31300,25.08298426
2.31350,-0.5533459826
2.31400,-16.72864959
2.31450,-27.41045386
2.31500,-33.20914761
2.31550,-38.70264695
2.31600,-48.46886799
2.31650,-58.54028345
2.31700,-62.50781075
2.31750,-63.42339397
2.31800,-71.96883738
2.31850,-87.53375218
2.31900,-95.16361237
2.31950,-83.26103047
2.32000,-57.01431141
2.32050,-32.29356438
2.32100,-19.78059367
2.32150,-16.72864959
2.32200,-11.84553907
2.32250,0.9726260559
2.32300,17.45312407
2.32350,27.52453953
2.32400,31.18687242
2.32450,35.45959413
2.32500,43.69984313
2.32550,49.19334247
2.32600,50.71931451
2.32650,57.43359148
2.32700,80.01797765
2.32750,112.6737793
2.32800,134.952971
2.32850,128.2386941
2.32900,85.20628258
2.32950,12.57001355
2.33000,-70.44286535
2.33050,-137.8908294
2.33100,-171.7674087
2.33150,-175.734936
2.33200,-165.6635205
2.33250,-151.6245778
2.33300,-131.7869413
2.33350,-104.0142502
2.33400,-73.18961502
2.33450,-44.8065351
2.33500,-21.30656571
2.33550,-6.962428544
2.33600,-5.741650914
2.33650,-6.962428544
2.33700,10.43365269
2.33750,51.02450892
2.33800,87.03744903
2.33850,88.56342107
2.33900,63.53747963
2.33950,48.27775925
2.34000,60.48553556
2.34050,79.40758884
2.34100,79.40758884
2.34150,61.70631319
2.34200,42.1738711
2.34250,21.72584578
2.34300,-7.878011767
2.34350,-38.39745254
2.34400,-45.72211832
2.34450,-21.61176011
2.34500,13.18040236
2.34550,35.15439972
2.34600,40.34270465
2.34650,40.95309346
2.34700,41.86867669
2.34750,39.73231583
2.34800,33.62842768
2.34850,26.6089563
2.34900,19.58948493
2.34950,8.602486248
2.35000,-8.793594991
2.35050,-28.32603708
2.35100,-42.05978543
2.35150,-45.41692391
2.35200,-39.00784135
2.35250,-28.32603708
2.35300,-19.78059367
2.35350,-13.37151111
2.35400,-3.300095652
2.35450,11.34923592
2.35500,20.19987374
2.35550,9.823263879
2.35600,-17.64423281
2.35650,-43.58575747
2.35700,-47.24809036
2.35750,-26.49487064
2.35800,5.855736579
2.35850,32.71284446
2.35900,41.56348228
2.35950,31.18687242
2.36000,10.43365269
2.36050,-8.488400583
2.36100,-19.17020485
2.36150,-24.05331538
2.36200,-26.49487064
2.36250,-30.46239794
2.36300,-39.61823017
2.36350,-54.57275615
2.36400,-65.25456042
2.36450,-56.40392259
2.36500,-25.27409301
2.36550,17.75831848
2.36600,64.75825727
2.36650,113.8945569
2.36700,159.0633292
2.36750,183.4788819
2.36800,176.7646049
2.36850,144.7191921
2.36900,100.1608086
2.36950,51.02450892
2.37000,4.024570133
2.37050,-31.68317557
2.37100,-54.26756174
2.37150,-71.96883738
2.37200,-89.97530744
2.37250,-102.4882782
2.37300,-101.5726949
2.37350,-92.4168627
2.37400,-82.34544725
2.37450,-70.13767094
2.37500,-51.82600648
2.37550,-32.9039532
2.37600,-20.69617689
2.37650,-11.23515025
2.37700,6.160930987
2.37750,31.79726123
2.37800,49.49853688
2.37850,47.66737043
2.37900,30.2712892
2.37950,10.43365269
2.38000,-3.300095652
2.38050,-11.23515025
2.38100,-13.37151111
2.38150,-7.267622952
2.38200,4.634958948
2.38250,13.18040236
2.38300,9.823263879
2.38350,-3.910484467
2.38400,-19.78059367
2.38450,-31.68317557
2.38500,-40.22861898
2.38550,-46.63770155
2.38600,-49.07925681
2.38650,-48.46886799
2.38700,-45.72211832
2.38750,-36.56628609
2.38800,-18.55981604
2.38850,-3.300095652
2.38900,-6.962428544
2.38950,-22.22214893
2.39000,-17.64423281
2.39050,21.11545696
2.39100,65.67384049
2.39150,75.13486713
2.39200,44.92062076
2.39250,7.07651421
2.39300,-12.15073348
2.39350,-20.08578808
2.39400,-34.12473083
2.39450,-57.01431141
2.39500,-78.98830876
2.39550,-93.02725152
2.39600,-101.5726949
2.39650,-110.1181383
2.39700,-118.3583874
2.39750,-121.105137
2.39800,-109.5077495
2.39850,-81.73505843
2.39900,-46.33250714
2.39950,-19.17020485
2.40000,-6.962428544
2.40050,-1.468929206
2.40100,8.297291841
2.40150,22.94662341
2.40200,34.84920531
2.40250,42.78425991
2.40300,53.77125859
2.40350,69.9465622
2.40400,78.79720002
2.40450,68.42059016
2.40500,44.31023195
2.40550,20.81026256
2.40600,4.940153356
2.40650,-4.520873283
2.40700,-6.046845321
2.40750,4.024570133
2.40800,18.06351289
2.40850,18.97909611
2.40900,3.719375725
2.40950,-10.62476144
2.41000,-10.31956703
2.41050,1.583014871
2.41100,18.06351289
2.41150,39.73231583
2.41200,67.19981253
2.41250,95.58289244
2.41300,121.2192227
2.41350,147.1607473
2.41400,169.1347447
2.41450,168.8295503
2.41500,136.1737487
2.41550,86.1218658
2.41600,40.34270465
2.41650,2.193403687
2.41700,-35.04031405
2.41750,-69.83247653
2.41800,-90.89089066
2.41850,-100.3519173
2.41900,-111.338916
2.41950,-126.9038308
2.42000,-134.533691
2.42050,-125.6830531
2.42100,-105.5402222
2.42150,-79.59869758
2.42200,-45.41692391
2.42250,-5.436456506
2.42300,24.77778986
2.42350,35.45959413
2.42400,36.37517735
2.42450,43.39464873
2.42500,56.82320267
2.42550,64.75825727
2.42600,64.14786845
2.42650,65.67384049
2.42700,72.99850627
2.42750,78.79720002
2.42800,76.35564476
2.42850,68.11539575
2.42900,57.12839707
2.42950,40.64789906
2.43000,15.31676322
2.43050,-12.76112229
2.43100,-34.73511965
2.43150,-46.02731273
2.43200,-49.68964562
2.43250,-52.13120088
2.43300,-56.40392259
2.43350,-56.709117
2.43400,-46.02731273
2.43450,-28.9364259
2.43500,-19.78059367
2.43550,-20.39098248
2.43600,-14.28709433
2.43650,9.518069472
2.43700,39.42712143
2.43750,52.85567537
2.43800,47.05698162
2.43850,36.37517735
2.43900,31.79726123
2.43950,29.05051156
2.44000,19.28429052
2.44050,-0.2481515749
2.44100,-27.71564827
2.44150,-51.82600648
2.44200,-60.98183871
2.44250,-56.09872818
2.44300,-52.13120088
2.44350,-56.09872818
2.44400,-58.54028345
2.44450,-53.65717292
2.44500,-55.48833937
2.44550,-73.49480942
2.44600,-84.17661369
2.44650,-58.84547785
2.44700,-6.352039729
2.44750,33.93362209
2.44800,44.92062076
2.44850,43.39464873
2.44900,44.92062076
2.44950,40.34270465
2.45000,19.89467933
2.45050,-4.520873283
2.45100,-17.94942722
2.45150,-20.69617689
2.45200,-18.86501044
2.45250,-10.92995584
2.45300,2.498598094
2.45350,7.992097433
2.45400,-4.82606769
2.45450,-26.49487064
2.45500,-38.09225813
2.45550,-35.34550846
2.45600,-28.9364259
2.45650,-24.35850978
2.45700,-16.72864959
2.45750,-5.741650914
2.45800,0.05704283282
2.45850,-7.878011767
2.45900,-29.24162031
2.45950,-54.57275615
2.46000,-72.88442061
2.46050,-76.24155909
2.46100,-65.55975482
2.46150,-50.91042325
2.46200,-42.67017425
2.46250,-37.17667491
2.46300,-21.91695452
2.46350,8.602486248
2.46400,48.27775925
2.46450,87.95303225
2.46500,124.8815556
2.46550,156.9269684
2.46600,179.2061602
2.46650,193.2451029
2.46700,207.8944345
2.46750,222.543766
2.46800,217.0502667
2.46850,171.8814944
2.46900,99.24522534
2.46950,31.79726123
2.47000,-12.76112229
2.47050,-47.85847918
2.47100,-89.05972422
2.47150,-133.3129133
2.47200,-169.3258534
2.47250,-192.8258228
2.47300,-201.0660718
2.47350,-183.0596018
2.47400,-133.6181077
2.47450,-68.6116989
2.47500,-17.33903841
2.47550,4.940153356
2.47600,3.719375725
2.47650,-5.741650914
2.47700,-14.28709433
2.47750,-16.72864959
2.47800,-12.76112229
2.47850,-3.910484467
2.47900,5.855736579
2.47950,11.95962473
2.48000,8.907680656
2.48050,-0.8585403903
2.48100,-6.352039729
2.48150,-3.60529006
2.48200,-6.046845321
2.48250,-26.49487064
2.48300,-51.21561766
2.48350,-50.60522885
2.48400,-20.69617689
2.48450,5.855736579
2.48500,5.855736579
2.48550,-5.436456506
2.48600,-3.910484467
2.48650,3.10898691
2.48700,-10.92995584
2.48750,-49.99484003
2.48800,-85.70258573
2.48850,-94.55322355
2.48900,-82.65064165
2.48950,-69.83247653
2.49000,-65.55975482
2.49050,-62.50781075
2.49100,-47.24809036
2.49150,-11.54034466
2.49200,38.81673261
2.49250,89.17380988
2.49300,127.3231108
2.49350,148.9919138
2.49400,151.4334691
2.49450,132.8166102
2.49500,102.9075582
2.49550,81.54394969
2.49600,73.30370068
2.49650,59.56995233
2.49700,25.08298426
2.49750,-16.72864959
2.49800,-45.72211832
2.49850,-62.20261634
2.49900,-77.15714232
2.49950,-78.98830876
2.50000,-48.46886799
2.50050,2.498598094
2.50100,36.98556616
2.50150,38.2063438
2.50200,26.6089563
2.50250,22.03104019
2.50300,18.6739017
2.50350,10.12845829
2.50400,9.212875064
2.50450,19.28429052
2.50500,16.53754085
2.50550,-14.89748314
2.50600,-44.50134069
2.50650,-25.57928741
2.50700,40.64789906
2.50750,103.517947
2.50800,121.8296115
2.50850,106.5698911
2.50900,88.25822666
2.50950,73.9140895
2.51000,49.19334247
2.51050,10.12845829
2.51100,-25.88448182
2.51150,-45.41692391
2.51200,-53.65717292
2.51250,-62.50781075
2.51300,-72.5792262
2.51350,-73.80000383
2.51400,-62.50781075
2.51450,-46.63770155
2.51500,-34.42992524
2.51550,-27.10525945
2.51600,-24.05331538
2.51650,-25.57928741
2.51700,-24.9688986
2.51750,-5.436456506
2.51800,38.81673261
2.51850,88.56342107
2.51900,113.2841681
2.51950,102.9075582
2.52000,74.82967272
2.52050,48.58295366
2.52100,31.49206683
2.52150,19.89467933
2.52200,9.823263879
2.52250,-3.300095652
2.52300,-21.30656571
2.52350,-38.39745254
2.52400,-44.8065351
2.52450,-38.09225813
2.52500,-24.66370419
2.52550,-13.0663167
2.52600,-9.098789398
2.52650,-15.50787196
2.52700,-27.41045386
2.52750,-31.68317557
2.52800,-18.55981604
2.52850,1.277820464
2.52900,7.686903025
2.52950,-5.131262098
2.53000,-21.0013713
2.53050,-26.80006504
2.53100,-29.85200912
2.53150,-39.61823017
2.53200,-48.16367358
2.53250,-41.44939661
2.53300,-23.13773215
2.53350,-11.54034466
2.53400,-11.84553907
2.53450,-8.793594991
2.53500,9.212875064
2.53550,33.01803886
2.53600,43.69984313
2.53650,38.81673261
2.53700,27.82973393
2.53750,17.45312407
2.53800,9.823263879
2.53850,9.518069472
2.53900,21.42065137
2.53950,36.68037176
2.54000,36.06998294
2.54050,10.43365269
2.54100,-28.9364259
2.54150,-64.03378278
2.54200,-82.95583606
2.54250,-83.87141929
2.54300,-71.05325416
2.54350,-56.40392259
2.54400,-54.26756174
2.54450,-67.69611568
2.54500,-84.17661369
2.54550,-86.31297455
2.54600,-69.83247653
2.54650,-44.50134069
2.54700,-24.66370419
2.54750,-13.67670551
2.54800,-3.910484467
2.54850,13.79079118
2.54900,36.06998294
2.54950,49.19334247
2.55000,48.58295366
2.55050,47.97256484
2.55100,61.70631319
2.55150,82.1543385
2.55200,86.1218658
2.55250,59.56995233
2.55300,12.26481914
2.55350,-35.34550846
2.55400,-66.78053245
2.55450,-76.5467535
2.55500,-71.05325416
2.55550,-61.89742193
2.55600,-55.18314496
2.55650,-48.46886799
2.55700,-39.61823017
2.55750,-30.76759235
2.55800,-16.72864959
2.55850,9.823263879
2.55900,42.1738711
2.55950,58.0439803
2.56000,51.94009214
2.56050,46.1413984
2.56100,58.0439803
2.56150,70.86214542
2.56200,59.87514674
2.56250,35.15439972
2.56300,25.69337308
2.56350,37.90114939
2.56400,49.80373129
2.56450,49.19334247
2.56500,44.92062076
2.56550,41.56348228
2.56600,31.18687242
2.56650,16.53754085
2.56700,14.09598559
2.56750,32.71284446
2.56800,60.18034115
2.56850,83.98550495
2.56900,100.1608086
2.56950,103.8231415
2.57000,87.64783784
2.57050,53.16086977
2.57100,15.01156881
2.57150,-14.28709433
2.57200,-32.9039532
2.57250,-41.44939661
2.57300,-44.50134069
2.57350,-54.87795055
2.57400,-78.98830876
2.57450,-97.60516763
2.57500,-85.70258573
2.57550,-48.16367358
2.57600,-16.42345518
2.57650,-4.520873283
2.57700,4.329764541
2.57750,26.6089563
2.57800,52.24528655
2.57850,66.58942371
2.57900,70.86214542
2.57950,69.03097897
2.58000,54.3816474
2.58050,24.77778986
2.58100,-0.5533459826
2.58150,-3.910484467
2.58200,7.07651421
2.58250,10.7388471
2.58300,5.855736579
2.58350,13.18040236
2.58400,40.34270465
2.58450,67.81020134
2.58500,75.74525594
2.58550,64.75825727
2.58600,47.66737043
2.58650,29.96609479
2.58700,11.65443033
2.58750,-4.520873283
2.58800,-14.89748314
2.58850,-20.08578808
2.58900,-23.44292656
2.58950,-22.83253774
2.59000,-15.50787196
2.59050,-6.046845321
2.59100,-1.163734798
2.59150,0.05704283282
2.59200,2.498598094
2.59250,6.771319802
2.59300,10.43365269
2.59350,12.87520796
2.59400,11.34923592
2.59450,-2.994901244
2.59500,-31.07278675
2.59550,-57.92989463
2.59600,-70.13767094
2.59650,-71.96883738
2.59700,-72.5792262
2.59750,-61.59222752
2.59800,-26.49487064
2.59850,11.34923592
2.59900,11.34923592
2.59950,-35.65070287
2.60000,-93.02725152
2.60050,-119.579165
2.60100,-114.0856656
2.60150,-98.21555645
2.60200,-84.17661369
2.60250,-69.83247653
2.60300,-54.26756174
2.60350,-41.44939661
2.60400,-36.26109168
2.60450,-46.02731273
2.60500,-70.44286535
2.60550,-92.4168627
2.60600,-89.67011303
2.60650,-66.78053245
2.60700,-50.91042325
2.60750,-53.35197851
2.60800,-54.87795055
2.60850,-38.09225813
2.60900,-13.98189992
2.60950,-0.8585403903
2.61000,0.05704283282
2.61050,-0.8585403903
2.61100,-3.910484467
2.61150,-8.488400583
2.61200,-3.910484467
2.61250,13.18040236
2.61300,27.82973393
2.61350,24.16740104
2.61400,11.34923592
2.61450,9.823263879
2.61500,24.47259545
2.61550,45.53100958
2.61600,68.11539575
2.61650,95.58289244
2.61700,124.2711668
2.61750,144.1088033
2.61800,149.6023026
2.61850,142.2776368
2.61900,124.5763612
2.61950,101.991975
2.62000,82.1543385
2.62050,67.19981253
2.62100,53.16086977
2.62150,42.4790655
2.62200,46.1413984
2.62250,65.9790349
2.62300,87.03744903
2.62350,94.0569204
2.62400,87.34264344
2.62450,69.64136779
2.62500,36.68037176
2.62550,-10.01437262
2.62600,-53.04678411
2.62650,-74.10519824
2.62700,-75.93636468
2.62750,-71.66364298
2.62800,-62.81300515
2.62850,-43.58575747
2.62900,-19.47539926
2.62950,-2.384512429
2.63000,7.686903025
2.63050,20.19987374
2.63100,30.2712892
2.63150,22.94662341
2.63200,1.583014871
2.63250,-11.84553907
2.63300,-7.878011767
2.63350,-0.5533459826
2.63400,2.498598094
2.63450,18.97909611
2.63500,63.53747963
2.63550,114.1997513
2.63600,130.9854437
2.63650,105.9595023
2.63700,67.81020134
2.63750,37.90114939
2.63800,6.771319802
2.63850,-40.53381339
2.63900,-91.80647389
2.63950,-122.3259147
2.64000,-128.4298028
2.64050,-127.819414
2.64100,-131.1765525
2.64150,-129.0401916
2.64200,-110.1181383
2.64250,-77.15714232
2.64300,-44.8065351
2.64350,-20.08578808
2.64400,1.277820464
2.64450,28.13492834
2.64500,58.0439803
2.64550,75.44006154
2.64600,69.33617338
2.64650,48.88814807
2.64700,33.62842768
2.64750,29.96609479
2.64800,27.21934512
2.64850,19.58948493
2.64900,15.92715203
2.64950,19.58948493
2.65000,15.01156881
2.65050,-9.709178214
2.65100,-42.97536865
2.65150,-64.33897719
2.65200,-71.35844857
2.65250,-69.52728212
2.65300,-54.87795055
2.65350,-21.0013713
2.65400,15.01156881
2.65450,26.3037619
2.65500,7.992097433
2.65550,-19.47539926
2.65600,-41.75459102
2.65650,-64.33897719
2.65700,-92.4168627
2.65750,-115.6116377
2.65800,-123.5466923
2.65850,-116.2220265
2.65900,-98.82594526
2.65950,-73.80000383
2.66000,-46.94289595
2.66050,-25.27409301
2.66100,-7.57281736
2.66150,13.79079118
2.66200,39.12192702
2.66250,55.60242503
2.66300,59.26475793
2.66350,62.316702
2.66400,73.9140895
2.66450,85.20628258
2.66500,84.90108817
2.66550,78.49200561
2.66600,77.27122798
2.66650,78.79720002
2.66700,71.77772864
2.66750,56.82320267
2.66800,45.22581517
2.66850,36.68037176
2.66900,15.92715203
2.66950,-26.49487064
2.67000,-75.93636468
2.67050,-105.8454166
2.67100,-105.2350278
2.67150,-84.78700251
2.67200,-62.50781075
2.67250,-50.60522885
2.67300,-46.94289595
2.67350,-42.97536865
2.67400,-34.12473083
2.67450,-24.9688986
2.67500,-18.25462163
2.67550,-1.468929206
2.67600,40.34270465
2.67650,97.7192533
2.67700,134.3425822
2.67750,125.7971388
2.67800,88.25822666
2.67850,58.65436911
2.67900,54.68684181
2.67950,69.64136779
2.68000,91.31017074
2.68050,113.5893625
2.68100,131.5958326
2.68150,140.7516648
2.68200,140.4464704
2.68250,129.1542773
2.68300,103.517947
2.68350,69.64136779
2.68400,47.66737043
2.68450,48.58295366
2.68500,54.68684181
2.68550,41.56348228
2.68600,12.26481914
2.68650,-7.878011767
2.68700,-12.15073348
2.68750,-16.72864959
2.68800,-28.32603708
2.68850,-34.73511965
2.68900,-32.29356438
2.68950,-37.78706372
2.69000,-60.6766443
2.69050,-85.70258573
2.69100,-93.33244592
2.69150,-85.09219692
2.69200,-73.49480942
2.69250,-60.37144989
2.69300,-42.97536865
2.69350,-27.10525945
2.69400,-19.17020485
2.69450,-13.0663167
2.69500,-2.994901244
2.69550,1.583014871
2.69600,-10.62476144
2.69650,-35.04031405
2.69700,-50.30003444
2.69750,-42.36497984
2.69800,-16.42345518
2.69850,10.12845829
2.69900,23.55701223
2.69950,18.97909611
2.70000,2.193403687
2.70050,-18.86501044
2.70100,-42.67017425
2.70150,-67.69611568
2.70200,-81.42986402
2.70250,-71.05325416
2.70300,-38.70264695
2.70350,-5.741650914
2.70400,9.518069472
2.70450,7.686903025
2.70500,-2.079318021
2.70550,-11.23515025
2.70600,-12.76112229
2.70650,-3.300095652
2.70700,8.297291841
2.70750,9.518069472
2.70800,0.9726260559
2.70850,-2.689706836
2.70900,2.193403687
2.70950,6.160930987
2.71000,3.414181318
2.71050,4.329764541
2.71100,15.01156881
2.71150,22.641429
2.71200,15.31676322
2.71250,-0.2481515749
2.71300,-16.11826078
2.71350,-35.65070287
2.71400,-63.11819956
2.71450,-85.09219692
2.71500,-86.00778014
2.71550,-70.13767094
2.71600,-53.35197851
2.71650,-42.36497984
2.71700,-32.59875879
2.71750,-21.0013713
2.71800,-5.741650914
2.71850,15.62195763
2.71900,38.2063438
2.71950,48.27775925
2.72000,40.03751024
2.72050,25.38817867
2.72100,12.87520796
2.72150,-5.436456506
2.72200,-38.09225813
2.72250,-74.10519824
2.72300,-103.098667
2.72350,-130.2609693
2.72400,-157.7284659
2.72450,-169.020659
2.72500,-153.7609386
2.72550,-131.4817469
2.72600,-125.6830531
2.72650,-127.5142196
2.72700,-110.1181383
2.72750,-67.69611568
2.72800,-13.0663167
2.72850,45.22581517
2.72900,99.55041974
2.72950,129.4594717
2.73000,126.712722
2.73050,119.6932507
2.73100,137.3945263
2.73150,161.5048845
2.73200,147.1607473
2.73250,94.0569204
2.73300,45.22581517
2.73350,24.77778986
2.73400,9.823263879
2.73450,-15.50787196
2.73500,-31.37798116
2.73550,-17.33903841
2.73600,7.381708618
2.73650,16.53754085
2.73700,14.40117999
2.73750,22.641429
2.73800,41.56348228
2.73850,52.24528655
2.73900,47.36217603
2.73950,37.90114939
2.74000,32.71284446
2.74050,31.49206683
2.74100,34.5440109
2.74150,44.31023195
2.74200,56.82320267
2.74250,66.2842293
2.74300,73.30370068
2.74350,85.51147699
2.74400,105.0439191
2.74450,124.8815556
2.74500,136.1737487
2.74550,135.2581654
2.74600,119.6932507
2.74650,89.7841987
2.74700,49.80373129
2.74750,9.212875064
2.74800,-23.44292656
2.74850,-50.30003444
2.74900,-78.37791995
2.74950,-107.9817775
2.75000,-127.2090252
2.75050,-126.5986364
2.75100,-111.338916
2.75150,-94.24802915
2.75200,-77.46233672
2.75250,-52.13120088
2.75300,-20.08578808
2.75350,0.3622372405
2.75400,-0.2481515749
2.75450,-5.131262098
2.75500,7.07651421
2.75550,30.88167801
2.75600,42.78425991
2.75650,38.2063438
2.75700,34.84920531
2.75750,38.2063438
2.75800,29.66090038
2.75850,-1.468929206
2.75900,-35.95589728
2.75950,-49.07925681
2.76000,-43.58575747
2.76050,-41.75459102
2.76100,-53.96236733
2.76150,-70.74805975
2.76200,-80.81947521
2.76250,-82.34544725
2.76300,-74.41039265
2.76350,-58.84547785
2.76400,-44.19614628
2.76450,-41.14420221
2.76500,-46.63770155
2.76550,-43.89095188
2.76600,-20.69617689
2.76650,17.75831848
2.76700,52.55048096
2.76750,62.0115076
2.76800,38.5115382
2.76850,-2.079318021
2.76900,-31.07278675
2.76950,-30.76759235
2.77000,-7.57281736
2.77050,18.6739017
2.77100,35.15439972
2.77150,39.73231583
2.77200,37.90114939
2.77250,35.45959413
2.77300,31.79726123
2.77350,19.89467933
2.77400,1.277820464
2.77450,-2.079318021
2.77500,25.38817867
2.77550,65.06345167
2.77600,74.52447831
2.77650,44.00503754
2.77700,9.212875064
2.77750,5.245347764
2.77800,23.86220663
2.77850,38.5115382
2.77900,45.22581517
2.77950,57.12839707
2.78000,74.52447831
2.78050,83.68031054
2.78100,82.1543385
2.78150,79.40758884
2.78200,78.1868112
2.78250,72.38811746
2.78300,58.65436911
2.78350,42.78425991
2.78400,31.18687242
2.78450,29.66090038
2.78500,40.03751024
2.78550,53.16086977
2.78600,51.02450892
2.78650,30.2712892
2.78700,7.381708618
2.78750,-0.5533459826
2.78800,-0.8585403903
2.78850,-7.57281736
2.78900,-20.69617689
2.78950,-31.98836998
2.79000,-44.19614628
2.79050,-62.81300515
2.79100,-82.04025284
2.79150,-88.75452981
2.79200,-83.56622488
2.79250,-80.20908639
2.79300,-84.78700251
2.79350,-89.67011303
2.79400,-85.39739132
2.79450,-71.05325416
2.79500,-53.04678411
2.79550,-39.61823017
2.79600,-36.26109168
2.79650,-37.78706372
2.79700,-31.98836998
2.79750,-16.11826078
2.79800,-2.384512429
2.79850,-0.5533459826
2.79900,-4.520873283
2.79950,-3.910484467
2.80000,1.888209279
2.80050,5.550542171
2.80100,3.414181318
2.80150,0.05704283282
2.80200,0.05704283282
2.80250,7.07651421
2.80300,21.42065137
2.80350,36.68037176
2.80400,43.39464873
2.80450,33.93362209
2.80500,7.07651421
2.80550,-36.8714805
2.80600,-88.75452981
2.80650,-124.4622755
2.80700,-126.5986364
2.80750,-110.1181383
2.80800,-109.2025551
2.80850,-129.345386
2.80900,-136.9752462
2.80950,-105.5402222
2.81000,-50.30003444
2.81050,-8.488400583
2.81100,2.803792502
2.81150,-6.962428544
2.81200,-23.44292656
2.81250,-31.98836998
2.81300,-24.35850978
2.81350,-5.436456506
2.81400,10.12845829
2.81450,21.42065137
2.81500,41.25828787
2.81550,71.77772864
2.81600,89.47900429
2.81650,77.8816168
2.81700,55.29723063
2.81750,50.1089257
2.81800,63.84267404
2.81850,75.44006154
2.81900,72.69331187
2.81950,62.62189641
2.82000,54.68684181
2.82050,52.85567537
2.82100,62.316702
2.82150,81.54394969
2.82200,98.94003093
2.82250,103.8231415
2.82300,100.7711974
2.82350,98.94003093
2.82400,98.02444771
2.82450,93.14133718
2.82500,87.34264344
2.82550,84.29069936
2.82600,77.27122798
2.82650,59.26475793
2.82700,39.12192702
2.82750,29.35570597
2.82800,26.6089563
2.82850,16.84273526
2.82900,0.05704283282
2.82950,-11.54034466
2.83000,-11.23515025
2.83050,-5.131262098
2.83100,0.3622372405
2.83150,3.10898691
2.83200,1.583014871
2.83250,-2.079318021
2.83300,-2.994901244
2.83350,-0.5533459826
2.83400,-3.60529006
2.83450,-18.86501044
2.83500,-36.8714805
2.83550,-42.67017425
2.83600,-36.26109168
2.83650,-31.98836998
2.83700,-38.70264695
2.83750,-49.07925681
2.83800,-49.07925681
2.83850,-31.07278675
2.83900,-2.079318021
2.83950,22.03104019
2.84000,30.88167801
2.84050,28.74531716
2.84100,27.82973393
2.84150,29.35570597
2.84200,23.25181782
2.84250,7.381708618
2.84300,-8.183206175
2.84350,-18.25462163
2.84400,-27.71564827
2.84450,-37.17667491
2.84500,-39.00784135
2.84550,-33.81953642
2.84600,-39.31303576
2.84650,-64.94936601
2.84700,-97.60516763
2.84750,-118.0531929
2.84800,-124.1570811
2.84850,-127.819414
2.84900,-136.3648574
2.84950,-150.0986058
2.85000,-166.8842982
2.85050,-179.0920745
2.85100,-167.494687
2.85150,-117.1376097
2.85200,-38.09225813
2.85250,39.42712143
2.85300,85.51147699
2.85350,90.0893931
2.85400,64.14786845
2.85450,28.44012275
2.85500,0.05704283282
2.85550,-13.67670551
2.85600,-11.54034466
2.85650,3.414181318
2.85700,26.91415071
2.85750,53.77125859
2.85800,79.40758884
2.85850,95.58289244
2.85900,90.39458751
2.85950,66.2842293
2.86000,47.97256484
2.86050,50.4141201
2.86100,45.22581517
2.86150,-6.962428544
2.86200,-91.50127948
2.86250,-138.5012183
2.86300,-106.4558055
2.86350,-32.59875879
2.86400,17.14792966
2.86450,23.25181782
2.86500,8.297291841
2.86550,-10.62476144
2.86600,-32.29356438
2.86650,-48.7740624
2.86700,-48.46886799
2.86750,-30.15720353
2.86800,3.414181318
2.86850,51.94009214
2.86900,99.55041974
2.86950,110.232224
2.87000,72.08292305
2.87050,22.3362346
2.87100,8.907680656
2.87150,33.32323327
2.87200,64.75825727
2.87250,90.0893931
2.87300,115.4205289
2.87350,133.426999
2.87400,125.18675
2.87450,96.19328126
2.87500,72.38811746
2.87550,59.87514674
2.87600,40.34270465
2.87650,7.381708618
2.87700,-20.69617689
2.87750,-33.20914761
2.87800,-41.44939661
2.87850,-55.18314496
2.87900,-64.6441716
2.87950,-60.6766443
2.88000,-51.52081207
2.88050,-50.60522885
2.88100,-55.79353378
2.88150,-58.54028345
2.88200,-56.709117
2.88250,-52.7415897
2.88300,-45.72211832
2.88350,-38.09225813
2.88400,-34.73511965
2.88450,-32.9039532
2.88500,-22.52734334
2.88550,-2.994901244
2.88600,13.48559677
2.88650,19.89467933
2.88700,22.03104019
2.88750,22.3362346
2.88800,17.75831848
2.88850,10.43365269
2.88900,11.65443033
2.88950,19.58948493
2.89000,14.40117999
2.89050,-13.0663167
2.89100,-45.11172951
2.89150,-57.31950582
2.89200,-46.02731273
2.89250,-23.13773215
2.89300,1.277820464
2.89350,18.97909611
2.89400,18.6739017
2.89450,1.888209279
2.89500,-9.403983806
2.89550,-2.079318021
2.89600,9.823263879
2.89650,5.245347764
2.89700,-10.62476144
2.89750,-17.33903841
2.89800,-9.403983806
2.89850,-0.2481515749
2.89900,2.498598094
2.89950,0.6674316482
2.90000,-11.84553907
2.90050,-41.14420221
2.90100,-70.13767094
2.90150,-67.39092127
2.90200,-29.24162031
2.90250,9.823263879
2.90300,17.75831848
2.90350,0.05704283282
2.90400,-12.45592788
2.90450,-4.520873283
2.90500,13.79079118
2.90550,31.49206683
2.90600,50.71931451
2.90650,72.69331187
2.90700,85.51147699
2.90750,74.2192839
2.90800,44.92062076
2.90850,15.92715203
2.90900,-11.23515025
2.90950,-54.87795055
2.91000,-118.6635818
2.91050,-173.9037696
2.91100,-188.8582955
2.91150,-161.6959932
2.91200,-113.4752768
2.91250,-63.42339397
2.91300,-24.05331538
2.91350,-8.183206175
2.91400,-16.42345518
2.91450,-26.80006504
2.91500,-17.94942722
2.91550,8.297291841
2.91600,42.78425991
2.91650,86.73225462
2.91700,139.5308872
2.91750,175.5438273
2.91800,168.8295503
2.91850,134.952971
2.91900,114.1997513
2.91950,122.7451947
2.92000,140.141276
2.92050,145.6347753
2.92100,137.0893319
2.92150,112.3685849
2.92200,69.03097897
2.92250,22.3362346
2.92300,-3.300095652
2.92350,-8.488400583
2.92400,-16.42345518
2.92450,-36.26109168
2.92500,-49.07925681
2.92550,-40.53381339
2.92600,-20.08578808
2.92650,-1.163734798
2.92700,17.45312407
2.92750,39.12192702
2.92800,51.32970333
2.92850,43.39464873
2.92900,23.25181782
2.92950,9.212875064
2.93000,10.12845829
2.93050,18.36870729
