type,name,time_units,begin_time,frequency,count,units
signal_3d,"Noraxon MyoMotion-Segments-Forearm RT-Sensor Acceleration","s",0.0000,200,5088,"mG"

time,x,y,z
0.0000,-960.4492188,218.75,207.03125
0.0050,-952.6367188,220.703125,207.5195313
0.0100,-958.4960938,217.7734375,217.7734375
0.0150,-958.4960938,207.03125,191.40625
0.0200,-961.9140625,204.5898438,213.3789063
0.0250,-963.8671875,196.2890625,203.6132813
0.0300,-963.8671875,195.8007813,201.171875
0.0350,-965.3320313,186.5234375,198.2421875
0.0400,-966.796875,178.2226563,198.7304688
0.0450,-960.9375,171.875,193.8476563
0.0500,-958.984375,169.4335938,195.8007813
0.0550,-957.03125,159.1796875,200.1953125
0.0600,-951.6601563,163.5742188,197.7539063
0.0650,-951.171875,155.2734375,196.7773438
0.0700,-943.359375,154.296875,191.40625
0.0750,-946.2890625,156.25,192.8710938
0.0800,-957.5195313,148.4375,194.3359375
0.0850,-952.6367188,147.9492188,198.2421875
0.0900,-949.7070313,159.6679688,204.5898438
0.0950,-947.7539063,161.1328125,200.1953125
0.1000,-956.0546875,151.3671875,203.6132813
0.1050,-949.7070313,155.7617188,204.1015625
0.1100,-948.2421875,162.5976563,208.0078125
0.1150,-955.5664063,155.2734375,201.171875
0.1200,-951.6601563,168.9453125,203.125
0.1250,-956.5429688,173.3398438,212.4023438
0.1300,-950.1953125,192.3828125,199.21875
0.1350,-962.4023438,163.5742188,214.3554688
0.1400,-950.6835938,188.9648438,201.171875
0.1450,-954.1015625,194.3359375,207.5195313
0.1500,-960.9375,198.7304688,216.3085938
0.1550,-962.4023438,205.078125,206.5429688
0.1600,-962.4023438,207.5195313,208.4960938
0.1650,-965.8203125,213.8671875,204.5898438
0.1700,-964.84375,222.1679688,204.5898438
0.1750,-965.3320313,225.5859375,202.6367188
0.1800,-970.703125,226.0742188,193.359375
0.1850,-964.3554688,234.375,200.1953125
0.1900,-969.7265625,234.8632813,198.2421875
0.1950,-962.890625,231.9335938,192.3828125
0.2000,-959.9609375,231.4453125,194.8242188
0.2050,-958.0078125,226.5625,188.4765625
0.2100,-958.4960938,222.1679688,195.8007813
0.2150,-962.4023438,211.4257813,191.8945313
0.2200,-959.9609375,211.9140625,184.0820313
0.2250,-958.4960938,214.3554688,187.0117188
0.2300,-964.84375,208.0078125,187.5
0.2350,-954.5898438,205.5664063,182.1289063
0.2400,-960.9375,208.0078125,194.3359375
0.2450,-960.9375,208.0078125,193.359375
0.2500,-968.2617188,205.078125,197.7539063
0.2550,-965.8203125,204.5898438,200.1953125
0.2600,-963.8671875,208.984375,194.3359375
0.2650,-970.703125,198.7304688,191.40625
0.2700,-957.5195313,205.078125,203.6132813
0.2750,-962.890625,197.265625,188.9648438
0.2800,-963.3789063,196.2890625,200.1953125
0.2850,-954.5898438,198.2421875,202.1484375
0.2900,-959.4726563,197.7539063,188.9648438
0.2950,-958.0078125,188.4765625,196.2890625
0.3000,-950.1953125,186.5234375,187.0117188
0.3050,-956.0546875,178.2226563,187.0117188
0.3100,-955.078125,177.2460938,186.0351563
0.3150,-962.4023438,165.5273438,179.6875
0.3200,-960.4492188,168.4570313,175.78125
0.3250,-962.4023438,172.3632813,179.1992188
0.3300,-962.890625,185.0585938,195.3125
0.3350,-965.3320313,187.5,188.4765625
0.3400,-957.03125,194.8242188,184.0820313
0.3450,-968.75,186.0351563,176.7578125
0.3500,-974.609375,187.9882813,193.359375
0.3550,-964.84375,200.6835938,188.4765625
0.3600,-965.8203125,201.171875,191.8945313
0.3650,-963.3789063,205.078125,192.8710938
0.3700,-964.84375,204.5898438,210.4492188
0.3750,-955.5664063,203.6132813,200.6835938
0.3800,-951.171875,207.5195313,196.7773438
0.3850,-957.5195313,202.6367188,188.9648438
0.3900,-971.6796875,194.8242188,193.8476563
0.3950,-964.3554688,190.9179688,189.9414063
0.4000,-965.3320313,191.40625,210.4492188
0.4050,-970.703125,186.0351563,189.9414063
0.4100,-970.703125,190.9179688,204.1015625
0.4150,-970.703125,192.3828125,196.7773438
0.4200,-968.2617188,203.125,201.6601563
0.4250,-970.703125,207.03125,200.6835938
0.4300,-967.7734375,210.4492188,203.125
0.4350,-967.7734375,212.890625,191.40625
0.4400,-958.984375,226.5625,183.1054688
0.4450,-952.6367188,225.5859375,183.59375
0.4500,-955.5664063,221.1914063,182.6171875
0.4550,-955.078125,218.2617188,186.5234375
0.4600,-959.4726563,225.0976563,189.453125
0.4650,-965.3320313,228.0273438,190.9179688
0.4700,-969.2382813,219.7265625,198.2421875
0.4750,-977.0507813,212.890625,193.359375
0.4800,-975.0976563,212.4023438,208.0078125
0.4850,-967.2851563,218.2617188,191.40625
0.4900,-967.2851563,217.2851563,205.5664063
0.4950,-964.3554688,220.2148438,193.8476563
0.5000,-971.1914063,213.3789063,193.359375
0.5050,-961.9140625,211.4257813,181.1523438
0.5100,-967.7734375,206.0546875,168.4570313
0.5150,-962.4023438,207.5195313,178.7109375
0.5200,-964.84375,210.4492188,168.4570313
0.5250,-961.9140625,215.8203125,181.640625
0.5300,-959.4726563,217.7734375,167.96875
0.5350,-963.8671875,215.8203125,161.6210938
0.5400,-962.4023438,219.2382813,166.015625
0.5450,-952.6367188,212.890625,160.6445313
0.5500,-950.1953125,214.84375,161.1328125
0.5550,-954.1015625,211.9140625,143.0664063
0.5600,-958.0078125,215.8203125,160.6445313
0.5650,-966.796875,212.890625,161.1328125
0.5700,-982.9101563,199.7070313,169.4335938
0.5750,-980.9570313,195.3125,161.1328125
0.5800,-976.0742188,207.03125,161.1328125
0.5850,-975.0976563,202.1484375,170.8984375
0.5900,-972.65625,206.0546875,162.109375
0.5950,-969.7265625,216.3085938,172.3632813
0.6000,-963.8671875,223.6328125,166.015625
0.6050,-975.0976563,218.75,166.5039063
0.6100,-962.890625,231.4453125,173.828125
0.6150,-964.84375,226.5625,166.015625
0.6200,-965.8203125,232.421875,161.6210938
0.6250,-963.8671875,238.28125,160.6445313
0.6300,-961.9140625,241.6992188,163.5742188
0.6350,-952.6367188,242.6757813,163.5742188
0.6400,-947.265625,240.234375,165.5273438
0.6450,-949.21875,243.1640625,159.1796875
0.6500,-945.3125,240.234375,158.203125
0.6550,-947.7539063,234.8632813,171.875
0.6600,-960.4492188,223.1445313,172.8515625
0.6650,-961.9140625,224.1210938,179.1992188
0.6700,-960.9375,227.0507813,176.2695313
0.6750,-967.2851563,221.1914063,178.2226563
0.6800,-973.1445313,225.0976563,193.359375
0.6850,-974.609375,227.0507813,180.1757813
0.6900,-975.0976563,231.9335938,191.40625
0.6950,-962.890625,239.2578125,183.1054688
0.7000,-966.796875,234.375,183.59375
0.7050,-946.7773438,252.4414063,163.5742188
0.7100,-948.7304688,250.4882813,166.5039063
0.7150,-952.6367188,246.09375,168.9453125
0.7200,-949.7070313,257.8125,166.5039063
0.7250,-957.03125,254.8828125,163.0859375
0.7300,-960.9375,257.8125,154.7851563
0.7350,-957.5195313,265.625,166.5039063
0.7400,-966.3085938,266.1132813,160.15625
0.7450,-963.8671875,275.390625,165.0390625
0.7500,-951.6601563,288.5742188,159.1796875
0.7550,-946.2890625,289.5507813,169.4335938
0.7600,-947.7539063,287.109375,166.5039063
0.7650,-942.3828125,290.5273438,166.9921875
0.7700,-948.7304688,281.25,173.828125
0.7750,-952.1484375,284.6679688,155.2734375
0.7800,-954.5898438,289.0625,169.921875
0.7850,-957.5195313,287.109375,173.3398438
0.7900,-943.8476563,290.5273438,156.7382813
0.7950,-948.2421875,287.109375,156.7382813
0.8000,-944.8242188,296.875,150.390625
0.8050,-942.3828125,308.1054688,148.4375
0.8100,-947.265625,310.546875,163.0859375
0.8150,-947.265625,312.9882813,158.203125
0.8200,-938.4765625,321.2890625,165.5273438
0.8250,-944.8242188,313.9648438,162.109375
0.8300,-940.9179688,306.640625,154.7851563
0.8350,-947.7539063,308.59375,159.6679688
0.8400,-956.5429688,318.359375,162.109375
0.8450,-954.1015625,336.9140625,162.109375
0.8500,-946.7773438,348.1445313,170.8984375
0.8550,-940.9179688,350.5859375,157.7148438
0.8600,-931.640625,353.0273438,177.2460938
0.8650,-940.9179688,347.1679688,163.0859375
0.8700,-943.359375,334.9609375,165.5273438
0.8750,-947.7539063,328.125,172.3632813
0.8800,-942.3828125,326.6601563,155.7617188
0.8850,-949.7070313,325.1953125,161.1328125
0.8900,-947.7539063,331.5429688,158.203125
0.8950,-947.265625,331.5429688,150.8789063
0.9000,-941.8945313,354.4921875,163.0859375
0.9050,-942.8710938,357.9101563,164.5507813
0.9100,-937.9882813,375,166.9921875
0.9150,-943.8476563,365.7226563,170.8984375
0.9200,-940.9179688,369.6289063,177.2460938
0.9250,-933.1054688,371.09375,177.734375
0.9300,-930.6640625,364.7460938,169.921875
0.9350,-926.7578125,365.7226563,175.2929688
0.9400,-938.4765625,362.7929688,166.5039063
0.9450,-941.8945313,364.7460938,183.59375
0.9500,-939.453125,376.953125,177.734375
0.9550,-942.3828125,372.5585938,165.0390625
0.9600,-941.8945313,382.3242188,167.96875
0.9650,-936.0351563,399.4140625,161.1328125
0.9700,-931.1523438,416.5039063,172.3632813
0.9750,-922.3632813,423.3398438,164.0625
0.9800,-919.921875,424.8046875,154.296875
0.9850,-919.4335938,428.7109375,174.3164063
0.9900,-917.96875,427.2460938,158.6914063
0.9950,-920.4101563,431.1523438,152.34375
1.0000,-914.5507813,442.3828125,157.7148438
1.0050,-918.4570313,451.6601563,154.296875
1.0100,-904.296875,468.75,153.3203125
1.0150,-901.3671875,467.7734375,153.8085938
1.0200,-905.2734375,471.1914063,153.8085938
1.0250,-898.4375,476.0742188,157.2265625
1.0300,-885.7421875,492.6757813,156.7382813
1.0350,-888.671875,495.6054688,160.15625
1.0400,-884.765625,507.8125,166.015625
1.0450,-887.2070313,499.0234375,166.5039063
1.0500,-875.4882813,506.3476563,163.0859375
1.0550,-878.4179688,501.4648438,152.8320313
1.0600,-880.3710938,496.5820313,151.3671875
1.0650,-881.3476563,488.28125,136.2304688
1.0700,-874.0234375,491.6992188,147.9492188
1.0750,-868.6523438,498.046875,142.578125
1.0800,-876.953125,500.4882813,144.0429688
1.0850,-870.6054688,515.625,145.0195313
1.0900,-854.4921875,534.6679688,160.6445313
1.0950,-857.421875,539.0625,147.9492188
1.1000,-849.609375,538.0859375,163.0859375
1.1050,-847.65625,541.9921875,157.2265625
1.1100,-842.7734375,547.8515625,160.6445313
1.1150,-840.8203125,553.7109375,168.9453125
1.1200,-845.703125,553.2226563,158.203125
1.1250,-841.3085938,559.0820313,167.96875
1.1300,-832.03125,562.0117188,164.5507813
1.1350,-829.1015625,559.0820313,171.3867188
1.1400,-828.125,552.2460938,166.5039063
1.1450,-837.890625,561.5234375,165.5273438
1.1500,-834.9609375,574.21875,171.875
1.1550,-832.5195313,575.6835938,166.9921875
1.1600,-819.3359375,586.9140625,186.0351563
1.1650,-825.6835938,582.5195313,174.8046875
1.1700,-820.8007813,591.796875,187.0117188
1.1750,-818.8476563,596.6796875,182.6171875
1.1800,-825.6835938,594.2382813,179.6875
1.1850,-812.5,605.46875,198.2421875
1.1900,-802.734375,612.3046875,180.1757813
1.1950,-804.6875,611.8164063,203.125
1.2000,-802.2460938,624.5117188,176.2695313
1.2050,-801.2695313,628.4179688,189.9414063
1.2100,-803.2226563,633.7890625,185.546875
1.2150,-795.8984375,640.625,192.3828125
1.2200,-800.78125,634.2773438,189.453125
1.2250,-800.78125,626.4648438,173.828125
1.2300,-799.8046875,625.9765625,186.0351563
1.2350,-803.2226563,625.9765625,184.5703125
1.2400,-805.1757813,627.4414063,181.640625
1.2450,-809.0820313,630.859375,180.1757813
1.2500,-808.59375,641.1132813,178.7109375
1.2550,-796.875,652.8320313,175.78125
1.2600,-797.8515625,656.25,173.828125
1.2650,-786.6210938,667.4804688,179.6875
1.2700,-783.203125,669.4335938,185.546875
1.2750,-783.6914063,669.921875,192.3828125
1.2800,-778.8085938,679.6875,173.828125
1.2850,-767.0898438,687.5,186.0351563
1.2900,-760.7421875,695.8007813,175.78125
1.2950,-757.8125,697.265625,175.2929688
1.3000,-761.2304688,699.21875,169.4335938
1.3050,-749.0234375,704.1015625,180.6640625
1.3100,-758.3007813,687.0117188,158.203125
1.3150,-746.09375,696.2890625,162.5976563
1.3200,-743.1640625,697.7539063,168.9453125
1.3250,-739.7460938,699.7070313,170.8984375
1.3300,-730.46875,702.6367188,169.4335938
1.3350,-727.0507813,692.8710938,155.7617188
1.3400,-718.2617188,706.5429688,173.828125
1.3450,-712.890625,717.7734375,165.0390625
1.3500,-709.9609375,731.4453125,172.3632813
1.3550,-694.8242188,754.8828125,179.1992188
1.3600,-693.359375,759.765625,172.3632813
1.3650,-681.640625,765.1367188,186.5234375
1.3700,-681.640625,769.0429688,183.59375
1.3750,-668.4570313,787.5976563,193.359375
1.3800,-669.921875,788.5742188,183.59375
1.3850,-667.4804688,787.5976563,186.0351563
1.3900,-660.6445313,777.34375,194.3359375
1.3950,-652.8320313,774.9023438,173.3398438
1.4000,-657.7148438,765.625,180.6640625
1.4050,-653.8085938,767.0898438,173.3398438
1.4100,-646.9726563,782.2265625,180.1757813
1.4150,-645.5078125,787.109375,172.8515625
1.4200,-636.2304688,789.5507813,182.6171875
1.4250,-631.8359375,788.0859375,175.78125
1.4300,-625.9765625,788.5742188,175.78125
1.4350,-622.0703125,790.0390625,183.59375
1.4400,-611.8164063,814.453125,184.5703125
1.4450,-613.7695313,819.8242188,186.5234375
1.4500,-602.5390625,833.0078125,190.9179688
1.4550,-603.515625,831.5429688,190.9179688
1.4600,-586.4257813,840.3320313,185.546875
1.4650,-585.4492188,830.078125,179.6875
1.4700,-578.6132813,836.4257813,187.0117188
1.4750,-567.3828125,843.75,181.1523438
1.4800,-563.9648438,842.7734375,194.3359375
1.4850,-553.2226563,852.0507813,179.1992188
1.4900,-558.59375,844.2382813,190.4296875
1.4950,-543.9453125,850.5859375,185.0585938
1.5000,-541.5039063,842.7734375,192.3828125
1.5050,-527.34375,848.1445313,166.5039063
1.5100,-529.7851563,835.9375,180.1757813
1.5150,-527.34375,838.3789063,180.6640625
1.5200,-515.1367188,845.2148438,181.1523438
1.5250,-501.953125,862.7929688,173.828125
1.5300,-504.8828125,862.3046875,175.78125
1.5350,-487.7929688,873.5351563,190.9179688
1.5400,-486.328125,867.6757813,188.9648438
1.5450,-490.234375,854.0039063,189.453125
1.5500,-486.328125,872.0703125,190.9179688
1.5550,-480.46875,881.8359375,183.59375
1.5600,-478.0273438,889.1601563,192.8710938
1.5650,-460.4492188,894.53125,187.5
1.5700,-452.1484375,888.671875,188.9648438
1.5750,-446.7773438,889.6484375,189.453125
1.5800,-440.9179688,897.4609375,187.9882813
1.5850,-441.8945313,891.6015625,189.453125
1.5900,-437.5,884.2773438,182.1289063
1.5950,-424.3164063,881.3476563,185.546875
1.6000,-420.4101563,873.5351563,179.1992188
1.6050,-414.0625,878.4179688,197.7539063
1.6100,-413.5742188,879.3945313,175.2929688
1.6150,-406.25,883.3007813,187.5
1.6200,-407.2265625,878.4179688,190.9179688
1.6250,-399.4140625,884.2773438,193.8476563
1.6300,-394.0429688,894.0429688,181.640625
1.6350,-385.7421875,912.5976563,189.9414063
1.6400,-377.9296875,913.0859375,206.5429688
1.6450,-376.953125,907.7148438,207.5195313
1.6500,-373.5351563,910.6445313,201.6601563
1.6550,-375,910.15625,202.1484375
1.6600,-367.6757813,915.0390625,202.6367188
1.6650,-362.7929688,913.0859375,198.7304688
1.6700,-353.515625,908.203125,203.6132813
1.6750,-347.65625,908.203125,194.3359375
1.6800,-343.75,921.875,194.3359375
1.6850,-342.7734375,919.4335938,198.7304688
1.6900,-336.9140625,912.5976563,208.0078125
1.6950,-333.0078125,909.1796875,205.5664063
1.7000,-320.3125,914.5507813,207.03125
1.7050,-316.40625,918.4570313,204.1015625
1.7100,-313.9648438,908.203125,202.1484375
1.7150,-308.59375,913.5742188,205.5664063
1.7200,-294.921875,921.3867188,199.21875
1.7250,-300.78125,919.921875,204.5898438
1.7300,-294.4335938,929.1992188,196.2890625
1.7350,-292.4804688,923.3398438,207.03125
1.7400,-285.6445313,919.921875,208.984375
1.7450,-274.9023438,921.875,204.1015625
1.7500,-278.3203125,914.0625,207.5195313
1.7550,-269.53125,921.3867188,207.5195313
1.7600,-264.1601563,923.3398438,212.890625
1.7650,-258.3007813,930.6640625,216.3085938
1.7700,-259.765625,929.1992188,215.8203125
1.7750,-244.6289063,929.6875,202.6367188
1.7800,-235.3515625,936.0351563,209.9609375
1.7850,-236.328125,942.3828125,208.4960938
1.7900,-232.421875,944.8242188,212.4023438
1.7950,-216.796875,952.6367188,216.3085938
1.8000,-215.3320313,945.8007813,221.6796875
1.8050,-204.5898438,955.078125,203.125
1.8100,-205.5664063,967.7734375,208.4960938
1.8150,-201.171875,953.125,221.1914063
1.8200,-187.5,953.125,209.4726563
1.8250,-183.1054688,942.8710938,216.796875
1.8300,-182.6171875,940.4296875,202.1484375
1.8350,-180.1757813,959.4726563,206.5429688
1.8400,-178.2226563,980.9570313,200.6835938
1.8450,-181.1523438,978.0273438,213.3789063
1.8500,-169.4335938,967.2851563,214.84375
1.8550,-140.625,952.1484375,214.3554688
1.8600,-142.0898438,935.546875,207.5195313
1.8650,-138.1835938,940.4296875,212.890625
1.8700,-132.3242188,956.0546875,210.9375
1.8750,-125.9765625,966.3085938,219.2382813
1.8800,-120.1171875,969.7265625,226.0742188
1.8850,-111.328125,964.84375,233.8867188
1.8900,-103.515625,960.9375,229.0039063
1.8950,-110.3515625,949.7070313,223.6328125
1.9000,-102.5390625,957.5195313,228.0273438
1.9050,-96.19140625,953.125,236.328125
1.9100,-91.796875,944.8242188,233.8867188
1.9150,-70.80078125,952.6367188,242.1875
1.9200,-74.21875,958.0078125,229.4921875
1.9250,-77.63671875,965.3320313,237.3046875
1.9300,-61.03515625,975.5859375,231.9335938
1.9350,-41.9921875,976.0742188,245.1171875
1.9400,-37.109375,966.3085938,251.953125
1.9450,-33.203125,976.5625,244.140625
1.9500,-42.48046875,991.6992188,259.2773438
1.9550,-38.57421875,994.140625,257.8125
1.9600,-34.66796875,983.3984375,261.2304688
1.9650,-19.53125,975.0976563,266.1132813
1.9700,-16.6015625,973.1445313,248.5351563
1.9750,-25.87890625,967.7734375,254.8828125
1.9800,-22.4609375,975.5859375,255.3710938
1.9850,-24.4140625,980.9570313,254.3945313
1.9900,-1.953125,998.5351563,253.90625
1.9950,-0.48828125,970.2148438,259.2773438
2.0000,1.953125,968.75,248.5351563
2.0050,1.46484375,954.1015625,250.9765625
2.0100,1.953125,957.5195313,258.3007813
2.0150,3.90625,959.4726563,251.4648438
2.0200,18.5546875,977.0507813,251.953125
2.0250,22.4609375,969.2382813,251.4648438
2.0300,23.92578125,968.75,257.8125
2.0350,32.2265625,969.7265625,254.8828125
2.0400,30.76171875,965.3320313,259.2773438
2.0450,44.921875,961.4257813,272.9492188
2.0500,44.43359375,959.9609375,258.3007813
2.0550,50.29296875,950.6835938,265.1367188
2.0600,55.6640625,950.6835938,253.90625
2.0650,57.6171875,948.7304688,267.0898438
2.0700,61.03515625,951.6601563,249.0234375
2.0750,69.3359375,954.5898438,262.6953125
2.0800,71.2890625,956.0546875,267.0898438
2.0850,83.0078125,959.9609375,270.0195313
2.0900,86.9140625,958.4960938,267.0898438
2.0950,89.84375,955.5664063,265.625
2.1000,84.47265625,951.171875,269.0429688
2.1050,85.44921875,951.6601563,272.9492188
2.1100,99.12109375,957.5195313,268.5546875
2.1150,108.8867188,960.9375,263.1835938
2.1200,113.28125,966.796875,272.9492188
2.1250,104.9804688,955.078125,269.53125
2.1300,111.8164063,948.7304688,267.0898438
2.1350,110.3515625,930.6640625,267.0898438
2.1400,118.6523438,933.59375,262.2070313
2.1450,122.0703125,931.1523438,248.5351563
2.1500,136.71875,940.4296875,272.4609375
2.1550,141.6015625,944.8242188,267.578125
2.1600,135.2539063,957.03125,267.0898438
2.1650,136.2304688,964.84375,276.3671875
2.1700,145.9960938,960.9375,272.9492188
2.1750,144.53125,939.453125,269.0429688
2.1800,154.7851563,931.1523438,277.34375
2.1850,157.7148438,923.3398438,272.4609375
2.1900,157.7148438,920.8984375,270.9960938
2.1950,164.5507813,926.2695313,269.0429688
2.2000,167.4804688,912.5976563,269.0429688
2.2050,178.7109375,923.828125,260.7421875
2.2100,187.9882813,936.0351563,258.3007813
2.2150,198.2421875,949.21875,271.9726563
2.2200,198.2421875,943.359375,279.7851563
2.2250,190.4296875,934.5703125,280.2734375
2.2300,191.8945313,937.9882813,268.5546875
2.2350,195.3125,945.3125,280.2734375
2.2400,210.4492188,948.7304688,280.7617188
2.2450,213.8671875,922.8515625,286.1328125
2.2500,221.6796875,902.8320313,268.0664063
2.2550,209.4726563,895.9960938,275.390625
2.2600,208.984375,909.1796875,269.0429688
2.2650,215.3320313,923.828125,266.1132813
2.2700,234.8632813,919.4335938,283.6914063
2.2750,251.953125,896.484375,271.9726563
2.2800,251.953125,879.3945313,273.4375
2.2850,255.859375,881.3476563,267.578125
2.2900,246.5820313,900.390625,282.2265625
2.2950,245.6054688,923.828125,289.0625
2.3000,256.8359375,926.2695313,292.96875
2.3050,270.9960938,911.6210938,284.6679688
2.3100,291.9921875,910.15625,296.3867188
2.3150,288.0859375,903.3203125,290.5273438
2.3200,277.8320313,907.7148438,291.015625
2.3250,271.484375,908.6914063,298.3398438
2.3300,281.25,898.4375,301.7578125
2.3350,294.4335938,894.0429688,287.109375
2.3400,295.8984375,890.1367188,286.6210938
2.3450,298.828125,895.0195313,295.4101563
2.3500,305.1757813,916.9921875,277.8320313
2.3550,305.6640625,908.6914063,300.2929688
2.3600,303.2226563,889.6484375,292.96875
2.3650,310.546875,889.6484375,294.4335938
2.3700,311.0351563,887.6953125,291.015625
2.3750,315.9179688,893.0664063,286.6210938
2.3800,325.1953125,893.5546875,291.5039063
2.3850,339.3554688,894.53125,279.7851563
2.3900,339.84375,886.2304688,295.8984375
2.3950,347.1679688,907.2265625,285.6445313
2.4000,347.65625,912.5976563,295.4101563
2.4050,346.6796875,900.390625,301.7578125
2.4100,349.1210938,881.8359375,295.4101563
2.4150,354.9804688,869.140625,281.7382813
2.4200,362.3046875,881.8359375,293.9453125
2.4250,360.3515625,882.8125,295.8984375
2.4300,368.6523438,886.71875,305.1757813
2.4350,370.1171875,884.2773438,306.1523438
2.4400,373.5351563,879.3945313,291.015625
2.4450,375.4882813,866.2109375,302.2460938
2.4500,383.7890625,857.9101563,304.6875
2.4550,380.3710938,850.0976563,295.8984375
2.4600,388.1835938,856.9335938,296.3867188
2.4650,395.5078125,866.2109375,305.6640625
2.4700,393.0664063,874.5117188,303.2226563
2.4750,395.0195313,878.4179688,310.0585938
2.4800,400.390625,880.3710938,306.1523438
2.4850,412.109375,876.953125,319.3359375
2.4900,413.0859375,863.28125,320.8007813
2.4950,420.8984375,852.5390625,310.546875
2.5000,416.5039063,834.4726563,307.6171875
2.5050,412.109375,821.2890625,308.59375
2.5100,427.734375,827.6367188,294.921875
2.5150,437.9882813,833.4960938,303.7109375
2.5200,437.9882813,827.6367188,307.6171875
2.5250,449.7070313,832.5195313,319.3359375
2.5300,453.125,840.3320313,308.59375
2.5350,452.6367188,853.515625,309.0820313
2.5400,456.0546875,861.8164063,316.8945313
2.5450,459.9609375,872.5585938,319.8242188
2.5500,468.2617188,866.2109375,338.8671875
2.5550,470.2148438,845.2148438,336.4257813
2.5600,467.7734375,822.7539063,326.171875
2.5650,466.3085938,805.1757813,319.3359375
2.5700,467.2851563,801.2695313,316.40625
2.5750,469.2382813,798.828125,314.453125
2.5800,470.2148438,810.0585938,317.8710938
2.5850,474.609375,818.359375,322.7539063
2.5900,478.515625,828.125,311.0351563
2.5950,484.8632813,824.21875,314.9414063
2.6000,493.6523438,822.7539063,317.3828125
2.6050,492.6757813,802.734375,320.8007813
2.6100,485.8398438,791.5039063,327.6367188
2.6150,491.2109375,777.8320313,313.9648438
2.6200,502.4414063,771.9726563,306.640625
2.6250,499.5117188,754.8828125,313.4765625
2.6300,511.2304688,766.1132813,325.6835938
2.6350,516.1132813,782.2265625,312.9882813
2.6400,512.2070313,791.5039063,310.0585938
2.6450,520.9960938,799.8046875,334.4726563
2.6500,533.203125,810.546875,312.5
2.6550,530.2734375,800.2929688,332.5195313
2.6600,528.3203125,793.9453125,336.9140625
2.6650,531.25,783.6914063,325.6835938
2.6700,533.203125,766.1132813,331.5429688
2.6750,531.25,749.0234375,312.9882813
2.6800,537.5976563,756.8359375,318.8476563
2.6850,525.390625,754.3945313,313.9648438
2.6900,539.5507813,762.2070313,315.9179688
2.6950,548.3398438,753.4179688,325.1953125
2.7000,559.5703125,755.859375,316.8945313
2.7050,555.6640625,747.5585938,312.9882813
2.7100,545.4101563,742.6757813,328.125
2.7150,540.5273438,733.8867188,314.9414063
2.7200,552.2460938,748.046875,320.8007813
2.7250,557.1289063,746.09375,319.8242188
2.7300,562.0117188,744.140625,314.9414063
2.7350,564.453125,744.140625,315.4296875
2.7400,561.0351563,749.5117188,327.1484375
2.7450,555.1757813,739.7460938,327.6367188
2.7500,563.9648438,750,313.4765625
2.7550,573.7304688,761.2304688,323.2421875
2.7600,575.6835938,770.5078125,323.7304688
2.7650,571.2890625,770.0195313,311.5234375
2.7700,569.3359375,765.1367188,321.2890625
2.7750,568.359375,746.09375,327.1484375
2.7800,563.4765625,714.84375,312.9882813
2.7850,576.6601563,695.8007813,304.6875
2.7900,594.7265625,723.1445313,315.4296875
2.7950,595.2148438,748.046875,302.734375
2.8000,586.9140625,774.4140625,321.7773438
2.8050,598.1445313,776.3671875,328.125
2.8100,609.375,730.46875,328.125
2.8150,625.9765625,685.0585938,327.1484375
2.8200,629.8828125,661.1328125,309.0820313
2.8250,635.7421875,652.34375,299.8046875
2.8300,629.8828125,655.2734375,298.828125
2.8350,634.2773438,662.109375,302.2460938
2.8400,643.5546875,677.734375,307.6171875
2.8450,641.6015625,680.1757813,305.1757813
2.8500,641.1132813,664.0625,312.9882813
2.8550,650.8789063,652.34375,307.6171875
2.8600,664.0625,649.9023438,312.0117188
2.8650,657.7148438,640.1367188,312.0117188
2.8700,657.2265625,644.53125,305.6640625
2.8750,662.109375,651.3671875,314.9414063
2.8800,658.6914063,652.8320313,319.3359375
2.8850,670.4101563,652.34375,312.5
2.8900,666.5039063,649.9023438,315.9179688
2.8950,667.4804688,648.4375,317.3828125
2.9000,669.921875,668.9453125,302.734375
2.9050,681.640625,676.2695313,340.3320313
2.9100,681.640625,668.9453125,332.03125
2.9150,681.640625,649.4140625,322.265625
2.9200,685.546875,642.578125,325.6835938
2.9250,677.734375,627.4414063,328.6132813
2.9300,684.0820313,621.09375,319.8242188
2.9350,703.125,631.3476563,315.9179688
2.9400,705.5664063,634.2773438,324.21875
2.9450,705.5664063,631.8359375,315.4296875
2.9500,706.0546875,640.625,318.359375
2.9550,712.4023438,642.578125,340.3320313
2.9600,720.2148438,624.0234375,324.21875
2.9650,722.65625,610.8398438,331.0546875
2.9700,724.609375,610.3515625,313.9648438
2.9750,725.0976563,616.6992188,320.8007813
2.9800,707.5195313,603.515625,322.7539063
2.9850,719.2382813,592.7734375,340.8203125
2.9900,727.0507813,594.2382813,310.0585938
2.9950,727.0507813,598.1445313,331.0546875
3.0000,722.65625,595.2148438,336.9140625
3.0050,728.0273438,604.0039063,337.890625
3.0100,729.0039063,604.0039063,334.9609375
3.0150,729.9804688,598.1445313,333.4960938
3.0200,719.7265625,590.8203125,351.0742188
3.0250,717.7734375,575.6835938,333.984375
3.0300,727.5390625,581.0546875,337.890625
3.0350,735.3515625,572.265625,335.9375
3.0400,742.1875,575.1953125,347.65625
3.0450,735.8398438,578.6132813,333.984375
3.0500,738.7695313,577.6367188,335.4492188
3.0550,735.8398438,567.3828125,334.4726563
3.0600,743.1640625,570.8007813,333.4960938
3.0650,739.2578125,562.5,336.9140625
3.0700,744.6289063,562.9882813,353.0273438
3.0750,742.1875,556.1523438,343.75
3.0800,741.2109375,545.8984375,350.5859375
3.0850,740.234375,524.9023438,345.703125
3.0900,742.6757813,529.7851563,337.890625
3.0950,751.953125,545.4101563,337.4023438
3.1000,736.8164063,540.0390625,341.3085938
3.1050,740.234375,536.6210938,347.65625
3.1100,738.7695313,526.3671875,341.3085938
3.1150,744.140625,528.8085938,333.4960938
3.1200,751.953125,555.6640625,332.5195313
3.1250,743.6523438,549.3164063,337.4023438
3.1300,746.09375,563.4765625,330.078125
3.1350,744.140625,560.546875,346.6796875
3.1400,749.0234375,558.59375,346.1914063
3.1450,743.6523438,541.5039063,349.1210938
3.1500,754.3945313,536.1328125,339.3554688
3.1550,751.4648438,530.7617188,337.890625
3.1600,750.4882813,524.4140625,346.1914063
3.1650,752.4414063,526.8554688,330.5664063
3.1700,756.8359375,535.15625,332.5195313
3.1750,749.5117188,518.5546875,328.6132813
3.1800,750,511.71875,343.2617188
3.1850,752.9296875,520.5078125,327.6367188
3.1900,753.4179688,528.3203125,324.21875
3.1950,759.765625,541.5039063,336.9140625
3.2000,756.3476563,542.4804688,348.1445313
3.2050,754.8828125,535.6445313,335.4492188
3.2100,760.2539063,544.4335938,333.984375
3.2150,761.71875,546.875,343.2617188
3.2200,759.765625,541.9921875,341.3085938
3.2250,755.859375,530.2734375,342.7734375
3.2300,751.953125,516.6015625,345.703125
3.2350,752.9296875,498.046875,334.9609375
3.2400,766.1132813,492.1875,340.8203125
3.2450,773.4375,483.3984375,327.1484375
3.2500,768.0664063,475.5859375,351.0742188
3.2550,770.9960938,480.9570313,341.796875
3.2600,774.4140625,478.515625,333.984375
3.2650,779.7851563,479.4921875,335.4492188
3.2700,787.5976563,485.8398438,347.65625
3.2750,780.7617188,471.6796875,340.8203125
3.2800,779.7851563,479.0039063,337.4023438
3.2850,781.25,476.0742188,347.1679688
3.2900,788.5742188,478.515625,341.796875
3.2950,791.5039063,475.5859375,347.65625
3.3000,788.5742188,474.609375,340.3320313
3.3050,791.9921875,472.1679688,342.2851563
3.3100,788.5742188,474.609375,345.2148438
3.3150,782.7148438,474.1210938,331.0546875
3.3200,792.4804688,486.8164063,347.65625
3.3250,788.0859375,479.0039063,344.7265625
3.3300,790.0390625,469.7265625,346.6796875
3.3350,797.3632813,475.5859375,333.984375
3.3400,794.4335938,480.9570313,340.3320313
3.3450,800.78125,485.8398438,343.75
3.3500,799.3164063,480.9570313,343.2617188
3.3550,811.0351563,481.9335938,333.0078125
3.3600,807.1289063,477.5390625,343.2617188
3.3650,809.0820313,493.1640625,334.9609375
3.3700,802.734375,495.6054688,340.3320313
3.3750,807.1289063,475.5859375,345.2148438
3.3800,811.0351563,453.125,345.703125
3.3850,824.7070313,450.1953125,334.4726563
3.3900,816.40625,442.8710938,332.5195313
3.3950,820.8007813,449.7070313,325.1953125
3.4000,810.546875,453.6132813,344.2382813
3.4050,816.40625,459.9609375,334.4726563
3.4100,810.546875,460.9375,327.6367188
3.4150,815.4296875,462.4023438,326.171875
3.4200,813.9648438,466.796875,341.3085938
3.4250,825.6835938,472.1679688,341.3085938
3.4300,834.9609375,475.0976563,344.7265625
3.4350,824.7070313,462.4023438,348.1445313
3.4400,819.8242188,462.4023438,332.03125
3.4450,821.7773438,458.0078125,336.4257813
3.4500,828.125,475.0976563,332.03125
3.4550,825.6835938,484.8632813,342.7734375
3.4600,826.171875,487.7929688,349.609375
3.4650,822.7539063,478.0273438,344.2382813
3.4700,823.2421875,442.3828125,344.2382813
3.4750,812.5,468.75,314.453125
3.4800,824.7070313,443.8476563,344.2382813
3.4850,829.5898438,402.8320313,341.3085938
3.4900,836.4257813,396.9726563,318.8476563
3.4950,846.6796875,415.0390625,327.6367188
3.5000,844.2382813,436.5234375,335.9375
3.5050,841.3085938,437.0117188,348.6328125
3.5100,837.890625,426.7578125,345.2148438
3.5150,843.2617188,410.15625,352.0507813
3.5200,842.7734375,416.9921875,340.3320313
3.5250,850.5859375,421.875,345.703125
3.5300,844.7265625,408.6914063,348.6328125
3.5350,843.2617188,390.1367188,348.6328125
3.5400,850.0976563,393.0664063,347.65625
3.5450,850.0976563,399.4140625,355.46875
3.5500,841.3085938,398.4375,339.84375
3.5550,849.1210938,407.2265625,346.6796875
3.5600,847.65625,402.34375,335.4492188
3.5650,842.7734375,399.9023438,341.3085938
3.5700,833.0078125,402.34375,336.4257813
3.5750,837.890625,417.96875,341.796875
3.5800,852.0507813,422.3632813,348.1445313
3.5850,840.3320313,405.2734375,350.0976563
3.5900,846.6796875,391.1132813,331.0546875
3.5950,842.2851563,397.4609375,335.4492188
3.6000,851.0742188,414.5507813,333.984375
3.6050,848.6328125,408.6914063,337.4023438
3.6100,844.2382813,408.203125,336.9140625
3.6150,837.890625,408.203125,337.890625
3.6200,842.2851563,439.453125,330.078125
3.6250,832.03125,434.0820313,330.078125
3.6300,832.03125,403.8085938,351.5625
3.6350,850.0976563,389.6484375,322.265625
3.6400,851.5625,393.0664063,305.6640625
3.6450,857.9101563,405.2734375,316.40625
3.6500,842.2851563,393.5546875,326.171875
3.6550,841.796875,387.6953125,326.6601563
3.6600,852.0507813,392.578125,315.9179688
3.6650,856.4453125,389.6484375,315.9179688
3.6700,863.28125,380.859375,337.4023438
3.6750,859.375,360.3515625,319.8242188
3.6800,854.4921875,373.5351563,319.8242188
3.6850,849.609375,388.1835938,327.6367188
3.6900,842.2851563,406.25,337.4023438
3.6950,843.2617188,409.6679688,340.8203125
3.7000,850.5859375,415.0390625,330.078125
3.7050,841.796875,398.9257813,343.2617188
3.7100,851.0742188,397.4609375,354.4921875
3.7150,860.8398438,393.5546875,349.1210938
3.7200,860.8398438,389.6484375,355.9570313
3.7250,866.2109375,394.0429688,338.3789063
3.7300,861.8164063,392.578125,368.6523438
3.7350,860.8398438,388.671875,360.3515625
3.7400,874.0234375,399.9023438,364.2578125
3.7450,879.8828125,392.0898438,377.4414063
3.7500,883.7890625,380.3710938,368.6523438
3.7550,897.4609375,379.8828125,374.5117188
3.7600,898.9257813,383.3007813,378.90625
3.7650,902.8320313,378.4179688,368.1640625
3.7700,892.578125,357.421875,374.0234375
3.7750,897.4609375,346.6796875,357.9101563
3.7800,901.8554688,362.3046875,361.8164063
3.7850,906.25,383.3007813,363.7695313
3.7900,894.53125,382.8125,384.765625
3.7950,894.53125,351.5625,372.5585938
3.8000,891.6015625,314.9414063,371.5820313
3.8050,903.8085938,311.5234375,367.6757813
3.8100,907.2265625,321.2890625,357.9101563
3.8150,894.0429688,331.0546875,359.375
3.8200,888.671875,336.9140625,356.4453125
3.8250,875.4882813,323.7304688,364.7460938
3.8300,890.1367188,341.796875,350.0976563
3.8350,885.7421875,345.2148438,358.3984375
3.8400,869.6289063,355.46875,364.7460938
3.8450,860.3515625,338.3789063,358.8867188
3.8500,870.6054688,335.4492188,367.6757813
3.8550,864.2578125,307.1289063,347.1679688
3.8600,869.140625,296.875,333.984375
3.8650,873.5351563,297.3632813,321.2890625
3.8700,881.3476563,311.0351563,341.3085938
3.8750,871.09375,312.9882813,343.2617188
3.8800,858.8867188,309.0820313,329.1015625
3.8850,863.28125,310.0585938,325.6835938
3.8900,860.8398438,312.9882813,319.8242188
3.8950,855.9570313,319.3359375,321.7773438
3.9000,851.0742188,326.6601563,316.40625
3.9050,852.5390625,321.2890625,316.8945313
3.9100,850.0976563,305.1757813,316.8945313
3.9150,850.5859375,284.6679688,305.1757813
3.9200,850.5859375,278.8085938,285.15625
3.9250,853.515625,289.5507813,300.78125
3.9300,850.0976563,301.7578125,297.3632813
3.9350,853.0273438,304.1992188,295.8984375
3.9400,853.0273438,305.1757813,306.1523438
3.9450,851.5625,306.640625,301.7578125
3.9500,850.5859375,314.9414063,307.1289063
3.9550,850.5859375,321.2890625,305.6640625
3.9600,839.3554688,310.546875,300.2929688
3.9650,848.6328125,302.734375,315.4296875
3.9700,855.46875,308.1054688,301.2695313
3.9750,859.8632813,313.4765625,306.1523438
3.9800,849.609375,302.734375,312.9882813
3.9850,853.515625,288.0859375,319.3359375
3.9900,855.9570313,279.7851563,309.0820313
3.9950,866.6992188,284.1796875,303.2226563
4.0000,864.7460938,300.78125,316.40625
4.0050,857.9101563,304.6875,324.7070313
4.0100,866.6992188,318.8476563,309.0820313
4.0150,869.6289063,325.1953125,312.0117188
4.0200,873.046875,313.9648438,315.4296875
4.0250,872.5585938,295.8984375,300.78125
4.0300,889.1601563,294.921875,302.2460938
4.0350,879.3945313,280.2734375,301.7578125
4.0400,873.5351563,269.0429688,306.640625
4.0450,884.2773438,268.0664063,310.0585938
4.0500,895.0195313,272.9492188,312.5
4.0550,895.9960938,278.3203125,317.8710938
4.0600,889.1601563,281.25,312.0117188
4.0650,891.1132813,293.9453125,318.359375
4.0700,882.8125,299.8046875,320.3125
4.0750,884.2773438,291.9921875,343.75
4.0800,890.625,277.8320313,340.3320313
4.0850,915.5273438,271.9726563,332.03125
4.0900,920.4101563,251.953125,329.1015625
4.0950,932.6171875,251.4648438,336.4257813
4.1000,920.4101563,244.6289063,329.1015625
4.1050,924.8046875,248.5351563,322.7539063
4.1100,916.015625,254.3945313,332.5195313
4.1150,927.734375,283.6914063,329.5898438
4.1200,924.8046875,293.9453125,351.5625
4.1250,928.7109375,251.4648438,347.1679688
4.1300,916.5039063,256.8359375,340.3320313
4.1350,926.7578125,243.1640625,362.7929688
4.1400,914.5507813,224.609375,331.0546875
4.1450,930.1757813,243.1640625,347.1679688
4.1500,925.78125,234.8632813,356.4453125
4.1550,931.640625,252.4414063,340.3320313
4.1600,920.4101563,259.765625,346.1914063
4.1650,906.7382813,255.3710938,346.6796875
4.1700,907.2265625,253.90625,348.1445313
4.1750,918.4570313,240.7226563,337.890625
4.1800,913.5742188,240.234375,332.03125
4.1850,909.1796875,237.7929688,322.7539063
4.1900,919.921875,262.2070313,322.265625
4.1950,909.1796875,263.1835938,331.0546875
4.2000,900.8789063,265.1367188,326.171875
4.2050,910.6445313,265.625,328.6132813
4.2100,915.5273438,255.859375,307.6171875
4.2150,892.578125,240.7226563,314.453125
4.2200,900.8789063,264.1601563,312.5
4.2250,902.8320313,275.8789063,309.5703125
4.2300,899.9023438,270.9960938,313.4765625
4.2350,896.484375,258.7890625,300.78125
4.2400,904.7851563,248.5351563,308.59375
4.2450,894.0429688,241.2109375,291.015625
4.2500,904.296875,265.1367188,292.96875
4.2550,902.34375,260.2539063,295.4101563
4.2600,896.484375,252.4414063,289.0625
4.2650,897.4609375,252.4414063,289.5507813
4.2700,905.2734375,255.3710938,291.5039063
4.2750,906.7382813,263.1835938,289.5507813
4.2800,900.8789063,245.1171875,285.6445313
4.2850,900.8789063,232.9101563,292.96875
4.2900,908.6914063,241.2109375,285.15625
4.2950,891.6015625,229.9804688,291.015625
4.3000,888.671875,245.1171875,289.5507813
4.3050,882.3242188,257.8125,289.5507813
4.3100,880.859375,262.6953125,300.2929688
4.3150,881.8359375,253.90625,303.2226563
4.3200,876.953125,244.6289063,302.734375
4.3250,874.0234375,240.234375,305.6640625
4.3300,877.9296875,254.3945313,297.3632813
4.3350,879.3945313,252.9296875,302.2460938
4.3400,875.4882813,253.90625,303.7109375
4.3450,885.7421875,261.2304688,314.453125
4.3500,875.9765625,263.1835938,302.734375
4.3550,877.4414063,283.203125,314.9414063
4.3600,867.6757813,286.1328125,307.6171875
4.3650,874.0234375,284.1796875,319.3359375
4.3700,874.5117188,271.9726563,316.8945313
4.3750,893.5546875,261.2304688,312.9882813
4.3800,898.4375,249.5117188,307.6171875
4.3850,902.8320313,247.0703125,303.7109375
4.3900,892.578125,259.765625,305.1757813
4.3950,893.5546875,276.8554688,307.1289063
4.4000,884.765625,288.5742188,310.0585938
4.4050,891.6015625,309.5703125,302.2460938
4.4100,888.671875,315.9179688,313.9648438
4.4150,894.0429688,304.6875,324.21875
4.4200,882.8125,285.6445313,312.5
4.4250,882.3242188,290.0390625,307.1289063
4.4300,884.765625,306.640625,306.1523438
4.4350,878.90625,308.1054688,310.546875
4.4400,884.765625,322.7539063,311.0351563
4.4450,887.6953125,324.7070313,308.1054688
4.4500,882.8125,312.5,315.9179688
4.4550,889.1601563,312.0117188,302.2460938
4.4600,886.71875,318.359375,297.3632813
4.4650,891.6015625,333.984375,303.2226563
4.4700,887.6953125,341.3085938,312.0117188
4.4750,880.859375,338.3789063,318.359375
4.4800,872.0703125,335.9375,308.1054688
4.4850,879.3945313,344.2382813,303.2226563
4.4900,876.953125,341.3085938,299.8046875
4.4950,884.2773438,358.8867188,313.9648438
4.5000,881.3476563,355.46875,320.3125
4.5050,870.6054688,348.1445313,303.7109375
4.5100,873.5351563,354.4921875,304.6875
4.5150,873.5351563,354.4921875,311.0351563
4.5200,873.5351563,368.6523438,313.4765625
4.5250,865.234375,373.5351563,311.0351563
4.5300,864.2578125,364.7460938,311.0351563
4.5350,862.3046875,363.28125,306.640625
4.5400,859.8632813,361.8164063,321.2890625
4.5450,858.8867188,366.6992188,312.0117188
4.5500,854.4921875,387.2070313,315.4296875
4.5550,853.0273438,389.1601563,305.6640625
4.5600,844.7265625,391.1132813,319.8242188
4.5650,835.9375,387.2070313,316.8945313
4.5700,841.796875,393.5546875,313.9648438
4.5750,843.75,389.1601563,320.3125
4.5800,842.2851563,387.6953125,324.7070313
4.5850,845.703125,394.53125,329.1015625
4.5900,840.8203125,413.0859375,322.7539063
4.5950,843.2617188,426.2695313,314.9414063
4.6000,841.3085938,424.8046875,329.5898438
4.6050,839.3554688,421.3867188,336.4257813
4.6100,840.8203125,427.2460938,316.40625
4.6150,839.84375,433.1054688,315.9179688
4.6200,842.7734375,451.6601563,314.9414063
4.6250,840.3320313,464.3554688,319.3359375
4.6300,825.6835938,460.4492188,326.6601563
4.6350,822.265625,445.8007813,315.4296875
4.6400,827.6367188,432.6171875,326.6601563
4.6450,845.703125,436.5234375,301.2695313
4.6500,831.5429688,428.2226563,311.5234375
4.6550,834.9609375,436.5234375,316.8945313
4.6600,826.6601563,442.3828125,311.0351563
4.6650,824.21875,448.7304688,317.3828125
4.6700,827.1484375,456.0546875,312.0117188
4.6750,837.890625,468.75,318.8476563
4.6800,819.3359375,466.3085938,311.0351563
4.6850,814.9414063,458.984375,315.4296875
4.6900,824.21875,457.5195313,325.1953125
4.6950,832.03125,453.125,298.828125
4.7000,833.4960938,467.2851563,313.9648438
4.7050,819.3359375,470.2148438,311.5234375
4.7100,808.59375,483.8867188,329.1015625
4.7150,796.875,476.5625,319.3359375
4.7200,813.9648438,475.5859375,324.21875
4.7250,813.4765625,452.1484375,322.265625
4.7300,821.7773438,460.9375,314.9414063
4.7350,812.9882813,464.84375,299.3164063
4.7400,804.6875,480.9570313,325.6835938
4.7450,803.7109375,490.7226563,317.3828125
4.7500,798.3398438,492.6757813,313.9648438
4.7550,800.2929688,490.234375,318.359375
4.7600,796.3867188,478.0273438,318.8476563
4.7650,802.734375,473.6328125,322.7539063
4.7700,819.3359375,494.6289063,309.0820313
4.7750,804.6875,491.2109375,315.9179688
4.7800,800.2929688,498.046875,329.1015625
4.7850,788.0859375,491.6992188,319.8242188
4.7900,786.1328125,496.09375,325.6835938
4.7950,790.5273438,516.1132813,307.1289063
4.8000,781.25,525.8789063,315.4296875
4.8050,771.9726563,525.390625,320.3125
4.8100,765.1367188,513.1835938,314.9414063
4.8150,765.1367188,500,306.1523438
4.8200,774.4140625,499.0234375,293.4570313
4.8250,770.9960938,494.6289063,302.734375
4.8300,770.5078125,510.7421875,304.1992188
4.8350,775.390625,527.8320313,304.6875
4.8400,773.9257813,541.9921875,313.9648438
4.8450,771.9726563,539.5507813,321.7773438
4.8500,766.1132813,525.390625,328.6132813
4.8550,772.4609375,521.484375,322.7539063
4.8600,765.1367188,516.6015625,317.8710938
4.8650,766.6015625,529.7851563,321.2890625
4.8700,756.8359375,548.828125,324.7070313
4.8750,752.4414063,562.5,319.8242188
4.8800,738.7695313,574.21875,304.6875
4.8850,729.9804688,568.359375,315.9179688
4.8900,731.9335938,555.1757813,314.9414063
4.8950,728.515625,529.296875,317.8710938
4.9000,738.28125,522.4609375,296.3867188
4.9050,734.375,521.9726563,308.59375
4.9100,735.3515625,535.15625,312.5
4.9150,730.46875,553.2226563,320.8007813
4.9200,716.3085938,566.8945313,313.4765625
4.9250,705.078125,579.1015625,319.3359375
4.9300,705.078125,588.8671875,324.7070313
4.9350,710.9375,603.0273438,322.265625
4.9400,704.5898438,605.46875,334.9609375
4.9450,698.7304688,586.9140625,324.21875
4.9500,708.984375,561.0351563,319.8242188
4.9550,707.5195313,533.203125,312.0117188
4.9600,704.1015625,532.2265625,307.6171875
4.9650,700.6835938,553.2226563,296.3867188
4.9700,692.3828125,590.3320313,299.3164063
4.9750,665.5273438,612.3046875,308.59375
4.9800,655.7617188,637.2070313,312.9882813
4.9850,661.6210938,635.2539063,322.7539063
4.9900,661.1328125,608.3984375,327.6367188
4.9950,670.8984375,578.125,330.5664063
5.0000,674.3164063,576.171875,325.1953125
5.0050,678.2226563,613.28125,323.2421875
5.0100,654.296875,628.4179688,330.5664063
5.0150,642.578125,628.90625,335.9375
5.0200,643.5546875,624.0234375,328.125
5.0250,644.0429688,630.3710938,318.8476563
5.0300,649.4140625,640.625,315.9179688
5.0350,637.2070313,645.9960938,322.265625
5.0400,624.0234375,654.7851563,313.9648438
5.0450,617.1875,656.25,317.8710938
5.0500,605.9570313,643.5546875,319.3359375
5.0550,606.9335938,629.3945313,306.1523438
5.0600,610.8398438,624.0234375,316.40625
5.0650,610.8398438,615.7226563,329.5898438
5.0700,617.6757813,633.7890625,327.1484375
5.0750,616.2109375,651.8554688,322.265625
5.0800,613.28125,695.8007813,315.9179688
5.0850,593.2617188,733.8867188,318.359375
5.0900,577.6367188,751.953125,344.7265625
5.0950,561.5234375,737.7929688,324.21875
5.1000,552.2460938,702.1484375,331.5429688
5.1050,573.7304688,693.359375,323.2421875
5.1100,576.6601563,689.453125,321.2890625
5.1150,571.7773438,714.3554688,309.5703125
5.1200,567.3828125,743.6523438,326.6601563
5.1250,547.3632813,739.2578125,333.0078125
5.1300,552.734375,725.5859375,326.171875
5.1350,560.0585938,696.7773438,329.1015625
5.1400,553.7109375,674.8046875,331.5429688
5.1450,558.59375,677.734375,309.5703125
5.1500,554.1992188,703.125,311.0351563
5.1550,533.6914063,728.0273438,314.453125
5.1600,524.4140625,767.578125,328.6132813
5.1650,505.3710938,767.578125,323.7304688
5.1700,505.859375,767.0898438,337.890625
5.1750,508.7890625,755.3710938,329.5898438
5.1800,513.671875,760.2539063,335.9375
5.1850,517.0898438,772.4609375,338.3789063
5.1900,495.1171875,770.9960938,343.75
5.1950,468.2617188,777.8320313,340.8203125
5.2000,462.890625,782.7148438,329.1015625
5.2050,455.5664063,774.9023438,328.6132813
5.2100,457.03125,761.71875,327.1484375
5.2150,474.1210938,761.71875,331.5429688
5.2200,460.9375,763.671875,323.7304688
5.2250,456.5429688,773.4375,334.4726563
5.2300,450.6835938,790.0390625,333.984375
5.2350,453.125,805.1757813,334.4726563
5.2400,444.8242188,822.7539063,349.609375
5.2450,433.1054688,831.5429688,349.1210938
5.2500,421.3867188,843.2617188,344.2382813
5.2550,412.109375,843.2617188,344.2382813
5.2600,401.8554688,842.2851563,341.796875
5.2650,401.3671875,835.4492188,345.703125
5.2700,391.1132813,814.453125,333.0078125
5.2750,392.578125,810.0585938,326.6601563
5.2800,381.8359375,829.5898438,319.8242188
5.2850,376.953125,855.46875,330.5664063
5.2900,372.0703125,861.328125,338.3789063
5.2950,367.6757813,850.5859375,348.6328125
5.3000,356.4453125,824.7070313,344.2382813
5.3050,357.421875,821.2890625,328.6132813
5.3100,352.0507813,836.9140625,321.7773438
5.3150,337.890625,854.9804688,323.2421875
5.3200,326.6601563,871.09375,342.7734375
5.3250,309.0820313,867.6757813,335.4492188
5.3300,312.9882813,877.9296875,350.0976563
5.3350,310.0585938,886.71875,332.5195313
5.3400,299.8046875,906.25,328.125
5.3450,292.4804688,920.4101563,334.9609375
5.3500,273.4375,898.9257813,334.4726563
5.3550,267.0898438,869.140625,331.5429688
5.3600,287.5976563,868.1640625,314.9414063
5.3650,289.5507813,865.234375,306.640625
5.3700,282.2265625,881.8359375,315.4296875
5.3750,269.0429688,903.3203125,317.3828125
5.3800,262.2070313,907.2265625,334.4726563
5.3850,262.6953125,906.25,334.9609375
5.3900,267.578125,900.390625,354.9804688
5.3950,270.0195313,887.2070313,346.6796875
5.4000,278.3203125,890.625,360.8398438
5.4050,278.8085938,902.8320313,360.3515625
5.4100,282.2265625,937.9882813,367.6757813
5.4150,257.3242188,958.984375,373.5351563
5.4200,237.3046875,974.1210938,369.6289063
5.4250,224.1210938,981.4453125,361.328125
5.4300,224.1210938,998.5351563,350.5859375
5.4350,213.8671875,1010.253906,368.1640625
5.4400,202.1484375,983.3984375,372.0703125
5.4450,195.8007813,923.3398438,378.90625
5.4500,212.4023438,885.7421875,334.4726563
5.4550,220.703125,870.1171875,335.4492188
5.4600,221.1914063,903.8085938,333.4960938
5.4650,202.1484375,936.0351563,331.0546875
5.4700,175.2929688,955.5664063,357.9101563
5.4750,171.875,962.4023438,342.2851563
5.4800,166.5039063,949.7070313,335.4492188
5.4850,171.3867188,938.9648438,349.609375
5.4900,182.1289063,934.5703125,345.2148438
5.4950,172.3632813,917.96875,341.796875
5.5000,164.0625,952.6367188,316.40625
5.5050,149.9023438,1009.277344,331.5429688
5.5100,127.9296875,1038.085938,350.0976563
5.5150,105.46875,1010.253906,361.328125
5.5200,93.75,941.40625,347.1679688
5.5250,113.28125,898.4375,323.2421875
5.5300,116.6992188,875,307.6171875
5.5350,123.046875,887.2070313,317.3828125
5.5400,105.46875,911.6210938,317.3828125
5.5450,77.63671875,936.5234375,314.9414063
5.5500,54.19921875,962.4023438,328.6132813
5.5550,42.48046875,956.0546875,317.8710938
5.5600,52.734375,948.7304688,333.0078125
5.5650,55.6640625,937.5,318.359375
5.5700,71.2890625,966.796875,330.078125
5.5750,41.50390625,992.6757813,328.6132813
5.5800,40.52734375,1039.0625,336.4257813
5.5850,30.76171875,1022.460938,341.3085938
5.5900,12.20703125,965.8203125,332.5195313
5.5950,4.8828125,925.78125,312.9882813
5.6000,-10.7421875,895.9960938,297.8515625
5.6050,-16.11328125,893.0664063,296.875
5.6100,-14.16015625,908.203125,291.015625
5.6150,-4.39453125,925.2929688,305.6640625
5.6200,-18.06640625,934.0820313,310.0585938
5.6250,-33.69140625,960.9375,297.8515625
5.6300,-57.6171875,976.0742188,306.1523438
5.6350,-61.03515625,967.2851563,315.9179688
5.6400,-73.2421875,943.359375,323.7304688
5.6450,-60.05859375,968.2617188,310.546875
5.6500,-65.4296875,1003.90625,312.5
5.6550,-78.125,1026.367188,317.8710938
5.6600,-97.65625,1006.835938,335.9375
5.6650,-109.8632813,964.84375,321.7773438
5.6700,-112.7929688,931.1523438,302.734375
5.6750,-98.14453125,917.96875,296.875
5.6800,-113.28125,912.109375,298.3398438
5.6850,-115.7226563,919.921875,290.5273438
5.6900,-121.09375,922.3632813,290.5273438
5.6950,-132.8125,930.1757813,294.4335938
5.7000,-135.7421875,960.9375,284.1796875
5.7050,-145.5078125,983.3984375,305.1757813
5.7100,-155.7617188,987.7929688,309.5703125
5.7150,-149.9023438,959.4726563,312.5
5.7200,-133.7890625,936.5234375,314.453125
5.7250,-127.9296875,921.3867188,309.5703125
5.7300,-137.2070313,942.8710938,307.1289063
5.7350,-159.1796875,963.3789063,318.8476563
5.7400,-186.5234375,969.7265625,328.125
5.7450,-187.0117188,976.0742188,342.7734375
5.7500,-199.21875,952.6367188,331.5429688
5.7550,-193.8476563,938.9648438,330.5664063
5.7600,-185.546875,929.6875,331.0546875
5.7650,-198.2421875,915.5273438,326.171875
5.7700,-192.8710938,923.3398438,321.7773438
5.7750,-201.171875,921.875,326.171875
5.7800,-216.3085938,922.8515625,318.8476563
5.7850,-219.2382813,933.1054688,322.265625
5.7900,-211.9140625,947.7539063,320.8007813
5.7950,-208.0078125,947.7539063,332.03125
5.8000,-204.1015625,945.3125,336.4257813
5.8050,-216.796875,938.9648438,333.984375
5.8100,-219.7265625,952.1484375,326.171875
5.8150,-222.65625,949.21875,345.703125
5.8200,-235.8398438,926.2695313,339.3554688
5.8250,-242.1875,916.015625,321.2890625
5.8300,-254.8828125,902.34375,313.9648438
5.8350,-269.53125,907.2265625,292.96875
5.8400,-291.015625,905.2734375,291.9921875
5.8450,-297.3632813,906.7382813,300.2929688
5.8500,-307.6171875,900.8789063,290.0390625
5.8550,-318.8476563,891.6015625,293.4570313
5.8600,-314.9414063,885.7421875,295.4101563
5.8650,-299.3164063,902.34375,292.4804688
5.8700,-302.734375,900.390625,284.1796875
5.8750,-308.1054688,907.2265625,280.2734375
5.8800,-322.265625,921.3867188,278.8085938
5.8850,-336.4257813,927.734375,285.15625
5.8900,-333.0078125,938.4765625,286.6210938
5.8950,-340.8203125,937.0117188,271.484375
5.9000,-341.3085938,944.3359375,278.8085938
5.9050,-355.9570313,919.4335938,272.9492188
5.9100,-363.28125,895.9960938,264.1601563
5.9150,-361.328125,872.0703125,260.7421875
5.9200,-371.09375,868.1640625,238.28125
5.9250,-385.7421875,869.6289063,248.5351563
5.9300,-395.9960938,877.9296875,256.3476563
5.9350,-411.1328125,876.4648438,243.1640625
5.9400,-417.4804688,882.3242188,259.765625
5.9450,-417.4804688,896.9726563,272.9492188
5.9500,-423.828125,889.6484375,273.9257813
5.9550,-433.1054688,883.7890625,272.9492188
5.9600,-436.0351563,896.484375,257.3242188
5.9650,-442.3828125,915.5273438,252.9296875
5.9700,-440.4296875,921.875,266.6015625
5.9750,-452.6367188,894.0429688,273.4375
5.9800,-462.4023438,858.8867188,263.1835938
5.9850,-461.4257813,836.4257813,241.6992188
5.9900,-464.84375,834.9609375,237.3046875
5.9950,-464.3554688,842.2851563,240.7226563
6.0000,-464.84375,855.46875,246.5820313
6.0050,-470.703125,859.8632813,258.3007813
6.0100,-479.4921875,854.9804688,256.8359375
6.0150,-468.2617188,868.6523438,267.0898438
6.0200,-479.0039063,871.5820313,266.6015625
6.0250,-487.7929688,882.3242188,270.5078125
6.0300,-497.5585938,885.7421875,286.6210938
6.0350,-507.8125,862.7929688,286.1328125
6.0400,-501.4648438,847.1679688,284.1796875
6.0450,-502.9296875,835.9375,267.0898438
6.0500,-502.9296875,849.609375,270.0195313
6.0550,-523.9257813,850.5859375,263.671875
6.0600,-529.7851563,851.0742188,269.53125
6.0650,-538.0859375,832.03125,257.3242188
6.0700,-523.4375,835.9375,251.953125
6.0750,-521.484375,842.7734375,252.9296875
6.0800,-523.9257813,863.7695313,246.5820313
6.0850,-535.15625,867.6757813,260.7421875
6.0900,-542.96875,852.0507813,269.0429688
6.0950,-536.1328125,823.2421875,273.9257813
6.1000,-532.2265625,809.5703125,267.0898438
6.1050,-523.9257813,814.453125,264.1601563
6.1100,-521.9726563,832.03125,269.53125
6.1150,-531.7382813,827.1484375,268.0664063
6.1200,-546.3867188,807.1289063,282.2265625
6.1250,-553.7109375,789.0625,273.4375
6.1300,-572.7539063,778.3203125,249.5117188
6.1350,-568.359375,800.78125,249.5117188
6.1400,-583.984375,806.640625,248.046875
6.1450,-592.2851563,787.109375,265.625
6.1500,-595.703125,763.1835938,242.6757813
6.1550,-590.8203125,763.671875,231.9335938
6.1600,-594.2382813,772.9492188,229.9804688
6.1650,-593.75,787.5976563,241.2109375
6.1700,-608.8867188,787.109375,249.5117188
6.1750,-617.1875,783.203125,252.9296875
6.1800,-618.1640625,781.25,254.3945313
6.1850,-620.1171875,776.3671875,249.0234375
6.1900,-622.0703125,782.7148438,262.6953125
6.1950,-619.140625,784.6679688,243.6523438
6.2000,-623.5351563,780.2734375,254.3945313
6.2050,-640.1367188,757.3242188,255.859375
6.2100,-638.671875,746.09375,248.5351563
6.2150,-636.71875,725.0976563,250
6.2200,-643.5546875,722.65625,230.9570313
6.2250,-649.4140625,729.4921875,237.3046875
6.2300,-653.8085938,736.8164063,228.0273438
6.2350,-664.0625,735.8398438,242.6757813
6.2400,-679.6875,716.3085938,237.3046875
6.2450,-682.1289063,704.1015625,227.0507813
6.2500,-683.59375,702.1484375,223.1445313
6.2550,-681.1523438,702.1484375,214.3554688
6.2600,-691.40625,694.3359375,226.5625
6.2650,-690.4296875,703.125,227.0507813
6.2700,-706.5429688,689.453125,239.7460938
6.2750,-718.75,675.2929688,221.6796875
6.2800,-716.796875,682.6171875,222.1679688
6.2850,-713.3789063,692.3828125,220.703125
6.2900,-722.65625,694.8242188,209.9609375
6.2950,-723.6328125,704.1015625,197.265625
6.3000,-729.0039063,707.03125,212.890625
6.3050,-726.5625,700.1953125,211.4257813
6.3100,-734.8632813,682.6171875,214.3554688
6.3150,-737.3046875,661.1328125,227.5390625
6.3200,-749.0234375,642.578125,224.1210938
6.3250,-756.3476563,636.2304688,218.75
6.3300,-757.8125,645.0195313,216.796875
6.3350,-770.5078125,638.671875,208.0078125
6.3400,-770.9960938,642.0898438,213.8671875
6.3450,-769.0429688,648.4375,202.1484375
6.3500,-782.2265625,641.6015625,209.4726563
6.3550,-789.0625,641.6015625,197.265625
6.3600,-792.4804688,631.3476563,198.2421875
6.3650,-789.5507813,637.2070313,193.8476563
6.3700,-785.6445313,639.6484375,182.1289063
6.3750,-787.5976563,632.3242188,194.3359375
6.3800,-799.3164063,615.234375,187.5
6.3850,-798.3398438,610.3515625,180.1757813
6.3900,-802.2460938,605.9570313,173.3398438
6.3950,-804.1992188,600.5859375,173.828125
6.4000,-797.3632813,603.515625,186.5234375
6.4050,-794.4335938,597.65625,188.4765625
6.4100,-806.1523438,586.4257813,192.3828125
6.4150,-806.1523438,584.4726563,172.3632813
6.4200,-814.453125,581.5429688,184.5703125
6.4250,-802.734375,590.3320313,164.5507813
6.4300,-812.5,583.984375,178.2226563
6.4350,-809.0820313,581.0546875,172.8515625
6.4400,-825.6835938,571.7773438,164.5507813
6.4450,-826.171875,581.5429688,162.5976563
6.4500,-823.7304688,583.984375,161.6210938
6.4550,-824.7070313,579.1015625,173.3398438
6.4600,-832.03125,568.8476563,183.1054688
6.4650,-841.3085938,565.9179688,185.546875
6.4700,-840.3320313,564.453125,166.5039063
6.4750,-833.4960938,561.5234375,168.9453125
6.4800,-841.3085938,546.875,161.6210938
6.4850,-849.1210938,530.2734375,163.5742188
6.4900,-846.6796875,529.296875,161.1328125
6.4950,-848.1445313,518.0664063,160.6445313
6.5000,-858.8867188,512.2070313,151.8554688
6.5050,-861.8164063,517.0898438,159.6679688
6.5100,-858.3984375,528.8085938,154.7851563
6.5150,-861.328125,540.0390625,158.6914063
6.5200,-861.8164063,531.7382813,156.25
6.5250,-860.8398438,534.1796875,159.6679688
6.5300,-862.3046875,526.8554688,159.1796875
6.5350,-864.7460938,520.0195313,165.5273438
6.5400,-866.2109375,514.6484375,165.5273438
6.5450,-867.1875,508.3007813,166.015625
6.5500,-866.6992188,501.953125,176.7578125
6.5550,-863.28125,501.4648438,172.3632813
6.5600,-870.1171875,496.5820313,162.5976563
6.5650,-868.6523438,493.1640625,159.6679688
6.5700,-862.7929688,493.6523438,171.3867188
6.5750,-868.6523438,479.4921875,173.828125
6.5800,-883.7890625,474.1210938,165.0390625
6.5850,-870.6054688,488.7695313,160.6445313
6.5900,-878.90625,475.5859375,158.203125
6.5950,-879.8828125,476.0742188,166.5039063
6.6000,-879.8828125,479.9804688,151.3671875
6.6050,-894.53125,474.1210938,174.8046875
6.6100,-894.53125,470.2148438,154.7851563
6.6150,-888.1835938,469.7265625,155.7617188
6.6200,-892.578125,464.84375,159.6679688
6.6250,-895.0195313,474.609375,160.15625
6.6300,-896.9726563,485.3515625,166.9921875
6.6350,-887.2070313,499.0234375,160.6445313
6.6400,-895.5078125,484.375,176.2695313
6.6450,-894.53125,476.0742188,150.390625
6.6500,-898.9257813,462.4023438,173.3398438
6.6550,-899.4140625,445.3125,170.8984375
6.6600,-899.4140625,430.6640625,164.0625
6.6650,-898.4375,428.7109375,175.78125
6.6700,-895.9960938,423.3398438,166.9921875
6.6750,-897.4609375,414.5507813,171.3867188
6.6800,-912.109375,399.9023438,161.1328125
6.6850,-906.25,409.6679688,168.4570313
6.6900,-911.6210938,406.25,157.2265625
6.6950,-908.203125,401.3671875,164.5507813
6.7000,-916.5039063,396.9726563,144.0429688
6.7050,-918.4570313,389.1601563,155.7617188
6.7100,-924.8046875,396.484375,161.6210938
6.7150,-937.0117188,388.1835938,154.296875
6.7200,-928.2226563,404.296875,156.25
6.7250,-924.8046875,414.5507813,162.109375
6.7300,-919.4335938,417.96875,174.3164063
6.7350,-924.8046875,413.5742188,160.6445313
6.7400,-931.1523438,401.3671875,158.203125
6.7450,-926.2695313,394.53125,165.0390625
6.7500,-935.0585938,382.8125,163.0859375
6.7550,-932.6171875,385.2539063,161.6210938
6.7600,-935.546875,388.671875,166.5039063
6.7650,-935.546875,389.6484375,161.1328125
6.7700,-930.6640625,392.578125,163.5742188
6.7750,-933.59375,382.8125,154.7851563
6.7800,-929.6875,381.8359375,147.9492188
6.7850,-937.0117188,377.9296875,147.4609375
6.7900,-941.40625,374.0234375,154.296875
6.7950,-935.0585938,379.3945313,147.9492188
6.8000,-933.59375,381.3476563,146.484375
6.8050,-938.4765625,373.5351563,132.3242188
6.8100,-937.9882813,361.8164063,144.53125
6.8150,-942.3828125,359.8632813,137.2070313
6.8200,-935.0585938,357.421875,142.578125
6.8250,-930.1757813,360.8398438,131.8359375
6.8300,-937.5,345.2148438,135.2539063
6.8350,-938.9648438,335.4492188,135.2539063
6.8400,-934.0820313,342.7734375,140.625
6.8450,-940.4296875,336.9140625,118.1640625
6.8500,-943.8476563,332.03125,123.5351563
6.8550,-937.9882813,326.6601563,109.375
6.8600,-943.359375,314.453125,118.1640625
6.8650,-944.8242188,304.6875,110.8398438
6.8700,-944.8242188,299.3164063,105.46875
6.8750,-951.171875,291.9921875,92.7734375
6.8800,-953.125,282.7148438,100.5859375
6.8850,-951.171875,280.2734375,108.8867188
6.8900,-946.7773438,271.9726563,104.9804688
6.8950,-948.2421875,270.9960938,101.0742188
6.9000,-945.3125,271.9726563,108.3984375
6.9050,-944.8242188,268.0664063,98.6328125
6.9100,-949.21875,265.1367188,92.28515625
6.9150,-956.5429688,256.8359375,100.5859375
6.9200,-952.1484375,258.7890625,90.33203125
6.9250,-959.4726563,265.1367188,103.0273438
6.9300,-958.4960938,273.9257813,94.7265625
6.9350,-958.4960938,279.296875,95.21484375
6.9400,-944.3359375,300.78125,108.8867188
6.9450,-951.171875,295.8984375,95.703125
6.9500,-945.3125,288.5742188,106.4453125
6.9550,-946.7773438,271.9726563,92.7734375
6.9600,-942.3828125,263.1835938,93.75
6.9650,-951.171875,244.6289063,96.19140625
6.9700,-950.6835938,244.140625,93.75
6.9750,-955.5664063,233.3984375,110.3515625
6.9800,-955.078125,237.7929688,102.5390625
6.9850,-964.3554688,245.1171875,95.703125
6.9900,-955.078125,259.765625,108.3984375
6.9950,-949.7070313,264.6484375,112.3046875
7.0000,-959.4726563,261.2304688,101.0742188
7.0050,-959.4726563,262.6953125,104.9804688
7.0100,-958.0078125,266.1132813,110.8398438
7.0150,-961.4257813,268.0664063,98.6328125
7.0200,-952.6367188,286.1328125,107.421875
7.0250,-950.6835938,288.0859375,100.0976563
7.0300,-951.6601563,287.109375,112.3046875
7.0350,-944.8242188,300.2929688,118.6523438
7.0400,-952.1484375,304.1992188,126.953125
7.0450,-958.0078125,295.4101563,129.8828125
7.0500,-953.6132813,295.8984375,125.4882813
7.0550,-952.6367188,295.4101563,127.4414063
7.0600,-948.2421875,298.828125,110.3515625
7.0650,-954.1015625,293.9453125,103.0273438
7.0700,-948.7304688,297.3632813,101.0742188
7.0750,-963.3789063,287.109375,108.8867188
7.0800,-964.3554688,293.9453125,107.421875
7.0850,-967.7734375,297.3632813,108.3984375
7.0900,-968.75,304.1992188,119.6289063
7.0950,-965.3320313,299.8046875,126.4648438
7.1000,-974.1210938,297.8515625,125
7.1050,-965.8203125,300.78125,115.234375
7.1100,-968.2617188,307.1289063,113.7695313
7.1150,-965.8203125,304.1992188,118.6523438
7.1200,-966.796875,292.4804688,107.9101563
7.1250,-961.4257813,278.3203125,97.65625
7.1300,-966.3085938,267.0898438,96.6796875
7.1350,-958.4960938,276.3671875,103.515625
7.1400,-964.3554688,264.1601563,94.23828125
7.1450,-961.4257813,275.390625,100.0976563
7.1500,-958.984375,281.25,101.0742188
7.1550,-962.890625,270.9960938,106.4453125
7.1600,-960.9375,286.1328125,98.6328125
7.1650,-967.2851563,279.296875,97.16796875
7.1700,-962.890625,284.6679688,102.5390625
7.1750,-970.703125,285.6445313,90.8203125
7.1800,-973.6328125,293.4570313,109.8632813
7.1850,-971.1914063,293.9453125,95.21484375
7.1900,-969.7265625,291.015625,98.14453125
7.1950,-973.1445313,291.5039063,107.421875
7.2000,-972.1679688,292.96875,108.8867188
7.2050,-979.0039063,277.8320313,104.4921875
7.2100,-979.4921875,278.3203125,98.14453125
7.2150,-979.9804688,269.0429688,98.6328125
7.2200,-972.65625,276.3671875,99.609375
7.2250,-976.0742188,269.0429688,103.0273438
7.2300,-977.0507813,268.5546875,104.0039063
7.2350,-980.46875,266.1132813,102.0507813
7.2400,-970.2148438,282.7148438,95.703125
7.2450,-973.1445313,275.390625,111.8164063
7.2500,-971.1914063,284.6679688,99.12109375
7.2550,-982.421875,271.484375,100.5859375
7.2600,-979.9804688,276.8554688,88.8671875
7.2650,-978.0273438,275.8789063,88.8671875
7.2700,-979.9804688,262.2070313,98.14453125
7.2750,-984.8632813,249.0234375,84.47265625
7.2800,-972.1679688,257.3242188,80.56640625
7.2850,-977.5390625,250.9765625,87.890625
7.2900,-965.3320313,262.2070313,78.125
7.2950,-970.703125,246.5820313,79.1015625
7.3000,-982.9101563,251.953125,69.3359375
7.3050,-981.4453125,271.9726563,76.171875
7.3100,-977.5390625,296.3867188,73.2421875
7.3150,-978.0273438,301.7578125,75.68359375
7.3200,-979.0039063,300.2929688,76.66015625
7.3250,-966.3085938,302.734375,78.61328125
7.3300,-969.2382813,291.015625,71.77734375
7.3350,-958.0078125,288.5742188,67.87109375
7.3400,-965.3320313,281.7382813,66.40625
7.3450,-959.9609375,292.4804688,76.171875
7.3500,-970.2148438,293.4570313,78.61328125
7.3550,-976.5625,311.0351563,74.70703125
7.3600,-968.75,326.171875,86.42578125
7.3650,-965.3320313,326.6601563,86.9140625
7.3700,-966.3085938,342.2851563,75.68359375
7.3750,-961.9140625,350.0976563,76.171875
7.3800,-963.3789063,353.515625,82.03125
7.3850,-951.171875,353.515625,89.84375
7.3900,-957.03125,348.6328125,89.84375
7.3950,-956.5429688,346.1914063,83.49609375
7.4000,-957.5195313,349.1210938,85.9375
7.4050,-946.7773438,369.6289063,92.28515625
7.4100,-942.8710938,378.4179688,94.23828125
7.4150,-943.8476563,381.3476563,95.703125
7.4200,-952.1484375,377.9296875,96.6796875
7.4250,-951.171875,386.2304688,87.40234375
7.4300,-949.7070313,381.8359375,90.33203125
7.4350,-942.8710938,376.4648438,91.796875
7.4400,-949.7070313,375,84.47265625
7.4450,-940.9179688,390.625,86.42578125
7.4500,-945.3125,394.0429688,87.890625
7.4550,-945.8007813,402.34375,86.9140625
7.4600,-936.5234375,416.015625,86.42578125
7.4650,-944.8242188,423.828125,93.26171875
7.4700,-934.0820313,436.5234375,102.5390625
7.4750,-934.5703125,436.5234375,95.703125
7.4800,-936.0351563,437.9882813,98.6328125
7.4850,-943.359375,423.3398438,91.30859375
7.4900,-942.3828125,423.3398438,82.51953125
7.4950,-927.734375,418.9453125,93.75
7.5000,-936.0351563,398.4375,98.14453125
7.5050,-931.1523438,407.2265625,81.54296875
7.5100,-936.0351563,412.109375,104.4921875
7.5150,-935.546875,411.1328125,102.5390625
7.5200,-927.2460938,418.4570313,95.703125
7.5250,-927.734375,429.6875,90.33203125
7.5300,-929.1992188,437.9882813,110.3515625
7.5350,-921.875,444.3359375,93.26171875
7.5400,-923.3398438,445.3125,96.19140625
7.5450,-923.3398438,444.3359375,93.26171875
7.5500,-921.875,441.40625,102.5390625
7.5550,-921.875,450.1953125,93.75
7.5600,-929.1992188,451.171875,98.6328125
7.5650,-926.2695313,468.2617188,95.703125
7.5700,-923.3398438,467.2851563,101.5625
7.5750,-921.875,458.984375,104.9804688
7.5800,-923.3398438,457.5195313,96.19140625
7.5850,-916.9921875,471.6796875,91.30859375
7.5900,-924.3164063,480.9570313,99.12109375
7.5950,-903.8085938,496.09375,100.5859375
7.6000,-908.203125,481.4453125,110.3515625
7.6050,-895.0195313,486.8164063,113.28125
7.6100,-897.9492188,479.0039063,103.0273438
7.6150,-896.9726563,479.9804688,99.609375
7.6200,-900.8789063,472.65625,107.421875
7.6250,-896.9726563,470.703125,102.5390625
7.6300,-895.5078125,481.9335938,103.515625
7.6350,-886.2304688,499.0234375,96.6796875
7.6400,-884.765625,502.4414063,105.9570313
7.6450,-885.7421875,518.0664063,102.0507813
7.6500,-880.859375,538.0859375,106.4453125
7.6550,-877.4414063,541.5039063,105.46875
7.6600,-875.9765625,532.2265625,100.5859375
7.6650,-865.234375,537.109375,103.0273438
7.6700,-864.2578125,540.5273438,97.16796875
7.6750,-861.328125,547.8515625,101.0742188
7.6800,-858.8867188,555.1757813,98.14453125
7.6850,-865.7226563,554.1992188,92.7734375
7.6900,-873.5351563,542.4804688,115.7226563
7.6950,-864.2578125,539.0625,94.7265625
7.7000,-851.0742188,546.875,107.9101563
7.7050,-854.9804688,549.3164063,93.75
7.7100,-849.609375,558.1054688,105.46875
7.7150,-837.4023438,562.9882813,103.0273438
7.7200,-834.4726563,567.8710938,98.6328125
7.7250,-823.7304688,582.5195313,96.6796875
7.7300,-818.8476563,590.3320313,96.6796875
7.7350,-824.7070313,590.8203125,108.3984375
7.7400,-826.6601563,597.65625,96.19140625
7.7450,-828.6132813,595.703125,111.8164063
7.7500,-814.453125,607.9101563,101.0742188
7.7550,-813.4765625,607.421875,106.4453125
7.7600,-807.1289063,611.8164063,91.796875
7.7650,-806.1523438,609.375,108.3984375
7.7700,-799.8046875,621.09375,98.14453125
7.7750,-796.875,625,102.0507813
7.7800,-792.96875,629.3945313,104.4921875
7.7850,-786.6210938,641.1132813,93.75
7.7900,-779.7851563,651.8554688,106.4453125
7.7950,-781.25,657.2265625,111.328125
7.8000,-781.25,661.6210938,108.8867188
7.8050,-777.34375,661.1328125,97.65625
7.8100,-773.4375,659.6679688,105.46875
7.8150,-769.0429688,658.6914063,107.9101563
7.8200,-762.2070313,665.0390625,102.0507813
7.8250,-760.7421875,666.9921875,106.9335938
7.8300,-760.7421875,668.9453125,102.5390625
7.8350,-746.09375,677.2460938,116.6992188
7.8400,-749.0234375,673.828125,102.0507813
7.8450,-738.7695313,689.453125,114.7460938
7.8500,-751.953125,685.546875,118.6523438
7.8550,-742.6757813,690.4296875,110.3515625
7.8600,-744.140625,694.3359375,119.6289063
7.8650,-735.8398438,699.21875,102.0507813
7.8700,-731.9335938,698.7304688,112.7929688
7.8750,-721.6796875,704.5898438,106.4453125
7.8800,-718.75,701.6601563,120.6054688
7.8850,-706.0546875,708.984375,100.5859375
7.8900,-715.8203125,704.5898438,111.328125
7.8950,-713.8671875,710.4492188,111.8164063
7.9000,-699.7070313,727.0507813,120.6054688
7.9050,-698.7304688,719.7265625,99.12109375
7.9100,-692.8710938,718.2617188,122.0703125
7.9150,-682.1289063,726.5625,119.6289063
7.9200,-683.1054688,733.3984375,128.90625
7.9250,-677.2460938,746.09375,135.2539063
7.9300,-687.5,742.6757813,141.1132813
7.9350,-675.2929688,754.3945313,127.9296875
7.9400,-676.2695313,754.3945313,133.7890625
7.9450,-672.8515625,751.4648438,133.3007813
7.9500,-667.4804688,754.8828125,140.1367188
7.9550,-661.1328125,763.671875,128.90625
7.9600,-671.3867188,752.4414063,133.7890625
7.9650,-657.7148438,763.1835938,143.0664063
7.9700,-659.1796875,775.390625,144.53125
7.9750,-651.8554688,778.8085938,139.1601563
7.9800,-650.8789063,781.7382813,132.8125
7.9850,-648.4375,780.2734375,143.5546875
7.9900,-645.0195313,784.1796875,139.6484375
7.9950,-637.6953125,790.5273438,137.2070313
8.0000,-639.1601563,794.921875,128.90625
8.0050,-634.2773438,789.5507813,148.4375
8.0100,-636.71875,792.96875,139.1601563
8.0150,-629.3945313,794.921875,134.2773438
8.0200,-623.5351563,803.2226563,135.7421875
8.0250,-625,790.0390625,144.0429688
8.0300,-614.7460938,783.203125,140.625
8.0350,-600.5859375,795.8984375,135.2539063
8.0400,-603.515625,812.0117188,123.5351563
8.0450,-599.609375,821.2890625,145.5078125
8.0500,-597.1679688,839.3554688,150.390625
8.0550,-582.5195313,854.4921875,139.6484375
8.0600,-577.6367188,845.2148438,137.2070313
8.0650,-572.265625,840.3320313,153.3203125
8.0700,-562.9882813,846.1914063,145.0195313
8.0750,-560.546875,842.7734375,141.1132813
8.0800,-559.5703125,850.0976563,148.9257813
8.0850,-554.1992188,845.2148438,156.7382813
8.0900,-543.4570313,837.4023438,156.25
8.0950,-531.25,836.9140625,143.0664063
8.1000,-534.6679688,835.4492188,138.671875
8.1050,-520.0195313,857.9101563,151.3671875
8.1100,-520.9960938,870.6054688,153.3203125
8.1150,-520.5078125,876.953125,151.3671875
8.1200,-512.2070313,880.859375,149.9023438
8.1250,-502.9296875,888.1835938,157.7148438
8.1300,-500,885.7421875,165.5273438
8.1350,-497.5585938,885.7421875,159.1796875
8.1400,-493.1640625,886.2304688,144.53125
8.1450,-483.8867188,900.390625,158.6914063
8.1500,-474.609375,905.7617188,158.6914063
8.1550,-478.0273438,892.0898438,159.6679688
8.1600,-469.7265625,886.2304688,157.2265625
8.1650,-455.5664063,875.4882813,161.1328125
8.1700,-449.21875,870.6054688,148.4375
8.1750,-446.2890625,882.3242188,155.2734375
8.1800,-451.6601563,892.0898438,158.203125
8.1850,-450.1953125,894.0429688,158.203125
8.1900,-441.8945313,909.1796875,161.1328125
8.1950,-439.453125,908.6914063,158.203125
8.2000,-427.2460938,923.828125,159.1796875
8.2050,-423.3398438,926.2695313,156.7382813
8.2100,-408.6914063,936.5234375,159.6679688
8.2150,-400.390625,930.6640625,163.5742188
8.2200,-401.8554688,911.1328125,165.5273438
8.2250,-396.484375,911.6210938,156.7382813
8.2300,-396.9726563,917.4804688,160.15625
8.2350,-380.3710938,928.7109375,166.015625
8.2400,-378.4179688,921.3867188,160.6445313
8.2450,-362.3046875,920.4101563,158.203125
8.2500,-352.0507813,927.734375,169.921875
8.2550,-354.9804688,942.3828125,173.3398438
8.2600,-355.9570313,948.7304688,186.0351563
8.2650,-344.2382813,962.890625,178.2226563
8.2700,-341.796875,954.5898438,182.1289063
8.2750,-322.265625,953.125,184.5703125
8.2800,-328.6132813,946.2890625,179.1992188
8.2850,-322.7539063,957.5195313,180.6640625
8.2900,-325.1953125,955.5664063,173.3398438
8.2950,-305.1757813,952.1484375,189.9414063
8.3000,-308.1054688,933.1054688,191.40625
8.3050,-292.4804688,934.5703125,163.5742188
8.3100,-290.0390625,952.1484375,171.3867188
8.3150,-289.0625,968.75,169.921875
8.3200,-282.2265625,970.703125,188.4765625
8.3250,-276.3671875,968.75,190.4296875
8.3300,-270.0195313,964.3554688,194.3359375
8.3350,-262.6953125,954.5898438,196.2890625
8.3400,-257.3242188,947.265625,185.546875
8.3450,-244.6289063,943.359375,196.2890625
8.3500,-230.9570313,954.1015625,193.8476563
8.3550,-230.46875,958.0078125,191.40625
8.3600,-226.5625,977.5390625,198.7304688
8.3650,-220.703125,987.7929688,192.3828125
8.3700,-218.75,977.0507813,218.2617188
8.3750,-200.1953125,975.0976563,193.8476563
8.3800,-193.8476563,964.84375,205.078125
8.3850,-192.3828125,958.984375,203.125
8.3900,-186.0351563,958.984375,203.6132813
8.3950,-171.3867188,962.4023438,211.4257813
8.4000,-166.015625,950.1953125,218.75
8.4050,-159.6679688,944.8242188,210.4492188
8.4100,-159.1796875,954.1015625,208.0078125
8.4150,-154.7851563,974.1210938,220.703125
8.4200,-154.296875,980.9570313,220.2148438
8.4250,-140.1367188,966.3085938,224.609375
8.4300,-122.5585938,954.5898438,213.3789063
8.4350,-122.5585938,951.171875,219.2382813
8.4400,-117.6757813,967.2851563,223.6328125
8.4450,-122.0703125,968.75,224.609375
8.4500,-109.8632813,964.3554688,242.1875
8.4550,-101.5625,938.9648438,228.515625
8.4600,-92.28515625,921.875,230.9570313
8.4650,-78.125,944.3359375,227.5390625
8.4700,-79.58984375,960.9375,234.8632813
8.4750,-83.0078125,966.796875,228.0273438
8.4800,-72.265625,958.0078125,235.8398438
8.4850,-69.82421875,931.1523438,227.0507813
8.4900,-57.12890625,937.0117188,223.6328125
8.4950,-45.8984375,974.1210938,225.5859375
8.5000,-58.59375,997.5585938,225.5859375
8.5050,-63.96484375,1009.277344,229.4921875
8.5100,-57.6171875,997.5585938,227.5390625
8.5150,-55.6640625,979.0039063,220.2148438
8.5200,-46.875,962.4023438,212.890625
8.5250,-35.64453125,958.0078125,228.0273438
8.5300,-26.3671875,946.7773438,217.7734375
8.5350,-20.01953125,956.0546875,222.1679688
8.5400,-13.671875,976.5625,233.3984375
8.5450,-9.765625,985.8398438,232.9101563
8.5500,-1.46484375,980.9570313,237.7929688
8.5550,2.9296875,970.703125,223.6328125
8.5600,-0.48828125,961.9140625,227.5390625
8.5650,2.44140625,955.078125,233.3984375
8.5700,17.08984375,971.1914063,229.9804688
8.5750,32.71484375,963.8671875,221.1914063
8.5800,34.66796875,956.5429688,230.46875
8.5850,40.52734375,959.9609375,238.7695313
8.5900,49.8046875,969.2382813,237.3046875
8.5950,44.921875,969.2382813,243.1640625
8.6000,46.38671875,962.4023438,240.7226563
8.6050,67.87109375,958.4960938,238.7695313
8.6100,74.70703125,943.359375,245.6054688
8.6150,78.125,932.1289063,245.1171875
8.6200,84.47265625,937.5,235.3515625
8.6250,88.8671875,947.7539063,235.8398438
8.6300,101.5625,965.3320313,259.2773438
8.6350,104.9804688,977.0507813,238.7695313
8.6400,104.0039063,983.8867188,258.7890625
8.6450,110.8398438,970.2148438,248.046875
8.6500,116.6992188,945.3125,257.3242188
8.6550,127.9296875,918.4570313,258.3007813
8.6600,141.1132813,924.3164063,236.8164063
8.6650,148.4375,939.453125,253.90625
8.6700,141.1132813,945.8007813,250.9765625
8.6750,151.3671875,957.03125,263.671875
8.6800,155.7617188,950.1953125,251.4648438
8.6850,165.0390625,947.265625,247.5585938
8.6900,177.2460938,957.5195313,270.0195313
8.6950,178.2226563,948.7304688,258.3007813
8.7000,183.1054688,952.6367188,271.9726563
8.7050,185.0585938,953.6132813,262.2070313
8.7100,185.0585938,949.7070313,264.1601563
8.7150,191.40625,934.0820313,262.6953125
8.7200,197.7539063,918.4570313,270.0195313
8.7250,203.125,902.34375,263.671875
8.7300,221.6796875,900.390625,269.53125
8.7350,225.5859375,889.1601563,270.5078125
8.7400,218.75,888.1835938,270.5078125
8.7450,213.3789063,877.9296875,283.203125
8.7500,223.6328125,915.0390625,276.3671875
8.7550,241.2109375,939.453125,290.0390625
8.7600,242.1875,937.5,281.7382813
8.7650,248.5351563,916.9921875,291.015625
8.7700,244.140625,904.7851563,274.9023438
8.7750,248.5351563,924.8046875,282.2265625
8.7800,248.046875,949.21875,280.2734375
8.7850,246.09375,937.0117188,287.5976563
8.7900,243.6523438,911.6210938,285.6445313
8.7950,254.3945313,894.0429688,265.1367188
8.8000,259.765625,884.2773438,274.4140625
8.8050,262.2070313,883.7890625,272.4609375
8.8100,262.2070313,882.3242188,279.7851563
8.8150,259.2773438,872.5585938,283.6914063
8.8200,256.8359375,868.1640625,276.8554688
8.8250,251.4648438,858.3984375,281.25
8.8300,254.3945313,873.046875,282.2265625
8.8350,257.8125,895.5078125,293.9453125
8.8400,252.4414063,899.9023438,282.2265625
8.8450,256.8359375,893.0664063,279.296875
8.8500,263.671875,885.7421875,295.4101563
8.8550,273.4375,877.4414063,271.484375
8.8600,271.9726563,882.8125,266.1132813
8.8650,271.9726563,893.0664063,270.0195313
8.8700,267.578125,907.2265625,268.5546875
8.8750,273.9257813,903.8085938,281.7382813
8.8800,277.8320313,909.1796875,285.15625
8.8850,285.15625,911.1328125,270.9960938
8.8900,296.875,921.875,271.9726563
8.8950,291.5039063,914.0625,291.015625
8.9000,298.3398438,903.8085938,282.2265625
8.9050,308.1054688,895.0195313,270.5078125
8.9100,313.4765625,886.71875,280.7617188
8.9150,320.3125,865.7226563,278.3203125
8.9200,325.1953125,850.0976563,275.390625
8.9250,339.3554688,847.65625,274.9023438
8.9300,332.03125,833.984375,268.5546875
8.9350,342.2851563,851.5625,282.2265625
8.9400,350.0976563,853.0273438,287.109375
8.9450,365.234375,863.7695313,296.875
8.9500,369.140625,865.7226563,297.8515625
8.9550,376.4648438,861.328125,312.9882813
8.9600,374.0234375,850.0976563,310.0585938
8.9650,381.8359375,838.3789063,313.9648438
8.9700,394.53125,839.84375,307.1289063
8.9750,399.4140625,854.0039063,295.4101563
8.9800,403.3203125,874.0234375,311.0351563
8.9850,398.9257813,890.625,316.8945313
8.9900,412.5976563,909.6679688,328.125
8.9950,413.5742188,890.1367188,330.5664063
9.0000,420.4101563,875,326.171875
9.0050,429.1992188,870.1171875,324.7070313
9.0100,420.8984375,861.328125,326.171875
9.0150,428.7109375,861.8164063,308.1054688
9.0200,428.2226563,838.3789063,315.9179688
9.0250,434.0820313,810.546875,318.8476563
9.0300,461.9140625,812.9882813,307.1289063
9.0350,471.1914063,818.359375,300.2929688
9.0400,462.890625,830.5664063,312.5
9.0450,456.0546875,831.5429688,319.8242188
9.0500,470.703125,830.078125,333.0078125
9.0550,479.4921875,810.0585938,306.1523438
9.0600,484.8632813,808.1054688,306.1523438
9.0650,480.46875,811.0351563,305.6640625
9.0700,482.9101563,846.6796875,317.3828125
9.0750,473.6328125,863.7695313,309.5703125
9.0800,478.515625,880.859375,329.5898438
9.0850,480.9570313,853.0273438,342.7734375
9.0900,493.6523438,823.2421875,337.890625
9.0950,508.3007813,796.3867188,314.9414063
9.1000,510.7421875,789.0625,332.5195313
9.1050,503.4179688,783.6914063,322.7539063
9.1100,496.5820313,782.2265625,325.6835938
9.1150,495.6054688,783.203125,325.1953125
9.1200,506.3476563,803.7109375,313.4765625
9.1250,511.2304688,813.4765625,334.9609375
9.1300,506.3476563,806.640625,331.5429688
9.1350,504.3945313,783.203125,354.0039063
9.1400,526.8554688,786.1328125,335.9375
9.1450,527.34375,791.015625,336.9140625
9.1500,524.4140625,821.2890625,324.21875
9.1550,520.0195313,829.1015625,339.84375
9.1600,525.390625,820.3125,354.0039063
9.1650,534.1796875,796.875,342.2851563
9.1700,536.1328125,791.5039063,346.6796875
9.1750,521.484375,769.0429688,331.0546875
9.1800,521.484375,765.1367188,329.5898438
9.1850,530.7617188,760.2539063,333.4960938
9.1900,533.203125,750.9765625,338.8671875
9.1950,546.3867188,735.3515625,337.4023438
9.2000,551.2695313,720.2148438,333.4960938
9.2050,556.640625,710.9375,317.3828125
9.2100,558.1054688,716.3085938,321.7773438
9.2150,556.640625,724.609375,331.0546875
9.2200,553.2226563,725.5859375,341.3085938
9.2250,577.1484375,730.9570313,337.890625
9.2300,576.171875,732.421875,330.5664063
9.2350,567.3828125,740.7226563,333.0078125
9.2400,567.8710938,764.1601563,337.890625
9.2450,568.8476563,783.6914063,340.8203125
9.2500,557.1289063,767.578125,363.28125
9.2550,578.6132813,767.0898438,350.5859375
9.2600,575.1953125,735.8398438,335.4492188
9.2650,583.984375,713.3789063,338.8671875
9.2700,587.890625,707.03125,335.9375
9.2750,587.890625,704.5898438,339.84375
9.2800,582.03125,696.7773438,327.1484375
9.2850,597.65625,696.2890625,315.9179688
9.2900,608.3984375,705.078125,316.40625
9.2950,601.5625,696.7773438,339.3554688
9.3000,610.3515625,697.265625,341.796875
9.3050,612.3046875,701.6601563,326.171875
9.3100,619.6289063,711.9140625,334.4726563
9.3150,629.8828125,716.796875,327.1484375
9.3200,623.5351563,706.0546875,326.6601563
9.3250,620.1171875,698.2421875,331.5429688
9.3300,626.4648438,708.0078125,341.796875
9.3350,638.1835938,709.4726563,326.6601563
9.3400,639.1601563,693.8476563,330.078125
9.3450,633.3007813,664.0625,329.5898438
9.3500,645.5078125,648.4375,332.03125
9.3550,646.9726563,637.6953125,312.9882813
9.3600,654.296875,656.7382813,319.3359375
9.3650,645.5078125,670.8984375,344.2382813
9.3700,646.484375,681.640625,334.9609375
9.3750,641.6015625,659.6679688,348.1445313
9.3800,652.34375,650.390625,336.9140625
9.3850,657.7148438,647.4609375,339.3554688
9.3900,647.9492188,641.1132813,328.6132813
9.3950,638.671875,626.4648438,345.703125
9.4000,639.1601563,623.5351563,326.171875
9.4050,647.9492188,633.7890625,333.0078125
9.4100,647.9492188,639.6484375,338.8671875
9.4150,650.8789063,651.8554688,336.9140625
9.4200,648.9257813,643.0664063,348.1445313
9.4250,646.9726563,624.5117188,348.1445313
9.4300,647.9492188,616.6992188,357.421875
9.4350,666.9921875,617.1875,331.0546875
9.4400,670.4101563,609.8632813,343.75
9.4450,659.6679688,597.65625,353.0273438
9.4500,658.6914063,597.65625,325.6835938
9.4550,661.6210938,587.4023438,332.03125
9.4600,664.0625,596.1914063,347.1679688
9.4650,666.015625,603.0273438,339.84375
9.4700,676.2695313,610.8398438,346.1914063
9.4750,673.828125,596.1914063,351.0742188
9.4800,687.0117188,583.984375,352.5390625
9.4850,688.9648438,578.125,337.890625
9.4900,684.0820313,583.0078125,336.9140625
9.4950,678.7109375,590.8203125,350.5859375
9.5000,678.7109375,591.3085938,343.75
9.5050,684.5703125,593.75,343.2617188
9.5100,692.3828125,617.1875,333.0078125
9.5150,691.40625,628.4179688,355.46875
9.5200,687.9882813,644.53125,352.0507813
9.5250,703.125,659.1796875,370.1171875
9.5300,694.3359375,625.9765625,358.3984375
9.5350,696.2890625,596.1914063,348.1445313
9.5400,700.1953125,579.5898438,341.796875
9.5450,693.359375,569.8242188,330.5664063
9.5500,685.546875,559.0820313,342.7734375
9.5550,695.3125,554.1992188,333.4960938
9.5600,708.984375,547.8515625,344.7265625
9.5650,715.8203125,543.4570313,339.84375
9.5700,718.2617188,573.7304688,356.9335938
9.5750,712.4023438,598.1445313,351.5625
9.5800,711.9140625,613.7695313,354.9804688
9.5850,701.6601563,602.5390625,356.9335938
9.5900,702.1484375,617.1875,350.5859375
9.5950,702.1484375,617.1875,342.2851563
9.6000,712.890625,623.046875,331.0546875
9.6050,722.65625,612.3046875,347.1679688
9.6100,720.703125,587.4023438,349.1210938
9.6150,723.1445313,578.6132813,333.4960938
9.6200,717.2851563,582.5195313,327.1484375
9.6250,740.234375,593.75,341.796875
9.6300,733.3984375,562.5,339.3554688
9.6350,750.9765625,551.7578125,331.0546875
9.6400,744.6289063,538.0859375,346.6796875
9.6450,755.859375,545.4101563,329.5898438
9.6500,750.9765625,544.4335938,352.0507813
9.6550,757.3242188,536.6210938,343.75
9.6600,759.2773438,538.5742188,348.6328125
9.6650,758.3007813,537.109375,355.46875
9.6700,754.8828125,545.8984375,361.8164063
9.6750,748.046875,539.5507813,344.7265625
9.6800,754.3945313,525.8789063,355.46875
9.6850,750.9765625,499.0234375,355.46875
9.6900,758.7890625,501.4648438,341.3085938
9.6950,774.9023438,520.9960938,342.2851563
9.7000,765.1367188,524.9023438,359.8632813
9.7050,762.6953125,535.6445313,354.4921875
9.7100,759.2773438,537.5976563,349.1210938
9.7150,760.2539063,533.203125,370.6054688
9.7200,764.1601563,528.3203125,362.3046875
9.7250,761.71875,524.9023438,358.8867188
9.7300,769.53125,535.15625,365.7226563
9.7350,764.1601563,544.4335938,352.0507813
9.7400,765.1367188,561.0351563,366.2109375
9.7450,769.53125,551.7578125,364.7460938
9.7500,769.53125,529.296875,357.421875
9.7550,777.34375,513.671875,356.4453125
9.7600,782.2265625,514.6484375,342.2851563
9.7650,788.5742188,527.8320313,345.2148438
9.7700,773.9257813,528.3203125,354.0039063
9.7750,779.7851563,532.7148438,329.1015625
9.7800,782.7148438,535.6445313,345.703125
9.7850,777.8320313,518.5546875,336.9140625
9.7900,778.8085938,505.3710938,336.9140625
9.7950,783.203125,495.6054688,325.6835938
9.8000,780.7617188,513.1835938,323.7304688
9.8050,774.9023438,538.0859375,346.1914063
9.8100,770.0195313,538.5742188,365.234375
9.8150,774.4140625,518.5546875,362.7929688
9.8200,779.296875,499.5117188,347.65625
9.8250,776.3671875,502.4414063,340.3320313
9.8300,754.3945313,519.0429688,343.75
9.8350,748.5351563,547.3632813,345.2148438
9.8400,734.8632813,565.4296875,341.796875
9.8450,739.7460938,572.7539063,372.5585938
9.8500,737.7929688,553.7109375,356.9335938
9.8550,732.421875,521.9726563,340.3320313
9.8600,732.421875,472.65625,339.3554688
9.8650,735.3515625,441.8945313,325.1953125
9.8700,744.140625,449.7070313,334.9609375
9.8750,755.3710938,460.4492188,328.6132813
9.8800,756.8359375,486.328125,343.2617188
9.8850,750.9765625,498.046875,356.4453125
9.8900,745.1171875,495.1171875,367.1875
9.8950,744.6289063,470.2148438,365.234375
9.9000,760.7421875,437.5,354.4921875
9.9050,771.484375,401.3671875,353.0273438
9.9100,776.8554688,407.7148438,351.5625
9.9150,768.0664063,431.640625,348.1445313
9.9200,768.0664063,479.9804688,359.8632813
9.9250,762.2070313,496.09375,376.4648438
9.9300,772.9492188,489.7460938,395.5078125
9.9350,781.7382813,454.1015625,386.71875
9.9400,784.1796875,417.96875,387.6953125
9.9450,772.4609375,391.6015625,387.2070313
9.9500,770.9960938,395.9960938,373.5351563
9.9550,783.6914063,433.1054688,385.7421875
9.9600,780.2734375,476.0742188,404.7851563
9.9650,764.6484375,489.7460938,411.1328125
9.9700,770.9960938,483.3984375,405.7617188
9.9750,785.6445313,453.6132813,392.0898438
9.9800,783.6914063,414.0625,378.90625
9.9850,784.6679688,401.3671875,365.234375
9.9900,797.8515625,418.4570313,347.1679688
9.9950,809.5703125,458.4960938,353.0273438
10.0000,796.3867188,479.9804688,354.9804688
10.0050,799.8046875,490.234375,340.3320313
10.0100,798.828125,473.6328125,352.5390625
10.0150,796.3867188,432.1289063,352.0507813
10.0200,809.0820313,422.3632813,344.7265625
10.0250,809.5703125,427.734375,343.75
10.0300,803.7109375,457.03125,348.1445313
10.0350,800.2929688,470.2148438,346.6796875
10.0400,807.6171875,475.5859375,374.5117188
10.0450,798.828125,442.8710938,357.421875
10.0500,797.8515625,435.546875,354.9804688
10.0550,794.4335938,441.40625,356.9335938
10.0600,797.8515625,449.7070313,358.3984375
10.0650,791.015625,444.3359375,363.7695313
10.0700,776.8554688,437.0117188,371.5820313
10.0750,794.921875,453.125,366.2109375
10.0800,792.96875,447.265625,379.3945313
10.0850,786.6210938,444.3359375,388.1835938
10.0900,777.8320313,427.734375,377.9296875
10.0950,781.25,438.4765625,366.2109375
10.1000,769.0429688,453.6132813,382.8125
10.1050,769.0429688,465.8203125,384.765625
10.1100,772.4609375,457.03125,387.2070313
10.1150,777.8320313,447.7539063,393.5546875
10.1200,772.9492188,449.7070313,389.1601563
10.1250,754.3945313,440.4296875,397.4609375
10.1300,749.0234375,444.3359375,392.0898438
10.1350,750.9765625,435.0585938,385.7421875
10.1400,756.8359375,442.3828125,387.6953125
10.1450,751.4648438,441.8945313,405.2734375
10.1500,747.0703125,476.0742188,391.1132813
10.1550,748.5351563,489.7460938,386.71875
10.1600,735.3515625,481.4453125,395.9960938
10.1650,747.5585938,482.421875,400.390625
10.1700,757.8125,468.75,393.0664063
10.1750,761.71875,461.4257813,380.3710938
10.1800,751.953125,462.4023438,377.4414063
10.1850,750.9765625,475.0976563,361.8164063
10.1900,739.2578125,475.5859375,366.6992188
10.1950,745.1171875,488.28125,375.9765625
10.2000,740.7226563,493.1640625,362.3046875
10.2050,748.046875,493.6523438,369.140625
10.2100,754.8828125,494.140625,371.5820313
10.2150,752.9296875,481.4453125,374.0234375
10.2200,758.3007813,487.3046875,359.375
10.2250,750.9765625,479.4921875,375
10.2300,750,467.2851563,372.5585938
10.2350,762.6953125,470.2148438,348.6328125
10.2400,763.1835938,479.9804688,354.4921875
10.2450,761.71875,491.2109375,362.3046875
10.2500,752.9296875,497.5585938,367.1875
10.2550,759.2773438,514.6484375,364.7460938
10.2600,755.3710938,519.53125,366.2109375
10.2650,765.1367188,532.7148438,372.5585938
10.2700,769.53125,535.15625,380.3710938
10.2750,768.5546875,523.9257813,375
10.2800,759.765625,509.2773438,376.4648438
10.2850,758.3007813,491.6992188,360.8398438
10.2900,766.6015625,500.4882813,344.7265625
10.2950,751.4648438,487.7929688,358.3984375
10.3000,756.3476563,501.953125,344.7265625
10.3050,752.4414063,513.1835938,356.4453125
10.3100,751.953125,526.3671875,356.9335938
10.3150,754.8828125,549.3164063,363.28125
10.3200,752.4414063,558.59375,371.09375
10.3250,754.3945313,557.6171875,375
10.3300,752.4414063,548.3398438,369.6289063
10.3350,762.2070313,544.921875,365.234375
10.3400,755.3710938,542.96875,369.6289063
10.3450,750.9765625,546.3867188,366.2109375
10.3500,742.1875,551.7578125,354.4921875
10.3550,743.1640625,547.3632813,353.515625
10.3600,738.28125,548.828125,355.9570313
10.3650,739.7460938,554.1992188,367.6757813
10.3700,732.9101563,568.8476563,353.0273438
10.3750,738.28125,577.6367188,353.0273438
10.3800,730.9570313,575.1953125,368.6523438
10.3850,730.9570313,572.7539063,357.9101563
10.3900,719.2382813,577.1484375,362.3046875
10.3950,725.0976563,594.7265625,340.3320313
10.4000,722.1679688,617.6757813,361.328125
10.4050,714.3554688,621.09375,365.234375
10.4100,714.3554688,613.28125,368.1640625
10.4150,727.0507813,619.6289063,360.8398438
10.4200,727.0507813,612.7929688,364.7460938
10.4250,728.515625,612.7929688,354.0039063
10.4300,725.5859375,612.3046875,346.6796875
10.4350,722.1679688,614.7460938,344.7265625
10.4400,705.078125,606.4453125,340.3320313
10.4450,699.21875,602.5390625,354.4921875
10.4500,708.984375,600.5859375,343.2617188
10.4550,713.8671875,604.9804688,343.75
10.4600,718.75,622.5585938,335.4492188
10.4650,713.3789063,625,350.5859375
10.4700,697.7539063,623.046875,354.0039063
10.4750,702.6367188,626.953125,348.6328125
10.4800,690.4296875,630.3710938,362.7929688
10.4850,696.2890625,626.4648438,355.46875
10.4900,703.125,632.8125,349.609375
10.4950,704.1015625,644.53125,352.0507813
10.5000,700.6835938,656.25,349.1210938
10.5050,688.4765625,645.9960938,354.9804688
10.5100,680.1757813,643.0664063,352.5390625
10.5150,686.0351563,640.625,339.3554688
10.5200,687.5,647.4609375,345.2148438
10.5250,694.3359375,661.6210938,341.3085938
10.5300,692.8710938,658.6914063,354.9804688
10.5350,688.9648438,646.9726563,358.3984375
10.5400,683.1054688,654.296875,337.890625
10.5450,677.2460938,660.6445313,335.4492188
10.5500,672.8515625,678.7109375,338.3789063
10.5550,656.25,662.109375,346.6796875
10.5600,664.5507813,650.390625,351.0742188
10.5650,674.8046875,640.625,328.6132813
10.5700,678.7109375,646.484375,334.9609375
10.5750,682.6171875,647.4609375,328.6132813
10.5800,669.921875,653.8085938,343.75
10.5850,656.25,639.1601563,354.4921875
10.5900,663.0859375,643.0664063,330.078125
10.5950,669.4335938,636.71875,349.1210938
10.6000,667.4804688,634.765625,330.5664063
10.6050,657.2265625,647.4609375,321.2890625
10.6100,652.34375,675.2929688,319.8242188
10.6150,638.671875,674.3164063,340.8203125
10.6200,633.3007813,655.7617188,348.6328125
10.6250,637.6953125,657.7148438,334.9609375
10.6300,633.3007813,661.6210938,337.890625
10.6350,621.09375,667.96875,336.4257813
10.6400,611.8164063,677.734375,342.7734375
10.6450,610.3515625,676.2695313,349.609375
10.6500,621.5820313,678.7109375,337.4023438
10.6550,631.8359375,679.6875,333.0078125
10.6600,630.859375,679.1992188,333.984375
10.6650,615.7226563,682.6171875,333.0078125
10.6700,600.0976563,687.5,320.3125
10.6750,603.515625,689.453125,321.7773438
10.6800,608.8867188,691.40625,324.7070313
10.6850,609.8632813,679.6875,330.078125
10.6900,607.9101563,673.3398438,331.5429688
10.6950,606.9335938,674.3164063,322.7539063
10.7000,594.7265625,672.8515625,309.0820313
10.7050,575.6835938,673.3398438,318.359375
10.7100,567.3828125,690.4296875,315.4296875
10.7150,560.546875,702.1484375,299.8046875
10.7200,559.5703125,727.5390625,321.7773438
10.7250,552.734375,726.0742188,331.0546875
10.7300,545.4101563,713.3789063,336.4257813
10.7350,558.1054688,709.4726563,337.4023438
10.7400,565.4296875,708.984375,321.2890625
10.7450,560.0585938,713.8671875,333.984375
10.7500,558.59375,716.796875,335.4492188
10.7550,552.734375,721.1914063,328.6132813
10.7600,543.9453125,722.65625,320.3125
10.7650,542.96875,723.1445313,331.0546875
10.7700,536.6210938,728.0273438,319.8242188
10.7750,526.8554688,713.3789063,330.5664063
10.7800,523.9257813,706.5429688,325.6835938
10.7850,531.7382813,701.171875,330.078125
10.7900,534.6679688,708.0078125,324.7070313
10.7950,545.8984375,721.1914063,319.8242188
10.8000,538.0859375,739.2578125,330.078125
10.8050,526.8554688,757.8125,341.796875
10.8100,510.7421875,770.5078125,358.8867188
10.8150,503.90625,762.2070313,358.8867188
10.8200,507.3242188,755.859375,357.421875
10.8250,522.9492188,755.859375,350.5859375
10.8300,530.2734375,757.8125,356.9335938
10.8350,527.8320313,764.1601563,344.7265625
10.8400,510.2539063,782.7148438,341.3085938
10.8450,492.6757813,806.640625,331.5429688
10.8500,481.4453125,816.40625,332.5195313
10.8550,464.84375,797.3632813,324.7070313
10.8600,472.1679688,785.6445313,318.359375
10.8650,492.1875,785.15625,315.9179688
10.8700,497.5585938,781.25,328.6132813
10.8750,499.5117188,777.8320313,315.4296875
10.8800,496.5820313,776.8554688,324.21875
10.8850,482.421875,781.25,315.9179688
10.8900,480.46875,815.9179688,316.40625
10.8950,474.609375,836.9140625,331.5429688
10.9000,472.65625,831.0546875,340.3320313
10.9050,482.9101563,809.0820313,335.4492188
10.9100,482.9101563,778.8085938,341.3085938
10.9150,493.1640625,776.3671875,330.078125
10.9200,478.515625,801.7578125,318.359375
10.9250,448.2421875,834.9609375,342.7734375
10.9300,422.8515625,847.65625,343.2617188
10.9350,411.1328125,833.0078125,333.984375
10.9400,416.5039063,827.6367188,333.0078125
10.9450,431.640625,829.5898438,323.2421875
10.9500,437.5,824.7070313,330.5664063
10.9550,419.4335938,799.3164063,340.8203125
10.9600,408.6914063,794.4335938,333.0078125
10.9650,405.7617188,807.6171875,329.5898438
10.9700,400.8789063,818.359375,339.3554688
10.9750,404.296875,822.7539063,344.2382813
10.9800,401.8554688,817.3828125,348.1445313
10.9850,408.203125,820.3125,341.796875
10.9900,414.0625,844.7265625,334.9609375
10.9950,394.53125,858.3984375,330.078125
11.0000,382.3242188,893.0664063,324.7070313
11.0050,365.7226563,893.0664063,333.0078125
11.0100,349.1210938,876.4648438,333.984375
11.0150,350.0976563,840.3320313,316.8945313
11.0200,363.28125,821.2890625,325.1953125
11.0250,355.9570313,821.2890625,296.875
11.0300,346.6796875,838.3789063,300.78125
11.0350,325.1953125,834.9609375,305.6640625
11.0400,329.5898438,845.703125,316.40625
11.0450,326.6601563,845.2148438,331.0546875
11.0500,318.359375,853.515625,310.546875
11.0550,326.171875,886.71875,321.2890625
11.0600,300.78125,891.6015625,318.359375
11.0650,304.1992188,900.8789063,332.5195313
11.0700,290.0390625,892.578125,325.1953125
11.0750,292.4804688,891.6015625,315.4296875
11.0800,281.25,872.5585938,306.640625
11.0850,271.9726563,844.2382813,311.0351563
11.0900,265.1367188,835.4492188,311.5234375
11.0950,268.5546875,851.0742188,287.109375
11.1000,265.625,878.4179688,294.4335938
11.1050,251.4648438,894.0429688,300.2929688
11.1100,232.421875,900.390625,310.0585938
11.1150,226.5625,895.0195313,313.9648438
11.1200,227.0507813,890.1367188,316.40625
11.1250,227.0507813,869.6289063,310.0585938
11.1300,231.9335938,880.859375,309.0820313
11.1350,229.9804688,881.8359375,319.8242188
11.1400,219.7265625,883.7890625,308.59375
11.1450,212.4023438,882.8125,305.1757813
11.1500,213.3789063,906.7382813,311.0351563
11.1550,190.9179688,914.5507813,310.0585938
11.1600,169.4335938,917.96875,311.0351563
11.1650,158.6914063,915.0390625,302.734375
11.1700,160.15625,910.15625,304.6875
11.1750,165.5273438,913.0859375,302.2460938
11.1800,165.5273438,919.921875,299.3164063
11.1850,160.15625,932.6171875,286.6210938
11.1900,146.484375,944.8242188,305.1757813
11.1950,145.0195313,944.3359375,306.1523438
11.2000,142.578125,945.8007813,288.0859375
11.2050,122.5585938,948.2421875,282.2265625
11.2100,111.328125,969.2382813,292.96875
11.2150,98.14453125,961.9140625,300.2929688
11.2200,105.9570313,931.640625,306.1523438
11.2250,120.1171875,910.6445313,294.921875
11.2300,128.90625,923.828125,276.3671875
11.2350,127.4414063,970.2148438,279.296875
11.2400,84.9609375,992.1875,286.6210938
11.2450,64.453125,986.328125,300.78125
11.2500,66.89453125,949.21875,292.4804688
11.2550,86.9140625,916.9921875,267.0898438
11.2600,94.23828125,908.203125,270.0195313
11.2650,99.609375,941.40625,257.8125
11.2700,73.2421875,966.3085938,272.9492188
11.2750,50.29296875,975.5859375,296.3867188
11.2800,39.0625,968.2617188,272.9492188
11.2850,33.203125,950.1953125,292.4804688
11.2900,41.9921875,942.3828125,288.0859375
11.2950,43.9453125,935.546875,289.0625
11.3000,38.57421875,953.6132813,289.0625
11.3050,25.87890625,987.3046875,283.203125
11.3100,2.44140625,1017.578125,302.734375
11.3150,-19.04296875,997.5585938,310.0585938
11.3200,-14.6484375,978.0273438,308.59375
11.3250,0.9765625,960.9375,302.734375
11.3300,-0.48828125,952.6367188,297.3632813
11.3350,-11.23046875,960.4492188,299.8046875
11.3400,-30.76171875,963.3789063,296.3867188
11.3450,-42.96875,972.65625,295.8984375
11.3500,-43.45703125,966.3085938,291.015625
11.3550,-37.59765625,958.0078125,296.3867188
11.3600,-41.015625,958.984375,294.921875
11.3650,-49.8046875,975.5859375,301.7578125
11.3700,-60.546875,1007.324219,292.96875
11.3750,-79.1015625,1023.925781,312.9882813
11.3800,-82.51953125,1008.300781,322.7539063
11.3850,-67.87109375,976.5625,321.7773438
11.3900,-64.453125,946.7773438,315.9179688
11.3950,-60.546875,949.7070313,304.1992188
11.4000,-70.80078125,957.03125,310.0585938
11.4050,-91.796875,951.6601563,304.1992188
11.4100,-95.21484375,957.03125,314.9414063
11.4150,-96.19140625,958.0078125,288.0859375
11.4200,-99.609375,981.4453125,303.2226563
11.4250,-109.375,1001.953125,290.0390625
11.4300,-129.3945313,1005.371094,314.453125
11.4350,-134.2773438,995.6054688,300.2929688
11.4400,-134.2773438,979.0039063,312.5
11.4450,-128.90625,972.65625,317.3828125
11.4500,-146.9726563,953.125,298.3398438
11.4550,-140.1367188,949.21875,303.2226563
11.4600,-134.2773438,956.5429688,295.4101563
11.4650,-143.5546875,955.078125,303.7109375
11.4700,-145.5078125,957.5195313,295.8984375
11.4750,-152.8320313,951.6601563,308.59375
11.4800,-161.1328125,952.6367188,297.8515625
11.4850,-157.7148438,967.2851563,291.015625
11.4900,-165.5273438,985.8398438,301.2695313
11.4950,-170.8984375,989.2578125,299.8046875
11.5000,-177.2460938,982.421875,307.6171875
11.5050,-178.2226563,972.1679688,285.15625
11.5100,-187.0117188,971.1914063,293.4570313
11.5150,-193.359375,988.28125,281.7382813
11.5200,-210.9375,988.7695313,295.8984375
11.5250,-226.5625,957.5195313,297.3632813
11.5300,-218.75,937.0117188,288.0859375
11.5350,-203.125,928.2226563,286.1328125
11.5400,-208.0078125,920.4101563,291.015625
11.5450,-216.796875,938.9648438,271.484375
11.5500,-240.7226563,943.359375,279.7851563
11.5550,-251.953125,946.7773438,277.8320313
11.5600,-256.3476563,949.21875,283.203125
11.5650,-260.2539063,944.8242188,277.8320313
11.5700,-253.90625,950.6835938,281.7382813
11.5750,-250.4882813,944.8242188,270.0195313
11.5800,-259.2773438,939.9414063,268.0664063
11.5850,-267.578125,945.8007813,254.3945313
11.5900,-288.0859375,945.3125,259.2773438
11.5950,-290.5273438,932.1289063,272.4609375
11.6000,-291.9921875,913.0859375,271.484375
11.6050,-285.15625,908.6914063,277.34375
11.6100,-291.015625,931.1523438,262.2070313
11.6150,-303.7109375,950.1953125,285.15625
11.6200,-332.03125,941.40625,292.96875
11.6250,-334.4726563,911.1328125,286.1328125
11.6300,-329.1015625,895.0195313,268.0664063
11.6350,-318.8476563,891.6015625,251.953125
11.6400,-320.8007813,903.8085938,259.765625
11.6450,-331.0546875,918.9453125,242.1875
11.6500,-333.984375,923.3398438,256.8359375
11.6550,-336.4257813,921.3867188,254.8828125
11.6600,-329.5898438,923.828125,242.6757813
11.6650,-340.8203125,928.2226563,248.5351563
11.6700,-353.515625,928.2226563,259.765625
11.6750,-358.3984375,906.7382813,257.8125
11.6800,-356.9335938,900.390625,262.2070313
11.6850,-354.9804688,901.3671875,250
11.6900,-367.1875,889.1601563,264.1601563
11.6950,-372.5585938,884.2773438,267.578125
11.7000,-371.5820313,895.5078125,260.2539063
11.7050,-378.90625,898.9257813,265.625
11.7100,-396.484375,883.7890625,261.71875
11.7150,-394.0429688,875.9765625,259.765625
11.7200,-393.5546875,866.2109375,253.4179688
11.7250,-401.8554688,860.8398438,234.375
11.7300,-412.109375,874.5117188,241.2109375
11.7350,-419.921875,886.71875,222.65625
11.7400,-425.78125,890.1367188,217.2851563
11.7450,-426.7578125,880.3710938,221.1914063
11.7500,-425.78125,882.3242188,220.703125
11.7550,-425.78125,876.953125,221.6796875
11.7600,-431.640625,877.4414063,233.3984375
11.7650,-438.9648438,877.9296875,238.28125
11.7700,-441.8945313,874.5117188,235.3515625
11.7750,-452.1484375,863.28125,251.4648438
11.7800,-468.75,836.4257813,243.1640625
11.7850,-458.0078125,816.8945313,232.421875
11.7900,-462.890625,805.6640625,245.1171875
11.7950,-458.984375,815.9179688,227.5390625
11.8000,-467.7734375,844.2382813,241.6992188
11.8050,-479.9804688,859.8632813,237.7929688
11.8100,-484.8632813,897.4609375,230.9570313
11.8150,-504.8828125,898.4375,217.7734375
11.8200,-498.5351563,899.9023438,210.4492188
11.8250,-496.09375,878.4179688,199.7070313
11.8300,-485.3515625,876.4648438,183.59375
11.8350,-495.1171875,875,180.1757813
11.8400,-517.578125,860.8398438,206.5429688
11.8450,-526.3671875,848.6328125,211.4257813
11.8500,-535.6445313,819.8242188,217.7734375
11.8550,-531.7382813,796.875,222.65625
11.8600,-533.203125,797.3632813,208.4960938
11.8650,-533.6914063,810.546875,208.0078125
11.8700,-541.015625,812.0117188,212.4023438
11.8750,-557.6171875,794.4335938,204.5898438
11.8800,-573.7304688,789.5507813,190.4296875
11.8850,-575.6835938,800.78125,167.96875
11.8900,-588.3789063,801.7578125,170.8984375
11.8950,-584.4726563,801.7578125,162.109375
11.9000,-595.2148438,788.5742188,160.15625
11.9050,-584.9609375,792.4804688,152.8320313
11.9100,-592.2851563,793.9453125,147.9492188
11.9150,-596.1914063,801.2695313,164.5507813
11.9200,-605.46875,801.7578125,169.921875
11.9250,-610.3515625,801.2695313,187.5
11.9300,-604.9804688,792.96875,194.3359375
11.9350,-608.8867188,776.8554688,177.734375
11.9400,-603.515625,782.7148438,186.5234375
11.9450,-604.9804688,778.8085938,186.5234375
11.9500,-620.1171875,760.7421875,197.265625
11.9550,-622.5585938,744.140625,198.2421875
11.9600,-624.5117188,727.0507813,191.8945313
11.9650,-631.3476563,740.234375,177.2460938
11.9700,-630.859375,769.53125,182.1289063
11.9750,-638.1835938,794.4335938,175.2929688
11.9800,-641.1132813,817.3828125,181.640625
11.9850,-643.0664063,818.8476563,200.6835938
11.9900,-643.5546875,794.921875,218.75
11.9950,-647.4609375,770.9960938,205.5664063
12.0000,-646.9726563,763.671875,201.171875
12.0050,-650.390625,761.2304688,194.3359375
12.0100,-654.7851563,757.3242188,186.5234375
12.0150,-660.15625,735.3515625,186.5234375
12.0200,-659.6679688,735.8398438,188.9648438
12.0250,-666.5039063,729.0039063,178.7109375
12.0300,-671.3867188,730.46875,190.9179688
12.0350,-679.6875,732.9101563,190.9179688
12.0400,-684.5703125,737.7929688,195.3125
12.0450,-695.3125,730.9570313,184.0820313
12.0500,-682.6171875,745.1171875,193.359375
12.0550,-686.0351563,739.2578125,187.0117188
12.0600,-683.1054688,731.4453125,196.7773438
12.0650,-694.8242188,709.4726563,207.5195313
12.0700,-702.6367188,697.7539063,189.453125
12.0750,-708.4960938,689.9414063,184.0820313
12.0800,-718.2617188,692.3828125,182.6171875
12.0850,-729.4921875,690.4296875,192.3828125
12.0900,-731.4453125,697.7539063,187.9882813
12.0950,-739.2578125,689.453125,179.6875
12.1000,-748.046875,684.5703125,188.4765625
12.1050,-748.046875,679.6875,183.59375
12.1100,-741.2109375,685.546875,173.3398438
12.1150,-741.6992188,676.2695313,166.9921875
12.1200,-758.7890625,670.4101563,187.9882813
12.1250,-772.4609375,674.3164063,182.6171875
12.1300,-786.1328125,686.5234375,168.9453125
12.1350,-790.5273438,697.7539063,165.0390625
12.1400,-788.0859375,695.3125,167.96875
12.1450,-783.6914063,675.78125,183.1054688
12.1500,-782.2265625,655.2734375,170.4101563
12.1550,-783.6914063,627.9296875,170.4101563
12.1600,-796.3867188,592.7734375,145.9960938
12.1650,-803.7109375,569.3359375,154.296875
12.1700,-823.7304688,556.640625,130.859375
12.1750,-834.4726563,561.5234375,115.234375
12.1800,-833.4960938,567.3828125,121.5820313
12.1850,-837.890625,570.3125,102.0507813
12.1900,-845.2148438,565.4296875,95.703125
12.1950,-853.515625,564.453125,84.47265625
12.2000,-847.65625,574.7070313,82.51953125
12.2050,-832.5195313,589.84375,104.9804688
12.2100,-828.6132813,593.2617188,117.6757813
12.2150,-829.5898438,580.5664063,140.625
12.2200,-827.1484375,567.3828125,145.0195313
12.2250,-830.5664063,552.734375,146.9726563
12.2300,-833.4960938,544.4335938,146.484375
12.2350,-830.5664063,537.5976563,131.3476563
12.2400,-833.0078125,529.7851563,139.6484375
12.2450,-838.8671875,526.3671875,136.2304688
12.2500,-844.2382813,527.8320313,143.5546875
12.2550,-851.5625,528.3203125,144.53125
12.2600,-862.7929688,527.8320313,144.53125
12.2650,-868.6523438,523.9257813,126.4648438
12.2700,-867.6757813,534.6679688,128.90625
12.2750,-855.46875,538.0859375,141.6015625
12.2800,-868.6523438,526.8554688,140.625
12.2850,-865.7226563,536.6210938,149.4140625
12.2900,-868.1640625,539.5507813,145.9960938
12.2950,-864.7460938,541.9921875,149.4140625
12.3000,-868.6523438,533.203125,152.8320313
12.3050,-874.5117188,531.25,159.6679688
12.3100,-866.2109375,543.4570313,156.7382813
12.3150,-874.0234375,536.6210938,166.5039063
12.3200,-872.0703125,539.0625,177.2460938
12.3250,-877.4414063,521.9726563,180.1757813
12.3300,-875.4882813,514.6484375,187.5
12.3350,-873.046875,500.9765625,167.4804688
12.3400,-876.4648438,481.9335938,167.96875
12.3450,-876.4648438,473.6328125,159.6679688
12.3500,-881.8359375,477.0507813,144.53125
12.3550,-891.1132813,488.28125,157.2265625
12.3600,-892.578125,497.5585938,141.1132813
12.3650,-886.71875,500.4882813,149.4140625
12.3700,-886.2304688,503.90625,135.2539063
12.3750,-890.625,503.90625,143.5546875
12.3800,-897.9492188,501.953125,151.8554688
12.3850,-895.5078125,492.1875,154.296875
12.3900,-885.7421875,484.8632813,150.390625
12.3950,-892.0898438,476.0742188,147.4609375
12.4000,-898.9257813,468.2617188,153.8085938
12.4050,-901.3671875,452.6367188,149.9023438
12.4100,-897.9492188,444.8242188,141.1132813
12.4150,-905.2734375,430.1757813,145.9960938
12.4200,-910.6445313,427.734375,143.5546875
12.4250,-913.0859375,417.4804688,135.7421875
12.4300,-912.109375,407.7148438,127.4414063
12.4350,-916.9921875,399.9023438,124.5117188
12.4400,-916.015625,404.296875,114.2578125
12.4450,-921.3867188,404.296875,125
12.4500,-925.78125,421.875,114.7460938
12.4550,-922.8515625,433.59375,124.5117188
12.4600,-926.7578125,437.5,123.046875
12.4650,-927.734375,435.0585938,127.9296875
12.4700,-929.1992188,429.1992188,148.4375
12.4750,-935.546875,414.5507813,127.9296875
12.4800,-936.5234375,400.390625,140.1367188
12.4850,-933.1054688,384.765625,126.953125
12.4900,-931.1523438,378.90625,129.8828125
12.4950,-934.0820313,369.140625,121.5820313
12.5000,-932.1289063,372.0703125,132.8125
12.5050,-921.3867188,374.0234375,137.2070313
12.5100,-934.0820313,356.9335938,126.4648438
12.5150,-932.6171875,347.65625,128.90625
12.5200,-938.9648438,342.7734375,127.4414063
12.5250,-934.0820313,345.703125,132.3242188
12.5300,-932.6171875,348.1445313,114.7460938
12.5350,-933.59375,347.1679688,115.234375
12.5400,-927.2460938,361.8164063,118.1640625
12.5450,-925.78125,363.7695313,112.7929688
12.5500,-931.1523438,369.6289063,106.4453125
12.5550,-928.2226563,371.09375,110.3515625
12.5600,-934.5703125,369.140625,120.6054688
12.5650,-935.546875,361.8164063,122.0703125
12.5700,-937.0117188,356.9335938,119.6289063
12.5750,-942.3828125,355.46875,126.953125
12.5800,-938.4765625,365.234375,110.3515625
12.5850,-934.5703125,372.0703125,127.4414063
12.5900,-937.5,374.5117188,116.6992188
12.5950,-932.1289063,371.5820313,128.90625
12.6000,-933.59375,367.1875,127.4414063
12.6050,-945.3125,354.9804688,121.09375
12.6100,-949.21875,354.4921875,124.5117188
12.6150,-944.8242188,351.5625,122.5585938
12.6200,-948.2421875,344.7265625,122.0703125
12.6250,-943.359375,349.609375,106.4453125
12.6300,-954.1015625,349.1210938,119.6289063
12.6350,-951.6601563,351.0742188,111.328125
12.6400,-953.6132813,360.3515625,112.7929688
12.6450,-951.171875,360.3515625,104.0039063
12.6500,-946.2890625,358.3984375,98.14453125
12.6550,-939.453125,352.5390625,93.26171875
12.6600,-947.265625,341.3085938,85.44921875
12.6650,-936.0351563,343.75,76.171875
12.6700,-931.1523438,351.0742188,78.61328125
12.6750,-938.9648438,339.84375,62.98828125
12.6800,-934.5703125,345.703125,65.4296875
12.6850,-943.359375,337.4023438,51.26953125
12.6900,-945.3125,330.078125,67.87109375
12.6950,-941.40625,332.5195313,50.29296875
12.7000,-943.8476563,334.9609375,68.84765625
12.7050,-945.8007813,331.5429688,79.1015625
12.7100,-948.7304688,325.1953125,86.9140625
12.7150,-956.0546875,324.21875,99.609375
12.7200,-963.8671875,315.9179688,100.0976563
12.7250,-963.8671875,302.2460938,111.8164063
12.7300,-966.3085938,296.3867188,91.796875
12.7350,-972.1679688,288.0859375,124.0234375
12.7400,-971.1914063,285.15625,113.7695313
12.7450,-975.5859375,275.8789063,125.4882813
12.7500,-978.0273438,262.2070313,127.4414063
12.7550,-968.2617188,266.6015625,134.765625
12.7600,-970.2148438,260.2539063,126.953125
12.7650,-966.3085938,264.1601563,136.71875
12.7700,-970.703125,255.859375,120.6054688
12.7750,-966.3085938,253.90625,118.6523438
12.7800,-978.0273438,244.6289063,112.3046875
12.7850,-971.6796875,248.5351563,96.19140625
12.7900,-968.75,247.0703125,112.3046875
12.7950,-966.3085938,251.953125,96.6796875
12.8000,-960.9375,251.953125,112.3046875
12.8050,-955.5664063,242.6757813,95.21484375
12.8100,-949.21875,239.2578125,77.1484375
12.8150,-944.8242188,235.8398438,74.21875
12.8200,-945.3125,244.6289063,49.8046875
12.8250,-958.4960938,239.7460938,55.6640625
12.8300,-972.65625,258.3007813,43.9453125
12.8350,-969.2382813,281.7382813,41.50390625
12.8400,-966.796875,306.640625,49.31640625
12.8450,-955.5664063,322.265625,42.48046875
12.8500,-963.3789063,323.2421875,55.6640625
12.8550,-967.7734375,317.8710938,60.05859375
12.8600,-979.4921875,299.3164063,60.05859375
12.8650,-974.609375,294.921875,55.17578125
12.8700,-979.4921875,281.25,67.3828125
12.8750,-981.9335938,276.8554688,69.82421875
12.8800,-975.5859375,300.2929688,76.66015625
12.8850,-984.8632813,308.1054688,83.984375
12.8900,-973.1445313,322.265625,80.56640625
12.8950,-966.3085938,329.5898438,87.890625
12.9000,-965.8203125,330.078125,79.58984375
12.9050,-959.9609375,333.984375,104.9804688
12.9100,-962.890625,329.5898438,105.46875
12.9150,-972.1679688,314.453125,110.8398438
12.9200,-966.3085938,322.7539063,102.5390625
12.9250,-960.4492188,329.5898438,104.9804688
12.9300,-945.3125,329.1015625,112.3046875
12.9350,-945.8007813,310.0585938,108.3984375
12.9400,-952.6367188,293.9453125,110.3515625
12.9450,-956.5429688,282.7148438,111.8164063
12.9500,-963.3789063,274.9023438,103.515625
12.9550,-958.984375,280.7617188,105.9570313
12.9600,-953.125,294.921875,94.23828125
12.9650,-953.125,309.5703125,89.84375
12.9700,-950.6835938,327.6367188,87.40234375
12.9750,-953.6132813,330.5664063,87.890625
12.9800,-956.5429688,343.75,73.2421875
12.9850,-957.5195313,348.1445313,82.03125
12.9900,-957.5195313,356.9335938,94.23828125
12.9950,-961.4257813,355.9570313,96.19140625
13.0000,-959.4726563,353.0273438,99.609375
13.0050,-951.6601563,336.4257813,95.21484375
13.0100,-951.6601563,324.7070313,92.28515625
13.0150,-957.5195313,309.0820313,87.40234375
13.0200,-966.3085938,303.2226563,88.8671875
13.0250,-957.5195313,315.4296875,92.7734375
13.0300,-957.5195313,326.6601563,90.33203125
13.0350,-960.9375,333.4960938,82.51953125
13.0400,-956.0546875,344.2382813,89.35546875
13.0450,-958.984375,345.703125,91.30859375
13.0500,-959.9609375,349.1210938,86.9140625
13.0550,-954.5898438,361.328125,83.0078125
13.0600,-961.4257813,358.8867188,99.609375
13.0650,-960.4492188,362.7929688,100.0976563
13.0700,-959.4726563,380.3710938,89.35546875
13.0750,-960.9375,387.2070313,95.21484375
13.0800,-961.4257813,385.7421875,100.0976563
13.0850,-957.5195313,384.765625,91.30859375
13.0900,-947.7539063,394.0429688,90.33203125
13.0950,-956.5429688,389.6484375,89.35546875
13.1000,-958.984375,390.1367188,91.30859375
13.1050,-958.4960938,387.2070313,104.4921875
13.1100,-955.078125,394.0429688,89.84375
13.1150,-947.7539063,395.9960938,89.84375
13.1200,-937.0117188,395.5078125,85.9375
13.1250,-930.6640625,402.8320313,79.1015625
13.1300,-942.8710938,401.8554688,76.66015625
13.1350,-932.1289063,406.7382813,85.9375
13.1400,-923.3398438,413.0859375,76.171875
13.1450,-921.875,416.9921875,81.54296875
13.1500,-923.828125,423.828125,87.890625
13.1550,-921.875,427.2460938,87.890625
13.1600,-921.875,425.78125,86.9140625
13.1650,-916.5039063,428.2226563,68.359375
13.1700,-906.25,431.1523438,82.03125
13.1750,-903.3203125,431.1523438,74.70703125
13.1800,-900.390625,433.1054688,86.42578125
13.1850,-903.3203125,419.4335938,83.0078125
13.1900,-910.6445313,416.9921875,78.61328125
13.1950,-897.9492188,424.3164063,71.77734375
13.2000,-888.1835938,437.5,71.77734375
13.2050,-899.9023438,430.6640625,82.51953125
13.2100,-902.34375,453.125,81.0546875
13.2150,-903.8085938,463.8671875,87.890625
13.2200,-902.8320313,474.1210938,87.890625
13.2250,-905.2734375,486.8164063,76.66015625
13.2300,-916.5039063,488.7695313,85.44921875
13.2350,-914.5507813,494.6289063,88.8671875
13.2400,-906.7382813,504.8828125,83.984375
13.2450,-903.3203125,507.3242188,76.66015625
13.2500,-904.7851563,514.1601563,76.66015625
13.2550,-904.7851563,511.71875,89.35546875
13.2600,-906.7382813,508.7890625,82.03125
13.2650,-907.7148438,504.3945313,82.03125
13.2700,-908.6914063,497.5585938,92.28515625
13.2750,-903.3203125,503.90625,96.19140625
13.2800,-895.5078125,505.859375,95.21484375
13.2850,-888.671875,512.6953125,98.6328125
13.2900,-886.71875,510.7421875,110.3515625
13.2950,-876.4648438,512.6953125,102.0507813
13.3000,-891.1132813,497.5585938,103.515625
13.3050,-868.1640625,520.5078125,108.8867188
13.3100,-881.8359375,514.6484375,110.3515625
13.3150,-871.5820313,525.8789063,110.8398438
13.3200,-854.4921875,547.8515625,92.7734375
13.3250,-851.5625,552.734375,104.9804688
13.3300,-851.0742188,563.4765625,104.0039063
13.3350,-849.1210938,569.8242188,116.6992188
13.3400,-842.7734375,572.7539063,108.8867188
13.3450,-839.84375,563.4765625,104.4921875
13.3500,-840.8203125,565.4296875,108.8867188
13.3550,-839.84375,573.2421875,91.30859375
13.3600,-844.2382813,581.5429688,105.9570313
13.3650,-846.1914063,581.0546875,96.6796875
13.3700,-839.3554688,590.8203125,102.5390625
13.3750,-832.5195313,606.9335938,88.37890625
13.3800,-832.03125,615.7226563,99.12109375
13.3850,-820.8007813,626.953125,95.21484375
13.3900,-814.453125,643.0664063,88.8671875
13.3950,-811.5234375,658.6914063,102.0507813
13.4000,-814.9414063,661.6210938,103.0273438
13.4050,-803.7109375,677.2460938,87.40234375
13.4100,-799.8046875,684.5703125,104.9804688
13.4150,-797.8515625,673.828125,110.8398438
13.4200,-791.015625,679.1992188,93.75
13.4250,-786.1328125,690.9179688,111.328125
13.4300,-787.5976563,694.8242188,101.0742188
13.4350,-782.7148438,692.8710938,122.5585938
13.4400,-789.0625,691.40625,102.5390625
13.4450,-774.9023438,695.8007813,108.8867188
13.4500,-777.8320313,690.4296875,112.3046875
13.4550,-777.8320313,688.9648438,109.8632813
13.4600,-774.4140625,691.8945313,107.9101563
13.4650,-763.671875,695.3125,106.9335938
13.4700,-760.2539063,702.6367188,121.09375
13.4750,-752.9296875,706.5429688,113.7695313
13.4800,-753.4179688,693.8476563,123.046875
13.4850,-739.2578125,701.171875,112.7929688
13.4900,-741.6992188,693.8476563,121.09375
13.4950,-734.8632813,705.078125,122.5585938
13.5000,-730.46875,713.8671875,116.2109375
13.5050,-723.6328125,721.6796875,123.046875
13.5100,-719.7265625,729.9804688,119.6289063
13.5150,-723.1445313,730.46875,135.7421875
13.5200,-718.75,730.9570313,127.4414063
13.5250,-705.5664063,730.9570313,129.3945313
13.5300,-708.984375,726.5625,132.8125
13.5350,-695.8007813,736.8164063,138.1835938
13.5400,-690.9179688,744.6289063,125.4882813
13.5450,-681.640625,760.7421875,123.046875
13.5500,-676.7578125,768.0664063,139.1601563
13.5550,-672.3632813,779.296875,124.0234375
13.5600,-672.8515625,777.8320313,130.3710938
13.5650,-666.5039063,769.53125,123.046875
13.5700,-666.015625,761.2304688,124.0234375
13.5750,-644.0429688,770.9960938,120.6054688
13.5800,-648.4375,764.1601563,110.8398438
13.5850,-645.0195313,769.53125,111.328125
13.5900,-642.0898438,773.9257813,118.1640625
13.5950,-645.5078125,770.0195313,106.4453125
13.6000,-636.71875,779.296875,118.1640625
13.6050,-633.3007813,780.2734375,122.5585938
13.6100,-621.5820313,779.7851563,127.9296875
13.6150,-611.8164063,783.6914063,120.1171875
13.6200,-612.7929688,786.1328125,127.4414063
13.6250,-600.5859375,797.3632813,131.8359375
13.6300,-597.1679688,802.734375,136.2304688
13.6350,-592.7734375,811.5234375,128.90625
13.6400,-592.2851563,808.1054688,143.0664063
13.6450,-583.0078125,804.1992188,128.90625
13.6500,-573.7304688,810.0585938,133.3007813
13.6550,-572.7539063,813.4765625,147.4609375
13.6600,-572.7539063,815.4296875,141.1132813
13.6650,-561.0351563,816.8945313,142.0898438
13.6700,-548.828125,810.0585938,154.7851563
13.6750,-543.4570313,794.921875,158.6914063
13.6800,-541.5039063,804.6875,153.8085938
13.6850,-549.3164063,800.78125,154.296875
13.6900,-539.5507813,809.5703125,151.3671875
13.6950,-524.9023438,805.1757813,152.34375
13.7000,-520.5078125,804.6875,156.7382813
13.7050,-514.1601563,809.5703125,156.25
13.7100,-511.2304688,833.0078125,154.296875
13.7150,-513.671875,844.2382813,164.0625
13.7200,-516.1132813,847.65625,170.8984375
13.7250,-500.4882813,841.796875,173.828125
13.7300,-495.1171875,840.8203125,155.2734375
13.7350,-486.328125,851.0742188,166.9921875
13.7400,-480.46875,871.09375,159.6679688
13.7450,-483.8867188,870.6054688,164.0625
13.7500,-479.0039063,868.6523438,170.8984375
13.7550,-463.8671875,869.140625,161.1328125
13.7600,-458.4960938,867.1875,164.0625
13.7650,-453.6132813,873.046875,170.4101563
13.7700,-446.7773438,874.5117188,173.828125
13.7750,-440.9179688,870.6054688,173.828125
13.7800,-444.3359375,855.46875,175.78125
13.7850,-428.7109375,859.375,177.734375
13.7900,-424.3164063,857.421875,174.3164063
13.7950,-422.3632813,871.09375,166.5039063
13.8000,-422.8515625,889.6484375,180.1757813
13.8050,-411.1328125,904.296875,184.0820313
13.8100,-412.5976563,896.9726563,185.546875
13.8150,-398.9257813,894.53125,185.546875
13.8200,-398.9257813,897.4609375,189.453125
13.8250,-386.71875,917.4804688,187.9882813
13.8300,-381.3476563,926.2695313,194.3359375
13.8350,-377.4414063,911.1328125,201.6601563
13.8400,-376.953125,895.0195313,196.7773438
13.8450,-368.1640625,903.8085938,189.453125
13.8500,-364.7460938,901.3671875,203.6132813
13.8550,-356.9335938,914.5507813,200.1953125
13.8600,-354.9804688,912.5976563,206.0546875
13.8650,-348.1445313,917.96875,199.21875
13.8700,-360.3515625,913.0859375,209.4726563
13.8750,-354.0039063,920.8984375,194.8242188
13.8800,-352.0507813,935.546875,207.03125
13.8850,-339.3554688,945.8007813,212.4023438
13.8900,-331.0546875,944.8242188,214.84375
13.8950,-334.4726563,938.9648438,219.7265625
13.9000,-333.0078125,955.5664063,216.796875
13.9050,-332.03125,966.796875,222.65625
13.9100,-326.6601563,967.2851563,212.890625
13.9150,-320.8007813,951.171875,224.1210938
13.9200,-312.5,937.0117188,221.6796875
13.9250,-314.453125,941.8945313,206.5429688
13.9300,-314.9414063,969.2382813,208.984375
13.9350,-308.59375,990.234375,214.84375
13.9400,-291.9921875,985.8398438,224.609375
13.9450,-279.7851563,957.5195313,222.65625
13.9500,-282.2265625,939.9414063,224.1210938
13.9550,-273.4375,964.3554688,201.171875
13.9600,-285.6445313,981.4453125,213.3789063
13.9650,-286.6210938,987.3046875,220.703125
13.9700,-259.765625,986.328125,210.9375
13.9750,-263.1835938,956.0546875,209.9609375
13.9800,-257.3242188,954.1015625,194.3359375
13.9850,-258.3007813,970.703125,197.265625
13.9900,-259.765625,975.5859375,194.3359375
13.9950,-254.3945313,966.3085938,194.8242188
14.0000,-238.28125,954.5898438,203.125
14.0050,-235.3515625,944.8242188,193.359375
14.0100,-235.8398438,948.2421875,196.7773438
14.0150,-222.65625,963.3789063,190.9179688
14.0200,-219.2382813,971.1914063,201.6601563
14.0250,-214.84375,968.75,200.1953125
14.0300,-214.3554688,962.4023438,203.6132813
14.0350,-209.9609375,951.171875,195.3125
14.0400,-202.1484375,958.4960938,198.2421875
14.0450,-194.3359375,957.5195313,203.6132813
14.0500,-188.4765625,952.1484375,208.984375
14.0550,-184.5703125,949.7070313,206.5429688
14.0600,-181.640625,963.8671875,200.6835938
14.0650,-182.6171875,973.6328125,199.7070313
14.0700,-175.78125,984.375,200.6835938
14.0750,-164.0625,981.4453125,224.609375
14.0800,-157.2265625,978.0273438,207.03125
14.0850,-155.2734375,978.0273438,223.6328125
14.0900,-149.9023438,984.375,217.7734375
14.0950,-144.53125,984.8632813,215.3320313
14.1000,-142.0898438,972.65625,229.0039063
14.1050,-130.3710938,958.4960938,206.0546875
14.1100,-129.8828125,954.5898438,216.3085938
14.1150,-127.4414063,956.5429688,221.1914063
14.1200,-124.5117188,958.4960938,218.75
14.1250,-122.0703125,963.3789063,220.703125
14.1300,-111.328125,968.2617188,229.0039063
14.1350,-102.0507813,974.1210938,226.5625
14.1400,-106.9335938,979.0039063,220.703125
14.1450,-93.26171875,969.7265625,232.421875
14.1500,-81.54296875,948.7304688,227.5390625
14.1550,-67.3828125,945.3125,229.9804688
14.1600,-67.87109375,959.4726563,241.6992188
14.1650,-81.0546875,974.609375,241.6992188
14.1700,-77.1484375,983.3984375,243.1640625
