type,name,time_units,begin_time,frequency,count,units
signal,"Noraxon MyoMotion-Segments-Forearm RT-Course","s",0.0000,200,5088,"deg"

time,value
0.0000,-5.401981066
0.0050,-5.394094804
0.0100,-5.38620853
0.0150,-5.378322244
0.0200,-5.368793302
0.0250,-5.357494491
0.0300,-5.344321424
0.0350,-5.329198714
0.0400,-5.312085342
0.0450,-5.292978422
0.0500,-5.271915307
0.0550,-5.248973599
0.0600,-5.224268866
0.0650,-5.19795153
0.0700,-5.170204108
0.0750,-5.141237359
0.0800,-5.111284383
0.0850,-5.080594444
0.0900,-5.049427797
0.0950,-5.01805111
0.1000,-4.986733271
0.1050,-4.955741527
0.1100,-4.92533818
0.1150,-4.895778065
0.1200,-4.867306051
0.1250,-4.840153963
0.1300,-4.814537192
0.1350,-4.790651078
0.1400,-4.768667017
0.1450,-4.74872864
0.1500,-4.73094817
0.1550,-4.699222668
0.1600,-4.669727574
0.1650,-4.642365216
0.1700,-4.617325213
0.1750,-4.594295038
0.1800,-4.573215454
0.1850,-4.553904914
0.1900,-4.536307379
0.1950,-4.520495937
0.2000,-4.506317684
0.2050,-4.493657792
0.2100,-4.482276496
0.2150,-4.472021548
0.2200,-4.46268658
0.2250,-4.454401938
0.2300,-4.447047407
0.2350,-4.440441857
0.2400,-4.434845292
0.2450,-4.429899044
0.2500,-4.425737495
0.2550,-4.42230387
0.2600,-4.419316916
0.2650,-4.41664758
0.2700,-4.414301924
0.2750,-4.41209758
0.2800,-4.409964066
0.2850,-4.407889391
0.2900,-4.405587094
0.2950,-4.402973629
0.3000,-4.399787691
0.3050,-4.396038532
0.3100,-4.391605132
0.3150,-4.38638117
0.3200,-4.380294884
0.3250,-4.373397408
0.3300,-4.366045622
0.3350,-4.358027168
0.3400,-4.349471774
0.3450,-4.34057761
0.3500,-4.331254582
0.3550,-4.321629191
0.3600,-4.311892077
0.3650,-4.301989354
0.3700,-4.2920222
0.3750,-4.281968817
0.3800,-4.272095381
0.3850,-4.262276537
0.3900,-4.252386431
0.3950,-4.242638113
0.4000,-4.232720521
0.4050,-4.222513158
0.4100,-4.212019264
0.4150,-4.201167034
0.4200,-4.189694154
0.4250,-4.177780977
0.4300,-4.165289641
0.4350,-4.152196916
0.4400,-4.138596623
0.4450,-4.124473739
0.4500,-4.109703432
0.4550,-4.094405669
0.4600,-4.078669866
0.4650,-4.062482688
0.4700,-4.045744756
0.4750,-4.028986934
0.4800,-4.012193937
0.4850,-3.995341747
0.4900,-3.978526182
0.4950,-3.961698002
0.5000,-3.944956893
0.5050,-3.928226324
0.5100,-3.911816801
0.5150,-3.895466527
0.5200,-3.879496041
0.5250,-3.863801263
0.5300,-3.848406343
0.5350,-3.833261199
0.5400,-3.818172912
0.5450,-3.803279139
0.5500,-3.788571441
0.5550,-3.774033042
0.5600,-3.759820464
0.5650,-3.745985831
0.5700,-3.732545729
0.5750,-3.719487997
0.5800,-3.706886947
0.5850,-3.694647292
0.5900,-3.682959834
0.5950,-3.671843225
0.6000,-3.661353196
0.6050,-3.651543039
0.6100,-3.642383674
0.6150,-3.634025349
0.6200,-3.626535577
0.6250,-3.619771338
0.6300,-3.613639744
0.6350,-3.608289904
0.6400,-3.603372121
0.6450,-3.599036359
0.6500,-3.595150846
0.6550,-3.591604985
0.6600,-3.588220987
0.6650,-3.585016221
0.6700,-3.581996514
0.6750,-3.579173761
0.6800,-3.576212604
0.6850,-3.573292445
0.6900,-3.570350161
0.6950,-3.567139869
0.7000,-3.563631223
0.7050,-3.559937273
0.7100,-3.555977776
0.7150,-3.55181705
0.7200,-3.547548144
0.7250,-3.543166199
0.7300,-3.53872445
0.7350,-3.534249012
0.7400,-3.529704441
0.7450,-3.525079297
0.7500,-3.520427835
0.7550,-3.515659675
0.7600,-3.510687068
0.7650,-3.505769014
0.7700,-3.501225896
0.7750,-3.496960227
0.7800,-3.492959537
0.7850,-3.48962123
0.7900,-3.487029585
0.7950,-3.485148861
0.8000,-3.484212983
0.8050,-3.484350447
0.8100,-3.485492916
0.8150,-3.487703696
0.8200,-3.490694775
0.8250,-3.494697435
0.8300,-3.499778575
0.8350,-3.506035228
0.8400,-3.513731127
0.8450,-3.522963242
0.8500,-3.533665367
0.8550,-3.545840355
0.8600,-3.559254397
0.8650,-3.574068059
0.8700,-3.589987324
0.8750,-3.607007336
0.8800,-3.624945177
0.8850,-3.643833207
0.8900,-3.663617362
0.8950,-3.684043032
0.9000,-3.70550583
0.9050,-3.727744735
0.9100,-3.750612079
0.9150,-3.774035081
0.9200,-3.797848092
0.9250,-3.821955685
0.9300,-3.846006923
0.9350,-3.869687864
0.9400,-3.893278718
0.9450,-3.916303416
0.9500,-3.938797692
0.9550,-3.960643322
0.9600,-3.981904795
0.9650,-4.002639257
0.9700,-4.022549138
0.9750,-4.041679634
0.9800,-4.060082768
0.9850,-4.077442516
0.9900,-4.093665783
0.9950,-4.108918837
1.0000,-4.122981822
1.0050,-4.135413574
1.0100,-4.146317885
1.0150,-4.155612399
1.0200,-4.163111511
1.0250,-4.168588304
1.0300,-4.17217359
1.0350,-4.173808614
1.0400,-4.173466912
1.0450,-4.171106752
1.0500,-4.166750188
1.0550,-4.160671362
1.0600,-4.152824244
1.0650,-4.143082594
1.0700,-4.1313305
1.0750,-4.117667361
1.0800,-4.102266094
1.0850,-4.084962925
1.0900,-4.065850343
1.0950,-4.044872206
1.1000,-4.022041482
1.1050,-3.997390979
1.1100,-3.970886931
1.1150,-3.942767128
1.1200,-3.913433624
1.1250,-3.882780553
1.1300,-3.850969918
1.1350,-3.818055936
1.1400,-3.783919425
1.1450,-3.748654455
1.1500,-3.712521394
1.1550,-3.675715483
1.1600,-3.638679368
1.1650,-3.601192753
1.1700,-3.563624261
1.1750,-3.526139793
1.1800,-3.48895287
1.1850,-3.45184338
1.1900,-3.414780621
1.1950,-3.377667995
1.2000,-3.340069338
1.2050,-3.301866271
1.2100,-3.263224617
1.2150,-3.223948645
1.2200,-3.184132923
1.2250,-3.143795281
1.2300,-3.102978382
1.2350,-3.061845876
1.2400,-3.020151889
1.2450,-2.977994808
1.2500,-2.93519589
1.2550,-2.891687
1.2600,-2.846883624
1.2650,-2.80062266
1.2700,-2.752807849
1.2750,-2.703077436
1.2800,-2.651333276
1.2850,-2.597382907
1.2900,-2.541218426
1.2950,-2.482455407
1.3000,-2.420970485
1.3050,-2.357066727
1.3100,-2.290384359
1.3150,-2.220708329
1.3200,-2.148028458
1.3250,-2.072109842
1.3300,-1.992854891
1.3350,-1.910148411
1.3400,-1.824152258
1.3450,-1.734918008
1.3500,-1.642588096
1.3550,-1.546941913
1.3600,-1.448079152
1.3650,-1.345917111
1.3700,-1.240578593
1.3750,-1.131877304
1.3800,-1.019413258
1.3850,-0.9033769871
1.3900,-0.7834031384
1.3950,-0.6596568564
1.4000,-0.5319203218
1.4050,-0.4001496194
1.4100,-0.264398579
1.4150,-0.1243376672
1.4200,0.0198476642
1.4250,0.1681581011
1.4300,0.3206588468
1.4350,0.4774113497
1.4400,0.6381425306
1.4450,0.8028007158
1.4500,0.9715028406
1.4550,1.143991454
1.4600,1.320495197
1.4650,1.500644709
1.4700,1.684552814
1.4750,1.872165211
1.4800,2.063897175
1.4850,2.259447963
1.4900,2.458670545
1.4950,2.661427887
1.5000,2.867486149
1.5050,3.076483876
1.5100,3.288680778
1.5150,3.503719461
1.5200,3.721755378
1.5250,3.943062689
1.5300,4.167436802
1.5350,4.394826185
1.5400,4.625449054
1.5450,4.859004696
1.5500,5.095597758
1.5550,5.335247659
1.5600,5.57745467
1.5650,5.822086803
1.5700,6.069066192
1.5750,6.318142721
1.5800,6.569690039
1.5850,6.823109255
1.5900,7.07854742
1.5950,7.335976616
1.6000,7.595166902
1.6050,7.856457284
1.6100,8.119823317
1.6150,8.385003214
1.6200,8.652352397
1.6250,8.921489619
1.6300,9.192514063
1.6350,9.465187382
1.6400,9.739454836
1.6450,10.0154011
1.6500,10.29289637
1.6550,10.5718414
1.6600,10.85210691
1.6650,11.13346339
1.6700,11.41574542
1.6750,11.69907823
1.6800,11.98261173
1.6850,12.2666558
1.6900,12.55082017
1.6950,12.83520447
1.7000,13.11991006
1.7050,13.40471065
1.7100,13.68980809
1.7150,13.97478868
1.7200,14.26001062
1.7250,14.54554473
1.7300,14.83142091
1.7350,15.1177772
1.7400,15.4047104
1.7450,15.69218939
1.7500,15.98011843
1.7550,16.26887924
1.7600,16.55851467
1.7650,16.84885956
1.7700,17.13982306
1.7750,17.43175711
1.7800,17.72415474
1.7850,18.01763228
1.7900,18.31197854
1.7950,18.60723697
1.8000,18.90343074
1.8050,19.20056216
1.8100,19.49859344
1.8150,19.79776942
1.8200,20.09782912
1.8250,20.39875847
1.8300,20.70078185
1.8350,21.00409995
1.8400,21.30852067
1.8450,21.61439348
1.8500,21.92155359
1.8550,22.22995069
1.8600,22.53977633
1.8650,22.85119969
1.8700,23.16435929
1.8750,23.47902955
1.8800,23.79512101
1.8850,24.11304342
1.8900,24.43251673
1.8950,24.75345157
1.9000,25.0760386
1.9050,25.4000366
1.9100,25.72562945
1.9150,26.05295058
1.9200,26.38177608
1.9250,26.7120698
1.9300,27.04378076
1.9350,27.37710729
1.9400,27.71171925
1.9450,28.04770067
1.9500,28.38505333
1.9550,28.7237523
1.9600,29.0638017
1.9650,29.40524431
1.9700,29.74834083
1.9750,30.09293449
1.9800,30.43917085
1.9850,30.7871766
1.9900,31.13717044
1.9950,31.48889802
2.0000,31.84223998
2.0050,32.19734443
2.0100,32.55384701
2.0150,32.91196995
2.0200,33.27135629
2.0250,33.63204235
2.0300,33.99387277
2.0350,34.35655543
2.0400,34.72007491
2.0450,35.08413013
2.0500,35.44899376
2.0550,35.81425362
2.0600,36.17967262
2.0650,36.54550957
2.0700,36.91177794
2.0750,37.27796656
2.0800,37.64399901
2.0850,38.00968915
2.0900,38.37517284
2.0950,38.74034655
2.1000,39.1054889
2.1050,39.47060081
2.1100,39.83545207
2.1150,40.19999218
2.1200,40.56443709
2.1250,40.92867664
2.1300,41.29264371
2.1350,41.65618018
2.1400,42.01915957
2.1450,42.38146757
2.1500,42.74312103
2.1550,43.10368235
2.1600,43.46325767
2.1650,43.82209476
2.1700,44.17954252
2.1750,44.53610345
2.1800,44.8914319
2.1850,45.24523267
2.1900,45.59769188
2.1950,45.94871747
2.2000,46.29826122
2.2050,46.64632808
2.2100,46.9927983
2.2150,47.33767444
2.2200,47.68074534
2.2250,48.02197875
2.2300,48.36124533
2.2350,48.69843461
2.2400,49.03392887
2.2450,49.36749228
2.2500,49.69870918
2.2550,50.02748575
2.2600,50.3539653
2.2650,50.678208
2.2700,51.00013109
2.2750,51.3194529
2.2800,51.63629618
2.2850,51.95010182
2.2900,52.26115771
2.2950,52.56963544
2.3000,52.87536426
2.3050,53.17856194
2.3100,53.47937477
2.3150,53.77761234
2.3200,54.07345177
2.3250,54.36677482
2.3300,54.6579283
2.3350,54.94669706
2.3400,55.23310137
2.3450,55.51770898
2.3500,55.80035048
2.3550,56.08140617
2.3600,56.36095411
2.3650,56.63875658
2.3700,56.91493925
2.3750,57.18960909
2.3800,57.46292164
2.3850,57.73445244
2.3900,58.00458967
2.3950,58.2733408
2.4000,58.54059333
2.4050,58.80670878
2.4100,59.0718523
2.4150,59.33607018
2.4200,59.59952606
2.4250,59.86222487
2.4300,60.12389249
2.4350,60.38439567
2.4400,60.64398992
2.4450,60.90266574
2.4500,61.16048715
2.4550,61.4176389
2.4600,61.67429703
2.4650,61.93019061
2.4700,62.18551317
2.4750,62.43982037
2.4800,62.69331504
2.4850,62.94570202
2.4900,63.19678796
2.4950,63.44689305
2.5000,63.69567928
2.5050,63.94326892
2.5100,64.18971801
2.5150,64.43520103
2.5200,64.67988198
2.5250,64.92373055
2.5300,65.16702641
2.5350,65.40960792
2.5400,65.65118151
2.5450,65.89175877
2.5500,66.13164799
2.5550,66.37081646
2.5600,66.60888145
2.5650,66.84545315
2.5700,67.08037334
2.5750,67.31358513
2.5800,67.5451894
2.5850,67.77511326
2.5900,68.00313973
2.5950,68.22919469
2.6000,68.45361854
2.6050,68.67623982
2.6100,68.89710098
2.6150,69.11656772
2.6200,69.33444917
2.6250,69.55116389
2.6300,69.76626928
2.6350,69.98032687
2.6400,70.19331899
2.6450,70.40464564
2.6500,70.61451595
2.6550,70.82300351
2.6600,71.03041965
2.6650,71.23734979
2.6700,71.44418264
2.6750,71.65093835
2.6800,71.85744747
2.6850,72.06374591
2.6900,72.26947775
2.6950,72.47501567
2.7000,72.6798572
2.7050,72.88373297
2.7100,73.08670976
2.7150,73.28885187
2.7200,73.48988594
2.7250,73.69010578
2.7300,73.88951705
2.7350,74.08842373
2.7400,74.28671625
2.7450,74.4847036
2.7500,74.68192851
2.7550,74.87829745
2.7600,75.07337542
2.7650,75.26744809
2.7700,75.46029413
2.7750,75.65197249
2.7800,75.84211935
2.7850,76.03078316
2.7900,76.21743692
2.7950,76.40190334
2.8000,76.58385213
2.8050,76.7629249
2.8100,76.93891647
2.8150,77.11129738
2.8200,77.27980333
2.8250,77.44443781
2.8300,77.60483782
2.8350,77.76101774
2.8400,77.9132165
2.8450,78.06137407
2.8500,78.20551501
2.8550,78.34580619
2.8600,78.48221332
2.8650,78.61532455
2.8700,78.74540714
2.8750,78.87259763
2.8800,78.99710796
2.8850,79.11950434
2.8900,79.23980281
2.8950,79.35834445
2.9000,79.47494773
2.9050,79.59010145
2.9100,79.70367245
2.9150,79.81552644
2.9200,79.92574771
2.9250,80.03426807
2.9300,80.14141676
2.9350,80.24685333
2.9400,80.35077425
2.9450,80.45360258
2.9500,80.55524809
2.9550,80.65559661
2.9600,80.75439349
2.9650,80.85150042
2.9700,80.94626331
2.9750,81.03878963
2.9800,81.12909915
2.9850,81.21743877
2.9900,81.30399816
2.9950,81.38874318
3.0000,81.47230184
3.0050,81.55454143
3.0100,81.63576312
3.0150,81.71578817
3.0200,81.79469566
3.0250,81.87235245
3.0300,81.94887665
3.0350,82.02429522
3.0400,82.0983555
3.0450,82.17080634
3.0500,82.24189123
3.0550,82.31173115
3.0600,82.38017463
3.0650,82.44711708
3.0700,82.51273619
3.0750,82.5769338
3.0800,82.6399007
3.0850,82.70195149
3.0900,82.76323304
3.0950,82.82358491
3.1000,82.88316996
3.1050,82.94195051
3.1100,82.99956377
3.1150,83.05628128
3.1200,83.11199874
3.1250,83.16668291
3.1300,83.22071302
3.1350,83.27425561
3.1400,83.32720931
3.1450,83.38020607
3.1500,83.43312126
3.1550,83.4862057
3.1600,83.53961441
3.1650,83.59335477
3.1700,83.64733396
3.1750,83.70178588
3.1800,83.75677818
3.1850,83.81219902
3.1900,83.86830668
3.1950,83.92490811
3.2000,83.98212016
3.2050,84.03980687
3.2100,84.09771923
3.2150,84.15624742
3.2200,84.21536958
3.2250,84.27460473
3.2300,84.33399053
3.2350,84.39346161
3.2400,84.45267271
3.2450,84.51102723
3.2500,84.56834423
3.2550,84.6243453
3.2600,84.67894563
3.2650,84.73177315
3.2700,84.78293307
3.2750,84.83247447
3.2800,84.88041783
3.2850,84.92679941
3.2900,84.97172486
3.2950,85.0151209
3.3000,85.05679822
3.3050,85.09710064
3.3100,85.13563094
3.3150,85.17278786
3.3200,85.20879237
3.3250,85.24385192
3.3300,85.27762735
3.3350,85.31092132
3.3400,85.34376004
3.3450,85.37622827
3.3500,85.40816642
3.3550,85.43934814
3.3600,85.4699437
3.3650,85.5000601
3.3700,85.52968774
3.3750,85.55869263
3.3800,85.58712043
3.3850,85.61480738
3.3900,85.64192637
3.3950,85.66861012
3.4000,85.69477589
3.4050,85.72061019
3.4100,85.74656603
3.4150,85.77265832
3.4200,85.79900778
3.4250,85.82576843
3.4300,85.85292717
3.4350,85.8806329
3.4400,85.90910582
3.4450,85.93822115
3.4500,85.96821783
3.4550,85.99884257
3.4600,86.03021267
3.4650,86.06215072
3.4700,86.09459948
3.4750,86.12744308
3.4800,86.16072802
3.4850,86.19443055
3.4900,86.22845724
3.4950,86.26265873
3.5000,86.29680879
3.5050,86.33076542
3.5100,86.36466384
3.5150,86.39812029
3.5200,86.43099624
3.5250,86.46351415
3.5300,86.49527977
3.5350,86.52596601
3.5400,86.55542198
3.5450,86.58392325
3.5500,86.61136756
3.5550,86.63799418
3.5600,86.66365316
3.5650,86.68852859
3.5700,86.71259456
3.5750,86.73569792
3.5800,86.75807719
3.5850,86.77953334
3.5900,86.79974921
3.5950,86.81878113
3.6000,86.83665592
3.6050,86.85335908
3.6100,86.86900512
3.6150,86.88337497
3.6200,86.89634307
3.6250,86.90801044
3.6300,86.91870236
3.6350,86.92763204
3.6400,86.9349117
3.6450,86.94085145
3.6500,86.94591916
3.6550,86.95047883
3.6600,86.9546807
3.6650,86.95807351
3.6700,86.96081909
3.6750,86.96327533
3.6800,86.96549132
3.6850,86.96720743
3.6900,86.96907705
3.6950,86.97125606
3.7000,86.97462359
3.7050,86.97940141
3.7100,86.9858647
3.7150,86.99445245
3.7200,87.00527842
3.7250,87.01826929
3.7300,87.03390013
3.7350,87.05243135
3.7400,87.07397383
3.7450,87.09851637
3.7500,87.12633231
3.7550,87.15744305
3.7600,87.19192105
3.7650,87.2298955
3.7700,87.27158207
3.7750,87.31660528
3.7800,87.36456028
3.7850,87.41528399
3.7900,87.46845266
3.7950,87.52392264
3.8000,87.58192616
3.8050,87.64220256
3.8100,87.70444478
3.8150,87.76849748
3.8200,87.83435815
3.8250,87.90177092
3.8300,87.97034486
3.8350,88.04045986
3.8400,88.1119678
3.8450,88.18465692
3.8500,88.2581507
3.8550,88.33220728
3.8600,88.40659425
3.8650,88.48106942
3.8700,88.55545038
3.8750,88.62983289
3.8800,88.70394126
3.8850,88.77738482
3.8900,88.85019282
3.8950,88.92209995
3.9000,88.99272624
3.9050,89.06199048
3.9100,89.12963305
3.9150,89.19554256
3.9200,89.25939531
3.9250,89.32101058
3.9300,89.38028698
3.9350,89.43749415
3.9400,89.49269653
3.9450,89.54559386
3.9500,89.59599322
3.9550,89.64373118
3.9600,89.68874438
3.9650,89.73114901
3.9700,89.7708775
3.9750,89.80804355
3.9800,89.84287755
3.9850,89.87569018
3.9900,89.90643989
3.9950,89.93519472
4.0000,89.96120304
4.0050,89.98485663
4.0100,90.00606386
4.0150,90.02446414
4.0200,90.04061141
4.0250,90.05469256
4.0300,90.06655762
4.0350,90.07610813
4.0400,90.08344114
4.0450,90.08855886
4.0500,90.09145629
4.0550,90.09229318
4.0600,90.09135186
4.0650,90.08855713
4.0700,90.08408337
4.0750,90.07816259
4.0800,90.07126133
4.0850,90.06335015
4.0900,90.05491499
4.0950,90.04619092
4.1000,90.03711308
4.1050,90.02779638
4.1100,90.01881521
4.1150,90.01014715
4.1200,90.00192499
4.1250,89.99440184
4.1300,89.987816
4.1350,89.98225554
4.1400,89.97784371
4.1450,89.97459195
4.1500,89.97275599
4.1550,89.97221152
4.1600,89.97299354
4.1650,89.97503382
4.1700,89.97842396
4.1750,89.98294914
4.1800,89.98837537
4.1850,89.99485334
4.1900,90.00221722
4.1950,90.01043183
4.2000,90.01937402
4.2050,90.02882904
4.2100,90.03879675
4.2150,90.04914919
4.2200,90.05997787
4.2250,90.07117216
4.2300,90.08272327
4.2350,90.09421212
4.2400,90.10530715
4.2450,90.1161874
4.2500,90.12653021
4.2550,90.13606979
4.2600,90.14475324
4.2650,90.15283103
4.2700,90.16026219
4.2750,90.16703165
4.2800,90.17273446
4.2850,90.1773972
4.2900,90.180531
4.2950,90.18198172
4.3000,90.18238099
4.3050,90.18112318
4.3100,90.17849187
4.3150,90.17461376
4.3200,90.16912357
4.3250,90.16187728
4.3300,90.15305802
4.3350,90.14288027
4.3400,90.13138302
4.3450,90.11863263
4.3500,90.10469744
4.3550,90.08958872
4.3600,90.07326438
4.3650,90.05544105
4.3700,90.03608112
4.3750,90.01528279
4.3800,89.99283061
4.3850,89.96896787
4.3900,89.9433573
4.3950,89.91614036
4.4000,89.88726347
4.4050,89.85701184
4.4100,89.82492534
4.4150,89.79139593
4.4200,89.75640179
4.4250,89.71983086
4.4300,89.68169576
4.4350,89.64165398
4.4400,89.59968071
4.4450,89.55599727
4.4500,89.5104483
4.4550,89.46334543
4.4600,89.41478149
4.4650,89.36503649
4.4700,89.31407557
4.4750,89.26181829
4.4800,89.20849575
4.4850,89.15410017
4.4900,89.09865155
4.4950,89.042495
4.5000,88.98586085
4.5050,88.92868525
4.5100,88.87066311
4.5150,88.81224209
4.5200,88.7533766
4.5250,88.69399406
4.5300,88.63396841
4.5350,88.57348579
4.5400,88.51298993
4.5450,88.45231268
4.5500,88.39176279
4.5550,88.33170843
4.5600,88.27199416
4.5650,88.21267291
4.5700,88.15381116
4.5750,88.0953109
4.5800,88.03761922
4.5850,87.98065985
4.5900,87.92466954
4.5950,87.86960144
4.6000,87.81529737
4.6050,87.76194388
4.6100,87.7094015
4.6150,87.65758263
4.6200,87.60645781
4.6250,87.55636747
4.6300,87.50689816
4.6350,87.45804169
4.6400,87.40980668
4.6450,87.36213774
4.6500,87.31500575
4.6550,87.26840216
4.6600,87.22218178
4.6650,87.1765975
4.6700,87.13152897
4.6750,87.08698839
4.6800,87.04286195
4.6850,86.99860941
4.6900,86.9543722
4.6950,86.90972171
4.7000,86.86498732
4.7050,86.819955
4.7100,86.77473139
4.7150,86.72933063
4.7200,86.68372821
4.7250,86.63764638
4.7300,86.59120619
4.7350,86.54434139
4.7400,86.49727596
4.7450,86.44998615
4.7500,86.40257154
4.7550,86.3545437
4.7600,86.30596646
4.7650,86.25632841
4.7700,86.20527525
4.7750,86.15297031
4.7800,86.09922845
4.7850,86.04417443
4.7900,85.98794097
4.7950,85.93017009
4.8000,85.87119142
4.8050,85.81107638
4.8100,85.75003925
4.8150,85.68778345
4.8200,85.62398142
4.8250,85.55843932
4.8300,85.49105291
4.8350,85.42175094
4.8400,85.35028034
4.8450,85.27686158
4.8500,85.20162542
4.8550,85.12450242
4.8600,85.04553076
4.8650,84.96460164
4.8700,84.88192005
4.8750,84.79753041
4.8800,84.7113386
4.8850,84.6235522
4.8900,84.5340991
4.8950,84.44318532
4.9000,84.35071503
4.9050,84.25686725
4.9100,84.16123268
4.9150,84.06398075
4.9200,83.96480614
4.9250,83.86373544
4.9300,83.76081794
4.9350,83.65571921
4.9400,83.5482939
4.9450,83.43872676
4.9500,83.32692988
4.9550,83.21321345
4.9600,83.09716522
4.9650,82.97871164
4.9700,82.85774386
4.9750,82.73404357
4.9800,82.60773081
4.9850,82.47926513
4.9900,82.34870231
4.9950,82.21610024
5.0000,82.08114978
5.0050,81.94341759
5.0100,81.80260131
5.0150,81.65812515
5.0200,81.50986752
5.0250,81.35807413
5.0300,81.20260075
5.0350,81.0433039
5.0400,80.87976317
5.0450,80.71170192
5.0500,80.53885911
5.0550,80.36144408
5.0600,80.17942246
5.0650,79.99257348
5.0700,79.80101004
5.0750,79.60416986
5.0800,79.40197563
5.0850,79.19417017
5.0900,78.98063204
5.0950,78.76111417
5.1000,78.53531847
5.1050,78.30292456
5.1100,78.06418419
5.1150,77.81897657
5.1200,77.5677392
5.1250,77.31027725
5.1300,77.04679692
5.1350,76.77709708
5.1400,76.50099831
5.1450,76.21833368
5.1500,75.92904906
5.1550,75.63307388
5.1600,75.33051972
5.1650,75.02131328
5.1700,74.70496409
5.1750,74.38136914
5.1800,74.05031497
5.1850,73.71169316
5.1900,73.36570887
5.1950,73.01234527
5.2000,72.65163147
5.2050,72.28367965
5.2100,71.90909563
5.2150,71.52770921
5.2200,71.13996956
5.2250,70.74555367
5.2300,70.34470077
5.2350,69.93751046
5.2400,69.52438625
5.2450,69.10516079
5.2500,68.67980864
5.2550,68.2479577
5.2600,67.80977748
5.2650,67.36558396
5.2700,66.91510887
5.2750,66.45875327
5.2800,65.99645063
5.2850,65.52819001
5.2900,65.05393012
5.2950,64.57417617
5.3000,64.08923469
5.3050,63.59911093
5.3100,63.10416271
5.3150,62.60424772
5.3200,62.09897569
5.3250,61.58832468
5.3300,61.07197555
5.3350,60.55024138
5.3400,60.02320105
5.3450,59.49104593
5.3500,58.95390497
5.3550,58.41188762
5.3600,57.86462085
5.3650,57.31292841
5.3700,56.75732928
5.3750,56.19888644
5.3800,55.63767096
5.3850,55.07394444
5.3900,54.50751542
5.3950,53.93856147
5.4000,53.36688939
5.4050,52.79309556
5.4100,52.21660725
5.4150,51.63760598
5.4200,51.05617159
5.4250,50.47232746
5.4300,49.88596271
5.4350,49.29714123
5.4400,48.7062035
5.4450,48.11318272
5.4500,47.51771667
5.4550,46.91953602
5.4600,46.31867997
5.4650,45.71485883
5.4700,45.1081076
5.4750,44.49846928
5.4800,43.88597574
5.4850,43.27058831
5.4900,42.65290859
5.4950,42.03290074
5.5000,41.4109001
5.5050,40.78679776
5.5100,40.16063375
5.5150,39.53309681
5.5200,38.90455532
5.5250,38.27503863
5.5300,37.64458645
5.5350,37.01368202
5.5400,36.3821176
5.5450,35.75034116
5.5500,35.11855821
5.5550,34.48690757
5.5600,33.85610827
5.5650,33.22602029
5.5700,32.59760137
5.5750,31.97065069
5.5800,31.34562537
5.5850,30.72297877
5.5900,30.10248802
5.5950,29.48428773
5.6000,28.86867117
5.6050,28.25627814
5.6100,27.64730282
5.6150,27.04201062
5.6200,26.44084513
5.6250,25.84415888
5.6300,25.2522146
5.6350,24.66560315
5.6400,24.08449857
5.6450,23.50899775
5.6500,22.93957787
5.6550,22.37610069
5.6600,21.81872328
5.6650,21.26719456
5.6700,20.72154808
5.6750,20.18162774
5.6800,19.64781235
5.6850,19.11965079
5.6900,18.59745014
5.6950,18.08126292
5.7000,17.57106357
5.7050,17.06683034
5.7100,16.56845141
5.7150,16.07609014
5.7200,15.58884914
5.7250,15.1072488
5.7300,14.6309091
5.7350,14.15984558
5.7400,13.69396747
5.7450,13.23310386
5.7500,12.77760576
5.7550,12.32670593
5.7600,11.87994154
5.7650,11.43705866
5.7700,10.99809328
5.7750,10.56243618
5.7800,10.13006857
5.7850,9.701244923
5.7900,9.275659766
5.7950,8.853076074
5.8000,8.433411932
5.8050,8.016443522
5.8100,7.601944094
5.8150,7.190186102
5.8200,6.781290078
5.8250,6.375560109
5.8300,5.97310544
5.8350,5.573767276
5.8400,5.177904003
5.8450,4.785504864
5.8500,4.396543072
5.8550,4.01187271
5.8600,3.631442565
5.8650,3.255708155
5.8700,2.884436701
5.8750,2.518284756
5.8800,2.157455073
5.8850,1.801534203
5.8900,1.450651278
5.8950,1.104646384
5.9000,0.7637183871
5.9050,0.4279093555
5.9100,0.0977835474
5.9150,-0.2264764463
5.9200,-0.544834278
5.9250,-0.8573696384
5.9300,-1.163775028
5.9350,-1.46437337
5.9400,-1.758879415
5.9450,-2.047436303
5.9500,-2.330093276
5.9550,-2.607045478
5.9600,-2.878271121
5.9650,-3.143930631
5.9700,-3.403949984
5.9750,-3.658154977
5.9800,-3.906859217
5.9850,-4.149714808
5.9900,-4.387113517
5.9950,-4.618914991
6.0000,-4.845747358
6.0050,-5.06805933
6.0100,-5.285741606
6.0150,-5.499313495
6.0200,-5.708607941
6.0250,-5.914281326
6.0300,-6.116442988
6.0350,-6.315656336
6.0400,-6.512194213
6.0450,-6.706230739
6.0500,-6.897969701
6.0550,-7.087357414
6.0600,-7.274377157
6.0650,-7.459133236
6.0700,-7.641831303
6.0750,-7.822552901
6.0800,-8.00147691
6.0850,-8.178903137
6.0900,-8.355226723
6.0950,-8.530494719
6.1000,-8.704684498
6.1050,-8.877783438
6.1100,-9.049550601
6.1150,-9.219844577
6.1200,-9.388346391
6.1250,-9.555024073
6.1300,-9.719514088
6.1350,-9.88164357
6.1400,-10.04138942
6.1450,-10.19828556
6.1500,-10.35232312
6.1550,-10.50392641
6.1600,-10.65307424
6.1650,-10.79951484
6.1700,-10.94348389
6.1750,-11.08499301
6.1800,-11.22435147
6.1850,-11.36158554
6.1900,-11.49644157
6.1950,-11.62860653
6.2000,-11.75831186
6.2050,-11.88543219
6.2100,-12.01015386
6.2150,-12.13253679
6.2200,-12.25246984
6.2250,-12.37014208
6.2300,-12.4857119
6.2350,-12.59927207
6.2400,-12.71108498
6.2450,-12.82123195
6.2500,-12.92965532
6.2550,-13.03633876
6.2600,-13.14150023
6.2650,-13.2452572
6.2700,-13.34740448
6.2750,-13.44826707
6.2800,-13.54785263
6.2850,-13.64624224
6.2900,-13.74364777
6.2950,-13.84036445
6.3000,-13.93600648
6.3050,-14.03113433
6.3100,-14.12571093
6.3150,-14.21985713
6.3200,-14.31395825
6.3250,-14.40812928
6.3300,-14.50254581
6.3350,-14.59717628
6.3400,-14.69179971
6.3450,-14.78630107
6.3500,-14.88082897
6.3550,-14.97482417
6.3600,-15.06815109
6.3650,-15.16061014
6.3700,-15.25201576
6.3750,-15.34236404
6.3800,-15.43153832
6.3850,-15.51978329
6.3900,-15.6068143
6.3950,-15.69253351
6.4000,-15.77706672
6.4050,-15.86019969
6.4100,-15.9419874
6.4150,-16.02245534
6.4200,-16.1018425
6.4250,-16.17990035
6.4300,-16.25676331
6.4350,-16.33231658
6.4400,-16.40638099
6.4450,-16.47919531
6.4500,-16.5505884
6.4550,-16.6206725
6.4600,-16.68936873
6.4650,-16.75669192
6.4700,-16.8223132
6.4750,-16.88622493
6.4800,-16.94817828
6.4850,-17.00785791
6.4900,-17.06526975
6.4950,-17.12053424
6.5000,-17.17362533
6.5050,-17.22446372
6.5100,-17.27316915
6.5150,-17.31974272
6.5200,-17.36411134
6.5250,-17.40635083
6.5300,-17.44641645
6.5350,-17.48446697
6.5400,-17.52041446
6.5450,-17.55404216
6.5500,-17.58542741
6.5550,-17.6144354
6.5600,-17.64095373
6.5650,-17.66480416
6.5700,-17.68626681
6.5750,-17.70482814
6.5800,-17.72062288
6.5850,-17.73375889
6.5900,-17.74421141
6.5950,-17.75189512
6.6000,-17.75710708
6.6050,-17.75967145
6.6100,-17.75984447
6.6150,-17.75762166
6.6200,-17.75307334
6.6250,-17.74610299
6.6300,-17.73699199
6.6350,-17.7256494
6.6400,-17.71232416
6.6450,-17.69696793
6.6500,-17.67971286
6.6550,-17.6609454
6.6600,-17.64064871
6.6650,-17.61894628
6.6700,-17.59594148
6.6750,-17.57173596
6.6800,-17.5463868
6.6850,-17.51975964
6.6900,-17.49200834
6.6950,-17.46309576
6.7000,-17.43306485
6.7050,-17.40198815
6.7100,-17.3701813
6.7150,-17.33749657
6.7200,-17.30420529
6.7250,-17.2704244
6.7300,-17.23621141
6.7350,-17.20179386
6.7400,-17.16731435
6.7450,-17.13303973
6.7500,-17.09905479
6.7550,-17.06550459
6.7600,-17.03260402
6.7650,-17.00051849
6.7700,-16.96937182
6.7750,-16.93920131
6.7800,-16.91009068
6.7850,-16.8821751
6.7900,-16.85560694
6.7950,-16.83032837
6.8000,-16.8061037
6.8050,-16.78323781
6.8100,-16.76157463
6.8150,-16.74086175
6.8200,-16.7208872
6.8250,-16.70142893
6.8300,-16.68221494
6.8350,-16.66264648
6.8400,-16.64245615
6.8450,-16.62149401
6.8500,-16.59929099
6.8550,-16.57568737
6.8600,-16.55039707
6.8650,-16.52334889
6.8700,-16.49391239
6.8750,-16.46223996
6.8800,-16.42788916
6.8850,-16.39079717
6.8900,-16.35080173
6.8950,-16.30796208
6.9000,-16.26243472
6.9050,-16.21424321
6.9100,-16.16348614
6.9150,-16.11028923
6.9200,-16.05469539
6.9250,-15.99672136
6.9300,-15.93640543
6.9350,-15.87383051
6.9400,-15.80912694
6.9450,-15.74252329
6.9500,-15.67399359
6.9550,-15.60370185
6.9600,-15.53182894
6.9650,-15.45860721
6.9700,-15.38414089
6.9750,-15.30859005
6.9800,-15.23215665
6.9850,-15.15496869
6.9900,-15.07723904
6.9950,-14.99922638
7.0000,-14.92124074
7.0050,-14.84335443
7.0100,-14.76594401
7.0150,-14.68949125
7.0200,-14.61419138
7.0250,-14.54035067
7.0300,-14.46833684
7.0350,-14.39834616
7.0400,-14.33085358
7.0450,-14.26602614
7.0500,-14.20423371
7.0550,-14.14533657
7.0600,-14.08967088
7.0650,-14.03720263
7.0700,-13.98776827
7.0750,-13.94170312
7.0800,-13.89871119
7.0850,-13.85892104
7.0900,-13.82196525
7.0950,-13.78788183
7.1000,-13.75653132
7.1050,-13.72756728
7.1100,-13.70087127
7.1150,-13.67620869
7.1200,-13.65364069
7.1250,-13.63283518
7.1300,-13.61357988
7.1350,-13.59596755
7.1400,-13.57961482
7.1450,-13.56441908
7.1500,-13.5500763
7.1550,-13.53645396
7.1600,-13.52336343
7.1650,-13.51058422
7.1700,-13.4981111
7.1750,-13.48588829
7.1800,-13.47405654
7.1850,-13.46255072
7.1900,-13.45118509
7.1950,-13.4399906
7.2000,-13.42873621
7.2050,-13.41732942
7.2100,-13.40555335
7.2150,-13.39352769
7.2200,-13.38119415
7.2250,-13.3687554
7.2300,-13.35630516
7.2350,-13.34389815
7.2400,-13.33166479
7.2450,-13.31980477
7.2500,-13.30832217
7.2550,-13.29731914
7.2600,-13.28681177
7.2650,-13.27662766
7.2700,-13.26690061
7.2750,-13.25771376
7.2800,-13.24891676
7.2850,-13.24067996
7.2900,-13.23290526
7.2950,-13.22567788
7.3000,-13.21889399
7.3050,-13.21274491
7.3100,-13.2069377
7.3150,-13.20159903
7.3200,-13.19652499
7.3250,-13.19206316
7.3300,-13.18809447
7.3350,-13.18474739
7.3400,-13.18184934
7.3450,-13.17931839
7.3500,-13.1772308
7.3550,-13.17554977
7.3600,-13.17401037
7.3650,-13.17244798
7.3700,-13.17101054
7.3750,-13.16947922
7.3800,-13.16799833
7.3850,-13.16652503
7.3900,-13.16522201
7.3950,-13.16370259
7.4000,-13.16209861
7.4050,-13.16026406
7.4100,-13.1581769
7.4150,-13.15572783
7.4200,-13.15276723
7.4250,-13.14924752
7.4300,-13.14515752
7.4350,-13.14034924
7.4400,-13.13480435
7.4450,-13.12841386
7.4500,-13.12114732
7.4550,-13.11325396
7.4600,-13.10469078
7.4650,-13.09545119
7.4700,-13.08580887
7.4750,-13.07536583
7.4800,-13.0638988
7.4850,-13.05123914
7.4900,-13.03734953
7.4950,-13.02188312
7.5000,-13.00480956
7.5050,-12.98606578
7.5100,-12.96575189
7.5150,-12.94382419
7.5200,-12.92021479
7.5250,-12.89498733
7.5300,-12.86784385
7.5350,-12.8390512
7.5400,-12.808488
7.5450,-12.77626121
7.5500,-12.74229684
7.5550,-12.70659856
7.5600,-12.66899127
7.5650,-12.62968776
7.5700,-12.58851862
7.5750,-12.54555262
7.5800,-12.50105051
7.5850,-12.45490848
7.5900,-12.40756308
7.5950,-12.35925249
7.6000,-12.31006483
7.6050,-12.26027528
7.6100,-12.21006284
7.6150,-12.15954375
7.6200,-12.10893403
7.6250,-12.0579175
7.6300,-12.00698756
7.6350,-11.95575228
7.6400,-11.90440751
7.6450,-11.85289606
7.6500,-11.80121681
7.6550,-11.74946777
7.6600,-11.69788348
7.6650,-11.64659921
7.6700,-11.59568009
7.6750,-11.54513351
7.6800,-11.49504553
7.6850,-11.44519987
7.6900,-11.39547532
7.6950,-11.34604801
7.7000,-11.29674913
7.7050,-11.24749681
7.7100,-11.19817904
7.7150,-11.1490909
7.7200,-11.10002114
7.7250,-11.0510596
7.7300,-11.0023026
7.7350,-10.95352514
7.7400,-10.90474248
7.7450,-10.85576756
7.7500,-10.8068824
7.7550,-10.75744985
7.7600,-10.70733665
7.7650,-10.65652911
7.7700,-10.60471568
7.7750,-10.5518825
7.7800,-10.49812579
7.7850,-10.44348812
7.7900,-10.38795907
7.7950,-10.33147012
7.8000,-10.27416969
7.8050,-10.21598072
7.8100,-10.15660477
7.8150,-10.09591885
7.8200,-10.03399924
7.8250,-9.970614171
7.8300,-9.906007564
7.8350,-9.840186865
7.8400,-9.772948247
7.8450,-9.703965445
7.8500,-9.633630069
7.8550,-9.561999515
7.8600,-9.48906907
7.8650,-9.414789725
7.8700,-9.339443472
7.8750,-9.26261556
7.8800,-9.184228724
7.8850,-9.104220062
7.8900,-9.022195052
7.8950,-8.938064036
7.9000,-8.851782737
7.9050,-8.763393458
7.9100,-8.672720609
7.9150,-8.57984688
7.9200,-8.484742372
7.9250,-8.387682699
7.9300,-8.288322146
7.9350,-8.186999889
7.9400,-8.083648903
7.9450,-7.978586201
7.9500,-7.871460967
7.9550,-7.762371995
7.9600,-7.651065273
7.9650,-7.537579375
7.9700,-7.421846329
7.9750,-7.303924641
7.9800,-7.183642104
7.9850,-7.061138754
7.9900,-6.936399524
7.9950,-6.809355477
8.0000,-6.679939154
8.0050,-6.548454288
8.0100,-6.414611184
8.0150,-6.278259583
8.0200,-6.139670332
8.0250,-5.998435291
8.0300,-5.854197673
8.0350,-5.707105776
8.0400,-5.557170201
8.0450,-5.40475899
8.0500,-5.249433358
8.0550,-5.091618938
8.0600,-4.931413107
8.0650,-4.768771083
8.0700,-4.603850352
8.0750,-4.436941391
8.0800,-4.267828312
8.0850,-4.096404045
8.0900,-3.922486323
8.0950,-3.746239876
8.1000,-3.567563069
8.1050,-3.386176935
8.1100,-3.202511551
8.1150,-3.016637057
8.1200,-2.828573479
8.1250,-2.638353921
8.1300,-2.445989112
8.1350,-2.251389224
8.1400,-2.054647333
8.1450,-1.855668895
8.1500,-1.65406418
8.1550,-1.449665043
8.1600,-1.242542846
8.1650,-1.032343927
8.1700,-0.818849571
8.1750,-0.6018847815
8.1800,-0.3815357291
8.1850,-0.157802758
8.1900,0.06927782498
8.1950,0.2999598213
8.2000,0.534137949
8.2050,0.7721638696
8.2100,1.014064848
8.2150,1.260069699
8.2200,1.509741294
8.2250,1.763450519
8.2300,2.021182289
8.2350,2.282610812
8.2400,2.547915332
8.2450,2.817237003
8.2500,3.090370143
8.2550,3.367028484
8.2600,3.647213303
8.2650,3.930691523
8.2700,4.217488666
8.2750,4.507957666
8.2800,4.801731225
8.2850,5.098899904
8.2900,5.399478392
8.2950,5.70353862
8.3000,6.011093261
8.3050,6.322350354
8.3100,6.637075299
8.3150,6.955400436
8.3200,7.277519222
8.3250,7.603062686
8.3300,7.931807984
8.3350,8.263487985
8.3400,8.59835411
8.3450,8.936235681
8.3500,9.276875531
8.3550,9.620382035
8.3600,9.966426362
8.3650,10.31494695
8.3700,10.66578908
8.3750,11.01916674
8.3800,11.37495138
8.3850,11.73288702
8.3900,12.09272879
8.3950,12.45418583
8.4000,12.81743201
8.4050,13.18198978
8.4100,13.54820089
8.4150,13.91584468
8.4200,14.28487699
8.4250,14.65524493
8.4300,15.02696005
8.4350,15.40010348
8.4400,15.77464938
8.4450,16.15035614
8.4500,16.52718495
8.4550,16.90513578
8.4600,17.28460051
8.4650,17.66496456
8.4700,18.0465959
8.4750,18.42955108
8.4800,18.8138661
8.4850,19.19929861
8.4900,19.58609407
8.4950,19.97444053
8.5000,20.36418865
8.5050,20.75540398
8.5100,21.14789624
8.5150,21.54145104
8.5200,21.93663885
8.5250,22.33321064
8.5300,22.73109777
8.5350,23.13044611
8.5400,23.53128625
8.5450,23.93360198
8.5500,24.33736557
8.5550,24.74253639
8.5600,25.14897989
8.5650,25.55718446
8.5700,25.96705158
8.5750,26.37817151
8.5800,26.79081466
8.5850,27.20523537
8.5900,27.62097629
8.5950,28.0383397
8.6000,28.45717997
8.6050,28.87741315
8.6100,29.2990475
8.6150,29.72195294
8.6200,30.14613159
8.6250,30.57162941
8.6300,30.99784749
8.6350,31.42487709
8.6400,31.85261449
8.6450,32.28107465
8.6500,32.70985763
8.6550,33.13891256
8.6600,33.5679595
8.6650,33.99650537
8.6700,34.42439204
8.6750,34.85149389
8.6800,35.27760616
8.6850,35.70248701
8.6900,36.12579501
8.6950,36.54747665
8.7000,36.96759387
8.7050,37.38596966
8.7100,37.80230177
8.7150,38.21674929
8.7200,38.62912279
8.7250,39.03942637
8.7300,39.44709882
8.7350,39.85227588
8.7400,40.25467334
8.7450,40.65448477
8.7500,41.05167921
8.7550,41.44625077
8.7600,41.83804568
8.7650,42.22765944
8.7700,42.61482273
8.7750,42.99962515
8.7800,43.38233935
8.7850,43.76309441
8.7900,44.1413895
8.7950,44.51717538
8.8000,44.8903096
8.8050,45.26091937
8.8100,45.62872991
8.8150,45.9941804
8.8200,46.35680487
8.8250,46.71685549
8.8300,47.07386926
8.8350,47.42776725
8.8400,47.77839919
8.8450,48.12577907
8.8500,48.4698196
8.8550,48.81099533
8.8600,49.14889021
8.8650,49.48337672
8.8700,49.81401417
8.8750,50.14112787
8.8800,50.4643508
8.8850,50.78357013
8.8900,51.0987621
8.8950,51.40974301
8.9000,51.71643914
8.9050,52.01925652
8.9100,52.31804039
8.9150,52.61263947
8.9200,52.9026469
8.9250,53.18792488
8.9300,53.46904314
8.9350,53.74616196
8.9400,54.01947653
8.9450,54.28938259
8.9500,54.55626416
8.9550,54.82016425
8.9600,55.0809888
8.9650,55.3391007
8.9700,55.59465469
8.9750,55.84784873
8.9800,56.09838195
8.9850,56.34687319
8.9900,56.59346987
8.9950,56.83828795
9.0000,57.08125993
9.0050,57.32203269
9.0100,57.56064443
9.0150,57.79735767
9.0200,58.03238814
9.0250,58.26587261
9.0300,58.49814343
9.0350,58.72899659
9.0400,58.95840801
9.0450,59.18635398
9.0500,59.41286691
9.0550,59.6376683
9.0600,59.86071972
9.0650,60.08194225
9.0700,60.30130879
9.0750,60.51913075
9.0800,60.73514681
9.0850,60.9499362
9.0900,61.16364795
9.0950,61.37638133
9.1000,61.588411
9.1050,61.79974453
9.1100,62.01092677
9.1150,62.22185956
9.1200,62.43294558
9.1250,62.64397558
9.1300,62.85563274
9.1350,63.06789156
9.1400,63.28040309
9.1450,63.4930877
9.1500,63.7056827
9.1550,63.91766883
9.1600,64.12898159
9.1650,64.33913497
9.1700,64.54849913
9.1750,64.75678899
9.1800,64.96407265
9.1850,65.1700512
9.1900,65.37500881
9.1950,65.57894118
9.2000,65.78179661
9.2050,65.98308812
9.2100,66.18248545
9.2150,66.37989951
9.2200,66.57517799
9.2250,66.76845696
9.2300,66.95965593
9.2350,67.14918848
9.2400,67.33639344
9.2450,67.52098015
9.2500,67.70286402
9.2550,67.88217381
9.2600,68.05881982
9.2650,68.2327046
9.2700,68.40386022
9.2750,68.57216325
9.2800,68.73824781
9.2850,68.90198343
9.2900,69.06346989
9.2950,69.2225712
9.3000,69.37931387
9.3050,69.53407688
9.3100,69.68670089
9.3150,69.83666152
9.3200,69.9839849
9.3250,70.1282031
9.3300,70.26950612
9.3350,70.4078117
9.3400,70.54331819
9.3450,70.6758547
9.3500,70.80498277
9.3550,70.93136052
9.3600,71.05469489
9.3650,71.17500151
9.3700,71.29246874
9.3750,71.40731234
9.3800,71.51998985
9.3850,71.63082492
9.3900,71.74044844
9.3950,71.84889406
9.4000,71.95593732
9.4050,72.06093205
9.4100,72.16343968
9.4150,72.26305591
9.4200,72.35932625
9.4250,72.45237334
9.4300,72.54229431
9.4350,72.62915097
9.4400,72.71346776
9.4450,72.7953654
9.4500,72.87482152
9.4550,72.95221908
9.4600,73.02775376
9.4650,73.1016977
9.4700,73.17406781
9.4750,73.24466118
9.4800,73.31361026
9.4850,73.38116653
9.4900,73.44724679
9.4950,73.51182144
9.5000,73.57492184
9.5050,73.63671157
9.5100,73.69782877
9.5150,73.75877913
9.5200,73.81978797
9.5250,73.88101694
9.5300,73.9423554
9.5350,74.00364936
9.5400,74.06509618
9.5450,74.12658353
9.5500,74.1878628
9.5550,74.24888179
9.5600,74.3100846
9.5650,74.37131664
9.5700,74.43264434
9.5750,74.49428822
9.5800,74.55655743
9.5850,74.6192029
9.5900,74.68211266
9.5950,74.74565052
9.6000,74.80994139
9.6050,74.87509774
9.6100,74.94100079
9.6150,75.0076446
9.6200,75.07487277
9.6250,75.1429254
9.6300,75.21125807
9.6350,75.27974464
9.6400,75.34844476
9.6450,75.41733179
9.6500,75.48620022
9.6550,75.55435254
9.6600,75.62168912
9.6650,75.68861701
9.6700,75.75528975
9.6750,75.8213744
9.6800,75.88677619
9.6850,75.95064143
9.6900,76.01249164
9.6950,76.07203073
9.7000,76.12971562
9.7050,76.18625614
9.7100,76.24192572
9.7150,76.29715169
9.7200,76.35194448
9.7250,76.40600907
9.7300,76.45891002
9.7350,76.51057316
9.7400,76.5608707
9.7450,76.6096527
9.7500,76.65714878
9.7550,76.70328516
9.7600,76.74773061
9.7650,76.78999896
9.7700,76.82959437
9.7750,76.86634751
9.7800,76.90016374
9.7850,76.93122296
9.7900,76.95967031
9.7950,76.98584072
9.8000,77.00979389
9.8050,77.0313314
9.8100,77.05010593
9.8150,77.06581758
9.8200,77.07901255
9.8250,77.08987685
9.8300,77.09874963
9.8350,77.10588375
9.8400,77.11082107
9.8450,77.11336364
9.8500,77.11336086
9.8550,77.11071993
9.8600,77.1056243
9.8650,77.0982265
9.8700,77.08878487
9.8750,77.0771342
9.8800,77.06296602
9.8850,77.04640835
9.8900,77.02768507
9.8950,77.00709202
9.9000,76.98476512
9.9050,76.96100192
9.9100,76.93582661
9.9150,76.90959336
9.9200,76.88263013
9.9250,76.85496049
9.9300,76.82683293
9.9350,76.79866255
9.9400,76.77050468
9.9450,76.74257944
9.9500,76.71503082
9.9550,76.68815075
9.9600,76.66221502
9.9650,76.63702017
9.9700,76.6122891
9.9750,76.58815621
9.9800,76.56419054
9.9850,76.54065433
9.9900,76.51723818
9.9950,76.49399721
10.0000,76.47038577
10.0050,76.4457808
10.0100,76.4198237
10.0150,76.39243719
10.0200,76.36418148
10.0250,76.33531999
10.0300,76.30606541
10.0350,76.27660392
10.0400,76.24662799
10.0450,76.21610735
10.0500,76.18467478
10.0550,76.15235834
10.0600,76.11910875
10.0650,76.08555561
10.0700,76.05189835
10.0750,76.0186285
10.0800,75.98562838
10.0850,75.95260985
10.0900,75.91961471
10.0950,75.88621453
10.1000,75.85199788
10.1050,75.8176258
10.1100,75.78316229
10.1150,75.74886451
10.1200,75.71450417
10.1250,75.68010481
10.1300,75.64562826
10.1350,75.6106761
10.1400,75.57574584
10.1450,75.54082325
10.1500,75.50626514
10.1550,75.47160732
10.1600,75.43644412
10.1650,75.40044948
10.1700,75.36332745
10.1750,75.3250907
10.1800,75.28615065
10.1850,75.24662349
10.1900,75.20634539
10.1950,75.16521069
10.2000,75.12320395
10.2050,75.08021648
10.2100,75.03631046
10.2150,74.99160321
10.2200,74.94591914
10.2250,74.89925466
10.2300,74.85177169
10.2350,74.80350227
10.2400,74.75427785
10.2450,74.70409907
10.2500,74.65302834
10.2550,74.60112466
10.2600,74.54857908
10.2650,74.49544218
10.2700,74.4418798
10.2750,74.38790179
10.2800,74.33356579
10.2850,74.27880465
10.2900,74.2235879
10.2950,74.16776733
10.3000,74.11182003
10.3050,74.05548172
10.3100,73.99889263
10.3150,73.94163982
10.3200,73.88343588
10.3250,73.82454072
10.3300,73.76484893
10.3350,73.70452443
10.3400,73.64369241
10.3450,73.58253405
10.3500,73.52109843
10.3550,73.45920539
10.3600,73.39728797
10.3650,73.3350875
10.3700,73.27257124
10.3750,73.20972392
10.3800,73.14681075
10.3850,73.08360428
10.3900,73.02042245
10.3950,72.95746316
10.4000,72.8951373
10.4050,72.83321832
10.4100,72.77174712
10.4150,72.7110204
10.4200,72.65062509
10.4250,72.59015971
10.4300,72.52928651
10.4350,72.4679342
10.4400,72.40582462
10.4450,72.34331791
10.4500,72.28041705
10.4550,72.21728044
10.4600,72.15404993
10.4650,72.09092668
10.4700,72.0279934
10.4750,71.96553441
10.4800,71.90324843
10.4850,71.8411435
10.4900,71.77905944
10.4950,71.71700091
10.5000,71.65527317
10.5050,71.59338894
10.5100,71.53176711
10.5150,71.47044272
10.5200,71.40954174
10.5250,71.34881413
10.5300,71.28829539
10.5350,71.22781513
10.5400,71.16768835
10.5450,71.10759058
10.5500,71.04775809
10.5550,70.98800778
10.5600,70.92782703
10.5650,70.86697513
10.5700,70.80487797
10.5750,70.74117764
10.5800,70.67582978
10.5850,70.60858487
10.5900,70.53969904
10.5950,70.4688507
10.6000,70.39570715
10.6050,70.32075746
10.6100,70.24401757
10.6150,70.1659787
10.6200,70.08669253
10.6250,70.00573023
10.6300,69.92367417
10.6350,69.83979997
10.6400,69.75436825
10.6450,69.6671392
10.6500,69.57800575
10.6550,69.4864576
10.6600,69.39205972
10.6650,69.29464171
10.6700,69.19452305
10.6750,69.09111979
10.6800,68.98435285
10.6850,68.8743575
10.6900,68.76062387
10.6950,68.64321957
10.7000,68.52193422
10.7050,68.39690719
10.7100,68.26810333
10.7150,68.13530206
10.7200,67.99846011
10.7250,67.85760436
10.7300,67.71279853
10.7350,67.56387704
10.7400,67.41052632
10.7450,67.25273139
10.7500,67.09010298
10.7550,66.92309426
10.7600,66.75218469
10.7650,66.57734597
10.7700,66.39862797
10.7750,66.21569542
10.7800,66.02828398
10.7850,65.83666674
10.7900,65.64140392
10.7950,65.44237199
10.8000,65.23908012
10.8050,65.0322931
10.8100,64.8216664
10.8150,64.6070387
10.8200,64.38851458
10.8250,64.16609211
10.8300,63.93972514
10.8350,63.70937462
10.8400,63.47465371
10.8450,63.23565102
10.8500,62.99201733
10.8550,62.74401462
10.8600,62.49183031
10.8650,62.23569077
10.8700,61.97606313
10.8750,61.712964
10.8800,61.4465587
10.8850,61.17636454
10.8900,60.9026372
10.8950,60.62548724
10.9000,60.3447418
10.9050,60.06049181
10.9100,59.77273563
10.9150,59.48141647
10.9200,59.18690677
10.9250,58.88964979
10.9300,58.58975453
10.9350,58.28774439
10.9400,57.98357563
10.9450,57.67701237
10.9500,57.3679891
10.9550,57.05658644
10.9600,56.74274626
10.9650,56.42643638
10.9700,56.10709723
10.9750,55.78496237
10.9800,55.45961295
10.9850,55.13074027
10.9900,54.79822304
10.9950,54.46145021
11.0000,54.12029096
11.0050,53.7741473
11.0100,53.42283258
11.0150,53.06575871
11.0200,52.70294168
11.0250,52.33429295
11.0300,51.95933463
11.0350,51.57853955
11.0400,51.19173897
11.0450,50.7988745
11.0500,50.4000878
11.0550,49.99526077
11.0600,49.58339819
11.0650,49.16485187
11.0700,48.73918539
11.0750,48.30657011
11.0800,47.86688961
11.0850,47.41968518
11.0900,46.9645215
11.0950,46.50110854
11.1000,46.02975732
11.1050,45.55031222
11.1100,45.06288298
11.1150,44.56731957
11.1200,44.06347265
11.1250,43.55137709
11.1300,43.03101826
11.1350,42.50270775
11.1400,41.96674072
11.1450,41.42328027
11.1500,40.87269746
11.1550,40.31499621
11.1600,39.75056843
11.1650,39.17956435
11.1700,38.6025896
11.1750,38.02009665
11.1800,37.43193884
11.1850,36.83904119
11.1900,36.24139946
11.1950,35.63978122
11.2000,35.03447606
11.2050,34.42558791
11.2100,33.81381943
11.2150,33.19929442
11.2200,32.58247759
11.2250,31.96371562
11.2300,31.34315546
11.2350,30.72170638
11.2400,30.09949841
11.2450,29.47697689
11.2500,28.85505701
11.2550,28.23375153
11.2600,27.6133933
11.2650,26.9945067
11.2700,26.37748965
11.2750,25.76255959
11.2800,25.15038857
11.2850,24.54132567
11.2900,23.93573296
11.2950,23.33435487
11.3000,22.73731722
11.3050,22.14544355
11.3100,21.5590119
11.3150,20.97831745
11.3200,20.40357577
11.3250,19.83505343
11.3300,19.27319493
11.3350,18.71758671
11.3400,18.16880113
11.3450,17.62639345
11.3500,17.09070794
11.3550,16.56197512
11.3600,16.04019701
11.3650,15.52506561
11.3700,15.01650021
11.3750,14.51478163
11.3800,14.01988985
11.3850,13.53166288
11.3900,13.04993563
11.3950,12.57505123
11.4000,12.10669414
11.4050,11.64477829
11.4100,11.18926328
11.4150,10.74032744
11.4200,10.29793643
11.4250,9.861975779
11.4300,9.432174016
11.4350,9.00807186
11.4400,8.590071308
11.4450,8.177898491
11.4500,7.772244619
11.4550,7.372768766
11.4600,6.979210503
11.4650,6.591938732
11.4700,6.210405614
11.4750,5.834594254
11.4800,5.464383739
11.4850,5.099877703
11.4900,4.740568308
11.4950,4.386157125
11.5000,4.037048055
11.5050,3.693224976
11.5100,3.354092678
11.5150,3.019598486
11.5200,2.689453766
11.5250,2.363501846
11.5300,2.041950491
11.5350,1.724436957
11.5400,1.411232042
11.5450,1.102708624
11.5500,0.7985811101
11.5550,0.4990252895
11.5600,0.2038329171
11.5650,-0.08714305902
11.5700,-0.3743700416
11.5750,-0.6576797722
11.5800,-0.9374285119
11.5850,-1.213535067
11.5900,-1.485864916
11.5950,-1.754381282
11.6000,-2.019113972
11.6050,-2.280228936
11.6100,-2.537625077
11.6150,-2.791538177
11.6200,-3.041955356
11.6250,-3.289295645
11.6300,-3.53364829
11.6350,-3.774899908
11.6400,-4.01349776
11.6450,-4.249171153
11.6500,-4.482330729
11.6550,-4.712878419
11.6600,-4.941237372
11.6650,-5.167351262
11.6700,-5.391736699
11.6750,-5.614731847
11.6800,-5.836615622
11.6850,-6.057335681
11.6900,-6.276642522
11.6950,-6.495181754
11.7000,-6.712777816
11.7050,-6.929586259
11.7100,-7.145682524
11.7150,-7.361294943
11.7200,-7.57642943
11.7250,-7.791117759
11.7300,-8.005529065
11.7350,-8.219369088
11.7400,-8.433071079
11.7450,-8.646278397
11.7500,-8.859533935
11.7550,-9.072427649
11.7600,-9.284954021
11.7650,-9.497234889
11.7700,-9.709125228
11.7750,-9.920158314
11.7800,-10.13034248
11.7850,-10.33970543
11.7900,-10.54842806
11.7950,-10.75646908
11.8000,-10.96429288
11.8050,-11.17166845
11.8100,-11.37871969
11.8150,-11.58506611
11.8200,-11.79038429
11.8250,-11.99425168
11.8300,-12.1967027
11.8350,-12.39707782
11.8400,-12.59495959
11.8450,-12.79033063
11.8500,-12.98325069
11.8550,-13.17311989
11.8600,-13.35965699
11.8650,-13.54245633
11.8700,-13.72101128
11.8750,-13.89497758
11.8800,-14.06352631
11.8850,-14.22646788
11.8900,-14.3835538
11.8950,-14.5348939
11.9000,-14.68027261
11.9050,-14.81959964
11.9100,-14.95316988
11.9150,-15.0810026
11.9200,-15.20369794
11.9250,-15.32104145
11.9300,-15.4335037
11.9350,-15.54127098
11.9400,-15.64465127
11.9450,-15.74401268
11.9500,-15.83958712
11.9550,-15.93194331
11.9600,-16.02096784
11.9650,-16.10730185
11.9700,-16.19103458
11.9750,-16.27263446
11.9800,-16.35243052
11.9850,-16.43094335
11.9900,-16.50905966
11.9950,-16.58710754
12.0000,-16.66566039
12.0050,-16.74531971
12.0100,-16.82653159
12.0150,-16.90952094
12.0200,-16.99465928
12.0250,-17.08221163
12.0300,-17.17185361
12.0350,-17.26347914
12.0400,-17.35715973
12.0450,-17.45299919
12.0500,-17.55110511
12.0550,-17.65160099
12.0600,-17.75438233
12.0650,-17.85966924
12.0700,-17.96767637
12.0750,-18.07892724
12.0800,-18.1935767
12.0850,-18.31169122
12.0900,-18.4331522
12.0950,-18.55800247
12.1000,-18.68606412
12.1050,-18.81732139
12.1100,-18.95137124
12.1150,-19.08798063
12.1200,-19.22702903
12.1250,-19.36829927
12.1300,-19.5112722
12.1350,-19.65542947
12.1400,-19.80030272
12.1450,-19.94498455
12.1500,-20.08836955
12.1550,-20.22978211
12.1600,-20.36815738
12.1650,-20.50279773
12.1700,-20.63271619
12.1750,-20.75727989
12.1800,-20.87594425
12.1850,-20.98845891
12.1900,-21.09421616
12.1950,-21.19298587
12.2000,-21.28438979
12.2050,-21.36819637
12.2100,-21.44454549
12.2150,-21.5136828
12.2200,-21.57540985
12.2250,-21.6299937
12.2300,-21.67773447
12.2350,-21.71898811
12.2400,-21.75414786
12.2450,-21.78359355
12.2500,-21.8075544
12.2550,-21.82649578
12.2600,-21.84110312
12.2650,-21.85160314
12.2700,-21.85835475
12.2750,-21.86159419
12.2800,-21.86172729
12.2850,-21.85887294
12.2900,-21.85332894
12.2950,-21.84524686
12.3000,-21.83470834
12.3050,-21.82183445
12.3100,-21.80684879
12.3150,-21.7899352
12.3200,-21.77141023
12.3250,-21.75144379
12.3300,-21.73065336
12.3350,-21.70951384
12.3400,-21.68824621
12.3450,-21.6671781
12.3500,-21.64646833
12.3550,-21.62632161
12.3600,-21.60727188
12.3650,-21.58942776
12.3700,-21.57258175
12.3750,-21.55667359
12.3800,-21.54151566
12.3850,-21.52708546
12.3900,-21.51325827
12.3950,-21.50013946
12.4000,-21.48752986
12.4050,-21.47553305
12.4100,-21.46421388
12.4150,-21.45371356
12.4200,-21.44395571
12.4250,-21.43498094
12.4300,-21.42687428
12.4350,-21.41974217
12.4400,-21.41356796
12.4450,-21.40839886
12.4500,-21.40432384
12.4550,-21.40141258
12.4600,-21.39992641
12.4650,-21.39947836
12.4700,-21.4003352
12.4750,-21.40232729
12.4800,-21.40542441
12.4850,-21.40927773
12.4900,-21.4139869
12.4950,-21.41933709
12.5000,-21.42514957
12.5050,-21.43180099
12.5100,-21.43904175
12.5150,-21.44676449
12.5200,-21.45495219
12.5250,-21.46337907
12.5300,-21.47196726
12.5350,-21.48045033
12.5400,-21.48833448
12.5450,-21.4954508
12.5500,-21.50171868
12.5550,-21.50674732
12.5600,-21.51029463
12.5650,-21.51212862
12.5700,-21.51227579
12.5750,-21.51072798
12.5800,-21.50717739
12.5850,-21.50178642
12.5900,-21.49438279
12.5950,-21.48482647
12.6000,-21.47319357
12.6050,-21.45935009
12.6100,-21.44300106
12.6150,-21.42415937
12.6200,-21.40246642
12.6250,-21.3777739
12.6300,-21.34968395
12.6350,-21.31793943
12.6400,-21.28238175
12.6450,-21.24261021
12.6500,-21.19843656
12.6550,-21.14975054
12.6600,-21.09628478
12.6650,-21.0377811
12.6700,-20.9743196
12.6750,-20.90555583
12.6800,-20.83166099
12.6850,-20.75273537
12.6900,-20.66899519
12.6950,-20.58058233
12.7000,-20.48781538
12.7050,-20.39127771
12.7100,-20.29146947
12.7150,-20.18897338
12.7200,-20.08467291
12.7250,-19.97907114
12.7300,-19.87273992
12.7350,-19.76636799
12.7400,-19.66045944
12.7450,-19.55554923
12.7500,-19.45215739
12.7550,-19.35053609
12.7600,-19.25107069
12.7650,-19.15407767
12.7700,-19.05946761
12.7750,-18.96736828
12.7800,-18.87766595
12.7850,-18.79030411
12.7900,-18.70482312
12.7950,-18.62111269
12.8000,-18.53901273
12.8050,-18.45791995
12.8100,-18.3774294
12.8150,-18.29697129
12.8200,-18.216249
12.8250,-18.13480975
12.8300,-18.05261221
12.8350,-17.96962304
12.8400,-17.88610248
12.8450,-17.80213964
12.8500,-17.71814131
12.8550,-17.63450524
12.8600,-17.55156731
12.8650,-17.46982048
12.8700,-17.38946415
12.8750,-17.31087326
12.8800,-17.234383
12.8850,-17.16027456
12.8900,-17.08899505
12.8950,-17.02067357
12.9000,-16.95570932
12.9050,-16.89430008
12.9100,-16.83687939
12.9150,-16.78351631
12.9200,-16.73450743
12.9250,-16.68999344
12.9300,-16.64988004
12.9350,-16.61433753
12.9400,-16.58334301
12.9450,-16.55708734
12.9500,-16.53535764
12.9550,-16.51794341
12.9600,-16.50472218
12.9650,-16.49562136
12.9700,-16.49039688
12.9750,-16.48915648
12.9800,-16.49167868
12.9850,-16.49793685
12.9900,-16.5078533
12.9950,-16.5213355
13.0000,-16.53838173
13.0050,-16.55856644
13.0100,-16.5816366
13.0150,-16.60727703
13.0200,-16.63509421
13.0250,-16.66498173
13.0300,-16.6964803
13.0350,-16.72942538
13.0400,-16.76351841
13.0450,-16.79855472
13.0500,-16.83431891
13.0550,-16.87027974
13.0600,-16.90613815
13.0650,-16.9416224
13.0700,-16.97650312
13.0750,-17.01044637
13.0800,-17.0433412
13.0850,-17.07482221
13.0900,-17.10471257
13.0950,-17.13257832
13.1000,-17.15803502
13.1050,-17.18075357
13.1100,-17.20047593
13.1150,-17.21720366
13.1200,-17.23077277
13.1250,-17.24113861
13.1300,-17.24810099
13.1350,-17.25143373
13.1400,-17.25111619
13.1450,-17.24717721
13.1500,-17.23925879
13.1550,-17.22727662
13.1600,-17.21095097
13.1650,-17.19010798
13.1700,-17.16466967
13.1750,-17.13453789
13.1800,-17.09970396
13.1850,-17.06010141
13.1900,-17.01599984
13.1950,-16.96777416
13.2000,-16.91557227
13.2050,-16.85959104
13.2100,-16.79993233
13.2150,-16.73668953
13.2200,-16.67007181
13.2250,-16.60022811
13.2300,-16.52740677
13.2350,-16.45166409
13.2400,-16.37314596
13.2450,-16.29206225
13.2500,-16.20870212
13.2550,-16.12348554
13.2600,-16.03670149
13.2650,-15.94865738
13.2700,-15.86002185
13.2750,-15.77106252
13.2800,-15.68222339
13.2850,-15.59371486
13.2900,-15.50588241
13.2950,-15.41919356
13.3000,-15.33380346
13.3050,-15.24998078
13.3100,-15.16794872
13.3150,-15.08758222
13.3200,-15.00906136
13.3250,-14.93219809
13.3300,-14.85710911
13.3350,-14.78385206
13.3400,-14.71253054
13.3450,-14.64309676
13.3500,-14.57512223
13.3550,-14.50872491
13.3600,-14.44358816
13.3650,-14.37954848
13.3700,-14.31652698
13.3750,-14.25424409
13.3800,-14.19260126
13.3850,-14.13139037
13.3900,-14.07036404
13.3950,-14.00943085
13.4000,-13.94868479
13.4050,-13.88809606
13.4100,-13.82776144
13.4150,-13.76751207
13.4200,-13.70745034
13.4250,-13.64774266
13.4300,-13.58800667
13.4350,-13.52836448
13.4400,-13.46853222
13.4450,-13.40822236
13.4500,-13.34728036
13.4550,-13.28548406
13.4600,-13.22278506
13.4650,-13.15921171
13.4700,-13.09439362
13.4750,-13.02865084
13.4800,-12.96200837
13.4850,-12.89437178
13.4900,-12.82542485
13.4950,-12.75496868
13.5000,-12.68299372
13.5050,-12.60938144
13.5100,-12.53388655
13.5150,-12.45659707
13.5200,-12.37741546
13.5250,-12.29645796
13.5300,-12.21366122
13.5350,-12.129094
13.5400,-12.04290059
13.5450,-11.954521
13.5500,-11.86425797
13.5550,-11.7720201
13.5600,-11.67748816
13.5650,-11.58048392
13.5700,-11.48080591
13.5750,-11.37849219
13.5800,-11.27321924
13.5850,-11.16540288
13.5900,-11.05446352
13.5950,-10.94039513
13.6000,-10.82324185
13.6050,-10.70307476
13.6100,-10.57997691
13.6150,-10.45428618
13.6200,-10.32597148
13.6250,-10.19549677
13.6300,-10.06308776
13.6350,-9.928676668
13.6400,-9.792374074
13.6450,-9.654049108
13.6500,-9.513939793
13.6550,-9.372110235
13.6600,-9.228505093
13.6650,-9.083206448
13.6700,-8.93622419
13.6750,-8.787592895
13.6800,-8.637190104
13.6850,-8.485002837
13.6900,-8.33124465
13.6950,-8.175734571
13.7000,-8.018370982
13.7050,-7.859037846
13.7100,-7.697714905
13.7150,-7.534385786
13.7200,-7.368999876
13.7250,-7.20152134
13.7300,-7.032194701
13.7350,-6.860787735
13.7400,-6.687341381
13.7450,-6.512027104
13.7500,-6.335099306
13.7550,-6.156467831
13.7600,-5.976091625
13.7650,-5.793895849
13.7700,-5.610147409
13.7750,-5.424414243
13.7800,-5.236697509
13.7850,-5.046946333
13.7900,-4.854777044
13.7950,-4.660330129
13.8000,-4.463330059
13.8050,-4.263905469
13.8100,-4.062137731
13.8150,-3.85771472
13.8200,-3.650706822
13.8250,-3.441019981
13.8300,-3.228779918
13.8350,-3.013895784
13.8400,-2.795951682
13.8450,-2.575607
13.8500,-2.352444988
13.8550,-2.126423345
13.8600,-1.897798992
13.8650,-1.666789479
13.8700,-1.433258378
13.8750,-1.197233509
13.8800,-0.9588252532
13.8850,-0.7179148277
13.8900,-0.4748544013
13.8950,-0.2295714695
13.9000,0.01786914116
13.9050,0.2675566405
13.9100,0.5197940974
13.9150,0.7744252199
13.9200,1.031518025
13.9250,1.291391324
13.9300,1.553894585
13.9350,1.819210619
13.9400,2.087375518
13.9450,2.358250796
13.9500,2.631886433
13.9550,2.908166998
13.9600,3.187255329
13.9650,3.469276125
13.9700,3.754337764
13.9750,4.042962825
13.9800,4.335168714
13.9850,4.631112482
13.9900,4.931052948
13.9950,5.235234889
14.0000,5.543739312
14.0050,5.856454087
14.0100,6.173420105
14.0150,6.494762973
14.0200,6.820561568
14.0250,7.150952242
14.0300,7.485955313
14.0350,7.825386366
14.0400,8.169120153
14.0450,8.517207291
14.0500,8.869843627
14.0550,9.226799699
14.0600,9.587806142
14.0650,9.953027065
14.0700,10.32237591
14.0750,10.69555195
14.0800,11.07263459
14.0850,11.45326149
14.0900,11.83703688
14.0950,12.22386857
14.1000,12.61341866
14.1050,13.00571516
14.1100,13.40078769
14.1150,13.79783715
14.1200,14.19687072
14.1250,14.59791899
14.1300,15.00078149
14.1350,15.40506615
14.1400,15.81035048
14.1450,16.21667776
14.1500,16.62360365
14.1550,17.03076668
14.1600,17.43801374
14.1650,17.84519481
14.1700,18.25203519
14.1750,18.65861835
14.1800,19.06448439
14.1850,19.46979952
14.1900,19.87428405
14.1950,20.27806782
14.2000,20.68065879
14.2050,21.08227032
14.2100,21.48271987
14.2150,21.882136
14.2200,22.28023334
14.2250,22.67706717
14.2300,23.07261514
14.2350,23.466626
14.2400,23.85928329
14.2450,24.2506271
14.2500,24.64030215
14.2550,25.02851823
14.2600,25.41513842
14.2650,25.80029103
14.2700,26.18429602
14.2750,26.56670696
14.2800,26.94799865
14.2850,27.32821426
14.2900,27.70713066
14.2950,28.08450415
14.3000,28.46066913
14.3050,28.83582584
14.3100,29.21014871
14.3150,29.5835639
14.3200,29.95648073
14.3250,30.32846614
14.3300,30.69959669
14.3350,31.06998591
14.3400,31.43958601
14.3450,31.80873711
14.3500,32.17719318
14.3550,32.54507647
14.3600,32.91250029
14.3650,33.27963503
14.3700,33.64618965
14.3750,34.01246662
14.3800,34.37845839
14.3850,34.74451588
14.3900,35.11038913
14.3950,35.47631455
14.4000,35.84261501
14.4050,36.2092762
14.4100,36.57619692
14.4150,36.94347586
14.4200,37.3110063
14.4250,37.67885308
14.4300,38.04689961
14.4350,38.41542048
14.4400,38.78434851
14.4450,39.15369123
14.4500,39.52306183
14.4550,39.89279551
14.4600,40.26301439
14.4650,40.63361765
14.4700,41.00491525
14.4750,41.3766884
14.4800,41.74857471
14.4850,42.12056586
14.4900,42.49259352
14.4950,42.86455032
14.5000,43.23652238
14.5050,43.60814208
14.5100,43.97907146
14.5150,44.34947301
14.5200,44.71969884
14.5250,45.08939832
14.5300,45.45880861
14.5350,45.82788014
14.5400,46.19646813
14.5450,46.56472656
14.5500,46.93241423
14.5550,47.29951116
14.5600,47.66539891
14.5650,48.03038523
14.5700,48.3940118
14.5750,48.75681871
14.5800,49.11846993
14.5850,49.47900085
14.5900,49.83833485
14.5950,50.19624421
14.6000,50.552756
14.6050,50.90708875
14.6100,51.25960594
14.6150,51.60999207
14.6200,51.95788434
14.6250,52.30337719
14.6300,52.6463546
14.6350,52.98640696
14.6400,53.32357529
14.6450,53.65753658
14.6500,53.98851097
14.6550,54.31632892
14.6600,54.64133543
14.6650,54.96306048
14.6700,55.28226981
14.6750,55.5988228
14.6800,55.91254718
14.6850,56.22362524
14.6900,56.532088
14.6950,56.83781083
14.7000,57.14035361
14.7050,57.43972452
14.7100,57.73557195
14.7150,58.02799532
14.7200,58.31709683
14.7250,58.60294656
14.7300,58.88563019
14.7350,59.16500648
14.7400,59.44113676
14.7450,59.7141467
14.7500,59.98477677
14.7550,60.25292549
14.7600,60.51842651
14.7650,60.78118518
14.7700,61.04086066
14.7750,61.29732306
14.7800,61.55082979
14.7850,61.80143775
14.7900,62.04928553
14.7950,62.29434562
14.8000,62.53684584
14.8050,62.77648361
14.8100,63.01316679
14.8150,63.24664077
14.8200,63.47613372
14.8250,63.70134279
14.8300,63.92216018
14.8350,64.13823697
14.8400,64.34955191
14.8450,64.55649921
14.8500,64.75918415
14.8550,64.95769708
14.8600,65.15246171
14.8650,65.34300595
14.8700,65.52940266
14.8750,65.71154295
14.8800,65.88959417
14.8850,66.0635583
14.8900,66.23333708
14.8950,66.39929403
14.9000,66.56184723
14.9050,66.72138617
14.9100,66.87768137
14.9150,67.03067339
14.9200,67.17999274
14.9250,67.32575453
14.9300,67.46764385
14.9350,67.6058275
14.9400,67.74016828
14.9450,67.87066142
14.9500,67.99728849
14.9550,68.12044679
14.9600,68.23964462
14.9650,68.35551653
14.9700,68.46794555
14.9750,68.57751928
14.9800,68.68500956
14.9850,68.79100626
14.9900,68.8959316
14.9950,69.00033344
15.0000,69.1048185
15.0050,69.20967442
15.0100,69.31545247
15.0150,69.42243102
15.0200,69.53078473
15.0250,69.64071675
15.0300,69.75225119
15.0350,69.86529628
15.0400,69.97971017
15.0450,70.0950137
15.0500,70.2110951
15.0550,70.32748226
15.0600,70.44413354
15.0650,70.56132789
15.0700,70.67937252
15.0750,70.79816015
15.0800,70.91751494
15.0850,71.03729164
15.0900,71.15684068
15.0950,71.27627322
15.1000,71.3952748
15.1050,71.51442477
15.1100,71.63371603
15.1150,71.75313449
15.1200,71.87332175
15.1250,71.99428258
15.1300,72.11589333
15.1350,72.23814047
15.1400,72.36070077
15.1450,72.48315323
15.1500,72.60538066
15.1550,72.72759075
15.1600,72.84924431
15.1650,72.97036972
15.1700,73.09085074
15.1750,73.21043963
15.1800,73.32905903
15.1850,73.4463726
15.1900,73.56235588
15.1950,73.67673599
15.2000,73.78903669
15.2050,73.89898633
15.2100,74.00664273
15.2150,74.11214233
15.2200,74.21557183
15.2250,74.3169972
15.2300,74.41659006
15.2350,74.51423707
15.2400,74.61033703
15.2450,74.70474591
15.2500,74.79741113
15.2550,74.88843015
15.2600,74.97847347
15.2650,75.06748421
15.2700,75.15566396
15.2750,75.24290487
15.2800,75.32899503
15.2850,75.4134723
15.2900,75.49633903
15.2950,75.57763213
15.3000,75.65724831
15.3050,75.73513221
15.3100,75.81144606
15.3150,75.88609626
15.3200,75.95917616
15.3250,76.03066522
15.3300,76.10076007
15.3350,76.16973377
15.3400,76.23748126
15.3450,76.30411626
15.3500,76.36967093
15.3550,76.43425877
15.3600,76.49778508
15.3650,76.55989479
15.3700,76.62008271
15.3750,76.67824304
15.3800,76.73444483
15.3850,76.78864472
15.3900,76.84111229
15.3950,76.89154742
15.4000,76.94016641
15.4050,76.98709939
15.4100,77.03239107
15.4150,77.07614078
15.4200,77.11772738
15.4250,77.15737966
15.4300,77.19509845
15.4350,77.2309154
15.4400,77.26503074
15.4450,77.29777047
15.4500,77.32949054
15.4550,77.36010559
15.4600,77.38990718
15.4650,77.41916272
15.4700,77.44793754
15.4750,77.47601621
15.4800,77.50345797
15.4850,77.53014214
15.4900,77.55627953
15.4950,77.5819105
15.5000,77.60684286
15.5050,77.6314557
15.5100,77.65520767
15.5150,77.67809914
15.5200,77.70007613
15.5250,77.72100351
15.5300,77.74091493
15.5350,77.75983927
15.5400,77.77731761
15.5450,77.79387024
15.5500,77.8094778
15.5550,77.82388959
15.5600,77.83723476
15.5650,77.84972944
15.5700,77.8614058
15.5750,77.87215195
15.5800,77.88207434
15.5850,77.8916776
15.5900,77.90108036
15.5950,77.91034746
15.6000,77.91967514
15.6050,77.92895531
15.6100,77.93827417
15.6150,77.94796125
15.6200,77.9581583
15.6250,77.96866506
15.6300,77.97933909
15.6350,77.98991925
15.6400,77.99998936
15.6450,78.00970701
15.6500,78.01888011
15.6550,78.02732256
15.6600,78.03494433
15.6650,78.04131887
15.6700,78.04626075
15.6750,78.04968647
15.6800,78.05135967
15.6850,78.0511228
15.6900,78.04893042
15.6950,78.04504714
15.7000,78.03906944
15.7050,78.03040555
15.7100,78.01855584
15.7150,78.00309351
15.7200,77.98404211
15.7250,77.961728
15.7300,77.93629839
15.7350,77.90801848
15.7400,77.87653451
15.7450,77.84210438
15.7500,77.80431424
15.7550,77.76306369
15.7600,77.71838927
15.7650,77.6702868
15.7700,77.61892653
15.7750,77.56457497
15.7800,77.50723493
15.7850,77.4472261
15.7900,77.38453286
15.7950,77.31914288
15.8000,77.25116511
15.8050,77.18063982
15.8100,77.10796641
15.8150,77.03329214
15.8200,76.95714472
15.8250,76.87964291
15.8300,76.80095172
15.8350,76.72148365
15.8400,76.64151989
15.8450,76.56128274
15.8500,76.48112798
15.8550,76.40153173
15.8600,76.32287008
15.8650,76.24530958
15.8700,76.16909625
15.8750,76.09459242
15.8800,76.02229643
15.8850,75.95222424
15.8900,75.88439265
15.8950,75.81893271
15.9000,75.75584536
15.9050,75.69560707
15.9100,75.63777675
15.9150,75.58228582
15.9200,75.52904978
15.9250,75.47827117
15.9300,75.4297519
15.9350,75.38351324
15.9400,75.34010614
15.9450,75.29941613
15.9500,75.26121876
15.9550,75.22549719
15.9600,75.19183938
15.9650,75.16043754
15.9700,75.13140162
15.9750,75.10452932
15.9800,75.0800053
15.9850,75.05754745
15.9900,75.03725826
15.9950,75.01857964
16.0000,75.00166129
16.0050,74.98681495
16.0100,74.97429927
16.0150,74.96418416
16.0200,74.95642404
16.0250,74.95051855
16.0300,74.9465715
16.0350,74.94440722
16.0400,74.94425969
16.0450,74.94573003
16.0500,74.94901477
16.0550,74.95400711
16.0600,74.96063998
16.0650,74.96884491
16.0700,74.97824428
16.0750,74.98868317
16.0800,74.99978973
16.0850,75.01155349
16.0900,75.02380468
16.0950,75.03638377
16.1000,75.0492027
16.1050,75.06242936
16.1100,75.07612503
16.1150,75.09025975
16.1200,75.10469544
16.1250,75.11951335
16.1300,75.13463414
16.1350,75.14960078
16.1400,75.16427227
16.1450,75.17843843
16.1500,75.19227162
16.1550,75.20539534
16.1600,75.21767642
16.1650,75.2291662
16.1700,75.24000963
16.1750,75.25035125
16.1800,75.25990243
16.1850,75.26854908
16.1900,75.27628181
16.1950,75.28293366
16.2000,75.28843623
16.2050,75.29244258
16.2100,75.2950949
16.2150,75.29611537
16.2200,75.29549016
16.2250,75.29286266
16.2300,75.28840681
16.2350,75.28189778
16.2400,75.27333462
16.2450,75.26253928
16.2500,75.24968564
16.2550,75.2348977
16.2600,75.21851544
16.2650,75.20059689
16.2700,75.18118975
16.2750,75.1602833
16.2800,75.13745661
16.2850,75.11273205
16.2900,75.08581765
16.2950,75.05672193
16.3000,75.02482773
16.3050,74.98987116
16.3100,74.9518547
16.3150,74.91091679
16.3200,74.8672993
16.3250,74.82106359
16.3300,74.77207804
16.3350,74.72033372
16.3400,74.66587088
16.3450,74.60868324
16.3500,74.54865623
16.3550,74.48605111
16.3600,74.42097523
16.3650,74.35358279
16.3700,74.28405293
16.3750,74.21213269
16.3800,74.13790723
16.3850,74.06104228
16.3900,73.98176882
16.3950,73.90023496
16.4000,73.81704479
16.4050,73.73172908
16.4100,73.64436125
16.4150,73.55485492
16.4200,73.46310312
16.4250,73.36916107
16.4300,73.27274818
16.4350,73.17406166
16.4400,73.07317445
16.4450,72.97010093
16.4500,72.86466031
16.4550,72.75729599
16.4600,72.64764886
16.4650,72.53537632
16.4700,72.42043401
16.4750,72.30258516
16.4800,72.1819178
16.4850,72.05820385
16.4900,71.93152302
16.4950,71.80186076
16.5000,71.6693742
16.5050,71.53406767
16.5100,71.39616544
16.5150,71.25566238
16.5200,71.11238796
16.5250,70.96652683
16.5300,70.81791412
16.5350,70.66651579
16.5400,70.51184102
16.5450,70.35394747
16.5500,70.19257072
16.5550,70.02716826
16.5600,69.85803783
16.5650,69.68507705
16.5700,69.50831428
16.5750,69.32772951
16.5800,69.14346869
16.5850,68.95557414
16.5900,68.76429247
16.5950,68.57010138
16.6000,68.37340973
16.6050,68.17460453
16.6100,67.9741611
16.6150,67.7720731
16.6200,67.56827991
16.6250,67.36269331
16.6300,67.15504623
16.6350,66.94491247
16.6400,66.73218569
16.6450,66.51645335
16.6500,66.29764571
16.6550,66.07560732
16.6600,65.85005502
16.6650,65.62068354
16.6700,65.38725442
16.6750,65.14990975
16.6800,64.90874651
16.6850,64.66432622
16.6900,64.41581781
16.6950,64.16329279
16.7000,63.90589532
16.7050,63.64327196
16.7100,63.37519222
16.7150,63.10160049
16.7200,62.8226022
16.7250,62.53798063
16.7300,62.24791914
16.7350,61.95223324
16.7400,61.65075313
16.7450,61.34320602
16.7500,61.02960833
16.7550,60.70936954
16.7600,60.3818294
16.7650,60.04705403
16.7700,59.70478425
16.7750,59.3549556
16.7800,58.99687902
16.7850,58.63038385
16.7900,58.25496096
16.7950,57.87058894
16.8000,57.47744247
16.8050,57.07579822
16.8100,56.66507309
16.8150,56.24551031
16.8200,55.81702021
16.8250,55.37977167
16.8300,54.93397182
16.8350,54.47959339
16.8400,54.0165864
16.8450,53.54501018
16.8500,53.06536831
16.8550,52.57805791
16.8600,52.08275762
16.8650,51.57939522
16.8700,51.06808882
16.8750,50.54924906
16.8800,50.02286145
16.8850,49.48961778
16.8900,48.94962214
16.8950,48.40299341
16.9000,47.85042223
16.9050,47.29168875
16.9100,46.72713474
16.9150,46.15732099
16.9200,45.58242919
16.9250,45.00315901
16.9300,44.4198982
16.9350,43.83314641
16.9400,43.2432398
16.9450,42.651078
16.9500,42.05688698
16.9550,41.46059491
16.9600,40.86223988
16.9650,40.26143594
16.9700,39.65861164
16.9750,39.05346242
16.9800,38.44600472
16.9850,37.83607473
16.9900,37.22400829
16.9950,36.60995432
17.0000,35.9942076
17.0050,35.3771842
17.0100,34.75881863
17.0150,34.1392637
17.0200,33.51851489
17.0250,32.89661837
17.0300,32.27334975
17.0350,31.64914053
17.0400,31.02411966
17.0450,30.39861522
17.0500,29.77222206
17.0550,29.14535256
17.0600,28.5186289
17.0650,27.89207467
17.0700,27.26582981
17.0750,26.64034591
17.0800,26.01556577
17.0850,25.39186645
17.0900,24.76947374
17.0950,24.14873408
17.1000,23.52969966
17.1050,22.9129269
17.1100,22.29947224
17.1150,21.68915877
17.1200,21.08266152
17.1250,20.48000665
17.1300,19.88165796
17.1350,19.28805398
17.1400,18.69964033
17.1450,18.11664248
17.1500,17.53907864
17.1550,16.96729563
17.1600,16.40164607
17.1650,15.84261396
17.1700,15.2900687
17.1750,14.74443429
17.1800,14.20593613
17.1850,13.67486021
17.1900,13.1512068
17.1950,12.63501594
17.2000,12.12608205
17.2050,11.62464936
17.2100,11.13063744
17.2150,10.64360893
17.2200,10.16366879
17.2250,9.690498193
17.2300,9.223961685
17.2350,8.764172353
17.2400,8.310711576
17.2450,7.863319579
17.2500,7.42238827
17.2550,6.988208094
17.2600,6.560746181
17.2650,6.140544994
17.2700,5.727077382
17.2750,5.320271376
17.2800,4.919855585
17.2850,4.525697174
17.2900,4.137791277
17.2950,3.75575786
17.3000,3.379597432
17.3050,3.009024994
17.3100,2.643956714
17.3150,2.283888809
17.3200,1.928669146
17.3250,1.578642358
17.3300,1.233888285
17.3350,0.8941994303
17.3400,0.5596145218
17.3450,0.2298138404
17.3500,-0.09523735032
17.3550,-0.415596737
17.3600,-0.7316766051
17.3650,-1.044148813
17.3700,-1.353229492
17.3750,-1.658661544
17.3800,-1.960167833
17.3850,-2.257826529
17.3900,-2.551392955
17.3950,-2.841067843
17.4000,-3.127005596
17.4050,-3.409306785
17.4100,-3.688178494
17.4150,-3.963298252
17.4200,-4.23495347
17.4250,-4.503097646
17.4300,-4.767622593
17.4350,-5.028590418
17.4400,-5.286003764
17.4450,-5.539640253
17.4500,-5.789625794
17.4550,-6.035652804
17.4600,-6.277689735
17.4650,-6.515780875
17.4700,-6.749534352
17.4750,-6.97913964
17.4800,-7.204702169
17.4850,-7.426028016
17.4900,-7.642792077
17.4950,-7.855036107
17.5000,-8.062490181
17.5050,-8.265342026
17.5100,-8.463579441
17.5150,-8.657395573
17.5200,-8.84657885
17.5250,-9.030780801
17.5300,-9.210279294
17.5350,-9.38523465
17.5400,-9.555310935
17.5450,-9.72042593
17.5500,-9.880658137
17.5550,-10.03643602
17.5600,-10.18819028
17.5650,-10.3366577
17.5700,-10.48195315
17.5750,-10.6245684
17.5800,-10.76451391
17.5850,-10.90193471
17.5900,-11.0369297
17.5950,-11.16973434
17.6000,-11.30001246
17.6050,-11.42785494
17.6100,-11.55317929
17.6150,-11.67582481
17.6200,-11.79588778
17.6250,-11.91380658
17.6300,-12.02960401
17.6350,-12.14314063
17.6400,-12.25433658
17.6450,-12.36308718
17.6500,-12.4692803
17.6550,-12.57324711
17.6600,-12.67483418
17.6650,-12.77362221
17.6700,-12.86974155
17.6750,-12.96328395
17.6800,-13.05426949
17.6850,-13.14283804
17.6900,-13.22914559
17.6950,-13.31333962
17.7000,-13.39540018
17.7050,-13.47559291
17.7100,-13.55419902
17.7150,-13.63170088
17.7200,-13.70807087
17.7250,-13.78316234
17.7300,-13.85727877
17.7350,-13.93037578
17.7400,-14.00263425
17.7450,-14.07427152
17.7500,-14.14530469
17.7550,-14.21604656
17.7600,-14.28680521
17.7650,-14.35781994
17.7700,-14.42952641
17.7750,-14.50195982
17.7800,-14.57498718
17.7850,-14.64886179
17.7900,-14.72353664
17.7950,-14.79896919
17.8000,-14.87514844
17.8050,-14.95177473
17.8100,-15.02905948
17.8150,-15.10689078
17.8200,-15.18554858
17.8250,-15.26527757
17.8300,-15.34578986
17.8350,-15.42707103
17.8400,-15.50906555
17.8450,-15.59177099
17.8500,-15.67501877
17.8550,-15.7586418
17.8600,-15.84241343
17.8650,-15.92603838
17.8700,-16.00931296
17.8750,-16.09185858
17.8800,-16.17379578
17.8850,-16.25473572
17.8900,-16.3343395
17.8950,-16.41262413
17.9000,-16.48976473
17.9050,-16.56558369
17.9100,-16.64010667
17.9150,-16.71318154
17.9200,-16.78439167
17.9250,-16.85362319
17.9300,-16.92076251
17.9350,-16.98574144
17.9400,-17.04854222
17.9450,-17.10902932
17.9500,-17.16740519
17.9550,-17.22369049
17.9600,-17.27790804
17.9650,-17.33029648
17.9700,-17.38081337
17.9750,-17.42974624
17.9800,-17.47732958
17.9850,-17.52353266
17.9900,-17.5686785
17.9950,-17.61298944
18.0000,-17.65652551
18.0050,-17.69943738
18.0100,-17.74181953
18.0150,-17.7836445
18.0200,-17.82505251
18.0250,-17.86628105
18.0300,-17.90737301
18.0350,-17.94849558
18.0400,-17.98957375
18.0450,-18.03062425
18.0500,-18.07139993
18.0550,-18.11182836
18.0600,-18.1515441
18.0650,-18.19035544
18.0700,-18.22813601
18.0750,-18.26470778
18.0800,-18.30020417
18.0850,-18.33455291
18.0900,-18.36771026
18.0950,-18.39956478
18.1000,-18.43036017
18.1050,-18.4601009
18.1100,-18.4886385
18.1150,-18.5160335
18.1200,-18.5423715
18.1250,-18.56752655
18.1300,-18.59156683
18.1350,-18.61458921
18.1400,-18.63673897
18.1450,-18.65821507
18.1500,-18.67914862
18.1550,-18.69987458
18.1600,-18.72047397
18.1650,-18.74140297
18.1700,-18.76260545
18.1750,-18.7843944
18.1800,-18.80671405
18.1850,-18.82987865
18.1900,-18.85385343
18.1950,-18.87864062
18.2000,-18.90424673
18.2050,-18.93061011
18.2100,-18.95786164
18.2150,-18.98607148
18.2200,-19.01582406
18.2250,-19.04708513
18.2300,-19.08002382
18.2350,-19.11454253
18.2400,-19.15077633
18.2450,-19.18888862
18.2500,-19.22877048
18.2550,-19.27022926
18.2600,-19.31331766
18.2650,-19.3579297
18.2700,-19.40370152
18.2750,-19.45055739
18.2800,-19.49813806
18.2850,-19.54621962
18.2900,-19.5945198
18.2950,-19.6426479
18.3000,-19.69058535
18.3050,-19.73794919
18.3100,-19.78467441
18.3150,-19.83053882
18.3200,-19.87529772
18.3250,-19.91887466
18.3300,-19.96081475
18.3350,-20.00096397
18.3400,-20.03915555
18.3450,-20.07507558
18.3500,-20.10877474
18.3550,-20.1401864
18.3600,-20.1693035
18.3650,-20.19632917
18.3700,-20.22122273
18.3750,-20.2440561
18.3800,-20.26466509
18.3850,-20.2832131
18.3900,-20.29990313
18.3950,-20.31468582
18.4000,-20.32764775
18.4050,-20.33884691
18.4100,-20.34835578
18.4150,-20.35622603
18.4200,-20.36222442
18.4250,-20.36689946
18.4300,-20.37015977
18.4350,-20.37235142
18.4400,-20.37355784
18.4450,-20.3741398
18.4500,-20.37422788
18.4550,-20.37397862
18.4600,-20.37338698
18.4650,-20.37226918
18.4700,-20.37066412
18.4750,-20.36850138
18.4800,-20.36581571
18.4850,-20.36289944
18.4900,-20.36020198
18.4950,-20.35799337
18.5000,-20.35661933
18.5050,-20.35645718
18.5100,-20.35767289
18.5150,-20.36053132
18.5200,-20.36502093
18.5250,-20.37110225
18.5300,-20.3788848
18.5350,-20.38857847
18.5400,-20.40010363
18.5450,-20.41343704
18.5500,-20.42859124
18.5550,-20.44565619
18.5600,-20.46445768
18.5650,-20.48460845
18.5700,-20.50621679
18.5750,-20.52907069
18.5800,-20.5530183
18.5850,-20.57791234
18.5900,-20.6033841
18.5950,-20.6292359
18.6000,-20.6550519
18.6050,-20.68054058
18.6100,-20.70534413
18.6150,-20.72912099
18.6200,-20.75171514
18.6250,-20.7729612
18.6300,-20.79271558
18.6350,-20.81090865
18.6400,-20.82772724
18.6450,-20.84346238
18.6500,-20.8580682
18.6550,-20.87156929
18.6600,-20.88399227
18.6650,-20.89548155
18.6700,-20.90615295
18.6750,-20.91602395
18.6800,-20.9255607
18.6850,-20.93453869
18.6900,-20.9431561
18.6950,-20.95171722
18.7000,-20.96029642
18.7050,-20.96889446
18.7100,-20.97797084
18.7150,-20.98756462
18.7200,-20.99807396
18.7250,-21.00907354
18.7300,-21.02083759
18.7350,-21.0330322
18.7400,-21.0456448
18.7450,-21.05828416
18.7500,-21.07089034
18.7550,-21.08303923
18.7600,-21.09466414
18.7650,-21.10592347
18.7700,-21.11704376
18.7750,-21.12813786
18.7800,-21.13938767
18.7850,-21.15079162
18.7900,-21.16226332
18.7950,-21.17380413
18.8000,-21.18523828
18.8050,-21.19648801
18.8100,-21.20759294
18.8150,-21.21840045
18.8200,-21.22880106
18.8250,-21.2390889
18.8300,-21.24921141
18.8350,-21.2590576
18.8400,-21.26862662
18.8450,-21.2779422
18.8500,-21.28691003
18.8550,-21.29535905
18.8600,-21.30323017
18.8650,-21.31053377
18.8700,-21.31712789
18.8750,-21.32260852
18.8800,-21.32683852
18.8850,-21.32960243
18.8900,-21.33096736
18.8950,-21.330856
18.9000,-21.32916476
18.9050,-21.32588468
18.9100,-21.3209417
18.9150,-21.31446333
18.9200,-21.30648827
18.9250,-21.29679193
18.9300,-21.28564702
18.9350,-21.27286522
18.9400,-21.25819749
18.9450,-21.24134884
18.9500,-21.22247324
18.9550,-21.20142387
18.9600,-21.17840894
18.9650,-21.15323418
18.9700,-21.1258028
18.9750,-21.09631784
18.9800,-21.06449296
18.9850,-21.0305123
18.9900,-20.99437517
18.9950,-20.95565182
19.0000,-20.91437361
19.0050,-20.8707145
19.0100,-20.82403795
19.0150,-20.77432847
19.0200,-20.72134167
19.0250,-20.66517112
19.0300,-20.60552899
19.0350,-20.54242912
19.0400,-20.47575894
19.0450,-20.40547061
19.0500,-20.33147372
19.0550,-20.253934
19.0600,-20.17279969
19.0650,-20.08781079
19.0700,-19.99899449
19.0750,-19.90637196
19.0800,-19.80978413
19.0850,-19.70926285
19.0900,-19.60494226
19.0950,-19.49678205
19.1000,-19.38507574
19.1050,-19.2701049
19.1100,-19.15193375
19.1150,-19.03090336
19.1200,-18.90713821
19.1250,-18.78089488
19.1300,-18.65230563
19.1350,-18.52170213
19.1400,-18.38938343
19.1450,-18.25549318
19.1500,-18.12029373
19.1550,-17.98395065
19.1600,-17.8465783
19.1650,-17.70840995
19.1700,-17.5695891
19.1750,-17.43044427
19.1800,-17.29115668
19.1850,-17.15173799
19.1900,-17.01233905
19.1950,-16.87283787
19.2000,-16.7332841
19.2050,-16.59365823
19.2100,-16.45400431
19.2150,-16.314093
19.2200,-16.1741371
19.2250,-16.03415254
19.2300,-15.89406906
19.2350,-15.75409297
19.2400,-15.61439408
19.2450,-15.47512896
19.2500,-15.33630192
19.2550,-15.19797608
19.2600,-15.06030767
19.2650,-14.92314186
19.2700,-14.78663898
19.2750,-14.65073801
19.2800,-14.51521736
19.2850,-14.38037513
19.2900,-14.24598156
19.2950,-14.11244841
19.3000,-13.97950709
19.3050,-13.84707589
19.3100,-13.71548053
19.3150,-13.58436226
19.3200,-13.45385506
19.3250,-13.32381741
19.3300,-13.19441007
19.3350,-13.06555626
19.3400,-12.93721792
19.3450,-12.809255
19.3500,-12.68149468
19.3550,-12.5536157
19.3600,-12.42562881
19.3650,-12.29764223
19.3700,-12.16952764
19.3750,-12.04115457
19.3800,-11.91282357
19.3850,-11.78431026
19.3900,-11.65562096
19.3950,-11.52667607
19.4000,-11.3975013
19.4050,-11.26810201
19.4100,-11.13853025
19.4150,-11.00892069
19.4200,-10.87946358
19.4250,-10.74997182
19.4300,-10.62058741
19.4350,-10.49127727
19.4400,-10.3617077
19.4450,-10.23193016
19.4500,-10.10163981
19.4550,-9.970854215
19.4600,-9.839122853
19.4650,-9.706060002
19.4700,-9.571438216
19.4750,-9.435098447
19.4800,-9.296409435
19.4850,-9.155412431
19.4900,-9.011783577
19.4950,-8.865248988
19.5000,-8.715492751
19.5050,-8.562678523
19.5100,-8.406453962
19.5150,-8.246774669
19.5200,-8.083399617
19.5250,-7.916197902
19.5300,-7.74520949
19.5350,-7.570390939
19.5400,-7.391486285
19.5450,-7.208795555
19.5500,-7.02217847
19.5550,-6.832015922
19.5600,-6.637996946
19.5650,-6.440350057
19.5700,-6.238839505
19.5750,-6.033258403
19.5800,-5.823535185
19.5850,-5.609793563
19.5900,-5.391650162
19.5950,-5.169192877
19.6000,-4.942408577
19.6050,-4.711357989
19.6100,-4.475823715
19.6150,-4.235730001
19.6200,-3.990838492
19.6250,-3.741241192
19.6300,-3.486772887
19.6350,-3.2276986
19.6400,-2.963966532
19.6450,-2.696001597
19.6500,-2.423772562
19.6550,-2.147451161
19.6600,-1.867396577
19.6650,-1.583385884
19.6700,-1.295669978
19.6750,-1.004067702
19.6800,-0.7087900823
19.6850,-0.4101631557
19.6900,-0.1082885659
19.6950,0.1968478688
19.7000,0.5052279785
19.7050,0.8169886772
19.7100,1.131838721
19.7150,1.449959405
19.7200,1.771515963
19.7250,2.096371377
19.7300,2.424649898
19.7350,2.756494251
19.7400,3.091710294
19.7450,3.430344341
19.7500,3.77277037
19.7550,4.118949344
19.7600,4.468458201
19.7650,4.821221237
19.7700,5.177317923
19.7750,5.536714751
19.7800,5.899183952
19.7850,6.26490675
19.7900,6.633812288
19.7950,7.005503886
19.8000,7.379810838
19.8050,7.756989372
19.8100,8.137058165
19.8150,8.520011141
19.8200,8.905869444
19.8250,9.294617664
19.8300,9.686022964
19.8350,10.08029786
19.8400,10.47723727
19.8450,10.87706936
19.8500,11.2797978
19.8550,11.68565484
19.8600,12.09446812
19.8650,12.50666391
19.8700,12.92205186
19.8750,13.34027005
19.8800,13.76134485
19.8850,14.18573311
19.8900,14.61301469
19.8950,15.04341365
19.9000,15.47688108
19.9050,15.91315386
19.9100,16.35219411
19.9150,16.79391482
19.9200,17.23841474
19.9250,17.68501049
19.9300,18.13362669
19.9350,18.58456097
19.9400,19.03758608
19.9450,19.49284354
19.9500,19.9502251
19.9550,20.40949846
19.9600,20.87121276
19.9650,21.33496238
19.9700,21.80070456
19.9750,22.26816884
19.9800,22.73760533
19.9850,23.20895649
19.9900,23.68222525
19.9950,24.15744122
20.0000,24.6343868
20.0050,25.11308046
20.0100,25.59346387
20.0150,26.07554803
20.0200,26.55923987
20.0250,27.04444807
20.0300,27.53084392
20.0350,28.01849759
20.0400,28.50685856
20.0450,28.99626007
20.0500,29.48589066
20.0550,29.97586266
20.0600,30.46590734
20.0650,30.95572706
20.0700,31.44551675
20.0750,31.93506967
20.0800,32.42425203
20.0850,32.91266905
20.0900,33.40041623
20.0950,33.88732291
20.1000,34.37321744
20.1050,34.85805139
20.1100,35.34165147
20.1150,35.8237125
20.1200,36.30394499
20.1250,36.78216626
20.1300,37.25822755
20.1350,37.73222823
20.1400,38.20364693
20.1450,38.67243546
20.1500,39.13812777
20.1550,39.60083143
20.1600,40.06051168
20.1650,40.5166496
20.1700,40.96936909
20.1750,41.41887307
20.1800,41.86479079
20.1850,42.30716984
20.1900,42.74596631
20.1950,43.18087683
20.2000,43.61226888
20.2050,44.03999653
20.2100,44.46449899
20.2150,44.88566446
20.2200,45.30374096
20.2250,45.71878461
20.2300,46.13062937
20.2350,46.53935945
20.2400,46.94469522
20.2450,47.34660593
20.2500,47.74489823
20.2550,48.13985017
20.2600,48.53116297
20.2650,48.91907052
20.2700,49.30356773
20.2750,49.68476994
20.2800,50.06219777
20.2850,50.43640226
20.2900,50.80741334
20.2950,51.17487238
20.3000,51.53861359
20.3050,51.8986146
20.3100,52.2546632
20.3150,52.60667978
20.3200,52.95440221
20.3250,53.29777129
20.3300,53.63677365
20.3350,53.97152259
20.3400,54.30203801
20.3450,54.62855479
20.3500,54.95097472
20.3550,55.26892994
20.3600,55.58253471
20.3650,55.89175692
20.3700,56.19609516
20.3750,56.4959438
20.3800,56.79084835
20.3850,57.08100503
20.3900,57.366716
20.3950,57.64848913
20.4000,57.92645221
20.4050,58.20047705
20.4100,58.47046693
20.4150,58.73638693
20.4200,58.99888483
20.4250,59.25788142
20.4300,59.51347714
20.4350,59.76545136
20.4400,60.01431528
20.4450,60.25991397
20.4500,60.50277313
20.4550,60.74259283
20.4600,60.97951511
20.4650,61.21355601
20.4700,61.44481158
20.4750,61.67329172
20.4800,61.89938614
20.4850,62.12302784
20.4900,62.34397621
20.4950,62.56290511
20.5000,62.77939962
20.5050,62.99403091
20.5100,63.20648849
20.5150,63.41718802
20.5200,63.62591463
20.5250,63.83304042
20.5300,64.03840608
20.5350,64.24208134
20.5400,64.44439252
20.5450,64.64559319
20.5500,64.84581738
20.5550,65.04510009
20.5600,65.24306988
20.5650,65.43939753
20.5700,65.63376937
20.5750,65.82542604
20.5800,66.014638
20.5850,66.20059004
20.5900,66.38293516
20.5950,66.56189351
20.6000,66.73749284
20.6050,66.90953697
20.6100,67.07852822
20.6150,67.24427146
20.6200,67.40691533
20.6250,67.56645427
20.6300,67.72320269
20.6350,67.87692834
20.6400,68.02816131
20.6450,68.17714854
20.6500,68.32435471
20.6550,68.4703827
20.6600,68.61520953
20.6650,68.75935657
20.6700,68.90364155
20.6750,69.04815821
20.6800,69.19310617
20.6850,69.33828031
20.6900,69.48330364
20.6950,69.62755406
20.7000,69.7706716
20.7050,69.91264295
20.7100,70.05313739
20.7150,70.1922639
20.7200,70.32999799
20.7250,70.46648296
20.7300,70.60191411
20.7350,70.73650984
20.7400,70.86989621
20.7450,71.00169956
20.7500,71.13170828
20.7550,71.25966265
20.7600,71.38591219
20.7650,71.51068688
20.7700,71.63409811
20.7750,71.75603671
20.7800,71.87658765
20.7850,71.99618526
20.7900,72.1148502
20.7950,72.23271327
20.8000,72.34985459
20.8050,72.46675455
20.8100,72.58366328
20.8150,72.70041741
20.8200,72.81746211
20.8250,72.93451178
20.8300,73.05165394
20.8350,73.16890605
20.8400,73.28637598
20.8450,73.40346475
20.8500,73.52010274
20.8550,73.63581471
20.8600,73.75079122
20.8650,73.86523401
20.8700,73.97897959
20.8750,74.09259088
20.8800,74.20573833
20.8850,74.3184516
20.8900,74.43074509
20.8950,74.54218797
20.9000,74.65253959
20.9050,74.7614714
20.9100,74.86901802
20.9150,74.97484455
20.9200,75.07917559
20.9250,75.18180896
20.9300,75.28258677
20.9350,75.38156208
20.9400,75.47840023
20.9450,75.57301209
20.9500,75.6650864
20.9550,75.75449236
20.9600,75.84148157
20.9650,75.92593742
20.9700,76.00757156
20.9750,76.08684088
20.9800,76.1638738
20.9850,76.2389477
20.9900,76.31206009
20.9950,76.383813
21.0000,76.45462208
21.0050,76.52455939
21.0100,76.59396403
21.0150,76.66272482
21.0200,76.73079105
21.0250,76.79819291
21.0300,76.86459935
21.0350,76.93025886
21.0400,76.99551109
21.0450,77.06055787
21.0500,77.12587812
21.0550,77.19180977
21.0600,77.25795406
21.0650,77.32429903
21.0700,77.390882
21.0750,77.45790359
21.0800,77.52532278
21.0850,77.59333702
21.0900,77.66215933
21.0950,77.73185505
21.1000,77.80274451
21.1050,77.87436756
21.1100,77.94687209
21.1150,78.01981491
21.1200,78.09296337
21.1250,78.16673058
21.1300,78.24147678
21.1350,78.31719756
21.1400,78.39369595
21.1450,78.47151185
21.1500,78.55089828
21.1550,78.63187848
21.1600,78.71467167
21.1650,78.79892994
21.1700,78.88504855
21.1750,78.9727696
21.1800,79.06207689
21.1850,79.15262483
21.1900,79.24399222
21.1950,79.33641938
21.2000,79.42971753
21.2050,79.52361807
21.2100,79.61756475
21.2150,79.71174147
21.2200,79.80659635
21.2250,79.90234887
21.2300,79.99879966
21.2350,80.09559283
21.2400,80.1926672
21.2450,80.28996069
21.2500,80.38785793
21.2550,80.48641794
21.2600,80.58584926
21.2650,80.6859107
21.2700,80.78614707
21.2750,80.8860181
21.2800,80.98537326
21.2850,81.08428137
21.2900,81.18322007
21.2950,81.28189151
21.3000,81.38003016
21.3050,81.47716595
21.3100,81.5728084
21.3150,81.66672751
21.3200,81.75846587
21.3250,81.84785569
21.3300,81.93511027
21.3350,82.02026118
21.3400,82.103051
21.3450,82.18350328
21.3500,82.2614102
21.3550,82.33665907
21.3600,82.40944799
21.3650,82.48030346
21.3700,82.54930852
21.3750,82.61660343
21.3800,82.68213792
21.3850,82.74619894
21.3900,82.80894026
21.3950,82.87053985
21.4000,82.93103648
21.4050,82.99062132
21.4100,83.04913785
21.4150,83.10681127
21.4200,83.16364857
21.4250,83.2194163
21.4300,83.27411535
21.4350,83.32741826
21.4400,83.37956215
21.4450,83.43030367
21.4500,83.4792605
21.4550,83.52633994
21.4600,83.57112746
21.4650,83.61370857
21.4700,83.65371175
21.4750,83.69136926
21.4800,83.72672334
21.4850,83.75987305
21.4900,83.79133467
21.4950,83.82104249
21.5000,83.84903631
21.5050,83.87545695
21.5100,83.90077997
21.5150,83.9249043
21.5200,83.94766438
21.5250,83.9687959
21.5300,83.98854818
21.5350,84.00735272
21.5400,84.02527533
21.5450,84.04243417
21.5500,84.05876905
21.5550,84.07401731
21.5600,84.08799383
21.5650,84.10064014
21.5700,84.11281889
21.5750,84.12472277
21.5800,84.13638364
21.5850,84.14747983
21.5900,84.15748784
21.5950,84.16623323
21.6000,84.17372932
21.6050,84.18033898
21.6100,84.18606421
21.6150,84.19104748
21.6200,84.19548687
21.6250,84.19935752
21.6300,84.20222934
21.6350,84.20366885
21.6400,84.20395815
21.6450,84.20334723
21.6500,84.2018176
21.6550,84.19933978
21.6600,84.19640147
21.6650,84.19255645
21.6700,84.18804322
21.6750,84.182634
21.6800,84.17649793
21.6850,84.16935598
21.6900,84.16106797
21.6950,84.15187758
21.7000,84.14160111
21.7050,84.13052152
21.7100,84.11831101
21.7150,84.10517922
21.7200,84.09119486
21.7250,84.07628251
21.7300,84.06023098
21.7350,84.0433135
21.7400,84.02561701
21.7450,84.00681154
21.7500,83.98701433
21.7550,83.96596464
21.7600,83.94358073
21.7650,83.91991572
21.7700,83.89492939
21.7750,83.86840413
21.7800,83.84000172
21.7850,83.80992024
21.7900,83.77817595
21.7950,83.74480125
21.8000,83.71005222
21.8050,83.6739777
21.8100,83.63656658
21.8150,83.59796998
21.8200,83.55779665
21.8250,83.51617774
21.8300,83.47286596
21.8350,83.42758211
21.8400,83.38048809
21.8450,83.33155431
21.8500,83.28056072
21.8550,83.22782264
21.8600,83.17324478
21.8650,83.11714775
21.8700,83.05896358
21.8750,82.99832058
21.8800,82.93546438
21.8850,82.87075024
21.8900,82.80442434
21.8950,82.73622713
21.9000,82.66588556
21.9050,82.59302953
21.9100,82.51739996
21.9150,82.43875203
21.9200,82.35703316
21.9250,82.27182517
21.9300,82.18323493
21.9350,82.09148878
21.9400,81.99665304
21.9450,81.89852033
21.9500,81.79718348
21.9550,81.69303504
21.9600,81.5856006
21.9650,81.47508187
21.9700,81.3612449
21.9750,81.24426744
21.9800,81.12414084
21.9850,81.00100619
21.9900,80.87503654
21.9950,80.74586237
22.0000,80.61361256
22.0050,80.47788041
22.0100,80.33855545
22.0150,80.19557395
22.0200,80.04869011
22.0250,79.89783305
22.0300,79.74319031
22.0350,79.58486103
22.0400,79.42279683
22.0450,79.25709626
22.0500,79.08771474
22.0550,78.91489981
22.0600,78.73904725
22.0650,78.56013338
22.0700,78.37829863
22.0750,78.19308164
22.0800,78.00460034
22.0850,77.81278514
22.0900,77.6174263
22.0950,77.41872868
22.1000,77.21651115
22.1050,77.01087775
22.1100,76.80168814
22.1150,76.58864108
22.1200,76.37182872
22.1250,76.1512075
22.1300,75.9272894
22.1350,75.70029032
22.1400,75.47010275
22.1450,75.23675309
22.1500,75.00049761
22.1550,74.76152517
22.1600,74.51980693
22.1650,74.27511243
22.1700,74.02739019
22.1750,73.77708784
22.1800,73.52403999
22.1850,73.26788612
22.1900,73.00836459
22.1950,72.74557451
22.2000,72.47945714
22.2050,72.20978492
22.2100,71.93738779
22.2150,71.66211549
22.2200,71.3843309
22.2250,71.10438968
22.2300,70.8221767
22.2350,70.53737976
22.2400,70.24912877
22.2450,69.95721669
22.2500,69.6614634
22.2550,69.36111542
22.2600,69.05633505
22.2650,68.7468142
22.2700,68.43235645
22.2750,68.11311868
22.2800,67.7893365
22.2850,67.46075086
22.2900,67.12717599
22.2950,66.78891149
22.3000,66.44617505
22.3050,66.09872936
22.3100,65.74726111
22.3150,65.39138661
22.3200,65.03090114
22.3250,64.66580649
22.3300,64.29589595
22.3350,63.92085627
22.3400,63.53989919
22.3450,63.15286227
22.3500,62.75941722
22.3550,62.35940801
22.3600,61.95229719
22.3650,61.53815923
22.3700,61.11681382
22.3750,60.68825971
22.3800,60.25276362
22.3850,59.81057806
22.3900,59.36147569
22.3950,58.90513915
22.4000,58.44170456
22.4050,57.97118181
22.4100,57.49366878
22.4150,57.00903458
22.4200,56.517526
22.4250,56.01887349
22.4300,55.51317393
22.4350,55.00089825
22.4400,54.48180348
22.4450,53.95584118
22.4500,53.42302329
22.4550,52.88293862
22.4600,52.3362274
22.4650,51.78305107
22.4700,51.22376274
22.4750,50.65794995
22.4800,50.08622578
22.4850,49.50862096
22.4900,48.92504744
22.4950,48.33607014
22.5000,47.74182417
22.5050,47.14258795
22.5100,46.53784924
22.5150,45.9283992
22.5200,45.31395942
22.5250,44.69469636
22.5300,44.07123051
22.5350,43.44352053
22.5400,42.81212977
22.5450,42.17747306
22.5500,41.53966723
22.5550,40.899469
22.5600,40.25700557
22.5650,39.61263345
22.5700,38.96669183
22.5750,38.31937535
22.5800,37.67051238
22.5850,37.02080438
22.5900,36.37050212
22.5950,35.71937417
22.6000,35.06776318
22.6050,34.41639104
22.6100,33.76527154
22.6150,33.11463577
22.6200,32.46515831
22.6250,31.81721078
22.6300,31.17110286
22.6350,30.52683907
22.6400,29.88538253
22.6450,29.24721052
22.6500,28.61282873
22.6550,27.98201932
22.6600,27.35550545
22.6650,26.73344147
22.6700,26.11570463
22.6750,25.50299183
22.6800,24.89518814
22.6850,24.29204028
22.6900,23.69455886
22.6950,23.10287626
22.7000,22.51695471
22.7050,21.93716379
22.7100,21.36380765
22.7150,20.79711745
22.7200,20.23723445
22.7250,19.68421797
22.7300,19.13818407
22.7350,18.59880666
22.7400,18.06659643
22.7450,17.54161684
22.7500,17.02394956
22.7550,16.51361982
22.7600,16.01072542
22.7650,15.51507445
22.7700,15.02676768
22.7750,14.54618562
22.7800,14.07289992
22.7850,13.60663438
22.7900,13.14791872
22.7950,12.69624571
22.8000,12.25165595
22.8050,11.81354769
22.8100,11.38220345
22.8150,10.95729767
22.8200,10.53883049
22.8250,10.1265156
22.8300,9.720275902
22.8350,9.319930624
22.8400,8.925389225
22.8450,8.536277079
22.8500,8.152029563
22.8550,7.772722468
22.8600,7.398284407
22.8650,7.028809483
22.8700,6.664095972
22.8750,6.30392704
22.8800,5.947864116
22.8850,5.595551385
22.8900,5.246596635
22.8950,4.90076588
22.9000,4.557717609
22.9050,4.217378991
22.9100,3.879965275
22.9150,3.54579082
22.9200,3.214891117
22.9250,2.887050166
22.9300,2.562345898
22.9350,2.240733513
22.9400,1.921905885
22.9450,1.605585947
22.9500,1.291497309
22.9550,0.9803125306
22.9600,0.6716445322
22.9650,0.3655698363
22.9700,0.06215227546
22.9750,-0.2386387488
22.9800,-0.5371755776
22.9850,-0.8332651003
22.9900,-1.127361736
22.9950,-1.419595569
23.0000,-1.709643487
23.0050,-1.997509684
23.0100,-2.283078067
23.0150,-2.566067224
23.0200,-2.846425663
23.0250,-3.123985251
23.0300,-3.398588753
23.0350,-3.670334363
23.0400,-3.938891092
23.0450,-4.204551806
23.0500,-4.467056988
23.0550,-4.726197368
23.0600,-4.982020908
23.0650,-5.234259168
23.0700,-5.483027517
23.0750,-5.728495131
23.0800,-5.970537352
23.0850,-6.208824137
23.0900,-6.443342884
23.0950,-6.673968984
23.1000,-6.900867308
23.1050,-7.123748532
23.1100,-7.342813404
23.1150,-7.558379573
23.1200,-7.770199169
23.1250,-7.978360306
23.1300,-8.182953797
23.1350,-8.383788399
23.1400,-8.580909418
23.1450,-8.774133709
23.1500,-8.963060336
23.1550,-9.148069491
23.1600,-9.329204993
23.1650,-9.506429928
23.1700,-9.67980156
23.1750,-9.849372264
23.1800,-10.01512548
23.1850,-10.17711272
23.1900,-10.33513581
23.1950,-10.48938144
23.2000,-10.63997927
23.2050,-10.78697186
23.2100,-10.93089193
23.2150,-11.07169933
23.2200,-11.20946279
23.2250,-11.34435978
23.2300,-11.47636392
23.2350,-11.6058539
23.2400,-11.73304303
23.2450,-11.85774
23.2500,-11.98014103
23.2550,-12.10081032
23.2600,-12.21971173
23.2650,-12.33694609
23.2700,-12.45263818
23.2750,-12.56684928
23.2800,-12.67907426
23.2850,-12.78945683
23.2900,-12.89798125
23.2950,-13.00461229
23.3000,-13.10940845
23.3050,-13.2123402
23.3100,-13.31352731
23.3150,-13.41326278
23.3200,-13.5115255
23.3250,-13.60849455
23.3300,-13.70417071
23.3350,-13.79847262
23.3400,-13.89211732
23.3450,-13.98472931
23.3500,-14.07651825
23.3550,-14.16757114
23.3600,-14.25764021
23.3650,-14.34655815
23.3700,-14.43421643
23.3750,-14.52053243
23.3800,-14.60542964
23.3850,-14.68898539
23.3900,-14.77136416
23.3950,-14.85251189
23.4000,-14.93248383
23.4050,-15.01111505
23.4100,-15.08855748
23.4150,-15.16477717
23.4200,-15.23955698
23.4250,-15.3128841
23.4300,-15.38433249
23.4350,-15.45393478
23.4400,-15.52130883
23.4450,-15.58643716
23.4500,-15.6496165
23.4550,-15.71054364
23.4600,-15.76932541
23.4650,-15.82625852
23.4700,-15.8815463
23.4750,-15.93523192
23.4800,-15.98738496
23.4850,-16.03821093
23.4900,-16.08770967
23.4950,-16.13565996
23.5000,-16.18197864
23.5050,-16.22655048
23.5100,-16.26917213
23.5150,-16.30985974
23.5200,-16.34864606
23.5250,-16.38534126
23.5300,-16.42005222
23.5350,-16.45268448
23.5400,-16.48299495
23.5450,-16.51111002
23.5500,-16.53682805
23.5550,-16.56021136
23.5600,-16.5811579
23.5650,-16.59989381
23.5700,-16.61622059
23.5750,-16.63028418
23.5800,-16.64201671
23.5850,-16.65140004
23.5900,-16.65853369
23.5950,-16.66338153
23.6000,-16.66621381
23.6050,-16.66717676
23.6100,-16.66667991
23.6150,-16.66471837
23.6200,-16.66154841
23.6250,-16.65729188
23.6300,-16.65230745
23.6350,-16.64669109
23.6400,-16.64029285
23.6450,-16.63342166
23.6500,-16.62627793
23.6550,-16.61865189
23.6600,-16.6106487
23.6650,-16.60254455
23.6700,-16.59425512
23.6750,-16.58592904
23.6800,-16.57775738
23.6850,-16.56983576
23.6900,-16.5624014
23.6950,-16.55557273
23.7000,-16.54962309
23.7050,-16.54477912
23.7100,-16.54112144
23.7150,-16.53843949
23.7200,-16.53712596
23.7250,-16.5368311
23.7300,-16.53800147
23.7350,-16.54054855
23.7400,-16.54474537
23.7450,-16.55051379
23.7500,-16.55776922
23.7550,-16.56660532
23.7600,-16.57702424
23.7650,-16.5889922
23.7700,-16.60243503
23.7750,-16.61728617
23.7800,-16.63348686
23.7850,-16.6507993
23.7900,-16.66891126
23.7950,-16.68756822
23.8000,-16.70655062
23.8050,-16.72582071
23.8100,-16.74480493
23.8150,-16.7632675
23.8200,-16.78114232
23.8250,-16.79813567
23.8300,-16.81418391
23.8350,-16.82913045
23.8400,-16.84304053
23.8450,-16.85595125
23.8500,-16.86793336
23.8550,-16.87897673
23.8600,-16.8889034
23.8650,-16.89749879
23.8700,-16.90490458
23.8750,-16.91074899
23.8800,-16.91505524
23.8850,-16.91766631
23.8900,-16.91851855
23.8950,-16.91749766
23.9000,-16.91447788
23.9050,-16.90951017
23.9100,-16.90215135
23.9150,-16.89269595
23.9200,-16.88071276
23.9250,-16.86623646
23.9300,-16.84890889
23.9350,-16.82871571
23.9400,-16.80550251
23.9450,-16.77901062
23.9500,-16.74894524
23.9550,-16.71566333
23.9600,-16.6790494
23.9650,-16.63937383
23.9700,-16.59694607
23.9750,-16.55207078
23.9800,-16.50496318
23.9850,-16.45622634
23.9900,-16.40626703
23.9950,-16.35552388
24.0000,-16.30410209
24.0050,-16.25263544
24.0100,-16.20133026
24.0150,-16.15067104
24.0200,-16.10092105
24.0250,-16.05265735
24.0300,-16.00621561
24.0350,-15.96209209
24.0400,-15.92057571
24.0450,-15.88185629
24.0500,-15.84630588
24.0550,-15.81398554
24.0600,-15.78486099
24.0650,-15.75888946
24.0700,-15.73561686
24.0750,-15.71503755
24.0800,-15.69644109
24.0850,-15.67964403
24.0900,-15.66437084
24.0950,-15.65023864
24.1000,-15.6369544
24.1050,-15.62424229
24.1100,-15.61201573
24.1150,-15.6001625
24.1200,-15.58836898
24.1250,-15.57694478
24.1300,-15.56587784
24.1350,-15.5550598
24.1400,-15.54445567
24.1450,-15.53382109
24.1500,-15.52317525
24.1550,-15.51245489
24.1600,-15.50209305
24.1650,-15.49208592
24.1700,-15.48256349
24.1750,-15.47388403
24.1800,-15.46623696
24.1850,-15.45968797
24.1900,-15.45420095
24.1950,-15.44997938
24.2000,-15.44700487
24.2050,-15.44492939
24.2100,-15.44378088
24.2150,-15.44311449
24.2200,-15.443016
24.2250,-15.4431949
24.2300,-15.44360586
24.2350,-15.4438718
24.2400,-15.44403951
24.2450,-15.44408853
24.2500,-15.44429301
24.2550,-15.44446472
24.2600,-15.44492576
24.2650,-15.44549048
24.2700,-15.44622837
24.2750,-15.44689017
24.2800,-15.44762127
24.2850,-15.44807515
24.2900,-15.44825281
24.2950,-15.44809994
24.3000,-15.44772853
24.3050,-15.44693338
24.3100,-15.44573506
24.3150,-15.44406591
24.3200,-15.4418008
24.3250,-15.43877233
24.3300,-15.43471072
24.3350,-15.42942379
24.3400,-15.42284142
24.3450,-15.4148774
24.3500,-15.4052503
24.3550,-15.39391504
24.3600,-15.38089205
24.3650,-15.36611289
24.3700,-15.34979721
24.3750,-15.33198225
24.3800,-15.31301762
24.3850,-15.29308519
24.3900,-15.27241781
24.3950,-15.25134301
24.4000,-15.22995268
24.4050,-15.20834935
24.4100,-15.18691364
24.4150,-15.16563157
24.4200,-15.14487595
24.4250,-15.1243598
24.4300,-15.10431145
24.4350,-15.08479523
24.4400,-15.066134
24.4450,-15.04859029
24.4500,-15.03247808
24.4550,-15.01789989
24.4600,-15.00492739
24.4650,-14.99389386
24.4700,-14.98476103
24.4750,-14.97746274
24.4800,-14.97183706
24.4850,-14.96809829
24.4900,-14.96627284
24.4950,-14.96624315
24.5000,-14.96781499
24.5050,-14.97107595
24.5100,-14.97599191
24.5150,-14.98280274
24.5200,-14.99137058
24.5250,-15.00165819
24.5300,-15.01356095
24.5350,-15.0270028
24.5400,-15.0415996
24.5450,-15.05726999
24.5500,-15.07363162
24.5550,-15.09038382
24.5600,-15.107374
24.5650,-15.12440277
24.5700,-15.1412983
24.5750,-15.15803481
24.5800,-15.17466648
24.5850,-15.19125973
24.5900,-15.20780191
24.5950,-15.22419097
24.6000,-15.2401172
24.6050,-15.25530896
24.6100,-15.26962063
24.6150,-15.2829445
24.6200,-15.29513461
24.6250,-15.3063114
24.6300,-15.31640151
24.6350,-15.32520048
24.6400,-15.33286305
24.6450,-15.33950901
24.6500,-15.34498396
24.6550,-15.3493013
24.6600,-15.35248499
24.6650,-15.35420156
24.6700,-15.35448532
24.6750,-15.35301156
24.6800,-15.34971242
24.6850,-15.34440238
24.6900,-15.33677561
24.6950,-15.32671464
24.7000,-15.31437864
24.7050,-15.29951306
24.7100,-15.28199613
24.7150,-15.26181173
24.7200,-15.23851484
24.7250,-15.21213937
24.7300,-15.18247812
24.7350,-15.14937153
24.7400,-15.11279562
24.7450,-15.07266653
24.7500,-15.0288654
24.7550,-14.98154019
24.7600,-14.93048135
24.7650,-14.87578265
24.7700,-14.81759736
24.7750,-14.75602808
24.7800,-14.69131615
24.7850,-14.62364555
24.7900,-14.55308165
24.7950,-14.47979874
24.8000,-14.40426885
24.8050,-14.32657074
24.8100,-14.24695309
24.8150,-14.16561767
24.8200,-14.08264832
24.8250,-13.99815927
24.8300,-13.9124724
24.8350,-13.82585224
24.8400,-13.73851677
24.8450,-13.65068761
24.8500,-13.56254271
24.8550,-13.47424548
24.8600,-13.38597742
24.8650,-13.29780076
24.8700,-13.20977457
24.8750,-13.121838
24.8800,-13.03387621
24.8850,-12.94575086
24.8900,-12.85727269
24.8950,-12.76829642
24.9000,-12.67887032
24.9050,-12.58925977
24.9100,-12.49938492
24.9150,-12.40940972
24.9200,-12.31939631
24.9250,-12.22902412
24.9300,-12.13845684
24.9350,-12.04762566
24.9400,-11.95618509
24.9450,-11.86416635
24.9500,-11.77135231
24.9550,-11.67748684
24.9600,-11.58257667
24.9650,-11.48698152
24.9700,-11.39022684
24.9750,-11.2926842
24.9800,-11.1945859
24.9850,-11.09587363
24.9900,-10.99675835
24.9950,-10.89716106
25.0000,-10.79663796
25.0050,-10.69523826
25.0100,-10.59269778
25.0150,-10.48893921
25.0200,-10.38411771
25.0250,-10.27822977
25.0300,-10.17126973
25.0350,-10.06329866
25.0400,-9.954161002
25.0450,-9.843836095
25.0500,-9.732229991
25.0550,-9.619288503
25.0600,-9.505023291
25.0650,-9.389564555
25.0700,-9.272750201
25.0750,-9.154811952
25.0800,-9.03583328
25.0850,-8.915533241
25.0900,-8.794092666
25.0950,-8.67150153
25.1000,-8.547647444
25.1050,-8.422741323
25.1100,-8.296707812
25.1150,-8.16918291
25.1200,-8.040328924
25.1250,-7.910254925
25.1300,-7.778917765
25.1350,-7.646128458
25.1400,-7.511891567
25.1450,-7.375945333
25.1500,-7.238485603
25.1550,-7.099396371
25.1600,-6.958248925
25.1650,-6.815037769
25.1700,-6.669705857
25.1750,-6.522153877
25.1800,-6.371978426
25.1850,-6.219202763
25.1900,-6.063748458
25.1950,-5.905533777
25.2000,-5.74464933
25.2050,-5.580591571
25.2100,-5.413169421
25.2150,-5.242062239
25.2200,-5.066787398
25.2250,-4.887217534
25.2300,-4.702359209
25.2350,-4.511923225
25.2400,-4.315562018
25.2450,-4.112254781
25.2500,-3.901892989
25.2550,-3.684077373
25.2600,-3.457879028
25.2650,-3.222278321
25.2700,-2.976719339
25.2750,-2.719738459
25.2800,-2.449885359
25.2850,-2.1656213
25.2900,-1.865687372
25.2950,-1.548420806
25.3000,-1.212683163
25.3050,-0.8569611584
25.3100,-0.4803116627
25.3150,-0.3334208382
25.3200,-0.1718606093
25.3250,0.004089419815
25.3300,0.1938915093
25.3350,0.3967817518
25.3400,0.6117942915
25.3450,0.8377776263
25.3500,1.073404453
25.3550,1.317177725
25.3600,1.567435823
25.3650,1.822357562
25.3700,2.079967058
25.3750,2.338140783
25.3800,2.59462092
25.3850,2.84703799
25.3900,3.092942582
25.3950,3.329845591
25.4000,3.555267045
25.4050,3.766792299
25.4100,3.962135478
25.4150,4.139212458
25.4200,4.296225137
25.4250,4.431758082
25.4300,4.544888847
25.4350,4.635311658
