type,name,time_units,begin_time,frequency,count,units
signal_3d,"Noraxon MyoMotion-Segments-Upper arm RT-Sensor Acceleration","s",0.0000,200,5108,"mG"

time,x,y,z
0.0000,970.2148438,-59.08203125,-197.265625
0.0050,970.703125,-55.17578125,-211.4257813
0.0100,966.3085938,-55.17578125,-196.7773438
0.0150,970.703125,-49.8046875,-208.0078125
0.0200,971.1914063,-45.41015625,-200.6835938
0.0250,962.4023438,-54.6875,-205.5664063
0.0300,976.0742188,-47.8515625,-208.0078125
0.0350,967.7734375,-50.78125,-215.8203125
0.0400,973.6328125,-50.78125,-203.125
0.0450,977.0507813,-53.22265625,-207.5195313
0.0500,974.1210938,-60.05859375,-211.9140625
0.0550,974.1210938,-57.6171875,-202.1484375
0.0600,973.1445313,-58.59375,-204.1015625
0.0650,979.4921875,-59.08203125,-202.6367188
0.0700,977.5390625,-53.7109375,-202.1484375
0.0750,979.0039063,-54.19921875,-208.4960938
0.0800,973.1445313,-60.05859375,-203.6132813
0.0850,973.6328125,-56.640625,-210.9375
0.0900,980.46875,-51.7578125,-199.21875
0.0950,973.6328125,-59.08203125,-213.8671875
0.1000,974.609375,-51.26953125,-201.6601563
0.1050,970.703125,-51.7578125,-222.65625
0.1100,967.2851563,-57.6171875,-214.3554688
0.1150,973.6328125,-57.6171875,-212.4023438
0.1200,966.3085938,-58.10546875,-210.9375
0.1250,970.2148438,-60.05859375,-221.6796875
0.1300,973.6328125,-58.10546875,-215.8203125
0.1350,968.2617188,-71.2890625,-219.2382813
0.1400,973.6328125,-62.98828125,-216.796875
0.1450,975.0976563,-61.03515625,-218.75
0.1500,974.609375,-57.12890625,-219.7265625
0.1550,969.2382813,-65.4296875,-216.3085938
0.1600,972.65625,-54.19921875,-216.796875
0.1650,971.1914063,-57.6171875,-210.9375
0.1700,966.796875,-61.5234375,-217.2851563
0.1750,972.65625,-55.17578125,-218.2617188
0.1800,964.84375,-59.08203125,-211.4257813
0.1850,971.1914063,-58.10546875,-213.3789063
0.1900,967.2851563,-52.24609375,-205.078125
0.1950,968.2617188,-60.05859375,-218.2617188
0.2000,963.8671875,-63.4765625,-221.1914063
0.2050,970.2148438,-61.5234375,-214.3554688
0.2100,968.75,-62.98828125,-226.5625
0.2150,971.6796875,-63.4765625,-203.125
0.2200,969.2382813,-62.01171875,-210.9375
0.2250,972.65625,-62.98828125,-208.0078125
0.2300,967.7734375,-66.89453125,-214.84375
0.2350,970.2148438,-61.03515625,-207.5195313
0.2400,970.703125,-59.08203125,-215.3320313
0.2450,975.0976563,-59.08203125,-213.8671875
0.2500,972.1679688,-64.453125,-207.5195313
0.2550,978.0273438,-60.05859375,-213.8671875
0.2600,967.7734375,-73.2421875,-217.2851563
0.2650,975.5859375,-57.6171875,-209.4726563
0.2700,976.0742188,-62.01171875,-221.6796875
0.2750,972.65625,-71.2890625,-217.7734375
0.2800,974.609375,-57.12890625,-211.4257813
0.2850,967.2851563,-64.453125,-209.4726563
0.2900,976.5625,-56.15234375,-219.7265625
0.2950,975.0976563,-60.546875,-208.4960938
0.3000,976.0742188,-55.17578125,-219.7265625
0.3050,976.0742188,-62.98828125,-215.3320313
0.3100,975.0976563,-63.96484375,-223.1445313
0.3150,985.8398438,-63.96484375,-210.4492188
0.3200,981.4453125,-69.82421875,-206.5429688
0.3250,981.4453125,-69.82421875,-210.4492188
0.3300,991.6992188,-54.6875,-209.9609375
0.3350,973.6328125,-66.89453125,-215.3320313
0.3400,972.1679688,-55.6640625,-212.890625
0.3450,968.75,-60.05859375,-194.3359375
0.3500,974.1210938,-53.22265625,-207.5195313
0.3550,967.2851563,-59.5703125,-224.1210938
0.3600,963.3789063,-54.19921875,-212.4023438
0.3650,966.3085938,-54.6875,-225.5859375
0.3700,962.890625,-59.08203125,-217.2851563
0.3750,964.3554688,-54.19921875,-211.4257813
0.3800,951.171875,-62.98828125,-223.1445313
0.3850,959.9609375,-57.6171875,-219.2382813
0.3900,968.2617188,-53.7109375,-223.1445313
0.3950,963.3789063,-57.12890625,-220.2148438
0.4000,972.1679688,-55.17578125,-230.46875
0.4050,969.7265625,-64.453125,-238.7695313
0.4100,978.515625,-66.89453125,-220.703125
0.4150,979.0039063,-77.1484375,-247.5585938
0.4200,983.3984375,-71.77734375,-225.0976563
0.4250,981.4453125,-70.80078125,-230.9570313
0.4300,978.515625,-70.3125,-226.5625
0.4350,972.1679688,-72.75390625,-218.2617188
0.4400,977.0507813,-61.03515625,-218.2617188
0.4450,976.5625,-59.5703125,-221.1914063
0.4500,969.7265625,-55.6640625,-218.2617188
0.4550,965.8203125,-63.4765625,-216.3085938
0.4600,966.3085938,-50.78125,-219.2382813
0.4650,969.2382813,-51.7578125,-219.2382813
0.4700,956.5429688,-61.03515625,-228.0273438
0.4750,958.984375,-60.05859375,-228.515625
0.4800,960.9375,-57.12890625,-219.7265625
0.4850,970.2148438,-61.03515625,-210.9375
0.4900,974.609375,-56.640625,-221.6796875
0.4950,978.0273438,-60.05859375,-222.65625
0.5000,981.4453125,-61.03515625,-218.2617188
0.5050,975.5859375,-61.5234375,-206.0546875
0.5100,972.1679688,-59.5703125,-207.03125
0.5150,968.75,-62.5,-227.5390625
0.5200,978.515625,-47.36328125,-213.8671875
0.5250,974.1210938,-55.6640625,-204.1015625
0.5300,968.2617188,-50.29296875,-229.0039063
0.5350,973.6328125,-49.31640625,-222.65625
0.5400,964.3554688,-54.6875,-233.3984375
0.5450,974.609375,-53.7109375,-225.0976563
0.5500,966.3085938,-59.08203125,-229.9804688
0.5550,977.0507813,-57.6171875,-221.6796875
0.5600,979.0039063,-53.7109375,-230.46875
0.5650,976.5625,-58.59375,-224.609375
0.5700,976.5625,-64.94140625,-223.1445313
0.5750,980.9570313,-60.546875,-230.46875
0.5800,976.5625,-64.94140625,-216.3085938
0.5850,982.421875,-63.4765625,-223.1445313
0.5900,979.4921875,-65.4296875,-217.2851563
0.5950,970.703125,-71.2890625,-226.5625
0.6000,970.703125,-60.05859375,-218.75
0.6050,971.1914063,-52.734375,-224.1210938
0.6100,973.6328125,-49.8046875,-223.1445313
0.6150,970.703125,-49.31640625,-216.796875
0.6200,966.3085938,-46.875,-227.5390625
0.6250,968.2617188,-48.33984375,-228.0273438
0.6300,965.8203125,-47.36328125,-231.4453125
0.6350,969.7265625,-53.7109375,-235.8398438
0.6400,967.2851563,-58.59375,-222.65625
0.6450,976.5625,-59.08203125,-224.1210938
0.6500,978.515625,-62.5,-231.9335938
0.6550,978.0273438,-65.4296875,-231.4453125
0.6600,983.8867188,-67.3828125,-219.2382813
0.6650,980.46875,-74.70703125,-220.703125
0.6700,983.3984375,-63.4765625,-232.421875
0.6750,979.4921875,-72.265625,-229.9804688
0.6800,980.46875,-53.22265625,-212.4023438
0.6850,975.5859375,-60.546875,-224.609375
0.6900,972.1679688,-57.12890625,-230.46875
0.6950,969.7265625,-55.6640625,-225.5859375
0.7000,964.84375,-45.8984375,-233.8867188
0.7050,968.2617188,-45.8984375,-227.5390625
0.7100,967.7734375,-45.41015625,-233.3984375
0.7150,969.7265625,-54.19921875,-229.0039063
0.7200,972.1679688,-51.7578125,-241.2109375
0.7250,966.796875,-65.91796875,-241.6992188
0.7300,979.4921875,-60.05859375,-241.6992188
0.7350,974.609375,-75.1953125,-225.5859375
0.7400,974.609375,-74.21875,-230.9570313
0.7450,972.1679688,-77.1484375,-241.6992188
0.7500,974.609375,-69.3359375,-220.2148438
0.7550,971.6796875,-75.1953125,-231.4453125
0.7600,979.9804688,-61.5234375,-226.0742188
0.7650,979.9804688,-58.10546875,-244.6289063
0.7700,974.1210938,-57.6171875,-225.0976563
0.7750,971.1914063,-55.17578125,-231.9335938
0.7800,970.2148438,-51.26953125,-231.4453125
0.7850,972.1679688,-55.6640625,-234.375
0.7900,967.7734375,-61.5234375,-227.0507813
0.7950,976.0742188,-58.59375,-235.8398438
0.8000,967.2851563,-63.96484375,-235.8398438
0.8050,974.609375,-55.17578125,-229.0039063
0.8100,968.75,-62.01171875,-235.8398438
0.8150,978.0273438,-57.6171875,-234.375
0.8200,964.84375,-63.96484375,-220.2148438
0.8250,971.6796875,-56.15234375,-239.7460938
0.8300,975.0976563,-56.640625,-220.703125
0.8350,971.6796875,-55.6640625,-227.5390625
0.8400,966.3085938,-55.6640625,-231.9335938
0.8450,965.8203125,-55.6640625,-236.8164063
0.8500,973.1445313,-52.734375,-216.796875
0.8550,974.609375,-57.12890625,-233.3984375
0.8600,971.6796875,-56.640625,-236.328125
0.8650,974.1210938,-59.08203125,-225.5859375
0.8700,972.65625,-60.05859375,-236.328125
0.8750,976.5625,-58.10546875,-227.5390625
0.8800,967.2851563,-61.03515625,-230.9570313
0.8850,966.796875,-58.10546875,-217.2851563
0.8900,969.7265625,-53.7109375,-228.515625
0.8950,969.7265625,-52.734375,-222.65625
0.9000,969.2382813,-52.24609375,-231.9335938
0.9050,978.0273438,-46.38671875,-232.421875
0.9100,972.65625,-47.36328125,-223.6328125
0.9150,974.1210938,-51.26953125,-230.9570313
0.9200,971.1914063,-47.36328125,-221.1914063
0.9250,976.0742188,-42.96875,-235.8398438
0.9300,966.3085938,-57.12890625,-230.46875
0.9350,974.609375,-57.6171875,-240.7226563
0.9400,970.2148438,-60.546875,-225.0976563
0.9450,968.75,-66.40625,-234.375
0.9500,974.1210938,-58.10546875,-220.703125
0.9550,972.1679688,-59.5703125,-230.46875
0.9600,970.703125,-54.19921875,-224.1210938
0.9650,966.796875,-60.05859375,-235.8398438
0.9700,974.609375,-54.19921875,-245.1171875
0.9750,974.609375,-51.7578125,-226.0742188
0.9800,979.4921875,-47.8515625,-228.515625
0.9850,981.4453125,-51.26953125,-236.328125
0.9900,980.46875,-53.22265625,-236.8164063
0.9950,975.0976563,-60.05859375,-234.8632813
1.0000,966.3085938,-62.98828125,-209.9609375
1.0050,973.6328125,-61.03515625,-235.8398438
1.0100,974.609375,-54.19921875,-216.796875
1.0150,978.0273438,-48.828125,-229.9804688
1.0200,966.3085938,-53.7109375,-221.1914063
1.0250,974.609375,-42.48046875,-228.515625
1.0300,966.3085938,-42.96875,-226.5625
1.0350,970.2148438,-38.57421875,-221.6796875
1.0400,969.2382813,-37.59765625,-233.8867188
1.0450,969.7265625,-38.57421875,-224.1210938
1.0500,973.1445313,-43.9453125,-224.609375
1.0550,981.9335938,-45.8984375,-225.5859375
1.0600,977.5390625,-44.43359375,-213.3789063
1.0650,982.421875,-50.78125,-212.4023438
1.0700,977.0507813,-49.31640625,-209.4726563
1.0750,979.4921875,-52.734375,-219.2382813
1.0800,981.9335938,-50.29296875,-213.3789063
1.0850,978.0273438,-51.26953125,-214.84375
1.0900,973.6328125,-50.78125,-220.703125
1.0950,963.3789063,-59.5703125,-224.609375
1.1000,966.3085938,-58.10546875,-229.9804688
1.1050,971.1914063,-54.19921875,-226.5625
1.1100,967.7734375,-55.17578125,-234.375
1.1150,969.2382813,-58.59375,-232.421875
1.1200,976.5625,-44.43359375,-228.515625
1.1250,970.2148438,-49.8046875,-225.5859375
1.1300,968.2617188,-52.24609375,-230.9570313
1.1350,980.46875,-46.875,-226.5625
1.1400,968.2617188,-55.6640625,-217.2851563
1.1450,970.703125,-51.26953125,-234.375
1.1500,971.6796875,-46.875,-223.1445313
1.1550,974.1210938,-49.8046875,-224.609375
1.1600,968.75,-58.59375,-230.46875
1.1650,974.1210938,-56.640625,-244.6289063
1.1700,976.5625,-54.6875,-219.2382813
1.1750,974.609375,-61.5234375,-229.0039063
1.1800,963.3789063,-67.3828125,-234.8632813
1.1850,975.0976563,-57.12890625,-236.8164063
1.1900,965.8203125,-57.6171875,-228.0273438
1.1950,975.0976563,-55.6640625,-227.0507813
1.2000,967.7734375,-52.24609375,-238.7695313
1.2050,972.1679688,-47.8515625,-217.7734375
1.2100,978.0273438,-40.0390625,-211.4257813
1.2150,988.28125,-24.4140625,-203.6132813
1.2200,988.7695313,-17.578125,-193.359375
1.2250,998.046875,-11.71875,-185.546875
1.2300,1002.441406,-7.8125,-195.3125
1.2350,1008.789063,-17.578125,-175.2929688
1.2400,1001.953125,-23.4375,-172.3632813
1.2450,1002.929688,-35.15625,-187.9882813
1.2500,991.2109375,-48.828125,-189.453125
1.2550,990.234375,-63.96484375,-206.5429688
1.2600,990.234375,-69.82421875,-225.0976563
1.2650,976.5625,-83.0078125,-233.3984375
1.2700,982.9101563,-79.1015625,-253.90625
1.2750,974.1210938,-79.1015625,-252.4414063
1.2800,969.7265625,-70.80078125,-255.3710938
1.2850,962.4023438,-65.91796875,-264.6484375
1.2900,960.9375,-63.96484375,-256.8359375
1.2950,954.5898438,-53.7109375,-259.2773438
1.3000,950.6835938,-52.734375,-255.3710938
1.3050,950.1953125,-44.43359375,-257.3242188
1.3100,946.7773438,-54.19921875,-239.7460938
1.3150,950.6835938,-52.734375,-234.375
1.3200,951.6601563,-53.7109375,-240.7226563
1.3250,947.265625,-57.12890625,-230.46875
1.3300,961.4257813,-48.828125,-212.890625
1.3350,960.4492188,-59.5703125,-211.9140625
1.3400,970.703125,-62.5,-209.4726563
1.3450,976.5625,-66.89453125,-227.5390625
1.3500,968.75,-73.73046875,-219.2382813
1.3550,972.1679688,-76.66015625,-236.328125
1.3600,970.2148438,-70.80078125,-239.7460938
1.3650,969.7265625,-72.265625,-243.6523438
1.3700,965.8203125,-67.87109375,-243.6523438
1.3750,974.609375,-57.12890625,-251.4648438
1.3800,977.5390625,-45.8984375,-238.28125
1.3850,977.5390625,-36.62109375,-243.1640625
1.3900,962.4023438,-43.9453125,-225.0976563
1.3950,965.3320313,-43.9453125,-236.8164063
1.4000,964.3554688,-43.45703125,-216.3085938
1.4050,959.4726563,-54.19921875,-222.1679688
1.4100,962.890625,-47.8515625,-218.75
1.4150,956.5429688,-58.10546875,-218.75
1.4200,958.0078125,-50.29296875,-206.5429688
1.4250,960.9375,-40.52734375,-210.9375
1.4300,957.03125,-26.3671875,-216.3085938
1.4350,964.84375,-19.04296875,-207.5195313
1.4400,969.2382813,-28.3203125,-218.75
1.4450,987.7929688,-36.1328125,-209.9609375
1.4500,996.09375,-57.12890625,-222.65625
1.4550,994.140625,-77.1484375,-229.0039063
1.4600,1008.300781,-65.4296875,-233.3984375
1.4650,1008.300781,-72.75390625,-226.5625
1.4700,1004.882813,-67.3828125,-239.2578125
1.4750,1006.835938,-61.5234375,-224.609375
1.4800,1010.742188,-56.640625,-217.7734375
1.4850,1019.042969,-38.57421875,-233.8867188
1.4900,1010.742188,-39.55078125,-223.1445313
1.4950,1013.671875,-26.3671875,-220.703125
1.5000,1006.835938,-21.97265625,-209.4726563
1.5050,996.09375,-19.53125,-225.5859375
1.5100,980.46875,-25.390625,-192.8710938
1.5150,980.9570313,-15.625,-208.4960938
1.5200,971.1914063,-17.08984375,-194.3359375
1.5250,960.4492188,-19.53125,-198.2421875
1.5300,957.03125,-23.4375,-207.03125
1.5350,962.890625,-18.5546875,-202.6367188
1.5400,956.0546875,-23.4375,-208.4960938
1.5450,949.7070313,-28.80859375,-214.3554688
1.5500,947.7539063,-28.3203125,-224.1210938
1.5550,948.7304688,-29.78515625,-230.9570313
1.5600,951.6601563,-28.3203125,-209.4726563
1.5650,958.4960938,-31.25,-239.2578125
1.5700,952.6367188,-47.8515625,-228.515625
1.5750,960.4492188,-49.31640625,-233.3984375
1.5800,971.1914063,-43.9453125,-237.3046875
1.5850,969.2382813,-55.17578125,-257.8125
1.5900,978.0273438,-56.640625,-246.5820313
1.5950,972.65625,-61.03515625,-248.5351563
1.6000,973.6328125,-56.640625,-227.5390625
1.6050,979.4921875,-62.98828125,-237.3046875
1.6100,960.9375,-67.87109375,-265.1367188
1.6150,977.0507813,-52.24609375,-248.5351563
1.6200,967.2851563,-49.31640625,-255.859375
1.6250,961.9140625,-45.8984375,-257.8125
1.6300,960.4492188,-42.96875,-267.0898438
1.6350,963.8671875,-39.55078125,-254.8828125
1.6400,945.8007813,-41.9921875,-256.3476563
1.6450,956.5429688,-34.1796875,-263.1835938
1.6500,952.1484375,-44.921875,-250.4882813
1.6550,960.9375,-49.31640625,-267.578125
1.6600,966.3085938,-45.8984375,-260.2539063
1.6650,965.3320313,-48.33984375,-251.4648438
1.6700,965.8203125,-56.15234375,-247.0703125
1.6750,969.2382813,-64.94140625,-245.6054688
1.6800,970.2148438,-67.3828125,-247.5585938
1.6850,976.0742188,-59.08203125,-261.2304688
1.6900,965.3320313,-72.265625,-244.6289063
1.6950,973.1445313,-68.359375,-262.6953125
1.7000,958.984375,-66.89453125,-263.1835938
1.7050,969.2382813,-62.5,-251.4648438
1.7100,958.984375,-67.87109375,-262.2070313
1.7150,964.3554688,-55.17578125,-258.3007813
1.7200,958.4960938,-59.5703125,-259.765625
1.7250,965.3320313,-44.43359375,-256.8359375
1.7300,957.5195313,-51.7578125,-257.8125
1.7350,969.2382813,-56.640625,-266.1132813
1.7400,957.5195313,-66.89453125,-257.3242188
1.7450,966.3085938,-67.3828125,-270.0195313
1.7500,966.3085938,-67.87109375,-263.671875
1.7550,972.1679688,-67.3828125,-256.3476563
1.7600,967.7734375,-73.73046875,-273.4375
1.7650,971.1914063,-69.82421875,-264.6484375
1.7700,965.3320313,-68.359375,-264.1601563
1.7750,973.1445313,-62.98828125,-252.4414063
1.7800,963.3789063,-63.4765625,-257.8125
1.7850,968.75,-63.4765625,-251.4648438
1.7900,970.2148438,-63.4765625,-250
1.7950,973.6328125,-63.4765625,-258.3007813
1.8000,972.65625,-71.2890625,-244.6289063
1.8050,971.6796875,-73.2421875,-261.2304688
1.8100,976.5625,-69.3359375,-270.0195313
1.8150,979.0039063,-73.2421875,-258.3007813
1.8200,986.328125,-60.05859375,-254.8828125
1.8250,973.6328125,-61.03515625,-253.4179688
1.8300,969.2382813,-50.29296875,-241.6992188
1.8350,968.75,-50.29296875,-241.2109375
1.8400,975.5859375,-49.8046875,-242.6757813
1.8450,970.2148438,-38.0859375,-235.3515625
1.8500,987.7929688,-34.1796875,-241.2109375
1.8550,981.4453125,-41.015625,-233.8867188
1.8600,982.9101563,-49.8046875,-242.6757813
1.8650,985.8398438,-55.17578125,-233.3984375
1.8700,981.4453125,-68.359375,-239.7460938
1.8750,982.9101563,-74.21875,-231.4453125
1.8800,992.1875,-69.3359375,-227.5390625
1.8850,989.7460938,-72.265625,-225.5859375
1.8900,987.3046875,-73.73046875,-226.5625
1.8950,986.328125,-76.66015625,-224.609375
1.9000,986.8164063,-79.1015625,-240.7226563
1.9050,979.4921875,-84.47265625,-235.8398438
1.9100,979.9804688,-78.61328125,-235.8398438
1.9150,978.515625,-78.125,-256.3476563
1.9200,971.6796875,-73.2421875,-237.3046875
1.9250,978.515625,-62.98828125,-237.7929688
1.9300,975.5859375,-62.5,-242.1875
1.9350,968.75,-64.453125,-224.1210938
1.9400,965.8203125,-63.96484375,-235.8398438
1.9450,966.796875,-75.68359375,-232.9101563
1.9500,965.8203125,-71.77734375,-238.7695313
1.9550,973.1445313,-62.01171875,-246.09375
1.9600,971.1914063,-54.19921875,-240.7226563
1.9650,965.8203125,-52.24609375,-244.140625
1.9700,963.8671875,-48.828125,-243.1640625
1.9750,974.609375,-48.828125,-241.2109375
1.9800,963.3789063,-44.921875,-227.5390625
1.9850,962.890625,-53.22265625,-232.9101563
1.9900,971.1914063,-55.17578125,-230.9570313
1.9950,968.75,-70.80078125,-231.4453125
2.0000,974.1210938,-66.40625,-237.7929688
2.0050,965.8203125,-81.54296875,-247.5585938
2.0100,971.1914063,-84.47265625,-239.2578125
2.0150,969.7265625,-92.7734375,-243.6523438
2.0200,967.2851563,-93.75,-243.1640625
2.0250,969.7265625,-99.609375,-235.3515625
2.0300,965.3320313,-95.703125,-236.328125
2.0350,968.2617188,-89.35546875,-243.1640625
2.0400,958.984375,-84.9609375,-237.3046875
2.0450,962.890625,-84.9609375,-242.6757813
2.0500,959.9609375,-83.984375,-244.140625
2.0550,957.5195313,-80.56640625,-253.4179688
2.0600,964.3554688,-73.73046875,-239.2578125
2.0650,962.4023438,-72.265625,-245.6054688
2.0700,967.7734375,-63.96484375,-242.6757813
2.0750,967.7734375,-65.4296875,-229.9804688
2.0800,960.4492188,-67.3828125,-234.8632813
2.0850,957.5195313,-68.84765625,-230.9570313
2.0900,961.9140625,-69.82421875,-232.9101563
2.0950,954.5898438,-73.2421875,-230.46875
2.1000,952.1484375,-76.66015625,-245.1171875
2.1050,952.1484375,-85.9375,-246.5820313
2.1100,955.078125,-95.21484375,-229.4921875
2.1150,963.3789063,-96.6796875,-234.8632813
2.1200,967.7734375,-88.37890625,-227.5390625
2.1250,973.1445313,-83.984375,-247.5585938
2.1300,974.609375,-83.984375,-222.1679688
2.1350,974.609375,-84.47265625,-240.7226563
2.1400,966.3085938,-91.796875,-239.2578125
2.1450,972.1679688,-95.21484375,-248.5351563
2.1500,979.0039063,-87.40234375,-246.09375
2.1550,964.3554688,-109.375,-236.328125
2.1600,979.9804688,-85.44921875,-230.46875
2.1650,973.6328125,-92.7734375,-247.0703125
2.1700,965.3320313,-90.8203125,-226.5625
2.1750,954.1015625,-96.19140625,-229.9804688
2.1800,961.4257813,-89.84375,-231.9335938
2.1850,958.4960938,-91.796875,-225.0976563
2.1900,957.5195313,-92.28515625,-228.0273438
2.1950,972.65625,-84.47265625,-235.3515625
2.2000,974.609375,-88.8671875,-243.6523438
2.2050,977.0507813,-94.23828125,-239.7460938
2.2100,979.4921875,-93.26171875,-250.4882813
2.2150,975.5859375,-104.9804688,-239.7460938
2.2200,987.3046875,-92.7734375,-244.140625
2.2250,988.7695313,-101.5625,-251.953125
2.2300,982.9101563,-101.0742188,-238.7695313
2.2350,985.8398438,-100.0976563,-245.6054688
2.2400,967.7734375,-101.5625,-231.9335938
2.2450,967.7734375,-93.75,-247.0703125
2.2500,955.5664063,-95.21484375,-224.609375
2.2550,954.1015625,-102.5390625,-225.5859375
2.2600,957.03125,-103.0273438,-220.2148438
2.2650,963.3789063,-96.19140625,-215.8203125
2.2700,958.0078125,-101.0742188,-234.375
2.2750,974.1210938,-98.14453125,-225.0976563
2.2800,964.3554688,-105.46875,-240.234375
2.2850,968.75,-109.375,-238.28125
2.2900,962.4023438,-105.46875,-243.6523438
2.2950,966.3085938,-95.21484375,-242.1875
2.3000,971.6796875,-85.44921875,-229.0039063
2.3050,964.84375,-84.47265625,-245.6054688
2.3100,962.890625,-83.984375,-239.7460938
2.3150,966.796875,-101.0742188,-227.0507813
2.3200,963.3789063,-115.7226563,-245.6054688
2.3250,968.75,-127.9296875,-250
2.3300,965.8203125,-135.7421875,-242.1875
2.3350,962.890625,-137.2070313,-248.5351563
2.3400,958.0078125,-128.90625,-259.765625
2.3450,952.6367188,-125.4882813,-243.1640625
2.3500,960.9375,-114.7460938,-228.515625
2.3550,954.1015625,-109.8632813,-215.3320313
2.3600,956.0546875,-102.0507813,-235.3515625
2.3650,963.3789063,-99.12109375,-238.7695313
2.3700,967.2851563,-104.0039063,-241.2109375
2.3750,968.75,-115.234375,-225.5859375
2.3800,961.9140625,-125,-232.9101563
2.3850,972.65625,-127.4414063,-253.4179688
2.3900,973.1445313,-125.9765625,-237.3046875
2.3950,977.5390625,-126.953125,-236.8164063
2.4000,981.4453125,-121.5820313,-217.2851563
2.4050,972.65625,-125.9765625,-223.6328125
2.4100,985.3515625,-121.09375,-215.8203125
2.4150,987.7929688,-121.5820313,-231.9335938
2.4200,990.234375,-113.7695313,-259.765625
2.4250,975.0976563,-126.4648438,-227.5390625
2.4300,966.3085938,-127.9296875,-240.234375
2.4350,967.7734375,-134.765625,-222.65625
2.4400,968.75,-137.6953125,-222.1679688
2.4450,963.3789063,-149.9023438,-226.5625
2.4500,971.1914063,-144.53125,-232.9101563
2.4550,979.0039063,-140.625,-241.6992188
2.4600,992.6757813,-130.3710938,-223.1445313
2.4650,979.4921875,-139.6484375,-242.1875
2.4700,977.5390625,-130.859375,-246.09375
2.4750,966.796875,-141.6015625,-240.7226563
2.4800,969.7265625,-130.3710938,-239.2578125
2.4850,966.796875,-140.1367188,-230.9570313
2.4900,967.7734375,-146.9726563,-237.7929688
2.4950,966.3085938,-154.296875,-240.234375
2.5000,959.4726563,-150.390625,-229.0039063
2.5050,964.3554688,-146.484375,-221.6796875
2.5100,955.078125,-149.9023438,-214.3554688
2.5150,958.0078125,-150.8789063,-221.6796875
2.5200,967.7734375,-142.578125,-223.6328125
2.5250,973.1445313,-140.1367188,-217.2851563
2.5300,981.9335938,-137.2070313,-227.5390625
2.5350,981.9335938,-145.5078125,-242.1875
2.5400,985.3515625,-142.578125,-241.2109375
2.5450,971.6796875,-157.7148438,-244.6289063
2.5500,969.7265625,-159.6679688,-254.8828125
2.5550,967.2851563,-162.109375,-251.4648438
2.5600,951.6601563,-172.8515625,-255.859375
2.5650,946.2890625,-173.828125,-236.328125
2.5700,953.125,-172.3632813,-249.5117188
2.5750,947.7539063,-168.9453125,-255.859375
2.5800,946.2890625,-159.6679688,-249.0234375
2.5850,945.3125,-157.7148438,-247.0703125
2.5900,936.0351563,-154.7851563,-249.0234375
2.5950,935.546875,-150.390625,-241.6992188
2.6000,927.734375,-159.6679688,-254.3945313
2.6050,933.59375,-158.6914063,-244.140625
2.6100,937.0117188,-163.5742188,-238.28125
2.6150,946.7773438,-171.3867188,-238.28125
2.6200,948.7304688,-180.6640625,-245.6054688
2.6250,945.8007813,-192.3828125,-256.8359375
2.6300,953.125,-188.9648438,-253.90625
2.6350,953.6132813,-187.5,-253.90625
2.6400,941.40625,-190.9179688,-239.7460938
2.6450,937.5,-196.2890625,-246.5820313
2.6500,942.3828125,-189.453125,-241.6992188
2.6550,957.5195313,-186.5234375,-238.7695313
2.6600,958.984375,-181.1523438,-254.3945313
2.6650,958.4960938,-180.6640625,-251.953125
2.6700,960.9375,-175.78125,-256.8359375
2.6750,951.6601563,-187.0117188,-248.046875
2.6800,951.6601563,-192.8710938,-247.0703125
2.6850,959.9609375,-181.1523438,-244.6289063
2.6900,953.125,-181.1523438,-247.0703125
2.6950,952.1484375,-190.4296875,-244.6289063
2.7000,950.1953125,-190.9179688,-259.765625
2.7050,953.6132813,-187.0117188,-261.2304688
2.7100,946.7773438,-193.359375,-250.4882813
2.7150,956.5429688,-194.3359375,-254.8828125
2.7200,948.2421875,-206.5429688,-235.8398438
2.7250,948.2421875,-210.4492188,-251.953125
2.7300,941.8945313,-208.4960938,-261.2304688
2.7350,940.4296875,-213.8671875,-247.5585938
2.7400,942.3828125,-212.890625,-252.4414063
2.7450,936.0351563,-218.75,-253.90625
2.7500,923.3398438,-226.5625,-263.671875
2.7550,925.2929688,-221.6796875,-249.0234375
2.7600,927.734375,-213.8671875,-246.5820313
2.7650,935.546875,-210.4492188,-249.0234375
2.7700,932.1289063,-219.7265625,-280.2734375
2.7750,932.6171875,-217.2851563,-264.6484375
2.7800,937.9882813,-208.0078125,-266.1132813
2.7850,937.9882813,-216.3085938,-270.9960938
2.7900,942.3828125,-218.2617188,-261.71875
2.7950,938.9648438,-230.46875,-264.1601563
2.8000,936.5234375,-220.2148438,-268.5546875
2.8050,932.6171875,-225.0976563,-276.8554688
2.8100,932.1289063,-229.9804688,-260.7421875
2.8150,933.59375,-230.9570313,-264.1601563
2.8200,949.7070313,-220.2148438,-257.8125
2.8250,941.8945313,-229.4921875,-270.5078125
2.8300,933.1054688,-243.6523438,-267.0898438
2.8350,948.2421875,-238.7695313,-273.9257813
2.8400,933.1054688,-246.09375,-271.484375
2.8450,938.9648438,-239.7460938,-278.3203125
2.8500,927.734375,-241.6992188,-280.7617188
2.8550,937.0117188,-236.8164063,-279.7851563
2.8600,926.7578125,-245.6054688,-275.8789063
2.8650,933.1054688,-229.9804688,-290.0390625
2.8700,926.7578125,-238.7695313,-284.6679688
2.8750,926.2695313,-250.9765625,-294.921875
2.8800,920.8984375,-257.8125,-291.015625
2.8850,917.96875,-252.9296875,-267.0898438
2.8900,915.5273438,-241.6992188,-274.9023438
2.8950,915.0390625,-239.2578125,-277.34375
2.9000,907.7148438,-245.6054688,-278.8085938
2.9050,905.7617188,-249.5117188,-264.6484375
2.9100,891.1132813,-259.765625,-284.6679688
2.9150,908.6914063,-254.8828125,-271.484375
2.9200,899.4140625,-267.578125,-274.4140625
2.9250,913.0859375,-261.2304688,-295.4101563
2.9300,918.4570313,-263.1835938,-296.875
2.9350,922.8515625,-268.5546875,-308.59375
2.9400,928.7109375,-257.8125,-308.1054688
2.9450,934.5703125,-255.859375,-312.9882813
2.9500,917.4804688,-263.671875,-298.3398438
2.9550,919.4335938,-261.71875,-312.9882813
2.9600,913.0859375,-257.8125,-298.3398438
2.9650,913.5742188,-256.3476563,-312.5
2.9700,915.5273438,-254.3945313,-302.2460938
2.9750,914.0625,-265.625,-307.6171875
2.9800,917.96875,-259.765625,-297.8515625
2.9850,916.015625,-266.1132813,-302.734375
2.9900,929.6875,-257.8125,-305.6640625
2.9950,932.6171875,-267.0898438,-308.59375
3.0000,919.921875,-282.2265625,-307.6171875
3.0050,916.9921875,-281.7382813,-308.1054688
3.0100,920.8984375,-274.4140625,-301.7578125
3.0150,927.2460938,-270.0195313,-295.8984375
3.0200,926.7578125,-269.0429688,-300.2929688
3.0250,927.2460938,-264.6484375,-307.6171875
3.0300,933.59375,-254.3945313,-310.546875
3.0350,916.5039063,-260.2539063,-306.1523438
3.0400,906.7382813,-278.8085938,-302.734375
3.0450,895.9960938,-279.7851563,-301.7578125
3.0500,899.4140625,-284.6679688,-322.265625
3.0550,895.0195313,-294.4335938,-310.546875
3.0600,891.1132813,-302.2460938,-321.7773438
3.0650,887.6953125,-304.1992188,-304.6875
3.0700,893.0664063,-300.78125,-299.3164063
3.0750,899.9023438,-298.828125,-294.4335938
3.0800,897.9492188,-291.015625,-309.0820313
3.0850,886.71875,-303.7109375,-301.2695313
3.0900,883.7890625,-298.828125,-303.7109375
3.0950,886.71875,-295.4101563,-294.921875
3.1000,888.671875,-286.6210938,-301.2695313
3.1050,887.6953125,-280.7617188,-305.6640625
3.1100,903.3203125,-271.9726563,-306.640625
3.1150,905.7617188,-268.0664063,-315.4296875
3.1200,908.6914063,-264.6484375,-322.7539063
3.1250,894.0429688,-272.4609375,-328.125
3.1300,896.484375,-260.2539063,-329.1015625
3.1350,888.1835938,-268.0664063,-326.171875
3.1400,884.765625,-274.9023438,-322.265625
3.1450,875.9765625,-276.3671875,-320.3125
3.1500,882.3242188,-271.484375,-328.125
3.1550,880.859375,-276.8554688,-332.5195313
3.1600,867.1875,-285.6445313,-322.265625
3.1650,864.7460938,-300.2929688,-312.0117188
3.1700,866.6992188,-309.0820313,-325.6835938
3.1750,870.6054688,-315.4296875,-305.6640625
3.1800,883.7890625,-316.8945313,-321.2890625
3.1850,891.1132813,-329.1015625,-336.4257813
3.1900,892.578125,-323.2421875,-326.171875
3.1950,900.8789063,-311.5234375,-333.4960938
3.2000,906.25,-295.4101563,-344.2382813
3.2050,904.7851563,-290.0390625,-339.84375
3.2100,906.7382813,-281.25,-338.3789063
3.2150,909.1796875,-290.0390625,-334.9609375
3.2200,909.1796875,-294.4335938,-340.3320313
3.2250,904.7851563,-314.9414063,-328.125
3.2300,899.9023438,-325.6835938,-326.6601563
3.2350,899.4140625,-336.4257813,-321.7773438
3.2400,893.5546875,-335.4492188,-319.3359375
3.2450,899.4140625,-337.4023438,-321.2890625
3.2500,895.9960938,-334.4726563,-329.1015625
3.2550,902.8320313,-315.9179688,-314.453125
3.2600,886.2304688,-328.125,-326.171875
3.2650,889.6484375,-312.9882813,-315.9179688
3.2700,886.71875,-313.9648438,-329.5898438
3.2750,896.484375,-317.3828125,-346.1914063
3.2800,901.8554688,-313.4765625,-351.0742188
3.2850,895.0195313,-333.984375,-353.515625
3.2900,889.6484375,-340.3320313,-354.9804688
3.2950,910.15625,-342.2851563,-356.4453125
3.3000,904.7851563,-349.1210938,-361.8164063
3.3050,884.765625,-346.6796875,-359.375
3.3100,883.3007813,-332.5195313,-329.1015625
3.3150,889.1601563,-329.1015625,-332.5195313
3.3200,884.765625,-326.171875,-353.0273438
3.3250,884.2773438,-323.7304688,-345.703125
3.3300,880.3710938,-324.7070313,-359.8632813
3.3350,882.3242188,-323.7304688,-339.3554688
3.3400,884.765625,-311.0351563,-342.2851563
3.3450,882.8125,-309.5703125,-359.8632813
3.3500,873.5351563,-314.453125,-349.1210938
3.3550,872.0703125,-317.3828125,-354.4921875
3.3600,873.046875,-309.0820313,-362.7929688
3.3650,873.5351563,-305.6640625,-359.8632813
3.3700,875.4882813,-311.5234375,-373.046875
3.3750,868.1640625,-318.359375,-362.7929688
3.3800,865.7226563,-317.8710938,-357.421875
3.3850,870.6054688,-321.2890625,-377.4414063
3.3900,863.28125,-321.2890625,-352.5390625
3.3950,852.5390625,-326.171875,-371.09375
3.4000,858.3984375,-325.1953125,-352.5390625
3.4050,854.4921875,-332.03125,-344.2382813
3.4100,853.515625,-331.0546875,-365.7226563
3.4150,852.0507813,-347.1679688,-373.5351563
3.4200,860.3515625,-338.3789063,-373.046875
3.4250,877.9296875,-331.5429688,-367.6757813
3.4300,867.6757813,-340.3320313,-381.8359375
3.4350,866.6992188,-330.078125,-379.3945313
3.4400,871.5820313,-320.3125,-367.6757813
3.4450,869.140625,-315.9179688,-361.328125
3.4500,874.0234375,-316.40625,-364.7460938
3.4550,873.046875,-334.9609375,-376.4648438
3.4600,867.6757813,-351.0742188,-370.1171875
3.4650,870.6054688,-354.9804688,-368.1640625
3.4700,845.2148438,-366.6992188,-365.234375
3.4750,855.9570313,-356.4453125,-351.5625
3.4800,851.5625,-362.7929688,-361.328125
3.4850,856.4453125,-370.6054688,-360.3515625
3.4900,854.0039063,-367.1875,-370.1171875
3.4950,847.1679688,-368.6523438,-358.3984375
3.5000,851.0742188,-364.2578125,-366.2109375
3.5050,857.421875,-355.46875,-370.6054688
3.5100,855.46875,-356.9335938,-371.09375
3.5150,860.8398438,-362.3046875,-377.4414063
3.5200,858.3984375,-376.953125,-379.8828125
3.5250,862.7929688,-372.0703125,-390.625
3.5300,859.375,-364.7460938,-380.3710938
3.5350,844.7265625,-372.0703125,-370.1171875
3.5400,848.1445313,-365.234375,-369.140625
3.5450,851.0742188,-370.6054688,-387.2070313
3.5500,859.375,-373.046875,-389.6484375
3.5550,864.2578125,-378.90625,-401.3671875
3.5600,853.515625,-382.3242188,-402.34375
3.5650,849.609375,-371.09375,-393.5546875
3.5700,844.7265625,-363.7695313,-382.8125
3.5750,854.4921875,-372.0703125,-387.2070313
3.5800,857.421875,-368.6523438,-390.1367188
3.5850,855.46875,-376.4648438,-406.7382813
3.5900,854.0039063,-387.6953125,-410.6445313
3.5950,844.7265625,-393.0664063,-396.9726563
3.6000,853.0273438,-380.859375,-379.3945313
3.6050,855.9570313,-388.1835938,-395.0195313
3.6100,844.2382813,-381.8359375,-385.2539063
3.6150,852.0507813,-382.8125,-396.9726563
3.6200,843.75,-387.6953125,-405.7617188
3.6250,832.03125,-391.1132813,-404.7851563
3.6300,840.8203125,-380.859375,-389.1601563
3.6350,833.0078125,-375,-391.6015625
3.6400,834.9609375,-364.7460938,-407.7148438
3.6450,830.5664063,-369.140625,-409.6679688
3.6500,826.6601563,-373.046875,-409.1796875
3.6550,836.4257813,-361.328125,-402.8320313
3.6600,825.1953125,-364.2578125,-415.5273438
3.6650,823.2421875,-363.28125,-429.1992188
3.6700,824.21875,-369.6289063,-432.1289063
3.6750,819.8242188,-379.3945313,-435.0585938
3.6800,831.5429688,-378.4179688,-438.9648438
3.6850,821.2890625,-379.3945313,-428.2226563
3.6900,825.1953125,-362.7929688,-437.9882813
3.6950,819.3359375,-365.7226563,-432.1289063
3.7000,815.4296875,-372.0703125,-422.8515625
3.7050,814.9414063,-381.8359375,-429.1992188
3.7100,814.9414063,-383.3007813,-427.734375
3.7150,805.6640625,-395.5078125,-408.203125
3.7200,812.9882813,-395.9960938,-406.25
3.7250,818.359375,-413.0859375,-412.109375
3.7300,829.5898438,-412.5976563,-430.6640625
3.7350,810.0585938,-409.6679688,-411.6210938
3.7400,802.734375,-412.109375,-421.3867188
3.7450,807.1289063,-387.2070313,-443.8476563
3.7500,809.0820313,-369.6289063,-439.453125
3.7550,801.7578125,-363.7695313,-447.7539063
3.7600,793.9453125,-348.6328125,-458.0078125
3.7650,783.203125,-347.1679688,-437.9882813
3.7700,767.0898438,-363.7695313,-445.3125
3.7750,771.9726563,-375.4882813,-439.9414063
3.7800,774.4140625,-395.9960938,-464.84375
3.7850,762.6953125,-425.2929688,-462.890625
3.7900,755.859375,-426.7578125,-450.6835938
3.7950,763.671875,-429.1992188,-464.3554688
3.8000,779.296875,-427.734375,-448.7304688
3.8050,778.8085938,-433.59375,-460.9375
3.8100,777.8320313,-437.5,-471.1914063
3.8150,777.8320313,-426.2695313,-474.1210938
3.8200,791.9921875,-434.0820313,-457.5195313
3.8250,819.3359375,-432.6171875,-474.1210938
3.8300,813.9648438,-446.2890625,-480.46875
3.8350,811.0351563,-441.8945313,-478.0273438
3.8400,812.0117188,-427.734375,-466.3085938
3.8450,835.4492188,-424.8046875,-475.5859375
3.8500,839.3554688,-428.2226563,-497.5585938
3.8550,825.1953125,-435.0585938,-489.2578125
3.8600,809.5703125,-426.2695313,-458.984375
3.8650,814.453125,-418.4570313,-472.65625
3.8700,796.875,-426.7578125,-469.2382813
3.8750,800.78125,-418.9453125,-459.4726563
3.8800,777.34375,-416.015625,-461.9140625
3.8850,783.203125,-411.6210938,-466.796875
3.8900,791.9921875,-419.921875,-474.1210938
3.8950,812.0117188,-435.546875,-481.9335938
3.9000,804.1992188,-444.8242188,-482.421875
3.9050,785.6445313,-448.7304688,-465.3320313
3.9100,794.4335938,-440.9179688,-462.890625
3.9150,797.3632813,-445.3125,-443.359375
3.9200,785.6445313,-445.3125,-430.6640625
3.9250,785.6445313,-433.59375,-437.9882813
3.9300,768.5546875,-421.3867188,-459.9609375
3.9350,782.7148438,-404.296875,-467.2851563
3.9400,788.0859375,-387.6953125,-466.3085938
3.9450,790.0390625,-385.7421875,-508.7890625
3.9500,784.1796875,-370.6054688,-516.6015625
3.9550,769.53125,-372.0703125,-497.5585938
3.9600,773.9257813,-368.1640625,-489.7460938
3.9650,778.8085938,-368.6523438,-515.1367188
3.9700,749.0234375,-376.953125,-484.8632813
3.9750,735.8398438,-376.953125,-472.1679688
3.9800,729.0039063,-380.859375,-486.328125
3.9850,734.8632813,-396.484375,-477.5390625
3.9900,741.2109375,-416.9921875,-487.7929688
3.9950,758.7890625,-430.1757813,-500.4882813
4.0000,758.7890625,-454.1015625,-473.6328125
4.0050,760.2539063,-463.3789063,-479.0039063
4.0100,771.9726563,-456.0546875,-481.9335938
4.0150,758.7890625,-453.125,-488.28125
4.0200,742.6757813,-433.1054688,-455.5664063
4.0250,735.3515625,-415.5273438,-457.03125
4.0300,746.5820313,-385.7421875,-474.609375
4.0350,751.4648438,-387.2070313,-501.4648438
4.0400,763.671875,-383.7890625,-498.5351563
4.0450,763.1835938,-380.3710938,-512.2070313
4.0500,749.5117188,-380.3710938,-541.015625
4.0550,751.4648438,-376.4648438,-505.3710938
4.0600,746.5820313,-388.1835938,-503.4179688
4.0650,762.2070313,-398.4375,-534.1796875
4.0700,743.1640625,-414.5507813,-545.4101563
4.0750,734.375,-418.9453125,-495.1171875
4.0800,736.328125,-411.6210938,-507.8125
4.0850,738.28125,-433.59375,-496.5820313
4.0900,747.0703125,-437.5,-499.0234375
4.0950,739.2578125,-440.4296875,-506.8359375
4.1000,737.7929688,-440.4296875,-497.0703125
4.1050,738.7695313,-463.8671875,-503.90625
4.1100,744.140625,-468.75,-488.28125
4.1150,745.6054688,-474.609375,-524.9023438
4.1200,743.1640625,-463.3789063,-503.4179688
4.1250,733.3984375,-453.6132813,-498.5351563
4.1300,729.4921875,-435.546875,-503.90625
4.1350,737.7929688,-414.5507813,-517.578125
4.1400,742.1875,-417.96875,-524.9023438
4.1450,747.0703125,-419.4335938,-530.7617188
4.1500,745.1171875,-416.015625,-551.2695313
4.1550,745.1171875,-405.2734375,-540.5273438
4.1600,735.8398438,-408.6914063,-529.296875
4.1650,748.5351563,-405.2734375,-525.8789063
4.1700,734.375,-425.2929688,-524.4140625
4.1750,725.0976563,-433.59375,-539.0625
4.1800,723.1445313,-443.8476563,-520.9960938
4.1850,728.515625,-458.4960938,-544.921875
4.1900,727.5390625,-463.3789063,-517.0898438
4.1950,728.0273438,-462.890625,-530.2734375
4.2000,738.7695313,-447.265625,-512.6953125
4.2050,737.3046875,-455.5664063,-528.3203125
4.2100,745.1171875,-440.9179688,-518.0664063
4.2150,739.2578125,-443.359375,-536.6210938
4.2200,740.234375,-423.3398438,-542.96875
4.2250,738.7695313,-415.5273438,-546.3867188
4.2300,738.28125,-418.4570313,-546.875
4.2350,739.2578125,-407.2265625,-541.9921875
4.2400,728.515625,-400.8789063,-547.8515625
4.2450,732.421875,-401.8554688,-547.3632813
4.2500,735.3515625,-401.3671875,-553.7109375
4.2550,735.3515625,-411.6210938,-546.3867188
4.2600,726.5625,-419.921875,-536.6210938
4.2650,726.0742188,-429.1992188,-538.0859375
4.2700,728.515625,-444.3359375,-525.8789063
4.2750,729.4921875,-441.8945313,-545.8984375
4.2800,717.2851563,-452.6367188,-528.3203125
4.2850,722.65625,-446.7773438,-549.3164063
4.2900,728.515625,-435.0585938,-533.6914063
4.2950,732.421875,-434.0820313,-552.734375
4.3000,724.1210938,-438.4765625,-569.8242188
4.3050,737.7929688,-435.546875,-562.5
4.3100,730.46875,-434.0820313,-568.359375
4.3150,723.1445313,-409.1796875,-538.5742188
4.3200,709.4726563,-413.5742188,-540.5273438
4.3250,721.1914063,-412.5976563,-546.3867188
4.3300,711.9140625,-436.5234375,-546.3867188
4.3350,714.84375,-443.359375,-538.0859375
4.3400,707.5195313,-437.5,-526.8554688
4.3450,709.4726563,-433.1054688,-523.4375
4.3500,721.6796875,-421.3867188,-525.390625
4.3550,722.1679688,-433.59375,-535.6445313
4.3600,733.8867188,-416.9921875,-541.015625
4.3650,735.8398438,-408.203125,-555.6640625
4.3700,738.7695313,-399.4140625,-543.9453125
4.3750,755.859375,-388.1835938,-549.8046875
4.3800,740.234375,-390.625,-550.78125
4.3850,741.6992188,-389.6484375,-555.1757813
4.3900,745.1171875,-390.1367188,-558.59375
4.3950,749.0234375,-407.7148438,-564.9414063
4.4000,733.8867188,-420.8984375,-558.59375
4.4050,732.9101563,-423.3398438,-540.0390625
4.4100,727.0507813,-427.734375,-537.109375
4.4150,721.1914063,-436.0351563,-536.1328125
4.4200,720.703125,-433.1054688,-531.25
4.4250,721.6796875,-419.921875,-533.6914063
4.4300,710.9375,-433.59375,-516.6015625
4.4350,729.9804688,-425.2929688,-537.5976563
4.4400,726.5625,-420.4101563,-522.9492188
4.4450,729.9804688,-412.109375,-541.9921875
4.4500,731.4453125,-407.2265625,-540.0390625
4.4550,739.2578125,-404.7851563,-552.734375
4.4600,731.9335938,-410.6445313,-541.5039063
4.4650,737.3046875,-406.25,-542.4804688
4.4700,736.328125,-409.6679688,-547.8515625
4.4750,727.5390625,-414.0625,-545.8984375
4.4800,724.609375,-414.5507813,-541.9921875
4.4850,729.4921875,-426.2695313,-533.6914063
4.4900,736.328125,-431.1523438,-527.34375
4.4950,731.4453125,-447.7539063,-540.5273438
4.5000,733.8867188,-445.8007813,-537.109375
4.5050,732.421875,-446.2890625,-530.2734375
4.5100,739.7460938,-436.0351563,-529.296875
4.5150,740.234375,-425.78125,-537.109375
4.5200,739.7460938,-419.921875,-524.4140625
4.5250,745.6054688,-410.6445313,-540.0390625
4.5300,747.0703125,-404.7851563,-542.4804688
4.5350,745.1171875,-400.8789063,-556.1523438
4.5400,738.28125,-395.5078125,-547.3632813
4.5450,739.2578125,-393.0664063,-546.875
4.5500,732.421875,-398.9257813,-541.9921875
4.5550,746.5820313,-399.4140625,-541.015625
4.5600,741.6992188,-403.3203125,-546.3867188
4.5650,737.3046875,-416.015625,-545.8984375
4.5700,744.6289063,-417.4804688,-530.2734375
4.5750,741.6992188,-426.7578125,-539.0625
4.5800,729.9804688,-419.4335938,-523.9257813
4.5850,731.9335938,-423.3398438,-520.5078125
4.5900,736.8164063,-421.3867188,-525.8789063
4.5950,734.8632813,-418.4570313,-533.6914063
4.6000,748.046875,-401.8554688,-528.3203125
4.6050,746.09375,-407.7148438,-524.9023438
4.6100,750,-401.3671875,-533.6914063
4.6150,739.2578125,-393.0664063,-526.3671875
4.6200,738.28125,-384.765625,-529.7851563
4.6250,748.5351563,-375.9765625,-522.9492188
4.6300,753.4179688,-388.671875,-537.5976563
4.6350,750.9765625,-392.0898438,-527.34375
4.6400,750.9765625,-396.9726563,-538.5742188
4.6450,739.7460938,-414.5507813,-517.0898438
4.6500,743.6523438,-408.203125,-526.3671875
4.6550,750,-405.7617188,-514.6484375
4.6600,744.140625,-414.5507813,-517.578125
4.6650,753.90625,-407.7148438,-517.0898438
4.6700,752.9296875,-397.4609375,-520.9960938
4.6750,748.046875,-391.1132813,-520.9960938
4.6800,763.1835938,-375,-534.6679688
4.6850,757.8125,-383.7890625,-541.9921875
4.6900,763.671875,-369.140625,-526.8554688
4.6950,747.0703125,-384.765625,-528.8085938
4.7000,753.90625,-366.6992188,-519.53125
4.7050,755.859375,-383.7890625,-520.0195313
4.7100,755.859375,-385.7421875,-513.1835938
4.7150,757.8125,-396.9726563,-508.7890625
4.7200,750.4882813,-397.4609375,-527.34375
4.7250,753.90625,-383.7890625,-517.0898438
4.7300,733.8867188,-390.625,-517.0898438
4.7350,747.5585938,-393.0664063,-521.9726563
4.7400,751.953125,-384.2773438,-532.2265625
4.7450,752.9296875,-386.2304688,-533.203125
4.7500,740.234375,-389.1601563,-534.1796875
4.7550,747.5585938,-386.2304688,-532.7148438
4.7600,753.90625,-381.3476563,-533.203125
4.7650,747.5585938,-389.1601563,-515.625
4.7700,745.1171875,-395.9960938,-523.4375
4.7750,741.2109375,-404.7851563,-518.5546875
4.7800,748.046875,-404.296875,-510.7421875
4.7850,750,-406.25,-512.6953125
4.7900,737.3046875,-419.4335938,-508.7890625
4.7950,740.234375,-414.5507813,-512.6953125
4.8000,748.5351563,-397.4609375,-518.5546875
4.8050,744.140625,-405.7617188,-522.9492188
4.8100,757.3242188,-391.1132813,-528.8085938
4.8150,768.0664063,-395.9960938,-516.1132813
4.8200,768.5546875,-396.484375,-536.6210938
4.8250,767.578125,-387.6953125,-535.15625
4.8300,772.4609375,-378.4179688,-537.109375
4.8350,768.5546875,-372.5585938,-519.0429688
4.8400,759.2773438,-383.3007813,-525.8789063
4.8450,763.1835938,-387.2070313,-516.6015625
4.8500,757.8125,-396.9726563,-504.8828125
4.8550,760.7421875,-393.0664063,-503.90625
4.8600,748.5351563,-398.9257813,-499.5117188
4.8650,758.3007813,-403.8085938,-499.5117188
4.8700,769.53125,-404.296875,-501.4648438
4.8750,771.484375,-406.7382813,-509.2773438
4.8800,767.578125,-403.8085938,-507.3242188
4.8850,765.1367188,-394.0429688,-503.90625
4.8900,761.2304688,-386.2304688,-506.8359375
4.8950,777.34375,-371.5820313,-511.2304688
4.9000,778.3203125,-375.9765625,-518.0664063
4.9050,785.6445313,-372.0703125,-510.7421875
4.9100,778.3203125,-371.09375,-532.2265625
4.9150,779.296875,-371.09375,-524.9023438
4.9200,770.0195313,-375.9765625,-525.390625
4.9250,768.5546875,-376.4648438,-520.0195313
4.9300,766.1132813,-366.2109375,-516.6015625
4.9350,767.578125,-374.0234375,-520.9960938
4.9400,764.1601563,-384.765625,-529.7851563
4.9450,774.4140625,-384.2773438,-524.4140625
4.9500,771.484375,-388.671875,-504.3945313
4.9550,772.4609375,-392.0898438,-503.90625
4.9600,775.390625,-392.578125,-506.8359375
4.9650,774.9023438,-384.765625,-513.1835938
4.9700,773.9257813,-380.3710938,-497.5585938
4.9750,780.7617188,-379.8828125,-513.671875
4.9800,777.8320313,-387.2070313,-515.625
4.9850,787.5976563,-383.3007813,-518.0664063
4.9900,781.7382813,-379.3945313,-512.2070313
4.9950,781.7382813,-373.5351563,-511.71875
5.0000,782.7148438,-360.3515625,-519.0429688
5.0050,774.4140625,-366.6992188,-523.9257813
5.0100,777.8320313,-348.1445313,-494.6289063
5.0150,777.8320313,-359.375,-505.859375
5.0200,770.9960938,-362.7929688,-507.8125
5.0250,781.7382813,-359.375,-507.8125
5.0300,778.3203125,-364.7460938,-487.7929688
5.0350,784.6679688,-363.28125,-502.9296875
5.0400,785.6445313,-367.1875,-512.2070313
5.0450,788.5742188,-362.3046875,-498.046875
5.0500,783.6914063,-364.2578125,-491.6992188
5.0550,795.8984375,-356.4453125,-494.6289063
5.0600,794.4335938,-355.9570313,-503.4179688
5.0650,790.0390625,-363.7695313,-500.4882813
5.0700,794.4335938,-349.1210938,-505.3710938
5.0750,793.9453125,-348.6328125,-498.5351563
5.0800,785.6445313,-358.3984375,-502.4414063
5.0850,790.5273438,-358.8867188,-501.4648438
5.0900,790.5273438,-354.4921875,-505.3710938
5.0950,793.9453125,-356.9335938,-494.6289063
5.1000,801.2695313,-358.8867188,-506.8359375
5.1050,800.78125,-363.28125,-501.4648438
5.1100,804.6875,-360.3515625,-500.9765625
5.1150,796.875,-360.3515625,-488.28125
5.1200,798.828125,-346.1914063,-480.46875
5.1250,786.1328125,-346.6796875,-483.3984375
5.1300,792.4804688,-339.3554688,-487.7929688
5.1350,797.8515625,-340.8203125,-498.5351563
5.1400,791.9921875,-342.2851563,-495.1171875
5.1450,791.5039063,-340.8203125,-501.953125
5.1500,799.8046875,-333.0078125,-508.3007813
5.1550,789.0625,-341.796875,-497.0703125
5.1600,791.015625,-337.890625,-491.2109375
5.1650,792.4804688,-348.1445313,-490.7226563
5.1700,794.921875,-354.0039063,-499.5117188
5.1750,796.875,-353.0273438,-500.9765625
5.1800,793.9453125,-355.46875,-475.5859375
5.1850,799.8046875,-345.703125,-479.9804688
5.1900,797.8515625,-345.703125,-469.2382813
5.1950,797.3632813,-352.0507813,-474.609375
5.2000,791.9921875,-345.703125,-472.1679688
5.2050,797.3632813,-337.4023438,-465.3320313
5.2100,791.5039063,-333.0078125,-479.9804688
5.2150,796.875,-333.0078125,-490.7226563
5.2200,797.8515625,-333.4960938,-501.953125
5.2250,796.3867188,-333.0078125,-503.4179688
5.2300,799.3164063,-329.1015625,-499.5117188
5.2350,791.5039063,-333.0078125,-503.4179688
5.2400,803.7109375,-319.8242188,-486.8164063
5.2450,800.78125,-325.6835938,-482.421875
5.2500,802.734375,-330.078125,-491.6992188
5.2550,805.1757813,-331.0546875,-484.8632813
5.2600,804.6875,-332.5195313,-481.9335938
5.2650,809.0820313,-328.125,-477.5390625
5.2700,798.828125,-332.03125,-468.75
5.2750,807.6171875,-333.0078125,-488.7695313
5.2800,803.7109375,-342.2851563,-496.09375
5.2850,804.1992188,-350.5859375,-509.765625
5.2900,796.3867188,-344.2382813,-508.3007813
5.2950,782.7148438,-335.9375,-506.3476563
5.3000,778.3203125,-320.8007813,-479.0039063
5.3050,779.7851563,-327.1484375,-499.0234375
5.3100,783.6914063,-331.5429688,-491.6992188
5.3150,800.78125,-327.6367188,-490.234375
5.3200,810.546875,-326.6601563,-492.6757813
5.3250,819.3359375,-322.7539063,-478.515625
5.3300,824.7070313,-326.6601563,-479.0039063
5.3350,827.1484375,-326.171875,-474.609375
5.3400,819.3359375,-328.125,-458.4960938
5.3450,818.359375,-329.1015625,-468.2617188
5.3500,817.3828125,-326.171875,-465.8203125
5.3550,814.453125,-333.0078125,-464.84375
5.3600,820.8007813,-321.7773438,-456.5429688
5.3650,819.8242188,-320.3125,-472.65625
5.3700,818.8476563,-314.453125,-475.5859375
5.3750,822.7539063,-311.0351563,-471.1914063
5.3800,821.2890625,-300.2929688,-458.984375
5.3850,833.0078125,-292.96875,-458.984375
5.3900,836.4257813,-298.828125,-467.7734375
5.3950,842.2851563,-303.2226563,-464.3554688
5.4000,838.3789063,-308.1054688,-463.3789063
5.4050,837.890625,-315.9179688,-463.3789063
5.4100,841.3085938,-322.265625,-450.1953125
5.4150,841.796875,-326.6601563,-453.6132813
5.4200,832.03125,-343.2617188,-458.4960938
5.4250,831.5429688,-342.7734375,-451.6601563
5.4300,829.5898438,-339.3554688,-441.8945313
5.4350,838.8671875,-327.1484375,-440.9179688
5.4400,840.8203125,-314.9414063,-439.9414063
5.4450,841.796875,-306.1523438,-458.4960938
5.4500,839.84375,-302.734375,-440.9179688
5.4550,849.1210938,-295.8984375,-443.8476563
5.4600,851.0742188,-279.296875,-443.359375
5.4650,851.5625,-283.6914063,-455.078125
5.4700,859.375,-280.2734375,-445.8007813
5.4750,865.7226563,-284.1796875,-455.5664063
5.4800,867.6757813,-285.15625,-452.1484375
5.4850,866.6992188,-288.5742188,-439.9414063
5.4900,852.0507813,-294.921875,-441.40625
5.4950,859.8632813,-283.203125,-435.0585938
5.5000,855.9570313,-285.6445313,-423.3398438
5.5050,864.2578125,-280.2734375,-444.3359375
5.5100,863.28125,-274.4140625,-430.6640625
5.5150,853.0273438,-269.0429688,-419.4335938
5.5200,850.5859375,-272.9492188,-433.1054688
5.5250,854.0039063,-281.7382813,-433.59375
5.5300,869.6289063,-270.0195313,-440.9179688
5.5350,861.8164063,-278.3203125,-444.8242188
5.5400,867.6757813,-269.0429688,-440.4296875
5.5450,858.8867188,-281.7382813,-459.4726563
5.5500,865.7226563,-280.7617188,-447.265625
5.5550,873.046875,-279.296875,-453.6132813
5.5600,855.46875,-279.7851563,-428.7109375
5.5650,870.6054688,-263.671875,-447.265625
5.5700,862.3046875,-264.6484375,-426.2695313
5.5750,872.5585938,-259.765625,-417.96875
5.5800,871.09375,-267.0898438,-415.5273438
5.5850,867.1875,-269.0429688,-429.6875
5.5900,865.7226563,-271.9726563,-414.0625
5.5950,864.2578125,-270.5078125,-418.4570313
5.6000,858.3984375,-277.34375,-415.0390625
5.6050,862.7929688,-268.5546875,-410.6445313
5.6100,871.5820313,-274.9023438,-415.0390625
5.6150,869.6289063,-286.6210938,-433.1054688
5.6200,874.5117188,-277.8320313,-417.96875
5.6250,875.9765625,-277.8320313,-430.6640625
5.6300,866.6992188,-274.4140625,-424.8046875
5.6350,875.4882813,-261.2304688,-413.0859375
5.6400,878.90625,-261.2304688,-407.2265625
5.6450,879.8828125,-257.3242188,-405.7617188
5.6500,885.2539063,-257.8125,-419.921875
5.6550,895.0195313,-255.3710938,-418.4570313
5.6600,891.6015625,-260.2539063,-393.0664063
5.6650,886.2304688,-258.3007813,-394.53125
5.6700,882.3242188,-253.90625,-398.9257813
5.6750,877.9296875,-265.625,-395.5078125
5.6800,875.9765625,-271.484375,-404.296875
5.6850,875.4882813,-274.4140625,-394.0429688
5.6900,882.3242188,-261.2304688,-376.953125
5.6950,892.0898438,-259.765625,-386.71875
5.7000,900.390625,-259.2773438,-393.0664063
5.7050,908.6914063,-245.6054688,-390.1367188
5.7100,907.7148438,-241.2109375,-395.5078125
5.7150,905.2734375,-238.28125,-404.7851563
5.7200,900.390625,-229.4921875,-398.4375
5.7250,890.1367188,-219.7265625,-385.7421875
5.7300,890.1367188,-215.8203125,-386.71875
5.7350,896.9726563,-215.3320313,-384.765625
5.7400,893.5546875,-218.2617188,-384.2773438
5.7450,890.625,-220.703125,-395.9960938
5.7500,886.2304688,-216.796875,-374.0234375
5.7550,876.4648438,-219.2382813,-375.9765625
5.7600,879.8828125,-215.3320313,-367.1875
5.7650,882.3242188,-222.1679688,-364.7460938
5.7700,897.4609375,-219.2382813,-364.7460938
5.7750,898.4375,-239.2578125,-357.9101563
5.7800,907.7148438,-243.1640625,-357.421875
5.7850,919.4335938,-239.7460938,-373.046875
5.7900,917.96875,-243.1640625,-363.7695313
5.7950,922.8515625,-244.6289063,-378.90625
5.8000,919.921875,-237.7929688,-379.3945313
5.8050,921.875,-231.9335938,-384.2773438
5.8100,922.3632813,-227.0507813,-374.5117188
5.8150,921.875,-225.5859375,-375
5.8200,915.0390625,-224.609375,-370.6054688
5.8250,905.7617188,-223.6328125,-354.4921875
5.8300,895.5078125,-215.3320313,-345.703125
5.8350,882.8125,-233.8867188,-353.515625
5.8400,894.0429688,-222.1679688,-333.0078125
5.8450,901.8554688,-226.0742188,-352.0507813
5.8500,915.0390625,-233.3984375,-354.0039063
5.8550,916.9921875,-243.6523438,-361.328125
5.8600,921.3867188,-229.4921875,-365.234375
5.8650,919.921875,-226.5625,-362.3046875
5.8700,918.4570313,-223.1445313,-381.8359375
5.8750,921.875,-220.2148438,-384.765625
5.8800,910.15625,-223.1445313,-370.6054688
5.8850,908.6914063,-218.75,-366.2109375
5.8900,905.7617188,-205.078125,-372.5585938
5.8950,892.578125,-205.5664063,-363.7695313
5.9000,886.2304688,-189.453125,-344.2382813
5.9050,889.6484375,-190.9179688,-341.796875
5.9100,895.9960938,-181.1523438,-334.4726563
5.9150,890.625,-181.1523438,-326.6601563
5.9200,895.5078125,-181.1523438,-327.6367188
5.9250,904.296875,-189.453125,-339.84375
5.9300,909.1796875,-191.8945313,-343.75
5.9350,920.8984375,-194.3359375,-336.9140625
5.9400,924.3164063,-211.4257813,-364.2578125
5.9450,924.8046875,-215.8203125,-364.2578125
5.9500,933.59375,-202.1484375,-371.09375
5.9550,941.8945313,-189.453125,-355.9570313
5.9600,918.9453125,-203.6132813,-363.7695313
5.9650,919.921875,-208.0078125,-354.9804688
5.9700,918.9453125,-203.125,-331.5429688
5.9750,916.5039063,-188.9648438,-351.5625
5.9800,903.8085938,-185.0585938,-343.2617188
5.9850,905.7617188,-182.6171875,-343.2617188
5.9900,905.7617188,-184.0820313,-341.796875
5.9950,907.7148438,-201.6601563,-336.9140625
6.0000,916.9921875,-208.4960938,-322.265625
6.0050,918.4570313,-212.890625,-325.6835938
6.0100,927.734375,-206.0546875,-327.1484375
6.0150,927.734375,-201.171875,-339.84375
6.0200,934.5703125,-197.265625,-349.1210938
6.0250,936.5234375,-202.1484375,-338.8671875
6.0300,938.9648438,-202.6367188,-334.9609375
6.0350,941.8945313,-195.8007813,-336.9140625
6.0400,935.0585938,-184.5703125,-340.8203125
6.0450,933.1054688,-181.1523438,-349.609375
6.0500,929.1992188,-181.640625,-335.4492188
6.0550,929.6875,-177.734375,-336.4257813
6.0600,927.2460938,-180.6640625,-317.3828125
6.0650,930.6640625,-183.1054688,-325.1953125
6.0700,925.2929688,-189.453125,-316.40625
6.0750,942.3828125,-180.1757813,-327.6367188
6.0800,937.5,-191.40625,-321.7773438
6.0850,941.8945313,-186.0351563,-339.84375
6.0900,944.3359375,-190.9179688,-344.7265625
6.0950,945.3125,-182.1289063,-366.6992188
6.1000,944.8242188,-181.1523438,-353.0273438
6.1050,935.0585938,-183.1054688,-326.6601563
6.1100,939.453125,-165.5273438,-327.1484375
6.1150,935.546875,-165.0390625,-318.359375
6.1200,929.6875,-159.1796875,-319.3359375
6.1250,919.921875,-158.203125,-299.8046875
6.1300,917.4804688,-151.8554688,-311.5234375
6.1350,913.5742188,-162.109375,-320.3125
6.1400,910.15625,-165.0390625,-322.265625
6.1450,918.4570313,-166.9921875,-302.734375
6.1500,923.3398438,-175.2929688,-293.4570313
6.1550,933.1054688,-185.546875,-311.0351563
6.1600,926.7578125,-202.1484375,-295.8984375
6.1650,946.2890625,-195.3125,-329.5898438
6.1700,939.453125,-197.7539063,-327.6367188
6.1750,950.1953125,-201.6601563,-354.0039063
6.1800,947.265625,-200.6835938,-355.9570313
6.1850,951.171875,-199.7070313,-339.84375
6.1900,940.9179688,-201.6601563,-338.8671875
6.1950,953.6132813,-198.7304688,-328.125
6.2000,936.5234375,-200.6835938,-322.265625
6.2050,932.1289063,-190.9179688,-323.7304688
6.2100,924.8046875,-180.1757813,-310.0585938
6.2150,931.1523438,-168.9453125,-297.3632813
6.2200,934.0820313,-155.7617188,-294.921875
6.2250,942.3828125,-155.2734375,-268.5546875
6.2300,936.5234375,-161.1328125,-295.4101563
6.2350,940.9179688,-158.6914063,-296.3867188
6.2400,938.4765625,-158.203125,-302.734375
6.2450,940.4296875,-159.6679688,-307.6171875
6.2500,940.9179688,-151.3671875,-316.40625
6.2550,939.9414063,-155.7617188,-303.7109375
6.2600,940.9179688,-146.9726563,-319.8242188
6.2650,928.7109375,-151.3671875,-330.078125
6.2700,932.1289063,-145.9960938,-319.3359375
6.2750,929.6875,-141.6015625,-321.7773438
6.2800,937.0117188,-133.3007813,-306.640625
6.2850,936.0351563,-136.71875,-299.8046875
6.2900,924.8046875,-139.6484375,-301.7578125
6.2950,930.1757813,-141.6015625,-291.015625
6.3000,921.3867188,-146.9726563,-304.1992188
6.3050,927.2460938,-149.4140625,-303.7109375
6.3100,933.59375,-148.9257813,-294.4335938
6.3150,927.734375,-157.2265625,-303.2226563
6.3200,936.5234375,-153.3203125,-296.875
6.3250,925.2929688,-158.203125,-317.3828125
6.3300,932.1289063,-161.6210938,-302.2460938
6.3350,930.6640625,-162.109375,-312.0117188
6.3400,937.0117188,-156.7382813,-297.3632813
6.3450,926.2695313,-160.15625,-292.96875
6.3500,934.0820313,-149.4140625,-294.921875
6.3550,928.2226563,-151.8554688,-322.7539063
6.3600,936.0351563,-149.9023438,-323.7304688
6.3650,938.4765625,-154.7851563,-307.1289063
6.3700,934.5703125,-163.5742188,-314.453125
6.3750,940.9179688,-166.015625,-297.3632813
6.3800,940.4296875,-163.5742188,-288.5742188
6.3850,936.5234375,-159.6679688,-279.296875
6.3900,928.2226563,-161.6210938,-273.9257813
6.3950,940.4296875,-159.6679688,-273.4375
6.4000,948.2421875,-161.1328125,-277.34375
6.4050,958.4960938,-166.015625,-294.921875
6.4100,967.7734375,-166.015625,-290.5273438
6.4150,965.3320313,-171.3867188,-302.734375
6.4200,962.4023438,-173.3398438,-293.4570313
6.4250,963.8671875,-170.4101563,-293.4570313
6.4300,955.5664063,-171.3867188,-296.3867188
6.4350,948.2421875,-171.3867188,-303.2226563
6.4400,950.1953125,-175.78125,-304.1992188
6.4450,954.5898438,-176.7578125,-303.7109375
6.4500,957.03125,-174.8046875,-299.3164063
6.4550,959.4726563,-172.3632813,-288.0859375
6.4600,961.4257813,-170.4101563,-291.5039063
6.4650,958.0078125,-164.5507813,-254.3945313
6.4700,950.1953125,-161.6210938,-269.53125
6.4750,946.2890625,-160.15625,-270.9960938
6.4800,945.3125,-160.15625,-268.0664063
6.4850,951.6601563,-152.34375,-260.2539063
6.4900,952.1484375,-147.4609375,-264.6484375
6.4950,946.2890625,-148.4375,-272.4609375
6.5000,947.265625,-136.2304688,-282.7148438
6.5050,951.171875,-140.1367188,-294.921875
6.5100,956.0546875,-131.3476563,-300.2929688
6.5150,956.5429688,-121.5820313,-325.1953125
6.5200,941.8945313,-123.046875,-311.0351563
6.5250,933.59375,-118.6523438,-290.5273438
6.5300,933.1054688,-106.9335938,-305.6640625
6.5350,922.3632813,-99.12109375,-287.109375
6.5400,918.9453125,-98.14453125,-281.7382813
6.5450,920.4101563,-96.19140625,-274.9023438
6.5500,922.8515625,-108.3984375,-265.1367188
6.5550,933.1054688,-115.234375,-277.8320313
6.5600,933.1054688,-125.9765625,-262.2070313
6.5650,935.546875,-123.5351563,-282.7148438
6.5700,928.2226563,-127.4414063,-284.6679688
6.5750,928.7109375,-137.2070313,-289.5507813
6.5800,935.0585938,-138.671875,-271.9726563
6.5850,930.6640625,-144.0429688,-271.9726563
6.5900,928.7109375,-144.53125,-260.7421875
6.5950,942.3828125,-132.3242188,-255.3710938
6.6000,944.8242188,-134.2773438,-252.9296875
6.6050,957.03125,-132.3242188,-278.3203125
6.6100,957.03125,-140.625,-266.6015625
6.6150,969.7265625,-138.1835938,-268.5546875
6.6200,960.9375,-151.3671875,-286.6210938
6.6250,974.1210938,-149.4140625,-277.34375
6.6300,972.65625,-159.1796875,-295.4101563
6.6350,974.609375,-158.6914063,-320.8007813
6.6400,962.4023438,-163.5742188,-324.7070313
6.6450,948.2421875,-154.296875,-320.8007813
6.6500,934.5703125,-148.4375,-302.2460938
6.6550,921.875,-139.1601563,-299.8046875
6.6600,912.109375,-126.4648438,-285.15625
6.6650,926.7578125,-107.9101563,-261.71875
6.6700,921.875,-108.3984375,-248.046875
6.6750,923.3398438,-102.0507813,-228.515625
6.6800,933.1054688,-84.9609375,-228.0273438
6.6850,939.453125,-82.51953125,-230.9570313
6.6900,947.265625,-89.35546875,-234.8632813
6.6950,975.5859375,-99.12109375,-248.5351563
6.7000,988.7695313,-110.8398438,-262.6953125
6.7050,989.7460938,-130.859375,-275.390625
6.7100,989.7460938,-143.0664063,-295.8984375
6.7150,990.234375,-153.8085938,-299.8046875
6.7200,975.5859375,-163.0859375,-305.1757813
6.7250,977.0507813,-161.6210938,-311.5234375
6.7300,967.7734375,-166.9921875,-315.9179688
6.7350,957.03125,-165.0390625,-317.8710938
6.7400,947.7539063,-154.296875,-297.8515625
6.7450,937.5,-149.4140625,-302.734375
6.7500,938.9648438,-125.9765625,-283.6914063
6.7550,937.0117188,-117.6757813,-270.5078125
6.7600,947.7539063,-98.6328125,-261.71875
6.7650,951.6601563,-99.609375,-248.5351563
6.7700,942.8710938,-107.421875,-254.3945313
6.7750,951.171875,-107.9101563,-261.71875
6.7800,957.5195313,-110.8398438,-248.5351563
6.7850,960.9375,-118.1640625,-282.2265625
6.7900,956.5429688,-137.6953125,-288.0859375
6.7950,969.7265625,-146.484375,-298.3398438
6.8000,950.1953125,-163.0859375,-301.7578125
6.8050,950.6835938,-168.9453125,-322.7539063
6.8100,939.9414063,-174.3164063,-319.3359375
6.8150,930.1757813,-175.2929688,-327.1484375
6.8200,925.78125,-165.5273438,-304.1992188
6.8250,933.1054688,-146.484375,-298.828125
6.8300,940.4296875,-118.6523438,-298.3398438
6.8350,943.359375,-112.3046875,-289.5507813
6.8400,936.5234375,-103.515625,-268.0664063
6.8450,946.2890625,-88.37890625,-256.3476563
6.8500,951.171875,-84.47265625,-276.3671875
6.8550,960.4492188,-84.47265625,-275.8789063
6.8600,958.0078125,-97.65625,-277.34375
6.8650,958.984375,-111.8164063,-295.4101563
6.8700,951.171875,-131.3476563,-297.8515625
6.8750,960.4492188,-129.8828125,-300.2929688
6.8800,947.7539063,-145.0195313,-289.0625
6.8850,951.6601563,-145.5078125,-286.6210938
6.8900,943.359375,-140.1367188,-288.0859375
6.8950,950.6835938,-134.2773438,-289.5507813
6.9000,947.265625,-138.1835938,-269.0429688
6.9050,954.1015625,-120.1171875,-273.9257813
6.9100,963.3789063,-104.0039063,-257.8125
6.9150,958.984375,-87.890625,-248.046875
6.9200,964.84375,-72.75390625,-246.09375
6.9250,959.9609375,-84.47265625,-249.0234375
6.9300,977.5390625,-67.3828125,-248.046875
6.9350,974.1210938,-77.63671875,-248.046875
6.9400,980.9570313,-72.265625,-244.6289063
6.9450,981.9335938,-78.125,-242.1875
6.9500,986.328125,-91.30859375,-252.4414063
6.9550,1000.976563,-85.44921875,-258.3007813
6.9600,1002.929688,-93.75,-261.2304688
6.9650,1001.464844,-99.12109375,-277.8320313
6.9700,995.1171875,-100.0976563,-283.6914063
6.9750,987.3046875,-101.5625,-293.4570313
6.9800,974.609375,-94.23828125,-291.5039063
6.9850,974.609375,-84.47265625,-289.0625
6.9900,968.2617188,-81.54296875,-289.0625
6.9950,968.75,-73.2421875,-273.4375
7.0000,969.2382813,-62.98828125,-276.8554688
7.0050,964.84375,-72.75390625,-267.0898438
7.0100,959.4726563,-71.77734375,-259.765625
7.0150,968.75,-74.70703125,-242.6757813
7.0200,971.6796875,-73.73046875,-229.9804688
7.0250,973.6328125,-83.49609375,-214.84375
7.0300,975.0976563,-91.30859375,-209.9609375
7.0350,986.328125,-98.14453125,-209.9609375
7.0400,987.7929688,-104.4921875,-224.609375
7.0450,983.3984375,-113.28125,-239.7460938
7.0500,979.4921875,-120.6054688,-236.328125
7.0550,974.1210938,-125.9765625,-265.1367188
7.0600,960.9375,-125.4882813,-280.2734375
7.0650,954.5898438,-117.1875,-288.5742188
7.0700,939.9414063,-108.3984375,-307.6171875
7.0750,934.5703125,-106.9335938,-318.8476563
7.0800,920.8984375,-107.421875,-357.9101563
7.0850,919.921875,-89.84375,-359.8632813
7.0900,913.0859375,-73.2421875,-362.3046875
7.0950,911.6210938,-77.63671875,-360.8398438
7.1000,916.015625,-73.2421875,-330.078125
7.1050,925.78125,-79.1015625,-329.1015625
7.1100,934.5703125,-90.8203125,-337.4023438
7.1150,942.8710938,-105.9570313,-306.1523438
7.1200,934.5703125,-131.8359375,-300.2929688
7.1250,950.1953125,-142.578125,-283.6914063
7.1300,953.6132813,-155.7617188,-283.203125
7.1350,959.4726563,-159.1796875,-283.6914063
7.1400,964.3554688,-163.0859375,-276.3671875
7.1450,958.984375,-175.2929688,-291.9921875
7.1500,963.8671875,-169.4335938,-289.5507813
7.1550,955.078125,-171.3867188,-320.3125
7.1600,941.8945313,-155.7617188,-327.6367188
7.1650,930.1757813,-144.0429688,-351.5625
7.1700,918.9453125,-145.9960938,-347.1679688
7.1750,925.78125,-116.2109375,-358.8867188
7.1800,924.8046875,-106.9335938,-366.2109375
7.1850,924.8046875,-95.703125,-364.2578125
7.1900,918.4570313,-90.8203125,-348.6328125
7.1950,918.9453125,-85.44921875,-321.7773438
7.2000,915.5273438,-86.9140625,-332.5195313
7.2050,927.2460938,-82.51953125,-307.1289063
7.2100,931.640625,-84.9609375,-298.828125
7.2150,946.7773438,-73.2421875,-278.8085938
7.2200,950.1953125,-75.1953125,-266.1132813
7.2250,950.6835938,-62.98828125,-269.0429688
7.2300,953.125,-65.91796875,-271.484375
7.2350,952.6367188,-76.171875,-284.1796875
7.2400,958.984375,-75.68359375,-275.8789063
7.2450,955.078125,-86.42578125,-287.5976563
7.2500,955.5664063,-93.26171875,-295.4101563
7.2550,945.8007813,-101.5625,-291.5039063
7.2600,954.1015625,-102.0507813,-286.1328125
7.2650,958.4960938,-108.3984375,-287.5976563
7.2700,960.9375,-107.9101563,-287.109375
7.2750,966.796875,-99.609375,-305.6640625
7.2800,965.8203125,-90.8203125,-288.5742188
7.2850,961.4257813,-87.890625,-304.6875
7.2900,955.078125,-85.44921875,-309.0820313
7.2950,949.21875,-90.33203125,-326.171875
7.3000,944.8242188,-83.49609375,-326.171875
7.3050,935.546875,-91.796875,-332.5195313
7.3100,940.9179688,-91.30859375,-320.8007813
7.3150,948.7304688,-94.7265625,-308.1054688
7.3200,946.2890625,-102.0507813,-313.9648438
7.3250,952.1484375,-112.7929688,-313.9648438
7.3300,949.21875,-110.8398438,-320.3125
7.3350,955.5664063,-113.7695313,-325.1953125
7.3400,941.8945313,-112.7929688,-309.0820313
7.3450,939.9414063,-111.328125,-305.1757813
7.3500,945.3125,-99.12109375,-287.5976563
7.3550,953.125,-97.16796875,-285.15625
7.3600,960.9375,-88.37890625,-254.3945313
7.3650,968.75,-69.3359375,-261.71875
7.3700,971.1914063,-60.05859375,-271.9726563
7.3750,970.703125,-62.5,-266.1132813
7.3800,963.8671875,-64.94140625,-267.0898438
7.3850,950.6835938,-77.63671875,-296.3867188
7.3900,945.3125,-81.54296875,-299.8046875
7.3950,945.3125,-82.51953125,-310.0585938
7.4000,949.7070313,-83.49609375,-306.1523438
7.4050,949.21875,-87.40234375,-303.2226563
7.4100,959.9609375,-87.890625,-289.5507813
7.4150,959.9609375,-94.7265625,-304.6875
7.4200,963.3789063,-89.35546875,-306.640625
7.4250,952.6367188,-89.35546875,-313.4765625
7.4300,937.9882813,-99.609375,-309.5703125
7.4350,937.5,-92.7734375,-311.0351563
7.4400,935.546875,-95.21484375,-298.828125
7.4450,942.3828125,-80.56640625,-293.9453125
7.4500,955.5664063,-69.82421875,-299.3164063
7.4550,946.2890625,-67.87109375,-291.9921875
7.4600,950.1953125,-63.96484375,-293.4570313
7.4650,951.171875,-68.84765625,-301.7578125
7.4700,942.8710938,-75.68359375,-305.6640625
7.4750,934.5703125,-85.9375,-321.7773438
7.4800,937.5,-84.47265625,-306.1523438
7.4850,947.7539063,-88.37890625,-315.4296875
7.4900,952.6367188,-84.9609375,-301.2695313
7.4950,955.078125,-92.28515625,-311.0351563
7.5000,954.5898438,-98.14453125,-291.9921875
7.5050,956.0546875,-93.26171875,-294.921875
7.5100,945.8007813,-98.14453125,-306.640625
7.5150,939.453125,-99.609375,-302.734375
7.5200,932.6171875,-93.75,-307.6171875
7.5250,930.6640625,-90.8203125,-301.2695313
7.5300,930.1757813,-90.8203125,-301.2695313
7.5350,924.3164063,-86.9140625,-285.6445313
7.5400,944.3359375,-68.84765625,-305.1757813
7.5450,939.9414063,-63.96484375,-293.4570313
7.5500,936.0351563,-66.40625,-299.8046875
7.5550,938.4765625,-63.4765625,-308.1054688
7.5600,930.6640625,-66.89453125,-309.5703125
7.5650,943.8476563,-70.3125,-302.734375
7.5700,937.0117188,-80.078125,-298.828125
7.5750,946.7773438,-76.66015625,-295.8984375
7.5800,950.1953125,-76.171875,-300.78125
7.5850,947.7539063,-87.40234375,-294.921875
7.5900,954.1015625,-85.44921875,-301.2695313
7.5950,948.7304688,-98.14453125,-289.5507813
7.6000,954.5898438,-88.37890625,-298.828125
7.6050,957.5195313,-86.9140625,-287.5976563
7.6100,955.5664063,-79.1015625,-291.9921875
7.6150,946.2890625,-85.9375,-277.8320313
7.6200,957.03125,-73.2421875,-285.15625
7.6250,961.4257813,-69.3359375,-286.1328125
7.6300,962.4023438,-69.3359375,-274.9023438
7.6350,967.2851563,-74.21875,-288.5742188
7.6400,961.9140625,-68.359375,-297.8515625
7.6450,967.2851563,-81.0546875,-290.5273438
7.6500,968.2617188,-75.68359375,-289.0625
7.6550,977.5390625,-82.51953125,-290.0390625
7.6600,973.1445313,-88.37890625,-294.921875
7.6650,977.5390625,-87.890625,-301.2695313
7.6700,976.0742188,-89.84375,-297.3632813
7.6750,974.609375,-84.47265625,-304.1992188
7.6800,966.796875,-86.9140625,-299.3164063
7.6850,967.7734375,-78.125,-294.921875
7.6900,964.84375,-72.265625,-305.1757813
7.6950,961.9140625,-71.77734375,-291.015625
7.7000,954.1015625,-71.77734375,-291.5039063
7.7050,957.03125,-67.3828125,-274.9023438
7.7100,953.125,-69.3359375,-291.015625
7.7150,966.796875,-52.734375,-265.625
7.7200,947.265625,-66.40625,-286.1328125
7.7250,953.125,-60.05859375,-271.9726563
7.7300,955.5664063,-60.05859375,-283.203125
7.7350,942.3828125,-77.1484375,-294.921875
7.7400,946.7773438,-65.91796875,-293.9453125
7.7450,944.8242188,-69.82421875,-291.015625
7.7500,938.4765625,-75.1953125,-288.0859375
7.7550,944.8242188,-74.21875,-286.6210938
7.7600,951.171875,-64.94140625,-294.4335938
7.7650,948.7304688,-65.91796875,-275.390625
7.7700,948.2421875,-63.4765625,-296.3867188
7.7750,954.1015625,-61.03515625,-279.296875
7.7800,954.1015625,-58.59375,-280.7617188
7.7850,956.5429688,-61.5234375,-283.203125
7.7900,954.1015625,-64.94140625,-274.4140625
7.7950,954.1015625,-65.4296875,-279.7851563
7.8000,949.7070313,-65.91796875,-283.6914063
7.8050,953.125,-66.89453125,-287.5976563
7.8100,947.265625,-72.75390625,-281.25
7.8150,958.4960938,-65.91796875,-276.8554688
7.8200,959.9609375,-56.640625,-303.7109375
7.8250,957.5195313,-53.7109375,-288.5742188
7.8300,958.0078125,-56.15234375,-281.25
7.8350,959.4726563,-54.19921875,-297.3632813
7.8400,958.0078125,-56.640625,-280.2734375
7.8450,955.5664063,-63.96484375,-288.0859375
7.8500,952.6367188,-68.84765625,-287.109375
7.8550,957.03125,-63.96484375,-268.0664063
7.8600,958.4960938,-65.91796875,-295.8984375
7.8650,975.5859375,-51.7578125,-291.5039063
7.8700,961.4257813,-62.98828125,-281.7382813
7.8750,961.9140625,-64.453125,-310.0585938
7.8800,953.125,-66.40625,-293.4570313
7.8850,951.6601563,-75.68359375,-299.8046875
7.8900,954.5898438,-70.3125,-294.4335938
7.8950,956.0546875,-72.75390625,-304.6875
7.9000,955.078125,-73.2421875,-290.0390625
7.9050,969.2382813,-57.6171875,-289.5507813
7.9100,962.4023438,-60.546875,-284.1796875
7.9150,957.03125,-57.6171875,-296.3867188
7.9200,959.9609375,-52.24609375,-281.25
7.9250,954.5898438,-62.98828125,-302.2460938
7.9300,959.4726563,-59.5703125,-292.96875
7.9350,959.4726563,-69.82421875,-281.7382813
7.9400,964.84375,-64.453125,-275.390625
7.9450,969.7265625,-62.98828125,-285.6445313
7.9500,970.703125,-63.4765625,-279.7851563
7.9550,973.6328125,-59.5703125,-273.9257813
7.9600,973.1445313,-57.12890625,-282.7148438
7.9650,966.796875,-53.22265625,-281.7382813
7.9700,969.2382813,-43.9453125,-285.15625
7.9750,966.3085938,-47.8515625,-284.6679688
7.9800,964.84375,-45.41015625,-289.5507813
7.9850,959.4726563,-50.78125,-275.390625
7.9900,963.8671875,-47.8515625,-277.34375
7.9950,963.3789063,-52.734375,-280.2734375
8.0000,965.8203125,-68.359375,-282.7148438
8.0050,965.8203125,-69.3359375,-280.7617188
8.0100,963.8671875,-66.40625,-291.9921875
8.0150,967.7734375,-68.359375,-276.3671875
8.0200,971.1914063,-48.828125,-271.9726563
8.0250,959.4726563,-54.6875,-282.7148438
8.0300,953.125,-58.59375,-273.4375
8.0350,953.6132813,-55.6640625,-296.875
8.0400,946.2890625,-59.5703125,-300.78125
8.0450,945.8007813,-62.5,-299.3164063
8.0500,950.1953125,-57.6171875,-301.2695313
8.0550,951.6601563,-66.40625,-307.1289063
8.0600,946.7773438,-73.73046875,-290.0390625
8.0650,955.078125,-63.96484375,-298.3398438
8.0700,966.3085938,-58.10546875,-290.5273438
8.0750,959.4726563,-63.4765625,-287.109375
8.0800,964.84375,-54.6875,-295.4101563
8.0850,962.4023438,-55.6640625,-295.4101563
8.0900,964.84375,-53.22265625,-284.6679688
8.0950,960.4492188,-58.59375,-280.2734375
8.1000,956.5429688,-54.19921875,-263.1835938
8.1050,967.2851563,-40.52734375,-283.6914063
8.1100,967.2851563,-41.50390625,-279.7851563
8.1150,973.6328125,-34.1796875,-272.9492188
8.1200,977.0507813,-31.25,-271.9726563
8.1250,974.609375,-41.9921875,-273.4375
8.1300,969.2382813,-49.8046875,-268.0664063
8.1350,971.1914063,-57.12890625,-260.2539063
8.1400,969.7265625,-60.546875,-279.296875
8.1450,971.1914063,-64.94140625,-273.9257813
8.1500,973.1445313,-59.5703125,-277.34375
8.1550,963.8671875,-71.2890625,-282.2265625
8.1600,955.5664063,-70.80078125,-275.390625
8.1650,960.9375,-63.4765625,-295.4101563
8.1700,961.9140625,-59.08203125,-291.015625
8.1750,956.5429688,-60.05859375,-288.5742188
8.1800,958.984375,-54.6875,-284.1796875
8.1850,958.4960938,-55.6640625,-291.5039063
8.1900,952.6367188,-52.734375,-285.6445313
8.1950,955.078125,-53.22265625,-290.5273438
8.2000,955.078125,-52.734375,-289.5507813
8.2050,956.5429688,-64.453125,-296.3867188
8.2100,951.171875,-64.453125,-301.2695313
8.2150,940.9179688,-71.2890625,-299.8046875
8.2200,945.8007813,-72.75390625,-296.875
8.2250,947.265625,-68.84765625,-298.3398438
8.2300,939.9414063,-69.3359375,-292.96875
8.2350,948.7304688,-65.91796875,-293.9453125
8.2400,948.2421875,-64.94140625,-306.1523438
8.2450,954.5898438,-61.5234375,-299.3164063
8.2500,945.3125,-64.94140625,-310.546875
8.2550,952.6367188,-75.68359375,-301.7578125
8.2600,951.171875,-76.66015625,-319.8242188
8.2650,955.078125,-77.63671875,-301.2695313
8.2700,952.1484375,-79.1015625,-313.4765625
8.2750,954.5898438,-82.03125,-304.6875
8.2800,955.078125,-82.51953125,-317.3828125
8.2850,960.4492188,-79.1015625,-319.3359375
8.2900,954.5898438,-76.171875,-304.6875
8.2950,951.6601563,-78.61328125,-317.3828125
8.3000,953.6132813,-67.87109375,-295.8984375
8.3050,942.8710938,-75.68359375,-311.5234375
8.3100,954.1015625,-60.05859375,-287.5976563
8.3150,954.1015625,-62.01171875,-308.59375
8.3200,955.078125,-62.5,-293.9453125
8.3250,953.125,-57.6171875,-295.4101563
8.3300,945.3125,-61.5234375,-290.5273438
8.3350,953.6132813,-59.08203125,-285.15625
8.3400,951.171875,-66.89453125,-290.5273438
8.3450,960.9375,-64.453125,-284.1796875
8.3500,954.1015625,-68.84765625,-298.3398438
8.3550,958.984375,-73.73046875,-298.828125
8.3600,958.4960938,-73.2421875,-296.875
8.3650,951.6601563,-78.125,-301.2695313
8.3700,957.03125,-74.21875,-287.5976563
8.3750,958.0078125,-76.171875,-304.6875
8.3800,950.1953125,-79.58984375,-283.203125
8.3850,956.0546875,-79.1015625,-298.3398438
8.3900,957.5195313,-80.56640625,-292.4804688
8.3950,959.9609375,-83.984375,-287.5976563
8.4000,958.984375,-71.2890625,-295.4101563
8.4050,958.984375,-71.77734375,-303.2226563
8.4100,966.3085938,-67.87109375,-291.015625
8.4150,970.703125,-64.453125,-282.2265625
8.4200,958.0078125,-64.94140625,-287.109375
8.4250,953.125,-57.12890625,-294.4335938
8.4300,956.0546875,-59.5703125,-285.6445313
8.4350,950.6835938,-66.40625,-287.5976563
8.4400,958.0078125,-66.89453125,-287.109375
8.4450,958.4960938,-74.70703125,-291.015625
8.4500,958.0078125,-76.66015625,-295.8984375
8.4550,963.8671875,-75.1953125,-297.3632813
8.4600,959.4726563,-70.80078125,-292.4804688
8.4650,954.1015625,-78.125,-288.0859375
8.4700,961.9140625,-69.82421875,-280.2734375
8.4750,965.3320313,-66.40625,-295.8984375
8.4800,958.0078125,-68.359375,-282.2265625
8.4850,954.5898438,-74.21875,-290.5273438
8.4900,958.4960938,-81.54296875,-285.15625
8.4950,959.4726563,-83.0078125,-272.9492188
8.5000,958.0078125,-83.0078125,-288.0859375
8.5050,959.9609375,-81.0546875,-292.96875
8.5100,951.6601563,-87.890625,-297.8515625
8.5150,970.2148438,-81.0546875,-282.2265625
8.5200,966.3085938,-85.9375,-295.4101563
8.5250,962.4023438,-84.47265625,-284.1796875
8.5300,965.3320313,-83.984375,-290.0390625
8.5350,961.4257813,-91.796875,-280.7617188
8.5400,962.890625,-91.30859375,-274.9023438
8.5450,960.9375,-96.19140625,-272.9492188
8.5500,958.0078125,-95.703125,-276.3671875
8.5550,958.4960938,-93.75,-279.7851563
8.5600,955.5664063,-95.21484375,-306.1523438
8.5650,954.5898438,-96.19140625,-274.9023438
8.5700,951.171875,-96.19140625,-296.3867188
8.5750,949.7070313,-88.8671875,-290.0390625
8.5800,949.7070313,-80.078125,-296.3867188
8.5850,942.8710938,-85.9375,-299.8046875
8.5900,947.7539063,-80.56640625,-295.4101563
8.5950,948.2421875,-82.03125,-293.4570313
8.6000,945.8007813,-83.49609375,-288.0859375
8.6050,948.7304688,-90.33203125,-290.5273438
8.6100,949.7070313,-90.8203125,-280.7617188
8.6150,947.7539063,-95.21484375,-291.015625
8.6200,947.7539063,-88.37890625,-277.8320313
8.6250,946.7773438,-96.19140625,-280.7617188
8.6300,949.21875,-90.8203125,-271.9726563
8.6350,951.171875,-98.14453125,-274.9023438
8.6400,953.6132813,-88.8671875,-280.2734375
8.6450,957.03125,-89.35546875,-274.9023438
8.6500,956.5429688,-89.84375,-294.4335938
8.6550,955.5664063,-97.16796875,-284.1796875
8.6600,952.6367188,-98.14453125,-287.5976563
8.6650,956.5429688,-92.28515625,-283.203125
8.6700,954.5898438,-92.7734375,-295.8984375
8.6750,957.03125,-99.12109375,-295.4101563
8.6800,946.2890625,-98.6328125,-290.0390625
8.6850,950.1953125,-91.796875,-292.96875
8.6900,956.5429688,-88.8671875,-283.6914063
8.6950,952.6367188,-99.609375,-292.96875
8.7000,961.4257813,-90.8203125,-263.1835938
8.7050,958.4960938,-95.21484375,-282.2265625
8.7100,951.171875,-91.30859375,-296.3867188
8.7150,952.1484375,-97.65625,-272.9492188
8.7200,941.40625,-104.4921875,-272.4609375
8.7250,951.171875,-100.0976563,-268.5546875
8.7300,946.7773438,-101.5625,-272.4609375
8.7350,949.7070313,-99.12109375,-280.7617188
8.7400,946.7773438,-109.8632813,-275.8789063
8.7450,958.0078125,-115.7226563,-280.7617188
8.7500,961.9140625,-113.7695313,-272.9492188
8.7550,972.65625,-114.7460938,-283.203125
8.7600,968.2617188,-118.6523438,-291.9921875
8.7650,970.2148438,-111.328125,-292.4804688
8.7700,957.5195313,-116.2109375,-281.25
8.7750,958.0078125,-118.1640625,-294.921875
8.7800,955.078125,-110.8398438,-281.7382813
8.7850,955.078125,-115.7226563,-290.5273438
8.7900,964.84375,-110.3515625,-287.5976563
8.7950,962.890625,-104.9804688,-291.5039063
8.8000,952.6367188,-105.46875,-280.2734375
8.8050,939.9414063,-107.9101563,-272.9492188
8.8100,943.8476563,-108.8867188,-264.6484375
8.8150,949.7070313,-113.28125,-247.0703125
8.8200,963.8671875,-105.46875,-262.2070313
8.8250,961.9140625,-106.4453125,-282.7148438
8.8300,960.4492188,-102.5390625,-279.7851563
8.8350,958.4960938,-105.46875,-298.828125
8.8400,958.4960938,-102.5390625,-281.25
8.8450,952.1484375,-117.1875,-288.0859375
8.8500,949.7070313,-116.6992188,-289.5507813
8.8550,954.5898438,-118.1640625,-294.4335938
8.8600,949.21875,-124.5117188,-298.828125
8.8650,948.2421875,-125.9765625,-293.4570313
8.8700,956.0546875,-125,-283.203125
8.8750,958.0078125,-122.5585938,-285.6445313
8.8800,956.0546875,-115.234375,-284.1796875
8.8850,946.7773438,-121.09375,-276.8554688
8.8900,953.6132813,-113.7695313,-280.7617188
8.8950,950.1953125,-122.0703125,-281.7382813
8.9000,949.21875,-134.765625,-269.0429688
8.9050,949.7070313,-134.2773438,-284.6679688
8.9100,953.125,-134.2773438,-285.15625
8.9150,947.7539063,-133.7890625,-286.1328125
8.9200,941.40625,-135.2539063,-271.9726563
8.9250,938.4765625,-138.671875,-294.921875
8.9300,940.4296875,-127.9296875,-279.296875
8.9350,948.7304688,-126.4648438,-279.296875
8.9400,946.2890625,-124.5117188,-278.3203125
8.9450,947.7539063,-134.2773438,-276.3671875
8.9500,955.078125,-131.8359375,-278.3203125
8.9550,956.5429688,-136.2304688,-278.8085938
8.9600,953.6132813,-131.8359375,-269.0429688
8.9650,950.1953125,-135.7421875,-279.296875
8.9700,951.171875,-123.5351563,-270.9960938
8.9750,950.6835938,-123.5351563,-295.4101563
8.9800,946.2890625,-124.0234375,-291.015625
8.9850,950.1953125,-130.859375,-287.109375
8.9900,954.5898438,-127.4414063,-280.7617188
8.9950,948.7304688,-131.8359375,-278.8085938
9.0000,935.546875,-139.6484375,-283.203125
9.0050,946.7773438,-134.765625,-281.25
9.0100,951.6601563,-136.71875,-279.7851563
9.0150,954.1015625,-142.578125,-286.6210938
9.0200,963.3789063,-145.0195313,-290.5273438
9.0250,957.03125,-150.390625,-298.3398438
9.0300,958.4960938,-143.5546875,-299.8046875
9.0350,950.6835938,-147.4609375,-288.0859375
9.0400,954.1015625,-134.765625,-281.7382813
9.0450,951.6601563,-127.9296875,-286.6210938
9.0500,941.40625,-133.7890625,-281.7382813
9.0550,940.9179688,-136.2304688,-295.8984375
9.0600,935.546875,-139.6484375,-279.296875
9.0650,936.5234375,-140.625,-290.5273438
9.0700,938.9648438,-145.0195313,-284.1796875
9.0750,944.8242188,-159.6679688,-282.7148438
9.0800,957.5195313,-154.7851563,-286.6210938
9.0850,959.4726563,-157.2265625,-286.6210938
9.0900,949.7070313,-167.4804688,-298.3398438
9.0950,951.6601563,-162.109375,-292.96875
9.1000,940.4296875,-173.3398438,-302.2460938
9.1050,948.7304688,-166.5039063,-296.875
9.1100,945.8007813,-162.5976563,-278.3203125
9.1150,957.03125,-162.5976563,-283.203125
9.1200,954.1015625,-157.7148438,-273.4375
9.1250,944.8242188,-165.0390625,-295.8984375
9.1300,958.0078125,-161.1328125,-295.8984375
9.1350,946.2890625,-170.4101563,-293.4570313
9.1400,942.8710938,-168.9453125,-297.3632813
9.1450,939.453125,-174.3164063,-294.4335938
9.1500,934.0820313,-166.9921875,-299.8046875
9.1550,944.3359375,-166.015625,-282.7148438
9.1600,944.8242188,-170.8984375,-284.1796875
9.1650,945.8007813,-168.4570313,-293.4570313
9.1700,946.2890625,-161.6210938,-296.3867188
9.1750,948.7304688,-163.5742188,-297.8515625
9.1800,948.2421875,-161.1328125,-300.2929688
9.1850,943.359375,-159.1796875,-295.4101563
9.1900,947.265625,-162.109375,-304.1992188
9.1950,944.3359375,-174.3164063,-294.4335938
9.2000,949.7070313,-181.1523438,-293.4570313
9.2050,950.1953125,-193.8476563,-299.8046875
9.2100,956.0546875,-187.5,-310.546875
9.2150,950.1953125,-193.8476563,-314.453125
9.2200,943.359375,-193.8476563,-298.828125
9.2250,933.1054688,-187.0117188,-296.875
9.2300,923.828125,-176.7578125,-306.1523438
9.2350,924.8046875,-181.640625,-289.0625
9.2400,931.640625,-179.6875,-283.6914063
9.2450,929.1992188,-178.7109375,-291.015625
9.2500,933.59375,-178.7109375,-316.8945313
9.2550,934.5703125,-180.6640625,-307.6171875
9.2600,937.0117188,-177.2460938,-299.8046875
9.2650,930.6640625,-190.9179688,-319.3359375
9.2700,931.1523438,-197.265625,-307.6171875
9.2750,940.4296875,-186.5234375,-301.7578125
9.2800,936.0351563,-189.453125,-300.2929688
9.2850,940.9179688,-195.8007813,-296.3867188
9.2900,946.2890625,-197.7539063,-284.1796875
9.2950,945.8007813,-205.078125,-293.4570313
9.3000,945.8007813,-204.5898438,-299.3164063
9.3050,939.9414063,-208.0078125,-295.8984375
9.3100,945.3125,-203.6132813,-299.3164063
9.3150,949.7070313,-198.7304688,-304.1992188
9.3200,938.9648438,-204.5898438,-320.3125
9.3250,935.546875,-205.078125,-314.453125
9.3300,927.2460938,-206.0546875,-323.7304688
9.3350,936.0351563,-197.265625,-305.1757813
9.3400,923.828125,-187.9882813,-308.1054688
9.3450,930.1757813,-181.640625,-301.7578125
9.3500,926.2695313,-185.0585938,-309.5703125
9.3550,928.7109375,-196.7773438,-312.0117188
9.3600,929.1992188,-202.1484375,-299.3164063
9.3650,926.7578125,-204.1015625,-306.640625
9.3700,922.8515625,-214.84375,-298.3398438
9.3750,919.921875,-223.6328125,-310.0585938
9.3800,923.3398438,-216.796875,-283.6914063
9.3850,924.8046875,-228.0273438,-290.0390625
9.3900,920.8984375,-229.9804688,-286.6210938
9.3950,922.8515625,-230.9570313,-295.8984375
9.4000,928.2226563,-232.9101563,-293.4570313
9.4050,929.1992188,-230.46875,-290.0390625
9.4100,931.640625,-225.5859375,-295.8984375
9.4150,957.5195313,-210.9375,-304.1992188
9.4200,949.21875,-214.84375,-304.6875
9.4250,945.8007813,-216.796875,-309.5703125
9.4300,937.0117188,-207.5195313,-307.1289063
9.4350,923.828125,-212.890625,-307.6171875
9.4400,925.2929688,-207.5195313,-304.1992188
9.4450,919.921875,-211.4257813,-311.0351563
9.4500,916.015625,-224.609375,-294.4335938
9.4550,918.9453125,-233.3984375,-306.640625
9.4600,923.3398438,-230.9570313,-299.8046875
9.4650,926.2695313,-231.9335938,-302.2460938
9.4700,914.5507813,-237.3046875,-310.0585938
9.4750,920.4101563,-237.7929688,-302.2460938
9.4800,916.5039063,-238.7695313,-308.1054688
9.4850,922.3632813,-236.328125,-302.734375
9.4900,924.3164063,-237.7929688,-319.3359375
9.4950,917.96875,-243.6523438,-318.359375
9.5000,915.5273438,-243.1640625,-325.1953125
9.5050,911.1328125,-240.7226563,-319.8242188
9.5100,907.2265625,-234.375,-307.1289063
9.5150,903.8085938,-244.6289063,-311.0351563
9.5200,893.0664063,-254.8828125,-291.015625
9.5250,904.296875,-247.5585938,-307.1289063
9.5300,892.578125,-255.3710938,-300.78125
9.5350,891.6015625,-258.7890625,-302.734375
9.5400,889.1601563,-258.7890625,-312.0117188
9.5450,893.0664063,-261.71875,-325.1953125
9.5500,895.0195313,-260.7421875,-334.9609375
9.5550,910.15625,-257.3242188,-343.75
9.5600,905.7617188,-258.3007813,-348.1445313
9.5650,916.5039063,-260.2539063,-355.9570313
9.5700,917.4804688,-262.2070313,-359.375
9.5750,918.9453125,-265.1367188,-351.0742188
9.5800,915.0390625,-242.1875,-342.2851563
9.5850,894.0429688,-260.2539063,-331.5429688
9.5900,907.2265625,-231.9335938,-322.265625
9.5950,895.9960938,-252.4414063,-307.1289063
9.6000,896.9726563,-252.9296875,-296.3867188
9.6050,900.390625,-255.859375,-300.78125
9.6100,909.1796875,-252.4414063,-304.1992188
9.6150,904.7851563,-263.671875,-302.2460938
9.6200,918.4570313,-254.8828125,-300.2929688
9.6250,922.8515625,-250.9765625,-324.7070313
9.6300,917.96875,-250,-314.9414063
9.6350,908.6914063,-258.7890625,-322.7539063
9.6400,916.015625,-249.0234375,-325.1953125
9.6450,907.7148438,-260.7421875,-322.265625
9.6500,895.5078125,-263.671875,-328.125
9.6550,889.6484375,-267.578125,-327.1484375
9.6600,887.6953125,-259.765625,-328.6132813
9.6650,884.765625,-263.671875,-320.3125
9.6700,898.4375,-260.2539063,-339.84375
9.6750,892.0898438,-260.7421875,-327.6367188
9.6800,887.6953125,-261.71875,-328.125
9.6850,878.90625,-264.1601563,-321.7773438
9.6900,883.3007813,-270.5078125,-330.078125
9.6950,891.1132813,-280.2734375,-339.3554688
9.7000,893.0664063,-297.8515625,-327.1484375
9.7050,895.0195313,-303.2226563,-353.515625
9.7100,904.296875,-298.828125,-332.5195313
9.7150,906.25,-308.59375,-328.125
9.7200,908.203125,-306.1523438,-354.4921875
9.7250,914.0625,-301.7578125,-333.0078125
9.7300,902.8320313,-303.7109375,-336.4257813
9.7350,906.7382813,-296.3867188,-344.7265625
9.7400,892.0898438,-299.3164063,-350.5859375
9.7450,895.0195313,-293.4570313,-357.9101563
9.7500,884.2773438,-294.4335938,-352.0507813
9.7550,886.2304688,-297.3632813,-356.9335938
9.7600,884.2773438,-300.78125,-344.2382813
9.7650,881.8359375,-306.1523438,-356.9335938
9.7700,875,-308.59375,-344.2382813
9.7750,875.4882813,-310.546875,-354.0039063
9.7800,879.8828125,-314.453125,-339.3554688
9.7850,874.5117188,-325.1953125,-358.8867188
9.7900,876.953125,-315.9179688,-344.2382813
9.7950,875,-322.7539063,-344.2382813
9.8000,877.4414063,-316.40625,-350.0976563
9.8050,886.2304688,-315.4296875,-352.5390625
9.8100,875.9765625,-317.8710938,-356.4453125
9.8150,883.3007813,-310.0585938,-344.2382813
9.8200,889.1601563,-306.1523438,-356.9335938
9.8250,882.3242188,-308.59375,-377.9296875
9.8300,892.0898438,-303.7109375,-368.1640625
9.8350,885.7421875,-308.1054688,-379.8828125
9.8400,881.8359375,-292.96875,-365.7226563
9.8450,878.4179688,-303.7109375,-369.140625
9.8500,881.8359375,-302.734375,-357.9101563
9.8550,881.3476563,-299.3164063,-367.6757813
9.8600,870.1171875,-310.0585938,-369.6289063
9.8650,869.6289063,-317.8710938,-357.421875
9.8700,866.2109375,-315.9179688,-353.0273438
9.8750,859.8632813,-326.171875,-356.9335938
9.8800,872.0703125,-322.265625,-348.1445313
9.8850,871.09375,-329.5898438,-356.4453125
9.8900,877.9296875,-332.03125,-379.8828125
9.8950,875,-338.3789063,-375
9.9000,873.046875,-341.796875,-373.5351563
9.9050,874.5117188,-333.984375,-367.1875
9.9100,873.5351563,-326.6601563,-352.0507813
9.9150,870.1171875,-315.9179688,-362.7929688
9.9200,871.5820313,-303.7109375,-365.7226563
9.9250,879.3945313,-308.1054688,-369.140625
9.9300,881.8359375,-308.59375,-374.0234375
9.9350,894.0429688,-303.2226563,-379.3945313
9.9400,883.3007813,-308.1054688,-377.4414063
9.9450,875.9765625,-313.4765625,-373.5351563
9.9500,874.5117188,-310.546875,-365.7226563
9.9550,877.4414063,-318.359375,-375.9765625
9.9600,883.7890625,-324.7070313,-370.6054688
9.9650,879.8828125,-327.1484375,-384.765625
9.9700,870.1171875,-324.7070313,-371.09375
9.9750,869.140625,-335.4492188,-352.5390625
9.9800,874.0234375,-336.4257813,-376.4648438
9.9850,874.0234375,-338.3789063,-357.421875
9.9900,862.3046875,-338.8671875,-366.2109375
9.9950,867.1875,-330.078125,-351.0742188
10.0000,869.6289063,-326.6601563,-359.375
10.0050,862.3046875,-338.8671875,-369.140625
10.0100,870.1171875,-330.078125,-369.6289063
10.0150,866.2109375,-335.4492188,-392.0898438
10.0200,873.046875,-317.8710938,-383.7890625
10.0250,873.5351563,-322.265625,-404.296875
10.0300,869.6289063,-329.5898438,-392.0898438
10.0350,870.1171875,-335.4492188,-390.625
10.0400,870.6054688,-332.5195313,-375.9765625
10.0450,867.6757813,-326.6601563,-381.8359375
10.0500,863.7695313,-337.4023438,-379.3945313
10.0550,864.2578125,-331.5429688,-390.1367188
10.0600,855.9570313,-327.6367188,-385.2539063
10.0650,843.75,-342.7734375,-373.046875
10.0700,850.5859375,-353.0273438,-369.6289063
10.0750,861.8164063,-350.5859375,-382.8125
10.0800,848.1445313,-361.328125,-380.3710938
10.0850,847.1679688,-361.328125,-376.953125
10.0900,849.609375,-360.8398438,-378.4179688
10.0950,851.0742188,-362.3046875,-377.9296875
10.1000,855.46875,-352.5390625,-393.5546875
10.1050,845.703125,-358.8867188,-386.71875
10.1100,852.0507813,-353.515625,-380.3710938
10.1150,848.1445313,-347.65625,-380.859375
10.1200,837.890625,-343.75,-376.953125
10.1250,842.2851563,-339.3554688,-393.5546875
10.1300,839.3554688,-352.0507813,-384.765625
10.1350,838.8671875,-357.9101563,-396.9726563
10.1400,824.21875,-365.7226563,-401.8554688
10.1450,836.9140625,-362.7929688,-404.296875
10.1500,847.65625,-368.6523438,-411.6210938
10.1550,843.2617188,-370.1171875,-404.296875
10.1600,833.4960938,-369.140625,-399.9023438
10.1650,833.4960938,-373.046875,-403.8085938
10.1700,832.5195313,-371.5820313,-395.0195313
10.1750,820.3125,-377.4414063,-399.4140625
10.1800,816.8945313,-372.0703125,-385.7421875
10.1850,829.5898438,-371.09375,-387.6953125
10.1900,845.2148438,-357.421875,-400.390625
10.1950,838.8671875,-376.953125,-387.6953125
10.2000,845.2148438,-383.7890625,-399.4140625
10.2050,848.1445313,-383.7890625,-395.9960938
10.2100,834.9609375,-375.4882813,-406.25
10.2150,836.9140625,-360.8398438,-409.1796875
10.2200,843.2617188,-354.9804688,-398.4375
10.2250,854.0039063,-356.9335938,-419.921875
10.2300,854.4921875,-359.375,-419.4335938
10.2350,855.46875,-365.7226563,-452.1484375
10.2400,850.0976563,-386.2304688,-458.984375
10.2450,840.8203125,-399.9023438,-439.453125
10.2500,838.8671875,-398.4375,-407.2265625
10.2550,838.8671875,-392.0898438,-421.875
10.2600,826.171875,-381.8359375,-410.6445313
10.2650,817.3828125,-373.046875,-409.1796875
10.2700,807.1289063,-375,-390.625
10.2750,807.6171875,-370.1171875,-385.7421875
10.2800,802.734375,-377.4414063,-383.7890625
10.2850,817.3828125,-369.6289063,-397.4609375
10.2900,828.6132813,-371.09375,-381.8359375
10.2950,841.796875,-375.4882813,-401.8554688
10.3000,838.8671875,-383.3007813,-407.2265625
10.3050,836.4257813,-376.953125,-389.6484375
10.3100,840.8203125,-363.28125,-402.34375
10.3150,842.7734375,-358.8867188,-401.8554688
10.3200,828.6132813,-361.328125,-400.8789063
10.3250,832.5195313,-338.8671875,-380.3710938
10.3300,837.890625,-331.5429688,-398.9257813
10.3350,847.1679688,-335.4492188,-401.8554688
10.3400,852.0507813,-332.03125,-419.921875
10.3450,858.3984375,-335.9375,-423.828125
10.3500,854.4921875,-337.4023438,-418.9453125
10.3550,836.9140625,-358.3984375,-415.5273438
10.3600,830.078125,-360.3515625,-403.3203125
10.3650,826.6601563,-368.1640625,-391.6015625
10.3700,841.796875,-382.8125,-394.53125
10.3750,835.4492188,-394.0429688,-412.109375
10.3800,833.4960938,-394.0429688,-414.5507813
10.3850,832.03125,-400.8789063,-404.296875
10.3900,824.7070313,-406.7382813,-412.5976563
10.3950,817.8710938,-407.2265625,-416.015625
10.4000,814.9414063,-401.3671875,-399.4140625
10.4050,815.4296875,-387.6953125,-411.6210938
10.4100,801.7578125,-387.6953125,-406.25
10.4150,816.40625,-382.8125,-400.8789063
10.4200,814.9414063,-387.6953125,-415.0390625
10.4250,808.1054688,-394.0429688,-413.0859375
10.4300,812.9882813,-385.2539063,-416.9921875
10.4350,809.0820313,-380.859375,-427.2460938
10.4400,808.1054688,-370.6054688,-421.875
10.4450,806.640625,-364.2578125,-420.4101563
10.4500,812.5,-364.7460938,-437.9882813
10.4550,807.6171875,-379.8828125,-436.0351563
10.4600,809.0820313,-387.6953125,-434.5703125
10.4650,809.0820313,-393.0664063,-430.6640625
10.4700,810.546875,-382.8125,-422.3632813
10.4750,809.5703125,-383.7890625,-415.5273438
10.4800,796.3867188,-399.9023438,-419.4335938
10.4850,800.2929688,-394.53125,-413.5742188
10.4900,812.0117188,-404.7851563,-418.9453125
10.4950,815.9179688,-410.6445313,-435.546875
10.5000,815.4296875,-413.0859375,-426.2695313
10.5050,812.9882813,-412.109375,-431.1523438
10.5100,812.5,-405.7617188,-437.5
10.5150,811.0351563,-398.4375,-445.8007813
10.5200,809.5703125,-388.671875,-428.2226563
10.5250,820.8007813,-381.3476563,-443.359375
10.5300,820.3125,-387.6953125,-453.6132813
10.5350,815.9179688,-389.1601563,-449.7070313
10.5400,812.5,-384.2773438,-461.4257813
10.5450,808.59375,-388.1835938,-439.453125
10.5500,810.0585938,-386.2304688,-432.6171875
10.5550,818.359375,-376.953125,-422.3632813
10.5600,806.1523438,-395.5078125,-430.6640625
10.5650,810.546875,-401.8554688,-419.4335938
10.5700,806.1523438,-407.2265625,-419.4335938
10.5750,796.3867188,-404.7851563,-432.6171875
10.5800,806.1523438,-392.0898438,-418.4570313
10.5850,823.2421875,-395.0195313,-428.2226563
10.5900,817.3828125,-406.25,-437.0117188
10.5950,820.3125,-397.4609375,-435.0585938
10.6000,805.1757813,-397.9492188,-422.3632813
10.6050,801.7578125,-396.484375,-425.78125
10.6100,838.3789063,-389.1601563,-459.4726563
10.6150,838.3789063,-400.8789063,-449.21875
10.6200,819.8242188,-395.5078125,-439.9414063
10.6250,821.2890625,-372.0703125,-434.0820313
10.6300,832.03125,-373.046875,-436.0351563
10.6350,827.6367188,-390.1367188,-431.640625
10.6400,815.4296875,-397.9492188,-424.3164063
10.6450,816.40625,-400.390625,-431.1523438
10.6500,827.6367188,-405.7617188,-443.8476563
10.6550,820.8007813,-424.8046875,-426.2695313
10.6600,827.6367188,-410.15625,-404.7851563
10.6650,818.8476563,-403.8085938,-424.3164063
10.6700,822.265625,-400.390625,-415.5273438
10.6750,821.2890625,-406.25,-420.4101563
10.6800,820.3125,-405.2734375,-431.640625
10.6850,811.0351563,-399.4140625,-428.7109375
10.6900,799.8046875,-401.3671875,-423.3398438
10.6950,811.0351563,-400.8789063,-437.0117188
10.7000,808.1054688,-403.3203125,-435.0585938
10.7050,812.5,-397.9492188,-421.875
10.7100,815.9179688,-389.6484375,-433.1054688
10.7150,810.546875,-391.6015625,-448.7304688
10.7200,809.5703125,-395.9960938,-431.640625
10.7250,818.359375,-392.578125,-444.8242188
10.7300,799.3164063,-394.0429688,-427.734375
10.7350,797.3632813,-378.90625,-415.0390625
10.7400,804.1992188,-376.953125,-440.9179688
10.7450,818.359375,-377.4414063,-436.5234375
10.7500,813.4765625,-375.4882813,-437.9882813
10.7550,806.1523438,-363.7695313,-449.21875
10.7600,800.78125,-364.2578125,-451.171875
10.7650,796.875,-369.6289063,-446.7773438
10.7700,799.3164063,-376.4648438,-446.7773438
10.7750,798.3398438,-392.578125,-448.7304688
10.7800,819.3359375,-399.9023438,-460.4492188
10.7850,816.40625,-413.5742188,-451.171875
10.7900,813.4765625,-414.5507813,-440.9179688
10.7950,817.8710938,-423.3398438,-442.3828125
10.8000,809.0820313,-428.7109375,-436.0351563
10.8050,804.1992188,-421.3867188,-419.4335938
10.8100,789.5507813,-414.0625,-408.6914063
10.8150,793.4570313,-399.4140625,-413.5742188
10.8200,803.2226563,-389.1601563,-407.7148438
10.8250,808.59375,-390.1367188,-419.921875
10.8300,817.8710938,-372.5585938,-438.4765625
10.8350,823.7304688,-364.7460938,-438.9648438
10.8400,821.7773438,-356.9335938,-446.7773438
10.8450,826.6601563,-362.3046875,-450.6835938
10.8500,831.0546875,-361.328125,-456.5429688
10.8550,827.6367188,-369.140625,-467.2851563
10.8600,813.9648438,-372.0703125,-468.75
10.8650,815.4296875,-374.0234375,-459.9609375
10.8700,816.8945313,-376.953125,-460.9375
10.8750,813.4765625,-394.53125,-444.8242188
10.8800,808.1054688,-402.34375,-460.9375
10.8850,808.59375,-411.6210938,-445.3125
10.8900,793.4570313,-415.5273438,-434.5703125
10.8950,802.734375,-416.9921875,-425.78125
10.9000,801.2695313,-429.6875,-418.4570313
10.9050,794.921875,-434.5703125,-420.8984375
10.9100,802.734375,-430.1757813,-423.3398438
10.9150,815.9179688,-423.3398438,-431.640625
10.9200,819.8242188,-405.2734375,-428.2226563
10.9250,818.8476563,-393.5546875,-430.1757813
10.9300,820.3125,-377.4414063,-443.8476563
10.9350,823.7304688,-358.3984375,-434.5703125
10.9400,820.3125,-343.75,-447.7539063
10.9450,828.6132813,-330.078125,-452.1484375
10.9500,826.6601563,-336.4257813,-456.5429688
10.9550,829.5898438,-338.3789063,-458.0078125
10.9600,825.6835938,-347.1679688,-459.9609375
10.9650,833.0078125,-350.0976563,-462.890625
10.9700,822.265625,-361.328125,-459.9609375
10.9750,823.7304688,-364.7460938,-459.4726563
10.9800,817.8710938,-385.2539063,-448.7304688
10.9850,808.59375,-393.0664063,-447.7539063
10.9900,808.59375,-384.765625,-433.59375
10.9950,798.3398438,-401.3671875,-427.2460938
11.0000,800.78125,-399.4140625,-427.2460938
11.0050,791.9921875,-396.484375,-431.1523438
11.0100,801.7578125,-381.8359375,-425.78125
11.0150,804.6875,-374.5117188,-432.1289063
11.0200,816.40625,-357.9101563,-433.1054688
11.0250,816.8945313,-362.3046875,-451.6601563
11.0300,815.9179688,-356.9335938,-436.5234375
11.0350,815.4296875,-357.9101563,-449.21875
11.0400,816.40625,-347.65625,-440.4296875
11.0450,823.2421875,-343.2617188,-452.1484375
11.0500,812.0117188,-351.0742188,-438.9648438
11.0550,827.6367188,-357.9101563,-440.9179688
11.0600,825.1953125,-354.9804688,-436.5234375
11.0650,809.5703125,-367.1875,-434.5703125
11.0700,813.4765625,-360.3515625,-427.734375
11.0750,818.359375,-365.7226563,-452.1484375
11.0800,817.3828125,-374.0234375,-447.265625
11.0850,811.5234375,-375,-437.0117188
11.0900,815.9179688,-375.4882813,-429.6875
11.0950,814.9414063,-379.3945313,-438.4765625
11.1000,823.2421875,-375.9765625,-427.2460938
11.1050,828.125,-375.9765625,-431.1523438
11.1100,817.3828125,-382.8125,-428.2226563
11.1150,826.6601563,-381.8359375,-434.5703125
11.1200,829.1015625,-374.5117188,-430.6640625
11.1250,831.0546875,-364.2578125,-424.8046875
11.1300,828.6132813,-359.375,-435.0585938
11.1350,829.1015625,-353.515625,-431.640625
11.1400,818.8476563,-350.5859375,-423.828125
11.1450,818.8476563,-355.46875,-429.1992188
11.1500,825.6835938,-355.9570313,-427.734375
11.1550,816.40625,-361.328125,-442.3828125
11.1600,815.4296875,-359.8632813,-443.8476563
11.1650,817.8710938,-353.0273438,-448.2421875
11.1700,823.7304688,-348.1445313,-428.7109375
11.1750,825.1953125,-349.1210938,-443.359375
11.1800,824.7070313,-348.1445313,-436.0351563
11.1850,830.5664063,-346.1914063,-433.59375
11.1900,839.3554688,-340.8203125,-429.1992188
11.1950,838.8671875,-350.0976563,-437.9882813
11.2000,841.796875,-341.3085938,-442.3828125
11.2050,841.3085938,-347.65625,-434.5703125
11.2100,844.7265625,-349.1210938,-422.3632813
11.2150,833.0078125,-358.3984375,-424.8046875
11.2200,839.84375,-342.2851563,-416.9921875
11.2250,830.078125,-343.75,-423.828125
11.2300,824.21875,-345.2148438,-397.4609375
11.2350,826.6601563,-343.75,-412.5976563
11.2400,826.171875,-349.609375,-418.9453125
11.2450,837.4023438,-349.609375,-423.3398438
11.2500,854.4921875,-341.3085938,-415.5273438
11.2550,854.0039063,-352.0507813,-428.2226563
11.2600,864.2578125,-341.796875,-423.828125
11.2650,859.8632813,-346.6796875,-421.875
11.2700,861.8164063,-332.03125,-431.640625
11.2750,861.328125,-333.4960938,-405.7617188
11.2800,856.9335938,-332.5195313,-410.15625
11.2850,850.0976563,-333.4960938,-402.34375
11.2900,852.0507813,-325.6835938,-405.7617188
11.2950,852.5390625,-322.265625,-395.9960938
11.3000,848.6328125,-328.6132813,-401.3671875
11.3050,849.1210938,-327.6367188,-382.8125
11.3100,844.7265625,-332.03125,-389.1601563
11.3150,849.1210938,-338.3789063,-401.8554688
11.3200,849.609375,-344.2382813,-404.7851563
11.3250,854.0039063,-340.8203125,-398.9257813
11.3300,863.28125,-327.6367188,-397.9492188
11.3350,869.140625,-328.125,-391.6015625
11.3400,875.9765625,-312.0117188,-396.9726563
11.3450,876.4648438,-312.5,-400.390625
11.3500,877.9296875,-299.8046875,-398.9257813
11.3550,875.9765625,-302.2460938,-415.0390625
11.3600,874.0234375,-298.828125,-402.34375
11.3650,881.3476563,-291.5039063,-405.7617188
11.3700,871.09375,-306.1523438,-398.9257813
11.3750,873.5351563,-298.828125,-386.2304688
11.3800,860.8398438,-300.78125,-372.5585938
11.3850,858.8867188,-297.3632813,-389.1601563
11.3900,851.0742188,-307.1289063,-400.8789063
11.3950,851.0742188,-309.0820313,-401.8554688
11.4000,856.4453125,-314.9414063,-390.625
11.4050,864.2578125,-316.40625,-392.578125
11.4100,875.9765625,-319.8242188,-390.1367188
11.4150,881.8359375,-319.8242188,-385.7421875
11.4200,876.953125,-314.9414063,-378.4179688
11.4250,890.625,-301.7578125,-375.4882813
11.4300,892.578125,-294.921875,-371.09375
11.4350,887.2070313,-291.9921875,-371.09375
11.4400,878.90625,-291.5039063,-379.8828125
11.4450,880.3710938,-288.5742188,-368.6523438
11.4500,881.3476563,-281.25,-360.3515625
11.4550,885.2539063,-272.9492188,-367.1875
11.4600,873.5351563,-273.9257813,-356.4453125
11.4650,870.6054688,-279.296875,-353.0273438
11.4700,861.328125,-289.5507813,-356.4453125
11.4750,873.046875,-297.3632813,-367.6757813
11.4800,883.3007813,-306.1523438,-381.8359375
11.4850,880.3710938,-315.9179688,-395.0195313
11.4900,884.2773438,-314.9414063,-386.2304688
11.4950,893.5546875,-304.6875,-375.4882813
11.5000,896.484375,-298.828125,-366.2109375
11.5050,897.9492188,-295.4101563,-354.0039063
11.5100,903.8085938,-285.15625,-359.375
11.5150,909.1796875,-277.34375,-360.8398438
11.5200,892.578125,-266.6015625,-353.515625
11.5250,888.671875,-256.3476563,-351.5625
11.5300,877.4414063,-264.6484375,-349.1210938
11.5350,883.7890625,-268.0664063,-342.7734375
11.5400,887.6953125,-268.0664063,-343.2617188
11.5450,891.1132813,-277.34375,-349.1210938
11.5500,885.7421875,-274.9023438,-365.234375
11.5550,878.90625,-277.34375,-364.7460938
11.5600,882.8125,-276.8554688,-344.2382813
11.5650,890.1367188,-283.6914063,-347.1679688
11.5700,892.0898438,-289.0625,-354.0039063
11.5750,908.203125,-293.4570313,-353.0273438
11.5800,922.8515625,-284.1796875,-353.0273438
11.5850,907.2265625,-291.015625,-365.7226563
11.5900,916.9921875,-272.9492188,-347.1679688
11.5950,902.8320313,-272.9492188,-353.0273438
11.6000,906.7382813,-253.90625,-345.2148438
11.6050,899.9023438,-258.3007813,-346.1914063
11.6100,902.34375,-251.4648438,-334.9609375
11.6150,906.7382813,-243.1640625,-332.03125
11.6200,897.4609375,-252.9296875,-342.7734375
11.6250,893.5546875,-256.3476563,-342.7734375
11.6300,892.578125,-250.9765625,-344.2382813
11.6350,888.1835938,-259.765625,-345.703125
11.6400,882.3242188,-267.578125,-316.8945313
11.6450,888.1835938,-279.7851563,-318.8476563
11.6500,904.7851563,-270.9960938,-291.015625
11.6550,910.6445313,-275.8789063,-315.9179688
11.6600,920.4101563,-263.671875,-311.5234375
11.6650,925.2929688,-259.2773438,-336.9140625
11.6700,931.1523438,-255.3710938,-319.8242188
11.6750,937.9882813,-256.3476563,-346.1914063
11.6800,948.7304688,-234.8632813,-353.515625
11.6850,937.5,-249.5117188,-352.5390625
11.6900,924.8046875,-243.1640625,-351.5625
11.6950,914.5507813,-243.6523438,-357.421875
11.7000,890.625,-233.3984375,-329.1015625
11.7050,883.7890625,-221.6796875,-304.6875
11.7100,876.953125,-225.5859375,-297.8515625
11.7150,886.71875,-235.8398438,-307.6171875
11.7200,894.0429688,-249.0234375,-282.2265625
11.7250,900.390625,-267.0898438,-308.59375
11.7300,912.5976563,-268.0664063,-300.2929688
11.7350,927.734375,-266.6015625,-318.359375
11.7400,936.0351563,-265.625,-303.2226563
11.7450,950.1953125,-254.8828125,-314.9414063
11.7500,952.6367188,-249.0234375,-335.4492188
11.7550,951.171875,-245.1171875,-335.4492188
11.7600,954.1015625,-228.515625,-333.0078125
11.7650,944.8242188,-221.1914063,-332.03125
11.7700,932.1289063,-211.9140625,-304.6875
11.7750,917.96875,-209.4726563,-314.453125
11.7800,907.2265625,-210.4492188,-299.3164063
11.7850,905.7617188,-203.125,-301.2695313
11.7900,901.8554688,-211.4257813,-301.7578125
11.7950,915.5273438,-215.3320313,-280.2734375
11.8000,915.5273438,-232.421875,-259.2773438
11.8050,927.2460938,-243.6523438,-278.8085938
11.8100,941.8945313,-252.4414063,-291.5039063
11.8150,949.7070313,-259.765625,-299.8046875
11.8200,958.984375,-260.2539063,-296.875
11.8250,964.84375,-247.0703125,-302.734375
11.8300,959.9609375,-244.6289063,-297.8515625
11.8350,946.7773438,-242.6757813,-299.8046875
11.8400,940.4296875,-239.2578125,-319.3359375
11.8450,938.4765625,-227.0507813,-312.0117188
11.8500,931.1523438,-212.890625,-308.59375
11.8550,913.0859375,-208.4960938,-304.1992188
11.8600,899.4140625,-200.6835938,-300.78125
11.8650,902.34375,-194.8242188,-287.109375
11.8700,915.5273438,-189.9414063,-268.0664063
11.8750,937.5,-181.640625,-270.0195313
11.8800,944.8242188,-178.7109375,-256.8359375
11.8850,944.8242188,-187.0117188,-270.0195313
11.8900,942.3828125,-185.0585938,-265.1367188
11.8950,948.2421875,-198.2421875,-280.7617188
11.9000,955.5664063,-195.3125,-271.484375
11.9050,961.9140625,-195.3125,-272.9492188
11.9100,953.125,-193.8476563,-299.8046875
11.9150,946.2890625,-207.5195313,-307.1289063
11.9200,941.8945313,-208.984375,-292.4804688
11.9250,936.5234375,-208.984375,-275.390625
11.9300,925.78125,-208.984375,-254.3945313
11.9350,935.546875,-207.5195313,-250.9765625
11.9400,923.828125,-211.9140625,-261.71875
11.9450,930.1757813,-206.0546875,-261.2304688
11.9500,934.0820313,-204.1015625,-254.3945313
11.9550,947.7539063,-200.6835938,-250.9765625
11.9600,963.8671875,-191.40625,-253.90625
11.9650,962.4023438,-184.5703125,-257.8125
11.9700,957.5195313,-171.3867188,-285.6445313
11.9750,945.8007813,-179.6875,-270.5078125
11.9800,949.21875,-169.921875,-253.90625
11.9850,946.7773438,-174.3164063,-270.5078125
11.9900,939.9414063,-173.3398438,-269.0429688
11.9950,932.1289063,-183.1054688,-301.7578125
12.0000,926.7578125,-183.1054688,-271.484375
12.0050,924.8046875,-183.59375,-272.9492188
12.0100,925.78125,-186.0351563,-246.09375
12.0150,933.59375,-181.640625,-230.46875
12.0200,930.6640625,-178.7109375,-233.8867188
12.0250,938.9648438,-168.9453125,-223.1445313
12.0300,944.8242188,-173.3398438,-229.4921875
12.0350,955.5664063,-180.1757813,-243.1640625
12.0400,965.3320313,-179.1992188,-244.140625
12.0450,969.2382813,-178.7109375,-243.6523438
12.0500,965.3320313,-177.2460938,-275.390625
12.0550,963.3789063,-172.3632813,-288.0859375
12.0600,954.1015625,-168.4570313,-292.4804688
12.0650,940.9179688,-166.015625,-295.4101563
12.0700,936.5234375,-165.0390625,-269.0429688
12.0750,927.734375,-171.3867188,-275.390625
12.0800,919.921875,-173.3398438,-266.6015625
12.0850,925.78125,-177.734375,-252.4414063
12.0900,940.9179688,-174.8046875,-248.5351563
12.0950,940.9179688,-184.0820313,-242.1875
12.1000,946.7773438,-173.828125,-255.859375
12.1050,944.3359375,-179.1992188,-230.9570313
12.1100,951.6601563,-174.3164063,-229.4921875
12.1150,960.4492188,-176.2695313,-236.328125
12.1200,958.4960938,-181.1523438,-224.609375
12.1250,950.6835938,-190.4296875,-232.421875
12.1300,961.4257813,-172.8515625,-224.609375
12.1350,957.5195313,-169.921875,-235.3515625
12.1400,961.9140625,-177.2460938,-225.5859375
12.1450,968.75,-183.1054688,-239.2578125
12.1500,978.0273438,-187.9882813,-229.4921875
12.1550,982.9101563,-194.3359375,-230.46875
12.1600,993.1640625,-185.546875,-228.0273438
12.1650,993.6523438,-181.640625,-218.75
12.1700,1000.976563,-173.828125,-226.0742188
12.1750,987.7929688,-185.546875,-237.7929688
12.1800,989.2578125,-173.3398438,-251.953125
12.1850,976.5625,-171.3867188,-243.1640625
12.1900,969.7265625,-153.8085938,-244.140625
12.1950,951.6601563,-158.203125,-259.765625
12.2000,950.1953125,-142.0898438,-262.6953125
12.2050,941.40625,-135.2539063,-246.5820313
12.2100,948.2421875,-116.6992188,-233.3984375
12.2150,942.8710938,-110.8398438,-233.8867188
12.2200,944.3359375,-100.0976563,-219.7265625
12.2250,928.2226563,-105.46875,-209.9609375
12.2300,933.59375,-97.65625,-208.984375
12.2350,936.0351563,-107.421875,-219.2382813
12.2400,935.546875,-124.0234375,-208.0078125
12.2450,951.6601563,-125.4882813,-232.421875
12.2500,962.4023438,-134.2773438,-214.84375
12.2550,972.1679688,-141.1132813,-218.75
12.2600,965.8203125,-150.8789063,-207.03125
12.2650,966.3085938,-152.34375,-207.5195313
12.2700,968.75,-158.203125,-228.515625
12.2750,974.609375,-165.0390625,-223.6328125
12.2800,977.0507813,-169.921875,-217.7734375
12.2850,981.9335938,-175.78125,-211.4257813
12.2900,983.3984375,-168.4570313,-222.65625
12.2950,981.9335938,-165.5273438,-228.0273438
12.3000,973.1445313,-166.015625,-228.515625
12.3050,978.515625,-164.0625,-220.703125
12.3100,987.3046875,-162.5976563,-224.609375
12.3150,985.8398438,-164.0625,-236.8164063
12.3200,971.6796875,-162.5976563,-238.28125
12.3250,971.1914063,-156.7382813,-243.1640625
12.3300,967.2851563,-152.34375,-248.5351563
12.3350,957.5195313,-152.8320313,-252.4414063
12.3400,947.7539063,-147.4609375,-242.1875
12.3450,947.7539063,-131.3476563,-244.6289063
12.3500,935.546875,-129.3945313,-229.9804688
12.3550,947.265625,-118.6523438,-220.2148438
12.3600,935.546875,-127.4414063,-232.9101563
12.3650,943.8476563,-124.0234375,-216.796875
12.3700,957.03125,-121.5820313,-213.3789063
12.3750,954.1015625,-129.8828125,-214.84375
12.3800,959.9609375,-119.6289063,-208.984375
12.3850,945.3125,-124.0234375,-223.1445313
12.3900,947.265625,-133.7890625,-222.65625
12.3950,957.5195313,-147.9492188,-217.2851563
12.4000,963.3789063,-151.8554688,-202.1484375
12.4050,976.0742188,-151.8554688,-216.3085938
12.4100,977.0507813,-157.2265625,-212.890625
12.4150,979.9804688,-145.5078125,-215.8203125
12.4200,978.515625,-126.4648438,-216.3085938
12.4250,971.6796875,-127.9296875,-217.7734375
12.4300,961.4257813,-132.8125,-201.6601563
12.4350,963.3789063,-125.9765625,-187.9882813
12.4400,949.7070313,-122.0703125,-187.9882813
12.4450,948.7304688,-111.8164063,-185.0585938
12.4500,951.6601563,-119.140625,-192.8710938
12.4550,969.2382813,-119.140625,-194.3359375
12.4600,977.0507813,-128.90625,-190.9179688
12.4650,992.6757813,-128.4179688,-187.5
12.4700,989.7460938,-135.2539063,-215.8203125
12.4750,987.3046875,-142.578125,-216.3085938
12.4800,991.2109375,-133.7890625,-227.5390625
12.4850,986.8164063,-140.625,-232.421875
12.4900,993.1640625,-134.765625,-239.7460938
12.4950,983.8867188,-133.3007813,-244.6289063
12.5000,975.0976563,-134.765625,-245.1171875
12.5050,968.2617188,-130.859375,-239.2578125
12.5100,957.5195313,-125.9765625,-213.8671875
12.5150,954.1015625,-122.0703125,-203.6132813
12.5200,948.7304688,-116.6992188,-191.8945313
12.5250,959.4726563,-112.3046875,-183.1054688
12.5300,958.4960938,-107.9101563,-184.0820313
12.5350,959.4726563,-110.3515625,-181.640625
12.5400,965.3320313,-107.421875,-196.7773438
12.5450,966.796875,-118.1640625,-217.2851563
12.5500,973.6328125,-116.6992188,-234.375
12.5550,984.375,-121.09375,-242.1875
12.5600,979.0039063,-135.7421875,-243.6523438
12.5650,976.5625,-131.8359375,-255.859375
12.5700,964.84375,-131.3476563,-256.8359375
12.5750,947.265625,-138.1835938,-262.6953125
12.5800,947.265625,-124.5117188,-240.7226563
12.5850,941.8945313,-131.3476563,-247.5585938
12.5900,936.0351563,-126.953125,-224.1210938
12.5950,938.9648438,-120.1171875,-211.9140625
12.6000,942.8710938,-111.328125,-211.9140625
12.6050,943.359375,-113.7695313,-204.5898438
12.6100,954.5898438,-109.375,-206.0546875
12.6150,959.4726563,-113.28125,-213.3789063
12.6200,964.3554688,-110.8398438,-223.1445313
12.6250,973.1445313,-118.1640625,-240.7226563
12.6300,981.9335938,-127.9296875,-238.7695313
12.6350,986.8164063,-133.7890625,-259.765625
12.6400,984.8632813,-150.390625,-258.3007813
12.6450,989.2578125,-148.9257813,-260.7421875
12.6500,981.9335938,-150.390625,-260.7421875
12.6550,964.84375,-151.3671875,-244.140625
12.6600,961.4257813,-142.578125,-240.7226563
12.6650,954.1015625,-141.6015625,-210.4492188
12.6700,967.2851563,-127.9296875,-186.0351563
12.6750,966.796875,-130.859375,-200.1953125
12.6800,965.8203125,-115.234375,-198.2421875
12.6850,966.3085938,-103.0273438,-183.1054688
12.6900,971.6796875,-97.65625,-175.78125
12.6950,979.0039063,-92.7734375,-172.3632813
12.7000,989.2578125,-87.890625,-190.4296875
12.7050,998.5351563,-103.0273438,-196.2890625
12.7100,997.5585938,-115.7226563,-220.703125
12.7150,995.6054688,-130.859375,-258.7890625
12.7200,994.140625,-133.3007813,-259.765625
12.7250,977.5390625,-147.4609375,-264.6484375
12.7300,985.8398438,-141.6015625,-278.3203125
12.7350,976.5625,-139.6484375,-293.9453125
12.7400,963.8671875,-139.1601563,-281.7382813
12.7450,961.9140625,-132.3242188,-286.6210938
12.7500,958.984375,-117.6757813,-269.53125
12.7550,953.6132813,-101.5625,-241.6992188
12.7600,950.1953125,-88.8671875,-236.8164063
12.7650,937.0117188,-89.84375,-228.515625
12.7700,946.7773438,-82.03125,-221.6796875
12.7750,952.6367188,-88.8671875,-194.8242188
12.7800,953.125,-98.6328125,-200.6835938
12.7850,956.5429688,-107.9101563,-225.0976563
12.7900,956.5429688,-110.3515625,-210.4492188
12.7950,966.3085938,-118.6523438,-220.2148438
12.8000,971.6796875,-122.0703125,-229.4921875
12.8050,971.6796875,-133.7890625,-231.9335938
12.8100,974.1210938,-141.1132813,-247.5585938
12.8150,968.2617188,-151.8554688,-261.2304688
12.8200,968.2617188,-141.1132813,-265.625
12.8250,961.9140625,-146.9726563,-268.5546875
12.8300,962.4023438,-139.6484375,-266.6015625
12.8350,956.5429688,-139.6484375,-274.4140625
12.8400,951.6601563,-125,-252.4414063
12.8450,961.4257813,-111.328125,-242.6757813
12.8500,946.7773438,-107.9101563,-228.0273438
12.8550,958.984375,-95.21484375,-237.3046875
12.8600,956.5429688,-89.35546875,-231.4453125
12.8650,953.6132813,-91.796875,-216.3085938
12.8700,962.4023438,-89.84375,-228.515625
12.8750,969.2382813,-95.21484375,-227.5390625
12.8800,972.1679688,-95.703125,-242.6757813
12.8850,974.1210938,-106.9335938,-229.0039063
12.8900,974.609375,-104.0039063,-243.1640625
12.8950,977.5390625,-104.0039063,-259.2773438
12.9000,971.1914063,-110.3515625,-246.5820313
12.9050,974.609375,-116.6992188,-251.953125
12.9100,964.84375,-126.953125,-270.0195313
12.9150,966.3085938,-125,-252.9296875
12.9200,958.4960938,-129.8828125,-253.4179688
12.9250,958.4960938,-126.4648438,-253.4179688
12.9300,955.078125,-121.5820313,-241.6992188
12.9350,952.1484375,-123.046875,-239.7460938
12.9400,958.4960938,-114.2578125,-228.0273438
12.9450,965.3320313,-104.4921875,-223.1445313
12.9500,967.2851563,-94.23828125,-240.7226563
12.9550,970.2148438,-86.9140625,-256.3476563
12.9600,957.03125,-89.35546875,-255.859375
12.9650,960.4492188,-87.40234375,-262.6953125
12.9700,963.3789063,-88.37890625,-257.3242188
12.9750,956.5429688,-95.21484375,-273.4375
12.9800,960.9375,-90.8203125,-253.90625
12.9850,962.890625,-100.0976563,-279.296875
12.9900,970.2148438,-102.0507813,-297.8515625
12.9950,960.9375,-114.2578125,-284.1796875
13.0000,962.4023438,-120.6054688,-292.96875
13.0050,963.3789063,-123.046875,-288.0859375
13.0100,965.3320313,-114.7460938,-265.625
13.0150,961.9140625,-122.0703125,-262.2070313
13.0200,970.2148438,-104.4921875,-243.1640625
13.0250,970.703125,-109.8632813,-243.1640625
13.0300,961.9140625,-107.421875,-237.7929688
13.0350,962.890625,-101.0742188,-231.9335938
13.0400,957.5195313,-98.14453125,-235.3515625
13.0450,959.4726563,-92.7734375,-239.7460938
13.0500,958.984375,-93.75,-248.5351563
13.0550,961.4257813,-86.9140625,-244.6289063
13.0600,964.3554688,-85.44921875,-244.6289063
13.0650,968.75,-85.9375,-256.8359375
13.0700,965.8203125,-85.9375,-247.0703125
13.0750,970.2148438,-86.9140625,-254.8828125
13.0800,974.609375,-94.23828125,-254.3945313
13.0850,964.3554688,-105.9570313,-273.9257813
13.0900,981.9335938,-90.8203125,-270.5078125
13.0950,977.0507813,-92.7734375,-265.625
13.1000,965.8203125,-94.23828125,-268.0664063
13.1050,961.9140625,-97.65625,-266.6015625
13.1100,956.5429688,-97.65625,-265.1367188
13.1150,955.5664063,-99.12109375,-268.5546875
13.1200,958.4960938,-90.8203125,-270.5078125
13.1250,953.125,-94.23828125,-285.15625
13.1300,960.4492188,-83.0078125,-261.71875
13.1350,954.5898438,-90.33203125,-281.25
13.1400,962.890625,-83.984375,-285.6445313
13.1450,954.5898438,-93.75,-291.015625
13.1500,960.4492188,-85.44921875,-279.296875
13.1550,953.125,-95.703125,-289.0625
13.1600,954.5898438,-102.0507813,-277.34375
13.1650,960.4492188,-94.23828125,-280.2734375
13.1700,955.078125,-98.6328125,-293.9453125
13.1750,958.0078125,-104.4921875,-280.7617188
13.1800,957.5195313,-108.3984375,-285.15625
13.1850,949.7070313,-112.3046875,-287.109375
13.1900,945.3125,-110.3515625,-296.875
13.1950,939.453125,-107.9101563,-296.875
13.2000,931.1523438,-108.8867188,-287.5976563
13.2050,933.59375,-93.75,-290.5273438
13.2100,920.4101563,-91.796875,-292.96875
13.2150,925.2929688,-81.54296875,-301.2695313
13.2200,922.8515625,-71.2890625,-289.0625
13.2250,919.921875,-82.51953125,-313.9648438
13.2300,924.8046875,-74.21875,-312.9882813
13.2350,924.3164063,-85.44921875,-313.9648438
13.2400,921.3867188,-94.23828125,-334.9609375
13.2450,927.2460938,-94.23828125,-321.2890625
13.2500,932.1289063,-103.515625,-315.9179688
13.2550,941.40625,-101.0742188,-313.4765625
13.2600,945.8007813,-104.4921875,-307.6171875
13.2650,961.9140625,-102.0507813,-299.3164063
13.2700,953.125,-104.9804688,-283.6914063
13.2750,960.4492188,-102.5390625,-295.4101563
13.2800,958.0078125,-102.5390625,-277.8320313
13.2850,958.4960938,-93.75,-279.7851563
13.2900,958.984375,-80.078125,-268.5546875
13.2950,965.8203125,-75.1953125,-288.5742188
13.3000,963.8671875,-76.171875,-278.8085938
13.3050,963.8671875,-72.265625,-269.53125
13.3100,969.2382813,-74.70703125,-259.2773438
13.3150,982.9101563,-66.40625,-251.4648438
13.3200,978.515625,-60.05859375,-264.6484375
13.3250,981.9335938,-59.08203125,-239.7460938
13.3300,991.2109375,-56.640625,-231.9335938
13.3350,998.5351563,-62.01171875,-237.7929688
13.3400,991.2109375,-64.94140625,-231.4453125
13.3450,995.1171875,-58.59375,-236.8164063
13.3500,990.234375,-50.78125,-213.3789063
13.3550,988.28125,-50.78125,-228.0273438
13.3600,976.5625,-50.29296875,-241.6992188
13.3650,967.2851563,-48.828125,-251.953125
13.3700,955.5664063,-51.7578125,-256.3476563
13.3750,954.1015625,-50.29296875,-274.4140625
13.3800,947.265625,-50.29296875,-290.5273438
13.3850,945.8007813,-43.9453125,-299.8046875
13.3900,944.8242188,-46.38671875,-302.734375
13.3950,950.1953125,-53.7109375,-300.2929688
13.4000,942.8710938,-66.89453125,-301.2695313
13.4050,950.1953125,-63.4765625,-289.5507813
13.4100,943.8476563,-80.078125,-302.2460938
13.4150,956.5429688,-69.3359375,-284.6679688
13.4200,964.3554688,-72.265625,-286.1328125
13.4250,969.7265625,-72.75390625,-278.8085938
13.4300,972.1679688,-71.77734375,-276.8554688
13.4350,962.890625,-82.51953125,-264.6484375
13.4400,983.3984375,-63.96484375,-249.5117188
13.4450,979.0039063,-73.73046875,-250
13.4500,974.1210938,-78.125,-253.4179688
13.4550,974.1210938,-75.1953125,-241.6992188
13.4600,979.9804688,-69.82421875,-238.28125
13.4650,977.5390625,-75.68359375,-241.2109375
13.4700,979.4921875,-72.75390625,-243.1640625
13.4750,991.2109375,-68.84765625,-252.4414063
13.4800,988.28125,-68.359375,-255.3710938
13.4850,979.0039063,-74.21875,-260.7421875
13.4900,981.9335938,-65.4296875,-272.4609375
13.4950,981.9335938,-75.1953125,-270.9960938
13.5000,981.4453125,-73.73046875,-278.8085938
13.5050,977.5390625,-66.40625,-271.9726563
13.5100,978.515625,-62.01171875,-279.296875
13.5150,971.6796875,-68.359375,-283.6914063
13.5200,968.2617188,-64.94140625,-291.015625
13.5250,968.2617188,-57.12890625,-281.25
13.5300,966.796875,-46.38671875,-293.4570313
13.5350,954.5898438,-45.8984375,-291.5039063
13.5400,959.9609375,-39.0625,-285.15625
13.5450,948.7304688,-45.8984375,-284.1796875
13.5500,955.5664063,-39.55078125,-288.0859375
13.5550,955.078125,-47.8515625,-279.7851563
13.5600,958.0078125,-47.36328125,-280.7617188
13.5650,953.125,-62.5,-274.9023438
13.5700,960.9375,-58.10546875,-274.9023438
13.5750,968.2617188,-62.5,-277.34375
13.5800,960.9375,-63.96484375,-266.1132813
13.5850,962.4023438,-67.87109375,-262.6953125
13.5900,961.9140625,-70.80078125,-275.8789063
13.5950,970.2148438,-72.75390625,-280.7617188
13.6000,966.3085938,-71.77734375,-266.1132813
13.6050,961.9140625,-72.265625,-280.7617188
13.6100,967.7734375,-62.98828125,-284.6679688
13.6150,968.2617188,-68.359375,-273.9257813
13.6200,966.796875,-61.03515625,-289.5507813
13.6250,960.9375,-68.359375,-282.7148438
13.6300,961.4257813,-67.3828125,-269.53125
13.6350,963.8671875,-68.84765625,-281.25
13.6400,975.5859375,-52.734375,-273.9257813
13.6450,970.703125,-62.01171875,-261.71875
13.6500,974.1210938,-64.94140625,-268.5546875
13.6550,976.0742188,-53.22265625,-270.5078125
13.6600,958.4960938,-67.3828125,-289.0625
13.6650,961.9140625,-69.82421875,-267.578125
13.6700,972.65625,-60.05859375,-257.8125
13.6750,976.0742188,-56.640625,-254.8828125
13.6800,991.6992188,-38.0859375,-251.4648438
13.6850,987.7929688,-46.38671875,-248.046875
13.6900,996.09375,-39.55078125,-234.375
13.6950,984.375,-48.828125,-242.6757813
13.7000,987.3046875,-49.8046875,-234.8632813
13.7050,974.609375,-58.59375,-242.6757813
13.7100,973.6328125,-52.24609375,-254.8828125
13.7150,962.890625,-62.01171875,-252.9296875
13.7200,961.4257813,-57.6171875,-258.3007813
