type,name,time_units,begin_time,frequency,count,units
signal,"Noraxon Ultium-RT LAT. TRICEPS","s",0.00000,2000,51080,"uV"

time,value
0.00000,4.188530147
0.00050,4.493724555
0.00100,3.272946924
0.00150,2.052169293
0.00200,2.357363701
0.00250,5.10411337
0.00300,6.630085409
0.00350,4.798918962
0.00400,0.5261972547
0.00450,-2.525746822
0.00500,-3.746524453
0.00550,-3.441330045
0.00600,-2.525746822
0.00650,-1.610163599
0.00700,-1.304969192
0.00750,-0.9997747838
0.00800,-0.6945803761
0.00850,-0.08419156075
0.00900,0.221002847
0.00950,0.221002847
0.01000,-0.08419156075
0.01050,-1.915358007
0.01100,-4.051718861
0.01150,-4.967302084
0.01200,-4.051718861
0.01250,-1.915358007
0.01300,-0.08419156075
0.01350,0.5261972547
0.01400,1.441780478
0.01450,2.357363701
0.01500,2.662558109
0.01550,1.746974885
0.01600,2.052169293
0.01650,3.272946924
0.01700,3.578141332
0.01750,1.441780478
0.01800,-0.3893859684
0.01850,-0.3893859684
0.01900,0.5261972547
0.01950,0.5261972547
0.02000,-0.08419156075
0.02050,-0.3893859684
0.02100,-0.3893859684
0.02150,-0.9997747838
0.02200,-2.220552415
0.02250,-1.915358007
0.02300,-0.6945803761
0.02350,-0.08419156075
0.02400,-0.9997747838
0.02450,-1.915358007
0.02500,-1.304969192
0.02550,-1.304969192
0.02600,-2.525746822
0.02650,-3.441330045
0.02700,-3.136135638
0.02750,-3.441330045
0.02800,-4.967302084
0.02850,-5.882885307
0.02900,-4.662107676
0.02950,-1.915358007
0.03000,-0.3893859684
0.03050,-0.6945803761
0.03100,-0.6945803761
0.03150,-0.08419156075
0.03200,0.5261972547
0.03250,1.13658607
0.03300,2.662558109
0.03350,4.493724555
0.03400,4.493724555
0.03450,2.357363701
0.03500,-0.08419156075
0.03550,-0.08419156075
0.03600,-0.08419156075
0.03650,-0.6945803761
0.03700,-2.83094123
0.03750,-4.051718861
0.03800,-3.746524453
0.03850,-3.136135638
0.03900,-2.220552415
0.03950,-1.304969192
0.04000,-0.3893859684
0.04050,-0.08419156075
0.04100,-0.3893859684
0.04150,-0.6945803761
0.04200,-0.6945803761
0.04250,-1.304969192
0.04300,-2.220552415
0.04350,-2.525746822
0.04400,-1.610163599
0.04450,-1.610163599
0.04500,-2.83094123
0.04550,-4.051718861
0.04600,-3.441330045
0.04650,-1.610163599
0.04700,-0.9997747838
0.04750,-1.610163599
0.04800,-1.610163599
0.04850,-0.6945803761
0.04900,-0.08419156075
0.04950,-0.9997747838
0.05000,-2.220552415
0.05050,-2.220552415
0.05100,-0.9997747838
0.05150,0.221002847
0.05200,1.746974885
0.05250,2.052169293
0.05300,1.746974885
0.05350,1.746974885
0.05400,3.578141332
0.05450,5.409307778
0.05500,5.10411337
0.05550,3.272946924
0.05600,2.052169293
0.05650,2.052169293
0.05700,0.8313916624
0.05750,-2.525746822
0.05800,-5.272496492
0.05850,-5.272496492
0.05900,-3.441330045
0.05950,-1.610163599
0.06000,-0.08419156075
0.06050,0.221002847
0.06100,-0.08419156075
0.06150,-2.525746822
0.06200,-4.051718861
0.06250,-3.441330045
0.06300,-2.220552415
0.06350,-1.915358007
0.06400,-2.220552415
0.06450,-1.304969192
0.06500,0.221002847
0.06550,1.13658607
0.06600,0.8313916624
0.06650,0.5261972547
0.06700,0.8313916624
0.06750,1.13658607
0.06800,1.746974885
0.06850,2.052169293
0.06900,2.662558109
0.06950,3.272946924
0.07000,3.578141332
0.07050,3.578141332
0.07100,2.052169293
0.07150,0.221002847
0.07200,-0.08419156075
0.07250,1.13658607
0.07300,2.357363701
0.07350,1.746974885
0.07400,0.8313916624
0.07450,1.13658607
0.07500,2.357363701
0.07550,3.272946924
0.07600,2.967752516
0.07650,2.052169293
0.07700,0.8313916624
0.07750,0.221002847
0.07800,0.221002847
0.07850,1.746974885
0.07900,3.272946924
0.07950,3.272946924
0.08000,2.662558109
0.08050,2.357363701
0.08100,3.272946924
0.08150,4.798918962
0.08200,6.935279816
0.08250,7.850863039
0.08300,7.240474224
0.08350,5.409307778
0.08400,4.188530147
0.08450,4.493724555
0.08500,3.578141332
0.08550,-0.08419156075
0.08600,-4.051718861
0.08650,-4.662107676
0.08700,-2.525746822
0.08750,-1.304969192
0.08800,-3.441330045
0.08850,-5.272496492
0.08900,-4.051718861
0.08950,-1.915358007
0.09000,-2.220552415
0.09050,-4.662107676
0.09100,-6.188079715
0.09150,-5.882885307
0.09200,-5.882885307
0.09250,-4.967302084
0.09300,-2.220552415
0.09350,1.441780478
0.09400,2.357363701
0.09450,-0.08419156075
0.09500,-2.525746822
0.09550,-1.610163599
0.09600,0.5261972547
0.09650,1.746974885
0.09700,2.052169293
0.09750,2.967752516
0.09800,4.188530147
0.09850,3.883335739
0.09900,2.357363701
0.09950,0.5261972547
0.10000,-0.08419156075
0.10050,-0.3893859684
0.10100,-0.6945803761
0.10150,-0.08419156075
0.10200,0.221002847
0.10250,0.5261972547
0.10300,-0.08419156075
0.10350,-0.6945803761
0.10400,-1.304969192
0.10450,-0.9997747838
0.10500,-0.3893859684
0.10550,0.221002847
0.10600,0.8313916624
0.10650,1.441780478
0.10700,2.052169293
0.10750,2.052169293
0.10800,1.746974885
0.10850,1.746974885
0.10900,2.662558109
0.10950,4.493724555
0.11000,5.409307778
0.11050,4.188530147
0.11100,2.052169293
0.11150,1.13658607
0.11200,1.441780478
0.11250,2.357363701
0.11300,3.272946924
0.11350,2.662558109
0.11400,-0.08419156075
0.11450,-3.136135638
0.11500,-5.272496492
0.11550,-5.272496492
0.11600,-3.441330045
0.11650,-1.304969192
0.11700,-0.08419156075
0.11750,-0.08419156075
0.11800,-0.6945803761
0.11850,-1.304969192
0.11900,-0.3893859684
0.11950,1.746974885
0.12000,3.578141332
0.12050,3.578141332
0.12100,3.578141332
0.12150,4.188530147
0.12200,4.798918962
0.12250,4.493724555
0.12300,4.188530147
0.12350,3.578141332
0.12400,2.052169293
0.12450,-0.08419156075
0.12500,-0.08419156075
0.12550,1.13658607
0.12600,2.662558109
0.12650,1.441780478
0.12700,-0.3893859684
0.12750,-1.610163599
0.12800,-2.525746822
0.12850,-4.051718861
0.12900,-5.577690899
0.12950,-4.967302084
0.13000,-3.136135638
0.13050,-2.220552415
0.13100,-2.220552415
0.13150,-1.610163599
0.13200,-0.08419156075
0.13250,0.221002847
0.13300,-0.6945803761
0.13350,-1.915358007
0.13400,-2.220552415
0.13450,-2.220552415
0.13500,-1.915358007
0.13550,-0.6945803761
0.13600,0.8313916624
0.13650,0.8313916624
0.13700,-1.304969192
0.13750,-3.746524453
0.13800,-4.662107676
0.13850,-4.356913269
0.13900,-4.051718861
0.13950,-3.746524453
0.14000,-2.83094123
0.14050,-2.525746822
0.14100,-3.441330045
0.14150,-4.051718861
0.14200,-3.746524453
0.14250,-2.83094123
0.14300,-2.83094123
0.14350,-3.746524453
0.14400,-4.356913269
0.14450,-4.662107676
0.14500,-4.662107676
0.14550,-4.356913269
0.14600,-3.136135638
0.14650,-1.304969192
0.14700,-0.3893859684
0.14750,-0.9997747838
0.14800,-2.525746822
0.14850,-3.441330045
0.14900,-3.746524453
0.14950,-3.746524453
0.15000,-4.051718861
0.15050,-4.356913269
0.15100,-4.356913269
0.15150,-3.746524453
0.15200,-2.83094123
0.15250,-1.915358007
0.15300,-0.9997747838
0.15350,-0.6945803761
0.15400,-1.304969192
0.15450,-1.915358007
0.15500,-1.304969192
0.15550,-0.08419156075
0.15600,1.441780478
0.15650,0.8313916624
0.15700,-0.3893859684
0.15750,-0.9997747838
0.15800,-0.08419156075
0.15850,-0.08419156075
0.15900,-2.220552415
0.15950,-4.356913269
0.16000,-4.356913269
0.16050,-2.83094123
0.16100,-1.915358007
0.16150,-2.525746822
0.16200,-3.441330045
0.16250,-4.356913269
0.16300,-5.577690899
0.16350,-6.79846853
0.16400,-7.714051753
0.16450,-8.324440569
0.16500,-8.019246161
0.16550,-5.577690899
0.16600,-0.6945803761
0.16650,2.357363701
0.16700,1.13658607
0.16750,-1.915358007
0.16800,-2.83094123
0.16850,-0.9997747838
0.16900,-0.3893859684
0.16950,-2.220552415
0.17000,-4.051718861
0.17050,-3.441330045
0.17100,-2.220552415
0.17150,-2.525746822
0.17200,-3.136135638
0.17250,-2.525746822
0.17300,-1.304969192
0.17350,-1.610163599
0.17400,-2.220552415
0.17450,-1.915358007
0.17500,-0.9997747838
0.17550,-0.6945803761
0.17600,-0.6945803761
0.17650,-0.08419156075
0.17700,-0.08419156075
0.17750,-0.08419156075
0.17800,-0.6945803761
0.17850,-0.08419156075
0.17900,1.13658607
0.17950,2.662558109
0.18000,3.272946924
0.18050,3.272946924
0.18100,3.578141332
0.18150,4.188530147
0.18200,4.798918962
0.18250,4.493724555
0.18300,2.662558109
0.18350,0.5261972547
0.18400,-0.6945803761
0.18450,-1.915358007
0.18500,-3.136135638
0.18550,-3.136135638
0.18600,-1.610163599
0.18650,-0.9997747838
0.18700,-2.220552415
0.18750,-3.441330045
0.18800,-2.220552415
0.18850,-0.08419156075
0.18900,1.441780478
0.18950,2.357363701
0.19000,5.409307778
0.19050,9.987223893
0.19100,11.51319593
0.19150,9.376835078
0.19200,6.019696593
0.19250,4.798918962
0.19300,5.10411337
0.19350,4.798918962
0.19400,4.493724555
0.19450,3.578141332
0.19500,1.746974885
0.19550,-0.08419156075
0.19600,0.5261972547
0.19650,3.883335739
0.19700,6.935279816
0.19750,7.850863039
0.19800,6.935279816
0.19850,6.324891001
0.19900,6.324891001
0.19950,5.714502186
0.20000,5.10411337
0.20050,5.409307778
0.20100,5.714502186
0.20150,5.409307778
0.20200,4.493724555
0.20250,4.798918962
0.20300,5.10411337
0.20350,4.798918962
0.20400,3.883335739
0.20450,2.967752516
0.20500,1.746974885
0.20550,-0.08419156075
0.20600,-1.610163599
0.20650,-0.9997747838
0.20700,0.5261972547
0.20750,1.746974885
0.20800,2.662558109
0.20850,3.272946924
0.20900,2.052169293
0.20950,-1.304969192
0.21000,-3.746524453
0.21050,-2.220552415
0.21100,1.441780478
0.21150,3.578141332
0.21200,3.272946924
0.21250,2.967752516
0.21300,3.578141332
0.21350,3.883335739
0.21400,2.662558109
0.21450,3.272946924
0.21500,5.409307778
0.21550,6.935279816
0.21600,5.409307778
0.21650,3.578141332
0.21700,3.272946924
0.21750,3.272946924
0.21800,1.746974885
0.21850,-0.08419156075
0.21900,-0.9997747838
0.21950,-0.9997747838
0.22000,-1.304969192
0.22050,-1.915358007
0.22100,-1.610163599
0.22150,-0.3893859684
0.22200,-0.08419156075
0.22250,-0.6945803761
0.22300,-1.610163599
0.22350,-1.915358007
0.22400,-2.220552415
0.22450,-2.83094123
0.22500,-4.356913269
0.22550,-6.188079715
0.22600,-7.103662938
0.22650,-6.493274122
0.22700,-4.967302084
0.22750,-4.356913269
0.22800,-3.441330045
0.22850,-1.915358007
0.22900,-0.3893859684
0.22950,-0.6945803761
0.23000,-1.610163599
0.23050,-0.3893859684
0.23100,1.441780478
0.23150,1.13658607
0.23200,-2.220552415
0.23250,-4.356913269
0.23300,-1.915358007
0.23350,1.441780478
0.23400,2.052169293
0.23450,1.13658607
0.23500,1.13658607
0.23550,2.662558109
0.23600,3.883335739
0.23650,5.409307778
0.23700,7.240474224
0.23750,6.324891001
0.23800,0.221002847
0.23850,-7.103662938
0.23900,-10.15560701
0.23950,-7.408857346
0.24000,-4.051718861
0.24050,-3.136135638
0.24100,-2.83094123
0.24150,-1.610163599
0.24200,-1.304969192
0.24250,-3.746524453
0.24300,-6.79846853
0.24350,-8.324440569
0.24400,-8.019246161
0.24450,-7.408857346
0.24500,-6.79846853
0.24550,-5.882885307
0.24600,-4.051718861
0.24650,-2.220552415
0.24700,-0.3893859684
0.24750,0.8313916624
0.24800,1.13658607
0.24850,0.5261972547
0.24900,-0.3893859684
0.24950,-0.9997747838
0.25000,-1.304969192
0.25050,-0.6945803761
0.25100,0.5261972547
0.25150,2.357363701
0.25200,3.272946924
0.25250,2.967752516
0.25300,2.052169293
0.25350,2.052169293
0.25400,2.662558109
0.25450,3.272946924
0.25500,3.272946924
0.25550,2.967752516
0.25600,2.662558109
0.25650,2.052169293
0.25700,1.441780478
0.25750,0.8313916624
0.25800,1.13658607
0.25850,2.052169293
0.25900,3.272946924
0.25950,4.188530147
0.26000,3.578141332
0.26050,2.357363701
0.26100,1.441780478
0.26150,1.746974885
0.26200,2.967752516
0.26250,4.798918962
0.26300,6.019696593
0.26350,5.10411337
0.26400,2.967752516
0.26450,1.13658607
0.26500,1.13658607
0.26550,1.746974885
0.26600,1.441780478
0.26650,0.221002847
0.26700,0.221002847
0.26750,1.13658607
0.26800,1.746974885
0.26850,2.052169293
0.26900,1.746974885
0.26950,1.441780478
0.27000,0.5261972547
0.27050,0.8313916624
0.27100,2.662558109
0.27150,4.493724555
0.27200,4.188530147
0.27250,1.441780478
0.27300,-0.3893859684
0.27350,-0.6945803761
0.27400,-0.08419156075
0.27450,-0.08419156075
0.27500,-0.9997747838
0.27550,-1.304969192
0.27600,-1.610163599
0.27650,-1.915358007
0.27700,-2.83094123
0.27750,-4.356913269
0.27800,-6.493274122
0.27850,-8.629634976
0.27900,-8.324440569
0.27950,-4.662107676
0.28000,-0.3893859684
0.28050,2.357363701
0.28100,3.578141332
0.28150,3.578141332
0.28200,2.967752516
0.28250,0.8313916624
0.28300,-1.915358007
0.28350,-3.136135638
0.28400,-2.83094123
0.28450,-2.83094123
0.28500,-4.967302084
0.28550,-6.79846853
0.28600,-6.79846853
0.28650,-4.662107676
0.28700,-3.441330045
0.28750,-4.051718861
0.28800,-5.272496492
0.28850,-4.662107676
0.28900,-3.136135638
0.28950,-1.304969192
0.29000,-0.3893859684
0.29050,-0.3893859684
0.29100,-0.9997747838
0.29150,-1.304969192
0.29200,-0.6945803761
0.29250,-0.6945803761
0.29300,-0.6945803761
0.29350,-0.6945803761
0.29400,1.13658607
0.29450,3.883335739
0.29500,4.798918962
0.29550,3.578141332
0.29600,1.13658607
0.29650,-0.3893859684
0.29700,-2.525746822
0.29750,-4.662107676
0.29800,-5.577690899
0.29850,-4.051718861
0.29900,-0.9997747838
0.29950,0.8313916624
0.30000,1.746974885
0.30050,2.052169293
0.30100,2.357363701
0.30150,2.662558109
0.30200,2.662558109
0.30250,2.662558109
0.30300,2.052169293
0.30350,0.8313916624
0.30400,-0.08419156075
0.30450,1.13658607
0.30500,3.578141332
0.30550,5.409307778
0.30600,5.10411337
0.30650,4.798918962
0.30700,5.714502186
0.30750,6.630085409
0.30800,6.019696593
0.30850,4.188530147
0.30900,2.662558109
0.30950,1.441780478
0.31000,1.441780478
0.31050,2.662558109
0.31100,4.798918962
0.31150,6.019696593
0.31200,5.409307778
0.31250,4.493724555
0.31300,4.493724555
0.31350,5.10411337
0.31400,5.10411337
0.31450,4.493724555
0.31500,3.578141332
0.31550,2.052169293
0.31600,0.8313916624
0.31650,0.8313916624
0.31700,1.746974885
0.31750,2.662558109
0.31800,2.662558109
0.31850,2.967752516
0.31900,3.883335739
0.31950,3.578141332
0.32000,2.052169293
0.32050,0.5261972547
0.32100,0.8313916624
0.32150,2.052169293
0.32200,2.357363701
0.32250,2.052169293
0.32300,2.357363701
0.32350,3.578141332
0.32400,5.409307778
0.32450,6.324891001
0.32500,5.409307778
0.32550,2.662558109
0.32600,-0.6945803761
0.32650,-2.525746822
0.32700,-1.915358007
0.32750,-0.08419156075
0.32800,0.8313916624
0.32850,0.8313916624
0.32900,0.8313916624
0.32950,1.441780478
0.33000,2.662558109
0.33050,2.967752516
0.33100,2.967752516
0.33150,2.357363701
0.33200,2.357363701
0.33250,2.357363701
0.33300,1.441780478
0.33350,-0.6945803761
0.33400,-2.525746822
0.33450,-2.525746822
0.33500,-1.304969192
0.33550,-0.6945803761
0.33600,-1.915358007
0.33650,-3.136135638
0.33700,-2.83094123
0.33750,-1.610163599
0.33800,-0.6945803761
0.33850,-0.6945803761
0.33900,-2.220552415
0.33950,-4.356913269
0.34000,-5.577690899
0.34050,-4.356913269
0.34100,-1.915358007
0.34150,-0.08419156075
0.34200,0.221002847
0.34250,-0.08419156075
0.34300,-0.08419156075
0.34350,2.052169293
0.34400,4.493724555
0.34450,5.10411337
0.34500,2.052169293
0.34550,-2.525746822
0.34600,-5.577690899
0.34650,-4.662107676
0.34700,-2.220552415
0.34750,-0.6945803761
0.34800,-0.3893859684
0.34850,0.221002847
0.34900,0.8313916624
0.34950,0.8313916624
0.35000,0.5261972547
0.35050,0.8313916624
0.35100,1.746974885
0.35150,1.746974885
0.35200,0.8313916624
0.35250,-0.6945803761
0.35300,-3.136135638
0.35350,-4.967302084
0.35400,-5.272496492
0.35450,-3.441330045
0.35500,-1.304969192
0.35550,-0.9997747838
0.35600,-1.304969192
0.35650,-0.3893859684
0.35700,0.8313916624
0.35750,1.13658607
0.35800,0.221002847
0.35850,0.5261972547
0.35900,2.052169293
0.35950,2.357363701
0.36000,0.221002847
0.36050,-0.6945803761
0.36100,-0.3893859684
0.36150,-0.08419156075
0.36200,-1.610163599
0.36250,-3.136135638
0.36300,-3.746524453
0.36350,-4.662107676
0.36400,-7.103662938
0.36450,-8.629634976
0.36500,-7.714051753
0.36550,-5.272496492
0.36600,-4.662107676
0.36650,-4.662107676
0.36700,-4.356913269
0.36750,-3.746524453
0.36800,-4.356913269
0.36850,-4.662107676
0.36900,-3.746524453
0.36950,-1.915358007
0.37000,-0.9997747838
0.37050,-1.304969192
0.37100,-2.220552415
0.37150,-3.441330045
0.37200,-4.051718861
0.37250,-2.83094123
0.37300,0.8313916624
0.37350,3.883335739
0.37400,2.662558109
0.37450,-0.9997747838
0.37500,-3.441330045
0.37550,-2.525746822
0.37600,-0.9997747838
0.37650,-0.6945803761
0.37700,-1.304969192
0.37750,-1.304969192
0.37800,-1.610163599
0.37850,-2.525746822
0.37900,-3.746524453
0.37950,-3.441330045
0.38000,-2.220552415
0.38050,-1.304969192
0.38100,-1.915358007
0.38150,-3.136135638
0.38200,-4.356913269
0.38250,-4.662107676
0.38300,-3.746524453
0.38350,-2.525746822
0.38400,-1.304969192
0.38450,-0.6945803761
0.38500,0.5261972547
0.38550,2.967752516
0.38600,5.10411337
0.38650,4.798918962
0.38700,2.357363701
0.38750,-0.6945803761
0.38800,-4.051718861
0.38850,-6.493274122
0.38900,-7.408857346
0.38950,-6.79846853
0.39000,-5.577690899
0.39050,-4.967302084
0.39100,-4.356913269
0.39150,-3.441330045
0.39200,-2.220552415
0.39250,-2.220552415
0.39300,-3.136135638
0.39350,-2.220552415
0.39400,-0.08419156075
0.39450,0.8313916624
0.39500,-0.08419156075
0.39550,-0.6945803761
0.39600,-0.08419156075
0.39650,1.13658607
0.39700,1.746974885
0.39750,1.746974885
0.39800,1.441780478
0.39850,1.746974885
0.39900,1.441780478
0.39950,0.5261972547
0.40000,-0.08419156075
0.40050,-0.6945803761
0.40100,-1.304969192
0.40150,-1.610163599
0.40200,-1.610163599
0.40250,-0.9997747838
0.40300,-0.08419156075
0.40350,0.8313916624
0.40400,1.441780478
0.40450,0.8313916624
0.40500,-0.6945803761
0.40550,-2.525746822
0.40600,-3.136135638
0.40650,-2.525746822
0.40700,-1.915358007
0.40750,-2.220552415
0.40800,-3.136135638
0.40850,-3.746524453
0.40900,-2.83094123
0.40950,-0.3893859684
0.41000,1.441780478
0.41050,2.052169293
0.41100,1.13658607
0.41150,0.221002847
0.41200,-0.08419156075
0.41250,0.221002847
0.41300,0.5261972547
0.41350,1.441780478
0.41400,1.746974885
0.41450,1.441780478
0.41500,0.8313916624
0.41550,0.5261972547
0.41600,0.8313916624
0.41650,0.5261972547
0.41700,0.5261972547
0.41750,2.357363701
0.41800,5.10411337
0.41850,5.409307778
0.41900,2.357363701
0.41950,-0.9997747838
0.42000,-2.220552415
0.42050,-0.3893859684
0.42100,1.441780478
0.42150,1.746974885
0.42200,0.221002847
0.42250,-1.915358007
0.42300,-3.441330045
0.42350,-3.746524453
0.42400,-2.83094123
0.42450,-1.915358007
0.42500,-1.304969192
0.42550,-0.6945803761
0.42600,-0.08419156075
0.42650,0.5261972547
0.42700,0.221002847
0.42750,-0.9997747838
0.42800,-2.525746822
0.42850,-2.220552415
0.42900,-0.3893859684
0.42950,1.13658607
0.43000,1.441780478
0.43050,1.13658607
0.43100,1.746974885
0.43150,2.662558109
0.43200,2.967752516
0.43250,2.967752516
0.43300,3.883335739
0.43350,6.324891001
0.43400,7.850863039
0.43450,7.850863039
0.43500,7.545668632
0.43550,6.935279816
0.43600,4.798918962
0.43650,0.221002847
0.43700,-3.746524453
0.43750,-4.662107676
0.43800,-2.525746822
0.43850,-1.304969192
0.43900,-2.525746822
0.43950,-4.662107676
0.44000,-4.356913269
0.44050,-3.441330045
0.44100,-2.83094123
0.44150,-2.220552415
0.44200,-1.610163599
0.44250,-0.6945803761
0.44300,-0.9997747838
0.44350,-1.610163599
0.44400,-0.9997747838
0.44450,-0.08419156075
0.44500,-0.6945803761
0.44550,-2.525746822
0.44600,-3.746524453
0.44650,-3.441330045
0.44700,-1.915358007
0.44750,0.221002847
0.44800,3.272946924
0.44850,4.798918962
0.44900,3.272946924
0.44950,0.221002847
0.45000,-1.610163599
0.45050,-2.83094123
0.45100,-3.441330045
0.45150,-3.746524453
0.45200,-3.136135638
0.45250,-1.915358007
0.45300,-2.220552415
0.45350,-3.136135638
0.45400,-3.441330045
0.45450,-2.525746822
0.45500,-1.610163599
0.45550,-0.6945803761
0.45600,-0.08419156075
0.45650,0.221002847
0.45700,0.5261972547
0.45750,0.5261972547
0.45800,1.441780478
0.45850,2.967752516
0.45900,2.967752516
0.45950,0.8313916624
0.46000,-1.304969192
0.46050,-1.915358007
0.46100,-1.304969192
0.46150,-0.9997747838
0.46200,-0.9997747838
0.46250,-1.610163599
0.46300,-1.915358007
0.46350,-1.915358007
0.46400,-1.915358007
0.46450,-2.83094123
0.46500,-3.136135638
0.46550,-2.83094123
0.46600,-1.610163599
0.46650,-0.9997747838
0.46700,-0.3893859684
0.46750,0.8313916624
0.46800,2.357363701
0.46850,1.746974885
0.46900,-0.6945803761
0.46950,-2.525746822
0.47000,-1.915358007
0.47050,-0.6945803761
0.47100,-0.6945803761
0.47150,-1.610163599
0.47200,-2.220552415
0.47250,-1.610163599
0.47300,-0.08419156075
0.47350,1.441780478
0.47400,2.967752516
0.47450,2.662558109
0.47500,0.5261972547
0.47550,-0.6945803761
0.47600,-0.08419156075
0.47650,1.441780478
0.47700,1.746974885
0.47750,0.5261972547
0.47800,-0.08419156075
0.47850,-0.3893859684
0.47900,-0.9997747838
0.47950,-2.220552415
0.48000,-2.220552415
0.48050,-0.9997747838
0.48100,0.8313916624
0.48150,1.441780478
0.48200,1.441780478
0.48250,1.441780478
0.48300,2.052169293
0.48350,2.967752516
0.48400,3.883335739
0.48450,3.883335739
0.48500,2.662558109
0.48550,1.441780478
0.48600,1.13658607
0.48650,2.052169293
0.48700,3.272946924
0.48750,3.578141332
0.48800,5.10411337
0.48850,8.156057447
0.48900,10.90280712
0.48950,11.20800152
0.49000,8.461251855
0.49050,5.409307778
0.49100,4.188530147
0.49150,2.357363701
0.49200,-0.9997747838
0.49250,-5.272496492
0.49300,-7.103662938
0.49350,-6.188079715
0.49400,-4.662107676
0.49450,-3.441330045
0.49500,-1.610163599
0.49550,0.221002847
0.49600,0.8313916624
0.49650,0.221002847
0.49700,-0.08419156075
0.49750,-0.08419156075
0.49800,-0.6945803761
0.49850,-2.525746822
0.49900,-4.051718861
0.49950,-3.136135638
0.50000,-1.304969192
0.50050,-0.08419156075
0.50100,-0.08419156075
0.50150,-0.08419156075
0.50200,0.5261972547
0.50250,1.746974885
0.50300,2.662558109
0.50350,3.883335739
0.50400,4.493724555
0.50450,5.409307778
0.50500,5.714502186
0.50550,5.714502186
0.50600,5.10411337
0.50650,3.272946924
0.50700,0.221002847
0.50750,-3.136135638
0.50800,-5.577690899
0.50850,-5.577690899
0.50900,-3.746524453
0.50950,-2.220552415
0.51000,-1.915358007
0.51050,-1.304969192
0.51100,0.221002847
0.51150,2.357363701
0.51200,3.272946924
0.51250,2.357363701
0.51300,0.8313916624
0.51350,-0.3893859684
0.51400,-1.304969192
0.51450,-1.304969192
0.51500,-0.9997747838
0.51550,-1.304969192
0.51600,-2.220552415
0.51650,-3.136135638
0.51700,-3.746524453
0.51750,-3.746524453
0.51800,-3.136135638
0.51850,-2.220552415
0.51900,-1.304969192
0.51950,-0.9997747838
0.52000,-0.9997747838
0.52050,-0.3893859684
0.52100,-0.08419156075
0.52150,-0.08419156075
0.52200,-0.3893859684
0.52250,-0.3893859684
0.52300,-0.08419156075
0.52350,-0.08419156075
0.52400,-0.3893859684
0.52450,-0.08419156075
0.52500,1.441780478
0.52550,3.272946924
0.52600,3.272946924
0.52650,2.357363701
0.52700,2.967752516
0.52750,4.798918962
0.52800,6.324891001
0.52850,6.019696593
0.52900,3.883335739
0.52950,0.5261972547
0.53000,-2.83094123
0.53050,-4.662107676
0.53100,-3.746524453
0.53150,-1.610163599
0.53200,-0.6945803761
0.53250,-1.304969192
0.53300,-3.136135638
0.53350,-4.051718861
0.53400,-4.356913269
0.53450,-4.051718861
0.53500,-4.662107676
0.53550,-5.882885307
0.53600,-6.188079715
0.53650,-5.882885307
0.53700,-5.272496492
0.53750,-5.577690899
0.53800,-5.272496492
0.53850,-3.746524453
0.53900,-1.610163599
0.53950,-0.3893859684
0.54000,0.221002847
0.54050,2.052169293
0.54100,3.272946924
0.54150,2.052169293
0.54200,-0.6945803761
0.54250,-2.83094123
0.54300,-2.83094123
0.54350,-2.220552415
0.54400,-0.9997747838
0.54450,0.8313916624
0.54500,2.662558109
0.54550,2.357363701
0.54600,-0.3893859684
0.54650,-2.83094123
0.54700,-2.525746822
0.54750,-0.9997747838
0.54800,-0.3893859684
0.54850,-0.08419156075
0.54900,1.13658607
0.54950,2.357363701
0.55000,2.357363701
0.55050,1.441780478
0.55100,0.221002847
0.55150,-0.08419156075
0.55200,-0.9997747838
0.55250,-1.915358007
0.55300,-2.220552415
0.55350,-1.304969192
0.55400,0.5261972547
0.55450,2.967752516
0.55500,3.883335739
0.55550,2.357363701
0.55600,0.221002847
0.55650,-0.08419156075
0.55700,2.357363701
0.55750,3.883335739
0.55800,2.662558109
0.55850,1.13658607
0.55900,1.746974885
0.55950,3.578141332
0.56000,4.798918962
0.56050,4.493724555
0.56100,4.188530147
0.56150,3.883335739
0.56200,2.967752516
0.56250,2.052169293
0.56300,1.746974885
0.56350,1.13658607
0.56400,-0.9997747838
0.56450,-3.136135638
0.56500,-2.525746822
0.56550,-0.08419156075
0.56600,2.052169293
0.56650,2.662558109
0.56700,3.272946924
0.56750,4.188530147
0.56800,3.272946924
0.56850,0.8313916624
0.56900,-0.08419156075
0.56950,1.13658607
0.57000,2.662558109
0.57050,2.357363701
0.57100,1.441780478
0.57150,1.441780478
0.57200,2.662558109
0.57250,3.272946924
0.57300,3.272946924
0.57350,3.578141332
0.57400,4.188530147
0.57450,4.493724555
0.57500,5.714502186
0.57550,6.935279816
0.57600,7.545668632
0.57650,6.630085409
0.57700,5.714502186
0.57750,5.409307778
0.57800,4.798918962
0.57850,3.883335739
0.57900,3.272946924
0.57950,4.493724555
0.58000,6.630085409
0.58050,7.545668632
0.58100,6.324891001
0.58150,4.493724555
0.58200,2.357363701
0.58250,0.5261972547
0.58300,-0.6945803761
0.58350,-0.9997747838
0.58400,-0.9997747838
0.58450,-0.3893859684
0.58500,-0.08419156075
0.58550,0.5261972547
0.58600,1.13658607
0.58650,0.8313916624
0.58700,0.221002847
0.58750,-0.6945803761
0.58800,-1.915358007
0.58850,-3.441330045
0.58900,-3.136135638
0.58950,-1.304969192
0.59000,0.221002847
0.59050,-0.08419156075
0.59100,-0.9997747838
0.59150,-0.9997747838
0.59200,0.221002847
0.59250,1.441780478
0.59300,0.8313916624
0.59350,0.221002847
0.59400,0.8313916624
0.59450,2.967752516
0.59500,3.883335739
0.59550,2.662558109
0.59600,0.5261972547
0.59650,-0.3893859684
0.59700,-0.08419156075
0.59750,0.8313916624
0.59800,2.052169293
0.59850,2.967752516
0.59900,3.578141332
0.59950,3.578141332
0.60000,2.052169293
0.60050,-1.610163599
0.60100,-5.882885307
0.60150,-8.019246161
0.60200,-7.408857346
0.60250,-6.188079715
0.60300,-7.103662938
0.60350,-9.240023792
0.60400,-10.46080142
0.60450,-9.545218199
0.60500,-7.408857346
0.60550,-6.493274122
0.60600,-6.188079715
0.60650,-4.967302084
0.60700,-3.441330045
0.60750,-3.746524453
0.60800,-4.662107676
0.60850,-4.662107676
0.60900,-3.136135638
0.60950,-2.83094123
0.61000,-5.577690899
0.61050,-7.714051753
0.61100,-6.493274122
0.61150,-3.136135638
0.61200,-2.220552415
0.61250,-4.051718861
0.61300,-4.356913269
0.61350,-1.610163599
0.61400,0.8313916624
0.61450,1.13658607
0.61500,-0.08419156075
0.61550,-0.3893859684
0.61600,0.5261972547
0.61650,2.052169293
0.61700,3.272946924
0.61750,2.967752516
0.61800,1.441780478
0.61850,-0.08419156075
0.61900,-0.9997747838
0.61950,-0.9997747838
0.62000,-1.915358007
0.62050,-3.441330045
0.62100,-3.746524453
0.62150,-2.525746822
0.62200,-1.304969192
0.62250,-1.304969192
0.62300,-2.220552415
0.62350,-2.83094123
0.62400,-3.441330045
0.62450,-4.051718861
0.62500,-3.746524453
0.62550,-2.525746822
0.62600,-2.525746822
0.62650,-3.136135638
0.62700,-3.441330045
0.62750,-3.136135638
0.62800,-2.83094123
0.62850,-2.83094123
0.62900,-1.915358007
0.62950,-0.6945803761
0.63000,-0.6945803761
0.63050,-1.915358007
0.63100,-1.915358007
0.63150,0.8313916624
0.63200,2.967752516
0.63250,0.8313916624
0.63300,-4.356913269
0.63350,-9.240023792
0.63400,-10.46080142
0.63450,-8.324440569
0.63500,-5.272496492
0.63550,-3.136135638
0.63600,-2.220552415
0.63650,-0.9997747838
0.63700,0.5261972547
0.63750,1.441780478
0.63800,0.5261972547
0.63850,-0.08419156075
0.63900,0.5261972547
0.63950,2.662558109
0.64000,4.188530147
0.64050,3.578141332
0.64100,2.662558109
0.64150,2.662558109
0.64200,2.967752516
0.64250,2.357363701
0.64300,0.8313916624
0.64350,-0.08419156075
0.64400,-0.6945803761
0.64450,-0.9997747838
0.64500,-0.3893859684
0.64550,0.221002847
0.64600,1.13658607
0.64650,0.8313916624
0.64700,1.441780478
0.64750,2.967752516
0.64800,4.188530147
0.64850,2.967752516
0.64900,-0.08419156075
0.64950,-2.525746822
0.65000,-2.83094123
0.65050,-2.220552415
0.65100,-2.220552415
0.65150,-1.915358007
0.65200,-0.3893859684
0.65250,1.13658607
0.65300,2.662558109
0.65350,4.188530147
0.65400,5.714502186
0.65450,6.019696593
0.65500,4.798918962
0.65550,3.578141332
0.65600,4.188530147
0.65650,6.630085409
0.65700,9.07164067
0.65750,10.2924183
0.65800,9.682029486
0.65850,7.545668632
0.65900,3.272946924
0.65950,-0.9997747838
0.66000,-3.136135638
0.66050,-1.915358007
0.66100,0.5261972547
0.66150,3.272946924
0.66200,4.188530147
0.66250,3.272946924
0.66300,1.13658607
0.66350,-0.08419156075
0.66400,-0.08419156075
0.66450,0.221002847
0.66500,0.5261972547
0.66550,1.13658607
0.66600,2.662558109
0.66650,4.188530147
0.66700,4.188530147
0.66750,2.662558109
0.66800,0.8313916624
0.66850,-0.08419156075
0.66900,-0.3893859684
0.66950,-0.3893859684
0.67000,-0.08419156075
0.67050,0.221002847
0.67100,0.5261972547
0.67150,1.13658607
0.67200,1.441780478
0.67250,2.357363701
0.67300,2.967752516
0.67350,3.578141332
0.67400,3.578141332
0.67450,2.967752516
0.67500,1.13658607
0.67550,-0.9997747838
0.67600,-2.83094123
0.67650,-3.441330045
0.67700,-2.83094123
0.67750,-2.220552415
0.67800,-1.304969192
0.67850,-0.9997747838
0.67900,-0.08419156075
0.67950,2.052169293
0.68000,4.493724555
0.68050,5.10411337
0.68100,4.188530147
0.68150,2.967752516
0.68200,2.662558109
0.68250,2.967752516
0.68300,2.662558109
0.68350,2.357363701
0.68400,2.052169293
0.68450,2.052169293
0.68500,2.357363701
0.68550,3.578141332
0.68600,4.188530147
0.68650,3.272946924
0.68700,0.8313916624
0.68750,-0.08419156075
0.68800,-0.08419156075
0.68850,-0.6945803761
0.68900,-3.136135638
0.68950,-5.882885307
0.69000,-5.882885307
0.69050,-3.746524453
0.69100,-2.525746822
0.69150,-2.220552415
0.69200,-1.610163599
0.69250,-0.08419156075
0.69300,2.052169293
0.69350,2.967752516
0.69400,3.272946924
0.69450,4.188530147
0.69500,4.798918962
0.69550,2.662558109
0.69600,-0.9997747838
0.69650,-5.882885307
0.69700,-9.240023792
0.69750,-10.15560701
0.69800,-8.324440569
0.69850,-4.967302084
0.69900,-1.304969192
0.69950,2.052169293
0.70000,4.188530147
0.70050,4.798918962
0.70100,3.272946924
0.70150,0.5261972547
0.70200,-1.304969192
0.70250,-1.610163599
0.70300,-1.304969192
0.70350,-1.610163599
0.70400,-2.525746822
0.70450,-3.746524453
0.70500,-3.746524453
0.70550,-2.525746822
0.70600,-1.915358007
0.70650,-2.83094123
0.70700,-4.662107676
0.70750,-5.882885307
0.70800,-5.577690899
0.70850,-4.967302084
0.70900,-4.051718861
0.70950,-2.220552415
0.71000,0.221002847
0.71050,1.746974885
0.71100,0.8313916624
0.71150,-0.6945803761
0.71200,-0.9997747838
0.71250,-0.08419156075
0.71300,1.441780478
0.71350,1.441780478
0.71400,0.5261972547
0.71450,-0.08419156075
0.71500,-0.3893859684
0.71550,-1.304969192
0.71600,-2.220552415
0.71650,-2.525746822
0.71700,-1.610163599
0.71750,-0.6945803761
0.71800,-0.6945803761
0.71850,-0.6945803761
0.71900,-0.08419156075
0.71950,0.5261972547
0.72000,0.5261972547
0.72050,-0.08419156075
0.72100,-0.9997747838
0.72150,-1.915358007
0.72200,-2.525746822
0.72250,-2.525746822
0.72300,-1.915358007
0.72350,-0.3893859684
0.72400,1.441780478
0.72450,3.578141332
0.72500,4.798918962
0.72550,4.798918962
0.72600,3.883335739
0.72650,3.272946924
0.72700,3.578141332
0.72750,3.883335739
0.72800,3.578141332
0.72850,2.967752516
0.72900,3.272946924
0.72950,5.714502186
0.73000,8.156057447
0.73050,8.766446263
0.73100,6.630085409
0.73150,4.188530147
0.73200,2.662558109
0.73250,1.746974885
0.73300,0.221002847
0.73350,-1.304969192
0.73400,-1.304969192
0.73450,0.5261972547
0.73500,2.662558109
0.73550,1.746974885
0.73600,-0.08419156075
0.73650,-0.9997747838
0.73700,-0.08419156075
0.73750,1.13658607
0.73800,0.8313916624
0.73850,-0.08419156075
0.73900,-0.08419156075
0.73950,1.441780478
0.74000,4.798918962
0.74050,7.240474224
0.74100,7.850863039
0.74150,6.019696593
0.74200,3.578141332
0.74250,2.052169293
0.74300,1.746974885
0.74350,1.441780478
0.74400,-0.08419156075
0.74450,-1.610163599
0.74500,-1.915358007
0.74550,-0.6945803761
0.74600,0.8313916624
0.74650,2.052169293
0.74700,2.662558109
0.74750,4.188530147
0.74800,6.324891001
0.74850,7.545668632
0.74900,6.935279816
0.74950,5.10411337
0.75000,3.272946924
0.75050,1.746974885
0.75100,0.5261972547
0.75150,-0.08419156075
0.75200,-1.304969192
0.75250,-3.746524453
0.75300,-6.79846853
0.75350,-9.545218199
0.75400,-10.15560701
0.75450,-8.629634976
0.75500,-6.188079715
0.75550,-4.356913269
0.75600,-3.746524453
0.75650,-4.967302084
0.75700,-6.493274122
0.75750,-7.103662938
0.75800,-6.79846853
0.75850,-4.967302084
0.75900,-1.915358007
0.75950,1.746974885
0.76000,5.714502186
0.76050,7.850863039
0.76100,8.461251855
0.76150,7.240474224
0.76200,5.409307778
0.76250,2.052169293
0.76300,-1.304969192
0.76350,-4.051718861
0.76400,-4.967302084
0.76450,-5.272496492
0.76500,-6.188079715
0.76550,-6.493274122
0.76600,-6.188079715
0.76650,-4.967302084
0.76700,-4.662107676
0.76750,-4.967302084
0.76800,-4.662107676
0.76850,-4.051718861
0.76900,-3.746524453
0.76950,-4.662107676
0.77000,-4.967302084
0.77050,-3.441330045
0.77100,-1.610163599
0.77150,-1.610163599
0.77200,-3.441330045
0.77250,-4.967302084
0.77300,-4.662107676
0.77350,-3.746524453
0.77400,-3.746524453
0.77450,-4.356913269
0.77500,-4.967302084
0.77550,-5.272496492
0.77600,-5.272496492
0.77650,-3.441330045
0.77700,-1.304969192
0.77750,-0.6945803761
0.77800,-1.610163599
0.77850,-2.220552415
0.77900,0.221002847
0.77950,3.883335739
0.78000,5.10411337
0.78050,3.272946924
0.78100,0.8313916624
0.78150,-0.9997747838
0.78200,-2.525746822
0.78250,-3.136135638
0.78300,-1.915358007
0.78350,-0.08419156075
0.78400,1.13658607
0.78450,1.13658607
0.78500,0.5261972547
0.78550,-0.08419156075
0.78600,-0.08419156075
0.78650,0.5261972547
0.78700,1.441780478
0.78750,1.746974885
0.78800,0.8313916624
0.78850,-0.3893859684
0.78900,-1.304969192
0.78950,-2.83094123
0.79000,-4.051718861
0.79050,-4.051718861
0.79100,-2.525746822
0.79150,-1.304969192
0.79200,-1.304969192
0.79250,-0.6945803761
0.79300,1.441780478
0.79350,3.883335739
0.79400,3.578141332
0.79450,1.13658607
0.79500,-0.3893859684
0.79550,-0.6945803761
0.79600,-1.304969192
0.79650,-3.136135638
0.79700,-3.746524453
0.79750,-2.220552415
0.79800,-0.08419156075
0.79850,0.8313916624
0.79900,0.8313916624
0.79950,0.5261972547
0.80000,0.8313916624
0.80050,1.746974885
0.80100,2.052169293
0.80150,1.441780478
0.80200,0.5261972547
0.80250,0.5261972547
0.80300,1.441780478
0.80350,2.357363701
0.80400,2.357363701
0.80450,0.8313916624
0.80500,-0.9997747838
0.80550,-3.136135638
0.80600,-4.051718861
0.80650,-3.136135638
0.80700,-0.6945803761
0.80750,0.8313916624
0.80800,0.8313916624
0.80850,-0.3893859684
0.80900,-2.220552415
0.80950,-3.746524453
0.81000,-4.662107676
0.81050,-4.051718861
0.81100,-2.220552415
0.81150,-0.08419156075
0.81200,1.13658607
0.81250,0.5261972547
0.81300,-0.08419156075
0.81350,-0.08419156075
0.81400,0.8313916624
0.81450,1.13658607
0.81500,0.5261972547
0.81550,0.5261972547
0.81600,1.441780478
0.81650,2.967752516
0.81700,3.272946924
0.81750,2.357363701
0.81800,1.13658607
0.81850,0.5261972547
0.81900,0.221002847
0.81950,-0.08419156075
0.82000,-0.08419156075
0.82050,0.5261972547
0.82100,1.746974885
0.82150,2.967752516
0.82200,2.662558109
0.82250,1.13658607
0.82300,-0.08419156075
0.82350,-0.08419156075
0.82400,0.5261972547
0.82450,1.746974885
0.82500,2.052169293
0.82550,2.662558109
0.82600,4.493724555
0.82650,6.630085409
0.82700,6.324891001
0.82750,3.578141332
0.82800,1.746974885
0.82850,2.967752516
0.82900,4.798918962
0.82950,4.188530147
0.83000,1.746974885
0.83050,-0.08419156075
0.83100,-0.6945803761
0.83150,-0.9997747838
0.83200,-1.610163599
0.83250,-1.610163599
0.83300,-0.3893859684
0.83350,0.221002847
0.83400,-0.08419156075
0.83450,-0.6945803761
0.83500,-1.304969192
0.83550,-0.9997747838
0.83600,-0.08419156075
0.83650,0.221002847
0.83700,-0.08419156075
0.83750,-0.9997747838
0.83800,-1.915358007
0.83850,-1.610163599
0.83900,-0.6945803761
0.83950,-0.3893859684
0.84000,-0.3893859684
0.84050,-0.3893859684
0.84100,-0.08419156075
0.84150,-0.08419156075
0.84200,-0.3893859684
0.84250,-0.08419156075
0.84300,1.441780478
0.84350,2.967752516
0.84400,2.052169293
0.84450,-0.6945803761
0.84500,-3.441330045
0.84550,-3.746524453
0.84600,-3.136135638
0.84650,-3.136135638
0.84700,-4.051718861
0.84750,-4.967302084
0.84800,-4.967302084
0.84850,-5.272496492
0.84900,-6.188079715
0.84950,-7.103662938
0.85000,-7.103662938
0.85050,-6.188079715
0.85100,-5.272496492
0.85150,-4.662107676
0.85200,-4.051718861
0.85250,-3.746524453
0.85300,-3.441330045
0.85350,-4.051718861
0.85400,-5.272496492
0.85450,-6.493274122
0.85500,-6.493274122
0.85550,-5.272496492
0.85600,-4.356913269
0.85650,-4.356913269
0.85700,-5.272496492
0.85750,-5.577690899
0.85800,-5.882885307
0.85850,-6.188079715
0.85900,-6.79846853
0.85950,-6.79846853
0.86000,-6.188079715
0.86050,-5.882885307
0.86100,-5.882885307
0.86150,-4.967302084
0.86200,-4.051718861
0.86250,-4.356913269
0.86300,-5.882885307
0.86350,-6.493274122
0.86400,-5.272496492
0.86450,-3.441330045
0.86500,-2.525746822
0.86550,-2.83094123
0.86600,-3.746524453
0.86650,-4.356913269
0.86700,-3.136135638
0.86750,-0.3893859684
0.86800,2.357363701
0.86850,3.578141332
0.86900,3.883335739
0.86950,5.714502186
0.87000,8.156057447
0.87050,9.376835078
0.87100,7.545668632
0.87150,4.493724555
0.87200,2.052169293
0.87250,0.8313916624
0.87300,-0.08419156075
0.87350,-0.9997747838
0.87400,-0.9997747838
0.87450,-0.6945803761
0.87500,-0.3893859684
0.87550,0.221002847
0.87600,1.441780478
0.87650,2.357363701
0.87700,2.052169293
0.87750,2.052169293
0.87800,2.052169293
0.87850,1.441780478
0.87900,0.5261972547
0.87950,0.5261972547
0.88000,1.441780478
0.88050,2.052169293
0.88100,2.052169293
0.88150,3.272946924
0.88200,6.630085409
0.88250,9.376835078
0.88300,9.376835078
0.88350,8.461251855
0.88400,7.850863039
0.88450,7.850863039
0.88500,6.324891001
0.88550,4.493724555
0.88600,3.883335739
0.88650,4.493724555
0.88700,4.798918962
0.88750,6.019696593
0.88800,8.156057447
0.88850,9.07164067
0.88900,6.019696593
0.88950,1.13658607
0.89000,-0.6945803761
0.89050,-0.3893859684
0.89100,-0.08419156075
0.89150,-0.08419156075
0.89200,0.8313916624
0.89250,2.052169293
0.89300,0.8313916624
0.89350,-1.610163599
0.89400,-2.220552415
0.89450,-0.08419156075
0.89500,1.441780478
0.89550,0.8313916624
0.89600,-0.3893859684
0.89650,-0.6945803761
0.89700,-0.3893859684
0.89750,-0.08419156075
0.89800,0.221002847
0.89850,0.5261972547
0.89900,-0.08419156075
0.89950,-0.6945803761
0.90000,0.221002847
0.90050,1.746974885
0.90100,1.13658607
0.90150,-0.08419156075
0.90200,1.441780478
0.90250,6.324891001
0.90300,9.07164067
0.90350,6.630085409
0.90400,2.357363701
0.90450,0.8313916624
0.90500,1.746974885
0.90550,1.13658607
0.90600,-0.9997747838
0.90650,-3.441330045
0.90700,-4.356913269
0.90750,-4.662107676
0.90800,-4.051718861
0.90850,-2.525746822
0.90900,-0.08419156075
0.90950,1.441780478
0.91000,1.441780478
0.91050,0.221002847
0.91100,-0.9997747838
0.91150,-2.220552415
0.91200,-2.83094123
0.91250,-2.525746822
0.91300,-1.304969192
0.91350,-0.3893859684
0.91400,-0.9997747838
0.91450,-2.220552415
0.91500,-1.610163599
0.91550,0.5261972547
0.91600,2.967752516
0.91650,3.578141332
0.91700,3.272946924
0.91750,3.272946924
0.91800,3.272946924
0.91850,2.662558109
0.91900,1.13658607
0.91950,0.221002847
0.92000,-0.08419156075
0.92050,-0.3893859684
0.92100,-0.6945803761
0.92150,-0.08419156075
0.92200,0.8313916624
0.92250,1.441780478
0.92300,1.13658607
0.92350,1.13658607
0.92400,1.441780478
0.92450,0.221002847
0.92500,-1.304969192
0.92550,-2.525746822
0.92600,-1.304969192
0.92650,-0.08419156075
0.92700,0.8313916624
0.92750,0.5261972547
0.92800,-0.08419156075
0.92850,-0.6945803761
0.92900,-1.304969192
0.92950,-1.915358007
0.93000,-1.610163599
0.93050,-1.610163599
0.93100,-1.304969192
0.93150,-0.9997747838
0.93200,-1.304969192
0.93250,-2.83094123
0.93300,-4.967302084
0.93350,-6.188079715
0.93400,-5.577690899
0.93450,-4.051718861
0.93500,-3.441330045
0.93550,-3.136135638
0.93600,-1.915358007
0.93650,-0.08419156075
0.93700,0.8313916624
0.93750,0.221002847
0.93800,-0.08419156075
0.93850,0.221002847
0.93900,0.5261972547
0.93950,-0.08419156075
0.94000,-0.6945803761
0.94050,-0.08419156075
0.94100,0.5261972547
0.94150,1.13658607
0.94200,1.13658607
0.94250,2.052169293
0.94300,2.662558109
0.94350,2.967752516
0.94400,2.357363701
0.94450,1.746974885
0.94500,1.441780478
0.94550,0.5261972547
0.94600,-0.6945803761
0.94650,-2.525746822
0.94700,-4.051718861
0.94750,-5.577690899
0.94800,-6.188079715
0.94850,-5.577690899
0.94900,-3.746524453
0.94950,-0.6945803761
0.95000,3.272946924
0.95050,7.850863039
0.95100,10.90280712
0.95150,10.2924183
0.95200,7.240474224
0.95250,4.493724555
0.95300,5.10411337
0.95350,7.545668632
0.95400,9.376835078
0.95450,8.156057447
0.95500,5.714502186
0.95550,3.578141332
0.95600,3.272946924
0.95650,3.883335739
0.95700,4.493724555
0.95750,4.798918962
0.95800,5.10411337
0.95850,5.409307778
0.95900,5.409307778
0.95950,4.493724555
0.96000,2.357363701
0.96050,-0.08419156075
0.96100,-2.525746822
0.96150,-3.746524453
0.96200,-4.051718861
0.96250,-4.051718861
0.96300,-4.662107676
0.96350,-4.662107676
0.96400,-3.746524453
0.96450,-2.525746822
0.96500,-1.610163599
0.96550,-0.6945803761
0.96600,-0.3893859684
0.96650,-0.6945803761
0.96700,-1.304969192
0.96750,-0.6945803761
0.96800,0.5261972547
0.96850,1.13658607
0.96900,-0.3893859684
0.96950,-3.136135638
0.97000,-4.967302084
0.97050,-5.272496492
0.97100,-4.967302084
0.97150,-5.272496492
0.97200,-5.882885307
0.97250,-5.882885307
0.97300,-4.662107676
0.97350,-3.746524453
0.97400,-4.051718861
0.97450,-5.272496492
0.97500,-4.967302084
0.97550,-1.610163599
0.97600,1.13658607
0.97650,1.441780478
0.97700,-0.6945803761
0.97750,-1.915358007
0.97800,-0.9997747838
0.97850,-0.08419156075
0.97900,-0.9997747838
0.97950,-2.220552415
0.98000,-1.915358007
0.98050,-1.304969192
0.98100,-1.304969192
0.98150,-1.915358007
0.98200,-1.610163599
0.98250,-0.6945803761
0.98300,-0.08419156075
0.98350,0.221002847
0.98400,-0.08419156075
0.98450,-0.3893859684
0.98500,-0.08419156075
0.98550,1.441780478
0.98600,2.662558109
0.98650,1.441780478
0.98700,-1.915358007
0.98750,-4.356913269
0.98800,-5.272496492
0.98850,-5.577690899
0.98900,-5.882885307
0.98950,-3.441330045
0.99000,2.357363701
0.99050,8.461251855
0.99100,10.59761271
0.99150,7.850863039
0.99200,4.493724555
0.99250,2.662558109
0.99300,1.441780478
0.99350,0.221002847
0.99400,-0.6945803761
0.99450,-1.610163599
0.99500,-3.136135638
0.99550,-4.967302084
0.99600,-5.882885307
0.99650,-5.272496492
0.99700,-4.051718861
0.99750,-3.746524453
0.99800,-3.441330045
0.99850,-1.610163599
0.99900,0.221002847
0.99950,0.8313916624
1.00000,-0.08419156075
1.00050,-0.08419156075
1.00100,0.8313916624
1.00150,0.5261972547
1.00200,-0.6945803761
1.00250,-1.304969192
1.00300,-0.3893859684
1.00350,0.5261972547
1.00400,-0.08419156075
1.00450,-1.304969192
1.00500,-1.915358007
1.00550,-1.304969192
1.00600,-0.3893859684
1.00650,0.5261972547
1.00700,2.357363701
1.00750,4.493724555
1.00800,5.714502186
1.00850,5.10411337
1.00900,4.188530147
1.00950,4.188530147
1.01000,6.019696593
1.01050,7.240474224
1.01100,6.019696593
1.01150,2.357363701
1.01200,-0.08419156075
1.01250,-0.08419156075
1.01300,2.052169293
1.01350,2.967752516
1.01400,2.052169293
1.01450,1.13658607
1.01500,0.8313916624
1.01550,-0.08419156075
1.01600,-2.220552415
1.01650,-3.746524453
1.01700,-1.610163599
1.01750,1.746974885
1.01800,3.272946924
1.01850,2.052169293
1.01900,-0.3893859684
1.01950,-2.220552415
1.02000,-2.220552415
1.02050,-0.6945803761
1.02100,0.5261972547
1.02150,1.441780478
1.02200,0.5261972547
1.02250,-0.08419156075
1.02300,0.221002847
1.02350,1.441780478
1.02400,1.746974885
1.02450,1.441780478
1.02500,1.746974885
1.02550,2.052169293
1.02600,0.8313916624
1.02650,-1.610163599
1.02700,-3.136135638
1.02750,-2.525746822
1.02800,-1.610163599
1.02850,-2.525746822
1.02900,-4.051718861
1.02950,-3.746524453
1.03000,-2.83094123
1.03050,-2.525746822
1.03100,-2.83094123
1.03150,-1.915358007
1.03200,-0.08419156075
1.03250,-0.3893859684
1.03300,-2.83094123
1.03350,-4.662107676
1.03400,-3.441330045
1.03450,-0.6945803761
1.03500,-0.08419156075
1.03550,-1.610163599
1.03600,-3.136135638
1.03650,-3.136135638
1.03700,-2.220552415
1.03750,-2.220552415
1.03800,-2.220552415
1.03850,-1.915358007
1.03900,-1.610163599
1.03950,-2.83094123
1.04000,-4.051718861
1.04050,-3.441330045
1.04100,-0.9997747838
1.04150,0.5261972547
1.04200,0.221002847
1.04250,-1.610163599
1.04300,-3.136135638
1.04350,-3.746524453
1.04400,-3.136135638
1.04450,-2.83094123
1.04500,-3.441330045
1.04550,-4.967302084
1.04600,-5.882885307
1.04650,-4.967302084
1.04700,-2.83094123
1.04750,-0.08419156075
1.04800,1.441780478
1.04850,1.441780478
1.04900,1.13658607
1.04950,1.746974885
1.05000,3.272946924
1.05050,3.883335739
1.05100,2.967752516
1.05150,2.357363701
1.05200,3.272946924
1.05250,5.10411337
1.05300,6.324891001
1.05350,5.714502186
1.05400,4.798918962
1.05450,4.188530147
1.05500,2.967752516
1.05550,0.5261972547
1.05600,-1.915358007
1.05650,-3.136135638
1.05700,-1.915358007
1.05750,-0.08419156075
1.05800,-0.08419156075
1.05850,-0.9997747838
1.05900,-1.915358007
1.05950,-1.304969192
1.06000,-0.08419156075
1.06050,1.13658607
1.06100,1.441780478
1.06150,1.441780478
1.06200,1.13658607
1.06250,1.13658607
1.06300,2.052169293
1.06350,3.578141332
1.06400,4.493724555
1.06450,4.188530147
1.06500,2.662558109
1.06550,0.5261972547
1.06600,-1.304969192
1.06650,-2.525746822
1.06700,-2.525746822
1.06750,-1.915358007
1.06800,-1.915358007
1.06850,-2.220552415
1.06900,-0.6945803761
1.06950,2.052169293
1.07000,3.883335739
1.07050,3.883335739
1.07100,4.493724555
1.07150,6.324891001
1.07200,7.240474224
1.07250,6.019696593
1.07300,4.493724555
1.07350,5.10411337
1.07400,6.630085409
1.07450,6.019696593
1.07500,4.188530147
1.07550,3.883335739
1.07600,3.883335739
1.07650,1.441780478
1.07700,-2.220552415
1.07750,-4.356913269
1.07800,-3.136135638
1.07850,-1.304969192
1.07900,-0.9997747838
1.07950,-0.08419156075
1.08000,1.13658607
1.08050,2.662558109
1.08100,3.578141332
1.08150,4.493724555
1.08200,6.019696593
1.08250,5.409307778
1.08300,2.357363701
1.08350,-0.08419156075
1.08400,0.5261972547
1.08450,1.13658607
1.08500,-0.9997747838
1.08550,-4.967302084
1.08600,-6.188079715
1.08650,-4.662107676
1.08700,-2.525746822
1.08750,-0.08419156075
1.08800,3.578141332
1.08850,6.935279816
1.08900,7.240474224
1.08950,5.10411337
1.09000,3.272946924
1.09050,2.662558109
1.09100,0.8313916624
1.09150,-1.915358007
1.09200,-4.662107676
1.09250,-5.577690899
1.09300,-5.882885307
1.09350,-7.103662938
1.09400,-8.324440569
1.09450,-8.324440569
1.09500,-8.019246161
1.09550,-8.629634976
1.09600,-9.850412607
1.09650,-9.545218199
1.09700,-8.019246161
1.09750,-6.79846853
1.09800,-6.493274122
1.09850,-6.188079715
1.09900,-4.662107676
1.09950,-2.83094123
1.10000,-2.220552415
1.10050,-2.525746822
1.10100,-2.220552415
1.10150,-1.304969192
1.10200,-0.3893859684
1.10250,-0.08419156075
1.10300,-0.08419156075
1.10350,-0.08419156075
1.10400,-0.9997747838
1.10450,-3.136135638
1.10500,-3.746524453
1.10550,-2.220552415
1.10600,-0.08419156075
1.10650,-0.3893859684
1.10700,-1.915358007
1.10750,-2.220552415
1.10800,-1.304969192
1.10850,-0.9997747838
1.10900,-2.220552415
1.10950,-3.441330045
1.11000,-4.051718861
1.11050,-4.967302084
1.11100,-5.577690899
1.11150,-4.967302084
1.11200,-3.746524453
1.11250,-3.136135638
1.11300,-3.441330045
1.11350,-2.83094123
1.11400,-0.9997747838
1.11450,0.221002847
1.11500,0.221002847
1.11550,-0.6945803761
1.11600,-0.9997747838
1.11650,-0.08419156075
1.11700,0.221002847
1.11750,0.5261972547
1.11800,0.5261972547
1.11850,0.221002847
1.11900,-0.08419156075
1.11950,0.5261972547
1.12000,0.8313916624
1.12050,0.8313916624
1.12100,1.13658607
1.12150,2.357363701
1.12200,3.578141332
1.12250,3.883335739
1.12300,3.883335739
1.12350,4.493724555
1.12400,4.798918962
1.12450,2.662558109
1.12500,-0.6945803761
1.12550,-1.915358007
1.12600,-0.08419156075
1.12650,2.052169293
1.12700,2.662558109
1.12750,1.746974885
1.12800,0.8313916624
1.12850,-0.3893859684
1.12900,-1.915358007
1.12950,-1.610163599
1.13000,-0.08419156075
1.13050,0.5261972547
1.13100,-0.3893859684
1.13150,-0.9997747838
1.13200,-0.3893859684
1.13250,0.221002847
1.13300,-0.08419156075
1.13350,-0.08419156075
1.13400,2.052169293
1.13450,4.493724555
1.13500,5.409307778
1.13550,4.798918962
1.13600,5.10411337
1.13650,5.714502186
1.13700,4.798918962
1.13750,2.052169293
1.13800,-0.3893859684
1.13850,-1.610163599
1.13900,-2.525746822
1.13950,-2.525746822
1.14000,-0.9997747838
1.14050,1.746974885
1.14100,2.967752516
1.14150,2.052169293
1.14200,0.221002847
1.14250,-0.6945803761
1.14300,-1.304969192
1.14350,-2.83094123
1.14400,-4.051718861
1.14450,-2.83094123
1.14500,0.221002847
1.14550,3.272946924
1.14600,3.272946924
1.14650,1.13658607
1.14700,-0.6945803761
1.14750,-1.304969192
1.14800,-0.3893859684
1.14850,1.13658607
1.14900,2.357363701
1.14950,2.967752516
1.15000,2.662558109
1.15050,2.357363701
1.15100,2.357363701
1.15150,2.357363701
1.15200,2.052169293
1.15250,1.441780478
1.15300,2.052169293
1.15350,4.188530147
1.15400,6.019696593
1.15450,6.630085409
1.15500,6.019696593
1.15550,5.714502186
1.15600,5.409307778
1.15650,3.578141332
1.15700,-0.08419156075
1.15750,-2.525746822
1.15800,-3.136135638
1.15850,-3.746524453
1.15900,-5.272496492
1.15950,-6.79846853
1.16000,-5.577690899
1.16050,-2.83094123
1.16100,-0.9997747838
1.16150,-1.610163599
1.16200,-4.051718861
1.16250,-6.493274122
1.16300,-7.714051753
1.16350,-7.714051753
1.16400,-5.272496492
1.16450,-2.220552415
1.16500,0.221002847
1.16550,2.052169293
1.16600,3.883335739
1.16650,5.714502186
1.16700,5.714502186
1.16750,4.188530147
1.16800,1.746974885
1.16850,0.5261972547
1.16900,1.13658607
1.16950,1.746974885
1.17000,1.441780478
1.17050,0.5261972547
1.17100,-0.08419156075
1.17150,0.221002847
1.17200,0.5261972547
1.17250,-0.08419156075
1.17300,0.5261972547
1.17350,2.357363701
1.17400,4.493724555
1.17450,4.798918962
1.17500,3.272946924
1.17550,1.13658607
1.17600,-0.08419156075
1.17650,-0.9997747838
1.17700,-2.83094123
1.17750,-4.051718861
1.17800,-4.051718861
1.17850,-3.441330045
1.17900,-4.051718861
1.17950,-5.882885307
1.18000,-7.714051753
1.18050,-8.019246161
1.18100,-6.188079715
1.18150,-3.441330045
1.18200,-1.610163599
1.18250,-1.304969192
1.18300,-1.304969192
1.18350,-0.08419156075
1.18400,1.746974885
1.18450,2.967752516
1.18500,3.272946924
1.18550,3.578141332
1.18600,4.798918962
1.18650,4.493724555
1.18700,1.746974885
1.18750,-0.9997747838
1.18800,-1.304969192
1.18850,-0.08419156075
1.18900,1.13658607
1.18950,0.8313916624
1.19000,0.5261972547
1.19050,0.8313916624
1.19100,1.13658607
1.19150,0.5261972547
1.19200,0.5261972547
1.19250,0.5261972547
1.19300,0.221002847
1.19350,-0.08419156075
1.19400,-0.3893859684
1.19450,-0.08419156075
1.19500,-0.08419156075
1.19550,-0.3893859684
1.19600,0.221002847
1.19650,2.357363701
1.19700,2.967752516
1.19750,2.052169293
1.19800,2.357363701
1.19850,4.493724555
1.19900,5.714502186
1.19950,4.188530147
1.20000,2.357363701
1.20050,3.578141332
1.20100,6.630085409
1.20150,7.240474224
1.20200,5.409307778
1.20250,4.188530147
1.20300,3.578141332
1.20350,3.272946924
1.20400,2.967752516
1.20450,3.883335739
1.20500,4.493724555
1.20550,3.272946924
1.20600,1.746974885
1.20650,2.357363701
1.20700,4.188530147
1.20750,5.714502186
1.20800,6.630085409
1.20850,7.850863039
1.20900,9.682029486
1.20950,11.20800152
1.21000,12.12358475
1.21050,12.12358475
1.21100,10.2924183
1.21150,7.545668632
1.21200,7.850863039
1.21250,13.03916797
1.21300,18.53266731
1.21350,19.75344494
1.21400,17.92227849
1.21450,18.2274729
1.21500,19.75344494
1.21550,17.31188968
1.21600,10.59761271
1.21650,5.409307778
1.21700,4.798918962
1.21750,5.714502186
1.21800,4.188530147
1.21850,0.8313916624
1.21900,-1.915358007
1.21950,-4.356913269
1.22000,-7.714051753
1.22050,-10.76599583
1.22100,-12.29196787
1.22150,-13.5127455
1.22200,-15.34391195
1.22250,-15.34391195
1.22300,-11.68157905
1.22350,-5.882885307
1.22400,-0.9997747838
1.22450,1.441780478
1.22500,2.662558109
1.22550,2.357363701
1.22600,0.221002847
1.22650,-2.220552415
1.22700,-4.662107676
1.22750,-7.103662938
1.22800,-10.15560701
1.22850,-13.20755109
1.22900,-14.73352313
1.22950,-15.64910635
1.23000,-16.56468958
1.23050,-17.78546721
1.23100,-18.39585602
1.23150,-19.00624484
1.23200,-19.92182806
1.23250,-19.61663365
1.23300,-17.4802728
1.23350,-15.03871754
1.23400,-12.90235668
1.23450,-10.76599583
1.23500,-7.103662938
1.23550,-4.662107676
1.23600,-5.272496492
1.23650,-6.493274122
1.23700,-5.272496492
1.23750,-2.83094123
1.23800,-3.746524453
1.23850,-7.408857346
1.23900,-10.15560701
1.23950,-9.240023792
1.24000,-8.629634976
1.24050,-10.76599583
1.24100,-13.20755109
1.24150,-13.20755109
1.24200,-11.68157905
1.24250,-10.76599583
1.24300,-10.76599583
1.24350,-10.15560701
1.24400,-8.629634976
1.24450,-8.019246161
1.24500,-8.934829384
1.24550,-9.850412607
1.24600,-11.07119024
1.24650,-11.98677346
1.24700,-12.59716228
1.24750,-13.20755109
1.24800,-14.42832872
1.24850,-15.64910635
1.24900,-15.64910635
1.24950,-13.81793991
1.25000,-11.68157905
1.25050,-9.850412607
1.25100,-8.019246161
1.25150,-5.272496492
1.25200,-2.83094123
1.25250,-3.136135638
1.25300,-4.662107676
1.25350,-5.882885307
1.25400,-5.577690899
1.25450,-4.967302084
1.25500,-4.356913269
1.25550,-3.441330045
1.25600,-3.136135638
1.25650,-3.746524453
1.25700,-4.967302084
1.25750,-4.967302084
1.25800,-3.746524453
1.25850,-2.83094123
1.25900,-3.136135638
1.25950,-1.915358007
1.26000,0.8313916624
1.26050,3.883335739
1.26100,4.188530147
1.26150,2.967752516
1.26200,2.662558109
1.26250,3.578141332
1.26300,4.493724555
1.26350,3.578141332
1.26400,2.357363701
1.26450,2.357363701
1.26500,3.578141332
1.26550,4.798918962
1.26600,5.409307778
1.26650,6.019696593
1.26700,7.240474224
1.26750,9.682029486
1.26800,13.34436238
1.26850,15.48072323
1.26900,14.2599456
1.26950,10.59761271
1.27000,7.850863039
1.27050,7.850863039
1.27100,8.461251855
1.27150,7.240474224
1.27200,5.409307778
1.27250,4.798918962
1.27300,6.019696593
1.27350,7.545668632
1.27400,8.766446263
1.27450,9.987223893
1.27500,10.59761271
1.27550,9.376835078
1.27600,6.935279816
1.27650,5.409307778
1.27700,5.714502186
1.27750,6.630085409
1.27800,6.630085409
1.27850,6.630085409
1.27900,6.324891001
1.27950,6.019696593
1.28000,4.798918962
1.28050,3.578141332
1.28100,2.967752516
1.28150,3.272946924
1.28200,5.10411337
1.28250,9.07164067
1.28300,13.03916797
1.28350,13.64955679
1.28400,10.59761271
1.28450,7.240474224
1.28500,6.935279816
1.28550,9.376835078
1.28600,12.12358475
1.28650,13.95475119
1.28700,15.17552882
1.28750,16.09111205
1.28800,15.48072323
1.28850,13.95475119
1.28900,12.42877916
1.28950,12.12358475
1.29000,12.12358475
1.29050,10.90280712
1.29100,8.461251855
1.29150,6.019696593
1.29200,3.883335739
1.29250,2.662558109
1.29300,2.052169293
1.29350,1.441780478
1.29400,1.441780478
1.29450,2.052169293
1.29500,2.662558109
1.29550,3.272946924
1.29600,3.272946924
1.29650,3.272946924
1.29700,3.883335739
1.29750,5.714502186
1.29800,7.240474224
1.29850,8.156057447
1.29900,7.850863039
1.29950,7.545668632
1.30000,6.935279816
1.30050,6.324891001
1.30100,5.10411337
1.30150,4.188530147
1.30200,3.578141332
1.30250,3.272946924
1.30300,2.662558109
1.30350,2.357363701
1.30400,3.883335739
1.30450,6.935279816
1.30500,9.987223893
1.30550,10.90280712
1.30600,9.376835078
1.30650,7.850863039
1.30700,7.850863039
1.30750,9.987223893
1.30800,12.42877916
1.30850,13.34436238
1.30900,12.73397356
1.30950,11.81839034
1.31000,11.20800152
1.31050,9.07164067
1.31100,6.324891001
1.31150,4.188530147
1.31200,4.493724555
1.31250,6.324891001
1.31300,7.545668632
1.31350,8.156057447
1.31400,9.987223893
1.31450,13.03916797
1.31500,16.09111205
1.31550,18.53266731
1.31600,20.05863935
1.31650,20.05863935
1.31700,16.70150086
1.31750,10.2924183
1.31800,3.883335739
1.31850,1.441780478
1.31900,3.272946924
1.31950,5.409307778
1.32000,5.714502186
1.32050,5.10411337
1.32100,4.493724555
1.32150,2.357363701
1.32200,-1.304969192
1.32250,-5.577690899
1.32300,-7.103662938
1.32350,-6.493274122
1.32400,-6.188079715
1.32450,-6.79846853
1.32500,-7.103662938
1.32550,-6.188079715
1.32600,-6.493274122
1.32650,-8.934829384
1.32700,-11.37638465
1.32750,-11.37638465
1.32800,-9.850412607
1.32850,-9.850412607
1.32900,-11.68157905
1.32950,-13.20755109
1.33000,-13.5127455
1.33050,-13.5127455
1.33100,-13.81793991
1.33150,-13.5127455
1.33200,-11.68157905
1.33250,-9.850412607
1.33300,-9.240023792
1.33350,-10.15560701
1.33400,-11.07119024
1.33450,-11.37638465
1.33500,-10.76599583
1.33550,-9.850412607
1.33600,-9.240023792
1.33650,-11.07119024
1.33700,-14.73352313
1.33750,-16.56468958
1.33800,-14.42832872
1.33850,-10.46080142
1.33900,-7.408857346
1.33950,-7.408857346
1.34000,-8.629634976
1.34050,-10.76599583
1.34100,-13.20755109
1.34150,-16.25949517
1.34200,-18.09066162
1.34250,-18.70105043
1.34300,-19.00624484
1.34350,-20.53221688
1.34400,-22.66857773
1.34450,-22.97377214
1.34500,-20.53221688
1.34550,-18.09066162
1.34600,-17.4802728
1.34650,-18.39585602
1.34700,-18.70105043
1.34750,-18.09066162
1.34800,-18.09066162
1.34850,-19.00624484
1.34900,-19.00624484
1.34950,-17.17507839
1.35000,-14.73352313
1.35050,-14.42832872
1.35100,-15.64910635
1.35150,-16.25949517
1.35200,-15.03871754
1.35250,-13.81793991
1.35300,-12.90235668
1.35350,-11.98677346
1.35400,-11.68157905
1.35450,-13.5127455
1.35500,-16.56468958
1.35550,-18.70105043
1.35600,-18.70105043
1.35650,-17.17507839
1.35700,-15.34391195
1.35750,-13.20755109
1.35800,-10.76599583
1.35850,-8.629634976
1.35900,-8.019246161
1.35950,-7.408857346
1.36000,-6.188079715
1.36050,-4.662107676
1.36100,-4.356913269
1.36150,-4.356913269
1.36200,-3.746524453
1.36250,-2.525746822
1.36300,-1.304969192
1.36350,-0.08419156075
1.36400,1.746974885
1.36450,2.967752516
1.36500,2.967752516
1.36550,2.967752516
1.36600,4.493724555
1.36650,6.019696593
1.36700,7.240474224
1.36750,8.766446263
1.36800,9.682029486
1.36850,7.850863039
1.36900,2.357363701
1.36950,-2.220552415
1.37000,-2.83094123
1.37050,-0.6945803761
1.37100,0.8313916624
1.37150,1.746974885
1.37200,3.883335739
1.37250,6.630085409
1.37300,7.545668632
1.37350,6.324891001
1.37400,5.409307778
1.37450,5.714502186
1.37500,6.019696593
1.37550,4.493724555
1.37600,2.662558109
1.37650,2.052169293
1.37700,2.357363701
1.37750,2.662558109
1.37800,2.967752516
1.37850,3.272946924
1.37900,3.883335739
1.37950,5.10411337
1.38000,6.324891001
1.38050,6.630085409
1.38100,7.240474224
1.38150,8.766446263
1.38200,12.42877916
1.38250,16.09111205
1.38300,18.2274729
1.38350,19.14305612
1.38400,20.36383376
1.38450,22.1950002
1.38500,22.80538902
1.38550,21.58461139
1.38600,17.92227849
1.38650,12.73397356
1.38700,7.850863039
1.38750,5.10411337
1.38800,6.019696593
1.38850,9.376835078
1.38900,13.64955679
1.38950,17.31188968
1.39000,19.75344494
1.39050,19.75344494
1.39100,18.83786172
1.39150,18.2274729
1.39200,17.92227849
1.39250,17.00669527
1.39300,15.78591764
1.39350,16.09111205
1.39400,17.61708409
1.39450,17.31188968
1.39500,14.87033442
1.39550,12.73397356
1.39600,13.34436238
1.39650,15.48072323
1.39700,16.09111205
1.39750,15.48072323
1.39800,14.87033442
1.39850,13.34436238
1.39900,8.156057447
1.39950,0.8313916624
1.40000,-3.746524453
1.40050,-4.662107676
1.40100,-4.356913269
1.40150,-5.272496492
1.40200,-6.493274122
1.40250,-5.882885307
1.40300,-4.662107676
1.40350,-4.356913269
1.40400,-7.103662938
1.40450,-11.37638465
1.40500,-14.12313432
1.40550,-13.5127455
1.40600,-10.46080142
1.40650,-7.408857346
1.40700,-6.188079715
1.40750,-6.188079715
1.40800,-6.188079715
1.40850,-6.188079715
1.40900,-5.882885307
1.40950,-4.356913269
1.41000,-1.304969192
1.41050,0.221002847
1.41100,-0.9997747838
1.41150,-5.577690899
1.41200,-9.240023792
1.41250,-9.545218199
1.41300,-5.882885307
1.41350,-0.6945803761
1.41400,3.272946924
1.41450,5.409307778
1.41500,4.798918962
1.41550,2.967752516
1.41600,1.13658607
1.41650,0.221002847
1.41700,-0.6945803761
1.41750,-1.915358007
1.41800,-2.220552415
1.41850,-0.3893859684
1.41900,2.052169293
1.41950,4.798918962
1.42000,6.935279816
1.42050,8.766446263
1.42100,10.2924183
1.42150,11.20800152
1.42200,11.20800152
1.42250,9.987223893
1.42300,8.461251855
1.42350,6.324891001
1.42400,4.798918962
1.42450,4.798918962
1.42500,5.714502186
1.42550,6.324891001
1.42600,6.630085409
1.42650,7.850863039
1.42700,10.59761271
1.42750,13.03916797
1.42800,14.87033442
1.42850,16.70150086
1.42900,18.53266731
1.42950,19.44825053
1.43000,16.70150086
1.43050,10.2924183
1.43100,2.662558109
1.43150,-3.136135638
1.43200,-7.103662938
1.43250,-10.46080142
1.43300,-15.95430076
1.43350,-23.27896655
1.43400,-29.3828547
1.43450,-31.21402115
1.43500,-30.60363233
1.43550,-31.21402115
1.43600,-34.26596522
1.43650,-37.01271489
1.43700,-35.48674285
1.43750,-31.82440996
1.43800,-29.99324352
1.43850,-31.51921555
1.43900,-34.26596522
1.43950,-35.79193726
1.44000,-36.40232608
1.44050,-36.40232608
1.44100,-35.18154845
1.44150,-31.82440996
1.44200,-26.63610503
1.44250,-19.00624484
1.44300,-9.545218199
1.44350,-1.915358007
1.44400,-0.08419156075
1.44450,-3.136135638
1.44500,-6.188079715
1.44550,-4.051718861
1.44600,1.441780478
1.44650,5.409307778
1.44700,5.409307778
1.44750,4.188530147
1.44800,4.493724555
1.44850,5.409307778
1.44900,5.10411337
1.44950,3.883335739
1.45000,2.967752516
1.45050,3.272946924
1.45100,3.578141332
1.45150,2.357363701
1.45200,-0.9997747838
1.45250,-6.188079715
1.45300,-9.545218199
1.45350,-9.850412607
1.45400,-7.103662938
1.45450,-4.662107676
1.45500,-3.441330045
1.45550,-4.967302084
1.45600,-8.019246161
1.45650,-11.37638465
1.45700,-13.81793991
1.45750,-15.03871754
1.45800,-16.86988398
1.45850,-18.09066162
1.45900,-17.17507839
1.45950,-14.12313432
1.46000,-11.37638465
1.46050,-11.07119024
1.46100,-11.98677346
1.46150,-12.29196787
1.46200,-11.68157905
1.46250,-10.76599583
1.46300,-9.850412607
1.46350,-7.408857346
1.46400,-4.356913269
1.46450,-2.525746822
1.46500,-1.915358007
1.46550,-2.220552415
1.46600,-2.525746822
1.46650,-1.915358007
1.46700,-0.9997747838
1.46750,-0.9997747838
1.46800,-1.610163599
1.46850,-2.220552415
1.46900,-1.610163599
1.46950,-1.304969192
1.47000,-2.220552415
1.47050,-3.441330045
1.47100,-3.746524453
1.47150,-2.83094123
1.47200,-0.6945803761
1.47250,2.052169293
1.47300,6.324891001
1.47350,7.850863039
1.47400,5.409307778
1.47450,1.746974885
1.47500,0.5261972547
1.47550,2.357363701
1.47600,4.798918962
1.47650,5.714502186
1.47700,6.935279816
1.47750,8.461251855
1.47800,9.682029486
1.47850,11.51319593
1.47900,14.2599456
1.47950,17.00669527
1.48000,16.70150086
1.48050,13.95475119
1.48100,11.51319593
1.48150,11.20800152
1.48200,10.90280712
1.48250,9.682029486
1.48300,8.766446263
1.48350,9.376835078
1.48400,11.51319593
1.48450,13.95475119
1.48500,16.70150086
1.48550,19.75344494
1.48600,21.88980579
1.48650,23.11058342
1.48700,22.80538902
1.48750,21.27941698
1.48800,18.83786172
1.48850,17.61708409
1.48900,18.2274729
1.48950,18.2274729
1.49000,16.09111205
1.49050,12.73397356
1.49100,10.59761271
1.49150,9.07164067
1.49200,8.156057447
1.49250,8.766446263
1.49300,11.81839034
1.49350,15.78591764
1.49400,17.92227849
1.49450,18.83786172
1.49500,20.66902816
1.49550,23.11058342
1.49600,23.72097224
1.49650,22.1950002
1.49700,21.58461139
1.49750,23.41577783
1.49800,25.85733309
1.49850,26.77291632
1.49900,26.77291632
1.49950,27.07811072
1.50000,27.07811072
1.50050,25.85733309
1.50100,23.72097224
1.50150,21.88980579
1.50200,22.1950002
1.50250,23.72097224
1.50300,24.94174987
1.50350,24.63655546
1.50400,22.50019461
1.50450,20.36383376
1.50500,19.14305612
1.50550,18.2274729
1.50600,15.78591764
1.50650,10.90280712
1.50700,6.630085409
1.50750,5.10411337
1.50800,6.019696593
1.50850,6.019696593
1.50900,4.188530147
1.50950,1.746974885
1.51000,-0.3893859684
1.51050,-4.051718861
1.51100,-9.240023792
1.51150,-15.03871754
1.51200,-18.39585602
1.51250,-18.09066162
1.51300,-15.95430076
1.51350,-13.81793991
1.51400,-11.68157905
1.51450,-9.240023792
1.51500,-6.79846853
1.51550,-4.051718861
1.51600,-0.6945803761
1.51650,3.578141332
1.51700,6.935279816
1.51750,7.545668632
1.51800,6.019696593
1.51850,3.883335739
1.51900,2.967752516
1.51950,1.746974885
1.52000,-0.08419156075
1.52050,-1.304969192
1.52100,-0.6945803761
1.52150,1.13658607
1.52200,2.662558109
1.52250,2.662558109
1.52300,3.272946924
1.52350,5.409307778
1.52400,7.545668632
1.52450,7.850863039
1.52500,6.630085409
1.52550,5.714502186
1.52600,5.10411337
1.52650,2.662558109
1.52700,-1.915358007
1.52750,-7.103662938
1.52800,-11.07119024
1.52850,-14.12313432
1.52900,-16.86988398
1.52950,-19.92182806
1.53000,-22.66857773
1.53050,-25.4153274
1.53100,-28.16207707
1.53150,-31.21402115
1.53200,-32.43479878
1.53250,-31.21402115
1.53300,-27.55168825
1.53350,-23.27896655
1.53400,-20.53221688
1.53450,-19.00624484
1.53500,-18.09066162
1.53550,-17.17507839
1.53600,-16.56468958
1.53650,-17.17507839
1.53700,-18.09066162
1.53750,-17.17507839
1.53800,-14.12313432
1.53850,-9.850412607
1.53900,-6.493274122
1.53950,-3.136135638
1.54000,-0.08419156075
1.54050,2.967752516
1.54100,5.409307778
1.54150,5.714502186
1.54200,4.188530147
1.54250,2.052169293
1.54300,1.13658607
1.54350,2.052169293
1.54400,2.967752516
1.54450,2.357363701
1.54500,0.8313916624
1.54550,-0.3893859684
1.54600,-1.610163599
1.54650,-3.136135638
1.54700,-5.577690899
1.54750,-7.714051753
1.54800,-9.850412607
1.54850,-11.98677346
1.54900,-13.5127455
1.54950,-12.59716228
1.55000,-9.545218199
1.55050,-6.493274122
1.55100,-4.662107676
1.55150,-2.83094123
1.55200,-0.9997747838
1.55250,-0.3893859684
1.55300,-2.525746822
1.55350,-5.577690899
1.55400,-7.408857346
1.55450,-7.714051753
1.55500,-7.714051753
1.55550,-8.629634976
1.55600,-10.15560701
1.55650,-11.07119024
1.55700,-9.545218199
1.55750,-6.188079715
1.55800,-1.610163599
1.55850,2.052169293
1.55900,4.798918962
1.55950,5.10411337
1.56000,2.357363701
1.56050,-2.525746822
1.56100,-6.79846853
1.56150,-6.493274122
1.56200,-4.051718861
1.56250,-3.746524453
1.56300,-6.493274122
1.56350,-7.103662938
1.56400,-2.220552415
1.56450,3.578141332
1.56500,5.714502186
1.56550,6.019696593
1.56600,9.07164067
1.56650,15.17552882
1.56700,18.2274729
1.56750,15.48072323
1.56800,9.987223893
1.56850,6.324891001
1.56900,6.019696593
1.56950,7.850863039
1.57000,9.376835078
1.57050,9.07164067
1.57100,7.240474224
1.57150,5.714502186
1.57200,6.935279816
1.57250,9.07164067
1.57300,9.07164067
1.57350,6.019696593
1.57400,1.746974885
1.57450,-0.9997747838
1.57500,-2.525746822
1.57550,-3.136135638
1.57600,-2.220552415
1.57650,-0.08419156075
1.57700,1.441780478
1.57750,2.967752516
1.57800,3.883335739
1.57850,3.883335739
1.57900,2.662558109
1.57950,1.13658607
1.58000,-0.08419156075
1.58050,-1.610163599
1.58100,-3.441330045
1.58150,-4.051718861
1.58200,-2.220552415
1.58250,-0.08419156075
1.58300,0.5261972547
1.58350,-0.08419156075
1.58400,-1.304969192
1.58450,-2.525746822
1.58500,-4.967302084
1.58550,-7.408857346
1.58600,-8.019246161
1.58650,-6.493274122
1.58700,-6.79846853
1.58750,-9.545218199
1.58800,-12.59716228
1.58850,-12.90235668
1.58900,-11.37638465
1.58950,-8.934829384
1.59000,-4.662107676
1.59050,0.5261972547
1.59100,6.324891001
1.59150,10.59761271
1.59200,14.2599456
1.59250,16.39630646
1.59300,15.48072323
1.59350,11.20800152
1.59400,6.630085409
1.59450,6.019696593
1.59500,8.156057447
1.59550,9.07164067
1.59600,6.019696593
1.59650,-0.08419156075
1.59700,-4.967302084
1.59750,-7.103662938
1.59800,-6.188079715
1.59850,-4.662107676
1.59900,-3.746524453
1.59950,-3.441330045
1.60000,-2.220552415
1.60050,-0.08419156075
1.60100,0.5261972547
1.60150,-0.6945803761
1.60200,-2.83094123
1.60250,-4.356913269
1.60300,-5.272496492
1.60350,-6.79846853
1.60400,-8.629634976
1.60450,-8.934829384
1.60500,-8.019246161
1.60550,-5.577690899
1.60600,-3.136135638
1.60650,-1.915358007
1.60700,-1.915358007
1.60750,-2.525746822
1.60800,-2.525746822
1.60850,-1.610163599
1.60900,-1.304969192
1.60950,-3.746524453
1.61000,-6.493274122
1.61050,-6.79846853
1.61100,-4.051718861
1.61150,-0.9997747838
1.61200,-0.08419156075
1.61250,-0.08419156075
1.61300,-0.6945803761
1.61350,-0.3893859684
1.61400,0.221002847
1.61450,1.13658607
1.61500,1.441780478
1.61550,0.8313916624
1.61600,-0.9997747838
1.61650,-3.136135638
1.61700,-3.746524453
1.61750,-2.220552415
1.61800,-0.3893859684
1.61850,0.8313916624
1.61900,2.357363701
1.61950,4.188530147
1.62000,5.714502186
1.62050,6.324891001
1.62100,7.240474224
1.62150,9.987223893
1.62200,12.73397356
1.62250,12.42877916
1.62300,8.461251855
1.62350,3.883335739
1.62400,1.13658607
1.62450,-0.08419156075
1.62500,-0.9997747838
1.62550,-2.525746822
1.62600,-3.441330045
1.62650,-4.967302084
1.62700,-8.324440569
1.62750,-12.59716228
1.62800,-15.03871754
1.62850,-15.95430076
1.62900,-16.56468958
1.62950,-16.86988398
1.63000,-16.25949517
1.63050,-15.03871754
1.63100,-15.34391195
1.63150,-16.56468958
1.63200,-15.95430076
1.63250,-14.73352313
1.63300,-14.12313432
1.63350,-14.73352313
1.63400,-14.12313432
1.63450,-11.68157905
1.63500,-9.545218199
1.63550,-8.324440569
1.63600,-6.493274122
1.63650,-3.746524453
1.63700,-3.136135638
1.63750,-5.272496492
1.63800,-8.324440569
1.63850,-9.240023792
1.63900,-8.324440569
1.63950,-7.408857346
1.64000,-6.188079715
1.64050,-3.746524453
1.64100,-1.304969192
1.64150,-0.6945803761
1.64200,-0.9997747838
1.64250,-0.08419156075
1.64300,2.662558109
1.64350,4.493724555
1.64400,5.10411337
1.64450,6.935279816
1.64500,10.2924183
1.64550,13.03916797
1.64600,13.34436238
1.64650,12.73397356
1.64700,12.42877916
1.64750,12.12358475
1.64800,10.90280712
1.64850,8.766446263
1.64900,6.935279816
1.64950,6.630085409
1.65000,8.156057447
1.65050,10.59761271
1.65100,13.03916797
1.65150,13.34436238
1.65200,11.51319593
1.65250,9.682029486
1.65300,8.766446263
1.65350,8.156057447
1.65400,7.240474224
1.65450,6.630085409
1.65500,6.019696593
1.65550,4.798918962
1.65600,2.662558109
1.65650,2.052169293
1.65700,4.188530147
1.65750,7.850863039
1.65800,9.682029486
1.65850,7.850863039
1.65900,4.798918962
1.65950,2.967752516
1.66000,2.662558109
1.66050,2.662558109
1.66100,1.441780478
1.66150,-0.08419156075
1.66200,-0.9997747838
1.66250,-0.3893859684
1.66300,1.13658607
1.66350,4.188530147
1.66400,7.850863039
1.66450,10.90280712
1.66500,12.12358475
1.66550,10.59761271
1.66600,6.935279816
1.66650,2.967752516
1.66700,-0.6945803761
1.66750,-3.746524453
1.66800,-4.662107676
1.66850,-1.915358007
1.66900,2.357363701
1.66950,5.10411337
1.67000,4.188530147
1.67050,1.441780478
1.67100,-0.08419156075
1.67150,-0.08419156075
1.67200,-0.08419156075
1.67250,-0.3893859684
1.67300,-1.304969192
1.67350,-1.610163599
1.67400,-0.6945803761
1.67450,-0.3893859684
1.67500,-1.610163599
1.67550,-2.525746822
1.67600,-0.3893859684
1.67650,4.188530147
1.67700,7.545668632
1.67750,7.240474224
1.67800,5.714502186
1.67850,7.545668632
1.67900,11.81839034
1.67950,14.56514001
1.68000,13.34436238
1.68050,10.59761271
1.68100,9.07164067
1.68150,7.850863039
1.68200,6.324891001
1.68250,6.324891001
1.68300,8.461251855
1.68350,9.682029486
1.68400,6.935279816
1.68450,1.13658607
1.68500,-4.051718861
1.68550,-6.493274122
1.68600,-6.493274122
1.68650,-3.441330045
1.68700,1.746974885
1.68750,6.630085409
1.68800,6.935279816
1.68850,1.13658607
1.68900,-6.493274122
1.68950,-12.59716228
1.69000,-15.95430076
1.69050,-16.86988398
1.69100,-17.4802728
1.69150,-17.78546721
1.69200,-17.78546721
1.69250,-18.09066162
1.69300,-18.70105043
1.69350,-19.31143925
1.69400,-19.92182806
1.69450,-19.61663365
1.69500,-18.39585602
1.69550,-16.86988398
1.69600,-16.25949517
1.69650,-16.25949517
1.69700,-15.34391195
1.69750,-11.98677346
1.69800,-7.103662938
1.69850,-3.441330045
1.69900,-2.525746822
1.69950,-2.83094123
1.70000,-1.304969192
1.70050,2.052169293
1.70100,4.493724555
1.70150,3.883335739
1.70200,1.441780478
1.70250,-0.08419156075
1.70300,-0.3893859684
1.70350,-1.304969192
1.70400,-2.525746822
1.70450,-1.610163599
1.70500,-0.08419156075
1.70550,0.5261972547
1.70600,-0.3893859684
1.70650,-0.9997747838
1.70700,-0.08419156075
1.70750,2.662558109
1.70800,4.798918962
1.70850,5.714502186
1.70900,4.798918962
1.70950,4.188530147
1.71000,5.10411337
1.71050,7.240474224
1.71100,8.766446263
1.71150,8.156057447
1.71200,6.935279816
1.71250,6.630085409
1.71300,6.630085409
1.71350,5.409307778
1.71400,4.493724555
1.71450,4.493724555
1.71500,5.409307778
1.71550,5.10411337
1.71600,4.493724555
1.71650,5.10411337
1.71700,7.240474224
1.71750,9.07164067
1.71800,10.90280712
1.71850,12.42877916
1.71900,13.64955679
1.71950,13.95475119
1.72000,13.64955679
1.72050,13.64955679
1.72100,12.73397356
1.72150,8.766446263
1.72200,3.883335739
1.72250,0.8313916624
1.72300,-0.08419156075
1.72350,-0.3893859684
1.72400,-1.304969192
1.72450,-0.9997747838
1.72500,-0.3893859684
1.72550,-0.9997747838
1.72600,-3.441330045
1.72650,-5.272496492
1.72700,-6.188079715
1.72750,-8.934829384
1.72800,-13.81793991
1.72850,-17.4802728
1.72900,-17.4802728
1.72950,-15.03871754
1.73000,-14.12313432
1.73050,-14.73352313
1.73100,-14.12313432
1.73150,-11.37638465
1.73200,-8.629634976
1.73250,-8.019246161
1.73300,-8.019246161
1.73350,-7.103662938
1.73400,-5.577690899
1.73450,-4.662107676
1.73500,-5.882885307
1.73550,-7.408857346
1.73600,-6.493274122
1.73650,-3.136135638
1.73700,-0.08419156075
1.73750,-0.08419156075
1.73800,-1.610163599
1.73850,-2.525746822
1.73900,-1.610163599
1.73950,0.221002847
1.74000,2.052169293
1.74050,2.967752516
1.74100,3.272946924
1.74150,3.272946924
1.74200,2.357363701
1.74250,0.8313916624
1.74300,-1.304969192
1.74350,-4.967302084
1.74400,-10.76599583
1.74450,-16.25949517
1.74500,-19.31143925
1.74550,-19.00624484
1.74600,-17.17507839
1.74650,-15.34391195
1.74700,-12.59716228
1.74750,-8.324440569
1.74800,-3.136135638
1.74850,-0.9997747838
1.74900,-2.83094123
1.74950,-4.967302084
1.75000,-4.051718861
1.75050,-1.304969192
1.75100,0.5261972547
1.75150,0.5261972547
1.75200,1.13658607
1.75250,3.883335739
1.75300,6.935279816
1.75350,8.461251855
1.75400,8.156057447
1.75450,7.850863039
1.75500,8.766446263
1.75550,9.987223893
1.75600,10.90280712
1.75650,13.03916797
1.75700,16.09111205
1.75750,19.14305612
1.75800,19.44825053
1.75850,16.09111205
1.75900,11.51319593
1.75950,7.850863039
1.76000,5.714502186
1.76050,4.188530147
1.76100,3.578141332
1.76150,4.493724555
1.76200,5.714502186
1.76250,5.10411337
1.76300,2.662558109
1.76350,0.8313916624
1.76400,-0.08419156075
1.76450,-1.304969192
1.76500,-3.136135638
1.76550,-5.272496492
1.76600,-6.79846853
1.76650,-8.934829384
1.76700,-12.29196787
1.76750,-15.64910635
1.76800,-17.17507839
1.76850,-16.86988398
1.76900,-15.64910635
1.76950,-14.42832872
1.77000,-13.81793991
1.77050,-14.12313432
1.77100,-15.03871754
1.77150,-14.73352313
1.77200,-12.29196787
1.77250,-9.850412607
1.77300,-8.629634976
1.77350,-8.019246161
1.77400,-6.79846853
1.77450,-4.356913269
1.77500,-1.915358007
1.77550,-0.08419156075
1.77600,1.13658607
1.77650,2.357363701
1.77700,2.967752516
1.77750,3.578141332
1.77800,5.714502186
1.77850,9.07164067
1.77900,13.03916797
1.77950,16.39630646
1.78000,19.14305612
1.78050,21.58461139
1.78100,22.80538902
1.78150,22.50019461
1.78200,20.66902816
1.78250,19.44825053
1.78300,19.44825053
1.78350,19.75344494
1.78400,18.2274729
1.78450,14.56514001
1.78500,11.51319593
1.78550,11.51319593
1.78600,13.34436238
1.78650,14.2599456
1.78700,12.73397356
1.78750,9.987223893
1.78800,6.935279816
1.78850,3.578141332
1.78900,0.8313916624
1.78950,-0.08419156075
1.79000,0.8313916624
1.79050,1.746974885
1.79100,0.221002847
1.79150,-3.746524453
1.79200,-8.324440569
1.79250,-11.68157905
1.79300,-14.42832872
1.79350,-18.39585602
1.79400,-22.36338332
1.79450,-23.27896655
1.79500,-20.83741128
1.79550,-18.70105043
1.79600,-20.22702247
1.79650,-23.58416095
1.79700,-24.49974418
1.79750,-20.53221688
1.79800,-14.73352313
1.79850,-11.37638465
1.79900,-11.07119024
1.79950,-10.15560701
1.80000,-7.103662938
1.80050,-3.441330045
1.80100,-0.9997747838
1.80150,-0.08419156075
1.80200,0.221002847
1.80250,1.13658607
1.80300,3.272946924
1.80350,6.324891001
1.80400,9.682029486
1.80450,12.42877916
1.80500,13.64955679
1.80550,14.87033442
1.80600,17.31188968
1.80650,19.14305612
1.80700,18.83786172
1.80750,15.48072323
1.80800,11.51319593
1.80850,9.376835078
1.80900,9.07164067
1.80950,8.461251855
1.81000,6.019696593
1.81050,2.967752516
1.81100,1.746974885
1.81150,2.052169293
1.81200,1.441780478
1.81250,-1.304969192
1.81300,-4.662107676
1.81350,-6.493274122
1.81400,-7.103662938
1.81450,-6.79846853
1.81500,-3.746524453
1.81550,1.13658607
1.81600,5.714502186
1.81650,6.324891001
1.81700,5.409307778
1.81750,6.324891001
1.81800,7.545668632
1.81850,5.714502186
1.81900,0.5261972547
1.81950,-3.441330045
1.82000,-4.662107676
1.82050,-4.051718861
1.82100,-0.9997747838
1.82150,3.578141332
1.82200,7.240474224
1.82250,6.019696593
1.82300,2.052169293
1.82350,0.221002847
1.82400,2.357363701
1.82450,4.798918962
1.82500,5.409307778
1.82550,6.019696593
1.82600,8.156057447
1.82650,9.987223893
1.82700,10.90280712
1.82750,11.51319593
1.82800,12.73397356
1.82850,13.95475119
1.82900,14.56514001
1.82950,15.17552882
1.83000,14.56514001
1.83050,11.51319593
1.83100,7.545668632
1.83150,6.324891001
1.83200,7.850863039
1.83250,8.461251855
1.83300,6.019696593
1.83350,3.272946924
1.83400,3.272946924
1.83450,3.272946924
1.83500,0.8313916624
1.83550,-1.915358007
1.83600,-2.525746822
1.83650,-0.08419156075
1.83700,1.441780478
1.83750,2.052169293
1.83800,2.052169293
1.83850,3.272946924
1.83900,5.409307778
1.83950,7.545668632
1.84000,8.461251855
1.84050,7.545668632
1.84100,4.798918962
1.84150,2.357363701
1.84200,0.8313916624
1.84250,-0.3893859684
1.84300,-3.441330045
1.84350,-6.79846853
1.84400,-7.714051753
1.84450,-6.493274122
1.84500,-5.577690899
1.84550,-6.493274122
1.84600,-7.714051753
1.84650,-8.934829384
1.84700,-9.545218199
1.84750,-9.240023792
1.84800,-8.629634976
1.84850,-7.408857346
1.84900,-5.577690899
1.84950,-3.441330045
1.85000,-0.3893859684
1.85050,1.13658607
1.85100,1.746974885
1.85150,2.052169293
1.85200,3.883335739
1.85250,5.409307778
1.85300,3.578141332
1.85350,-0.3893859684
1.85400,-3.746524453
1.85450,-4.967302084
1.85500,-4.967302084
1.85550,-4.662107676
1.85600,-2.83094123
1.85650,-0.08419156075
1.85700,2.357363701
1.85750,3.578141332
1.85800,5.10411337
1.85850,7.545668632
1.85900,9.682029486
1.85950,10.2924183
1.86000,9.682029486
1.86050,8.766446263
1.86100,6.324891001
1.86150,2.357363701
1.86200,-0.3893859684
1.86250,-0.3893859684
1.86300,2.662558109
1.86350,6.935279816
1.86400,9.987223893
1.86450,11.51319593
1.86500,10.90280712
1.86550,9.376835078
1.86600,7.240474224
1.86650,4.493724555
1.86700,-0.08419156075
1.86750,-5.577690899
1.86800,-9.850412607
1.86850,-11.98677346
1.86900,-13.81793991
1.86950,-15.95430076
1.87000,-17.17507839
1.87050,-17.17507839
1.87100,-15.64910635
1.87150,-13.81793991
1.87200,-9.545218199
1.87250,-2.83094123
1.87300,3.272946924
1.87350,6.324891001
1.87400,6.935279816
1.87450,6.324891001
1.87500,6.630085409
1.87550,6.324891001
1.87600,4.493724555
1.87650,1.441780478
1.87700,-1.610163599
1.87750,-4.051718861
1.87800,-4.662107676
1.87850,-4.051718861
1.87900,-4.662107676
1.87950,-6.79846853
1.88000,-9.545218199
1.88050,-10.46080142
1.88100,-8.934829384
1.88150,-5.577690899
1.88200,-2.525746822
1.88250,-1.304969192
1.88300,-0.3893859684
1.88350,-0.08419156075
1.88400,0.221002847
1.88450,0.5261972547
1.88500,1.13658607
1.88550,1.746974885
1.88600,1.441780478
1.88650,-0.08419156075
1.88700,-3.136135638
1.88750,-6.493274122
1.88800,-9.850412607
1.88850,-13.81793991
1.88900,-18.70105043
1.88950,-22.36338332
1.89000,-24.80493858
1.89050,-25.4153274
1.89100,-25.4153274
1.89150,-24.19454977
1.89200,-21.14260569
1.89250,-16.86988398
1.89300,-12.90235668
1.89350,-10.76599583
1.89400,-9.240023792
1.89450,-8.019246161
1.89500,-6.188079715
1.89550,-4.662107676
1.89600,-4.051718861
1.89650,-4.662107676
1.89700,-5.577690899
1.89750,-6.188079715
1.89800,-6.493274122
1.89850,-6.188079715
1.89900,-4.662107676
1.89950,-2.525746822
1.90000,-0.3893859684
1.90050,0.221002847
1.90100,-0.08419156075
1.90150,-0.08419156075
1.90200,-0.08419156075
1.90250,0.5261972547
1.90300,1.746974885
1.90350,2.967752516
1.90400,3.272946924
1.90450,1.746974885
1.90500,-0.6945803761
1.90550,-1.610163599
1.90600,-1.610163599
1.90650,-2.220552415
1.90700,-4.051718861
1.90750,-4.051718861
1.90800,-1.915358007
1.90850,-0.3893859684
1.90900,-1.304969192
1.90950,-3.441330045
1.91000,-3.136135638
1.91050,-0.3893859684
1.91100,2.052169293
1.91150,3.272946924
1.91200,3.272946924
1.91250,3.578141332
1.91300,4.493724555
1.91350,6.019696593
1.91400,6.935279816
1.91450,6.019696593
1.91500,3.578141332
1.91550,1.746974885
1.91600,2.357363701
1.91650,4.493724555
1.91700,6.630085409
1.91750,7.545668632
1.91800,7.850863039
1.91850,8.766446263
1.91900,9.376835078
1.91950,9.07164067
1.92000,8.766446263
1.92050,8.461251855
1.92100,8.461251855
1.92150,8.461251855
1.92200,8.461251855
1.92250,8.156057447
1.92300,7.850863039
1.92350,7.545668632
1.92400,7.240474224
1.92450,7.545668632
1.92500,8.461251855
1.92550,8.461251855
1.92600,6.935279816
1.92650,5.714502186
1.92700,5.409307778
1.92750,4.798918962
1.92800,1.441780478
1.92850,-2.525746822
1.92900,-3.441330045
1.92950,-1.610163599
1.93000,-1.610163599
1.93050,-6.188079715
1.93100,-10.15560701
1.93150,-8.934829384
1.93200,-3.441330045
1.93250,-0.08419156075
1.93300,0.221002847
1.93350,-0.08419156075
1.93400,-0.3893859684
1.93450,-1.610163599
1.93500,-4.662107676
1.93550,-6.188079715
1.93600,-4.967302084
1.93650,-4.051718861
1.93700,-4.967302084
1.93750,-5.577690899
1.93800,-3.746524453
1.93850,-1.610163599
1.93900,-1.915358007
1.93950,-3.441330045
1.94000,-2.220552415
1.94050,2.052169293
1.94100,6.324891001
1.94150,9.376835078
1.94200,10.90280712
1.94250,11.51319593
1.94300,10.90280712
1.94350,10.2924183
1.94400,11.51319593
1.94450,13.64955679
1.94500,14.87033442
1.94550,15.17552882
1.94600,16.09111205
1.94650,17.00669527
1.94700,15.78591764
1.94750,12.42877916
1.94800,9.07164067
1.94850,6.935279816
1.94900,6.019696593
1.94950,6.019696593
1.95000,7.850863039
1.95050,9.682029486
1.95100,10.2924183
1.95150,9.07164067
1.95200,6.324891001
1.95250,2.052169293
1.95300,-2.220552415
1.95350,-5.882885307
1.95400,-7.408857346
1.95450,-8.934829384
1.95500,-11.98677346
1.95550,-14.73352313
1.95600,-14.42832872
1.95650,-11.68157905
1.95700,-8.934829384
1.95750,-7.714051753
1.95800,-6.493274122
1.95850,-4.967302084
1.95900,-4.356913269
1.95950,-3.746524453
1.96000,-2.83094123
1.96050,-1.610163599
1.96100,-2.220552415
1.96150,-4.051718861
1.96200,-5.882885307
1.96250,-5.272496492
1.96300,-2.220552415
1.96350,1.13658607
1.96400,4.188530147
1.96450,6.019696593
1.96500,7.850863039
1.96550,9.376835078
1.96600,7.850863039
1.96650,3.883335739
1.96700,-0.08419156075
1.96750,-0.08419156075
1.96800,1.746974885
1.96850,2.052169293
1.96900,-0.08419156075
1.96950,-0.9997747838
1.97000,-0.08419156075
1.97050,0.8313916624
1.97100,-0.3893859684
1.97150,-1.915358007
1.97200,-1.610163599
1.97250,-0.6945803761
1.97300,-1.610163599
1.97350,-3.441330045
1.97400,-2.83094123
1.97450,-0.3893859684
1.97500,0.5261972547
1.97550,0.221002847
1.97600,-0.08419156075
1.97650,0.5261972547
1.97700,0.5261972547
1.97750,-0.3893859684
1.97800,-0.08419156075
1.97850,1.746974885
1.97900,3.272946924
1.97950,2.662558109
1.98000,0.8313916624
1.98050,-0.3893859684
1.98100,-1.915358007
1.98150,-3.441330045
1.98200,-4.356913269
1.98250,-3.746524453
1.98300,-3.136135638
1.98350,-3.746524453
1.98400,-5.272496492
1.98450,-6.188079715
1.98500,-8.019246161
1.98550,-11.68157905
1.98600,-14.73352313
1.98650,-14.73352313
1.98700,-12.59716228
1.98750,-12.29196787
1.98800,-14.42832872
1.98850,-16.56468958
1.98900,-16.56468958
1.98950,-15.95430076
1.99000,-15.34391195
1.99050,-13.81793991
1.99100,-10.46080142
1.99150,-7.714051753
1.99200,-7.103662938
1.99250,-7.103662938
1.99300,-5.577690899
1.99350,-2.220552415
1.99400,0.5261972547
1.99450,2.967752516
1.99500,4.493724555
1.99550,5.10411337
1.99600,4.493724555
1.99650,4.493724555
1.99700,5.714502186
1.99750,7.850863039
1.99800,9.376835078
1.99850,11.20800152
1.99900,13.95475119
1.99950,17.00669527
2.00000,17.92227849
2.00050,17.61708409
2.00100,17.00669527
2.00150,15.78591764
2.00200,12.12358475
2.00250,7.240474224
2.00300,4.188530147
2.00350,4.188530147
2.00400,4.798918962
2.00450,3.578141332
2.00500,1.13658607
2.00550,0.5261972547
2.00600,2.052169293
2.00650,2.967752516
2.00700,2.052169293
2.00750,-0.08419156075
2.00800,-3.136135638
2.00850,-6.493274122
2.00900,-9.240023792
2.00950,-10.46080142
2.01000,-10.76599583
2.01050,-12.59716228
2.01100,-17.17507839
2.01150,-22.05818892
2.01200,-23.58416095
2.01250,-22.66857773
2.01300,-22.05818892
2.01350,-22.97377214
2.01400,-22.36338332
2.01450,-18.09066162
2.01500,-12.29196787
2.01550,-8.324440569
2.01600,-6.79846853
2.01650,-5.882885307
2.01700,-4.356913269
2.01750,-4.967302084
2.01800,-7.714051753
2.01850,-10.15560701
2.01900,-10.76599583
2.01950,-10.15560701
2.02000,-9.850412607
2.02050,-8.324440569
2.02100,-4.967302084
2.02150,-1.915358007
2.02200,-1.304969192
2.02250,-1.610163599
2.02300,-0.6945803761
2.02350,1.441780478
2.02400,3.883335739
2.02450,5.10411337
2.02500,4.798918962
2.02550,3.272946924
2.02600,0.221002847
2.02650,-1.304969192
2.02700,-0.6945803761
2.02750,-0.08419156075
2.02800,-0.6945803761
2.02850,-2.525746822
2.02900,-1.915358007
2.02950,0.221002847
2.03000,1.441780478
2.03050,0.8313916624
2.03100,-0.08419156075
2.03150,-0.3893859684
2.03200,-0.6945803761
2.03250,-1.610163599
2.03300,-0.9997747838
2.03350,1.13658607
2.03400,3.578141332
2.03450,4.798918962
2.03500,3.883335739
2.03550,2.052169293
2.03600,-0.08419156075
2.03650,-0.9997747838
2.03700,-0.9997747838
2.03750,-0.3893859684
2.03800,-0.9997747838
2.03850,-4.662107676
2.03900,-9.545218199
2.03950,-12.90235668
2.04000,-14.42832872
2.04050,-15.34391195
2.04100,-15.34391195
2.04150,-12.90235668
2.04200,-7.408857346
2.04250,-1.304969192
2.04300,2.052169293
2.04350,1.746974885
2.04400,-0.08419156075
2.04450,-0.08419156075
2.04500,2.052169293
2.04550,5.10411337
2.04600,7.545668632
2.04650,9.07164067
2.04700,9.682029486
2.04750,8.766446263
2.04800,6.324891001
2.04850,3.578141332
2.04900,2.662558109
2.04950,3.883335739
2.05000,6.019696593
2.05050,7.850863039
2.05100,8.461251855
2.05150,7.240474224
2.05200,3.578141332
2.05250,-0.6945803761
2.05300,-4.051718861
2.05350,-4.051718861
2.05400,-1.915358007
2.05450,-0.08419156075
2.05500,0.8313916624
2.05550,1.746974885
2.05600,2.967752516
2.05650,3.578141332
2.05700,3.272946924
2.05750,2.052169293
2.05800,1.13658607
2.05850,0.8313916624
2.05900,0.221002847
2.05950,-0.08419156075
2.06000,-0.9997747838
2.06050,-0.9997747838
2.06100,0.221002847
2.06150,3.272946924
2.06200,6.019696593
2.06250,7.240474224
2.06300,7.240474224
2.06350,7.545668632
2.06400,8.766446263
2.06450,9.376835078
2.06500,9.376835078
2.06550,8.766446263
2.06600,6.935279816
2.06650,3.578141332
2.06700,0.221002847
2.06750,-0.6945803761
2.06800,0.8313916624
2.06850,3.272946924
2.06900,4.188530147
2.06950,3.883335739
2.07000,3.578141332
2.07050,2.967752516
2.07100,2.967752516
2.07150,3.272946924
2.07200,4.493724555
2.07250,6.019696593
2.07300,7.545668632
2.07350,9.07164067
2.07400,8.766446263
2.07450,6.630085409
2.07500,2.967752516
2.07550,0.5261972547
2.07600,-0.08419156075
2.07650,-0.3893859684
2.07700,-1.304969192
2.07750,-2.525746822
2.07800,-2.525746822
2.07850,-0.3893859684
2.07900,2.357363701
2.07950,4.493724555
2.08000,3.578141332
2.08050,0.5261972547
2.08100,-1.304969192
2.08150,-1.304969192
2.08200,-0.08419156075
2.08250,0.8313916624
2.08300,2.357363701
2.08350,4.798918962
2.08400,6.935279816
2.08450,8.156057447
2.08500,9.07164067
2.08550,9.07164067
2.08600,6.324891001
2.08650,2.052169293
2.08700,-0.9997747838
2.08750,-1.304969192
2.08800,0.221002847
2.08850,1.746974885
2.08900,2.357363701
2.08950,2.052169293
2.09000,-0.9997747838
2.09050,-5.882885307
2.09100,-9.240023792
2.09150,-8.019246161
2.09200,-4.051718861
2.09250,-2.525746822
2.09300,-4.662107676
2.09350,-7.103662938
2.09400,-7.408857346
2.09450,-5.272496492
2.09500,-2.220552415
2.09550,0.221002847
2.09600,2.967752516
2.09650,4.798918962
2.09700,5.409307778
2.09750,4.188530147
2.09800,2.357363701
2.09850,0.8313916624
2.09900,0.221002847
2.09950,-0.3893859684
2.10000,-2.220552415
2.10050,-4.356913269
2.10100,-4.662107676
2.10150,-2.525746822
2.10200,-0.08419156075
2.10250,0.8313916624
2.10300,0.5261972547
2.10350,-0.3893859684
2.10400,-2.525746822
2.10450,-4.662107676
2.10500,-5.577690899
2.10550,-6.493274122
2.10600,-8.019246161
2.10650,-10.46080142
2.10700,-11.07119024
2.10750,-9.240023792
2.10800,-7.408857346
2.10850,-7.714051753
2.10900,-8.934829384
2.10950,-9.240023792
2.11000,-8.019246161
2.11050,-5.882885307
2.11100,-4.356913269
2.11150,-2.83094123
2.11200,-2.220552415
2.11250,-2.83094123
2.11300,-4.051718861
2.11350,-4.356913269
2.11400,-3.136135638
2.11450,-0.08419156075
2.11500,2.662558109
2.11550,4.493724555
2.11600,4.493724555
2.11650,4.188530147
2.11700,4.493724555
2.11750,6.324891001
2.11800,9.07164067
2.11850,13.34436238
2.11900,19.14305612
2.11950,25.85733309
2.12000,30.43524921
2.12050,30.43524921
2.12100,27.07811072
2.12150,23.11058342
2.12200,20.36383376
2.12250,18.53266731
2.12300,17.31188968
2.12350,16.09111205
2.12400,15.48072323
2.12450,14.56514001
2.12500,13.64955679
2.12550,13.03916797
2.12600,12.42877916
2.12650,11.51319593
2.12700,9.987223893
2.12750,8.156057447
2.12800,7.240474224
2.12850,8.156057447
2.12900,9.682029486
2.12950,10.59761271
2.13000,9.987223893
2.13050,7.850863039
2.13100,5.714502186
2.13150,3.272946924
2.13200,1.441780478
2.13250,-0.08419156075
2.13300,-1.304969192
2.13350,-3.136135638
2.13400,-5.577690899
2.13450,-8.019246161
2.13500,-9.545218199
2.13550,-8.934829384
2.13600,-6.493274122
2.13650,-1.915358007
2.13700,3.883335739
2.13750,9.07164067
2.13800,10.90280712
2.13850,9.07164067
2.13900,5.714502186
2.13950,4.188530147
2.14000,4.493724555
2.14050,5.409307778
2.14100,6.324891001
2.14150,6.630085409
2.14200,4.493724555
2.14250,-0.08419156075
2.14300,-4.967302084
2.14350,-6.79846853
2.14400,-5.882885307
2.14450,-7.714051753
2.14500,-12.59716228
2.14550,-15.34391195
2.14600,-11.98677346
2.14650,-5.272496492
2.14700,-0.3893859684
2.14750,1.441780478
2.14800,4.188530147
2.14850,7.850863039
2.14900,9.682029486
2.14950,6.324891001
2.15000,-0.6945803761
2.15050,-8.019246161
2.15100,-11.98677346
2.15150,-11.68157905
2.15200,-9.240023792
2.15250,-7.408857346
2.15300,-8.019246161
2.15350,-10.46080142
2.15400,-12.59716228
2.15450,-12.59716228
2.15500,-10.76599583
2.15550,-8.324440569
2.15600,-5.577690899
2.15650,-3.441330045
2.15700,-1.304969192
2.15750,0.8313916624
2.15800,3.578141332
2.15850,4.798918962
2.15900,4.798918962
2.15950,5.10411337
2.16000,6.019696593
2.16050,5.714502186
2.16100,3.272946924
2.16150,0.221002847
2.16200,-0.6945803761
2.16250,-0.3893859684
2.16300,-0.3893859684
2.16350,-2.220552415
2.16400,-3.746524453
2.16450,-3.746524453
2.16500,-2.525746822
2.16550,-2.525746822
2.16600,-3.136135638
2.16650,-4.051718861
2.16700,-4.051718861
2.16750,-4.356913269
2.16800,-5.882885307
2.16850,-8.629634976
2.16900,-11.37638465
2.16950,-13.20755109
2.17000,-12.90235668
2.17050,-9.850412607
2.17100,-6.188079715
2.17150,-4.967302084
2.17200,-7.103662938
2.17250,-8.934829384
2.17300,-6.79846853
2.17350,-2.525746822
2.17400,-0.08419156075
2.17450,-0.08419156075
2.17500,-0.08419156075
2.17550,2.052169293
2.17600,2.052169293
2.17650,-3.746524453
2.17700,-11.98677346
2.17750,-15.64910635
2.17800,-13.20755109
2.17850,-10.15560701
2.17900,-9.850412607
2.17950,-9.240023792
2.18000,-5.272496492
2.18050,0.8313916624
2.18100,5.10411337
2.18150,5.409307778
2.18200,3.578141332
2.18250,2.357363701
2.18300,2.967752516
2.18350,4.493724555
2.18400,5.714502186
2.18450,6.019696593
2.18500,6.019696593
2.18550,6.324891001
2.18600,6.630085409
2.18650,5.10411337
2.18700,2.357363701
2.18750,0.8313916624
2.18800,0.5261972547
2.18850,0.5261972547
2.18900,-0.3893859684
2.18950,-1.304969192
2.19000,-1.304969192
2.19050,-0.3893859684
2.19100,-0.08419156075
2.19150,0.221002847
2.19200,0.5261972547
2.19250,1.746974885
2.19300,3.883335739
2.19350,6.630085409
2.19400,8.156057447
2.19450,8.766446263
2.19500,9.376835078
2.19550,9.682029486
2.19600,8.766446263
2.19650,6.630085409
2.19700,4.188530147
2.19750,3.578141332
2.19800,5.10411337
2.19850,7.850863039
2.19900,10.59761271
2.19950,12.73397356
2.20000,12.73397356
2.20050,9.682029486
2.20100,3.578141332
2.20150,-1.915358007
2.20200,-5.882885307
2.20250,-8.019246161
2.20300,-10.15560701
2.20350,-11.68157905
2.20400,-10.46080142
2.20450,-5.882885307
2.20500,-0.9997747838
2.20550,1.441780478
2.20600,2.662558109
2.20650,3.578141332
2.20700,2.052169293
2.20750,-2.220552415
2.20800,-6.79846853
2.20850,-6.493274122
2.20900,-2.525746822
2.20950,-0.08419156075
2.21000,-0.08419156075
2.21050,-0.3893859684
2.21100,0.5261972547
2.21150,1.441780478
2.21200,1.13658607
2.21250,1.746974885
2.21300,3.883335739
2.21350,3.883335739
2.21400,0.5261972547
2.21450,-1.915358007
2.21500,-0.08419156075
2.21550,3.883335739
2.21600,5.10411337
2.21650,2.052169293
2.21700,-0.3893859684
2.21750,-0.6945803761
2.21800,-0.08419156075
2.21850,-0.3893859684
2.21900,-0.6945803761
2.21950,0.221002847
2.22000,2.967752516
2.22050,5.409307778
2.22100,5.714502186
2.22150,4.798918962
2.22200,3.883335739
2.22250,1.746974885
2.22300,-2.83094123
2.22350,-8.934829384
2.22400,-12.59716228
2.22450,-11.37638465
2.22500,-8.324440569
2.22550,-7.714051753
2.22600,-9.850412607
2.22650,-11.68157905
2.22700,-12.29196787
2.22750,-13.5127455
2.22800,-14.73352313
2.22850,-13.81793991
2.22900,-11.98677346
2.22950,-10.76599583
2.23000,-10.76599583
2.23050,-10.46080142
2.23100,-8.629634976
2.23150,-7.103662938
2.23200,-5.882885307
2.23250,-2.525746822
2.23300,2.357363701
2.23350,5.714502186
2.23400,5.10411337
2.23450,2.967752516
2.23500,3.883335739
2.23550,8.156057447
2.23600,12.12358475
2.23650,12.73397356
2.23700,9.987223893
2.23750,5.10411337
2.23800,1.13658607
2.23850,-0.6945803761
2.23900,-1.304969192
2.23950,-1.610163599
2.24000,-2.525746822
2.24050,-2.220552415
2.24100,-0.6945803761
2.24150,-0.08419156075
2.24200,-0.6945803761
2.24250,-1.304969192
2.24300,-0.08419156075
2.24350,1.746974885
2.24400,2.662558109
2.24450,2.967752516
2.24500,4.493724555
2.24550,6.630085409
2.24600,6.630085409
2.24650,3.578141332
2.24700,-0.6945803761
2.24750,-4.662107676
2.24800,-7.714051753
2.24850,-9.545218199
2.24900,-10.76599583
2.24950,-11.07119024
2.25000,-9.240023792
2.25050,-5.577690899
2.25100,-0.9997747838
2.25150,2.052169293
2.25200,3.272946924
2.25250,2.052169293
2.25300,-0.08419156075
2.25350,-1.915358007
2.25400,-2.83094123
2.25450,-1.915358007
2.25500,-0.08419156075
2.25550,0.5261972547
2.25600,-0.9997747838
2.25650,-3.746524453
2.25700,-5.577690899
2.25750,-6.493274122
2.25800,-6.188079715
2.25850,-4.356913269
2.25900,-0.08419156075
2.25950,3.883335739
2.26000,6.019696593
2.26050,6.019696593
2.26100,6.019696593
2.26150,6.935279816
2.26200,5.714502186
2.26250,1.441780478
2.26300,-2.83094123
2.26350,-4.662107676
2.26400,-3.136135638
2.26450,-0.08419156075
2.26500,3.272946924
2.26550,6.019696593
2.26600,6.019696593
2.26650,2.357363701
2.26700,-3.441330045
2.26750,-8.629634976
2.26800,-10.46080142
2.26850,-9.850412607
2.26900,-10.15560701
2.26950,-12.59716228
2.27000,-14.73352313
2.27050,-14.73352313
2.27100,-12.90235668
2.27150,-11.68157905
2.27200,-12.59716228
2.27250,-12.90235668
2.27300,-10.46080142
2.27350,-6.188079715
2.27400,-3.441330045
2.27450,-3.746524453
2.27500,-5.272496492
2.27550,-5.882885307
2.27600,-6.79846853
2.27650,-9.240023792
2.27700,-11.37638465
2.27750,-10.46080142
2.27800,-6.493274122
2.27850,-1.610163599
2.27900,2.357363701
2.27950,6.019696593
2.28000,9.376835078
2.28050,11.81839034
2.28100,13.34436238
2.28150,14.56514001
2.28200,15.17552882
2.28250,14.56514001
2.28300,13.03916797
2.28350,12.42877916
2.28400,13.34436238
2.28450,14.56514001
2.28500,14.2599456
2.28550,13.64955679
2.28600,15.48072323
2.28650,18.2274729
2.28700,19.44825053
2.28750,17.92227849
2.28800,15.48072323
2.28850,14.87033442
2.28900,14.2599456
2.28950,12.12358475
2.29000,9.07164067
2.29050,6.935279816
2.29100,6.324891001
2.29150,5.714502186
2.29200,4.493724555
2.29250,2.967752516
2.29300,-0.08419156075
2.29350,-6.188079715
2.29400,-11.98677346
2.29450,-11.68157905
2.29500,-4.356913269
2.29550,1.13658607
2.29600,-0.6945803761
2.29650,-8.324440569
2.29700,-14.12313432
2.29750,-16.56468958
2.29800,-19.61663365
2.29850,-23.88935536
2.29900,-26.33091062
2.29950,-23.58416095
2.30000,-18.09066162
2.30050,-12.29196787
2.30100,-6.188079715
2.30150,-0.3893859684
2.30200,2.052169293
2.30250,1.746974885
2.30300,1.441780478
2.30350,3.578141332
2.30400,6.019696593
2.30450,7.240474224
2.30500,8.766446263
2.30550,12.12358475
2.30600,15.48072323
2.30650,17.00669527
2.30700,17.92227849
2.30750,18.83786172
2.30800,17.00669527
2.30850,10.59761271
2.30900,2.052169293
2.30950,-2.220552415
2.31000,-2.83094123
2.31050,-2.83094123
2.31100,-4.967302084
2.31150,-9.850412607
2.31200,-16.25949517
2.31250,-23.27896655
2.31300,-28.16207707
2.31350,-29.68804911
2.31400,-28.46727148
2.31450,-26.33091062
2.31500,-23.27896655
2.31550,-19.00624484
2.31600,-13.5127455
2.31650,-8.324440569
2.31700,-4.356913269
2.31750,-2.220552415
2.31800,-1.304969192
2.31850,-0.9997747838
2.31900,-0.08419156075
2.31950,1.441780478
2.32000,2.967752516
2.32050,3.883335739
2.32100,5.714502186
2.32150,7.850863039
2.32200,9.376835078
2.32250,10.2924183
2.32300,12.73397356
2.32350,17.00669527
2.32400,20.66902816
2.32450,21.27941698
2.32500,20.66902816
2.32550,20.36383376
2.32600,19.44825053
2.32650,17.00669527
2.32700,13.64955679
2.32750,10.59761271
2.32800,7.545668632
2.32850,4.188530147
2.32900,1.746974885
2.32950,0.8313916624
2.33000,0.221002847
2.33050,0.221002847
2.33100,1.746974885
2.33150,5.10411337
2.33200,8.156057447
2.33250,9.376835078
2.33300,10.59761271
2.33350,13.34436238
2.33400,15.17552882
2.33450,12.42877916
2.33500,6.630085409
2.33550,2.662558109
2.33600,2.662558109
2.33650,3.578141332
2.33700,2.052169293
2.33750,-0.9997747838
2.33800,-3.441330045
2.33850,-4.662107676
2.33900,-5.882885307
2.33950,-6.493274122
2.34000,-5.882885307
2.34050,-5.272496492
2.34100,-5.272496492
2.34150,-6.188079715
2.34200,-6.188079715
2.34250,-5.882885307
2.34300,-5.577690899
2.34350,-5.272496492
2.34400,-4.662107676
2.34450,-4.967302084
2.34500,-8.019246161
2.34550,-12.59716228
2.34600,-15.03871754
2.34650,-13.5127455
2.34700,-9.850412607
2.34750,-6.79846853
2.34800,-4.051718861
2.34850,-0.3893859684
2.34900,2.967752516
2.34950,3.578141332
2.35000,1.13658607
2.35050,-0.08419156075
2.35100,1.746974885
2.35150,5.714502186
2.35200,7.850863039
2.35250,7.545668632
2.35300,6.630085409
2.35350,6.324891001
2.35400,7.240474224
2.35450,9.376835078
2.35500,12.12358475
2.35550,13.34436238
2.35600,11.20800152
2.35650,6.324891001
2.35700,2.662558109
2.35750,2.662558109
2.35800,2.662558109
2.35850,-0.3893859684
2.35900,-6.188079715
2.35950,-9.545218199
2.36000,-8.934829384
2.36050,-7.408857346
2.36100,-7.714051753
2.36150,-9.240023792
2.36200,-10.46080142
2.36250,-11.68157905
2.36300,-13.20755109
2.36350,-12.59716228
2.36400,-8.934829384
2.36450,-4.662107676
2.36500,-4.356913269
2.36550,-7.714051753
2.36600,-10.46080142
2.36650,-8.934829384
2.36700,-5.272496492
2.36750,-3.136135638
2.36800,-2.220552415
2.36850,-0.6945803761
2.36900,0.221002847
2.36950,-0.3893859684
2.37000,-3.441330045
2.37050,-5.272496492
2.37100,-4.356913269
2.37150,-1.304969192
2.37200,1.441780478
2.37250,3.272946924
2.37300,3.883335739
2.37350,3.883335739
2.37400,3.883335739
2.37450,5.10411337
2.37500,6.019696593
2.37550,4.798918962
2.37600,1.441780478
2.37650,-1.610163599
2.37700,-3.441330045
2.37750,-3.746524453
2.37800,-2.83094123
2.37850,0.221002847
2.37900,5.409307778
2.37950,10.59761271
2.38000,13.95475119
2.38050,16.09111205
2.38100,18.53266731
2.38150,21.88980579
2.38200,24.02616665
2.38250,24.33136106
2.38300,23.41577783
2.38350,20.97422257
2.38400,16.39630646
2.38450,9.987223893
2.38500,5.409307778
2.38550,4.798918962
2.38600,6.630085409
2.38650,8.461251855
2.38700,8.461251855
2.38750,6.630085409
2.38800,2.662558109
2.38850,-2.83094123
2.38900,-6.493274122
2.38950,-6.79846853
2.39000,-4.662107676
2.39050,-4.051718861
2.39100,-7.103662938
2.39150,-11.37638465
2.39200,-14.42832872
2.39250,-14.73352313
2.39300,-13.5127455
2.39350,-13.20755109
2.39400,-15.64910635
2.39450,-18.70105043
2.39500,-19.61663365
2.39550,-16.25949517
2.39600,-10.76599583
2.39650,-7.714051753
2.39700,-7.103662938
2.39750,-8.324440569
2.39800,-10.15560701
2.39850,-12.59716228
2.39900,-14.42832872
2.39950,-13.81793991
2.40000,-11.07119024
2.40050,-8.019246161
2.40100,-4.356913269
2.40150,-0.08419156075
2.40200,3.883335739
2.40250,5.409307778
2.40300,5.10411337
2.40350,6.019696593
2.40400,8.156057447
2.40450,8.461251855
2.40500,6.630085409
2.40550,6.630085409
2.40600,9.682029486
2.40650,12.42877916
2.40700,10.90280712
2.40750,6.935279816
2.40800,4.188530147
2.40850,2.357363701
2.40900,-0.08419156075
2.40950,-4.051718861
2.41000,-5.577690899
2.41050,-4.662107676
2.41100,-3.746524453
2.41150,-3.746524453
2.41200,-3.746524453
2.41250,-2.220552415
2.41300,-2.220552415
2.41350,-4.356913269
2.41400,-6.493274122
2.41450,-5.272496492
2.41500,-2.83094123
2.41550,-1.610163599
2.41600,-0.9997747838
2.41650,1.441780478
2.41700,5.409307778
2.41750,7.545668632
2.41800,6.630085409
2.41850,5.409307778
2.41900,6.630085409
2.41950,8.461251855
2.42000,9.376835078
2.42050,8.461251855
2.42100,5.714502186
2.42150,2.052169293
2.42200,-0.3893859684
2.42250,-0.9997747838
2.42300,0.8313916624
2.42350,2.967752516
2.42400,3.883335739
2.42450,3.883335739
2.42500,3.272946924
2.42550,-0.08419156075
2.42600,-6.493274122
2.42650,-14.42832872
2.42700,-20.53221688
2.42750,-23.27896655
2.42800,-22.97377214
2.42850,-22.05818892
2.42900,-21.14260569
2.42950,-19.00624484
2.43000,-15.03871754
2.43050,-9.850412607
2.43100,-5.272496492
2.43150,-1.610163599
2.43200,2.967752516
2.43250,9.07164067
2.43300,13.03916797
2.43350,11.81839034
2.43400,7.545668632
2.43450,4.798918962
2.43500,4.493724555
2.43550,5.10411337
2.43600,6.630085409
2.43650,10.2924183
2.43700,14.2599456
2.43750,13.34436238
2.43800,7.545668632
2.43850,1.13658607
2.43900,-1.304969192
2.43950,-1.915358007
2.44000,-3.441330045
2.44050,-5.577690899
2.44100,-5.577690899
2.44150,-3.136135638
2.44200,-1.304969192
2.44250,-1.610163599
2.44300,-2.83094123
2.44350,-2.83094123
2.44400,-1.610163599
2.44450,-0.6945803761
2.44500,-0.08419156075
2.44550,0.8313916624
2.44600,2.357363701
2.44650,2.052169293
2.44700,-1.610163599
2.44750,-5.882885307
2.44800,-7.408857346
2.44850,-4.967302084
2.44900,-2.525746822
2.44950,-1.915358007
2.45000,-1.610163599
2.45050,0.5261972547
2.45100,3.272946924
2.45150,3.578141332
2.45200,2.052169293
2.45250,1.441780478
2.45300,1.13658607
2.45350,-0.3893859684
2.45400,-5.272496492
2.45450,-9.545218199
2.45500,-10.46080142
2.45550,-8.324440569
2.45600,-5.577690899
2.45650,-2.83094123
2.45700,0.8313916624
2.45750,6.019696593
2.45800,10.2924183
2.45850,11.81839034
2.45900,11.81839034
2.45950,11.81839034
2.46000,12.73397356
2.46050,12.42877916
2.46100,10.2924183
2.46150,6.935279816
2.46200,4.188530147
2.46250,1.746974885
2.46300,-0.9997747838
2.46350,-4.967302084
2.46400,-8.324440569
2.46450,-9.240023792
2.46500,-9.850412607
2.46550,-10.76599583
2.46600,-12.59716228
2.46650,-13.20755109
2.46700,-11.68157905
2.46750,-8.934829384
2.46800,-6.188079715
2.46850,-3.441330045
2.46900,-0.6945803761
2.46950,1.441780478
2.47000,3.272946924
2.47050,5.714502186
2.47100,9.376835078
2.47150,13.03916797
2.47200,13.34436238
2.47250,8.766446263
2.47300,1.746974885
2.47350,-3.441330045
2.47400,-5.272496492
2.47450,-4.662107676
2.47500,-3.136135638
2.47550,-1.610163599
2.47600,-0.3893859684
2.47650,-0.08419156075
2.47700,-1.610163599
2.47750,-6.79846853
2.47800,-15.03871754
2.47850,-22.36338332
2.47900,-25.72052181
2.47950,-25.11013299
2.48000,-22.05818892
2.48050,-17.78546721
2.48100,-11.98677346
2.48150,-5.577690899
2.48200,-0.08419156075
2.48250,4.493724555
2.48300,8.461251855
2.48350,11.81839034
2.48400,13.64955679
2.48450,13.34436238
2.48500,12.73397356
2.48550,13.34436238
2.48600,15.17552882
2.48650,16.09111205
2.48700,16.39630646
2.48750,17.61708409
2.48800,18.83786172
2.48850,18.2274729
2.48900,13.95475119
2.48950,8.461251855
2.49000,5.714502186
2.49050,5.714502186
2.49100,4.798918962
2.49150,0.8313916624
2.49200,-4.662107676
2.49250,-8.019246161
2.49300,-8.629634976
2.49350,-9.240023792
2.49400,-11.68157905
2.49450,-14.42832872
2.49500,-14.42832872
2.49550,-11.37638465
2.49600,-7.714051753
2.49650,-5.882885307
2.49700,-5.577690899
2.49750,-4.967302084
2.49800,-2.83094123
2.49850,-0.3893859684
2.49900,-0.08419156075
2.49950,-1.304969192
2.50000,-2.220552415
2.50050,-0.08419156075
2.50100,4.493724555
2.50150,8.766446263
2.50200,11.51319593
2.50250,13.95475119
2.50300,16.70150086
2.50350,19.44825053
2.50400,22.50019461
2.50450,27.38330513
2.50500,33.79238769
2.50550,38.37030381
2.50600,37.75991499
2.50650,33.18199888
2.50700,28.60408276
2.50750,24.02616665
2.50800,17.31188968
2.50850,9.682029486
2.50900,5.409307778
2.50950,6.324891001
2.51000,7.850863039
2.51050,7.240474224
2.51100,5.10411337
2.51150,2.662558109
2.51200,-1.915358007
2.51250,-11.07119024
2.51300,-22.36338332
2.51350,-30.60363233
2.51400,-33.65557641
2.51450,-33.350382
2.51500,-32.43479878
2.51550,-31.51921555
2.51600,-30.60363233
2.51650,-29.99324352
2.51700,-29.3828547
2.51750,-28.46727148
2.51800,-26.63610503
2.51850,-22.97377214
2.51900,-16.25949517
2.51950,-7.714051753
2.52000,-0.3893859684
2.52050,4.188530147
2.52100,6.935279816
2.52150,8.766446263
2.52200,9.682029486
2.52250,10.2924183
2.52300,10.59761271
2.52350,10.59761271
2.52400,9.376835078
2.52450,6.630085409
2.52500,4.493724555
2.52550,3.883335739
2.52600,2.967752516
2.52650,1.13658607
2.52700,-0.08419156075
2.52750,0.5261972547
2.52800,2.052169293
2.52850,3.272946924
2.52900,4.493724555
2.52950,6.935279816
2.53000,10.2924183
2.53050,12.73397356
2.53100,13.64955679
2.53150,12.12358475
2.53200,8.156057447
2.53250,2.357363701
2.53300,-1.304969192
2.53350,-1.610163599
2.53400,-0.9997747838
2.53450,-1.915358007
2.53500,-4.051718861
2.53550,-4.356913269
2.53600,-3.136135638
2.53650,-2.525746822
2.53700,-3.746524453
2.53750,-4.967302084
2.53800,-4.967302084
2.53850,-5.882885307
2.53900,-8.324440569
2.53950,-9.545218199
2.54000,-8.934829384
2.54050,-7.714051753
2.54100,-7.714051753
2.54150,-8.019246161
2.54200,-6.79846853
2.54250,-4.662107676
2.54300,-2.525746822
2.54350,-0.9997747838
2.54400,-0.08419156075
2.54450,-0.6945803761
2.54500,-3.441330045
2.54550,-6.188079715
2.54600,-7.408857346
2.54650,-8.019246161
2.54700,-8.324440569
2.54750,-6.188079715
2.54800,-0.9997747838
2.54850,4.798918962
2.54900,9.376835078
2.54950,12.42877916
2.55000,14.2599456
2.55050,13.34436238
2.55100,9.07164067
2.55150,3.883335739
2.55200,1.441780478
2.55250,1.441780478
2.55300,1.746974885
2.55350,0.8313916624
2.55400,-0.3893859684
2.55450,-2.220552415
2.55500,-5.272496492
2.55550,-9.850412607
2.55600,-15.03871754
2.55650,-18.39585602
2.55700,-17.17507839
2.55750,-11.98677346
2.55800,-5.882885307
2.55850,-2.525746822
2.55900,-2.525746822
2.55950,-4.356913269
2.56000,-7.408857346
2.56050,-11.37638465
2.56100,-13.81793991
2.56150,-12.29196787
2.56200,-7.103662938
2.56250,-1.304969192
2.56300,3.272946924
2.56350,7.545668632
2.56400,9.376835078
2.56450,7.850863039
2.56500,5.10411337
2.56550,4.798918962
2.56600,7.240474224
2.56650,7.850863039
2.56700,4.798918962
2.56750,1.441780478
2.56800,0.221002847
2.56850,-0.08419156075
2.56900,-2.83094123
2.56950,-5.577690899
2.57000,-6.79846853
2.57050,-6.493274122
2.57100,-6.79846853
2.57150,-7.408857346
2.57200,-7.408857346
2.57250,-7.103662938
2.57300,-7.103662938
2.57350,-7.408857346
2.57400,-5.577690899
2.57450,-2.83094123
2.57500,-1.610163599
2.57550,-2.83094123
2.57600,-4.662107676
2.57650,-5.272496492
2.57700,-4.051718861
2.57750,-2.525746822
2.57800,-2.220552415
2.57850,-4.051718861
2.57900,-5.882885307
2.57950,-6.493274122
2.58000,-4.967302084
2.58050,-2.525746822
2.58100,-0.08419156075
2.58150,4.493724555
2.58200,10.59761271
2.58250,15.78591764
2.58300,16.70150086
2.58350,14.56514001
2.58400,13.34436238
2.58450,14.2599456
2.58500,14.87033442
2.58550,13.03916797
2.58600,10.2924183
2.58650,9.07164067
2.58700,10.90280712
2.58750,13.34436238
2.58800,15.17552882
2.58850,14.56514001
2.58900,11.20800152
2.58950,6.630085409
2.59000,2.357363701
2.59050,-0.08419156075
2.59100,-0.08419156075
2.59150,0.8313916624
2.59200,2.357363701
2.59250,2.662558109
2.59300,1.13658607
2.59350,-1.304969192
2.59400,-2.83094123
2.59450,-1.915358007
2.59500,-0.08419156075
2.59550,0.5261972547
2.59600,-0.08419156075
2.59650,-0.08419156075
2.59700,2.967752516
2.59750,8.156057447
2.59800,12.12358475
2.59850,12.73397356
2.59900,10.59761271
2.59950,6.324891001
2.60000,2.357363701
2.60050,0.221002847
2.60100,0.8313916624
2.60150,2.357363701
2.60200,2.662558109
2.60250,2.662558109
2.60300,5.10411337
2.60350,8.156057447
2.60400,8.156057447
2.60450,3.883335739
2.60500,0.221002847
2.60550,0.221002847
2.60600,0.221002847
2.60650,-4.356913269
2.60700,-12.59716228
2.60750,-17.4802728
2.60800,-16.56468958
2.60850,-13.20755109
2.60900,-11.07119024
2.60950,-9.850412607
2.61000,-8.629634976
2.61050,-9.545218199
2.61100,-12.90235668
2.61150,-15.03871754
2.61200,-12.29196787
2.61250,-7.103662938
2.61300,-4.051718861
2.61350,-4.051718861
2.61400,-3.441330045
2.61450,-2.220552415
2.61500,-1.304969192
2.61550,-0.9997747838
2.61600,0.5261972547
2.61650,3.883335739
2.61700,6.324891001
2.61750,6.019696593
2.61800,4.798918962
2.61850,5.714502186
2.61900,6.324891001
2.61950,5.10411337
2.62000,2.357363701
2.62050,2.357363701
2.62100,3.883335739
2.62150,4.188530147
2.62200,2.052169293
2.62250,0.221002847
2.62300,1.441780478
2.62350,2.967752516
2.62400,2.052169293
2.62450,-0.08419156075
2.62500,-0.6945803761
2.62550,-0.6945803761
2.62600,-1.915358007
2.62650,-4.051718861
2.62700,-4.662107676
2.62750,-3.746524453
2.62800,-3.136135638
2.62850,-2.83094123
2.62900,-2.220552415
2.62950,-0.08419156075
2.63000,3.883335739
2.63050,7.850863039
2.63100,10.90280712
2.63150,12.42877916
2.63200,13.34436238
2.63250,13.34436238
2.63300,11.81839034
2.63350,8.461251855
2.63400,4.188530147
2.63450,1.13658607
2.63500,-0.6945803761
2.63550,-2.525746822
2.63600,-4.662107676
2.63650,-6.493274122
2.63700,-7.714051753
2.63750,-8.324440569
2.63800,-7.408857346
2.63850,-3.136135638
2.63900,3.272946924
2.63950,7.545668632
2.64000,6.935279816
2.64050,4.798918962
2.64100,3.883335739
2.64150,2.662558109
2.64200,-0.08419156075
2.64250,-2.525746822
2.64300,-1.915358007
2.64350,0.221002847
2.64400,2.052169293
2.64450,4.188530147
2.64500,8.461251855
2.64550,12.73397356
2.64600,12.12358475
2.64650,6.630085409
2.64700,1.13658607
2.64750,-1.610163599
2.64800,-2.525746822
2.64850,-2.220552415
2.64900,-0.9997747838
2.64950,-0.3893859684
2.65000,-3.441330045
2.65050,-9.545218199
2.65100,-14.73352313
2.65150,-15.64910635
2.65200,-14.73352313
2.65250,-14.73352313
2.65300,-15.64910635
2.65350,-14.73352313
2.65400,-11.37638465
2.65450,-7.103662938
2.65500,-3.746524453
2.65550,-0.9997747838
2.65600,0.8313916624
2.65650,1.13658607
2.65700,-0.9997747838
2.65750,-4.967302084
2.65800,-8.324440569
2.65850,-9.545218199
2.65900,-10.46080142
2.65950,-11.98677346
2.66000,-14.12313432
2.66050,-14.42832872
2.66100,-12.59716228
2.66150,-8.324440569
2.66200,-3.136135638
2.66250,1.746974885
2.66300,4.798918962
2.66350,3.883335739
2.66400,0.5261972547
2.66450,-1.915358007
2.66500,-2.220552415
2.66550,-0.3893859684
2.66600,2.052169293
2.66650,6.324891001
2.66700,10.2924183
2.66750,11.81839034
2.66800,9.987223893
2.66850,6.630085409
2.66900,2.662558109
2.66950,-0.9997747838
2.67000,-4.356913269
2.67050,-5.882885307
2.67100,-5.882885307
2.67150,-5.272496492
2.67200,-4.051718861
2.67250,-0.9997747838
2.67300,4.188530147
2.67350,9.376835078
2.67400,11.81839034
2.67450,12.12358475
2.67500,10.90280712
2.67550,9.682029486
2.67600,8.156057447
2.67650,6.324891001
2.67700,3.578141332
2.67750,1.441780478
2.67800,2.357363701
2.67850,7.545668632
2.67900,12.12358475
2.67950,9.987223893
2.68000,1.13658607
2.68050,-7.714051753
2.68100,-11.68157905
2.68150,-11.98677346
2.68200,-11.68157905
2.68250,-11.68157905
2.68300,-8.934829384
2.68350,-2.220552415
2.68400,5.409307778
2.68450,10.90280712
2.68500,13.64955679
2.68550,14.2599456
2.68600,12.73397356
2.68650,9.07164067
2.68700,5.10411337
2.68750,4.188530147
2.68800,6.324891001
2.68850,6.935279816
2.68900,4.493724555
2.68950,2.357363701
2.69000,4.493724555
2.69050,9.376835078
2.69100,11.20800152
2.69150,9.376835078
2.69200,8.461251855
2.69250,9.987223893
2.69300,11.81839034
2.69350,10.2924183
2.69400,6.630085409
2.69450,1.746974885
2.69500,-3.746524453
2.69550,-9.850412607
2.69600,-13.81793991
2.69650,-15.95430076
2.69700,-19.00624484
2.69750,-22.97377214
2.69800,-25.4153274
2.69850,-24.19454977
2.69900,-21.4478001
2.69950,-19.61663365
2.70000,-18.09066162
2.70050,-15.03871754
2.70100,-11.37638465
2.70150,-8.019246161
2.70200,-3.136135638
2.70250,3.883335739
2.70300,10.90280712
2.70350,13.03916797
2.70400,9.07164067
2.70450,3.578141332
2.70500,0.221002847
2.70550,0.8313916624
2.70600,1.746974885
2.70650,-0.08419156075
2.70700,-4.662107676
2.70750,-9.850412607
2.70800,-11.37638465
2.70850,-10.15560701
2.70900,-8.934829384
2.70950,-9.850412607
2.71000,-12.59716228
2.71050,-16.56468958
2.71100,-20.22702247
2.71150,-20.53221688
2.71200,-17.17507839
2.71250,-12.59716228
2.71300,-10.76599583
2.71350,-9.850412607
2.71400,-5.272496492
2.71450,1.746974885
2.71500,7.240474224
2.71550,8.156057447
2.71600,6.935279816
2.71650,7.240474224
2.71700,7.545668632
2.71750,5.10411337
2.71800,0.8313916624
2.71850,-2.83094123
2.71900,-5.272496492
2.71950,-6.79846853
2.72000,-6.188079715
2.72050,-2.83094123
2.72100,-0.3893859684
2.72150,-2.83094123
2.72200,-7.714051753
2.72250,-8.019246161
2.72300,-1.915358007
2.72350,5.409307778
2.72400,10.2924183
2.72450,13.34436238
2.72500,15.48072323
2.72550,13.95475119
2.72600,8.766446263
2.72650,5.10411337
2.72700,6.630085409
2.72750,11.20800152
2.72800,12.73397356
2.72850,11.81839034
2.72900,11.20800152
2.72950,12.12358475
2.73000,11.81839034
2.73050,10.90280712
2.73100,11.20800152
2.73150,11.81839034
2.73200,8.461251855
2.73250,2.662558109
2.73300,-0.3893859684
2.73350,0.221002847
2.73400,1.13658607
2.73450,-0.08419156075
2.73500,-0.3893859684
2.73550,0.8313916624
2.73600,2.052169293
2.73650,-0.08419156075
2.73700,-0.9997747838
2.73750,1.746974885
2.73800,8.156057447
2.73850,13.95475119
2.73900,17.31188968
2.73950,18.53266731
2.74000,19.14305612
2.74050,19.75344494
2.74100,21.58461139
2.74150,24.94174987
2.74200,28.60408276
2.74250,31.35083243
2.74300,31.96122125
2.74350,28.29888836
2.74400,17.92227849
2.74450,4.493724555
2.74500,-5.577690899
2.74550,-9.545218199
2.74600,-9.545218199
2.74650,-8.934829384
2.74700,-7.408857346
2.74750,-4.662107676
2.74800,-3.136135638
2.74850,-4.662107676
2.74900,-6.493274122
2.74950,-6.188079715
2.75000,-4.967302084
2.75050,-4.051718861
2.75100,-2.525746822
2.75150,0.221002847
2.75200,2.052169293
2.75250,1.441780478
2.75300,1.441780478
2.75350,5.10411337
2.75400,11.81839034
2.75450,17.31188968
2.75500,20.36383376
2.75550,21.88980579
2.75600,20.97422257
2.75650,17.61708409
2.75700,12.42877916
2.75750,6.935279816
2.75800,0.5261972547
2.75850,-4.051718861
2.75900,-4.356913269
2.75950,-0.6945803761
2.76000,1.441780478
2.76050,-0.6945803761
2.76100,-4.356913269
2.76150,-4.662107676
2.76200,-3.746524453
2.76250,-7.408857346
2.76300,-15.34391195
2.76350,-21.4478001
2.76400,-23.58416095
2.76450,-24.19454977
2.76500,-23.88935536
2.76550,-20.83741128
2.76600,-15.03871754
2.76650,-10.76599583
2.76700,-8.324440569
2.76750,-5.882885307
2.76800,-1.304969192
2.76850,2.967752516
2.76900,5.714502186
2.76950,8.766446263
2.77000,13.34436238
2.77050,15.78591764
2.77100,13.34436238
2.77150,6.324891001
2.77200,-0.08419156075
2.77250,-3.441330045
2.77300,-2.83094123
2.77350,0.5261972547
2.77400,3.578141332
2.77450,4.188530147
2.77500,3.883335739
2.77550,5.714502186
2.77600,9.682029486
2.77650,13.03916797
2.77700,13.34436238
2.77750,11.81839034
2.77800,8.766446263
2.77850,2.052169293
2.77900,-7.103662938
2.77950,-14.73352313
2.78000,-17.4802728
2.78050,-17.78546721
2.78100,-20.53221688
2.78150,-25.72052181
2.78200,-28.77246588
2.78250,-27.24649385
2.78300,-23.27896655
2.78350,-19.00624484
2.78400,-14.12313432
2.78450,-8.934829384
2.78500,-4.967302084
2.78550,-2.83094123
2.78600,-1.304969192
2.78650,1.441780478
2.78700,6.630085409
2.78750,11.20800152
2.78800,13.03916797
2.78850,11.20800152
2.78900,6.935279816
2.78950,1.441780478
2.79000,-3.441330045
2.79050,-7.714051753
2.79100,-8.629634976
2.79150,-6.188079715
2.79200,-2.83094123
2.79250,-1.915358007
2.79300,-4.662107676
2.79350,-9.240023792
2.79400,-13.5127455
2.79450,-15.95430076
2.79500,-16.25949517
2.79550,-14.73352313
2.79600,-12.90235668
2.79650,-11.07119024
2.79700,-7.714051753
2.79750,-1.610163599
2.79800,4.188530147
2.79850,6.935279816
2.79900,7.545668632
2.79950,8.766446263
2.80000,10.59761271
2.80050,10.59761271
2.80100,6.935279816
2.80150,2.052169293
2.80200,-1.304969192
2.80250,-4.356913269
2.80300,-7.408857346
2.80350,-10.15560701
2.80400,-10.46080142
2.80450,-8.934829384
2.80500,-6.188079715
2.80550,-4.051718861
2.80600,-2.525746822
2.80650,-0.9997747838
2.80700,-0.08419156075
2.80750,0.221002847
2.80800,-0.6945803761
2.80850,-4.662107676
2.80900,-9.850412607
2.80950,-11.37638465
2.81000,-7.408857346
2.81050,-0.9997747838
2.81100,1.746974885
2.81150,0.5261972547
2.81200,-0.08419156075
2.81250,1.13658607
2.81300,2.967752516
2.81350,1.746974885
2.81400,-0.9997747838
2.81450,-1.915358007
2.81500,0.5261972547
2.81550,4.798918962
2.81600,6.935279816
2.81650,6.324891001
2.81700,3.883335739
2.81750,2.052169293
2.81800,2.052169293
2.81850,4.188530147
2.81900,7.240474224
2.81950,9.682029486
2.82000,9.682029486
2.82050,7.850863039
2.82100,4.798918962
2.82150,0.8313916624
2.82200,-3.136135638
2.82250,-7.103662938
2.82300,-9.545218199
2.82350,-9.545218199
2.82400,-7.103662938
2.82450,-4.356913269
2.82500,-2.525746822
2.82550,-2.83094123
2.82600,-3.746524453
2.82650,-4.662107676
2.82700,-5.577690899
2.82750,-6.188079715
2.82800,-5.882885307
2.82850,-4.662107676
2.82900,-3.746524453
2.82950,-2.83094123
2.83000,-0.9997747838
2.83050,1.441780478
2.83100,2.052169293
2.83150,0.221002847
2.83200,-1.915358007
2.83250,-0.6945803761
2.83300,3.578141332
2.83350,7.545668632
2.83400,7.240474224
2.83450,2.967752516
2.83500,-1.610163599
2.83550,-3.136135638
2.83600,-0.3893859684
2.83650,3.578141332
2.83700,5.10411337
2.83750,4.188530147
2.83800,3.578141332
2.83850,4.188530147
2.83900,4.798918962
2.83950,4.798918962
2.84000,6.935279816
2.84050,13.95475119
2.84100,22.50019461
2.84150,26.77291632
2.84200,24.33136106
2.84250,19.14305612
2.84300,16.70150086
2.84350,15.48072323
2.84400,9.376835078
2.84450,-2.525746822
2.84500,-15.34391195
2.84550,-22.05818892
2.84600,-22.05818892
2.84650,-19.00624484
2.84700,-15.34391195
2.84750,-10.46080142
2.84800,-3.746524453
2.84850,1.441780478
2.84900,3.272946924
2.84950,2.967752516
2.85000,2.052169293
2.85050,2.357363701
2.85100,3.578141332
2.85150,5.409307778
2.85200,6.935279816
2.85250,7.240474224
2.85300,5.10411337
2.85350,0.5261972547
2.85400,-4.662107676
2.85450,-9.850412607
2.85500,-13.81793991
2.85550,-16.56468958
2.85600,-18.39585602
2.85650,-19.31143925
2.85700,-19.00624484
2.85750,-18.70105043
2.85800,-19.00624484
2.85850,-20.53221688
2.85900,-20.83741128
2.85950,-19.00624484
2.86000,-13.5127455
2.86050,-6.188079715
2.86100,-0.08419156075
2.86150,1.746974885
2.86200,-0.9997747838
2.86250,-5.882885307
2.86300,-8.324440569
2.86350,-6.493274122
2.86400,-2.220552415
2.86450,2.967752516
2.86500,7.545668632
2.86550,11.51319593
2.86600,14.87033442
2.86650,17.61708409
2.86700,19.75344494
2.86750,20.05863935
2.86800,17.92227849
2.86850,13.34436238
2.86900,7.545668632
2.86950,2.967752516
2.87000,0.221002847
2.87050,-0.9997747838
2.87100,-2.83094123
2.87150,-3.136135638
2.87200,-0.08419156075
2.87250,6.935279816
2.87300,13.03916797
2.87350,14.56514001
2.87400,12.12358475
2.87450,11.20800152
2.87500,13.64955679
2.87550,14.56514001
2.87600,11.20800152
2.87650,5.409307778
2.87700,1.441780478
2.87750,-0.08419156075
2.87800,-1.610163599
2.87850,-4.967302084
2.87900,-10.46080142
2.87950,-16.86988398
2.88000,-22.66857773
2.88050,-26.02571622
2.88100,-24.80493858
2.88150,-21.75299451
2.88200,-19.00624484
2.88250,-16.56468958
2.88300,-14.73352313
2.88350,-12.90235668
2.88400,-10.15560701
2.88450,-5.577690899
2.88500,-1.915358007
2.88550,-1.304969192
2.88600,-3.136135638
2.88650,-2.525746822
2.88700,-0.08419156075
2.88750,-0.08419156075
2.88800,-4.662107676
2.88850,-10.76599583
2.88900,-13.5127455
2.88950,-13.5127455
2.89000,-12.59716228
2.89050,-9.850412607
2.89100,-5.272496492
2.89150,-1.610163599
2.89200,-1.304969192
2.89250,-2.220552415
2.89300,-1.915358007
2.89350,-1.304969192
2.89400,-1.610163599
2.89450,-2.525746822
2.89500,-1.610163599
2.89550,-0.08419156075
2.89600,0.221002847
2.89650,0.5261972547
2.89700,1.441780478
2.89750,3.272946924
2.89800,5.409307778
2.89850,7.545668632
2.89900,9.682029486
2.89950,10.2924183
2.90000,9.987223893
2.90050,10.59761271
