type,name,time_units,begin_time,frequency,count,units
signal,"Noraxon MyoMotion-Joints-Elbow RT-Flexion","s",0.0000,200,5108,"deg"

time,value
0.0000,5.202949833
0.0050,5.207769634
0.0100,5.2125892
0.0150,5.217408532
0.0200,5.222684117
0.0250,5.228399126
0.0300,5.234531636
0.0350,5.241055939
0.0400,5.24794349
0.0450,5.255163915
0.0500,5.262685963
0.0550,5.270478026
0.0600,5.278508292
0.0650,5.286744327
0.0700,5.295151948
0.0750,5.303694514
0.0800,5.312333847
0.0850,5.321031637
0.0900,5.329749727
0.0950,5.338449623
0.1000,5.347091383
0.1050,5.355631577
0.1100,5.36402231
0.1150,5.372212768
0.1200,5.380151588
0.1250,5.387788605
0.1300,5.395075818
0.1350,5.401967964
0.1400,5.408423443
0.1450,5.41440554
0.1500,5.419883436
0.1550,5.430297778
0.1600,5.44007494
0.1650,5.449261277
0.1700,5.457668909
0.1750,5.465485948
0.1800,5.472651598
0.1850,5.479088686
0.1900,5.48496299
0.1950,5.490106693
0.2000,5.494611632
0.2050,5.498692267
0.2100,5.502087803
0.2150,5.50515689
0.2200,5.507746035
0.2250,5.509848364
0.2300,5.51156759
0.2350,5.513008861
0.2400,5.514179837
0.2450,5.514890306
0.2500,5.515673275
0.2550,5.516298137
0.2600,5.516785155
0.2650,5.517048281
0.2700,5.517306029
0.2750,5.517442632
0.2800,5.517765466
0.2850,5.518055612
0.2900,5.518323039
0.2950,5.518725387
0.3000,5.519082275
0.3050,5.5195149
0.3100,5.519835963
0.3150,5.520156884
0.3200,5.520312245
0.3250,5.520500364
0.3300,5.520821982
0.3350,5.521052635
0.3400,5.521331642
0.3450,5.521514164
0.3500,5.521608113
0.3550,5.521844715
0.3600,5.521872224
0.3650,5.521803395
0.3700,5.521710939
0.3750,5.52157421
0.3800,5.521412969
0.3850,5.521092637
0.3900,5.520440795
0.3950,5.519698123
0.4000,5.518996009
0.4050,5.517950346
0.4100,5.516769403
0.4150,5.515495919
0.4200,5.514012984
0.4250,5.512405677
0.4300,5.51048502
0.4350,5.508488231
0.4400,5.506309072
0.4450,5.503728454
0.4500,5.5010903
0.4550,5.498474067
0.4600,5.495653476
0.4650,5.492858745
0.4700,5.489982008
0.4750,5.487159722
0.4800,5.484087854
0.4850,5.481336317
0.4900,5.478469791
0.4950,5.475793283
0.5000,5.473036903
0.5050,5.470457488
0.5100,5.468117571
0.5150,5.465656038
0.5200,5.463374278
0.5250,5.461421035
0.5300,5.459456438
0.5350,5.457642406
0.5400,5.456120021
0.5450,5.454833312
0.5500,5.453643417
0.5550,5.45259017
0.5600,5.451521719
0.5650,5.450863521
0.5700,5.450447531
0.5750,5.450206261
0.5800,5.450060225
0.5850,5.450148082
0.5900,5.450420255
0.5950,5.450903985
0.6000,5.4515602
0.6050,5.452335481
0.6100,5.453255787
0.6150,5.454366967
0.6200,5.455811566
0.6250,5.457141297
0.6300,5.458543257
0.6350,5.460013968
0.6400,5.461682392
0.6450,5.463528976
0.6500,5.465313015
0.6550,5.467217613
0.6600,5.469120739
0.6650,5.471256967
0.6700,5.47351713
0.6750,5.475838368
0.6800,5.478315076
0.6850,5.480648262
0.6900,5.483011647
0.6950,5.485268669
0.7000,5.487424901
0.7050,5.489717147
0.7100,5.491931331
0.7150,5.494400254
0.7200,5.496703034
0.7250,5.498781972
0.7300,5.500890812
0.7350,5.502733434
0.7400,5.504480505
0.7450,5.50609409
0.7500,5.507396519
0.7550,5.508438322
0.7600,5.509613773
0.7650,5.510575222
0.7700,5.511631918
0.7750,5.512575147
0.7800,5.513615346
0.7850,5.51452953
0.7900,5.515565354
0.7950,5.516766929
0.8000,5.517995879
0.8050,5.519128922
0.8100,5.52020574
0.8150,5.521532988
0.8200,5.522691092
0.8250,5.523775357
0.8300,5.52480951
0.8350,5.525825635
0.8400,5.526926021
0.8450,5.528036573
0.8500,5.529224115
0.8550,5.530453974
0.8600,5.531826425
0.8650,5.532986345
0.8700,5.534144294
0.8750,5.53551591
0.8800,5.53689996
0.8850,5.538322566
0.8900,5.540115137
0.8950,5.541912033
0.9000,5.543952454
0.9050,5.546165073
0.9100,5.548479679
0.9150,5.550839576
0.9200,5.553361678
0.9250,5.556171632
0.9300,5.558982038
0.9350,5.561925426
0.9400,5.564699711
0.9450,5.567468578
0.9500,5.570313511
0.9550,5.572991117
0.9600,5.575771304
0.9650,5.578267075
0.9700,5.580750373
0.9750,5.583080195
0.9800,5.585044928
0.9850,5.587099243
0.9900,5.589259385
0.9950,5.591330098
1.0000,5.593235872
1.0050,5.595042869
1.0100,5.596752682
1.0150,5.598294957
1.0200,5.599937463
1.0250,5.601678326
1.0300,5.603293601
1.0350,5.604961045
1.0400,5.606521143
1.0450,5.60805316
1.0500,5.609506178
1.0550,5.610969761
1.0600,5.612070675
1.0650,5.613081411
1.0700,5.613869197
1.0750,5.614575012
1.0800,5.615464436
1.0850,5.616409991
1.0900,5.617267029
1.0950,5.618220458
1.1000,5.619510632
1.1050,5.620946279
1.1100,5.622768662
1.1150,5.624894661
1.1200,5.627486864
1.1250,5.63042716
1.1300,5.633788148
1.1350,5.637390567
1.1400,5.641225033
1.1450,5.645327545
1.1500,5.649778538
1.1550,5.654553209
1.1600,5.659635462
1.1650,5.665152773
1.1700,5.671102101
1.1750,5.677439935
1.1800,5.684413255
1.1850,5.692155296
1.1900,5.700626198
1.1950,5.710028702
1.2000,5.720474602
1.2050,5.732204497
1.2100,5.74556356
1.2150,5.760535882
1.2200,5.776778166
1.2250,5.79484467
1.2300,5.814585321
1.2350,5.835757307
1.2400,5.858385043
1.2450,5.882487881
1.2500,5.907812006
1.2550,5.93422875
1.2600,5.961536872
1.2650,5.989686588
1.2700,6.018240874
1.2750,6.047258597
1.2800,6.076696614
1.2850,6.106447515
1.2900,6.136563769
1.2950,6.167139557
1.3000,6.198269519
1.3050,6.229772823
1.3100,6.261688309
1.3150,6.294051538
1.3200,6.326997914
1.3250,6.360493646
1.3300,6.39484406
1.3350,6.429995332
1.3400,6.465884494
1.3450,6.503017919
1.3500,6.541154051
1.3550,6.58017715
1.3600,6.620457131
1.3650,6.66205427
1.3700,6.705002915
1.3750,6.749395093
1.3800,6.795298544
1.3850,6.842849318
1.3900,6.892461278
1.3950,6.943845115
1.4000,6.997299291
1.4050,7.053253762
1.4100,7.11149528
1.4150,7.172212667
1.4200,7.235505984
1.4250,7.301509002
1.4300,7.370473599
1.4350,7.442759466
1.4400,7.518306538
1.4450,7.597134255
1.4500,7.679306211
1.4550,7.764878017
1.4600,7.853884231
1.4650,7.946220224
1.4700,8.042270947
1.4750,8.141873294
1.4800,8.24507493
1.4850,8.351889565
1.4900,8.462346545
1.4950,8.576714865
1.5000,8.694958293
1.5050,8.817348409
1.5100,8.943640207
1.5150,9.074369551
1.5200,9.209694436
1.5250,9.349564611
1.5300,9.493992614
1.5350,9.643288915
1.5400,9.797392872
1.5450,9.956123423
1.5500,10.1195837
1.5550,10.28770469
1.5600,10.46056435
1.5650,10.63812191
1.5700,10.82024051
1.5750,11.0069357
1.5800,11.19804118
1.5850,11.39325155
1.5900,11.59205538
1.5950,11.79445518
1.6000,12.00010224
1.6050,12.20892516
1.6100,12.42080624
1.6150,12.63568449
1.6200,12.85340513
1.6250,13.07397234
1.6300,13.29723311
1.6350,13.52300995
1.6400,13.75162238
1.6450,13.98248767
1.6500,14.21596334
1.6550,14.45197554
1.6600,14.69035182
1.6650,14.93096258
1.6700,15.17370982
1.6750,15.41865578
1.6800,15.66553739
1.6850,15.9143282
1.6900,16.16488564
1.6950,16.41719977
1.7000,16.67128478
1.7050,16.9264807
1.7100,17.18306298
1.7150,17.44064551
1.7200,17.69912481
1.7250,17.95830807
1.7300,18.21816728
1.7350,18.47843403
1.7400,18.73896671
1.7450,18.99990512
1.7500,19.26099709
1.7550,19.52226679
1.7600,19.78395489
1.7650,20.04573662
1.7700,20.30756183
1.7750,20.56938532
1.7800,20.83138539
1.7850,21.09342925
1.7900,21.35559654
1.7950,21.61783107
1.8000,21.88030531
1.8050,22.14261873
1.8100,22.4051937
1.8150,22.66797624
1.8200,22.93100446
1.8250,23.19392818
1.8300,23.45731392
1.8350,23.72109024
1.8400,23.98524292
1.8450,24.24974849
1.8500,24.5146252
1.8550,24.77981925
1.8600,25.04527402
1.8650,25.31108192
1.8700,25.57725241
1.8750,25.84352771
1.8800,26.11014059
1.8850,26.3769182
1.8900,26.64405941
1.8950,26.91138121
1.9000,27.17911759
1.9050,27.44715314
1.9100,27.71550373
1.9150,27.98420901
1.9200,28.25328231
1.9250,28.52280744
1.9300,28.79257152
1.9350,29.06270663
1.9400,29.33282672
1.9450,29.6030806
1.9500,29.87348768
1.9550,30.14421426
1.9600,30.41526193
1.9650,30.68663102
1.9700,30.9581104
1.9750,31.22987368
1.9800,31.50155616
1.9850,31.77332255
1.9900,32.04512614
1.9950,32.31710728
2.0000,32.58908556
2.0050,32.86113996
2.0100,33.13335785
2.0150,33.40582118
2.0200,33.67891297
2.0250,33.95279179
2.0300,34.22735809
2.0350,34.50272539
2.0400,34.77906148
2.0450,35.0561056
2.0500,35.33416027
2.0550,35.61342641
2.0600,35.89358437
2.0650,36.17488057
2.0700,36.45700393
2.0750,36.74021869
2.0800,37.02449658
2.0850,37.30988944
2.0900,37.59634053
2.0950,37.8837918
2.1000,38.17250474
2.1050,38.46261729
2.1100,38.75397684
2.1150,39.04652487
2.1200,39.3403415
2.1250,39.63573117
2.1300,39.9324758
2.1350,40.23066629
2.1400,40.53066821
2.1450,40.83261363
2.1500,41.13682999
2.1550,41.44331076
2.1600,41.7519003
2.1650,42.06293039
2.1700,42.37636961
2.1750,42.69252615
2.1800,43.01087174
2.1850,43.33187078
2.1900,43.65563555
2.1950,43.98222504
2.2000,44.31176472
2.2050,44.64420305
2.2100,44.97956436
2.2150,45.31766186
2.2200,45.65840072
2.2250,46.00167592
2.2300,46.34722837
2.2350,46.69496661
2.2400,47.04511428
2.2450,47.39755312
2.2500,47.7521024
2.2550,48.10864066
2.2600,48.46735249
2.2650,48.82743551
2.2700,49.1895596
2.2750,49.55319105
2.2800,49.91868204
2.2850,50.28615183
2.2900,50.6553511
2.2950,51.02638972
2.3000,51.39918934
2.3050,51.77386894
2.3100,52.15053322
2.3150,52.52920786
2.3200,52.90964827
2.3250,53.29189452
2.3300,53.67615331
2.3350,54.06229066
2.3400,54.45051643
2.3450,54.84081455
2.3500,55.23300657
2.3550,55.6268854
2.3600,56.022927
2.3650,56.42129037
2.3700,56.82201305
2.3750,57.22480355
2.3800,57.6296299
2.3850,58.0366011
2.3900,58.44527046
2.3950,58.85610401
2.4000,59.26858768
2.4050,59.68312024
2.4100,60.09952855
2.4150,60.5180026
2.4200,60.93897228
2.4250,61.36196498
2.4300,61.78768804
2.4350,62.21601235
2.4400,62.64662632
2.4450,63.07993533
2.4500,63.51548576
2.4550,63.95355314
2.4600,64.39414813
2.4650,64.8369594
2.4700,65.28202035
2.4750,65.728895
2.4800,66.17801934
2.4850,66.62920008
2.4900,67.08222685
2.4950,67.5369894
2.5000,67.99331471
2.5050,68.45141121
2.5100,68.91063677
2.5150,69.37134347
2.5200,69.83306385
2.5250,70.29584828
2.5300,70.76016113
2.5350,71.22606328
2.5400,71.69385592
2.5450,72.16332904
2.5500,72.63438938
2.5550,73.10747923
2.5600,73.582546
2.5650,74.06035946
2.5700,74.54060317
2.5750,75.02375619
2.5800,75.50922742
2.5850,75.99727009
2.5900,76.4877784
2.5950,76.98032772
2.6000,77.47516225
2.6050,77.97253598
2.6100,78.47201631
2.6150,78.97386713
2.6200,79.47808433
2.6250,79.98405507
2.6300,80.49157918
2.6350,81.0011193
2.6400,81.51228785
2.6450,82.02515953
2.6500,82.54008889
2.6550,83.05733515
2.6600,83.57665647
2.6650,84.09773803
2.6700,84.62030409
2.6750,85.14442609
2.6800,85.67034089
2.6850,86.19723334
2.6900,86.72554633
2.6950,87.25455446
2.7000,87.7844006
2.7050,88.31480863
2.7100,88.84556586
2.7150,89.37629047
2.7200,89.90685229
2.7250,90.43809092
2.7300,90.96910173
2.7350,91.50010926
2.7400,92.03108887
2.7450,92.56164108
2.7500,93.09186894
2.7550,93.6212488
2.7600,94.15037355
2.7650,94.67878886
2.7700,95.20665093
2.7750,95.73403055
2.7800,96.26127148
2.7850,96.78836267
2.7900,97.31466673
2.7950,97.84012218
2.8000,98.3649343
2.8050,98.888981
2.8100,99.41214858
2.8150,99.93396956
2.8200,100.4542427
2.8250,100.9731132
2.8300,101.4903339
2.8350,102.0062378
2.8400,102.5202429
2.8450,103.0319651
2.8500,103.5415545
2.8550,104.0492294
2.8600,104.5544671
2.8650,105.0571751
2.8700,105.5570243
2.8750,106.0534177
2.8800,106.5467767
2.8850,107.0369533
2.8900,107.5235181
2.8950,108.0063398
2.9000,108.4864697
2.9050,108.962909
2.9100,109.4352871
2.9150,109.9035937
2.9200,110.3678737
2.9250,110.8278176
2.9300,111.2834782
2.9350,111.7350429
2.9400,112.1821028
2.9450,112.6250494
2.9500,113.0633456
2.9550,113.4965183
2.9600,113.9247261
2.9650,114.3482537
2.9700,114.7673118
2.9750,115.1819171
2.9800,115.5920901
2.9850,115.9984941
2.9900,116.4013781
2.9950,116.8011899
3.0000,117.1977016
3.0050,117.5908884
3.0100,117.9809645
3.0150,118.3686946
3.0200,118.7533487
3.0250,119.1352771
3.0300,119.5146541
3.0350,119.8914006
3.0400,120.2658977
3.0450,120.6385134
3.0500,121.0092103
3.0550,121.3785043
3.0600,121.7462544
3.0650,122.1127541
3.0700,122.4785304
3.0750,122.843421
3.0800,123.2076012
3.0850,123.5707464
3.0900,123.9332809
3.0950,124.2951327
3.1000,124.6553645
3.1050,125.0141372
3.1100,125.3716004
3.1150,125.7267233
3.1200,126.0797055
3.1250,126.4302581
3.1300,126.7779271
3.1350,127.1217131
3.1400,127.4612647
3.1450,127.7966348
3.1500,128.1271961
3.1550,128.4528034
3.1600,128.773224
3.1650,129.0889661
3.1700,129.3995524
3.1750,129.7056231
3.1800,130.0075904
3.1850,130.3047954
3.1900,130.5979198
3.1950,130.8877335
3.2000,131.1734318
3.2050,131.4561241
3.2100,131.735733
3.2150,132.0125588
3.2200,132.286222
3.2250,132.5571699
3.2300,132.8257209
3.2350,133.0915832
3.2400,133.3547149
3.2450,133.6150508
3.2500,133.8731978
3.2550,134.1289059
3.2600,134.3818225
3.2650,134.6317957
3.2700,134.8789389
3.2750,135.1232598
3.2800,135.3649042
3.2850,135.6037537
3.2900,135.8394323
3.2950,136.0722685
3.3000,136.3021791
3.3050,136.5293936
3.3100,136.7541527
3.3150,136.9764434
3.3200,137.1967749
3.3250,137.4152627
3.3300,137.6316027
3.3350,137.8465996
3.3400,138.0601991
3.3450,138.2723279
3.3500,138.482982
3.3550,138.6918026
3.3600,138.8988758
3.3650,139.1041755
3.3700,139.3069304
3.3750,139.5074885
3.3800,139.705668
3.3850,139.9014971
3.3900,140.0947181
3.3950,140.2852581
3.4000,140.4735087
3.4050,140.6588656
3.4100,140.841285
3.4150,141.0211191
3.4200,141.1983918
3.4250,141.3729127
3.4300,141.5446643
3.4350,141.7137866
3.4400,141.8803357
3.4450,142.0445834
3.4500,142.2075924
3.4550,142.3688022
3.4600,142.5288379
3.4650,142.6871678
3.4700,142.8441997
3.4750,143.0000017
3.4800,143.1544559
3.4850,143.3078629
3.4900,143.4604021
3.4950,143.6115894
3.5000,143.7610924
3.5050,143.9093206
3.5100,144.0559582
3.5150,144.2011676
3.5200,144.344987
3.5250,144.4872716
3.5300,144.6281695
3.5350,144.7671689
3.5400,144.9044236
3.5450,145.0398663
3.5500,145.1732109
3.5550,145.304142
3.5600,145.4327367
3.5650,145.5586774
3.5700,145.6818517
3.5750,145.802175
3.5800,145.9195435
3.5850,146.0337993
3.5900,146.1452457
3.5950,146.2532922
3.6000,146.3582539
3.6050,146.4602244
3.6100,146.5594715
3.6150,146.6562587
3.6200,146.750694
3.6250,146.8423118
3.6300,146.9317211
3.6350,147.0184386
3.6400,147.1022475
3.6450,147.182903
3.6500,147.2605614
3.6550,147.3353808
3.6600,147.4077027
3.6650,147.4774806
3.6700,147.5448153
3.6750,147.6100693
3.6800,147.6733542
3.6850,147.7344718
3.6900,147.7939037
3.6950,147.8517704
3.7000,147.9084711
3.7050,147.9644177
3.7100,148.0198215
3.7150,148.0748098
3.7200,148.1293351
3.7250,148.183992
3.7300,148.2391729
3.7350,148.2953149
3.7400,148.3530104
3.7450,148.4122969
3.7500,148.4727994
3.7550,148.5346268
3.7600,148.5977748
3.7650,148.6623526
3.7700,148.72858
3.7750,148.7961953
3.7800,148.8649613
3.7850,148.9350588
3.7900,149.0058975
3.7950,149.0776839
3.8000,149.1504234
3.8050,149.2234453
3.8100,149.2963792
3.8150,149.3691371
3.8200,149.4415928
3.8250,149.5132626
3.8300,149.5840176
3.8350,149.6539632
3.8400,149.7230031
3.8450,149.7907533
3.8500,149.8571579
3.8550,149.9222949
3.8600,149.985682
3.8650,150.0476915
3.8700,150.1078827
3.8750,150.1664
3.8800,150.2231906
3.8850,150.2784882
3.8900,150.3320305
3.8950,150.3843595
3.9000,150.4357235
3.9050,150.4855741
3.9100,150.5339875
3.9150,150.5805379
3.9200,150.6249859
3.9250,150.6679817
3.9300,150.7087636
3.9350,150.7478025
3.9400,150.7854434
3.9450,150.821782
3.9500,150.8571159
3.9550,150.8911395
3.9600,150.9234943
3.9650,150.9544702
3.9700,150.9843816
3.9750,151.0127396
3.9800,151.0395974
3.9850,151.0656963
3.9900,151.0905857
3.9950,151.1143753
4.0000,151.1368204
4.0050,151.1580985
4.0100,151.1782506
4.0150,151.1972728
4.0200,151.2156175
4.0250,151.2327467
4.0300,151.2484289
4.0350,151.2632521
4.0400,151.2766124
4.0450,151.2885681
4.0500,151.2996381
4.0550,151.3096721
4.0600,151.3188192
4.0650,151.327032
4.0700,151.3342029
4.0750,151.3402657
4.0800,151.3454306
4.0850,151.3496346
4.0900,151.3532766
4.0950,151.3559143
4.1000,151.3577613
4.1050,151.3590092
4.1100,151.3599836
4.1150,151.3608958
4.1200,151.3614664
4.1250,151.3624584
4.1300,151.3631118
4.1350,151.3635175
4.1400,151.3633931
4.1450,151.3629582
4.1500,151.362127
4.1550,151.3607318
4.1600,151.3588139
4.1650,151.3563056
4.1700,151.3534613
4.1750,151.3503546
4.1800,151.3466303
4.1850,151.3423674
4.1900,151.3377137
4.1950,151.3323496
4.2000,151.3262762
4.2050,151.3197114
4.2100,151.312773
4.2150,151.3055812
4.2200,151.2987142
4.2250,151.2916247
4.2300,151.2844863
4.2350,151.2772304
4.2400,151.2695728
4.2450,151.2617527
4.2500,151.2532376
4.2550,151.2441639
4.2600,151.2343164
4.2650,151.2238282
4.2700,151.2121971
4.2750,151.1997872
4.2800,151.1863503
4.2850,151.1718913
4.2900,151.156555
4.2950,151.1404461
4.3000,151.1234854
4.3050,151.1057528
4.3100,151.0872658
4.3150,151.0684501
4.3200,151.0489796
4.3250,151.0289212
4.3300,151.0086012
4.3350,150.9875656
4.3400,150.9663339
4.3450,150.9446185
4.3500,150.9223019
4.3550,150.8994424
4.3600,150.8757354
4.3650,150.8509844
4.3700,150.8251355
4.3750,150.7983844
4.3800,150.7708666
4.3850,150.7421035
4.3900,150.7123194
4.3950,150.6814155
4.4000,150.6495716
4.4050,150.6167225
4.4100,150.5829283
4.4150,150.548318
4.4200,150.5130198
4.4250,150.476816
4.4300,150.4404241
4.4350,150.4040057
4.4400,150.367644
4.4450,150.3317166
4.4500,150.2957292
4.4550,150.2600481
4.4600,150.2249955
4.4650,150.1902325
4.4700,150.1560544
4.4750,150.1223947
4.4800,150.0893852
4.4850,150.0567427
4.4900,150.0243922
4.4950,149.9927548
4.5000,149.9615717
4.5050,149.9310776
4.5100,149.9009078
4.5150,149.8710584
4.5200,149.8415667
4.5250,149.8125309
4.5300,149.7842982
4.5350,149.7566273
4.5400,149.729699
4.5450,149.7034195
4.5500,149.6776024
4.5550,149.6522212
4.5600,149.6276606
4.5650,149.6034116
4.5700,149.5800955
4.5750,149.5571873
4.5800,149.5348022
4.5850,149.5127482
4.5900,149.4909855
4.5950,149.469173
4.6000,149.4473552
4.6050,149.4256577
4.6100,149.4038154
4.6150,149.3816077
4.6200,149.3589265
4.6250,149.3362994
4.6300,149.3138961
4.6350,149.2911917
4.6400,149.2683867
4.6450,149.245534
4.6500,149.2225893
4.6550,149.1995152
4.6600,149.1768623
4.6650,149.154639
4.6700,149.1325479
4.6750,149.1106862
4.6800,149.0886423
4.6850,149.0665325
4.6900,149.0442184
4.6950,149.0219523
4.7000,148.9995947
4.7050,148.9772198
4.7100,148.9549899
4.7150,148.9327689
4.7200,148.9107897
4.7250,148.8891068
4.7300,148.8679636
4.7350,148.8472374
4.7400,148.8271232
4.7450,148.806905
4.7500,148.7872385
4.7550,148.7678705
4.7600,148.7491558
4.7650,148.7307499
4.7700,148.7126769
4.7750,148.6948921
4.7800,148.6776946
4.7850,148.6610315
4.7900,148.6451022
4.7950,148.6293944
4.8000,148.6141395
4.8050,148.5992168
4.8100,148.5846317
4.8150,148.571066
4.8200,148.5577805
4.8250,148.5447483
4.8300,148.5323531
4.8350,148.5207221
4.8400,148.5092879
4.8450,148.4983703
4.8500,148.4880359
4.8550,148.4781943
4.8600,148.4689553
4.8650,148.4598625
4.8700,148.4508925
4.8750,148.4418875
4.8800,148.4332175
4.8850,148.4244025
4.8900,148.415235
4.8950,148.405903
4.9000,148.3960767
4.9050,148.3855641
4.9100,148.374261
4.9150,148.362106
4.9200,148.3494004
4.9250,148.33577
4.9300,148.3208234
4.9350,148.3051326
4.9400,148.2878133
4.9450,148.2697918
4.9500,148.2503597
4.9550,148.2294655
4.9600,148.2067723
4.9650,148.1824058
4.9700,148.156377
4.9750,148.1288093
4.9800,148.0997776
4.9850,148.0696566
4.9900,148.0382785
4.9950,148.0054843
5.0000,147.9708451
5.0050,147.9345461
5.0100,147.8962101
5.0150,147.8559441
5.0200,147.8131198
5.0250,147.7673331
5.0300,147.7182991
5.0350,147.6657251
5.0400,147.6093136
5.0450,147.5495561
5.0500,147.4860078
5.0550,147.4187157
5.0600,147.3467967
5.0650,147.2709674
5.0700,147.1906755
5.0750,147.1057222
5.0800,147.0160145
5.0850,146.9212723
5.0900,146.8209448
5.0950,146.7147524
5.1000,146.6026457
5.1050,146.4847109
5.1100,146.3610932
5.1150,146.2312073
5.1200,146.0954816
5.1250,145.9541046
5.1300,145.8072241
5.1350,145.6540375
5.1400,145.4951614
5.1450,145.3301814
5.1500,145.1591744
5.1550,144.9820389
5.1600,144.7985758
5.1650,144.6089175
5.1700,144.4126559
5.1750,144.2104152
5.1800,144.0013245
5.1850,143.7862444
5.1900,143.5652037
5.1950,143.3384969
5.2000,143.1060465
5.2050,142.8679388
5.2100,142.6244976
5.2150,142.3758307
5.2200,142.1218616
5.2250,141.8620824
5.2300,141.5970069
5.2350,141.32567
5.2400,141.0484958
5.2450,140.7645913
5.2500,140.4748745
