type,name,time_units,begin_time,frequency,count,units
signal_3d,"Noraxon MyoMotion-Segments-Forearm RT-Acceleration","s",0.0000,200,5108,"mG"

time,x,y,z
0.0000,4.467502887,0.1801767083,-2.073751198
0.0050,3.637829718,9.819625689,-8.765964729
0.0100,11.81932036,10.49700014,2.885222169
0.0150,13.91840101,10.46914441,-3.310824972
0.0200,16.11277879,-0.3668945467,-2.896868544
0.0250,12.43004098,12.69706325,-6.626415317
0.0300,9.147829564,-10.22303426,-2.145128245
0.0350,7.961367286,0.3611791441,-2.11132684
0.0400,9.07097981,10.30704802,3.503895272
0.0450,17.48720392,7.371000908,-0.9609919491
0.0500,5.262073053,10.6240084,3.142836577
0.0550,6.257717236,-2.233047658,-3.635716664
0.0600,-0.3732907412,6.601523691,-5.21869704
0.0650,12.50332993,-0.5552660362,0.4884001146
0.0700,-0.2181610061,-2.387194499,-6.196876566
0.0750,-2.052842702,-4.056379026,-5.669775129
0.0800,5.335403283,-3.78900995,-5.484075217
0.0850,-2.697815761,3.553145638,-11.13588891
0.0900,13.27739739,-1.883032877,-0.001464255423
0.0950,15.60120365,-9.919223619,-5.14957789
0.1000,13.42406221,-12.09796698,-7.206985109
0.1050,15.5990445,-17.78637068,-4.919049684
0.1100,11.52958477,0.7042032349,-6.568863203
0.1150,9.674714948,6.154934513,-10.29371161
0.1200,10.82092705,-7.742537131,-3.350692614
0.1250,3.69651039,-9.329374822,-4.679347526
0.1300,10.93066463,10.29547263,-3.533851454
0.1350,10.9241132,5.085789511,-6.901598285
0.1400,12.02824084,7.382672507,0.420549693
0.1450,9.633382661,12.7309928,-9.778511713
0.1500,12.0039021,14.55206728,-3.199279302
0.1550,7.880467312,-10.2161613,-7.544874464
0.1600,15.00683021,4.985041516,-4.695928201
0.1650,10.67436751,-6.248391378,-12.10043378
0.1700,13.11416871,-5.083559477,-5.666303694
0.1750,14.12981523,-10.83045767,-2.791891083
0.1800,-4.15657611,7.788826167,-10.07830395
0.1850,6.326472787,1.6250549,-7.486466065
0.1900,5.804678148,-4.994777374,-5.0734189
0.1950,7.430469906,4.340314957,-9.543730984
0.2000,2.920903299,-1.89400269,-8.571985175
0.2050,13.55256023,-1.950356762,-4.404868117
0.2100,22.65917367,6.01278065,2.383591584
0.2150,5.163311571,-5.904007079,-17.00992477
0.2200,8.73660991,2.156625435,-8.493450139
0.2250,12.58241159,-0.04470693619,-8.884202336
0.2300,10.08394661,-4.492078829,-12.34777366
0.2350,8.413590848,-0.5684697547,-12.90702806
0.2400,14.95002767,3.829072849,-6.431031905
0.2450,10.10421928,-1.771130067,-3.320649267
0.2500,7.136420587,0.381784491,-7.01362403
0.2550,7.523220777,11.78998756,-4.516599109
0.2600,11.76096071,-2.6041016,-2.163676691
0.2650,16.06951121,0.4417744834,-3.167509107
0.2700,13.67561251,-5.429622593,-8.405977679
0.2750,16.23763015,-6.996072543,-0.9974642093
0.2800,11.79299088,-2.945000624,-4.693878843
0.2850,11.2863356,-11.7195067,-10.21805672
0.2900,15.49684293,7.423296547,-2.774917655
0.2950,13.50300734,-9.913552815,1.361996755
0.3000,10.05190766,-0.6161067268,-0.02806084626
0.3050,16.08185498,2.765040584,3.806994846
0.3100,11.08578677,3.295140959,4.549050866
0.3150,9.613604027,4.808720686,-2.509241123
0.3200,6.621560764,4.109577663,-2.752603901
0.3250,11.40615061,-0.2570397572,-1.675215707
0.3300,16.01567386,0.9335191171,-0.5535825591
0.3350,11.56249053,-4.061226458,-9.385753472
0.3400,21.78263945,5.12186874,-6.577926014
0.3450,11.90100959,-20.05269467,-6.335254958
0.3500,16.06944163,5.355077628,-9.283884887
0.3550,17.66564705,-3.901750551,-8.679841496
0.3600,20.66217917,-3.047397002,-9.393056426
0.3650,17.14066059,-1.860964094,-13.72720965
0.3700,14.44226335,-1.803293573,-16.38805148
0.3750,13.19716068,-1.905768458,-14.26375939
0.3800,9.173326226,-0.4157674061,-10.97414532
0.3850,4.222266327,8.711144714,-17.21295932
0.3900,0.5578787846,-4.11520001,-11.56090776
0.3950,-4.885943204,3.278827002,-11.52881382
0.4000,7.778344157,10.09033598,2.0421385
0.4050,0.9617301356,0.6549246132,3.729223121
0.4100,9.337373116,12.76344508,11.32406987
0.4150,8.392581568,11.34784188,5.151527846
0.4200,6.482797229,17.23663542,12.93866968
0.4250,-0.1092308983,10.43794733,0.5474949082
0.4300,12.46563313,17.04450791,6.10831186
0.4350,13.61859478,4.896998686,0.7416260098
0.4400,11.37448831,-0.1899503377,-1.900309622
0.4450,12.56358005,-6.316229751,-4.168541177
0.4500,3.281166679,3.381886815,-8.754922731
0.4550,8.702171579,-0.4466897324,-5.657039738
0.4600,-0.2377923804,5.741858485,-13.93460517
0.4650,5.169262157,0.6433191687,-8.081645433
0.4700,9.315294403,1.175938106,-5.019358474
0.4750,9.900808266,-3.535125774,-7.47200719
0.4800,5.21843179,7.093754241,-6.512063765
0.4850,15.66788315,8.162432734,0.3135814989
0.4900,4.051430647,5.112518217,-2.253864098
0.4950,14.9944602,3.915612873,-0.91264512
0.5000,11.4475924,7.553130907,-9.325467534
0.5050,11.20306021,-3.070700203,-9.203342662
0.5100,3.488681676,4.284313897,-13.94047065
0.5150,7.940990091,-4.080983714,-9.017876783
0.5200,-2.716484994,-4.017227473,-13.65333972
0.5250,6.023925168,-12.19308725,-4.711494494
0.5300,12.39292308,-4.957490274,-2.246192015
0.5350,15.54935227,-7.911199046,-1.694280865
0.5400,12.92022765,-10.22693357,6.213690096
0.5450,0.2513894564,-2.525468211,4.213751661
0.5500,7.202448862,-2.829645483,9.262678198
0.5550,-2.670343205,8.306615368,3.510356
0.5600,3.337261688,2.339616685,5.179857119
0.5650,-6.050158722,1.841496637,5.285865802
0.5700,-8.867419412,2.483185707,-2.232380895
0.5750,-1.612914451,-0.7412645049,2.757892862
0.5800,11.48603484,7.125168363,4.971984306
0.5850,14.1130452,-2.916731724,3.858145595
0.5900,10.01741452,1.929306174,-2.75150045
0.5950,8.971891472,-6.859756639,-5.667652932
0.6000,13.62627124,0.7773719314,-1.42488824
0.6050,6.78889997,-16.9135627,-6.172174904
0.6100,10.75058802,-12.34703436,-4.864145838
0.6150,1.443490608,-5.500893528,-11.95974262
0.6200,10.92146376,-1.862177636,-5.535286103
0.6250,6.57807113,-4.832117215,-7.511265878
0.6300,4.086292602,-3.43718795,-4.440581164
0.6350,9.525711209,3.262875323,-2.96749794
0.6400,4.309423353,-1.778187979,-2.673522816
0.6450,-0.98125502,11.60377779,-6.646163512
0.6500,6.5035074,-0.2699853739,3.306560025
0.6550,2.838252527,3.015938572,-0.633790932
0.6600,5.171327752,6.371876143,-3.886199416
0.6650,9.53070545,10.14713964,3.701767215
0.6700,11.31931064,-1.501601932,4.444751505
0.6750,12.00827293,0.3894063869,1.167873194
0.6800,13.27783747,12.88049117,-3.311553099
0.6850,9.117838216,-11.52642621,-7.530906243
0.6900,6.91500271,8.318881149,-10.26665197
0.6950,10.72711892,-19.37496655,-3.108222655
0.7000,4.735982932,-6.659123253,1.387936122
0.7050,-3.092135059,7.383877424,-3.141782819
0.7100,1.619541771,-0.9543377537,9.799527712
0.7150,-13.11363463,6.143910558,1.995407471
0.7200,-2.707468824,20.19401432,4.080057432
0.7250,-5.986747312,4.47973104,-3.230126151
0.7300,-6.071826665,14.55234757,4.030347591
0.7350,6.095831888,6.060059821,3.93511781
0.7400,2.414476372,15.42168645,3.533798038
0.7450,10.73135723,-4.421817143,3.960392477
0.7500,7.128572809,5.667811991,2.176553214
0.7550,9.629062033,4.133174645,1.576665717
0.7600,8.260829244,2.254908587,1.417043997
0.7650,8.474095156,12.92802381,2.194000006
0.7700,15.9472105,5.658875908,5.91875134
0.7750,5.377732914,9.37945041,-3.037929379
0.7800,3.728245872,3.70772679,3.183903833
0.7850,2.141180649,12.60188799,-2.068073206
0.7900,9.989037988,12.46836286,2.335853201
0.7950,12.26474111,7.644973649,-0.3178698972
0.8000,1.835410279,7.357986771,-2.983157042
0.8050,10.87256972,-0.454273239,12.91604079
0.8100,-1.404584102,17.7402452,-3.300784622
0.8150,1.024923629,10.73159848,-2.850476729
0.8200,-3.549342064,7.447577045,-2.31850486
0.8250,7.467762548,7.909507807,2.779518751
0.8300,5.376543289,8.557523621,-2.862664617
0.8350,19.56894767,5.647161411,-3.309473887
0.8400,14.78085201,-2.958090038,-3.153174872
0.8450,14.5321621,1.514431591,-2.872586106
0.8500,4.897189599,13.15323436,-5.588439342
0.8550,9.747203323,0.9622381689,-1.342646707
0.8600,6.161710567,8.939519867,-0.9996441572
0.8650,13.56337589,17.20034354,2.868056348
0.8700,-0.8918706072,7.506987171,-0.3476396303
0.8750,11.01259873,14.00030418,0.1304310971
0.8800,15.54866075,12.46862612,-3.259857216
0.8850,6.84402484,2.453528425,-3.321168035
0.8900,12.27693594,0.1704678575,-3.459752317
0.8950,14.97497863,4.325247433,-1.156287963
0.9000,15.73933702,4.533927006,-0.2446785572
0.9050,12.49038602,0.008750768871,0.4474887248
0.9100,3.444775755,-1.782722955,-0.1517770491
0.9150,-0.8847077814,7.904869713,-1.925220289
0.9200,4.64387048,6.738269049,1.127692989
0.9250,0.1394588964,4.874786206,3.902241967
0.9300,-4.02668492,7.957683282,-1.52604319
0.9350,3.873716928,-3.16265185,4.524142763
0.9400,-2.970273176,6.785758569,0.1531558243
0.9450,5.826121114,13.99500677,-2.36096945
0.9500,-0.9745275029,3.841435358,0.3672310402
0.9550,6.916048015,10.35197099,2.374084412
0.9600,5.997442637,14.58835535,2.211926028
0.9650,8.756015643,6.138685441,0.9192028172
0.9700,20.48471038,7.92513196,10.11849735
0.9750,13.10893082,7.026155145,-0.5226101178
0.9800,12.88135342,12.44937051,5.416859335
0.9850,17.72240251,1.863009896,13.48911533
0.9900,6.81438811,9.107763849,1.181418461
0.9950,7.221955392,0.2631450426,2.157976207
1.0000,4.658561833,5.761163684,1.931799495
1.0050,-4.086007392,4.105861663,-5.665944007
1.0100,-4.102918807,4.476459294,6.388919432
1.0150,-7.962475616,9.209900346,-1.27989821
1.0200,-4.169743228,1.049222068,4.347584092
1.0250,5.058291061,-0.6182694358,7.808724323
1.0300,4.001535135,4.460683138,5.308175193
1.0350,7.772826298,2.225480954,-1.041618662
1.0400,17.72365415,0.8586638075,-3.108521655
1.0450,31.38973874,-1.335605965,2.147134295
1.0500,20.68603338,-6.132629198,-4.168919759
1.0550,25.53854042,3.892331584,-1.637505055
1.0600,15.85397688,-4.036331809,3.359329821
1.0650,16.96425974,3.393884227,3.488847302
1.0700,11.60210995,2.570445743,-0.8875856108
1.0750,5.921225273,6.499814215,-8.420665669
1.0800,10.79468963,8.227761327,0.2308006405
1.0850,10.34022191,-1.964085724,-0.8956194229
1.0900,13.24663564,12.08545195,-2.917564339
1.0950,16.03374668,13.08338459,-3.098308932
1.1000,15.67240866,3.289295234,-4.653984346
1.1050,14.3976255,8.278799053,-1.102449079
1.1100,0.4801233693,-3.046458201,-7.061486371
1.1150,2.997398895,-3.455384744,1.57485431
1.1200,3.610800228,9.795460613,0.7364264294
1.1250,4.542935561,11.9886614,2.497010966
1.1300,0.8263799743,8.851141598,-2.94636111
1.1350,12.08542374,-5.134550159,0.6575584483
1.1400,11.35062632,3.376743579,4.731404785
1.1450,11.23199029,1.596601781,1.968968411
1.1500,6.309282512,3.266167181,-8.015415432
1.1550,16.18578989,6.689407409,0.2065075395
1.1600,10.06401589,10.61998539,-2.206240195
1.1650,12.66727166,4.946308007,5.004918724
1.1700,12.34116246,0.3640833133,3.817262203
1.1750,14.85786661,7.418334639,3.190703543
1.1800,11.4469321,5.507562168,-5.10934711
1.1850,4.406939651,5.127723979,-7.652685012
1.1900,-1.961215748,-1.327707037,4.205618835
1.1950,2.580185359,1.000386836,9.97738174
1.2000,-3.913694535,1.431596156,7.058050154
1.2050,-2.577137336,-6.670980743,8.022492064
1.2100,0.3976714675,-5.081299909,6.928053323
1.2150,0.2230878441,-12.31030448,0.3094398651
1.2200,13.66035024,-19.24770375,5.315178205
1.2250,30.21220185,-14.87180757,12.29322208
1.2300,11.00605897,-28.08469974,1.000222565
1.2350,18.5936154,-8.54849083,0.3925302577
1.2400,14.61695263,-7.827245644,-3.186546788
1.2450,14.06776947,8.108858953,-8.143304693
1.2500,0.9398450179,5.033108795,-12.45119671
1.2550,19.51230899,2.401106012,-1.44396125
1.2600,20.27432108,-4.347214187,5.052044673
1.2650,21.73425906,-6.245288396,13.74009448
1.2700,21.73208323,3.354686334,15.6562093
1.2750,9.211948805,-4.53256515,7.450115843
1.2800,0.1306024522,4.216981769,10.13830057
1.2850,-2.190911105,5.887684232,10.53181217
1.2900,-8.690948045,13.33339358,10.59339615
1.2950,-23.05249979,1.812713091,3.051547185
1.3000,-40.84760514,18.42874984,4.056003738
1.3050,-44.58618694,11.31678331,7.687803445
1.3100,-53.42800172,22.91726328,2.412899936
1.3150,-54.19507919,17.90147324,-1.089598626
1.3200,-56.13193606,16.14971417,-0.2434930462
1.3250,-55.49001286,13.48320326,4.487534607
1.3300,-53.42717189,27.41145277,-2.029694561
1.3350,-53.94462485,23.69797737,-18.85171139
1.3400,-48.47611476,8.96516432,-26.54883454
1.3450,-22.91113628,7.216003768,-23.84311098
1.3500,-19.88725877,10.09914765,-19.4350391
1.3550,-7.899652958,-4.254644233,-9.122096048
1.3600,6.314500023,19.0015007,7.543173349
1.3650,14.51682731,2.105032041,7.864959768
1.3700,36.05254326,10.87050182,11.43859415
1.3750,37.67491395,2.99011016,14.02639413
1.3800,24.95115939,12.24015406,11.29994756
1.3850,13.4233677,24.01500091,5.302829483
1.3900,-13.73903885,18.66603115,3.727153525
1.3950,-29.14050948,36.44585852,-2.295741615
1.4000,-42.44946804,28.10882156,-2.850410825
1.4050,-47.48655067,26.14326271,-7.285997834
1.4100,-41.41956308,28.68748426,1.666414029
1.4150,-51.32242484,18.15723619,2.200499782
1.4200,-59.36001104,10.05620936,2.917533387
1.4250,-58.42436782,21.12206664,-2.634074816
1.4300,-55.33553218,17.16496971,3.326148526
1.4350,-55.76880991,3.575917499,8.235683982
1.4400,-68.23610536,11.77260357,15.29375019
1.4450,-46.50111496,19.93505838,26.42219169
1.4500,-41.96782062,23.12723942,34.12368543
1.4550,-38.08291102,25.55699726,35.2021307
1.4600,-18.40888237,43.79652027,43.05759729
1.4650,-5.0451997,29.23760065,36.17351606
1.4700,29.96073548,27.52925582,41.59744994
1.4750,46.17938337,18.89124866,43.1460841
1.4800,41.07807844,15.36707803,45.45166537
1.4850,28.2314351,19.24160757,46.51535284
1.4900,30.43738021,56.25003187,49.92030144
1.4950,-1.36045663,44.2775512,40.77973662
1.5000,-6.351350807,56.13911142,39.94622021
1.5050,-18.18327603,58.71065831,27.72668129
1.5100,-20.91185574,61.34182115,32.84866801
1.5150,-44.38451246,44.33219403,20.72238096
1.5200,-51.63991353,39.39762824,15.39149546
1.5250,-51.80008825,33.62829051,8.647774678
1.5300,-56.18582568,26.23110883,4.252481059
1.5350,-47.83861374,25.51883192,9.903838452
1.5400,-50.57007186,27.58764954,5.813458597
1.5450,-52.19579148,11.83267564,7.805495326
1.5500,-53.22678502,23.07505741,9.666554853
1.5550,-46.96550706,41.13973494,17.35464975
1.5600,-55.68612429,40.3359974,18.90019373
1.5650,-39.00963355,29.28809166,31.96153887
1.5700,-39.09347767,41.810106,37.49032596
1.5750,-37.99621602,39.09566412,40.12190189
1.5800,-37.87209109,48.255221,39.71892703
1.5850,-30.14845601,48.7096597,44.87146426
1.5900,-35.22870353,47.95311514,49.15891331
1.5950,-24.76181642,45.91455169,50.68992783
1.6000,-43.6382737,31.20440908,42.05107407
1.6050,-53.15721817,38.61926764,44.65335565
1.6100,-67.5833098,52.70420571,48.30343726
1.6150,-80.19422633,48.79919642,55.99869201
1.6200,-90.49581352,37.37859929,52.97312871
1.6250,-77.29387737,35.14465782,58.74263438
1.6300,-73.62962926,38.91712787,57.44910182
1.6350,-63.66564055,23.59838173,56.99452796
1.6400,-62.09917704,25.04051978,50.97528852
1.6450,-45.01561805,18.37884603,43.92029035
1.6500,-47.86291486,8.644850453,44.59576949
1.6550,-45.47776657,13.58372162,42.67030982
1.6600,-30.08258302,21.287206,48.6573589
1.6650,-41.75880834,23.8106976,47.7900162
1.6700,-43.41521033,22.28886664,55.88181697
1.6750,-26.64374038,14.75981694,57.59202604
1.6800,-30.85283973,29.55347002,52.07899026
1.6850,-27.74267045,17.61396996,49.22046548
1.6900,-26.92602478,31.54782513,45.808008
1.6950,-23.00811937,22.64583494,46.34680622
1.7000,-11.49278681,22.842379,54.13006995
1.7050,-10.47504841,18.21440092,51.89905688
1.7100,-8.924693021,29.20076069,52.55334948
1.7150,-4.823152972,16.96376359,47.68993906
1.7200,-7.208071855,14.57286914,48.23253253
1.7250,-4.233161516,22.42087436,46.60934737
1.7300,-0.1456409058,22.57713973,41.02317822
1.7350,14.12007923,24.36408568,36.65961488
1.7400,3.805772294,12.7007616,31.75418778
1.7450,10.32620854,6.840550008,36.52098256
1.7500,10.84660943,17.33129869,41.71067674
1.7550,14.98059361,5.353939846,37.73763917
1.7600,20.99681784,12.51050219,41.94498409
1.7650,15.80065048,4.830667088,42.34586507
1.7700,33.27258447,-0.956485548,40.11422714
1.7750,41.21324271,-5.866005066,36.83042832
1.7800,32.32300663,-4.189570728,23.04713463
1.7850,24.49656304,-9.6210507,23.66633659
1.7900,12.05347302,-21.2633878,31.82542501
1.7950,13.50047948,-14.58183987,38.02124841
1.8000,8.543899832,3.596823352,45.12875354
1.8050,24.06346865,-6.459833135,50.64479241
1.8100,19.04032694,-2.170939771,46.02422212
1.8150,29.69992997,-7.744855987,37.4727266
1.8200,36.71856144,-21.24185182,31.72412491
1.8250,47.30460477,-23.75985077,28.05695072
1.8300,56.45380283,-3.707737334,27.21563306
1.8350,46.9132475,-43.13390437,16.44093651
1.8400,56.41911924,-38.02719948,13.09332137
1.8450,61.32526248,-26.63857518,15.1547769
1.8500,47.60124206,-38.88568157,23.3186873
1.8550,44.68475064,-14.24211697,28.72694261
1.8600,33.17892189,-23.91448586,33.43074206
1.8650,35.53294116,-10.95920642,39.75414237
1.8700,30.97500098,-5.649168345,49.65943296
1.8750,38.74761585,-14.53253479,42.65917937
1.8800,44.89192246,-17.63706923,38.57967971
1.8850,44.9238129,-15.61070329,30.02801139
1.8900,43.79023815,-18.03507635,30.74238274
1.8950,61.79814482,-20.28350686,31.01546017
1.9000,60.31316186,-13.91382662,28.27190987
1.9050,66.58025939,-18.39785738,23.57927428
1.9100,61.2087913,-29.19628842,15.28709661
1.9150,59.67638043,-32.22208073,3.153497035
1.9200,51.46361764,-27.72017935,4.426390223
1.9250,38.5303273,-36.53497513,7.261213472
1.9300,37.15724936,-24.62441546,17.76728377
1.9350,38.19368297,-19.15846388,18.9965286
1.9400,31.3127226,-22.70069222,26.26487173
1.9450,29.92536795,-26.53227798,32.9617547
1.9500,29.7371598,-18.74759464,29.24739721
1.9550,34.50355609,-24.89945323,31.10945978
1.9600,38.54931994,-30.59923688,24.26659836
1.9650,45.39827833,-34.23702645,12.94472782
1.9700,47.80749262,-37.51908688,2.657153889
1.9750,37.04654971,-35.51993662,5.016586298
1.9800,45.41853845,-28.68996921,15.46810581
1.9850,46.24884599,-27.04627541,19.000905
1.9900,55.06315592,-25.27173811,17.89781675
1.9950,51.5807248,-24.30238069,16.19875337
2.0000,48.34517684,-27.62044354,5.926458023
2.0050,38.91793153,-19.14888143,3.451033349
2.0100,48.68706809,-20.96282756,-4.530494423
2.0150,50.33957048,-31.77176862,-7.669364885
2.0200,49.01241573,-36.52648361,-5.966534197
2.0250,36.04794664,-35.06209592,-3.967595458
2.0300,42.55125857,-32.03925812,-0.5864145144
2.0350,29.32845672,-27.1824775,12.16959298
2.0400,27.3860983,-25.75494843,11.72288861
2.0450,30.54380608,-21.38734869,15.81025764
2.0500,32.90125655,-18.89044795,11.73830502
2.0550,29.40720526,-28.2024473,7.804311901
2.0600,42.56019165,-20.94104562,5.675452354
2.0650,42.79264571,-19.02800941,-0.6547048988
2.0700,50.91524227,-17.70019294,-1.143419705
2.0750,45.15842021,-23.31367412,-5.481135904
2.0800,34.93637137,-18.89365987,4.290958983
2.0850,32.92980711,-12.79852581,12.4399305
2.0900,33.27349133,-16.06947356,22.55703783
2.0950,41.23460419,-11.21864095,21.65796264
2.1000,36.19551115,-13.45972375,18.81250315
2.1050,39.00572544,-22.59340527,4.101039851
2.1100,42.08644023,-3.685003958,4.885517988
2.1150,40.18362974,-15.82178319,8.953708216
2.1200,43.38634624,-21.52594071,11.28154112
2.1250,43.51118615,-13.6548831,11.48556334
2.1300,41.30041728,-14.52896403,11.10046749
2.1350,36.41463453,-21.14277377,0.9907726683
2.1400,41.44749088,-8.341946135,4.688804557
2.1450,35.01747176,-17.30429928,3.800668986
2.1500,27.75833399,-16.4064918,4.986749603
2.1550,35.743221,-11.37256017,13.56437913
2.1600,44.07308294,-10.39339207,27.17684713
2.1650,38.12186688,-4.761032325,30.10153445
2.1700,44.68869284,-13.14283055,22.23742571
2.1750,37.52614859,-8.441504587,14.77386605
2.1800,41.79340516,-24.89115126,9.254570509
2.1850,54.62919694,-21.72716665,5.977850684
2.1900,50.93403633,-17.05367965,2.328069665
2.1950,43.8068361,-27.96290479,1.577365945
2.2000,36.39823443,-28.87259319,9.71376982
2.2050,31.22400714,-36.24329594,15.67702784
2.2100,37.96859883,-20.66207274,18.06122988
2.2150,27.52182144,-15.62046621,22.84055768
2.2200,33.0012581,-23.50179217,15.13840941
2.2250,26.37281417,-13.02201323,23.19280775
2.2300,26.13717774,-15.12368495,23.95049851
2.2350,14.32161368,-5.588149557,40.26950742
2.2400,21.40015591,3.437592923,51.79800134
2.2450,13.59323201,-10.25274783,43.07413811
2.2500,31.44494178,-2.638026362,38.06452604
2.2550,28.20171473,-12.73545163,27.52322347
2.2600,32.14176279,-14.07817492,19.20013361
2.2650,45.81564062,-13.34752729,6.830207825
2.2700,43.921029,-19.6655277,-1.974998315
2.2750,42.52191702,-21.80763716,-20.05936764
2.2800,45.25636083,-20.5769511,-23.45171255
2.2850,24.55037377,-28.83840092,-1.511070553
2.2900,21.58132056,-24.21644155,25.32049584
2.2950,19.45969722,-15.35509762,32.47457367
2.3000,17.63852099,-18.66652658,30.21588569
2.3050,5.396158552,-13.46350991,27.54697731
2.3100,22.61290689,1.274384774,19.15391484
2.3150,33.44657181,8.235430392,8.494712791
2.3200,26.0386059,-9.686973675,6.368462043
2.3250,28.19126507,-1.540098262,15.9925106
2.3300,35.82645451,-4.239626366,5.776182946
2.3350,30.67770677,-11.59622557,7.754613257
2.3400,18.6269099,-2.750352946,8.998322167
2.3450,18.52154679,-10.27403043,-3.367919267
2.3500,17.38077328,-4.992114761,-2.947452989
2.3550,19.74129646,-10.64287847,11.50101588
2.3600,26.80017788,-16.25423178,13.29728134
2.3650,34.14362087,0.7202753201,13.77749437
2.3700,20.71717018,8.79907116,25.01260954
2.3750,22.47413735,1.285268437,16.66682681
2.3800,27.00689613,-13.77062648,24.76618167
2.3850,24.67970238,-4.785111732,33.3501369
2.3900,31.11475089,1.096642514,34.50830688
2.3950,31.9281451,-3.636430448,25.35084506
2.4000,29.75333714,-9.610118176,24.60728352
2.4050,40.70325891,-5.035032576,20.28744684
2.4100,49.75427807,-5.68992802,16.39272673
2.4150,39.17852004,-12.00220066,12.06165818
2.4200,30.39118831,0.430849609,7.526831565
2.4250,32.89989282,-3.212445617,4.913749384
2.4300,46.14078757,-2.387348292,1.714254884
2.4350,40.3592206,-22.31339423,18.80485365
2.4400,45.12240873,-4.015816406,39.53399552
2.4450,40.67507175,-5.483848543,38.66059435
2.4500,39.9542749,-10.62012491,9.688340489
2.4550,26.29723724,-21.33827187,-16.85437957
2.4600,22.65291551,-15.54275435,-16.04453348
2.4650,33.92139239,-11.94776459,-11.06651081
2.4700,36.22155932,-23.49010306,13.26144675
2.4750,33.39152275,-9.925104695,21.31645101
2.4800,34.3847424,-5.67366739,11.89441862
2.4850,41.08961018,-0.8817112672,1.431782527
2.4900,29.75916469,-4.653113677,0.945202262
2.4950,27.50129496,-1.019974824,-7.995815202
2.5000,39.20920858,-3.755220524,-9.8620954
2.5050,38.04197216,-18.22314408,0.7982860153
2.5100,42.10790963,-7.498576747,18.62670292
2.5150,25.51360238,-15.48753028,14.60539858
2.5200,29.33390166,-2.466486645,-2.880504505
2.5250,27.69689248,4.109065172,-11.26101319
2.5300,34.19846746,-0.2710379174,-12.70843656
2.5350,35.5612359,-0.2741410345,-6.083927996
2.5400,29.86892922,-4.58418057,9.253590524
2.5450,37.06315644,2.992704458,5.177305596
2.5500,28.51965729,2.221648894,3.021654819
2.5550,29.71197453,1.179332483,-2.932386096
2.5600,24.13167819,-7.797230527,-4.126898867
2.5650,32.22089874,-7.525932882,3.070167517
2.5700,34.80244882,-14.50310188,3.596464868
2.5750,36.57041066,-2.922410483,2.028165413
2.5800,43.30418824,-12.6407323,-24.85510361
2.5850,36.78457932,-15.37522533,-36.3105368
2.5900,20.48540513,-20.3934218,-36.87263268
2.5950,20.10350151,-17.83473153,-28.36046104
2.6000,26.84922431,-22.97842778,-25.17148818
2.6050,31.81689418,-17.60357348,-23.99133271
2.6100,27.85945275,-17.31166085,-23.83985478
2.6150,33.94945397,3.368941128,-35.59296199
2.6200,34.10937725,-3.461695168,-35.91456054
2.6250,28.45756717,-17.28600537,-21.73536639
2.6300,32.72805495,-10.22682122,-6.976778414
2.6350,36.18261308,-1.165757998,0.874160494
2.6400,35.62289887,-4.71825888,-1.281833507
2.6450,32.43602663,-11.19131616,-12.77465869
2.6500,38.59157179,-0.8112032184,-10.40090458
2.6550,38.18773925,-13.5497967,-16.56915191
2.6600,39.78442949,-11.69281282,-19.87383635
2.6650,38.49780668,-14.68357155,-25.82917641
2.6700,38.54504818,-11.26243174,-29.36486095
2.6750,39.26052096,-23.27203884,-31.43837032
2.6800,37.20534595,-14.47014664,-7.117223846
2.6850,44.64335439,-20.43848814,-19.95414511
2.6900,43.5803182,-18.81070693,-23.845316
2.6950,35.78172214,-20.20515216,-16.91101968
2.7000,44.67504603,-11.59810272,-20.30731682
2.7050,43.95196321,-3.579567049,-18.18784
2.7100,45.81138371,-12.29854458,-21.49593886
2.7150,42.7003549,-15.17574056,-12.07109433
2.7200,46.3639937,1.137522984,-20.54926454
2.7250,35.01464244,-2.733747604,-22.13132615
2.7300,34.23348679,-3.261286417,-19.01672587
2.7350,32.09256299,-7.15027476,-32.34732113
2.7400,29.46242009,6.409818397,-36.7994363
2.7450,13.87850899,1.204078061,-39.0793665
2.7500,21.76737472,20.43314562,-45.6982379
2.7550,16.2570679,7.785527734,-40.38344917
2.7600,30.25659146,-6.184532584,-32.44931394
2.7650,37.85786148,-10.84089949,-3.386185118
2.7700,40.13597474,-3.925174961,5.241697871
2.7750,31.92173537,5.407293423,-1.029499281
2.7800,29.71915823,9.509910716,-22.59299875
2.7850,27.36156579,-0.04180989534,-34.32115812
2.7900,26.86991039,-0.4109113254,-14.38085826
2.7950,34.65834725,-19.8719992,-10.96400167
2.8000,46.88918885,-8.434823847,4.287826617
2.8050,41.08706677,-14.93187263,-3.448204776
2.8100,39.39185507,-17.35603807,9.73518525
2.8150,39.95798434,-23.39458758,8.933531589
2.8200,48.74417615,-10.34764136,10.63771543
2.8250,44.36511125,-1.276713757,-5.790827387
2.8300,32.43006831,9.735158187,-31.53352231
2.8350,9.598027325,-1.634964817,-57.28589758
2.8400,12.67058425,0.7202277561,-51.90183684
2.8450,1.632711388,-11.1640714,-35.3700134
2.8500,11.3242481,-12.25263263,-20.34687668
2.8550,11.4861624,-20.70610835,-13.48487627
2.8600,23.73504493,-23.98716983,3.971889409
2.8650,31.59492489,-13.40853663,15.26200975
2.8700,42.70756304,-4.474770666,3.145976247
2.8750,38.3042861,1.141502348,5.905188839
2.8800,35.77739918,-9.02599226,-18.53154985
2.8850,35.69870684,4.948001202,-14.79312978
2.8900,38.49292237,-4.615972934,-32.11559579
2.8950,29.71510432,-4.769421608,-16.34835401
2.9000,23.78647343,-3.349084928,-16.26500746
2.9050,16.96697529,3.762206535,-31.74158274
2.9100,13.75157067,2.847952605,-32.74419851
2.9150,3.853733911,-12.85736843,-22.87536433
2.9200,16.43923847,-10.35292596,-12.6737075
2.9250,28.3843993,-15.94521141,-1.427792727
2.9300,39.84630045,-2.738134709,-4.588744216
2.9350,25.44749453,-7.482226534,-10.68747296
2.9400,18.19658221,2.781005714,-27.96119012
2.9450,17.00681771,2.97642965,-21.99511844
2.9500,24.60772103,-10.92657266,-22.46271508
2.9550,34.7347466,-8.360128192,-30.57768813
2.9600,30.59643938,-2.982058652,-14.87709037
2.9650,24.11139961,-7.544786182,-23.17729963
2.9700,23.09655321,-4.609715209,-11.43720591
2.9750,23.73187611,-11.63599417,-4.600154291
2.9800,29.5198866,-6.422819866,-13.45314465
2.9850,34.13387313,-3.944620614,-2.001158364
2.9900,35.02557375,-8.879261588,2.782381918
2.9950,40.50728097,0.5605230054,-13.27087683
3.0000,38.10335654,-11.31323676,-20.37070812
3.0050,34.85284137,-4.914068508,-27.18899182
3.0100,38.78920555,-7.27149816,-21.74993622
3.0150,43.72994393,3.981381622,-27.8682406
3.0200,37.46177464,-6.322550532,-36.52444308
3.0250,35.5925753,5.567301568,-34.88860693
3.0300,26.90700384,-11.52619607,-37.98913475
3.0350,30.64013963,2.87976124,-31.49201398
3.0400,19.06593841,-12.38811433,-21.28598236
3.0450,17.57414818,-26.69202331,-3.929910945
3.0500,29.61724587,-25.69888807,20.24982944
3.0550,38.42830438,-10.28760148,1.19521992
3.0600,40.41613075,-3.333997119,-8.974995425
3.0650,40.78017628,1.570271735,-26.43582419
3.0700,45.39592121,-8.028746317,-22.38922795
3.0750,46.61278703,-7.333597474,-24.41488836
3.0800,52.80267835,-10.72306978,-16.4050227
3.0850,43.68566742,-0.7528629009,-15.31574863
3.0900,43.5561942,-16.19684279,-37.47150843
3.0950,45.3230883,-13.76067834,-32.67800558
3.1000,40.005665,-13.13667016,-39.25649319
3.1050,27.11394296,-10.36180332,-51.81964659
3.1100,25.2284514,-3.296060794,-63.90271357
3.1150,30.82832723,-22.67563296,-51.5368108
3.1200,39.7820382,-24.07048344,-44.45905357
3.1250,31.72928522,-23.97366824,-41.65630116
3.1300,24.02976233,-2.780096774,-47.39110346
3.1350,16.48007767,6.299440895,-59.51600809
3.1400,13.51293237,-13.7626568,-63.05079088
3.1450,22.64902725,5.639700906,-45.59037433
3.1500,20.80515094,10.44264049,-56.19754888
3.1550,16.19944544,3.008488193,-57.5239178
3.1600,20.09371711,5.636056255,-54.34754413
3.1650,25.34828603,-2.712081048,-50.55055514
3.1700,31.75550862,7.630723792,-43.22448579
3.1750,32.48274428,12.47388043,-25.75117272
3.1800,37.86195764,20.51297692,-25.63767624
3.1850,34.11498781,17.56145971,-28.37147427
3.1900,29.55506694,4.451430413,-43.04347041
3.1950,25.68747096,7.228743457,-41.19523778
3.2000,27.48572717,8.92271728,-35.60034957
3.2050,36.67048011,16.42952977,-23.06444478
3.2100,36.88499322,8.029462408,-26.67538464
3.2150,44.09958944,4.679100632,-8.507415046
3.2200,59.83762903,2.634770197,0.09429035149
3.2250,60.73582679,5.825846239,15.41540761
3.2300,56.43003857,17.92461279,2.449287686
3.2350,39.77746502,19.86270684,-14.02789997
3.2400,39.6611273,28.07699424,-31.61321557
3.2450,36.10779006,16.16950457,-24.05891733
3.2500,33.20432036,18.97794873,-27.52441664
3.2550,27.42912597,16.23294336,-35.97833214
3.2600,30.38184776,18.55493242,-21.57545909
3.2650,18.97306165,13.89039513,-20.27551884
3.2700,19.23155467,13.23493168,-28.90445814
3.2750,11.56449564,10.35117083,-22.16200752
3.2800,10.62947886,12.25055038,-16.61930482
3.2850,2.162911315,-2.540601975,-17.86753185
3.2900,16.59647905,10.12340798,-5.392804004
3.2950,31.1719889,3.315583465,5.176416476
3.3000,43.70373855,16.92937652,-5.341525772
3.3050,45.94846695,16.69491471,-7.357401077
3.3100,42.96545777,6.107959205,-5.713248025
3.3150,48.44671749,-5.111907498,6.563108373
3.3200,48.8741057,-16.23890915,3.336598355
3.3250,47.08935926,-14.0039808,-9.392265371
3.3300,42.02045786,0.74809671,-3.854228952
3.3350,22.24079774,-3.460760067,-15.45377253
3.3400,12.87518983,-19.03137128,-31.94383917
3.3450,23.09688282,-14.9501289,-21.22247934
3.3500,33.90645256,-17.00676068,-19.49940638
3.3550,27.98230085,-18.79392431,-14.11331903
3.3600,32.61548656,-10.4462498,-14.63373526
3.3650,32.11450322,-17.93755005,-18.57719488
3.3700,43.36023835,-8.052084931,-13.00345787
3.3750,29.50191538,1.532488303,-29.29275083
3.3800,26.05512981,-9.224911052,-29.82893757
3.3850,16.30543085,0.3484751198,-28.66899765
3.3900,8.154455378,-14.02047033,-42.3034975
3.3950,23.83418819,-37.5437635,-11.62016588
3.4000,32.60972025,7.455745893,-23.86463817
3.4050,25.72017208,-8.205030359,-14.61601712
3.4100,16.67737392,-6.208732303,-30.14587632
3.4150,15.58113286,-9.661603695,-24.97579437
3.4200,21.57967243,-15.79134507,-22.2752439
3.4250,31.58096958,-19.60206712,-23.4123349
3.4300,40.15225311,-32.81798114,-13.94353942
3.4350,39.57105995,-19.30338247,-12.05179918
3.4400,32.08171236,-4.70542698,-8.115895446
3.4450,21.15355453,-2.189508451,-18.47257521
3.4500,27.37556659,-10.29778965,-7.812750504
3.4550,40.98272016,-11.60458016,-0.1360883914
3.4600,46.11161046,-11.29964285,4.739995017
3.4650,48.66395438,6.305536638,9.073856958
3.4700,40.14588044,1.74276784,-1.682703525
3.4750,29.27029369,-4.81624782,16.140996
3.4800,28.62498014,10.64443524,8.410727204
3.4850,29.07497955,8.880353413,-0.5296010435
3.4900,36.69964839,12.60315426,12.13797007
3.4950,38.62330113,-0.8610606086,11.96344992
3.5000,37.83499938,2.306948531,13.09341483
3.5050,25.96457464,12.32679824,24.99190622
3.5100,8.2987796,25.6418743,1.836444746
3.5150,0.1933036926,14.85245406,-0.5666908994
3.5200,16.52825297,-17.74324823,19.77953745
3.5250,27.3056087,28.36005094,18.82527727
3.5300,22.25273468,7.083115421,20.63882426
3.5350,18.08881234,24.28592225,18.79713458
3.5400,-0.04939974271,20.06043554,9.129468202
3.5450,0.538720893,23.27079167,2.629689886
3.5500,7.98273058,12.09923978,-21.50524275
3.5550,29.97988957,-12.4538069,7.559770984
3.5600,39.32966124,-13.61079167,26.76179564
3.5650,37.11765567,-1.829582959,35.08949866
3.5700,14.78385271,1.277088548,20.83267138
3.5750,-14.14743075,5.60207651,3.595430814
3.5800,-9.828786144,5.368682949,7.258645119
3.5850,-10.96437824,-2.2645117,7.567059393
3.5900,10.9276112,-0.0001870659248,11.01779848
3.5950,25.20790976,-7.701123217,19.42963941
3.6000,13.90465943,1.59391062,17.88424106
3.6050,11.87166307,15.95706494,6.904830047
3.6100,4.408357612,4.775320953,9.392597517
3.6150,7.437033053,-9.995731731,8.001022198
3.6200,8.93494562,7.640894802,10.6709806
3.6250,11.44795339,-12.73978797,14.95016925
3.6300,3.435696339,-3.212991615,-0.3065112563
3.6350,-1.514740588,6.67647114,-10.62067726
3.6400,-4.262660199,4.934380945,-4.545808759
3.6450,-5.668474093,-15.40788211,15.0914467
3.6500,-4.863779324,-2.942384671,4.532729472
3.6550,-14.99846518,-12.92563035,11.92030198
3.6600,-19.74244366,0.516770186,1.621611287
3.6650,-6.721167307,-23.43438209,6.78586956
3.6700,-1.82670656,-16.11172114,-0.3243954541
3.6750,7.232210248,-11.45188574,-8.588893098
3.6800,12.32331547,-21.90225802,-13.21947368
3.6850,17.64218948,-27.07789437,14.26961051
3.6900,6.229653218,-12.44913664,3.609958678
3.6950,-12.28143025,10.31411175,4.154535545
3.7000,-23.085139,10.05925785,-9.62955843
3.7050,-24.89412878,-9.553704911,-17.66465944
3.7100,5.785116583,-21.80616378,-1.561167729
3.7150,15.51869404,-35.66363383,15.76867751
3.7200,28.0416619,-17.89398434,18.09730438
3.7250,30.50441649,-32.04556135,0.1867730679
3.7300,43.96075633,-26.78640959,7.794738545
3.7350,40.64469611,-23.7090054,2.354158376
3.7400,27.17193169,-24.30199905,10.67285686
3.7450,4.708497349,-37.15706963,1.968491442
3.7500,-0.2729251761,-42.92500757,3.484074201
3.7550,0.9961176501,-41.20624109,25.65125288
3.7600,-3.078203249,-22.73462792,7.09145658
3.7650,-7.755959552,-30.66636412,26.36895989
3.7700,0.1916813004,-26.32585568,31.59002775
3.7750,-6.284573954,-5.421008255,23.10863574
3.7800,4.797135185,-17.25657054,34.1775504
3.7850,13.27994204,-18.27899854,25.85158646
3.7900,34.99312951,3.707302704,48.06181948
3.7950,2.512255214,13.7471126,35.97240307
3.8000,-43.4781681,36.56956476,12.17983875
3.8050,-36.20359464,22.46355292,30.80451265
3.8100,-6.888526689,26.02969035,36.58155026
3.8150,0.1503357114,55.74244102,43.11084492
3.8200,12.28487495,62.90689687,36.68387817
3.8250,23.28579417,40.89075291,40.16704261
3.8300,56.62447231,24.14970816,45.49334095
3.8350,74.12428107,39.47335187,37.18344699
3.8400,60.70028324,49.71522447,19.20021827
3.8450,21.82240602,53.7472242,-2.479976604
3.8500,11.05066325,37.63906762,-1.843872615
3.8550,25.66791188,28.22808532,12.37749043
3.8600,34.86122932,30.42185486,11.52854007
3.8650,31.67833693,31.5112341,5.528092409
3.8700,9.765705702,23.23322201,-8.148372634
3.8750,24.1203748,18.68108886,-1.272767803
3.8800,34.65900325,25.26901612,-5.346590499
3.8850,18.31338008,36.78215505,-5.747176417
3.8900,2.249162157,54.82120308,-18.59424022
3.8950,-1.700651472,19.631466,-19.69887907
3.9000,52.20716858,10.5731013,0.8491451672
3.9050,70.73739162,1.118672741,-7.298113863
3.9100,45.99431377,20.46571976,-29.21296687
3.9150,3.307555317,17.7387164,-45.8462965
3.9200,-4.212684381,5.99593247,-58.57035247
3.9250,5.918907751,2.174439882,-61.48644527
3.9300,3.833651124,-31.04409081,-49.22397626
3.9350,-2.920576808,-40.63641036,-45.36531354
3.9400,3.64324136,-47.0186787,-45.30566918
3.9450,16.53900508,-54.86224227,-56.63261286
3.9500,40.21789681,-65.29137801,-45.41769488
3.9550,37.84795383,-64.44486069,-38.11143462
3.9600,9.798388689,-39.13491513,-54.66523498
3.9650,-12.53509407,-58.36008477,-63.22729003
3.9700,4.058451297,-35.98012003,-74.3942621
3.9750,4.645991983,-36.43954806,-62.25892973
3.9800,-18.23460819,-28.85156374,-53.05055238
3.9850,-31.72934742,-25.11064287,-37.42417431
3.9900,-20.56522811,-27.61823816,-52.45581478
3.9950,0.8318764921,-18.83047747,-62.80740662
4.0000,23.93703187,-26.96702007,-46.65195274
4.0050,29.80046833,-8.005035447,-55.96437548
4.0100,33.33077754,-9.020634942,-57.93954892
4.0150,21.33965754,-24.17741474,-64.70440643
4.0200,30.01728752,-10.12255758,-56.12316853
4.0250,3.42450708,2.430933949,-68.07854987
4.0300,-4.041220648,-18.61900133,-73.72242859
4.0350,8.39805179,-22.02689356,-68.30996243
4.0400,23.70898567,-27.98332365,-59.62965144
4.0450,41.32483392,-26.20613984,-47.08930706
4.0500,32.07895766,-13.54180424,-44.6527269
4.0550,13.33958633,-12.67736987,-32.40425753
4.0600,-7.906530414,4.908323483,-57.6645301
4.0650,-20.8405719,14.67700679,-47.94036168
4.0700,5.240810633,-17.51204407,-28.04155069
4.0750,28.54835701,9.183356573,-19.4564929
4.0800,13.50087018,11.36524639,-20.73874902
4.0850,-4.035135613,18.80637584,-37.38459666
4.0900,14.79331303,-7.10264362,-27.18988527
4.0950,32.64960263,12.81035829,-17.71469562
4.1000,18.24705725,11.20780904,-26.90978418
4.1050,18.82156186,9.287400017,-24.00145926
4.1100,41.35612281,7.051264469,-18.05598772
4.1150,20.74362143,-4.4044282,-11.70670771
4.1200,18.93945331,14.08304119,-13.98161649
4.1250,15.50237082,-1.329924221,-11.89033982
4.1300,23.97838115,3.979147638,-17.7659783
4.1350,13.51147887,2.64396862,-28.48153634
4.1400,19.42266328,-1.148874075,-21.21271425
4.1450,40.87223534,-21.96981887,-8.907559334
4.1500,55.38673881,-22.01348202,-4.923706289
4.1550,38.8939705,4.727192786,-17.60513892
4.1600,-2.807402642,7.262693157,-27.87486326
4.1650,-12.96121636,5.033553955,-18.21633581
4.1700,-7.605349024,5.534739763,-6.440528768
4.1750,-0.6765327785,10.10084934,-6.162300937
4.1800,3.230802492,25.75635527,-4.616454446
4.1850,4.096086394,13.15764589,6.715813039
4.1900,19.71441338,11.80141924,0.05420232936
4.1950,23.23492709,2.008820754,-13.37124957
4.2000,37.82807124,7.531384276,-1.39080467
4.2050,24.14294882,7.798352404,-6.632250747
4.2100,17.79337237,3.757384397,3.227134952
4.2150,11.56691765,1.080565808,4.951132976
4.2200,22.71870005,0.5098969454,5.224772345
4.2250,16.57752357,-5.563040944,2.476313402
4.2300,11.22573741,-5.10989368,-0.3048731974
4.2350,14.04624157,-13.19971135,3.506793187
4.2400,29.74629958,-9.295271733,-1.912956594
4.2450,17.32659451,-16.95363964,-13.84746971
4.2500,7.87245891,-6.801530784,-11.78050799
4.2550,12.65311936,-9.104369694,0.6213429797
4.2600,7.757026543,-6.532542727,5.490208631
4.2650,-6.35945372,7.727957791,-2.524238034
4.2700,2.311903129,9.365259428,-1.259917079
4.2750,4.945633053,-11.32698225,0.614011003
4.2800,21.92086791,4.945736872,11.10867879
4.2850,6.835760606,0.1140529788,4.273694618
4.2900,-3.37120883,-1.679928677,6.312176997
4.2950,-8.448297997,2.20872845,1.405345353
4.3000,-9.352694246,-0.4015264577,2.470592806
4.3050,11.46160053,-7.096956462,6.674278782
4.3100,21.02748471,-10.73320731,0.9420577996
4.3150,24.75021629,11.92462024,0.1753732107
4.3200,5.638850224,8.221200338,-6.94239163
4.3250,8.738059745,4.013261972,-2.516790973
4.3300,23.06271317,-1.534492623,0.07977414755
4.3350,28.67051719,-6.908774616,-0.4189785881
4.3400,24.7314947,15.00604955,-8.823328471
4.3450,12.61871577,6.956998962,-6.06490977
4.3500,7.850619443,3.72704737,-11.15810533
4.3550,10.53505627,-7.117311387,-7.560219239
4.3600,19.56435218,2.25514853,-2.133351335
4.3650,15.38882673,-2.316385545,-4.022915765
4.3700,8.131543294,-9.293688411,-0.4889502076
4.3750,0.5065043664,1.011970727,-4.641860183
4.3800,-6.447814292,-7.254355562,-17.83456721
4.3850,2.916004874,-3.864966657,2.783796459
4.3900,-3.259119179,-7.159420201,-6.949436967
4.3950,12.54450128,-4.816513215,1.80161579
4.4000,25.76614974,-14.71669293,-8.841497838
4.4050,20.59774952,-7.826555635,-13.50454747
4.4100,24.17721621,2.552708116,1.064561135
4.4150,-0.1404369443,4.420811475,-19.54438777
4.4200,-4.662978491,3.562108799,-19.08263702
4.4250,2.214403016,-3.443277216,-12.37953721
4.4300,9.699878993,4.045531735,0.7080578369
4.4350,4.88658452,-7.408099854,-3.619945037
4.4400,12.28142602,-19.94104428,-14.45942041
4.4450,27.67869479,-13.29442478,2.052393539
4.4500,25.04258382,-13.63178251,-2.486553175
4.4550,18.83972745,-12.68531024,-2.947220095
4.4600,19.98658419,-11.58390152,-4.833852809
4.4650,32.55084709,-4.072479238,11.74848125
4.4700,21.39745741,-12.50222339,3.751636255
4.4750,12.94871917,0.5284744644,7.296712313
4.4800,4.341009498,-0.6233851166,4.636782951
4.4850,7.76376073,5.944009092,10.93807005
4.4900,24.47663687,0.9456561858,12.17693043
4.4950,27.61490917,-2.033975172,12.71592912
4.5000,31.42756892,7.078521735,12.04109642
4.5050,13.12279226,7.048444789,5.871028881
4.5100,12.80468477,10.50193725,4.196150006
4.5150,11.34103671,-4.650677677,9.177510994
4.5200,23.05459937,-4.435791735,14.42390881
4.5250,24.49857112,-0.7865866081,3.940099905
4.5300,25.50655538,-17.45704051,-2.269573233
4.5350,28.63245803,-7.408255016,4.762899169
4.5400,27.10326586,-14.88039585,5.244354368
4.5450,18.91304964,-3.775090489,8.54653632
4.5500,8.856892399,-1.580865303,-4.891018725
4.5550,16.26437727,-3.235118012,-3.579875084
4.5600,20.67417034,-1.386246784,-0.5006607067
4.5650,28.01332859,4.800668497,-1.646697847
4.5700,27.79853729,0.1969119591,-3.048697905
4.5750,30.41008465,-5.069436487,-1.80569243
4.5800,31.03144973,10.70283967,-3.135754093
4.5850,13.11040873,-1.021526117,-9.418291816
4.5900,17.02747621,12.68636442,-1.194370504
4.5950,13.47556203,-2.18886131,-7.979368565
4.6000,20.84379724,1.457439786,-17.77219263
4.6050,21.42266717,-5.355608334,-15.33769205
4.6100,34.11013295,-10.22750095,-10.66179177
4.6150,32.17386732,-14.39014702,-15.7844197
4.6200,44.34943791,-6.969760328,-11.14504261
4.6250,36.1298895,-2.855681659,-16.96606124
4.6300,29.1906882,-3.981940461,-21.14142667
4.6350,23.41544707,0.5708585334,-21.22358291
4.6400,32.98919262,-5.782575824,-12.02081835
4.6450,34.20251009,-8.488194539,-12.61656075
4.6500,38.35869,8.000045106,-11.86228853
4.6550,18.06036448,-6.492217671,-27.31811922
4.6600,28.64331374,-0.3776195459,-24.45606958
4.6650,25.53872157,-21.86996583,-22.04198242
4.6700,30.16601673,-3.608837466,-12.51981659
4.6750,23.63681242,-9.80365435,-10.13750059
4.6800,25.41330008,-15.59004899,-18.63124324
4.6850,40.65170869,-27.31242985,-10.63315748
4.6900,48.93172178,-30.63470592,-12.08258777
4.6950,60.01794982,-24.17667559,-8.881810176
4.7000,55.57720391,-20.88077734,-5.34031823
4.7050,42.64359282,-6.148989666,-13.25629841
4.7100,23.07250961,-9.176646481,-28.08429823
4.7150,21.22343428,-9.583391148,-17.5244287
4.7200,23.13579889,-11.79707296,-18.26404409
4.7250,24.0386129,-6.17122653,-18.75092272
4.7300,20.25457315,-18.84486203,-5.22838563
4.7350,15.51246045,-12.75852471,-6.390012965
4.7400,19.67106267,-11.84818991,-4.354275039
4.7450,12.7719047,-13.10022576,-11.25301322
4.7500,24.30263659,-6.237226015,-12.04779187
4.7550,25.96596528,-17.59416352,-3.008635483
4.7600,37.27816405,-11.46561922,3.926787071
4.7650,47.54508468,3.727294941,1.145464785
4.7700,40.6710192,-0.7320085283,-12.42865073
4.7750,34.7700302,1.580038747,-3.297424396
4.7800,33.6586787,25.37211996,-2.798038985
4.7850,25.42917491,26.70154507,4.20762338
4.7900,20.30041442,20.23275657,-6.136110247
4.7950,22.84692538,6.85564877,-5.241958471
4.8000,38.32772756,6.994326999,7.858194644
4.8050,32.78052584,1.219442486,3.270965074
4.8100,30.06582802,13.85597999,5.362353177
4.8150,28.45193117,7.603260432,-2.41796185
4.8200,43.18901812,5.129819726,3.33991532
4.8250,41.94493926,-9.184117074,-1.136012067
4.8300,51.87353622,-4.589254846,13.1851659
4.8350,39.42609689,6.595776802,4.654522431
4.8400,28.42027781,14.57697438,-1.881585105
4.8450,28.95030923,13.91637961,4.347218335
4.8500,34.4896376,3.021821642,8.862612591
4.8550,31.67376383,14.64240847,2.819247647
4.8600,28.37761736,15.70277756,-0.3786622057
4.8650,19.72605818,14.95051135,-7.059287443
4.8700,17.85357229,10.71538867,5.437311578
4.8750,17.81648628,-1.861353917,4.298518051
4.8800,30.3073865,10.44463008,-11.57958325
4.8850,39.24276265,8.606284437,-5.447667086
4.8900,33.58035474,4.558980809,-6.725497207
4.8950,35.51286537,-5.634281183,1.749909402
4.9000,32.50220569,-1.854635252,-5.871757418
4.9050,33.4819628,8.215285587,-6.666838022
4.9100,23.11973779,-0.8579394528,1.959902357
4.9150,22.30699362,-9.803151317,5.127614448
4.9200,22.82100814,4.680557147,5.576526279
4.9250,16.27127965,2.328035794,0.2141731373
4.9300,3.068191043,6.303971319,-4.96585327
4.9350,11.63719911,15.86154387,11.9843889
4.9400,9.924152575,-8.676164668,5.856077708
4.9450,21.63748988,-4.81748355,8.95176623
4.9500,19.32471226,1.665162399,-0.929426286
4.9550,24.1510059,9.155250449,0.4203655545
4.9600,20.9957854,-0.9397909094,1.496310122
4.9650,16.6689145,-0.2395590765,-2.150301104
4.9700,20.63157885,3.376735898,4.004426194
4.9750,15.52567035,-1.712968424,3.491347346
4.9800,14.66241027,8.013162487,-8.844992401
4.9850,10.92014983,-1.091451727,-11.63457886
4.9900,3.929951327,0.7551647492,-13.16827267
4.9950,6.706889146,0.7844228748,-10.32451931
5.0000,8.964823211,-7.516033966,-13.003981
5.0050,16.99441497,9.522617856,-9.573232234
5.0100,11.00335284,-1.0552771,-23.01992461
5.0150,14.5581167,-5.455418039,-15.72197859
5.0200,16.52553456,5.716987236,-12.0730252
5.0250,5.148381677,7.695400247,-19.44353799
5.0300,14.24115788,1.80528288,-14.9231423
5.0350,18.70778352,3.754764736,-9.464956304
5.0400,25.64206144,12.4152098,-18.15240171
5.0450,15.25112469,21.66228556,-29.00632952
5.0500,5.226102765,13.17555444,-34.52283721
5.0550,1.655299769,18.41897082,-27.78083121
5.0600,-4.103956347,2.814373369,-21.79945292
5.0650,1.84204626,5.33323923,-22.953188
5.0700,6.859313783,13.13988738,-34.69384247
5.0750,7.593960812,6.820555801,-27.73246684
5.0800,10.05597644,8.819326623,-34.33736416
5.0850,9.125741348,15.11377896,-37.50158874
5.0900,11.73885163,21.24835047,-25.36392085
5.0950,12.41438728,19.11642012,-22.50339714
5.1000,17.77126842,9.830557552,-18.58043478
5.1050,21.09278456,17.63750547,-27.63473267
5.1100,12.66777656,19.17989199,-43.23722052
5.1150,6.353461958,27.47768601,-48.87877252
5.1200,4.073093438,15.90318708,-45.84963199
5.1250,-2.617315334,-0.3063209084,-59.42469199
5.1300,2.909217461,-2.693586828,-51.03420662
5.1350,3.01329618,-10.43499313,-39.38867141
5.1400,12.16841121,2.784350975,-46.21241957
5.1450,23.20094606,0.9536034894,-39.02373855
5.1500,18.3242821,6.797944578,-40.54004013
5.1550,10.84539254,1.875661333,-46.34272954
5.1600,12.59096444,1.485593955,-47.75593802
5.1650,17.61872697,2.068529133,-36.68234004
5.1700,17.97715813,4.234586397,-36.44363097
5.1750,11.98600166,9.018311278,-52.36895111
5.1800,7.761773188,-3.199568229,-55.67891107
5.1850,11.80995684,-2.639259157,-44.81955824
5.1900,10.19134186,2.807024327,-55.00731822
5.1950,4.759807651,6.491359555,-61.77012102
5.2000,8.817095751,1.223729503,-62.51110734
5.2050,8.81835087,-10.1171269,-47.93137807
5.2100,22.1122317,-23.35174749,-24.88082483
5.2150,12.10654375,-27.90461985,-45.913771
5.2200,24.6155008,-12.25899394,-51.77814818
5.2250,16.44488509,-19.84129347,-43.94936292
5.2300,13.92722728,-6.302288317,-39.39702992
5.2350,3.756453014,-7.323751805,-36.83694132
5.2400,3.82612488,0.4241527169,-37.98966862
5.2450,6.696949658,-7.048003736,-30.58972375
5.2500,14.10126727,-3.55424957,-44.69748231
5.2550,13.35306725,-0.2653323292,-43.17842975
5.2600,13.19051176,1.223413829,-38.31536324
5.2650,-4.166546896,-3.28603204,-51.68139324
5.2700,-9.540290402,0.8232946021,-49.01032005
5.2750,-16.93488552,-3.392689954,-43.80344762
5.2800,-13.56263948,2.41678155,-42.47188095
5.2850,-16.64115688,1.651041074,-40.38720038
5.2900,-14.27611921,-4.868353971,-37.22244395
5.2950,-4.016213326,-3.580594245,-24.94115123
5.3000,10.31700706,-16.56087739,-7.488728324
5.3050,24.36560475,-7.775500301,-0.8927595107
5.3100,24.79627474,-11.75047037,-1.088378512
5.3150,22.11628302,-3.716223594,-16.75970712
5.3200,16.97938579,1.274321906,-17.87801077
5.3250,17.02361231,8.769119112,-10.67326834
5.3300,21.38477149,11.01852638,-19.19151963
5.3350,20.60714772,-1.59121139,-15.64991695
5.3400,23.29044508,-2.544379791,-26.31605055
5.3450,22.17838421,-12.82842655,-22.96866085
5.3500,14.09231136,-1.24184051,-44.71600386
5.3550,1.181780683,-21.79354831,-35.95571911
5.3600,11.42807599,-17.07994853,-31.39735226
5.3650,22.94209655,-28.39649343,-27.281951
5.3700,43.33083097,-24.86646142,-14.92692431
5.3750,48.43228889,-26.56682871,-12.09587053
5.3800,50.24765208,-24.59838967,-15.99864273
5.3850,52.90040029,-18.60665544,-6.434118176
5.3900,47.89401082,-21.98227431,-15.9866537
5.3950,46.19258781,-14.01382566,-15.86472853
5.4000,40.24924567,-25.43324081,-27.31321628
5.4050,40.14113442,-14.78482244,-15.35342663
5.4100,47.30607209,-19.60667087,-18.41971066
5.4150,45.93766135,-14.44302596,-6.561352613
5.4200,47.25466091,-5.724526687,-21.62696419
5.4250,36.56106511,-11.94491705,-33.43582913
5.4300,35.21615464,0.2442052376,-36.89632419
5.4350,36.6727226,-10.98366297,-15.43572153
5.4400,42.19243242,-18.178715,-18.45045096
5.4450,40.50108626,-18.33646476,-15.12319972
5.4500,39.45737781,-16.58156786,-13.42380913
5.4550,32.55484863,-17.76090278,8.638585568
5.4600,42.56791885,-13.61263968,15.4629603
5.4650,39.40375658,-17.09879029,18.55028754
5.4700,49.71467971,-14.8950491,21.52137025
5.4750,46.04549648,-0.6695363567,28.73691423
5.4800,32.89262479,-5.372657758,15.5917832
5.4850,21.57566309,-4.629859415,10.68057318
5.4900,22.38169963,-0.06582742399,15.81230023
5.4950,19.45160218,-14.47376986,1.818119713
5.5000,16.21683182,-14.35092756,-6.190849352
5.5050,13.21655999,-17.5755281,-10.01885907
5.5100,8.635252367,-9.718832398,-7.471210581
5.5150,4.918000545,-8.508936778,-3.62279071
5.5200,7.302104509,-17.84751086,10.22149482
5.5250,17.32468319,-22.11553163,6.198943566
5.5300,29.28422908,-22.89206139,16.49779122
5.5350,29.7236877,-6.882720782,7.489015046
5.5400,27.05830126,-11.48204554,15.25287176
5.5450,25.19501549,-19.11601252,18.9162478
5.5500,30.03174908,-21.94688461,34.21125697
5.5550,31.79630213,-10.47927219,30.49683554
5.5600,22.37378137,-3.429615024,14.24808247
5.5650,9.644184517,-4.001185984,14.36322259
5.5700,5.50461175,2.268217172,12.14205814
5.5750,4.181600444,-14.48104462,13.39842779
5.5800,21.64834476,7.262108538,8.606015559
5.5850,12.74890456,12.12852813,-10.42937382
5.5900,-0.7356469905,20.76393737,-10.61935439
5.5950,-9.224051511,7.77871576,-15.81268346
5.6000,2.402343838,6.289351408,11.7177937
5.6050,19.13609225,-3.08420021,10.2051938
5.6100,36.96203994,-4.257777835,17.46714703
5.6150,39.95530911,9.163672802,18.40017352
5.6200,29.13594539,5.699022879,4.102305134
5.6250,11.18168617,11.00539704,-1.14487658
5.6300,8.775738311,17.79093684,3.463161819
5.6350,6.306499149,8.93662702,-10.27050199
5.6400,27.57203639,8.478319004,-1.804080933
5.6450,36.33559651,12.81908916,-11.22587326
5.6500,37.19406359,7.910532677,-16.80861388
5.6550,33.44575204,0.8851418133,-11.22023436
5.6600,36.66447349,6.454748682,9.406305458
5.6650,42.5041693,2.332010286,13.23862592
5.6700,54.67869049,8.276307632,8.202498649
5.6750,47.15314098,8.351596057,-13.12479435
5.6800,40.34995492,16.03649175,-37.45676493
5.6850,16.34930562,9.811679387,-27.09436123
5.6900,14.06889354,2.037325535,-25.81718207
5.6950,17.30143626,11.69603834,-20.560426
5.7000,30.52865495,4.003810701,-27.18962062
5.7050,45.98672611,-12.48859817,-32.59717918
5.7100,55.07800027,-17.07509798,-13.8118028
5.7150,53.98256177,-13.66100937,-4.962412574
5.7200,50.56642538,1.652527161,-28.11301576
5.7250,48.78459783,14.55266849,-27.48929537
5.7300,40.12787849,-14.29426233,-17.3938075
5.7350,48.05121812,-19.76767764,-4.376125841
5.7400,59.46337204,-0.6890505018,-5.611260274
5.7450,45.47619713,-11.47595417,-26.98024873
5.7500,38.66581318,4.741155494,-44.16865065
5.7550,28.02826021,7.320082995,-55.48112894
5.7600,27.38196003,1.792433183,-43.69761867
5.7650,42.95517875,-0.878367192,-35.82877861
5.7700,50.36131679,-5.106790867,-12.0227952
5.7750,59.217963,3.277670279,-1.782158477
5.7800,61.56731934,0.8217858857,9.33622305
5.7850,64.28081085,-0.9430428803,3.354919179
5.7900,72.3066101,-0.5514353277,14.58333188
5.7950,78.15223427,-6.40118829,6.20316179
5.8000,78.19138636,4.402908247,11.86168535
5.8050,64.69440274,11.97336766,9.628316296
5.8100,57.23783508,18.18270674,-8.794226058
5.8150,44.05387108,-2.680537306,-17.35890896
5.8200,38.7442333,-27.58886463,-4.807537932
5.8250,36.81083261,-30.21137169,3.644181039
5.8300,45.57401974,-9.082183088,-22.29906498
5.8350,33.86740249,-14.3792712,-34.86249809
5.8400,20.38824537,-27.02998821,-26.48178779
5.8450,20.11312269,-28.66166635,-1.5593214
5.8500,32.16464365,-39.68853735,6.08487629
5.8550,42.86400317,-29.1392073,22.58105998
5.8600,34.79614223,-27.67582582,37.48827818
5.8650,25.59363364,-25.46531653,26.93134989
5.8700,23.95680153,-32.12449133,33.49710416
5.8750,22.18428495,-28.15752569,31.81169027
5.8800,25.75897154,-36.72859738,32.77197021
5.8850,34.24511488,-44.90722495,45.4858408
5.8900,45.52059764,-46.30406009,55.2065118
5.8950,46.73456098,-50.23528307,42.17149795
5.9000,48.28483634,-29.76095338,21.77997787
5.9050,27.31674766,-28.28044768,-1.3964802
5.9100,16.56243943,-29.73968969,-12.48212982
5.9150,19.27223972,-39.85175988,-5.833604178
5.9200,28.78050964,-35.89560793,13.90968961
5.9250,48.2816643,-32.05081816,16.33134879
5.9300,49.48719722,-18.38395413,9.837952512
5.9350,33.49822551,-3.261199816,2.501676466
5.9400,19.05633305,-9.067202356,-14.04685525
5.9450,18.88552701,-12.3226052,-3.965114091
5.9500,25.93182051,-10.85283867,10.77573904
5.9550,40.47238163,-1.492250746,13.66685726
5.9600,34.44753094,5.88347091,9.869711875
5.9650,29.17562667,6.893683054,-3.80136948
5.9700,20.99102637,-2.408912637,6.538183213
5.9750,35.54536057,-12.17774681,8.806623303
5.9800,51.54268542,2.327552841,12.99773407
5.9850,50.99106835,15.08876373,6.068356105
5.9900,50.20203345,22.09095493,-10.08969811
5.9950,34.41244696,22.88347848,-9.383636219
6.0000,42.96493756,5.54116967,13.69511159
6.0050,52.92901701,3.49330005,31.19688811
6.0100,73.4482214,11.93063415,25.62464979
6.0150,71.05316305,11.80090888,-9.530813951
6.0200,50.45542836,10.75101655,-38.29619981
6.0250,42.29351708,19.43139237,-35.53639935
6.0300,32.87055094,-16.64473445,-5.476192774
6.0350,59.37029302,-9.737486691,11.14453681
6.0400,78.02698289,4.872194934,21.39598464
6.0450,72.19364421,4.721983237,-6.136518915
6.0500,43.05427939,4.788376997,-5.89079588
6.0550,29.35688876,1.974278818,-3.540717985
6.0600,45.35429271,11.94782364,-10.16363399
6.0650,51.97247257,12.31785409,-4.834990992
6.0700,57.90714414,5.515575544,2.113124974
6.0750,66.37591009,-0.9596163114,-4.496067942
6.0800,59.82272001,-12.29317808,9.111587256
6.0850,53.95718578,-8.315820359,8.731009233
6.0900,49.09348181,7.402344427,-7.844196871
6.0950,39.54854845,19.25468746,-32.1971562
6.1000,24.2202598,-9.859733332,-30.06462672
6.1050,24.20016192,-13.75242215,-15.70634119
6.1100,45.10517312,10.99519129,-4.526641846
6.1150,57.35638207,6.102224566,-38.70025449
6.1200,54.53490585,14.63987873,-24.95712025
6.1250,47.81784702,0.9185905199,-14.18349563
6.1300,50.76796091,9.140839716,2.347361359
6.1350,60.7809205,14.47458475,-9.008316148
6.1400,54.24594861,23.81013198,-16.70170889
6.1450,48.74465491,33.8004474,-38.61944068
6.1500,31.15264819,36.75826903,-28.16926851
6.1550,30.417877,17.94186174,-32.46912706
6.1600,44.21413479,14.31656254,-19.33455694
6.1650,65.17909377,21.04277278,-2.202307603
6.1700,69.08494426,8.749829182,-4.19667516
6.1750,47.02147215,20.61615367,-6.140412976
6.1800,24.66259157,11.33525229,-28.33209945
6.1850,12.75350397,25.82400559,-30.35375224
6.1900,4.836308794,11.67597773,-16.2077806
6.1950,-0.6911287941,-18.78413839,22.96542422
6.2000,27.88808107,-45.77890698,43.27397975
6.2050,53.51525378,-26.92312322,55.20693343
6.2100,70.29779675,-25.35569133,5.460861744
6.2150,61.09781332,-11.29571948,-44.37462031
6.2200,42.05525117,-28.00422791,-66.54704481
6.2250,18.40529736,-31.5137807,-45.09616958
6.2300,24.69751859,-30.27219242,-25.49852163
6.2350,29.04483407,-40.32930275,-25.02596985
6.2400,40.44747472,-31.92106213,-38.58645407
6.2450,31.05456569,-45.09406682,-51.9690315
6.2500,33.84311688,-51.43201631,-34.443485
6.2550,33.9441371,-54.62348539,4.242558407
6.2600,43.10363382,-43.76598607,31.3769496
6.2650,40.77602046,-45.11103629,31.89769015
6.2700,32.40270516,-24.11192399,20.53429934
6.2750,15.09686241,-36.90671339,-4.68529507
6.2800,18.93283093,-28.2388963,-19.68666402
6.2850,33.0513508,-30.34416687,-15.80797789
6.2900,40.1635484,-25.52666257,5.17448988
6.2950,37.91223906,-37.73183666,-7.885916346
6.3000,33.09331495,-21.82891128,2.566256606
6.3050,31.24773911,-17.47849377,-0.6255387045
6.3100,38.9650319,-15.37778436,-7.455599213
6.3150,40.68995559,-7.454604267,-22.57734121
6.3200,36.56465786,-2.603220974,-25.33571937
6.3250,37.27810692,-10.38468234,-35.03158887
6.3300,32.21850754,-16.74262364,-33.00580441
6.3350,39.57210877,3.436639797,-28.74042514
6.3400,38.93554656,-7.484903808,-23.55706888
6.3450,45.25247963,-14.3283788,-8.270266147
6.3500,43.16615971,-8.412911438,16.82865359
6.3550,38.99702133,-5.134336244,20.22506904
6.3600,46.43090861,17.86841021,16.08402606
6.3650,47.03598519,15.56731647,-6.773267584
6.3700,45.62448341,19.07155743,-0.8580081392
6.3750,50.51796085,21.42812268,3.807447858
6.3800,55.39007848,11.33365229,12.56085613
6.3850,58.67946381,20.22280267,8.201882214
6.3900,83.51912965,22.92234328,-12.07440604
6.3950,75.16714419,25.09758188,-14.74887897
6.4000,71.86957284,4.469906742,-7.129258088
6.4050,68.00047572,24.39521632,18.69361641
6.4100,61.76036361,15.5733264,33.22011429
6.4150,59.47357777,19.24836144,33.81471621
6.4200,53.56535316,9.331950071,28.81708052
6.4250,39.77960051,9.761593432,45.80943908
6.4300,45.62918031,-1.99666652,42.51358959
6.4350,43.51167683,-8.854694321,50.41863064
6.4400,39.77691445,-9.026565774,38.25760409
6.4450,44.03447284,-1.449542773,3.220175821
6.4500,45.06872934,-6.921332449,-12.04464913
6.4550,31.67634447,-0.9210811969,-9.033844838
6.4600,37.94936234,-6.134482254,4.253842794
6.4650,52.6809681,-7.525699068,16.24080644
6.4700,67.74125403,-5.362963355,12.7340657
6.4750,58.1977024,-3.812540827,1.883525997
6.4800,36.01839955,-21.93293891,-4.677274244
6.4850,18.63822696,-18.80441651,5.733010847
6.4900,22.59183809,-25.08654689,12.60968812
6.4950,33.68180055,-29.61711203,10.10316063
6.5000,51.07866498,-37.29134237,-7.586028903
6.5050,38.26741772,-51.04876724,-14.84570268
6.5100,15.7545262,-53.25960341,-7.421681509
6.5150,3.183019882,-44.30064639,7.70556275
6.5200,2.011556665,-28.65104788,2.919940536
6.5250,15.9416058,-28.83327482,2.703482975
6.5300,16.21711183,-16.72484871,3.670713009
6.5350,16.26843171,-30.71353586,-5.372729575
6.5400,28.90189073,-22.00437078,1.458007209
6.5450,27.06436587,-8.540861958,10.096577
6.5500,30.87932149,-15.51323075,2.132311083
6.5550,26.50207228,-8.051466548,1.992528059
6.5600,24.47493378,-16.72879201,8.553134521
6.5650,20.78809199,-33.40491537,13.25090119
6.5700,26.30092463,-25.9111856,10.58609364
6.5750,20.1498176,-33.66943904,-1.489287304
6.5800,31.4826532,-35.80673646,-15.91191028
6.5850,32.33505626,-37.16638225,-15.3143194
6.5900,36.59588955,-32.95266142,-6.049424978
6.5950,35.39875313,-34.37093655,-4.131836599
6.6000,46.65914435,-17.51819443,-0.9667176287
6.6050,37.74078644,-13.577109,1.907270583
6.6100,39.13099314,-16.24703953,-4.143671351
6.6150,39.5552359,1.049512219,-4.335634869
6.6200,34.1215669,-8.803406949,0.04954116644
6.6250,34.24827395,0.8095924932,0.2168856563
6.6300,21.79839954,-10.53779921,10.07715543
6.6350,10.99222311,-11.42278282,6.788923813
6.6400,3.33774305,-16.4925624,26.11562948
6.6450,5.171292901,-8.231831032,44.75947646
6.6500,11.23004664,-5.719178587,52.74454917
6.6550,15.68493539,-25.99093547,39.95833894
6.6600,36.56397941,-1.080242265,23.94855784
6.6650,41.88281024,-22.56532339,-7.76627236
6.6700,47.28682216,-17.61077508,-17.52491365
6.6750,42.35831718,-21.79357951,-14.84174382
6.6800,51.92446704,-21.26575908,-6.385720664
6.6850,75.29851041,-11.23999833,-12.82669334
6.6900,75.81643192,-20.70338722,-19.02330838
6.6950,77.98120203,-11.03146938,-13.76920562
6.7000,72.65792011,-11.81830751,1.573958739
6.7050,54.50530451,-21.22257846,14.83068514
6.7100,41.29992309,-19.0632687,26.64782952
6.7150,35.27264556,-13.26665076,39.10017618
6.7200,36.99115918,-12.09246213,30.58029373
6.7250,33.04041938,-3.682228846,23.61713461
6.7300,27.51816727,-16.44862816,22.68477449
6.7350,21.04309376,-18.05697318,20.80227393
6.7400,13.04524217,-17.30512374,31.11823002
6.7450,20.7880975,-11.23120402,31.24958191
6.7500,35.40965775,4.048807326,19.29587982
6.7550,49.23140946,-5.699251797,2.132513677
6.7600,57.73978153,6.1588034,-9.986244081
6.7650,48.28772924,0.7254942223,-7.981693112
6.7700,41.62784143,15.67473046,3.096228649
6.7750,55.14663931,14.73100491,7.736358162
6.7800,52.61189643,12.15293216,8.901749102
6.7850,42.40775676,8.708460242,9.256532441
6.7900,40.40229832,9.710516161,12.52260391
6.7950,32.93260848,2.647801674,15.37679531
6.8000,30.45284464,11.44079337,18.91221053
6.8050,11.64502211,5.803130656,18.32093362
6.8100,9.330473852,4.668149103,25.69720267
6.8150,4.75757208,-1.466138442,23.48432922
6.8200,11.94223633,5.491668479,27.79402665
6.8250,20.06861243,2.476527521,18.30642298
6.8300,22.99904459,11.25479092,11.36839746
6.8350,20.81248038,2.867027471,5.703838465
6.8400,32.79611804,17.26453895,5.768884322
6.8450,25.56522063,11.76718113,1.852574214
6.8500,59.21563101,11.33646648,-3.404849358
6.8550,50.59086749,21.33140698,8.62224113
6.8600,47.00943814,4.1205531,15.99511619
6.8650,45.89773821,7.497325236,21.25322142
6.8700,35.97746406,14.26180017,23.42234226
6.8750,35.64728549,-0.8231565004,20.0067146
6.8800,40.51294623,-9.78602478,17.28816329
6.8850,34.30990295,-18.63249611,20.24231386
6.8900,23.15204169,-19.77608885,15.05327017
6.8950,23.06619738,-23.03095917,14.93103483
6.9000,34.55331092,-11.60809804,25.26332861
6.9050,33.91723977,-28.31306182,28.34519952
6.9100,30.07454484,-6.566978486,45.63482621
6.9150,51.01873919,-19.66112797,41.96910565
6.9200,62.13000671,-11.42335765,33.32715866
6.9250,64.0985962,-23.16009285,27.7051833
6.9300,68.157782,-20.57712844,27.81028294
6.9350,77.33958336,-34.65205985,21.45155422
6.9400,76.91435798,-42.62311968,25.18696123
6.9450,80.83226512,-39.22026354,28.43023078
6.9500,86.84686884,-38.05179404,28.58747321
6.9550,83.46575802,-53.01131691,28.36278836
6.9600,80.51017146,-45.75939841,38.9914174
6.9650,66.41706783,-57.29159698,37.9412225
6.9700,51.34809771,-48.8211689,45.80714102
6.9750,51.11554998,-69.55867386,49.37972482
6.9800,27.27556103,-61.94269884,56.11978045
6.9850,14.58674322,-78.75723186,52.71665869
6.9900,2.832400635,-75.43558698,57.07957491
6.9950,-0.9005511359,-70.00996157,56.59963238
7.0000,-3.004878028,-57.49263879,57.34024
7.0050,8.891475776,-45.38146858,57.42390083
7.0100,13.59316169,-38.33623805,48.00112729
7.0150,28.03392658,-15.30088485,48.15444581
7.0200,24.18423497,-21.26449945,42.15145835
7.0250,29.35989192,-9.532422542,34.025719
7.0300,32.96550341,-3.35851515,20.01574902
7.0350,44.29085652,17.93504035,14.31424045
7.0400,55.17946725,-5.082408522,5.493684394
7.0450,57.00241409,-13.53471269,6.035733831
7.0500,39.55627484,-15.61247446,18.76449321
7.0550,25.21057048,-11.63712354,24.88643325
7.0600,11.00012955,-16.6763607,30.42003144
7.0650,13.84308711,-8.645541695,37.06750429
7.0700,0.972557721,-13.41955643,38.12448753
7.0750,-9.243584082,-15.20315085,31.29914701
7.0800,-16.59608062,-5.543796995,35.70494386
7.0850,-42.75455466,-4.116468059,40.39466074
7.0900,-43.29201674,-9.47075474,48.97357998
7.0950,-57.79640606,1.042129125,44.85737982
7.1000,-60.88946076,6.3066048,41.41493201
7.1050,-42.02314682,17.33620426,37.22356739
7.1100,-30.85570778,44.29611798,36.50101425
7.1150,-23.12055633,46.02518194,32.62988455
7.1200,3.104579454,70.7379557,31.77281281
7.1250,3.835455746,65.36604092,23.64693342
7.1300,8.220933672,68.79058212,13.736728
7.1350,9.181207498,60.77080965,11.13208806
7.1400,11.26923343,62.76008183,12.06990046
7.1450,19.51369844,60.83300901,14.02440666
7.1500,5.907235902,54.73538681,25.43057727
7.1550,5.085735801,74.24104987,29.75397312
7.1600,3.632109551,54.93783879,25.77066543
7.1650,5.469255083,53.41115108,28.78660483
7.1700,-8.091314739,40.8858464,44.03791546
7.1750,-14.03866176,51.36400239,30.01985898
7.1800,-21.64823422,42.19638456,11.70888199
7.1850,-42.40591886,37.4558275,19.75399112
7.1900,-27.05736432,40.00341745,35.05620657
7.1950,-29.85522534,22.23734604,22.80568321
7.2000,-28.31844159,24.45652009,31.72669711
7.2050,-22.62721585,19.74824703,24.66420096
7.2100,1.468255841,35.60739651,20.36517953
7.2150,30.71148021,38.78180994,7.23505548
7.2200,44.97861505,33.73502154,0.3459177537
7.2250,70.37968681,39.06428608,-4.961668087
7.2300,80.99985703,25.77442758,-10.06652421
7.2350,92.81170018,42.36968231,-15.31955144
7.2400,89.56199571,26.06117165,-13.69697731
7.2450,87.66608522,37.23792101,-19.75787808
7.2500,58.13097273,41.19225798,-7.966942727
7.2550,45.4038565,31.5006754,16.16858657
7.2600,42.9310092,30.39929294,32.47628214
7.2650,21.70026362,24.86097595,32.778622
7.2700,29.34452699,15.61465268,9.403319929
7.2750,33.86840965,-8.553815265,-6.791052724
7.2800,31.94703551,-3.356884961,15.86852153
7.2850,32.79655157,-6.987284965,20.89903697
7.2900,46.54783576,-6.618066709,15.76519415
7.2950,33.39096559,6.607008587,8.095687117
7.3000,32.67564491,5.627911649,11.1078491
7.3050,26.99415953,16.49089832,13.39065505
7.3100,23.16821284,12.09546613,17.34028408
7.3150,26.71130771,15.71051068,10.48246289
7.3200,32.0327003,29.21976617,8.227852759
7.3250,47.82679167,24.06655111,8.651692074
7.3300,51.85974193,23.35183524,8.573438552
7.3350,43.28967906,25.16449981,4.615365598
7.3400,44.27836573,16.9500253,6.853309031
7.3450,34.55317855,4.479281993,3.759846762
7.3500,10.947066,-4.167091498,5.920234016
7.3550,2.635663584,-17.40138109,12.47290048
7.3600,5.320765375,-22.75574487,14.03441615
7.3650,16.20343459,-22.16742092,-1.266002719
7.3700,45.376884,-22.19894849,-7.914181044
7.3750,57.06585852,-29.11438497,-5.854229967
7.3800,48.44946527,-9.606171402,5.124368022
7.3850,53.84892017,-2.422632045,14.3632691
7.3900,46.49926783,4.77590322,11.08976073
7.3950,40.40210349,8.140776984,1.988882389
7.4000,40.90278363,7.444262565,-1.698107631
7.4050,42.28847592,5.09129446,-1.745013148
7.4100,52.0110134,-4.574394629,3.283240553
7.4150,37.26645665,3.629657214,3.54956322
7.4200,30.95480964,0.476637133,8.086537094
7.4250,28.87744915,-7.419101847,6.468531515
7.4300,14.71534945,-0.5184081249,7.111964679
7.4350,-0.472600511,-16.66948244,11.39238138
7.4400,-19.84445924,-16.13080438,13.59894801
7.4450,-21.77365258,-15.19968637,17.31749168
7.4500,-12.31251174,-20.73002347,11.01468219
7.4550,-4.601632345,-30.27067727,4.862631721
7.4600,8.433804061,-21.17312601,7.560089362
7.4650,18.63886835,-13.0353085,11.86463173
7.4700,27.73579854,-11.62857614,16.57943003
7.4750,12.3998803,-9.063827029,10.31650553
7.4800,8.322788684,-4.193066182,9.876323025
7.4850,7.983728585,6.623038722,6.29478423
7.4900,17.32873121,-2.698553049,5.403104241
7.4950,28.08137789,-5.925087614,-1.295657796
7.5000,41.76642563,8.355262726,-1.826702313
7.5050,28.44560718,8.354557805,-9.392211841
7.5100,11.42186335,3.646218558,-7.30139582
7.5150,24.20573882,14.40896568,2.028514077
7.5200,4.126418858,13.45942335,0.5031462573
7.5250,10.14853272,8.640307574,3.582366094
7.5300,-20.32767523,2.562125735,3.989881283
7.5350,-19.17997687,8.529159701,5.43084226
7.5400,-18.07296473,1.761960332,3.141830236
7.5450,5.701964679,19.38116036,5.465014057
7.5500,6.09043685,8.352682126,0.3325140369
7.5550,11.9201776,-0.5419490942,6.211870879
7.5600,6.204860717,4.581187006,5.449880978
7.5650,16.01652798,8.432516352,2.536393372
7.5700,12.98241888,6.927471637,2.392623852
7.5750,13.47539538,20.42628478,-0.8526658998
7.5800,32.18704158,0.07247352526,1.545148077
7.5850,20.66920948,2.295926223,-0.7345971377
7.5900,21.12416905,0.8513731362,2.179433194
7.5950,1.2608547,8.952632196,6.294960321
7.6000,0.4133876402,7.427296867,7.022152164
7.6050,11.27724021,11.99961376,9.936750207
7.6100,20.01989526,9.84927342,6.861755104
7.6150,21.24276547,11.48653421,3.844132405
7.6200,30.47995619,10.93814721,4.67038959
7.6250,36.58554875,8.838478394,4.189330157
7.6300,36.92180206,5.110596382,1.316359947
7.6350,33.36087096,4.584569821,-5.509677251
7.6400,24.59357577,-10.01684952,0.2837083207
7.6450,25.85044215,-2.127774377,10.26962204
7.6500,16.82257129,6.495552478,14.82101892
7.6550,17.55500077,6.188084455,19.1392164
7.6600,26.44021386,9.503385481,25.01004605
7.6650,24.24857482,7.147370185,26.8544833
7.6700,21.327812,12.81382118,21.32721594
7.6750,17.57090457,5.194431604,17.23257844
7.6800,19.47027921,10.44317328,16.37504977
7.6850,19.73209593,4.792893481,12.94043267
7.6900,14.66523451,12.84262044,19.2419533
7.6950,8.126055674,10.44879993,12.16759054
7.7000,10.31714724,6.157355154,13.02774648
7.7050,0.9085604014,-7.412281178,5.335414033
7.7100,-5.258010816,0.4228723438,12.46459939
7.7150,-6.065240768,4.533647217,2.621729919
7.7200,-8.66062702,3.524516981,0.3174394233
7.7250,-3.481368103,7.473003572,2.067090211
7.7300,-4.721432936,6.025974033,2.400877348
7.7350,7.813262357,3.089094738,-2.52303766
7.7400,15.78749043,11.46331149,-1.961195975
7.7450,3.78645671,1.053824998,4.98212552
7.7500,4.498105972,17.85933411,11.36642144
7.7550,-10.05800888,9.847210092,6.116516782
7.7600,-14.58485509,12.0360243,2.358300393
7.7650,-17.69865051,11.04727422,10.07609917
7.7700,-14.56407293,5.081852404,9.217106191
7.7750,-24.03989064,10.25983458,0.6497814888
7.7800,-23.21714214,7.730731572,2.53219096
7.7850,-6.466605974,12.84788098,-3.75244595
7.7900,3.905978938,20.4554931,-8.884679073
7.7950,-1.654968878,-3.457711033,-10.98402401
7.8000,-6.418773116,3.529979364,6.682470961
7.8050,-17.41943017,15.66540196,6.301929776
7.8100,-38.14898252,7.851472968,8.725872377
7.8150,-26.30805576,16.74585357,9.11361126
7.8200,-34.53601576,17.07714458,9.611800072
7.8250,-19.30090738,13.6710202,15.65347659
7.8300,-21.83914346,32.11989455,15.43099799
7.8350,-20.53744848,7.813932745,15.13869208
7.8400,-10.70582148,30.12642313,17.51047042
7.8450,-20.58187704,26.33902439,18.07512519
7.8500,-12.06103955,10.38437158,23.99767816
7.8550,-28.44282827,30.60055333,11.25490735
7.8600,-34.37178424,29.60107748,12.7573014
7.8650,-41.6118934,31.85927521,10.99149621
7.8700,-28.51783889,29.16734701,20.02895941
7.8750,-15.24430542,25.76694856,21.73963375
7.8800,-12.79432036,20.92597755,17.22154502
7.8850,-13.84927512,26.78164426,18.28653414
7.8900,-19.95199593,16.89957061,16.72930594
7.8950,-37.23931904,15.4263811,22.8585909
7.9000,-43.04947229,29.84927449,29.30855372
7.9050,-44.03282516,34.48201542,23.75376704
7.9100,-29.71344899,37.75398871,26.68462418
7.9150,-19.65472325,27.12973672,18.70888511
7.9200,-12.57244201,20.85707585,22.05890386
7.9250,-1.898692272,31.42950929,17.83227212
7.9300,-8.763412188,22.23286877,14.38495253
7.9350,-18.37623087,27.41314576,17.50932105
7.9400,-27.8148384,27.84047311,23.66985468
7.9450,-31.03823461,17.91357863,24.30913814
7.9500,-28.78957229,22.26771073,23.1622044
7.9550,-22.86314188,14.72953279,25.93125945
7.9600,-18.86738095,25.03091288,27.31125846
7.9650,-19.57067547,15.51395184,33.08832148
7.9700,-9.456753915,14.31000804,29.17259765
7.9750,-8.012854491,19.21851229,19.73146891
7.9800,-7.359020788,26.73147664,23.02621339
7.9850,-18.3883727,20.80741959,22.18887829
7.9900,-6.016692294,23.29172836,21.1819243
7.9950,14.58649029,30.9333609,16.96221929
8.0000,13.20508749,8.576929097,25.38482053
8.0050,0.61510403,21.00306898,28.82947171
8.0100,-25.77185829,15.8097556,23.647471
8.0150,-25.46797943,17.41533565,23.9865983
8.0200,-19.39139031,16.20687238,26.49507406
8.0250,-5.563128796,14.04551375,30.6497336
8.0300,1.521857867,22.74325873,31.79567611
8.0350,-10.82116432,14.54577863,30.28077646
8.0400,-12.49629479,15.49091993,31.56328092
8.0450,-18.83581887,24.35064289,31.40787967
8.0500,-8.360716868,22.34377268,35.38341746
8.0550,-11.94603018,18.06821272,31.33844713
8.0600,-3.749410536,24.71064788,42.12224965
8.0650,-24.48096315,19.58147277,35.69460602
8.0700,-15.32192693,11.62231915,34.37145263
8.0750,1.027933121,21.06523401,33.58384622
8.0800,-8.75376815,16.65250001,33.58155354
8.0850,1.025210186,9.667237419,38.07314598
8.0900,-5.885258522,8.948987104,40.44884308
8.0950,-4.96200528,13.57759594,42.56308511
8.1000,-8.292148476,15.35959459,37.44887405
8.1050,1.279681135,12.08168704,31.34095927
8.1100,20.80165707,13.15848196,33.39784938
8.1150,28.42600323,2.489448807,30.93632069
8.1200,28.68792873,-1.272227258,32.41852078
8.1250,23.11023295,0.6540265095,33.09179041
8.1300,17.77045861,7.51430839,35.99700221
8.1350,13.73041216,-4.141629114,37.73716053
8.1400,-3.721106657,-12.23920315,41.6868668
8.1450,7.915506211,7.160897096,52.50098053
8.1500,4.770351744,11.72912957,51.62377966
8.1550,-2.982367396,-4.961406508,45.66252781
8.1600,9.762165762,0.8080631469,43.8470515
8.1650,6.220879748,3.470794355,41.25437412
8.1700,9.100024934,1.008398253,42.49092074
8.1750,8.438956945,4.262268909,41.45115095
8.1800,-3.563809117,-6.011599928,40.41313213
8.1850,0.1724246494,1.818651638,42.75110412
8.1900,2.907387143,-4.683517756,43.94423254
8.1950,2.052636911,-4.009238828,49.75391738
8.2000,6.549735711,8.047380177,48.8369272
8.2050,-0.6142517976,-4.803980106,42.88778045
8.2100,6.323775606,-0.9862961965,39.55458716
8.2150,9.710124616,-2.640460198,33.97728813
8.2200,1.999839524,-1.569404465,33.41988607
8.2250,17.35684541,-7.926659521,30.6521778
8.2300,12.66104391,-10.94218784,33.0750995
8.2350,8.186007278,3.96289687,35.18389591
8.2400,4.689746545,0.6186345775,36.5684402
8.2450,8.075577909,1.460769588,38.58633028
8.2500,-3.175906408,7.061061851,42.1032201
8.2550,-5.534968435,1.826139506,44.87801053
8.2600,9.664743248,17.78110508,45.52442265
8.2650,-0.6275548522,8.267192658,46.75960557
8.2700,4.711134627,5.40773887,53.53367192
8.2750,10.39802535,11.44643596,51.40491397
8.2800,15.1950859,9.9523231,44.93215783
8.2850,9.810272091,-2.34146759,38.47783658
8.2900,19.47802731,-7.517161233,40.93794801
8.2950,23.55462738,-8.618931827,38.20160919
8.3000,25.74772739,5.034494876,35.97611066
8.3050,23.73489057,-2.257179205,30.29296744
8.3100,18.10903089,-2.777550191,28.71232048
8.3150,37.06137838,0.2592982377,22.50135276
8.3200,28.08757384,-4.203583567,19.12122062
8.3250,26.01341994,-5.246156331,29.69280774
8.3300,35.94567048,1.159343662,37.32371604
8.3350,35.12682579,-2.23779087,35.34160409
8.3400,35.20200024,-3.14005625,31.56277431
8.3450,35.28208571,-9.623719355,27.66400279
8.3500,36.99469282,-4.574836864,30.80194875
8.3550,43.21817722,-15.65881822,29.01278444
8.3600,39.98973939,-13.21252959,23.21201228
8.3650,43.2312079,-1.909074863,25.37281679
8.3700,36.7275559,-1.752469459,30.65662837
8.3750,40.77198011,-11.39041451,26.54527217
8.3800,31.66956151,-5.176430953,29.2606109
8.3850,35.663429,5.564289405,23.3280603
8.3900,49.9579473,-10.18177754,22.37396344
8.3950,54.78210068,-9.322357616,21.4528711
8.4000,56.19247919,-10.48667232,15.9010103
8.4050,59.69431366,-10.6726808,13.52288814
8.4100,59.71918663,-18.60685443,16.2921043
8.4150,66.81122982,-22.90336602,19.41835608
8.4200,59.58708232,-10.17549428,21.90247217
8.4250,50.75934579,-14.44396884,19.64025139
8.4300,56.43557234,-9.711677595,18.585428
8.4350,58.15989799,-14.51243154,13.03793337
8.4400,59.29611796,-19.18099149,12.79213715
8.4450,61.60025857,-15.65478621,8.738770209
8.4500,56.71243363,-17.52629707,16.6041998
8.4550,52.64619965,-19.43867729,15.32448704
8.4600,50.66991575,-29.35230083,18.98292503
8.4650,58.24003672,-14.24396447,17.97569523
8.4700,62.52767926,-23.0992736,13.29589258
8.4750,63.90525761,-22.22137411,0.2691210134
8.4800,65.38037062,-29.59197674,-4.58969901
8.4850,67.95599941,-21.98365859,-8.196975736
8.4900,63.46829069,-26.86234885,-1.809821619
8.4950,73.17713715,-32.26157048,1.183343748
8.5000,64.97832805,-22.16245553,8.046292601
8.5050,74.34085367,-21.59737464,3.256323694
8.5100,60.0477038,-25.68994446,3.227551589
8.5150,60.48895085,-23.7021796,9.579795856
8.5200,53.11799546,-8.000460597,14.30804214
8.5250,54.9201356,-12.54943007,13.27389206
8.5300,51.63656673,-29.35472224,2.36081755
8.5350,53.47804124,-26.77489659,0.5147122279
8.5400,53.53225862,-30.50442008,1.408954031
8.5450,58.818545,-20.58921052,3.125345338
8.5500,55.68524798,-16.02883063,5.761416602
8.5550,63.46847189,-17.47379464,-0.74824118
8.5600,63.84530343,-22.94845306,-14.69898124
8.5650,69.85949671,-18.52434941,-18.9817168
8.5700,61.85800478,-16.93174054,-17.43441501
8.5750,52.48949792,-26.43138243,-12.98237545
8.5800,42.63308009,-16.48988216,4.216130112
8.5850,34.91627848,-11.03324242,11.69352804
8.5900,54.64361244,-21.36246011,0.9051083341
8.5950,42.98623833,-10.95299571,3.010451808
8.6000,44.46258104,-14.68391412,-7.492378127
8.6050,46.81595067,-26.10833762,-10.84014059
8.6100,53.99440377,-4.289507501,-6.002347874
8.6150,49.60921922,-12.61763023,-7.724705489
8.6200,57.6973129,-8.580102221,-9.38847436
8.6250,48.02278089,-5.04114866,-10.35646291
8.6300,62.99446295,-10.70740163,-15.13685637
8.6350,52.15057553,-9.745985775,-10.57175781
8.6400,48.67387155,-7.965572495,-4.078964262
8.6450,63.86551522,-2.857426037,-9.900464101
8.6500,59.55039545,-4.709000255,-5.402742194
8.6550,50.33231223,2.868283171,-7.661018434
8.6600,50.94825697,-1.701788198,-8.850569365
8.6650,51.79382354,-4.550157322,-9.316026674
8.6700,57.83195749,-4.986819738,-11.19023801
8.6750,44.3150404,-10.97174697,1.339756787
8.6800,36.62585178,-4.599067877,7.735235843
8.6850,45.67373521,-1.492698644,3.022508758
8.6900,58.37812945,4.418158852,-3.299324968
8.6950,53.81932604,-2.522123136,-3.770852735
8.7000,57.19682376,-5.659129006,0.0697477233
8.7050,65.58293966,-1.521230855,6.103140104
8.7100,61.89558765,0.5831741862,-1.493266248
8.7150,60.15206191,7.207391865,-5.952551637
8.7200,55.64897187,-5.098182065,-8.984510996
8.7250,52.04568988,3.79730333,1.74658158
8.7300,50.15905796,-16.45490706,2.888055995
8.7350,49.11708553,-3.454710937,2.393865177
8.7400,59.04284015,-4.287822717,-5.35943173
8.7450,51.91081545,-8.744550494,-9.889659929
8.7500,57.6177127,-2.955005564,-1.674012246
8.7550,54.25705252,3.26085386,11.78380016
8.7600,39.92822981,-7.138020842,29.4543115
8.7650,42.72884584,9.383071883,26.61965459
8.7700,37.08162727,8.955679784,28.89343505
8.7750,41.38025751,9.103396409,25.63338781
8.7800,47.28440118,14.11613919,29.87481346
8.7850,39.46321613,1.705361796,26.18944676
8.7900,46.80714533,1.001255966,17.74639209
8.7950,35.01306692,1.10772236,12.41829081
8.8000,34.97809724,-6.809231485,10.50060503
8.8050,37.96977975,-5.476779254,7.069069045
8.8100,48.03547029,-5.028613665,3.494115746
8.8150,38.57453867,-8.149412114,-0.6733609735
8.8200,49.29016012,-8.288691008,-1.156558291
8.8250,40.21896831,-15.17923833,14.33563931
8.8300,42.17146954,-14.43520699,14.16259214
8.8350,43.76146007,-5.099703646,16.69484672
8.8400,42.17350948,-2.723113111,9.268117641
8.8450,30.72395349,-15.62546014,14.68599533
8.8500,34.09946486,-11.96493876,20.26533907
8.8550,37.32476409,0.4900586061,30.3026817
8.8600,29.45671903,-14.39058585,23.38217264
8.8650,25.93497853,-0.4831133974,17.57002232
8.8700,33.0004902,-7.880878224,10.32703563
8.8750,29.70083956,-19.50569097,15.40316252
8.8800,20.45941559,-16.30993285,28.46759466
8.8850,29.45312171,-12.79240741,12.24685126
8.8900,41.96247377,-0.5438961563,-0.735407593
8.8950,29.09010247,-7.501532188,-2.94802678
8.9000,35.06752165,-3.176735436,4.942221451
8.9050,42.08613248,-7.048758056,10.45996828
8.9100,34.24949449,-6.709916732,28.79597813
8.9150,41.73019825,-17.62867275,12.89429406
8.9200,39.91325159,-10.97309804,14.67465567
8.9250,25.38614352,-9.343361959,18.8027536
8.9300,36.96560081,-7.697744307,12.70498097
8.9350,42.44197564,-1.127595269,0.3261484842
8.9400,33.45525572,-0.9030371293,-2.576321585
8.9450,28.36695177,-14.24051048,-5.253244572
8.9500,31.81101231,-8.964501435,1.426698287
8.9550,28.62658232,-11.05472119,13.12844282
8.9600,44.95491201,-10.27430437,3.897556574
8.9650,47.31272674,-6.908363043,13.62999626
8.9700,51.33653376,-6.109763439,5.225902557
8.9750,37.64670837,-14.96669057,0.3470757307
8.9800,46.84256676,-13.67830325,-10.82196283
8.9850,36.41229286,-11.76021944,-6.508924886
8.9900,34.34054908,-7.60887106,-1.892098835
8.9950,25.74820989,-18.00181183,4.75599763
9.0000,40.83946299,-21.83466506,-4.306309812
9.0050,40.14380982,-10.55693949,-3.251196568
9.0100,42.71939542,-10.63076595,-3.856871758
9.0150,34.96617674,-16.60697131,19.6370797
9.0200,31.36742598,-16.957692,35.02231312
9.0250,39.12937758,-15.39026236,36.12057125
9.0300,45.47014353,-1.855499694,19.43345969
9.0350,37.61222059,-16.62649144,-4.090577511
9.0400,42.76170083,-12.60631378,-13.07972222
9.0450,40.5082576,-12.77058263,-21.64965323
9.0500,38.08544945,-16.31600556,-13.97545599
9.0550,38.3558289,-21.07657588,-6.428008147
9.0600,32.52254723,-14.64682137,5.192841751
9.0650,42.96561114,-3.097119698,4.766654989
9.0700,37.07686114,-7.544751701,1.904029576
9.0750,40.69656338,-5.408864389,-8.943419157
9.0800,44.00275267,-9.507867552,-9.590282037
9.0850,42.80240493,-12.86760445,11.30548466
9.0900,30.65767276,-8.053729284,35.54723303
9.0950,46.97616329,4.102890768,12.78931197
9.1000,35.61894859,6.720519945,0.387022621
9.1050,29.55184991,-2.71741897,-8.612876889
9.1100,30.04638507,-8.339064096,4.090380257
9.1150,41.3761267,0.1763715275,23.05972152
9.1200,43.96466369,-2.649863369,24.30716258
9.1250,43.38639212,-1.152978827,4.13589575
9.1300,37.53985591,-5.111789862,-19.51330231
9.1350,38.90744285,0.3425102953,-11.75068949
9.1400,36.14226454,-7.118508247,-0.6810843465
9.1450,42.25726929,-3.658741191,11.93508142
9.1500,45.47264653,-1.93272911,13.24365783
9.1550,42.57360793,-5.614804163,6.699477506
9.1600,46.17820037,2.999285287,15.27225244
9.1650,42.24052311,-19.87634017,12.28266427
9.1700,40.54055911,-18.90138531,5.877156753
9.1750,44.8364724,-14.3066727,-13.29937007
9.1800,35.59475752,-3.162497794,-12.31155703
9.1850,27.36595289,-19.17925907,-19.19901052
9.1900,30.48291375,1.07044854,-10.39052206
9.1950,30.50532172,-4.873739229,-12.01380635
9.2000,41.30912875,11.53544763,-0.4694928511
9.2050,47.41950269,-2.572948103,3.686176653
9.2100,43.35757408,6.402087038,13.74282198
9.2150,40.89360508,10.12456274,2.9422838
9.2200,37.0540158,-2.349675828,-12.57227624
9.2250,30.08530885,-5.505690187,-3.569717489
9.2300,33.27952424,2.716314558,-11.32152846
9.2350,27.1150088,-2.774205395,-18.3426399
9.2400,31.26189983,-5.037970016,-20.45238664
9.2450,31.16698178,-7.167574337,-10.0560053
9.2500,37.88712662,-17.22517788,-10.30992967
9.2550,42.15050833,-8.701682229,5.512485665
9.2600,46.72356147,-21.95171561,1.53356142
9.2650,49.57712725,-6.701176219,14.9913874
9.2700,54.73302253,-1.546829076,7.046083959
9.2750,44.34072196,-0.02251861289,-18.1152625
9.2800,38.94209833,-0.623491966,-21.51437382
9.2850,43.65222199,-4.763805382,-16.067665
9.2900,52.18679765,-6.79914558,1.178533024
9.2950,43.1971878,-5.691608891,1.832185899
9.3000,39.29732177,-10.57275057,-12.41040573
9.3050,36.01125963,-5.648974045,-26.35837973
9.3100,31.283915,-4.100047945,-30.49909141
9.3150,31.12849818,-9.412909004,-20.62731461
9.3200,39.78512331,-16.21505316,-28.63403835
9.3250,39.49490842,-5.151515508,-18.64406219
9.3300,30.43635198,-11.4657767,-16.77430461
9.3350,27.74693525,-11.90135987,-31.02769683
9.3400,33.11584915,-11.44532398,-17.36217867
9.3450,38.17053847,-18.27862416,-5.003861138
9.3500,50.09392964,-11.72383186,-4.419639332
9.3550,54.46703263,4.681530728,-10.64229365
9.3600,51.18371936,2.638150258,-9.77240469
9.3650,45.25542291,3.924355613,-20.86493057
9.3700,44.59296267,-0.6145467365,-17.24911119
9.3750,46.6551769,-9.202562971,-18.01796398
9.3800,66.26499075,-15.12512516,-7.101109479
9.3850,70.24929013,-17.30743624,1.308761722
9.3900,65.9040032,-10.37024594,9.17619309
9.3950,58.65569714,-17.59816311,-10.40777628
9.4000,46.26510938,-23.51244756,-20.70542085
9.4050,42.66441703,-12.16445745,-28.63901617
9.4100,46.98234585,-17.24715742,-19.14188347
9.4150,56.79066338,-27.20072208,-13.87792482
9.4200,71.60458345,-8.069124363,-14.90340248
9.4250,63.11576994,-1.733157568,-23.49207064
9.4300,44.75073352,-1.370687056,-33.98820932
9.4350,36.33356457,-2.584310613,-39.31312792
9.4400,38.16180895,-8.471530719,-31.85503701
9.4450,46.04149989,-8.084890895,-15.34303506
9.4500,54.34143192,-7.457792609,-16.13436656
9.4550,54.9808321,-0.1726474296,-9.125631125
9.4600,47.09676526,-21.45112095,0.006864120773
9.4650,54.7512848,-12.51569741,-5.642752035
9.4700,44.44406758,-7.380580961,-11.22520987
9.4750,31.44626507,-2.5527098,-37.71842645
9.4800,33.92247455,-4.233764275,-33.17214076
9.4850,37.88868879,-4.903462082,-22.61911637
9.4900,49.12366589,-25.74659096,-13.83333155
9.4950,53.02811201,-23.8540461,0.5511998992
9.5000,46.75060709,-0.4426982123,-10.84630505
9.5050,32.72864969,15.22787455,-29.44418096
9.5100,21.63041606,16.73368683,-35.0929785
9.5150,10.56565102,4.275909022,-27.84747057
9.5200,23.3775489,7.444740025,-19.47285422
9.5250,33.41135239,14.95896454,-19.62228914
9.5300,26.99049584,21.54477691,-29.83017606
9.5350,12.80376796,20.10778233,-33.98733823
9.5400,1.861570435,14.68478976,-39.66386059
9.5450,16.20131387,28.5976103,-52.63887946
9.5500,15.61106635,3.423170175,-42.923451
9.5550,29.56533609,-0.1804437486,-18.56737024
9.5600,37.98970594,-0.6897647132,-12.27211619
9.5650,50.46818773,0.3358284918,-24.58105586
9.5700,57.06388947,-14.32858782,-28.71027788
9.5750,68.5949424,-13.72061998,1.774296622
9.5800,77.31346468,-9.355414427,-7.254331408
9.5850,63.67336432,-16.33898834,-22.1991101
9.5900,61.53677611,-17.78385027,-41.37412099
9.5950,60.26548551,-19.68170059,-52.92343397
9.6000,65.3405274,-40.65081925,-44.48014481
9.6050,63.05343141,-33.24042056,-59.010304
9.6100,50.33011533,-21.9451543,-50.17079477
9.6150,42.11725753,-33.93201332,-52.42979768
9.6200,46.0631196,-25.53870377,-45.10901188
9.6250,51.93468984,-20.54841906,-46.65463849
9.6300,45.21116719,-37.84867831,-49.89800752
9.6350,45.49283316,-27.0729725,-20.17314634
9.6400,42.79983271,-36.70683759,-22.63577894
9.6450,46.23533152,-37.69204067,-25.71542453
9.6500,47.27123233,-25.5990334,-26.45669779
9.6550,50.44012641,-19.71462199,-28.56575508
9.6600,44.35090236,-16.58051783,-17.59041434
9.6650,37.75339649,-13.99904995,-13.32363639
9.6700,37.41997255,-15.21770321,0.3868304943
9.6750,42.25264844,-12.59109174,3.874190602
9.6800,39.19222095,-11.2433226,-7.055831141
9.6850,38.17129002,1.909840274,-18.27604215
9.6900,39.33519373,3.410359779,-19.8109878
9.6950,31.25501809,-10.01921218,-4.573954156
9.7000,40.07918476,-18.42972287,2.816157146
9.7050,48.6673597,-8.193139502,27.78287578
9.7100,46.03775648,-14.95339261,20.72592878
9.7150,40.11247095,-4.195838372,23.34483426
9.7200,39.62024785,-2.231750222,7.883828388
9.7250,38.22845469,4.282555233,23.26584841
9.7300,35.6340039,-10.94240941,17.01927573
9.7350,39.59671623,-5.455461936,11.26782828
9.7400,34.534998,-5.027768508,7.392449227
9.7450,25.26592664,-3.302894825,8.466492227
9.7500,19.93019898,-8.96405841,10.05906325
9.7550,21.39880548,-4.397624185,21.7055337
9.7600,25.01263983,-7.707562026,20.78541048
9.7650,30.00182863,10.26064035,26.12360878
9.7700,28.25076586,-0.6601230364,5.6840376
9.7750,22.1352233,11.70757062,6.91775127
9.7800,28.33548132,10.89397426,14.21194765
9.7850,24.23044457,10.60674636,4.276144136
9.7900,27.99941889,11.01080604,13.65344595
9.7950,32.06454571,0.3855148854,25.38784243
9.8000,33.29163706,-3.787451719,22.11765449
9.8050,31.71474072,-2.733367495,4.69950385
9.8100,22.8382817,0.703318514,-2.644551175
9.8150,13.94199483,-16.28134673,5.817524031
9.8200,20.78350584,-13.38255672,17.96770113
9.8250,31.5684306,-11.82917743,16.95436697
9.8300,37.43834053,-6.135147099,13.49984084
9.8350,26.41095379,6.093341331,4.229017336
9.8400,14.30723097,9.564672829,-10.17360546
9.8450,4.732642386,3.24037165,-16.37041781
9.8500,16.31955823,-1.632608536,-6.422429686
9.8550,23.47612588,13.61738808,1.862774157
9.8600,12.58895825,-4.413330284,-5.302709834
9.8650,12.85263064,17.00063221,-0.522404459
9.8700,8.250416511,22.95377321,-10.60920614
9.8750,3.699721338,8.210691747,-14.79013785
9.8800,18.7441064,9.354658423,-15.4425987
9.8850,30.23038675,7.091578351,-4.758954004
9.8900,40.88206436,19.05822603,-1.000494731
9.8950,40.53632974,6.851566319,-0.4004985446
9.9000,43.36350529,8.555059793,0.3346932745
9.9050,41.96232255,10.74348064,-11.90749454
9.9100,31.02425124,-5.557540711,-10.45032
9.9150,31.14830751,11.6510816,-15.67232184
9.9200,27.59761787,-1.145274049,-15.30316518
9.9250,29.37873406,0.6085083895,-26.67880425
9.9300,35.79089544,-12.05432075,-12.60419432
9.9350,38.42584538,2.57660925,-16.98371886
9.9400,28.69276023,-8.205078554,-31.68699682
9.9450,20.86684229,4.533080011,-40.69614404
9.9500,25.39710964,7.135463798,-50.99061786
9.9550,30.11389781,-29.50547667,-41.12925406
9.9600,53.73715841,-18.88131243,-15.69392163
9.9650,52.99748545,-13.99422555,-33.48344494
9.9700,39.32294063,5.505621107,-37.40689156
9.9750,23.66160619,4.269044317,-40.01443911
9.9800,29.16109147,-10.94346557,-49.7951546
9.9850,45.60634589,-12.01036448,-32.15991503
9.9900,45.3778118,7.760324038,-36.87074541
9.9950,36.35048062,8.628329845,-44.09413174
10.0000,34.77328959,6.41799628,-47.24521532
10.0050,42.34885382,-5.373006658,-53.26915083
10.0100,45.90716128,-6.855169587,-51.23264871
10.0150,36.18910808,6.222462313,-47.86864951
10.0200,26.50666591,-15.69574731,-47.78010409
10.0250,32.75750864,-22.67105898,-38.18923705
10.0300,42.84615317,-16.36110322,-32.02723376
10.0350,34.97253394,-12.8490317,-37.58309352
10.0400,38.71484855,-1.953658154,-41.70112914
10.0450,33.07510271,-20.85149468,-45.19326796
10.0500,47.88392678,-21.9138698,-26.13864466
10.0550,44.25356436,-19.35713749,-27.3327972
10.0600,48.50147959,4.149026019,-28.36605695
10.0650,33.67776314,8.540575642,-42.21819772
10.0700,29.32711601,1.464480518,-41.40546299
10.0750,32.24437451,-14.9621368,-23.38205439
10.0800,44.97890794,-16.77223582,-1.307793847
10.0850,50.19039676,7.185911676,-13.78940222
10.0900,44.4078565,-16.79216622,-8.096583171
10.0950,42.62413933,-19.09306449,-20.09158359
10.1000,43.01289545,-24.71538088,-14.313619
10.1050,40.75482424,-16.45603669,-15.99435324
10.1100,43.23597759,-15.50905077,-9.162376895
10.1150,37.43379038,-20.37009042,-6.359391576
10.1200,29.32002048,-11.68559016,-10.65981882
10.1250,24.8942168,-14.90251162,-0.7014104694
10.1300,21.99577618,-10.79974196,-13.92686135
10.1350,25.1649088,-20.85640425,-2.549395214
10.1400,32.79988057,-5.216446752,8.455234216
10.1450,25.43692915,0.4354148103,-1.969926721
10.1500,23.15084562,1.307313186,6.097187919
10.1550,8.856748983,0.9942594192,-9.464245781
10.1600,14.23274318,6.819446239,-0.9632815926
10.1650,11.36042048,2.743796824,4.699169487
10.1700,14.52061806,3.332041056,-3.249910978
10.1750,13.67358639,12.19213659,0.6913332179
10.1800,16.10217405,7.072683461,11.38402517
10.1850,9.217742787,14.01813309,18.66345757
10.1900,-0.4110176481,23.09292885,10.84509153
10.1950,-3.051528581,16.27036778,9.350879345
10.2000,10.09668331,12.79382971,15.05496976
10.2050,13.08036234,-1.12827012,21.37105485
10.2100,19.26408396,4.107382763,25.90885257
10.2150,1.925259623,13.44147164,1.13954646
10.2200,-5.368344347,30.68470445,7.160771194
10.2250,-27.32220913,15.70774808,-8.541697813
10.2300,-20.5812463,17.60759916,0.6403058772
10.2350,-7.045883307,-5.115811655,4.294116977
10.2400,23.0540082,-4.630280993,14.41611978
10.2450,25.1893958,5.822919574,-3.954184497
10.2500,23.16937654,11.12510582,-6.521234022
10.2550,18.81816891,4.862207236,-8.304082061
10.2600,20.00328845,-2.255101593,2.934132488
10.2650,17.09535488,5.425924801,5.305370074
10.2700,2.934347123,17.74778107,-17.5922314
10.2750,-4.254080309,12.65917621,-34.51029201
10.2800,16.61776978,-2.044736593,-34.66004
10.2850,47.14798656,-6.824444315,-21.63362364
10.2900,69.79921612,5.041906878,-10.98105245
10.2950,68.47182336,18.38332794,-30.39502209
10.3000,76.56664276,-0.8687808148,-24.90235189
10.3050,84.42308557,-3.381384148,-20.18155583
10.3100,71.98776216,5.46709274,-36.78447581
10.3150,55.34371966,3.552440172,-38.8494935
10.3200,32.78130567,3.607015959,-74.50115511
10.3250,36.05131628,8.394520314,-69.06774042
10.3300,48.2445749,-13.57206069,-47.84592856
10.3350,58.98833268,-8.822113683,-44.64669972
10.3400,75.22011593,-9.170876416,-43.05350668
10.3450,68.76263536,-7.246002325,-36.41411588
10.3500,59.24044641,-14.03353802,-36.89455588
10.3550,47.34562506,-3.697421006,-30.57962371
10.3600,41.89793498,7.110157329,-38.5463056
10.3650,18.97535821,3.439339271,-52.61795394
10.3700,27.00323136,11.09130192,-37.5628938
10.3750,30.76858072,1.092862848,-40.86817992
10.3800,42.60629476,11.98521208,-38.59658681
10.3850,31.57808767,2.101792597,-41.70279468
10.3900,25.11790823,-0.4018920364,-28.13788701
10.3950,20.69822713,16.86179911,-21.42887663
10.4000,20.45491299,-2.660137407,-22.73372425
10.4050,17.00448569,-10.73580526,-28.93996707
10.4100,28.80772318,-2.043019938,-30.27949756
10.4150,22.46427166,-0.7573784628,-34.55177545
10.4200,32.2288457,1.379834524,-23.44587442
10.4250,38.76999409,-1.389712984,-10.67996264
10.4300,27.24676014,-6.843723723,-19.77593656
10.4350,23.0398865,-1.64864158,-24.72874543
10.4400,10.73962166,-10.48590298,-21.34939428
10.4450,5.698786427,-7.184653479,-17.78730756
10.4500,19.89360307,-14.84745456,-6.137074581
10.4550,34.08312262,-20.43635599,4.46763065
10.4600,44.46427189,-22.53768297,0.06330723951
10.4650,48.85601039,-15.71699163,9.307873488
10.4700,47.54136902,-22.2336649,19.69489945
10.4750,37.91725089,-11.5110364,17.16684676
10.4800,27.8100259,6.907298213,7.074014202
10.4850,14.95166154,16.93748828,5.486825457
10.4900,2.987900216,-16.24895642,3.85449216
10.4950,16.08697787,-7.139346545,18.34806783
10.5000,27.28776183,-8.82363825,19.37646093
10.5050,20.20970304,-9.080581251,-0.1765571433
10.5100,16.26355875,-12.4459283,10.09646991
10.5150,3.564940994,-8.278033744,11.03137342
10.5200,11.10006758,9.867523123,9.537493315
10.5250,3.65532801,-6.887626576,4.767258163
10.5300,16.2081818,7.916069884,1.811330437
10.5350,21.02088497,-0.8563457119,7.991988316
10.5400,30.0040347,-2.598599938,14.34219194
10.5450,25.10061847,21.14239108,0.7970208037
10.5500,13.77550829,25.81474355,-8.710894743
10.5550,16.43615831,1.563484381,8.191375155
10.5600,31.89737114,14.45360797,22.79600107
10.5650,42.85563361,14.86889754,16.84830279
10.5700,42.29737909,3.610050918,6.192398986
10.5750,36.41105342,14.42086459,5.910819363
10.5800,23.34733463,18.456784,1.725483387
10.5850,17.1050971,11.26508441,9.105538484
10.5900,26.53683192,20.99607756,12.61977906
10.5950,33.60778327,18.93810161,17.66531723
10.6000,31.83530076,4.832543665,16.65599179
10.6050,26.18956592,16.67313247,4.055640374
10.6100,31.25822964,1.154540162,-4.516159803
10.6150,51.89184512,0.3876274687,0.6058884806
10.6200,42.88481829,17.83592593,-7.134024593
10.6250,24.51463207,15.68132379,1.071470962
10.6300,2.301136252,6.797013248,-9.374449345
10.6350,-0.06315599648,29.00497131,-3.475343552
10.6400,7.954159317,7.029327101,-4.932122767
10.6450,27.2725367,-5.914746971,-7.87935511
10.6500,65.4871852,-10.95224599,12.47720032
10.6550,74.56168004,-11.51013374,1.493212527
10.6600,72.3876856,17.87997327,-1.224784846
10.6650,50.1080607,2.645212928,2.764756459
10.6700,43.69239545,5.131045211,-4.764877167
10.6750,34.20518144,0.878729854,-9.479336989
10.6800,26.2748223,-1.630607979,-12.69202328
10.6850,8.721201722,1.100307498,-14.67167759
10.6900,6.383797237,9.786114393,-24.20093442
10.6950,22.87089143,-7.379760783,-13.61064501
10.7000,51.07436048,-30.25395878,-3.13239452
10.7050,47.65518865,-10.60175467,-10.96439293
10.7100,29.43795612,-11.93669076,-20.10886856
10.7150,13.37496274,1.682740794,-27.79907027
10.7200,16.35771098,-8.182191879,-35.89353628
10.7250,34.2051176,-25.07453767,-33.91292098
10.7300,48.69566922,-19.67645298,-13.79657568
10.7350,42.67988842,-15.91446667,-15.16450092
10.7400,30.06859744,-15.84384731,-20.62806974
10.7450,12.25555603,-21.61195216,-26.07448798
10.7500,10.99572649,-7.963659378,-26.68252999
10.7550,6.896209367,-7.061268875,-32.66907381
10.7600,-2.88063174,-9.255339741,-25.9271352
10.7650,5.1378795,-11.80312613,-21.84541946
10.7700,17.46721871,5.08168171,-14.79302211
10.7750,13.1574142,-3.752375044,-27.3285728
10.7800,43.12276565,-6.9362002,-10.319479
10.7850,54.79256819,7.511323156,-16.92465812
10.7900,55.02726128,14.9840036,-10.73592819
10.7950,36.3425756,13.76516059,-21.87472454
10.8000,43.01809025,10.24673281,-19.01005808
10.8050,47.11762473,33.89760404,-23.44044258
10.8100,29.53892995,22.5325486,-39.89281867
10.8150,15.68184351,13.48314918,-34.02763232
10.8200,30.26006495,14.22886814,-24.5319593
10.8250,37.37936565,-6.047311689,-27.95830814
10.8300,34.65996555,-2.380935142,-37.6259539
10.8350,24.30971902,-1.974296641,-38.31598078
10.8400,10.10032054,-2.087528635,-44.12502661
10.8450,-2.687594944,-17.78229428,-31.18682292
10.8500,2.333931054,-8.517428632,-23.80550511
10.8550,7.205129333,-6.570685804,-20.57899159
10.8600,4.848191709,5.25259701,-25.35262333
10.8650,-0.8343528007,-1.927990423,-23.79077565
10.8700,9.868450487,3.591180829,-15.59927353
10.8750,15.66901595,5.19440074,-10.66867658
10.8800,21.65049255,13.39603507,-10.99693365
10.8850,16.64957817,10.55618747,-15.166021
10.8900,3.32623627,25.64275107,-35.87465322
10.8950,-1.724052466,22.86671671,-19.70946124
10.9000,1.904969079,24.31527971,-25.61938458
10.9050,12.11339426,12.12446108,-23.8755892
10.9100,40.73034311,7.673757083,-18.64872553
10.9150,41.54847353,1.592042039,-34.17995358
10.9200,42.33280819,4.236189441,-33.98860778
10.9250,32.32506918,-1.755610975,-36.73996628
10.9300,24.15903814,-5.841219118,-34.05209021
10.9350,14.10668397,-7.853159371,-39.81150619
10.9400,15.60576543,-12.25014129,-43.11299102
10.9450,16.71741178,-3.48038597,-37.70753149
10.9500,10.53981296,-13.91604622,-38.31885218
10.9550,4.418312765,-10.55863368,-39.84889504
10.9600,3.238826721,-11.366859,-40.31837782
10.9650,0.6994288644,-3.891057316,-39.05301665
10.9700,6.246822802,3.039361244,-45.24163533
10.9750,18.43685411,-7.828932092,-37.07134277
10.9800,24.62657401,-2.455358354,-39.08569839
10.9850,13.22527922,16.26385078,-45.50045692
10.9900,-11.29877463,22.50856568,-58.89257059
10.9950,-14.1921261,24.66490844,-45.47415183
11.0000,3.485454077,9.432116185,-31.60829088
11.0050,29.29448215,9.357776804,-29.24145355
11.0100,36.31478203,7.441657737,-41.57885126
11.0150,28.13883645,11.62442053,-37.28553753
11.0200,24.751675,7.918287425,-39.83823263
11.0250,19.94906721,2.85929124,-29.24425087
11.0300,19.58256298,10.83462638,-35.96496916
11.0350,3.174146749,9.000974968,-36.10858064
11.0400,-3.329388732,11.48309787,-46.20866904
11.0450,1.435354021,-3.83637056,-48.69232482
11.0500,26.74478828,-1.687675357,-34.83519717
11.0550,33.99285237,1.280485979,-25.54652226
11.0600,21.44060996,-3.074192267,-38.40247508
11.0650,22.53437,7.815290593,-31.05891991
11.0700,18.16791837,-4.671717922,-28.17432591
11.0750,9.884809403,-6.01371525,-28.65118665
11.0800,16.52726618,1.482576986,-34.08994661
11.0850,22.18988343,14.48035239,-23.85662088
11.0900,27.69898607,3.728717174,-10.74294989
11.0950,23.13566297,-6.43634564,-7.622179167
11.1000,36.00362428,1.28737522,3.031205887
11.1050,33.35217434,12.02626077,-3.132867845
11.1100,35.92403145,13.99415939,-16.21521957
11.1150,21.14503821,11.25383752,-19.58736628
11.1200,5.274679148,-2.881752902,-20.60195922
11.1250,11.73327282,-2.156320928,-14.51197148
11.1300,17.56188507,1.985419544,-19.70502591
11.1350,14.44996433,3.365908234,-29.49243998
11.1400,16.03649675,-4.562179146,-13.25764132
11.1450,10.80276093,3.158459993,-17.29450604
11.1500,17.92779603,-1.056384783,-8.267575142
11.1550,18.05777807,-2.117186928,-7.836228732
11.1600,20.349791,-7.091713259,-7.232338412
11.1650,25.44235373,4.925989125,-11.4035893
11.1700,24.59766063,-8.544608417,-5.764525593
11.1750,17.40259714,-0.5978928778,-11.33605718
11.1800,17.77260667,11.76875361,-8.119617106
11.1850,10.96251891,17.42376448,0.1111688008
11.1900,8.533161981,10.52526582,-11.22348307
11.1950,13.76627271,-10.7899321,-1.66652494
11.2000,33.9430573,-16.13822437,6.673152593
11.2050,40.25513095,-5.105042529,-10.31811441
11.2100,35.40819801,-5.882110003,-10.063585
11.2150,21.01525276,-2.969377829,-14.32853673
11.2200,4.677788775,9.330031456,-23.21961544
11.2250,-5.429038234,-4.959551802,-21.30028699
11.2300,0.6999128286,-4.41595061,-11.45038207
11.2350,18.03218532,-9.421283332,0.9928653022
11.2400,45.42995505,-15.27217487,-5.715229788
11.2450,49.52314832,-14.45320318,4.931108344
11.2500,34.72551476,-9.538930957,5.547585888
11.2550,23.44415164,-10.07478457,9.48307236
11.2600,20.00069674,7.474459734,-0.7191101232
11.2650,20.9328967,3.512101345,5.940362178
11.2700,23.84874919,2.210069842,-2.598807625
11.2750,23.00089001,-1.026612154,-2.835285234
11.2800,24.24609736,-6.509922579,-10.02984134
11.2850,21.01649333,-4.672934031,-2.886549289
11.2900,28.49272566,13.74588552,-0.9917880682
11.2950,17.81747904,-8.925019638,-10.76274998
11.3000,24.28728574,9.369874324,-16.086425
11.3050,24.39842913,14.62338874,-11.32954344
11.3100,33.53649378,1.429509318,-11.60499591
11.3150,39.96809838,1.988539008,10.08777646
11.3200,47.88095669,-4.357609336,7.485217122
11.3250,47.36911858,-8.883778682,2.850244721
11.3300,32.41181816,1.978581533,1.836444089
11.3350,12.70695683,2.985335866,-25.95693907
11.3400,7.369460019,5.679669181,-26.20902205
11.3450,2.777265531,1.447542054,-31.89245302
11.3500,5.862248494,-6.961213388,-27.30041244
11.3550,11.40423261,-0.09945224079,-23.38544305
11.3600,16.64913498,-16.66181928,-20.0762243
11.3650,15.48995301,-11.19114207,-31.0197522
11.3700,11.731129,-2.970452649,-27.50005501
11.3750,7.248217391,0.4556329528,-25.47896797
11.3800,11.06042556,-3.21309448,-41.94470491
11.3850,25.28447998,-5.666528305,-33.52008091
11.3900,28.78937997,0.1473432341,-37.64428679
11.3950,29.90414649,3.781618524,-35.73499374
11.4000,25.61348617,3.783671521,-41.91314026
11.4050,36.37153523,0.7350512302,-28.10267913
11.4100,44.96832785,2.053840845,-18.43289277
11.4150,42.37847143,1.929006976,-17.96823336
11.4200,44.12354762,-10.22571431,-24.17293515
11.4250,42.76130403,-7.800490514,-32.18217237
11.4300,42.79731182,-15.64394867,-32.15312772
11.4350,35.01191485,-7.982172203,-63.20493646
11.4400,24.21903024,2.807221492,-66.42352261
11.4450,8.932542912,-10.32148131,-64.15239318
11.4500,9.63810846,-12.04660859,-50.58689964
11.4550,12.68912039,-1.325477748,-42.43536538
11.4600,20.12738763,0.6656813689,-49.0968706
11.4650,29.12206559,5.404947081,-37.92567279
11.4700,40.0953011,-10.98865004,-28.72566635
11.4750,52.54708325,-20.10996388,-21.58714319
11.4800,60.458755,-9.256606209,-20.37694726
11.4850,58.04790034,9.193149899,-19.86753978
11.4900,43.98989791,16.06686699,-41.80022654
11.4950,26.72029809,4.468856981,-45.63676419
11.5000,28.12899026,-6.586426293,-46.0308442
11.5050,35.55210714,-31.86610984,-26.77186697
11.5100,58.07041569,-19.82796301,-30.68815984
11.5150,56.65166033,-12.12809551,-43.14379826
11.5200,45.93312225,23.95475857,-59.91797659
11.5250,16.76477608,8.630238612,-84.49495308
11.5300,13.81511654,10.68383628,-65.72914197
11.5350,14.43260692,-0.5508629023,-36.17522846
11.5400,36.9090929,4.7687048,-24.19709742
11.5450,52.67085662,10.69708831,-30.73070822
11.5500,55.53255563,-0.2550351216,-40.91654918
11.5550,46.25363726,4.862950219,-46.59431434
11.5600,38.98335958,8.144101068,-33.19304951
11.5650,30.34812838,7.22193586,-37.7176594
11.5700,31.37886735,-4.474748021,-28.76168595
11.5750,41.96049383,-9.916763376,-25.24279622
11.5800,64.14279565,-2.586698894,-22.65884091
11.5850,58.46465486,-16.99138443,-26.62857091
11.5900,54.73299593,-4.788431249,-24.43496394
11.5950,40.69428722,4.021929337,-41.15606823
11.6000,26.18697465,-1.257599003,-37.50574058
11.6050,15.67174017,-13.71012546,-45.29309188
11.6100,29.72403764,-5.070281604,-30.28026891
11.6150,46.45842295,-18.20852852,-30.02349562
11.6200,64.10999231,-16.55439176,-11.34168398
11.6250,70.07141512,-7.026647208,6.502452158
11.6300,56.17223037,1.059021956,-18.52906802
11.6350,39.34619889,19.42756386,-25.82987832
11.6400,15.53429767,11.17404968,-33.17277364
11.6450,12.48102243,-8.689959037,-33.94015651
11.6500,27.20621354,-14.94889583,-7.788330221
11.6550,44.28695727,-20.69270857,3.009513206
11.6600,59.64578463,-15.56063325,4.743374694
11.6650,55.74961137,-10.27862947,-1.526699366
11.6700,39.17541834,-15.70575353,3.394722677
11.6750,34.00820334,-18.07187067,11.19430279
11.6800,47.83734193,-0.5976085466,13.92224222
11.6850,37.8554196,-11.44946805,1.270868531
11.6900,32.11572021,-7.016572389,0.7898570573
11.6950,24.54489043,3.526670178,-25.16388334
11.7000,17.6626265,5.693100894,-50.5503785
11.7050,21.90240084,0.5162261607,-33.29526029
11.7100,37.92281042,-6.526841012,-4.792212704
11.7150,51.9825246,5.417617851,18.23244561
11.7200,50.47486096,7.626339496,16.05687017
11.7250,45.44082998,11.74690659,0.2905352468
11.7300,36.42656784,1.182370666,0.2943721473
11.7350,40.98921075,-0.266936713,3.988274384
11.7400,62.53122769,1.796096062,8.425042111
11.7450,57.95648197,-5.23865981,12.30788822
11.7500,49.84532611,4.930999854,9.019472687
11.7550,46.78591379,-23.27735069,-15.96821596
11.7600,44.05849266,-27.75188086,2.240640174
11.7650,41.807526,-13.45558488,-3.686127124
11.7700,46.16826569,7.403097309,-23.4702237
11.7750,30.62113516,0.3727346694,-37.95599261
11.7800,23.31261142,17.42603488,-31.79506214
11.7850,26.25089048,11.57962832,-28.83581153
11.7900,35.57261251,2.437852468,-10.51608136
11.7950,44.28154916,8.722834373,9.185853603
11.8000,50.01314554,12.09426166,17.86032601
11.8050,43.97609251,15.65570611,-1.386814845
11.8100,47.68237633,9.039760273,-10.38435055
11.8150,39.11190201,-5.426435538,-12.959496
11.8200,35.58611508,-10.1991782,4.487476937
11.8250,38.32812995,-1.220082899,14.69509487
11.8300,47.58915042,-5.222739436,10.36182709
11.8350,41.40609257,-11.12282183,6.655018877
11.8400,38.6313662,-11.59484731,19.05345142
11.8450,52.25144245,-23.61778178,20.80611979
11.8500,70.1899449,-22.00580927,17.68567563
11.8550,66.61107287,-4.941093209,19.84273016
11.8600,52.66114905,8.811144568,-7.112916066
11.8650,40.44358763,1.731956168,-45.03073804
11.8700,29.45782949,-9.105052752,-36.07102253
11.8750,25.7591336,-25.53612506,-10.1086777
11.8800,52.22941467,-15.67476192,-1.140198324
11.8850,60.82162864,-19.72137115,-10.75883718
11.8900,50.94068498,-8.603291192,-14.35443244
11.8950,33.93174406,-17.77744316,-20.20356327
11.9000,33.50105822,-13.16661369,-12.70249408
11.9050,31.55797561,-31.03911203,16.10705919
11.9100,48.50869912,-7.328040592,34.66130631
11.9150,43.66655691,-30.48400554,16.05459364
11.9200,35.07284339,-23.17192178,17.39131068
11.9250,38.62604203,-13.82093724,7.894826759
11.9300,53.23552035,-24.25505415,7.789873542
11.9350,60.29637607,-22.97418756,17.70079204
11.9400,59.98665707,-6.424977985,13.33148844
11.9450,47.93436526,6.933444839,-19.65064031
11.9500,18.90256523,9.703877196,-34.34307209
11.9550,5.852376619,-3.284172021,-29.01542892
11.9600,30.5152775,-12.9047121,-10.57122493
11.9650,53.70075287,-26.38569874,6.618708537
11.9700,63.46482359,-10.51905079,5.373838534
11.9750,42.36878658,-23.84990432,-20.35642896
11.9800,18.20638181,-17.74040197,-10.14049454
11.9850,15.41920966,-23.52507529,7.754129958
11.9900,25.64018569,-21.97087909,30.7233115
11.9950,28.72108397,-14.63287792,42.56405947
12.0000,40.33200655,5.56058599,38.4815353
12.0050,41.88847243,9.198804856,18.48488096
12.0100,44.53251159,1.266212257,-5.18601426
12.0150,36.56444397,-7.08868766,-6.317108824
12.0200,34.92456632,-11.01338431,-9.358764855
12.0250,37.38372726,9.17313441,-14.41069596
12.0300,39.07335215,3.36315884,-33.14295455
12.0350,34.62891691,3.294167084,-32.47321835
12.0400,36.98568472,3.300004043,-38.85860416
12.0450,34.34546095,2.71670021,-45.41185484
12.0500,41.2731727,6.286222838,-58.23996905
12.0550,17.71996883,-26.04003236,-42.1768771
12.0600,22.54081193,-10.78090105,-9.114023791
12.0650,6.367138256,-16.55005846,31.38536924
12.0700,9.600142061,-6.984210785,35.09749874
12.0750,27.03959972,10.20256952,12.70541021
12.0800,29.56247316,17.77701118,1.500546192
12.0850,28.50112763,20.76498979,-1.500971623
12.0900,19.81677879,21.77824546,6.649742607
12.0950,18.63629201,28.04214863,16.54668552
12.1000,35.66291337,26.72667936,2.843443706
12.1050,40.80827357,25.48696843,19.1526451
12.1100,51.02814904,24.43975364,25.49749547
12.1150,59.40974411,4.313495361,19.32755575
12.1200,68.5686672,13.89677911,33.47455085
12.1250,58.89261323,0.5776895158,55.57364398
12.1300,71.81223809,6.661565837,61.91325606
12.1350,77.09456919,-0.3792492144,40.97442791
12.1400,81.27862651,8.958854643,24.16662043
12.1450,70.80532717,-9.573238785,16.55382439
12.1500,53.901622,-12.2393874,24.6261351
12.1550,52.18471863,-9.938523225,20.11916871
12.1600,58.54630857,-12.00422238,7.833424915
12.1650,68.52974913,-22.88135713,-24.83116734
12.1700,67.75169762,-13.129066,-35.0296245
12.1750,59.47506765,-21.17524561,-36.12206881
12.1800,45.94803736,-28.95904602,-11.84113684
12.1850,52.59279742,-30.94075848,3.551163276
12.1900,61.23331852,-30.32575158,-0.8115390395
12.1950,54.71984352,-19.7074129,5.220752269
12.2000,51.6495213,-16.93945616,9.808647725
12.2050,49.3555712,-13.80385009,4.475304743
12.2100,50.74381685,-15.77283648,6.571453136
12.2150,45.57286298,-21.3166759,11.18567306
12.2200,61.30551244,-12.3233421,5.374805545
12.2250,77.93412177,-4.171988487,8.446892934
12.2300,74.94959452,-16.02032072,11.52151779
12.2350,73.27660389,-2.415981217,10.56388632
12.2400,72.65211856,4.912398095,-1.608489655
12.2450,63.00432434,7.404267266,-11.27090928
12.2500,40.85733583,-7.206920567,0.3081688026
12.2550,28.64340964,-18.85571018,19.97682281
12.2600,40.12450557,-14.60851277,30.29625117
12.2650,57.61185397,4.813631176,12.26195743
12.2700,69.44031036,-2.850991538,-14.06050309
12.2750,62.61968924,-4.754336916,-10.65441869
12.2800,41.8557034,5.53764872,28.81593747
12.2850,28.24213632,-2.754621415,55.28002114
12.2900,21.06944087,19.2833043,59.35106104
12.2950,40.98462633,11.91917379,16.72723562
12.3000,63.83397021,3.042616476,-18.32110273
12.3050,55.64815314,-13.79653732,-19.21395923
12.3100,32.63914185,-19.57965526,16.21884054
12.3150,34.92107564,-24.42894567,31.05994985
12.3200,30.44335888,-7.791207446,22.01536195
12.3250,36.29688413,-0.4460560642,-13.08848837
12.3300,32.20339683,-15.44818247,-39.47267619
12.3350,37.41048591,-31.57398941,-38.56448381
12.3400,33.66630383,-24.82199535,-11.24374897
12.3450,33.7501348,-35.02353428,4.04902566
12.3500,34.77326201,-21.45175407,11.64642513
12.3550,24.85194828,-17.5356461,20.97283217
12.3600,27.17928737,-8.825538803,26.71381742
12.3650,37.72966464,8.342934132,33.26569855
12.3700,34.22388191,-4.831669415,31.8048781
12.3750,43.21700435,-7.159618133,32.22324317
12.3800,40.07656138,-7.096674856,22.18611556
12.3850,49.86551636,-4.901676486,-3.522903725
12.3900,62.81730554,-5.534371435,-34.09356947
12.3950,64.47502478,-18.13527152,-50.11390304
12.4000,67.04700911,-20.57350693,-37.57597745
12.4050,63.02624917,-26.13522956,-17.44356419
12.4100,48.82958987,-34.50890546,9.68493637
12.4150,49.35720376,-33.94343872,25.2053658
12.4200,59.06532946,-22.15766535,26.9779418
12.4250,52.34090694,-30.72208722,11.63186291
12.4300,41.84896122,-30.01982435,4.094622213
12.4350,17.51224802,-29.31036815,24.02862238
12.4400,32.07437727,-15.44323157,48.62325989
12.4450,53.16115224,-1.762435658,44.89476993
12.4500,70.04293007,0.4922938524,33.64143262
12.4550,74.71914691,-3.474209476,7.906151594
12.4600,72.95013144,8.12059149,0.0854088873
12.4650,76.40535028,-11.54296178,-5.033676327
12.4700,68.3137526,-18.37895455,9.349907239
12.4750,70.52887883,-4.162280729,11.171467
12.4800,68.7861716,-17.09443469,8.457165193
12.4850,69.31416869,-26.82551768,6.310507698
12.4900,51.88042964,-32.50140222,24.76428085
12.4950,30.60765938,-52.64072656,31.85798126
12.5000,19.88173945,-39.21843956,50.45762992
12.5050,0.8221205468,-32.06588807,76.64836358
12.5100,2.014573274,-10.39118304,81.15129079
12.5150,24.58789247,6.772556294,66.16855424
12.5200,41.31703993,-4.175555549,39.49892262
12.5250,54.24155123,3.717170107,21.05199489
12.5300,41.07511261,10.84299389,23.142927
12.5350,47.76866057,-0.3065380619,15.85113996
12.5400,59.65580813,4.202585419,5.231662771
12.5450,67.15063145,-4.838169394,-7.098977564
12.5500,70.73814435,0.1722679911,-14.21746743
12.5550,57.53519054,-7.311257779,-14.85879849
12.5600,46.47300412,-17.60506423,-1.901118906
12.5650,49.2412824,-12.42089782,13.0588641
12.5700,33.4168364,-20.69383282,28.92041929
12.5750,9.47764727,-23.7961291,34.53767477
12.5800,-3.940546967,-20.18638664,41.14338257
12.5850,-23.05728021,-3.98529259,49.35531939
12.5900,-9.547305308,6.11923319,48.80694196
12.5950,4.123275192,1.688258867,38.2913279
12.6000,28.14967322,16.06052636,23.36173153
12.6050,37.25380164,21.75972429,5.676609719
12.6100,52.22243209,29.16422852,-2.669692109
12.6150,72.78776283,15.87302933,-15.59368793
12.6200,53.0250984,12.14804374,2.270750686
12.6250,61.2648553,17.42712371,8.774095268
12.6300,44.97185572,28.75682775,17.9483283
12.6350,47.85606476,17.84666645,15.2357432
12.6400,47.67058989,6.517359095,29.76794811
12.6450,26.28521832,-12.14070479,45.43842138
12.6500,-9.724920997,-21.95063835,65.49283367
12.6550,-13.40619332,-28.50192037,67.22833065
12.6600,0.2727932022,-10.99894319,52.12863625
12.6650,20.8050509,-0.1023664124,30.67352493
12.6700,49.19480889,-10.76217527,20.64627868
12.6750,49.00652453,-2.34259557,29.86153005
12.6800,49.92021181,2.481076171,47.85734858
12.6850,39.34476451,1.396822426,44.65602336
12.6900,48.13695641,10.06762787,31.49179761
12.6950,71.5932252,10.96376165,6.881821796
12.7000,87.52125481,12.10127163,-3.564207886
12.7050,105.4362625,5.847137817,-7.729560622
12.7100,103.0746357,-11.70130448,-0.9296886087
12.7150,103.4111849,-20.30564506,6.97709024
12.7200,69.37846471,-16.87361844,26.48925743
12.7250,62.26768698,-31.06507,35.18053795
12.7300,55.02732067,-36.33590455,42.10588759
12.7350,25.28904352,-46.24518672,49.80486711
12.7400,5.588279571,-24.78932709,65.99765781
12.7450,-5.709113981,-22.99292248,47.76644764
12.7500,-26.31654226,-28.1538746,41.77818385
12.7550,-30.65618236,-34.37815629,33.90520803
12.7600,-17.19557386,-22.11951413,31.41224323
12.7650,9.114804973,-1.18463764,30.45966785
12.7700,43.04406216,-10.45010518,25.52266082
12.7750,36.47662174,13.77629523,18.97783982
12.7800,53.53609946,7.804669335,7.443874839
12.7850,57.10088587,17.495778,-6.785701605
12.7900,67.523351,6.925993279,-9.254809444
12.7950,73.53679081,4.246746092,-11.1912879
12.8000,76.27356081,9.135864441,-12.99553419
12.8050,65.35467176,2.547661309,-6.831025127
12.8100,60.36530295,-15.49529844,8.45186668
12.8150,34.42414869,-25.18448938,15.57750702
12.8200,17.7116127,-24.45816175,33.03145104
12.8250,20.28973035,-23.16846608,40.85700261
12.8300,9.349079534,-26.13122217,50.65353966
12.8350,-4.300031678,-23.82383847,67.31969402
12.8400,-16.12756293,-3.120155953,49.83298876
12.8450,-10.32007003,-6.517310802,17.23600539
12.8500,-8.726486206,-20.61475781,9.949085823
12.8550,22.32005302,-11.39373522,20.40313842
12.8600,46.53500404,-9.3289758,19.27318334
12.8650,52.64502906,-3.96695166,5.32858295
12.8700,57.72793934,-2.043576408,-4.177486136
12.8750,69.66019667,-3.24214338,-7.654053001
12.8800,76.47337822,-12.68713041,2.15748704
12.8850,74.16320243,-10.87598127,12.46096677
12.8900,84.95640247,-17.0038801,13.62477744
12.8950,79.43362098,-23.03157509,27.6593573
12.9000,58.71152395,-22.71802709,28.32719114
12.9050,42.04378166,-24.66415705,32.15291726
12.9100,28.0187891,-12.85746419,26.67688951
12.9150,14.7874996,-26.19655863,28.47673715
12.9200,13.54061771,-23.07387267,36.11830649
12.9250,5.451050268,-31.28038642,45.31794675
12.9300,0.3912846059,-15.99234755,38.70410249
12.9350,-11.46885027,-17.74653502,25.24428738
12.9400,-3.972580626,-15.66026008,23.96654985
12.9450,11.49627298,2.512249695,24.72706753
12.9500,32.08356723,-6.273975636,22.90557219
12.9550,39.13660313,-6.411904912,1.816441713
12.9600,50.68476241,-3.540229495,-6.944030827
12.9650,53.31549937,-6.898839335,-7.512669356
12.9700,48.62212888,5.275602625,1.234539716
12.9750,45.21714545,-6.379190206,5.783011038
12.9800,51.33254236,3.456592457,12.07450237
12.9850,51.64527203,-5.740720361,22.51230395
12.9900,36.50123391,-6.668621068,23.04596586
12.9950,37.64291945,-0.1097709465,30.80007566
13.0000,16.5407496,-13.25607643,31.68413855
13.0050,-1.325078403,-11.16415273,37.47711439
13.0100,-16.42590775,-16.07398935,26.95456411
13.0150,-27.46281451,-13.51798705,21.50446853
13.0200,-8.470061507,-4.301102291,16.04482337
13.0250,17.7814474,-15.54035106,14.34702481
13.0300,27.72039841,-6.929390479,11.83593723
13.0350,36.03667906,-0.6492133648,10.27270713
13.0400,45.65963978,4.057412448,6.831278991
13.0450,34.34492413,-5.976329367,3.812282683
13.0500,48.5010884,3.266751784,5.768084234
13.0550,41.09191513,0.7880719362,-2.588149742
13.0600,64.59311099,12.42904351,6.574984667
13.0650,57.26121486,8.549688964,12.36694407
13.0700,56.53816798,10.63420861,19.46533905
13.0750,41.80080259,-5.74605367,19.69385468
13.0800,28.75887843,0.5681900487,20.17117583
13.0850,30.74104218,1.792275444,12.02032955
13.0900,19.82484504,-0.0662119148,20.8308117
13.0950,20.67640887,-5.759551981,24.50828638
13.1000,-2.059359123,2.125051433,19.29143914
13.1050,-0.7182658342,4.027164718,15.97047214
13.1100,2.339427741,-5.114888087,14.81494151
13.1150,-0.5601939654,-9.755251607,15.61860691
13.1200,-0.4564945995,7.032573985,17.31657599
13.1250,-10.42250813,7.336301967,22.14127029
13.1300,5.898840043,26.69115933,24.83289753
13.1350,12.60199834,12.24800019,18.79338117
13.1400,31.63453269,16.00554442,20.54076403
13.1450,29.74725149,26.52613106,17.88761205
13.1500,15.461689,20.84702672,11.16261817
13.1550,18.32712094,33.90361506,14.431183
13.1600,21.36777042,23.6796019,13.13466007
13.1650,22.81046486,37.16572991,18.13221959
13.1700,14.24459396,32.88251334,10.28715891
13.1750,14.90394824,34.56017076,10.38636712
13.1800,4.117479453,17.36656198,16.15937478
13.1850,-0.8029723613,32.46214054,18.00930708
13.1900,-9.489831812,36.106738,14.10998386
13.1950,-17.09458116,27.00561723,6.117870202
13.2000,-8.0176325,37.07172891,9.096861163
13.2050,-9.118784555,22.41468506,2.080890918
13.2100,-6.027530094,22.55351929,-6.206684169
13.2150,-7.830046226,17.6626643,-7.155946148
13.2200,-3.98475539,13.98699469,4.266440613
13.2250,-8.915941954,30.12032314,16.10370367
13.2300,-10.48307244,40.7336897,25.32758109
13.2350,-5.341630958,52.37251699,24.38122855
13.2400,-2.364205911,49.42780693,23.07080614
13.2450,3.555035185,62.78640986,14.8843836
13.2500,1.159538065,51.68007042,22.03623687
13.2550,2.820768232,64.4155366,19.91690803
13.2600,10.74418405,52.22955666,17.24279422
13.2650,1.877302339,48.073989,13.57893347
13.2700,15.19356797,38.70580636,17.45641241
13.2750,10.4826949,30.00028475,10.22383435
13.2800,9.872382202,31.75854724,5.81810838
13.2850,32.72023001,37.33921515,16.29097473
13.2900,27.6692132,28.43837015,12.36857716
13.2950,35.99409418,26.60155339,13.59177313
13.3000,29.6339976,29.78408796,16.42025128
13.3050,32.23196135,27.98035421,9.18932395
13.3100,33.38924339,31.59503156,10.39621148
13.3150,38.30605998,28.78353285,9.121720033
13.3200,49.3480927,21.31439655,11.69063576
13.3250,64.16598022,20.39473035,9.063571733
13.3300,62.62967927,0.1850748922,1.904081101
13.3350,50.5704362,-7.337748382,-5.684224942
13.3400,34.71560605,-15.72795053,-7.260261682
13.3450,8.526572355,-28.98710725,-15.35561146
13.3500,13.15376086,-23.00542317,-5.766272295
13.3550,10.8175252,-29.41119895,-10.20415963
13.3600,2.755321903,-36.46042162,-2.950442313
13.3650,3.26655261,-36.56196234,1.972089234
13.3700,-13.86293506,-34.88500264,0.003173358143
13.3750,-17.85059625,-21.56561049,7.87280505
13.3800,-22.34409772,-21.1539138,16.77252351
13.3850,-30.13523762,-14.21581237,7.527793707
13.3900,-25.04195626,-10.30858749,9.344198241
13.3950,-22.50839186,0.3122859309,16.78032999
13.4000,-20.93610254,-3.581353755,19.01065259
13.4050,-11.56801802,2.32929945,19.08776769
13.4100,-1.400416113,22.06510675,20.26629473
13.4150,2.552285456,18.73037555,19.01000311
13.4200,18.34779186,27.29971385,20.98244654
13.4250,24.76528975,26.05489586,15.40550984
13.4300,26.71053647,42.6688229,12.71347492
13.4350,33.29605303,34.09872835,10.22479136
13.4400,30.72026235,39.53035776,3.667004624
13.4450,43.8209821,39.23378477,2.277227402
13.4500,42.10119677,32.76322919,5.151030387
13.4550,32.90151203,25.90954939,9.264111395
13.4600,26.70430575,31.91072917,9.213905458
13.4650,21.05690066,31.53459405,0.7024122427
13.4700,17.54016204,25.10762257,5.596656418
13.4750,10.8113549,27.49778776,5.778700477
13.4800,5.043549023,21.19126298,19.30284224
13.4850,-1.109463437,31.90429173,21.42281551
13.4900,-14.37182705,33.43122841,22.04578122
13.4950,-20.67361494,3.681339682,23.19164312
13.5000,-27.11809382,28.53924776,17.63720596
13.5050,-16.59600732,-6.224998616,17.8814095
13.5100,-24.79188759,-0.7561917106,21.42947973
13.5150,-37.15896076,2.221567646,22.14957622
13.5200,-48.32556898,-0.5015446431,25.38931508
13.5250,-44.44784546,-4.254421693,17.019725
13.5300,-45.89404044,-5.596017849,15.26569132
13.5350,-43.57578335,-9.349026574,9.86266863
13.5400,-49.48059527,-6.355834945,7.740524065
13.5450,-45.5993343,-4.045773204,13.88214025
13.5500,-51.54266882,1.447278609,12.64180152
