type,name,time_units,begin_time,frequency,count,units
signal,"Noraxon MyoMotion-Segments-Upper arm RT-Roll","s",0.0000,200,5108,"deg"

time,value
0.0000,8.211746982
0.0050,8.213150105
0.0100,8.214552899
0.0150,8.215955364
0.0200,8.21764849
0.0250,8.219654982
0.0300,8.221993012
0.0350,8.224674774
0.0400,8.227704854
0.0450,8.231078791
0.0500,8.234782968
0.0550,8.238796555
0.0600,8.243094379
0.0650,8.247648637
0.0700,8.25242894
0.0750,8.257401846
0.0800,8.262530836
0.0850,8.267776774
0.0900,8.273098256
0.0950,8.278451851
0.1000,8.283793018
0.1050,8.289077627
0.1100,8.294263181
0.1150,8.29930935
0.1200,8.304177931
0.1250,8.308832692
0.1300,8.313239696
0.1350,8.317368715
0.1400,8.321195388
0.1450,8.324703375
0.1500,8.327886032
0.1550,8.337629748
0.1600,8.347160829
0.1650,8.356648056
0.1700,8.366133487
0.1750,8.375472144
0.1800,8.38488006
0.1850,8.39413916
0.1900,8.403453939
0.1950,8.412861212
0.2000,8.422065391
0.2050,8.431266781
0.2100,8.440418447
0.2150,8.449943023
0.2200,8.45959676
0.2250,8.469326498
0.2300,8.479190929
0.2350,8.48901132
0.2400,8.499031512
0.2450,8.50916192
0.2500,8.519304287
0.2550,8.529514464
0.2600,8.539795103
0.2650,8.550214592
0.2700,8.560604975
0.2750,8.571124873
0.2800,8.581538398
0.2850,8.591913373
0.2900,8.602231874
0.2950,8.61234562
0.3000,8.622335218
0.3050,8.632366581
0.3100,8.642250883
0.3150,8.652082094
0.3200,8.661858112
0.3250,8.671585678
0.3300,8.681278172
0.3350,8.691010974
0.3400,8.700655112
0.3450,8.710290987
0.3500,8.719840717
0.3550,8.729491357
0.3600,8.738986685
0.3650,8.748490461
0.3700,8.757904094
0.3750,8.767234137
0.3800,8.776353438
0.3850,8.785282602
0.3900,8.794142169
0.3950,8.802823533
0.4000,8.811389087
0.4050,8.819713134
0.4100,8.82786188
0.4150,8.835738235
0.4200,8.84340262
0.4250,8.850918566
0.4300,8.858207567
0.4350,8.865209152
0.4400,8.872013541
0.4450,8.8786395
0.4500,8.885030302
0.4550,8.891307084
0.4600,8.897417255
0.4650,8.903463023
0.4700,8.909376973
0.4750,8.915359065
0.4800,8.921249174
0.4850,8.927338005
0.4900,8.933571667
0.4950,8.939886923
0.5000,8.946483762
0.5050,8.953227558
0.5100,8.960148824
0.5150,8.967021675
0.5200,8.974051693
0.5250,8.98131613
0.5300,8.988682116
0.5350,8.996342351
0.5400,9.004025386
0.5450,9.011725797
0.5500,9.019612825
0.5550,9.027581096
0.5600,9.035520174
0.5650,9.043669979
0.5700,9.052003732
0.5750,9.060420418
0.5800,9.069046667
0.5850,9.077616086
0.5900,9.086353778
0.5950,9.095210845
0.6000,9.104341947
0.6050,9.113364512
0.6100,9.122503108
0.6150,9.131400037
0.6200,9.140121489
0.6250,9.148682093
0.6300,9.15699546
0.6350,9.16510861
0.6400,9.172998702
0.6450,9.180555382
0.6500,9.187942481
0.6550,9.194908743
0.6600,9.201625133
0.6650,9.208184558
0.6700,9.214464779
0.6750,9.220482181
0.6800,9.226305551
0.6850,9.232120754
0.6900,9.237746004
0.6950,9.243218427
0.7000,9.248588279
0.7050,9.253897438
0.7100,9.259169697
0.7150,9.264503472
0.7200,9.26982469
0.7250,9.275136558
0.7300,9.280438991
0.7350,9.28571642
0.7400,9.290956909
0.7450,9.296047114
0.7500,9.301056972
0.7550,9.305958704
0.7600,9.310809504
0.7650,9.315346427
0.7700,9.319715523
0.7750,9.324057162
0.7800,9.328188146
0.7850,9.332083475
0.7900,9.335630089
0.7950,9.338995106
0.8000,9.342063489
0.8050,9.344887308
0.8100,9.347550075
0.8150,9.349971508
0.8200,9.35211789
0.8250,9.354003176
0.8300,9.355693033
0.8350,9.35717293
0.8400,9.358646261
0.8450,9.359850198
0.8500,9.360885293
0.8550,9.3616736
0.8600,9.362327328
0.8650,9.362621583
0.8700,9.362729796
0.8750,9.362681535
0.8800,9.362507676
0.8850,9.362313049
0.8900,9.362125677
0.8950,9.361981735
0.9000,9.3616378
0.9050,9.361435943
0.9100,9.361249014
0.9150,9.361318888
0.9200,9.361555107
0.9250,9.361818064
0.9300,9.362074404
0.9350,9.362493657
0.9400,9.362967455
0.9450,9.363482749
0.9500,9.364094654
0.9550,9.36496406
0.9600,9.365989348
0.9650,9.366918909
0.9700,9.367989909
0.9750,9.369104941
0.9800,9.370281814
0.9850,9.371438943
0.9900,9.372750278
0.9950,9.374069451
1.0000,9.375667192
1.0050,9.377389431
1.0100,9.37934865
1.0150,9.381493116
1.0200,9.38408921
1.0250,9.386829507
1.0300,9.389890595
1.0350,9.393293272
1.0400,9.397042297
1.0450,9.401243401
1.0500,9.405813119
1.0550,9.410757936
1.0600,9.416176305
1.0650,9.42215191
1.0700,9.428521384
1.0750,9.435222422
1.0800,9.44234185
1.0850,9.449716178
1.0900,9.457350767
1.0950,9.465153353
1.1000,9.473211023
1.1050,9.481352168
1.1100,9.489643075
1.1150,9.497988252
1.1200,9.506382634
1.1250,9.514715673
1.1300,9.523152823
1.1350,9.531575938
1.1400,9.539873008
1.1450,9.548194257
1.1500,9.556402609
1.1550,9.564729851
1.1600,9.572965992
1.1650,9.581285014
1.1700,9.589509264
1.1750,9.597724472
1.1800,9.605792412
1.1850,9.613739775
1.1900,9.621343394
1.1950,9.62853406
1.2000,9.63540177
1.2050,9.641812703
1.2100,9.64768116
1.2150,9.652795481
1.2200,9.657169383
1.2250,9.660769658
1.2300,9.663826958
1.2350,9.66615241
1.2400,9.667694283
1.2450,9.668584016
1.2500,9.668624283
1.2550,9.667961882
1.2600,9.666783036
1.2650,9.665360355
1.2700,9.663810426
1.2750,9.662283781
1.2800,9.660966895
1.2850,9.659753955
1.2900,9.658862568
1.2950,9.6586449
1.3000,9.659042309
1.3050,9.660153174
1.3100,9.662120282
1.3150,9.664976781
1.3200,9.668354014
1.3250,9.672521565
1.3300,9.677394912
1.3350,9.683040621
1.3400,9.689390271
1.3450,9.696419085
1.3500,9.704027017
1.3550,9.712179994
1.3600,9.720693782
1.3650,9.72964054
1.3700,9.739090507
1.3750,9.748841837
1.3800,9.758956013
1.3850,9.769568438
1.3900,9.780740922
1.3950,9.792340558
1.4000,9.804498039
1.4050,9.817095594
1.4100,9.830056977
1.4150,9.843471294
1.4200,9.857270811
1.4250,9.871455424
1.4300,9.885824346
1.4350,9.900303387
1.4400,9.914782405
1.4450,9.929224036
1.4500,9.943212865
1.4550,9.956794465
1.4600,9.970039601
1.4650,9.982632951
1.4700,9.994424818
1.4750,10.00536004
1.4800,10.01540572
1.4850,10.02447025
1.4900,10.03270196
1.4950,10.04026151
1.5000,10.04711208
1.5050,10.05327426
1.5100,10.05887553
1.5150,10.0641514
1.5200,10.06900322
1.5250,10.0738247
1.5300,10.07843389
1.5350,10.08286092
1.5400,10.08739079
1.5450,10.09201795
1.5500,10.0969879
1.5550,10.10213417
1.5600,10.10753392
1.5650,10.11323901
1.5700,10.11934431
1.5750,10.12580637
1.5800,10.13264282
1.5850,10.14025015
1.5900,10.14844203
1.5950,10.15729815
1.6000,10.16673085
1.6050,10.17706174
1.6100,10.18820092
1.6150,10.20024555
1.6200,10.21343292
1.6250,10.22797906
1.6300,10.24379652
1.6350,10.26084581
1.6400,10.27924452
1.6450,10.29891979
1.6500,10.32006268
1.6550,10.34267087
1.6600,10.36668353
1.6650,10.39197923
1.6700,10.41831223
1.6750,10.44570163
1.6800,10.47398759
1.6850,10.50315542
1.6900,10.5329605
1.6950,10.56364929
1.7000,10.59482501
1.7050,10.62660696
1.7100,10.65870748
1.7150,10.69111907
1.7200,10.72375536
1.7250,10.7564847
1.7300,10.78907057
1.7350,10.82145302
1.7400,10.85355346
1.7450,10.88528006
1.7500,10.91671731
1.7550,10.94749837
1.7600,10.97741939
1.7650,11.00658919
1.7700,11.03496256
1.7750,11.06243674
1.7800,11.08898478
1.7850,11.11464764
1.7900,11.13914733
1.7950,11.16247833
1.8000,11.18461225
1.8050,11.20543463
1.8100,11.22495298
1.8150,11.24307104
1.8200,11.25994301
1.8250,11.27524813
1.8300,11.28905585
1.8350,11.30146376
1.8400,11.31239371
1.8450,11.32189076
1.8500,11.33002097
1.8550,11.33664102
1.8600,11.34172603
1.8650,11.34518486
1.8700,11.34687111
1.8750,11.34696412
1.8800,11.34535727
1.8850,11.34198115
1.8900,11.33692835
1.8950,11.3301646
1.9000,11.32198403
1.9050,11.31220523
1.9100,11.30110456
1.9150,11.2888287
1.9200,11.27530774
1.9250,11.26068287
1.9300,11.2451209
1.9350,11.22879299
1.9400,11.21173106
1.9450,11.19419291
1.9500,11.17608918
1.9550,11.15747676
1.9600,11.13853285
1.9650,11.1193013
1.9700,11.10006877
1.9750,11.08086901
1.9800,11.06177185
1.9850,11.0427244
1.9900,11.02387835
1.9950,11.00489485
2.0000,10.98604274
2.0050,10.96720094
2.0100,10.94836022
2.0150,10.92954416
2.0200,10.91054573
2.0250,10.89134266
2.0300,10.87202407
2.0350,10.85264905
2.0400,10.83332831
2.0450,10.81408283
2.0500,10.79500923
2.0550,10.77617358
2.0600,10.75763941
2.0650,10.73941987
2.0700,10.72164764
2.0750,10.70432752
2.0800,10.68753209
2.0850,10.67116429
2.0900,10.65521991
2.0950,10.63949149
2.1000,10.62397263
2.1050,10.60876684
2.1100,10.59371462
2.1150,10.5788451
2.1200,10.56416034
2.1250,10.54973273
2.1300,10.53555512
2.1350,10.5216218
2.1400,10.50772751
2.1450,10.49401186
2.1500,10.48017933
2.1550,10.46646263
2.1600,10.45291376
2.1650,10.4395448
2.1700,10.42645349
2.1750,10.41347899
2.1800,10.4009572
2.1850,10.38881277
2.1900,10.37707849
2.1950,10.36575017
2.2000,10.35461413
2.2050,10.34399194
2.2100,10.3336308
2.2150,10.32344144
2.2200,10.31366261
2.2250,10.30407034
2.2300,10.29485542
2.2350,10.28599903
2.2400,10.27750883
2.2450,10.26933129
2.2500,10.26155181
2.2550,10.25416902
2.2600,10.24718869
2.2650,10.24096796
2.2700,10.23536562
2.2750,10.23049412
2.2800,10.22628829
2.2850,10.22276209
2.2900,10.21985973
2.2950,10.21763893
2.3000,10.2160141
2.3050,10.21513213
2.3100,10.21502268
2.3150,10.21562893
2.3200,10.21711619
2.3250,10.21939985
2.3300,10.22245041
2.3350,10.22626132
2.3400,10.23051744
2.3450,10.23524978
2.3500,10.24047707
2.3550,10.2461036
2.3600,10.25192414
2.3650,10.25787725
2.3700,10.2639096
2.3750,10.26996942
2.3800,10.27598197
2.3850,10.28200937
2.3900,10.28815489
2.3950,10.29456403
2.4000,10.30099605
2.4050,10.30742671
2.4100,10.3137857
2.4150,10.32004224
2.4200,10.32611351
2.4250,10.33220479
2.4300,10.33807151
2.4350,10.3437392
2.4400,10.34940767
2.4450,10.35495322
2.4500,10.36059068
2.4550,10.36629761
2.4600,10.37200297
2.4650,10.37792766
2.4700,10.38402988
2.4750,10.39062815
2.4800,10.39752874
2.4850,10.40479968
2.4900,10.41250079
2.4950,10.42070502
2.5000,10.42952228
2.5050,10.43889393
2.5100,10.4489941
2.5150,10.45979674
2.5200,10.47138398
2.5250,10.48384864
2.5300,10.49703528
2.5350,10.51117762
2.5400,10.5261868
2.5450,10.5420924
2.5500,10.5590273
2.5550,10.57700393
2.5600,10.59603792
2.5650,10.61601997
2.5700,10.63699599
2.5750,10.65883384
2.5800,10.68194766
2.5850,10.70629631
2.5900,10.73196465
2.5950,10.7590038
2.6000,10.78728007
2.6050,10.81676687
2.6100,10.84738355
2.6150,10.87920175
2.6200,10.91204269
2.6250,10.94608889
2.6300,10.98107583
2.6350,11.01696545
2.6400,11.05374744
2.6450,11.0913074
2.6500,11.12947772
2.6550,11.1682071
2.6600,11.20742643
2.6650,11.24703117
2.6700,11.28708928
2.6750,11.32756013
2.6800,11.36835273
2.6850,11.40958073
2.6900,11.45116874
2.6950,11.49300022
2.7000,11.53526688
2.7050,11.57803079
2.7100,11.62131265
2.7150,11.66516416
2.7200,11.7096025
2.7250,11.75438707
2.7300,11.79963341
2.7350,11.84528309
2.7400,11.89140418
2.7450,11.93773681
2.7500,11.9845464
2.7550,12.0317306
2.7600,12.07923689
2.7650,12.1270434
2.7700,12.17532983
2.7750,12.22401613
2.7800,12.27300459
2.7850,12.32240828
2.7900,12.37238728
2.7950,12.42286451
2.8000,12.47379378
2.8050,12.52520128
2.8100,12.5771459
2.8150,12.62967872
2.8200,12.68288387
2.8250,12.73675162
2.8300,12.79139937
2.8350,12.84651708
2.8400,12.90239469
2.8450,12.95900124
2.8500,13.01635956
2.8550,13.07431578
2.8600,13.13292884
2.8650,13.19212926
2.8700,13.25217066
2.8750,13.31298018
2.8800,13.37454863
2.8850,13.43702422
2.8900,13.500259
2.8950,13.56451446
2.9000,13.6297285
2.9050,13.6959848
2.9100,13.76333467
2.9150,13.83153576
2.9200,13.90049056
2.9250,13.97008607
2.9300,14.04045496
2.9350,14.11118865
2.9400,14.18250233
2.9450,14.25408383
2.9500,14.32607587
2.9550,14.39839435
2.9600,14.47120871
2.9650,14.54451713
2.9700,14.61810654
2.9750,14.69194257
2.9800,14.76613125
2.9850,14.84022151
2.9900,14.91423604
2.9950,14.98831569
3.0000,15.06240595
3.0050,15.13643003
3.0100,15.2104511
3.0150,15.28448013
3.0200,15.35856713
3.0250,15.43276876
3.0300,15.50713518
3.0350,15.58191841
3.0400,15.65670384
3.0450,15.73161811
3.0500,15.80646412
3.0550,15.88112718
3.0600,15.95555398
3.0650,16.02957263
3.0700,16.10305753
3.0750,16.17583594
3.0800,16.24817602
3.0850,16.3197927
3.0900,16.39079655
3.0950,16.46129475
3.1000,16.5315634
3.1050,16.60163846
3.1100,16.67144637
3.1150,16.74135669
3.1200,16.81123719
3.1250,16.88145552
3.1300,16.95192854
3.1350,17.02288919
3.1400,17.09426055
3.1450,17.16585214
3.1500,17.23769192
3.1550,17.30971115
3.1600,17.38193658
3.1650,17.45424795
3.1700,17.5263999
3.1750,17.59850399
3.1800,17.67000092
3.1850,17.74068273
3.1900,17.81061362
3.1950,17.87933763
3.2000,17.94705497
3.2050,18.01327182
3.2100,18.07810433
3.2150,18.14156631
3.2200,18.20372632
3.2250,18.26433288
3.2300,18.32334368
3.2350,18.38100328
3.2400,18.43717712
3.2450,18.49188532
3.2500,18.5450541
3.2550,18.59660392
3.2600,18.64671365
3.2650,18.6954066
3.2700,18.74271176
3.2750,18.78866287
3.2800,18.83323674
3.2850,18.87655503
3.2900,18.9186857
3.2950,18.95946716
3.3000,18.99909944
3.3050,19.03768999
3.3100,19.07518233
3.3150,19.11165622
3.3200,19.14706294
3.3250,19.18156509
3.3300,19.21543552
3.3350,19.24833397
3.3400,19.28073321
3.3450,19.31266481
3.3500,19.34408782
3.3550,19.37537381
3.3600,19.40666104
3.3650,19.43792794
3.3700,19.46919891
3.3750,19.50071256
3.3800,19.53214765
3.3850,19.5637892
3.3900,19.59550321
3.3950,19.6273777
3.4000,19.65938786
3.4050,19.69149391
3.4100,19.7237491
3.4150,19.755814
3.4200,19.78782234
3.4250,19.81949963
3.4300,19.85113917
3.4350,19.88261271
3.4400,19.91372961
3.4450,19.94487421
3.4500,19.97563836
3.4550,20.0064847
3.4600,20.03756814
3.4650,20.06886891
3.4700,20.10047019
3.4750,20.13236008
3.4800,20.16476039
3.4850,20.19787944
3.4900,20.23168171
3.4950,20.26629273
3.5000,20.30185225
3.5050,20.33852122
3.5100,20.3764236
3.5150,20.41550851
3.5200,20.4557504
3.5250,20.49726066
3.5300,20.54012231
3.5350,20.5840687
3.5400,20.62907149
3.5450,20.67523297
3.5500,20.7224247
3.5550,20.77086352
3.5600,20.82038377
3.5650,20.87087931
3.5700,20.9222383
3.5750,20.97475548
3.5800,21.02815877
3.5850,21.08248325
3.5900,21.13753859
3.5950,21.19354414
3.6000,21.25040157
3.6050,21.30812508
3.6100,21.36698816
3.6150,21.42698409
3.6200,21.48836068
3.6250,21.5513038
3.6300,21.61581495
3.6350,21.6822765
3.6400,21.75053998
3.6450,21.82083274
3.6500,21.89323588
3.6550,21.96763719
3.6600,22.04393959
3.6650,22.12224028
3.6700,22.20253019
3.6750,22.28489592
3.6800,22.36930051
3.6850,22.455757
3.6900,22.54397412
3.6950,22.63411649
3.7000,22.72596453
3.7050,22.81960626
3.7100,22.91502064
3.7150,23.01244393
3.7200,23.11203664
3.7250,23.21385087
3.7300,23.31784517
3.7350,23.42425638
3.7400,23.53367037
3.7450,23.64618318
3.7500,23.76220805
3.7550,23.88162163
3.7600,24.00428179
3.7650,24.13051836
3.7700,24.26025269
3.7750,24.39371731
3.7800,24.53113599
3.7850,24.67228681
3.7900,24.81718866
3.7950,24.96580839
3.8000,25.11775794
3.8050,25.2726832
3.8100,25.43021191
3.8150,25.58997432
3.8200,25.75157865
3.8250,25.91491844
3.8300,26.0795807
3.8350,26.24555453
3.8400,26.4126979
3.8450,26.58084921
3.8500,26.74959904
3.8550,26.91840422
3.8600,27.08695496
3.8650,27.25494732
3.8700,27.42189608
3.8750,27.5873689
3.8800,27.7514978
3.8850,27.91417576
3.8900,28.07546802
3.8950,28.23500684
3.9000,28.39271573
3.9050,28.54840038
3.9100,28.70205833
3.9150,28.85354904
3.9200,29.00251976
3.9250,29.14886016
3.9300,29.29237538
3.9350,29.43300381
3.9400,29.57080866
3.9450,29.7057115
3.9500,29.83747212
3.9550,29.96606477
3.9600,30.09159991
3.9650,30.21380694
3.9700,30.33247438
3.9750,30.44728073
3.9800,30.55849183
3.9850,30.66605594
3.9900,30.77027257
3.9950,30.87093737
4.0000,30.96818533
4.0050,31.06198143
4.0100,31.15242041
4.0150,31.2395908
4.0200,31.3233666
4.0250,31.40414515
4.0300,31.48194536
4.0350,31.55683074
4.0400,31.62869822
4.0450,31.69753058
4.0500,31.76325777
4.0550,31.82622045
4.0600,31.886534
4.0650,31.94431772
4.0700,31.99959752
4.0750,32.05237614
4.0800,32.10255286
4.0850,32.15027989
4.0900,32.19559766
4.0950,32.23858262
4.1000,32.27921265
4.1050,32.31779712
4.1100,32.35428371
4.1150,32.38892308
4.1200,32.42200104
4.1250,32.45335992
4.1300,32.48332639
4.1350,32.51159701
4.1400,32.53821591
4.1450,32.56313175
4.1500,32.58662141
4.1550,32.60874626
4.1600,32.6294838
4.1650,32.64892284
4.1700,32.66732495
4.1750,32.68463518
4.1800,32.70080737
4.1850,32.71590625
4.1900,32.72984515
4.1950,32.74260387
4.2000,32.75436751
4.2050,32.76515452
4.2100,32.77495312
4.2150,32.78380455
4.2200,32.79202247
4.2250,32.79954017
4.2300,32.80663278
4.2350,32.81310978
4.2400,32.81910355
4.2450,32.8245551
4.2500,32.82965717
4.2550,32.83435567
4.2600,32.83867443
4.2650,32.84267004
4.2700,32.84652121
4.2750,32.85026004
4.2800,32.85377855
4.2850,32.8570877
4.2900,32.86010685
4.2950,32.86265832
4.3000,32.86490804
4.3050,32.86669746
4.3100,32.86805929
4.3150,32.86913912
4.3200,32.86985727
4.3250,32.87005655
4.3300,32.86990458
4.3350,32.86933925
4.3400,32.86846035
4.3450,32.86719229
4.3500,32.86582172
4.3550,32.86430306
4.3600,32.86255093
4.3650,32.86068743
4.3700,32.85863007
4.3750,32.85638365
4.3800,32.8538752
4.3850,32.85107947
4.3900,32.84789886
4.3950,32.84435658
4.4000,32.84038312
4.4050,32.83620045
4.4100,32.8317235
4.4150,32.82698077
4.4200,32.82188259
4.4250,32.81639981
4.4300,32.81031835
4.4350,32.80393821
4.4400,32.79719278
4.4450,32.79011779
4.4500,32.78267007
4.4550,32.77518045
4.4600,32.76761914
4.4650,32.76012248
4.4700,32.7526827
4.4750,32.74542173
4.4800,32.73821939
4.4850,32.73103336
4.4900,32.72396128
4.4950,32.71705064
4.5000,32.71018938
4.5050,32.70334071
4.5100,32.69647805
4.5150,32.68951361
4.5200,32.682401
4.5250,32.67533282
4.5300,32.66799966
4.5350,32.66050597
4.5400,32.6528313
4.5450,32.64490781
4.5500,32.6367573
4.5550,32.62829003
4.5600,32.61944613
4.5650,32.61040646
4.5700,32.60102025
4.5750,32.59127612
4.5800,32.58116136
4.5850,32.57059342
4.5900,32.55948447
4.5950,32.54795701
4.6000,32.53581587
4.6050,32.52301355
4.6100,32.50977245
4.6150,32.49563884
4.6200,32.48070647
4.6250,32.4649314
4.6300,32.44813374
4.6350,32.43044113
4.6400,32.41168135
4.6450,32.39198404
4.6500,32.37123944
4.6550,32.3495592
4.6600,32.32714869
4.6650,32.30377224
4.6700,32.27967504
4.6750,32.2547691
4.6800,32.2291948
4.6850,32.2028559
4.6900,32.17588335
4.6950,32.14826669
4.7000,32.12018663
4.7050,32.09145243
4.7100,32.06218126
4.7150,32.03257701
4.7200,32.00266054
4.7250,31.97252987
4.7300,31.94228486
4.7350,31.91188093
4.7400,31.8812212
4.7450,31.8505524
4.7500,31.81967801
4.7550,31.78858074
4.7600,31.75740094
4.7650,31.72599967
4.7700,31.69460023
4.7750,31.66292851
4.7800,31.63113657
4.7850,31.59937382
4.7900,31.56761019
4.7950,31.53600902
4.8000,31.50436972
4.8050,31.4728335
4.8100,31.44120213
4.8150,31.40974508
4.8200,31.37838676
4.8250,31.3469882
4.8300,31.31571014
4.8350,31.28443143
4.8400,31.25315407
4.8450,31.22192504
4.8500,31.19067021
4.8550,31.1596306
4.8600,31.12863026
4.8650,31.09759828
4.8700,31.06676346
4.8750,31.03610348
4.8800,31.00564422
4.8850,30.97531711
4.8900,30.94520507
4.8950,30.91528579
4.9000,30.88532128
4.9050,30.85574756
4.9100,30.82622329
4.9150,30.79715772
4.9200,30.76855571
4.9250,30.74048547
4.9300,30.71302729
4.9350,30.68613154
4.9400,30.65983283
4.9450,30.63397229
4.9500,30.60850922
4.9550,30.58345422
4.9600,30.5586489
4.9650,30.53394617
4.9700,30.50943001
4.9750,30.48521737
4.9800,30.46106471
4.9850,30.43728291
4.9900,30.41375516
4.9950,30.39055902
5.0000,30.3676036
5.0050,30.34485115
5.0100,30.32246727
5.0150,30.30007466
5.0200,30.27795001
5.0250,30.25612595
5.0300,30.23435682
5.0350,30.21267782
5.0400,30.19106123
5.0450,30.16924639
5.0500,30.14721933
5.0550,30.12504638
5.0600,30.10259215
5.0650,30.07984003
5.0700,30.05660036
5.0750,30.03292356
5.0800,30.00849374
5.0850,29.98317159
5.0900,29.95679469
5.0950,29.92919415
5.1000,29.90046443
5.1050,29.87027336
5.1100,29.83867525
5.1150,29.80545979
5.1200,29.77058934
5.1250,29.73400145
5.1300,29.69572001
5.1350,29.65566182
5.1400,29.61378439
5.1450,29.57000518
5.1500,29.52423884
5.1550,29.47632654
5.1600,29.4266134
5.1650,29.37524327
5.1700,29.3219169
5.1750,29.26673008
5.1800,29.20981136
5.1850,29.15093408
5.1900,29.09018471
5.1950,29.02763247
5.2000,28.96353801
5.2050,28.89765864
5.2100,28.83041958
5.2150,28.7616392
5.2200,28.69161703
5.2250,28.62023829
5.2300,28.54754354
5.2350,28.47383421
5.2400,28.39898071
5.2450,28.32351311
5.2500,28.24730902
5.2550,28.17034092
5.2600,28.09267549
5.2650,28.01451709
5.2700,27.93590745
5.2750,27.85661298
5.2800,27.77683045
5.2850,27.69641691
5.2900,27.61563729
5.2950,27.53427519
5.3000,27.45243706
5.3050,27.37023784
5.3100,27.28775301
5.3150,27.20508413
5.3200,27.12192369
5.3250,27.03830686
5.3300,26.9542582
5.3350,26.86968349
5.3400,26.78458935
5.3450,26.6988722
5.3500,26.61265181
5.3550,26.52557209
5.3600,26.43765932
5.3650,26.34888225
5.3700,26.25939824
5.3750,26.16900852
5.3800,26.07768134
5.3850,25.98526506
5.3900,25.89177899
5.3950,25.79707586
5.4000,25.70095465
5.4050,25.60345629
5.4100,25.50460444
5.4150,25.40450474
5.4200,25.30306629
5.4250,25.20034602
5.4300,25.09642676
5.4350,24.99148895
5.4400,24.88591143
5.4450,24.77995369
5.4500,24.67384674
5.4550,24.56779664
5.4600,24.46178536
5.4650,24.35590857
5.4700,24.25033743
5.4750,24.14532541
5.4800,24.04097595
5.4850,23.93762671
5.4900,23.83540868
5.4950,23.73455435
5.5000,23.63528916
5.5050,23.53775264
5.5100,23.44187696
5.5150,23.34791375
5.5200,23.25566804
5.5250,23.16515361
5.5300,23.07631044
5.5350,22.98906926
5.5400,22.9035092
5.5450,22.81931546
5.5500,22.73685588
5.5550,22.6560641
5.5600,22.57697949
5.5650,22.49959959
5.5700,22.4237701
5.5750,22.34969199
5.5800,22.2773506
5.5850,22.20683942
5.5900,22.13778848
5.5950,22.07028003
5.6000,22.00421379
5.6050,21.93947035
5.6100,21.87573097
5.6150,21.81293489
5.6200,21.75113115
5.6250,21.69018064
5.6300,21.63012751
5.6350,21.57078968
5.6400,21.51232885
5.6450,21.45446691
5.6500,21.39698021
5.6550,21.33995646
5.6600,21.28309653
5.6650,21.22625672
5.6700,21.16927593
5.6750,21.11207189
5.6800,21.05463761
5.6850,20.99693647
5.6900,20.93897576
5.6950,20.88089327
5.7000,20.82278961
5.7050,20.76500293
5.7100,20.70753125
5.7150,20.65023702
5.7200,20.59332761
5.7250,20.53690812
5.7300,20.48100912
5.7350,20.42577526
5.7400,20.37085788
5.7450,20.31627868
5.7500,20.26213563
5.7550,20.20840956
5.7600,20.15482517
5.7650,20.10141044
5.7700,20.04822535
5.7750,19.99509564
5.7800,19.94199879
5.7850,19.88892119
5.7900,19.83582925
5.7950,19.78247762
5.8000,19.72862827
5.8050,19.67422285
5.8100,19.61922102
5.8150,19.56356771
5.8200,19.50742148
5.8250,19.45105695
5.8300,19.39452161
5.8350,19.33772809
5.8400,19.28084818
5.8450,19.22398884
5.8500,19.16720899
5.8550,19.11057543
5.8600,19.0542558
5.8650,18.99825847
5.8700,18.94273062
5.8750,18.88773056
5.8800,18.83328126
5.8850,18.77943766
5.8900,18.72640265
5.8950,18.6740798
5.9000,18.62265942
5.9050,18.5721365
5.9100,18.52264507
5.9150,18.47418259
5.9200,18.42671589
5.9250,18.38013725
5.9300,18.33440637
5.9350,18.28967973
5.9400,18.24550599
5.9450,18.20205889
5.9500,18.15934753
5.9550,18.11718439
5.9600,18.07564874
5.9650,18.03465841
5.9700,17.99422646
5.9750,17.9543402
5.9800,17.9150357
5.9850,17.87621886
5.9900,17.83747014
5.9950,17.79877069
6.0000,17.76009649
6.0050,17.72112045
6.0100,17.68193413
6.0150,17.64256384
6.0200,17.60293699
6.0250,17.56293469
6.0300,17.52243883
6.0350,17.481281
6.0400,17.43965152
6.0450,17.39741318
6.0500,17.35469165
6.0550,17.31132149
6.0600,17.26745941
6.0650,17.2229956
6.0700,17.17779529
6.0750,17.13218987
6.0800,17.08594976
6.0850,17.03945142
6.0900,16.99264081
6.0950,16.94554125
6.1000,16.89846182
6.1050,16.85140249
6.1100,16.8044571
6.1150,16.75744182
6.1200,16.71025027
6.1250,16.66277636
6.1300,16.61519623
6.1350,16.56745691
6.1400,16.51945828
6.1450,16.4712253
6.1500,16.42264627
6.1550,16.37373301
6.1600,16.32418675
6.1650,16.27414736
6.1700,16.22364306
6.1750,16.17249874
6.1800,16.12083333
6.1850,16.06860405
6.1900,16.01575881
6.1950,15.96282333
6.2000,15.9096536
6.2050,15.85644017
6.2100,15.80332969
6.2150,15.7504619
6.2200,15.69802728
6.2250,15.64646736
6.2300,15.59573356
6.2350,15.54611323
6.2400,15.4977697
6.2450,15.45072564
6.2500,15.40522821
6.2550,15.36151927
6.2600,15.31966634
6.2650,15.27968871
6.2700,15.24138062
6.2750,15.20484757
6.2800,15.17002585
6.2850,15.13715362
6.2900,15.10657048
6.2950,15.07820618
6.3000,15.05182517
6.3050,15.0277792
6.3100,15.00554931
6.3150,14.98515509
6.3200,14.96636616
6.3250,14.94911751
6.3300,14.9331376
6.3350,14.91845771
6.3400,14.9048276
6.3450,14.8920984
6.3500,14.87997107
6.3550,14.86849935
6.3600,14.85759063
6.3650,14.84708996
6.3700,14.83694663
6.3750,14.82662531
6.3800,14.81616032
6.3850,14.80487155
6.3900,14.79261959
6.3950,14.77925533
6.4000,14.76444493
6.4050,14.74805706
6.4100,14.7298558
6.4150,14.70998422
6.4200,14.6884196
6.4250,14.6650317
6.4300,14.63955789
6.4350,14.61213711
6.4400,14.58280678
6.4450,14.55160531
6.4500,14.51861612
6.4550,14.48387532
6.4600,14.44768468
6.4650,14.40999214
6.4700,14.37099069
6.4750,14.33109105
6.4800,14.29050527
6.4850,14.24954246
6.4900,14.20855458
6.4950,14.16736276
6.5000,14.12648913
6.5050,14.0860675
6.5100,14.04627203
6.5150,14.00763935
6.5200,13.97032465
6.5250,13.93446559
6.5300,13.90045461
6.5350,13.86815216
6.5400,13.8379013
6.5450,13.80985134
6.5500,13.78393746
6.5550,13.76000227
6.5600,13.73799245
6.5650,13.71802982
6.5700,13.70012081
6.5750,13.68409193
6.5800,13.67000261
6.5850,13.65772394
6.5900,13.64704921
6.5950,13.63774312
6.6000,13.6297751
6.6050,13.62283906
6.6100,13.61712141
6.6150,13.6125059
6.6200,13.60891662
6.6250,13.60634013
6.6300,13.60490163
6.6350,13.60454508
6.6400,13.60508054
6.6450,13.60659325
6.6500,13.60893436
6.6550,13.61193613
6.6600,13.61552887
6.6650,13.61962008
6.6700,13.62412409
6.6750,13.62895329
6.6800,13.63388149
6.6850,13.63895019
6.6900,13.64410733
6.6950,13.64917106
6.7000,13.65412718
6.7050,13.65906239
6.7100,13.66381523
6.7150,13.66833299
6.7200,13.67259626
6.7250,13.67675745
6.7300,13.68106159
6.7350,13.68544732
6.7400,13.6901094
6.7450,13.6950998
6.7500,13.70045503
6.7550,13.70624139
6.7600,13.7125948
6.7650,13.71974435
6.7700,13.72756004
6.7750,13.73609515
6.7800,13.74533641
6.7850,13.7553868
6.7900,13.76607601
6.7950,13.77775039
6.8000,13.79030394
6.8050,13.80400602
6.8100,13.81870018
6.8150,13.83417656
6.8200,13.85029206
6.8250,13.86695619
6.8300,13.8840721
6.8350,13.9018057
6.8400,13.9199241
6.8450,13.9384753
6.8500,13.95738976
6.8550,13.97664822
6.8600,13.99627
6.8650,14.01606785
6.8700,14.03608767
6.8750,14.05619548
6.8800,14.07620144
6.8850,14.09586967
6.8900,14.11491048
6.8950,14.13333344
6.9000,14.15091539
6.9050,14.16745222
6.9100,14.18287559
6.9150,14.19686934
6.9200,14.20964008
6.9250,14.22104684
6.9300,14.23123347
6.9350,14.24014278
6.9400,14.24803739
6.9450,14.25488634
6.9500,14.26081538
6.9550,14.26600837
6.9600,14.2707209
6.9650,14.27504543
6.9700,14.27915315
6.9750,14.28305646
6.9800,14.28694857
6.9850,14.29077982
6.9900,14.29458962
6.9950,14.29843755
7.0000,14.30223394
7.0050,14.30582604
7.0100,14.30929177
7.0150,14.3125038
7.0200,14.31558297
7.0250,14.31860089
7.0300,14.32152221
7.0350,14.32451298
7.0400,14.32764621
7.0450,14.33118611
7.0500,14.33529026
7.0550,14.34026169
7.0600,14.34645028
7.0650,14.35389926
7.0700,14.3630665
7.0750,14.37397226
7.0800,14.38686757
7.0850,14.40178435
7.0900,14.41907942
7.0950,14.43841091
7.1000,14.46001568
7.1050,14.48356677
7.1100,14.50907544
7.1150,14.53650086
7.1200,14.56583158
7.1250,14.59675666
7.1300,14.62908053
7.1350,14.66238857
7.1400,14.69670607
7.1450,14.73179564
7.1500,14.76748557
7.1550,14.8035814
7.1600,14.84010118
7.1650,14.87681886
7.1700,14.91367771
7.1750,14.95072755
7.1800,14.98785781
7.1850,15.02483668
7.1900,15.06180617
7.1950,15.09854594
7.2000,15.13508223
7.2050,15.17125353
7.2100,15.20690203
7.2150,15.24188475
7.2200,15.27616287
7.2250,15.30951261
7.2300,15.34171944
7.2350,15.37244296
7.2400,15.40159995
7.2450,15.42906159
7.2500,15.45476509
7.2550,15.47849171
7.2600,15.50014291
7.2650,15.51972743
7.2700,15.53726339
7.2750,15.55291142
7.2800,15.56662981
7.2850,15.57870868
7.2900,15.58924916
7.2950,15.59843609
7.3000,15.60660523
7.3050,15.61383455
7.3100,15.62039935
7.3150,15.62641195
7.3200,15.63188459
7.3250,15.63672281
7.3300,15.64102991
7.3350,15.64486698
7.3400,15.64820886
7.3450,15.65087804
7.3500,15.65285445
7.3550,15.65405258
7.3600,15.65418592
7.3650,15.65339414
7.3700,15.65150375
7.3750,15.64853802
7.3800,15.64435932
7.3850,15.63918517
7.3900,15.63296593
7.3950,15.62588868
7.4000,15.617878
7.4050,15.60911933
7.4100,15.59987218
7.4150,15.59022072
7.4200,15.580353
7.4250,15.57039723
7.4300,15.56058472
7.4350,15.55109441
7.4400,15.54195369
7.4450,15.53333017
7.4500,15.52526906
7.4550,15.51782891
7.4600,15.51099724
7.4650,15.50491489
7.4700,15.49938362
7.4750,15.4944813
7.4800,15.49013648
7.4850,15.48655466
7.4900,15.48354783
7.4950,15.48108383
7.5000,15.47919519
7.5050,15.47765027
7.5100,15.47659047
7.5150,15.47606462
7.5200,15.47572406
7.5250,15.47564929
7.5300,15.47569305
7.5350,15.47597382
7.5400,15.47626817
7.5450,15.47661595
7.5500,15.47701164
7.5550,15.47746855
7.5600,15.47805436
7.5650,15.47854216
7.5700,15.47894903
7.5750,15.47909891
7.5800,15.47903912
7.5850,15.47859347
7.5900,15.47758775
7.5950,15.47597835
7.6000,15.47355854
7.6050,15.47027999
7.6100,15.4658816
7.6150,15.46042327
7.6200,15.45372372
7.6250,15.44582799
7.6300,15.4365539
7.6350,15.4258141
7.6400,15.4136603
7.6450,15.40007101
7.6500,15.38507834
7.6550,15.36865494
7.6600,15.35103771
7.6650,15.33235892
7.6700,15.31266817
7.6750,15.29215703
7.6800,15.27104196
7.6850,15.249165
7.6900,15.22687517
7.6950,15.20442235
7.7000,15.1819585
7.7050,15.15966252
7.7100,15.13761735
7.7150,15.11591653
7.7200,15.09473627
7.7250,15.07422943
7.7300,15.05443853
7.7350,15.0354218
7.7400,15.01742659
7.7450,15.00032923
7.7500,14.98440834
7.7550,14.96969562
7.7600,14.956072
7.7650,14.94352122
7.7700,14.93217337
7.7750,14.92191093
7.7800,14.91266842
7.7850,14.90442397
7.7900,14.89716238
7.7950,14.89090353
7.8000,14.88544456
7.8050,14.88093404
7.8100,14.87715175
7.8150,14.87412619
7.8200,14.87187686
7.8250,14.87025194
7.8300,14.86928838
7.8350,14.8689894
7.8400,14.86933923
7.8450,14.87039733
7.8500,14.8720347
7.8550,14.87412646
7.8600,14.87651429
7.8650,14.87929755
7.8700,14.88221171
7.8750,14.8854231
7.8800,14.8887287
7.8850,14.89208183
7.8900,14.89547155
7.8950,14.89896527
7.9000,14.90242176
7.9050,14.90593329
7.9100,14.90949904
7.9150,14.91287422
7.9200,14.91613124
7.9250,14.91913861
7.9300,14.92199395
7.9350,14.92457778
7.9400,14.92673707
7.9450,14.92854792
7.9500,14.93001928
7.9550,14.93115345
7.9600,14.93191042
7.9650,14.93215633
7.9700,14.93201936
7.9750,14.93154783
7.9800,14.93081268
7.9850,14.92990895
7.9900,14.92873997
7.9950,14.92725229
8.0000,14.92538548
8.0050,14.92328619
8.0100,14.92114362
8.0150,14.91885615
8.0200,14.91639237
8.0250,14.91404721
8.0300,14.91166158
8.0350,14.90951154
8.0400,14.90727861
8.0450,14.90515472
8.0500,14.90294078
8.0550,14.90061943
8.0600,14.89815009
8.0650,14.89544471
8.0700,14.89237419
8.0750,14.88895977
8.0800,14.8850864
8.0850,14.88080957
8.0900,14.87596543
8.0950,14.87042095
8.1000,14.86424343
8.1050,14.8574173
8.1100,14.84987947
8.1150,14.84168216
8.1200,14.8328318
8.1250,14.8233273
8.1300,14.8131811
8.1350,14.80248417
8.1400,14.79139348
8.1450,14.77978474
8.1500,14.76772947
8.1550,14.7555605
8.1600,14.74321507
8.1650,14.73076773
8.1700,14.71850502
8.1750,14.70651916
8.1800,14.69491572
8.1850,14.68376914
8.1900,14.67318901
8.1950,14.66317104
8.2000,14.65389208
8.2050,14.6451536
8.2100,14.63704365
8.2150,14.62976809
8.2200,14.62321725
8.2250,14.61757768
8.2300,14.61262489
8.2350,14.60862538
8.2400,14.60546361
8.2450,14.60318247
8.2500,14.60173814
8.2550,14.60116402
8.2600,14.60129419
8.2650,14.60224648
8.2700,14.60397072
8.2750,14.60637016
8.2800,14.60935686
8.2850,14.61301388
8.2900,14.61722116
8.2950,14.62216139
8.3000,14.62769777
8.3050,14.63397596
8.3100,14.64071471
8.3150,14.6479216
8.3200,14.65566772
8.3250,14.66372917
8.3300,14.67207788
8.3350,14.68059004
8.3400,14.68943826
8.3450,14.69832375
8.3500,14.70719761
8.3550,14.71594956
8.3600,14.72459909
8.3650,14.7331043
8.3700,14.74125421
8.3750,14.74886065
8.3800,14.75606208
8.3850,14.7624061
8.3900,14.76807246
8.3950,14.77309157
8.4000,14.77740692
8.4050,14.78100447
8.4100,14.78398224
8.4150,14.78618362
8.4200,14.78772913
8.4250,14.78861225
8.4300,14.78884105
8.4350,14.78852642
8.4400,14.78749368
8.4450,14.78580643
8.4500,14.78358102
8.4550,14.78068441
8.4600,14.77729466
8.4650,14.77334829
8.4700,14.76869019
8.4750,14.76323132
8.4800,14.75691324
8.4850,14.74992
8.4900,14.74213014
8.4950,14.73347393
8.5000,14.72375898
8.5050,14.71333363
8.5100,14.70216084
8.5150,14.69026211
8.5200,14.67786663
8.5250,14.66502864
8.5300,14.6519243
8.5350,14.63848893
8.5400,14.62488319
8.5450,14.61110744
8.5500,14.59720942
8.5550,14.58339643
8.5600,14.56987595
8.5650,14.55651335
8.5700,14.54357936
8.5750,14.53109642
8.5800,14.51909645
8.5850,14.50768054
8.5900,14.49679953
8.5950,14.48635009
8.6000,14.47658293
8.6050,14.46733109
8.6100,14.45875762
8.6150,14.45084125
8.6200,14.44340855
8.6250,14.4364066
8.6300,14.43004432
8.6350,14.42404275
8.6400,14.41833504
8.6450,14.41289392
8.6500,14.40763669
8.6550,14.40248126
8.6600,14.39732784
8.6650,14.39209564
8.6700,14.38694343
8.6750,14.38189943
8.6800,14.37687242
8.6850,14.37185985
8.6900,14.3666745
8.6950,14.36132272
8.7000,14.35563859
8.7050,14.34964127
8.7100,14.3433465
8.7150,14.33648757
8.7200,14.32906515
8.7250,14.32132526
8.7300,14.31293321
8.7350,14.30384619
8.7400,14.29413793
8.7450,14.28392688
8.7500,14.27311305
8.7550,14.26172554
8.7600,14.24976515
8.7650,14.23729678
8.7700,14.22450639
8.7750,14.21144708
8.7800,14.19814861
8.7850,14.18459102
8.7900,14.17092071
8.7950,14.15736439
8.8000,14.14402307
8.8050,14.13087656
8.8100,14.11799792
8.8150,14.10567429
8.8200,14.09376107
8.8250,14.08240494
8.8300,14.07156414
8.8350,14.06136589
8.8400,14.05193494
8.8450,14.04327501
8.8500,14.03533695
8.8550,14.02816841
8.8600,14.02180749
8.8650,14.01625137
8.8700,14.01153236
8.8750,14.00772593
8.8800,14.00487478
8.8850,14.0026173
8.8900,14.00125559
8.8950,14.00092266
8.9000,14.00135376
8.9050,14.0023051
8.9100,14.00383877
8.9150,14.00600577
8.9200,14.00897353
8.9250,14.01256296
8.9300,14.01683766
8.9350,14.02192341
8.9400,14.02756158
8.9450,14.03383143
8.9500,14.04080176
8.9550,14.04845023
8.9600,14.05688204
8.9650,14.06602137
8.9700,14.07571035
8.9750,14.08588129
8.9800,14.09657252
8.9850,14.10778132
8.9900,14.11970095
8.9950,14.13213549
9.0000,14.145204
9.0050,14.15867842
9.0100,14.17259674
9.0150,14.18728148
9.0200,14.20259197
9.0250,14.21839502
9.0300,14.23501611
9.0350,14.25226872
9.0400,14.27031705
9.0450,14.28895992
9.0500,14.30816189
9.0550,14.32806279
9.0600,14.34843517
9.0650,14.36923873
9.0700,14.39025307
9.0750,14.41141731
9.0800,14.43281935
9.0850,14.45418719
9.0900,14.47557547
9.0950,14.4970777
9.1000,14.51868381
9.1050,14.54033645
9.1100,14.56212994
9.1150,14.58372451
9.1200,14.60531402
9.1250,14.62660317
9.1300,14.64793918
9.1350,14.66905669
9.1400,14.69024548
9.1450,14.71147032
9.1500,14.73290891
9.1550,14.75444649
9.1600,14.77611314
9.1650,14.79807136
9.1700,14.82014366
9.1750,14.84243994
9.1800,14.86499804
9.1850,14.88785837
9.1900,14.91092717
9.1950,14.93412458
9.2000,14.95759195
9.2050,14.98158253
9.2100,15.00589069
9.2150,15.03054382
9.2200,15.05528573
9.2250,15.08022998
9.2300,15.10516731
9.2350,15.1301374
9.2400,15.15549521
9.2450,15.1811528
9.2500,15.20685323
9.2550,15.23287842
9.2600,15.25901647
9.2650,15.28546938
9.2700,15.31218226
9.2750,15.33910084
9.2800,15.36612663
9.2850,15.39345445
9.2900,15.42085372
9.2950,15.44846746
9.3000,15.47640168
9.3050,15.50480348
9.3100,15.53352474
9.3150,15.56247284
9.3200,15.59169456
9.3250,15.62109921
9.3300,15.65057846
9.3350,15.68019822
9.3400,15.70982159
9.3450,15.73955573
9.3500,15.76922693
9.3550,15.79862333
9.3600,15.82786577
9.3650,15.85691831
9.3700,15.88577027
9.3750,15.91444857
9.3800,15.94309539
9.3850,15.97179588
9.3900,16.00050016
9.3950,16.02906952
9.4000,16.05762115
9.4050,16.08622803
9.4100,16.11483966
9.4150,16.14370029
9.4200,16.17263658
9.4250,16.20189713
9.4300,16.23118336
9.4350,16.26061321
9.4400,16.28994658
9.4450,16.3192919
9.4500,16.34872287
9.4550,16.37854632
9.4600,16.40877456
9.4650,16.43954534
9.4700,16.47103704
9.4750,16.50325328
9.4800,16.53621683
9.4850,16.57015303
9.4900,16.60503154
9.4950,16.64079231
9.5000,16.67751642
9.5050,16.71487008
9.5100,16.75302841
9.5150,16.79197065
9.5200,16.83164858
9.5250,16.8721943
9.5300,16.91350753
9.5350,16.95516792
9.5400,16.99695137
9.5450,17.0388343
9.5500,17.0808757
9.5550,17.1226199
9.5600,17.16391267
9.5650,17.20460863
9.5700,17.24453157
9.5750,17.28358243
9.5800,17.32187908
9.5850,17.35915099
9.5900,17.39563739
9.5950,17.43121538
9.6000,17.46599539
9.6050,17.50008158
9.6100,17.53360383
9.6150,17.56667131
9.6200,17.59928726
9.6250,17.63159067
9.6300,17.66364954
9.6350,17.6956311
9.6400,17.72738145
9.6450,17.75896758
9.6500,17.79067965
9.6550,17.82246086
9.6600,17.85441154
9.6650,17.88660508
9.6700,17.91917831
9.6750,17.95202452
9.6800,17.98502387
9.6850,18.01830935
9.6900,18.05181074
9.6950,18.08541772
9.7000,18.11906138
9.7050,18.15288703
9.7100,18.18684573
9.7150,18.22092483
9.7200,18.25532568
9.7250,18.29004861
9.7300,18.3253367
9.7350,18.36141001
9.7400,18.39838878
9.7450,18.43625678
9.7500,18.47510397
9.7550,18.51461772
9.7600,18.55487241
9.7650,18.59590348
9.7700,18.6377034
9.7750,18.68048481
9.7800,18.72430104
9.7850,18.76929088
9.7900,18.81547752
9.7950,18.86290772
9.8000,18.91161878
9.8050,18.9620548
9.8100,19.01403618
9.8150,19.06768313
9.8200,19.12306898
9.8250,19.17992045
9.8300,19.23845331
9.8350,19.29886644
9.8400,19.36119564
9.8450,19.42520843
9.8500,19.49088554
9.8550,19.55829269
9.8600,19.62744087
9.8650,19.69801344
9.8700,19.77015584
9.8750,19.84376437
9.8800,19.91851935
9.8850,19.99442042
9.8900,20.07108712
9.8950,20.14864602
9.9000,20.22689635
9.9050,20.30547068
9.9100,20.38436509
9.9150,20.46323248
9.9200,20.54215547
9.9250,20.62084628
9.9300,20.69926456
9.9350,20.77707224
9.9400,20.85429156
9.9450,20.93075293
9.9500,21.00616701
9.9550,21.0803672
9.9600,21.15307592
9.9650,21.22402479
9.9700,21.29315874
9.9750,21.36060699
9.9800,21.42616525
9.9850,21.4897684
9.9900,21.55121495
9.9950,21.61053665
10.0000,21.66768168
10.0050,21.72220114
10.0100,21.77425408
10.0150,21.82363455
10.0200,21.87029451
10.0250,21.91418037
10.0300,21.9553698
10.0350,21.99391125
10.0400,22.02979353
10.0450,22.06322625
10.0500,22.09427338
10.0550,22.12339014
10.0600,22.15073943
10.0650,22.17630093
10.0700,22.20014369
10.0750,22.22251523
10.0800,22.24357982
10.0850,22.2634402
10.0900,22.28227983
10.0950,22.30014099
10.1000,22.31714554
10.1050,22.33348539
10.1100,22.34937612
10.1150,22.36487455
10.1200,22.38016522
10.1250,22.39597547
10.1300,22.41230183
10.1350,22.42934891
10.1400,22.44728924
10.1450,22.46650009
10.1500,22.48723306
10.1550,22.50957462
10.1600,22.53336611
10.1650,22.55913751
10.1700,22.58669662
10.1750,22.6163062
10.1800,22.64823409
10.1850,22.68275338
10.1900,22.72007831
10.1950,22.75998428
10.2000,22.80240626
10.2050,22.84740588
10.2100,22.89469771
10.2150,22.94435571
10.2200,22.99600285
10.2250,23.04978508
10.2300,23.10520688
10.2350,23.1622383
10.2400,23.22060293
10.2450,23.27966957
10.2500,23.33938176
10.2550,23.39969651
10.2600,23.4603569
10.2650,23.5213713
10.2700,23.58258454
10.2750,23.64333535
10.2800,23.70343015
10.2850,23.76273384
10.2900,23.82106629
10.2950,23.87811915
10.3000,23.93372616
10.3050,23.987996
10.3100,24.04065118
10.3150,24.09156884
10.3200,24.14073956
10.3250,24.18815309
10.3300,24.2335717
10.3350,24.27682672
10.3400,24.31805182
10.3450,24.3571375
10.3500,24.39396334
10.3550,24.42823035
10.3600,24.45984821
10.3650,24.4889702
10.3700,24.51559215
10.3750,24.5394863
10.3800,24.5608467
10.3850,24.57970514
10.3900,24.5962551
10.3950,24.61069177
10.4000,24.62320741
10.4050,24.63398803
10.4100,24.64331791
10.4150,24.65138546
10.4200,24.65850014
10.4250,24.664479
10.4300,24.66965797
10.4350,24.67434979
10.4400,24.67865041
10.4450,24.6825845
10.4500,24.68626485
10.4550,24.689951
10.4600,24.69416797
10.4650,24.69881004
10.4700,24.70421942
10.4750,24.71039201
10.4800,24.71725343
10.4850,24.72486849
10.4900,24.73324798
10.4950,24.74273062
10.5000,24.75325823
10.5050,24.76498179
10.5100,24.77775292
10.5150,24.7917913
10.5200,24.8071137
10.5250,24.82359593
10.5300,24.84150891
10.5350,24.86078826
10.5400,24.88142539
10.5450,24.90399013
10.5500,24.92845626
10.5550,24.95460887
10.5600,24.98273826
10.5650,25.01266485
10.5700,25.04420507
10.5750,25.07740504
10.5800,25.11215928
10.5850,25.14818244
10.5900,25.1857235
10.5950,25.22459802
10.6000,25.26477259
10.6050,25.30586209
10.6100,25.34788896
10.6150,25.39089965
10.6200,25.43461058
10.6250,25.4790307
10.6300,25.52392047
10.6350,25.56914019
10.6400,25.61419574
10.6450,25.65915061
10.6500,25.70359406
10.6550,25.74735099
10.6600,25.79031204
10.6650,25.83247907
10.6700,25.87385466
10.6750,25.91445755
10.6800,25.95423809
10.6850,25.99333161
10.6900,26.03157115
10.6950,26.06909679
10.7000,26.10605788
10.7050,26.14217297
10.7100,26.17734352
10.7150,26.21177652
10.7200,26.24545294
10.7250,26.27841166
10.7300,26.31051139
10.7350,26.34183891
10.7400,26.37237799
10.7450,26.40209104
10.7500,26.43094644
10.7550,26.45893284
10.7600,26.4858901
10.7650,26.51193895
10.7700,26.53690059
10.7750,26.5606458
10.7800,26.58319211
10.7850,26.60443675
10.7900,26.62439923
10.7950,26.64307181
10.8000,26.66037507
10.8050,26.67668889
10.8100,26.69207968
10.8150,26.70664812
10.8200,26.72041455
10.8250,26.73337928
10.8300,26.74557071
10.8350,26.75678883
10.8400,26.76692417
10.8450,26.7758907
10.8500,26.78375597
10.8550,26.7904931
10.8600,26.79579018
10.8650,26.79959208
10.8700,26.801903
10.8750,26.80273382
10.8800,26.80209493
10.8850,26.79986742
10.8900,26.79575803
10.8950,26.78977375
10.9000,26.78184078
10.9050,26.77205429
10.9100,26.76010462
10.9150,26.74590862
10.9200,26.72954774
10.9250,26.71089111
10.9300,26.6900473
10.9350,26.66687787
10.9400,26.64167021
10.9450,26.61429769
10.9500,26.58507898
10.9550,26.55410126
10.9600,26.5214621
10.9650,26.4870858
10.9700,26.45092872
10.9750,26.41316056
10.9800,26.37362579
10.9850,26.33238353
10.9900,26.28958554
10.9950,26.24527554
11.0000,26.19940852
11.0050,26.15224549
11.0100,26.10399695
11.0150,26.05455324
11.0200,26.0039943
11.0250,25.9524605
11.0300,25.90015955
11.0350,25.84684995
11.0400,25.79276677
11.0450,25.73808195
11.0500,25.68296331
11.0550,25.62717978
11.0600,25.57076563
11.0650,25.51351463
11.0700,25.45561365
11.0750,25.39702837
11.0800,25.33794398
11.0850,25.27829106
11.0900,25.21798066
11.0950,25.1569882
11.1000,25.09552567
11.1050,25.03333752
11.1100,24.97051731
11.1150,24.9071484
11.1200,24.84331407
11.1250,24.77917852
11.1300,24.71460134
11.1350,24.64992639
11.1400,24.58537198
11.1450,24.52084099
11.1500,24.45619572
11.1550,24.3916774
11.1600,24.32736767
11.1650,24.26338484
11.1700,24.1995907
11.1750,24.13589488
11.1800,24.07244431
11.1850,24.00915868
11.1900,23.94620013
11.1950,23.88344251
11.2000,23.8207688
11.2050,23.75826263
11.2100,23.69594115
11.2150,23.63381377
11.2200,23.57171613
11.2250,23.50976691
11.2300,23.44801443
11.2350,23.38657966
11.2400,23.32539003
11.2450,23.26427333
11.2500,23.20337816
11.2550,23.14260661
11.2600,23.08186359
11.2650,23.02121244
11.2700,22.96051772
11.2750,22.89958233
11.2800,22.83866351
11.2850,22.77755367
11.2900,22.71620545
11.2950,22.65478526
11.3000,22.59332532
11.3050,22.53181215
11.3100,22.47028636
11.3150,22.40899748
11.3200,22.34800253
11.3250,22.28717836
11.3300,22.22669116
11.3350,22.1664583
11.3400,22.10609256
11.3450,22.04557676
11.3500,21.98461911
11.3550,21.92342499
11.3600,21.86190426
11.3650,21.80004545
11.3700,21.7378068
11.3750,21.67520813
11.3800,21.61203153
11.3850,21.54824815
11.3900,21.48396353
11.3950,21.41919449
11.4000,21.35389107
11.4050,21.28764926
11.4100,21.22052769
11.4150,21.152388
11.4200,21.08327004
11.4250,21.01317932
11.4300,20.94218386
11.4350,20.87023285
11.4400,20.79726456
11.4450,20.72332237
11.4500,20.64834532
11.4550,20.57245634
11.4600,20.49568259
11.4650,20.41802335
11.4700,20.33948503
11.4750,20.26019992
11.4800,20.17999388
11.4850,20.09862542
11.4900,20.01595843
11.4950,19.93211246
11.5000,19.84712951
11.5050,19.76107063
11.5100,19.67403351
11.5150,19.58612516
11.5200,19.4975146
11.5250,19.4082077
11.5300,19.31826215
11.5350,19.22780842
11.5400,19.13690859
11.5450,19.0454307
11.5500,18.95313517
11.5550,18.860332
11.5600,18.76700934
11.5650,18.67324765
11.5700,18.5793578
11.5750,18.48548674
11.5800,18.39151149
11.5850,18.29766252
11.5900,18.20416535
11.5950,18.11107126
11.6000,18.01849684
11.6050,17.92626869
11.6100,17.83454376
11.6150,17.74310451
11.6200,17.65180909
11.6250,17.56087265
11.6300,17.47005965
11.6350,17.37989276
11.6400,17.29048733
11.6450,17.20195949
11.6500,17.11451846
11.6550,17.02811643
11.6600,16.94300098
11.6650,16.85909031
11.6700,16.77654002
11.6750,16.69523461
11.6800,16.61516101
11.6850,16.53620312
11.6900,16.4584717
11.6950,16.3816138
11.7000,16.30557812
11.7050,16.23039024
11.7100,16.15590826
11.7150,16.08214135
11.7200,16.00897428
11.7250,15.93637109
11.7300,15.86443977
11.7350,15.7930186
11.7400,15.72229319
11.7450,15.65227239
11.7500,15.58281173
11.7550,15.51403236
11.7600,15.44569402
11.7650,15.37760387
11.7700,15.30987604
11.7750,15.24223865
11.7800,15.17447241
11.7850,15.106732
11.7900,15.03901492
11.7950,14.97119036
11.8000,14.90320767
11.8050,14.8349082
11.8100,14.76641571
11.8150,14.69751892
11.8200,14.62817494
11.8250,14.55817199
11.8300,14.48747815
11.8350,14.41623788
11.8400,14.34454906
11.8450,14.27270051
11.8500,14.20080041
11.8550,14.1287205
11.8600,14.05654961
11.8650,13.9842919
11.8700,13.9119791
11.8750,13.83971922
11.8800,13.76760027
11.8850,13.69571346
11.8900,13.6241192
11.8950,13.55277238
11.9000,13.48169696
11.9050,13.41127922
11.9100,13.34124518
11.9150,13.27179294
11.9200,13.20314486
11.9250,13.13520868
11.9300,13.06801028
11.9350,13.00138297
11.9400,12.93570698
11.9450,12.87105569
11.9500,12.80759742
11.9550,12.74548835
11.9600,12.684637
11.9650,12.62526828
11.9700,12.56740213
11.9750,12.51131026
11.9800,12.4567635
11.9850,12.40385775
11.9900,12.35233216
11.9950,12.30235552
12.0000,12.25386183
12.0050,12.20721965
12.0100,12.16257883
12.0150,12.11997609
12.0200,12.07957406
12.0250,12.04119023
12.0300,12.00493396
12.0350,11.97102946
12.0400,11.93924543
12.0450,11.90954435
12.0500,11.88198202
12.0550,11.85611697
12.0600,11.83191
12.0650,11.80924115
12.0700,11.7877345
12.0750,11.76744094
12.0800,11.74839191
12.0850,11.73032978
12.0900,11.71296799
12.0950,11.69600025
12.1000,11.67936014
12.1050,11.66281779
12.1100,11.64598934
12.1150,11.62874915
12.1200,11.61064216
12.1250,11.59149505
12.1300,11.57123917
12.1350,11.54944833
12.1400,11.52571868
12.1450,11.50007692
12.1500,11.4725323
12.1550,11.44328752
12.1600,11.41261855
12.1650,11.38073119
12.1700,11.34768967
12.1750,11.31364186
12.1800,11.27911667
12.1850,11.24419241
12.1900,11.20939487
12.1950,11.17468345
12.2000,11.14043901
12.2050,11.10680206
12.2100,11.07405226
12.2150,11.04229005
12.2200,11.01166037
12.2250,10.98220139
12.2300,10.95388753
12.2350,10.92669122
12.2400,10.90051522
12.2450,10.87519258
12.2500,10.85051326
12.2550,10.82642721
12.2600,10.80284923
12.2650,10.77965083
12.2700,10.75670118
12.2750,10.73381698
12.2800,10.71109288
12.2850,10.68867197
12.2900,10.66652404
12.2950,10.6446791
12.3000,10.62324851
12.3050,10.6022019
12.3100,10.58177357
12.3150,10.56199385
12.3200,10.54283598
12.3250,10.52446877
12.3300,10.50674109
12.3350,10.48973411
12.3400,10.47350815
12.3450,10.45819753
12.3500,10.44373669
12.3550,10.43027902
12.3600,10.41789652
12.3650,10.40633959
12.3700,10.39576207
12.3750,10.38613906
12.3800,10.37727966
12.3850,10.36924656
12.3900,10.36205486
12.3950,10.35568616
12.4000,10.34973626
12.4050,10.34415022
12.4100,10.33869888
12.4150,10.33325
12.4200,10.32794931
12.4250,10.32286608
12.4300,10.31783412
12.4350,10.31298303
12.4400,10.30842842
12.4450,10.30429061
12.4500,10.3006212
12.4550,10.29744354
12.4600,10.2949126
12.4650,10.29293161
12.4700,10.29177916
12.4750,10.29139522
12.4800,10.2917938
12.4850,10.29318532
12.4900,10.29541601
12.4950,10.2987259
12.5000,10.30326107
12.5050,10.30895588
12.5100,10.31592227
12.5150,10.32400526
12.5200,10.33332272
12.5250,10.34403925
12.5300,10.3565064
12.5350,10.37058012
12.5400,10.38605618
12.5450,10.403102
12.5500,10.42174175
12.5550,10.44176798
12.5600,10.46321059
12.5650,10.48610267
12.5700,10.51026802
12.5750,10.53575574
12.5800,10.56245161
12.5850,10.59017897
12.5900,10.61907927
12.5950,10.64908837
12.6000,10.68023245
12.6050,10.71229074
12.6100,10.74507624
12.6150,10.77855574
12.6200,10.81256435
12.6250,10.84711683
12.6300,10.88221769
12.6350,10.91771229
12.6400,10.95325045
12.6450,10.98860535
12.6500,11.02372848
12.6550,11.05826801
12.6600,11.09194047
12.6650,11.12499618
12.6700,11.15702545
12.6750,11.1879444
12.6800,11.21775618
12.6850,11.2465931
12.6900,11.27435732
12.6950,11.30136457
12.7000,11.32760558
12.7050,11.35328927
12.7100,11.37852099
12.7150,11.40368344
12.7200,11.42888045
12.7250,11.45418301
12.7300,11.47981163
12.7350,11.50590102
12.7400,11.5324717
12.7450,11.55953125
12.7500,11.58711022
12.7550,11.61524504
12.7600,11.64381298
12.7650,11.67297325
12.7700,11.70269502
12.7750,11.73301473
12.7800,11.76393691
12.7850,11.79550655
12.7900,11.82753965
12.7950,11.86015284
12.8000,11.89309533
12.8050,11.92624089
12.8100,11.95953224
12.8150,11.9930903
12.8200,12.02658223
12.8250,12.05997391
12.8300,12.09314622
12.8350,12.12616581
12.8400,12.15931841
12.8450,12.19250561
12.8500,12.22569356
12.8550,12.25903378
12.8600,12.29261089
12.8650,12.32635368
12.8700,12.36024214
12.8750,12.39438117
12.8800,12.42880461
12.8850,12.46343725
12.8900,12.49812247
12.8950,12.53295572
12.9000,12.56773941
12.9050,12.60263008
12.9100,12.63752053
12.9150,12.67240883
12.9200,12.70752313
12.9250,12.74268977
12.9300,12.7777271
12.9350,12.81270444
12.9400,12.84764555
12.9450,12.8823314
12.9500,12.91662561
12.9550,12.95061618
12.9600,12.98424898
12.9650,13.01729874
12.9700,13.04980031
12.9750,13.08170903
12.9800,13.11297121
12.9850,13.143436
12.9900,13.17295923
12.9950,13.20141994
13.0000,13.22898369
13.0050,13.25549538
13.0100,13.28114132
13.0150,13.3056229
13.0200,13.32907312
13.0250,13.35129924
13.0300,13.37231641
13.0350,13.39195416
13.0400,13.41039717
13.0450,13.42753988
13.0500,13.44347305
13.0550,13.45812638
13.0600,13.47146723
13.0650,13.48353565
13.0700,13.49428155
13.0750,13.50384726
13.0800,13.51223762
13.0850,13.51936716
13.0900,13.52529551
13.0950,13.53020105
13.1000,13.53416957
13.1050,13.53733451
13.1100,13.53986729
13.1150,13.54188065
13.1200,13.54372371
13.1250,13.54540284
13.1300,13.54690115
13.1350,13.5484678
13.1400,13.55023464
13.1450,13.55225958
13.1500,13.55476449
13.1550,13.55776709
13.1600,13.56131427
13.1650,13.56565012
13.1700,13.57087889
13.1750,13.57695969
13.1800,13.58420955
13.1850,13.59271638
13.1900,13.60254632
13.1950,13.61344651
13.2000,13.62574509
13.2050,13.63942605
13.2100,13.65459635
13.2150,13.67103816
13.2200,13.68878807
13.2250,13.70782085
13.2300,13.72801547
13.2350,13.74929051
13.2400,13.77174027
13.2450,13.7951794
13.2500,13.81961108
13.2550,13.84477736
13.2600,13.87038672
13.2650,13.89636373
13.2700,13.92265128
13.2750,13.94873927
13.2800,13.97451071
13.2850,13.9997296
13.2900,14.0241802
13.2950,14.04759644
13.3000,14.06969701
13.3050,14.09047703
13.3100,14.10975661
13.3150,14.12750473
13.3200,14.1434759
13.3250,14.15782153
13.3300,14.17059789
13.3350,14.18180289
13.3400,14.19163466
13.3450,14.20013712
13.3500,14.20748663
13.3550,14.21385487
13.3600,14.21961027
13.3650,14.22490874
13.3700,14.22998641
13.3750,14.23490954
13.3800,14.23978636
13.3850,14.2449294
13.3900,14.25037864
13.3950,14.25611934
13.4000,14.26217786
13.4050,14.26852664
13.4100,14.2750995
13.4150,14.28186022
13.4200,14.28862182
13.4250,14.29524926
13.4300,14.30159047
13.4350,14.30752589
13.4400,14.31279071
13.4450,14.31728196
13.4500,14.32078331
13.4550,14.32330276
13.4600,14.32473664
13.4650,14.32499734
13.4700,14.3242051
13.4750,14.32236468
13.4800,14.31941043
13.4850,14.31555628
13.4900,14.31096248
13.4950,14.30585467
13.5000,14.30033977
13.5050,14.29455611
13.5100,14.28885133
13.5150,14.2833764
13.5200,14.27816356
13.5250,14.27340646
13.5300,14.26938355
13.5350,14.26589231
13.5400,14.26287565
13.5450,14.26057275
13.5500,14.25879674
13.5550,14.25743771
13.5600,14.25650719
13.5650,14.25583547
13.5700,14.2552385
13.5750,14.25484089
13.5800,14.2545875
13.5850,14.25424358
13.5900,14.25396819
13.5950,14.25369187
13.6000,14.2534867
13.6050,14.25305298
13.6100,14.25239521
13.6150,14.25146327
13.6200,14.25013809
13.6250,14.2484611
13.6300,14.24614141
13.6350,14.24353161
13.6400,14.24019859
13.6450,14.23623831
13.6500,14.23146556
13.6550,14.22603953
13.6600,14.21960386
13.6650,14.21208349
13.6700,14.2035565
13.6750,14.1939057
13.6800,14.18316948
13.6850,14.17108106
13.6900,14.15780566
13.6950,14.14338186
13.7000,14.12774418
13.7050,14.11094938
13.7100,14.0932585
13.7150,14.07466038
13.7200,14.0551729
13.7250,14.03506328
13.7300,14.01453359
13.7350,13.99359224
13.7400,13.97238596
13.7450,13.95087125
13.7500,13.92941328
13.7550,13.90804225
13.7600,13.88676375
13.7650,13.86582507
13.7700,13.84507019
13.7750,13.82482679
13.7800,13.80509987
13.7850,13.78602555
13.7900,13.76758736
13.7950,13.74981759
13.8000,13.73286781
13.8050,13.71679953
13.8100,13.70149888
13.8150,13.68725679
13.8200,13.67400647
13.8250,13.66197316
13.8300,13.65099727
13.8350,13.64123908
13.8400,13.63274051
13.8450,13.62547204
13.8500,13.61959686
13.8550,13.61497863
13.8600,13.61172569
13.8650,13.60960792
13.8700,13.60882056
13.8750,13.6091822
13.8800,13.61043075
13.8850,13.61281958
13.8900,13.61605401
13.8950,13.62011495
13.9000,13.62491565
13.9050,13.63039171
13.9100,13.6364198
13.9150,13.6430046
13.9200,13.65026078
13.9250,13.65797172
13.9300,13.66620638
13.9350,13.67466922
13.9400,13.68348728
13.9450,13.69260682
13.9500,13.70190726
13.9550,13.71124076
13.9600,13.72077263
13.9650,13.73060401
13.9700,13.74052214
13.9750,13.75078028
13.9800,13.76109064
13.9850,13.7716503
13.9900,13.78240823
13.9950,13.79320828
14.0000,13.80419304
14.0050,13.81534332
14.0100,13.82657829
14.0150,13.83778909
14.0200,13.84922535
14.0250,13.86060458
14.0300,13.87207714
14.0350,13.88366631
14.0400,13.89526792
14.0450,13.90709095
14.0500,13.91867505
14.0550,13.93023977
14.0600,13.94184348
14.0650,13.95311876
14.0700,13.96421206
14.0750,13.97497501
14.0800,13.98517988
14.0850,13.9947989
14.0900,14.00371215
14.0950,14.01206409
14.1000,14.01964193
14.1050,14.02657839
14.1100,14.03284612
14.1150,14.03828818
14.1200,14.0432352
14.1250,14.0475165
14.1300,14.05129025
14.1350,14.05455129
14.1400,14.05730433
14.1450,14.059383
14.1500,14.0607981
14.1550,14.0617083
14.1600,14.06209751
14.1650,14.06204952
14.1700,14.06130811
14.1750,14.05991621
14.1800,14.05790017
14.1850,14.05513335
14.1900,14.05177892
14.1950,14.04780355
14.2000,14.04309089
14.2050,14.0378281
14.2100,14.0320547
14.2150,14.02559061
14.2200,14.01854782
14.2250,14.01083359
14.2300,14.00250732
14.2350,13.99337161
14.2400,13.98365139
14.2450,13.97333089
14.2500,13.9626187
14.2550,13.95145875
14.2600,13.9399967
14.2650,13.92809467
14.2700,13.91582728
14.2750,13.90314046
14.2800,13.88998792
14.2850,13.87626055
14.2900,13.86181337
14.2950,13.84660925
14.3000,13.83054112
14.3050,13.81347796
14.3100,13.7954335
14.3150,13.7762796
14.3200,13.75577291
14.3250,13.73404887
14.3300,13.71085012
14.3350,13.68605746
14.3400,13.6596466
14.3450,13.63166085
14.3500,13.60218342
14.3550,13.57107749
14.3600,13.53830414
14.3650,13.50433245
14.3700,13.46903474
14.3750,13.43241469
14.3800,13.39501748
14.3850,13.35674601
14.3900,13.31782392
14.3950,13.27859039
14.4000,13.23926191
14.4050,13.20008374
14.4100,13.16127001
14.4150,13.12306612
14.4200,13.08558987
14.4250,13.04905365
14.4300,13.0136735
14.4350,12.97965077
14.4400,12.94699974
14.4450,12.91612557
14.4500,12.88683839
14.4550,12.8593445
14.4600,12.83365984
14.4650,12.80983974
14.4700,12.78807187
14.4750,12.76830569
14.4800,12.75067204
14.4850,12.73508871
14.4900,12.72154854
14.4950,12.70995574
14.5000,12.7006121
14.5050,12.69326448
14.5100,12.68784572
14.5150,12.68450146
14.5200,12.68305884
14.5250,12.68363591
14.5300,12.68621646
14.5350,12.69093167
14.5400,12.69764278
14.5450,12.70644997
14.5500,12.71742097
14.5550,12.73044673
14.5600,12.74526119
14.5650,12.76187683
14.5700,12.77996497
14.5750,12.79923552
14.5800,12.81975812
14.5850,12.84139347
14.5900,12.86391975
14.5950,12.88722675
14.6000,12.91120716
14.6050,12.93571224
14.6100,12.96012804
14.6150,12.9844756
14.6200,13.00857531
14.6250,13.03223273
14.6300,13.0555157
14.6350,13.07836248
14.6400,13.10051429
14.6450,13.12182575
14.6500,13.14243225
14.6550,13.16224016
14.6600,13.18126069
14.6650,13.1992664
14.6700,13.21630619
14.6750,13.23251283
14.6800,13.24774106
14.6850,13.26211926
14.6900,13.27567043
14.6950,13.28836128
14.7000,13.30002278
14.7050,13.31065313
14.7100,13.32035779
14.7150,13.32913017
14.7200,13.33708956
14.7250,13.34419114
14.7300,13.35062624
14.7350,13.35635989
14.7400,13.3616936
14.7450,13.36661101
14.7500,13.37134086
14.7550,13.37604727
14.7600,13.38071528
14.7650,13.38554069
14.7700,13.39054255
14.7750,13.39607487
14.7800,13.40230739
14.7850,13.40940606
14.7900,13.41744735
14.7950,13.4266065
14.8000,13.43659633
14.8050,13.4475202
14.8100,13.45900613
14.8150,13.47109582
14.8200,13.48385792
14.8250,13.4972869
14.8300,13.51180878
14.8350,13.52768511
14.8400,13.54501753
14.8450,13.56381922
14.8500,13.58405329
14.8550,13.60576122
14.8600,13.62895251
14.8650,13.65326328
14.8700,13.67863691
14.8750,13.70474708
14.8800,13.73116387
14.8850,13.75777789
14.8900,13.78433116
14.8950,13.81075735
14.9000,13.83671203
14.9050,13.86221345
14.9100,13.88728014
14.9150,13.91174748
14.9200,13.93558077
14.9250,13.95875875
14.9300,13.98094377
14.9350,14.00230305
14.9400,14.0228572
14.9450,14.04277627
14.9500,14.06219731
14.9550,14.08132517
14.9600,14.10066822
14.9650,14.12056309
14.9700,14.14165457
14.9750,14.16408474
14.9800,14.18799718
14.9850,14.21372286
14.9900,14.24168758
14.9950,14.27203802
15.0000,14.30522863
15.0050,14.34128125
15.0100,14.38033309
15.0150,14.42257197
15.0200,14.46783013
15.0250,14.51614975
15.0300,14.56744988
15.0350,14.62177554
15.0400,14.6789927
15.0450,14.73917365
15.0500,14.80226704
15.0550,14.86799822
15.0600,14.93627096
15.0650,15.00673688
15.0700,15.0792827
15.0750,15.15354032
15.0800,15.22909966
15.0850,15.30570618
15.0900,15.38300438
15.0950,15.46071749
15.1000,15.53886765
15.1050,15.61746519
15.1100,15.69680972
15.1150,15.77650093
15.1200,15.8563894
15.1250,15.93625634
15.1300,16.01533252
15.1350,16.09329962
15.1400,16.16996922
15.1450,16.24492215
15.1500,16.31809383
15.1550,16.38932833
15.1600,16.45863582
15.1650,16.52603062
15.1700,16.59160618
15.1750,16.65553385
15.1800,16.71785825
15.1850,16.77831281
15.1900,16.83694651
15.1950,16.89347019
15.2000,16.94782554
15.2050,16.99999383
15.2100,17.04978626
15.2150,17.09734669
15.2200,17.14253861
15.2250,17.18548108
15.2300,17.22632515
15.2350,17.26505085
15.2400,17.30183194
15.2450,17.33667329
15.2500,17.36974115
15.2550,17.40135026
15.2600,17.43153293
15.2650,17.46024947
15.2700,17.4876969
15.2750,17.51417348
15.2800,17.54003682
15.2850,17.56529982
15.2900,17.58993523
15.2950,17.61406653
15.3000,17.63794141
15.3050,17.66183683
15.3100,17.685702
15.3150,17.7096928
15.3200,17.73395042
15.3250,17.75863124
15.3300,17.7838603
15.3350,17.80962415
15.3400,17.83603627
15.3450,17.86291107
15.3500,17.89030051
15.3550,17.91821664
15.3600,17.94669824
15.3650,17.97605566
15.3700,18.0061582
15.3750,18.0372075
15.3800,18.06913641
15.3850,18.10221515
15.3900,18.13630125
15.3950,18.17151436
15.4000,18.20750675
15.4050,18.2444001
15.4100,18.28217164
15.4150,18.32106753
15.4200,18.36121354
15.4250,18.40265796
15.4300,18.44578833
15.4350,18.49079834
15.4400,18.53753824
15.4450,18.58606066
15.4500,18.63632459
15.4550,18.6883244
15.4600,18.74169472
15.4650,18.79668789
15.4700,18.85310557
15.4750,18.91085707
15.4800,18.96990602
15.4850,19.03013963
15.4900,19.09137721
15.4950,19.15353657
15.5000,19.21642545
15.5050,19.27963164
15.5100,19.34319567
15.5150,19.40698639
15.5200,19.47093265
15.5250,19.53469138
15.5300,19.59817956
15.5350,19.6613085
15.5400,19.72413649
15.5450,19.78660488
15.5500,19.84833594
15.5550,19.90916837
15.5600,19.96906392
15.5650,20.02822813
15.5700,20.08653331
15.5750,20.14390619
15.5800,20.20019569
15.5850,20.25555444
15.5900,20.30990618
15.5950,20.36335084
15.6000,20.41568278
15.6050,20.4667013
15.6100,20.5166442
15.6150,20.56560349
15.6200,20.61355297
15.6250,20.66046586
15.6300,20.70654927
15.6350,20.75176946
15.6400,20.79624347
15.6450,20.83984082
15.6500,20.88265837
15.6550,20.92500716
15.6600,20.96721648
15.6650,21.00922178
15.6700,21.05128379
15.6750,21.09355617
15.6800,21.13622774
15.6850,21.1791782
15.6900,21.22261956
15.6950,21.26671677
15.7000,21.31179454
15.7050,21.35778279
15.7100,21.40488009
15.7150,21.45326392
15.7200,21.50295795
15.7250,21.5540843
15.7300,21.60647666
15.7350,21.66025776
15.7400,21.71573576
15.7450,21.77320119
15.7500,21.83264835
15.7550,21.89426228
15.7600,21.958191
15.7650,22.02436008
15.7700,22.09271748
15.7750,22.16309779
15.7800,22.23527269
15.7850,22.30938295
15.7900,22.38520443
15.7950,22.4629673
15.8000,22.54247001
15.8050,22.62372964
15.8100,22.70682229
15.8150,22.79133454
15.8200,22.87711753
15.8250,22.9641308
15.8300,23.0523341
15.8350,23.1416144
15.8400,23.23166607
15.8450,23.32248542
15.8500,23.41399308
15.8550,23.50606302
15.8600,23.59840821
15.8650,23.69071072
15.8700,23.78279625
15.8750,23.87440213
15.8800,23.96573601
15.8850,24.05664593
15.8900,24.14731303
15.8950,24.23753886
15.9000,24.32717924
15.9050,24.4164
15.9100,24.50499886
15.9150,24.59278698
15.9200,24.67949242
15.9250,24.76529275
15.9300,24.84984433
15.9350,24.93346939
15.9400,25.0161304
15.9450,25.09818576
15.9500,25.17936489
15.9550,25.2598005
15.9600,25.33946477
15.9650,25.41887288
15.9700,25.49827356
15.9750,25.57778189
15.9800,25.65760181
15.9850,25.73841047
15.9900,25.82045927
15.9950,25.9038922
16.0000,25.98898347
16.0050,26.07597293
16.0100,26.16508692
16.0150,26.25658
16.0200,26.35065448
16.0250,26.4475432
16.0300,26.54768864
16.0350,26.65103381
16.0400,26.75745472
16.0450,26.86697979
16.0500,26.97958527
16.0550,27.0950378
16.0600,27.21333019
16.0650,27.33416835
16.0700,27.45744536
16.0750,27.58304345
16.0800,27.71087269
16.0850,27.84034145
16.0900,27.97147789
16.0950,28.10352348
16.1000,28.23653456
16.1050,28.37032373
16.1100,28.50448114
16.1150,28.63892071
16.1200,28.77339696
16.1250,28.90749461
16.1300,29.04071336
16.1350,29.17266034
16.1400,29.30294684
16.1450,29.43118787
16.1500,29.55726808
16.1550,29.68079259
16.1600,29.80149553
16.1650,29.91916969
16.1700,30.03368726
16.1750,30.14477562
16.1800,30.25192719
16.1850,30.35473457
16.1900,30.45295191
16.1950,30.5462004
16.2000,30.63430801
16.2050,30.7169071
16.2100,30.79384658
16.2150,30.86478446
16.2200,30.9299402
16.2250,30.98898803
16.2300,31.0422141
16.2350,31.08928369
16.2400,31.13053223
16.2450,31.16596911
16.2500,31.19631698
16.2550,31.2217202
16.2600,31.24250017
16.2650,31.2584112
16.2700,31.26958348
16.2750,31.27620341
16.2800,31.27864497
16.2850,31.27672071
16.2900,31.27089977
16.2950,31.2614595
16.3000,31.24890548
16.3050,31.23360075
16.3100,31.21554519
16.3150,31.19483639
16.3200,31.17166539
16.3250,31.1461621
16.3300,31.11843881
16.3350,31.08876257
16.3400,31.05746484
16.3450,31.02451653
16.3500,30.99016254
16.3550,30.95461748
16.3600,30.9180658
16.3650,30.8806893
16.3700,30.84249334
16.3750,30.80383954
16.3800,30.76482858
16.3850,30.72588416
16.3900,30.68714815
16.3950,30.64887517
16.4000,30.61108598
16.4050,30.57374538
16.4100,30.53701115
16.4150,30.50073479
16.4200,30.46500215
16.4250,30.42986859
16.4300,30.39539743
16.4350,30.36155017
16.4400,30.32839532
16.4450,30.29595971
16.4500,30.26415431
16.4550,30.23293293
16.4600,30.20209283
16.4650,30.17132548
16.4700,30.14045899
16.4750,30.10934648
16.4800,30.07799829
16.4850,30.04645398
16.4900,30.01453279
16.4950,29.98215843
16.5000,29.94915456
16.5050,29.91551794
16.5100,29.88114048
16.5150,29.84598042
16.5200,29.80987132
16.5250,29.77280494
16.5300,29.73452968
16.5350,29.69513591
16.5400,29.654266
16.5450,29.61199219
16.5500,29.5680262
16.5550,29.52224358
16.5600,29.47440662
16.5650,29.42472081
16.5700,29.37313837
16.5750,29.31956816
16.5800,29.26397105
16.5850,29.20634274
16.5900,29.14669837
16.5950,29.08510925
16.6000,29.02141911
16.6050,28.95544589
16.6100,28.88727107
16.6150,28.81706574
16.6200,28.7449733
16.6250,28.67111057
16.6300,28.5953993
16.6350,28.51804868
16.6400,28.43877659
16.6450,28.35803386
16.6500,28.27574141
16.6550,28.19211388
16.6600,28.10718581
16.6650,28.02098838
16.6700,27.93385156
16.6750,27.84562595
16.6800,27.75638494
16.6850,27.66630432
16.6900,27.57529609
16.6950,27.48363811
16.7000,27.39113537
16.7050,27.29822684
16.7100,27.20473007
16.7150,27.11083183
16.7200,27.01643561
16.7250,26.92175072
16.7300,26.82705242
16.7350,26.73234702
16.7400,26.63778768
16.7450,26.54333012
16.7500,26.44881676
16.7550,26.35437419
16.7600,26.26011611
16.7650,26.16625911
16.7700,26.0727356
16.7750,25.97971733
16.7800,25.8870225
16.7850,25.79459182
16.7900,25.70226567
16.7950,25.61012879
16.8000,25.51814657
16.8050,25.42627381
16.8100,25.3343976
16.8150,25.24246604
16.8200,25.1505811
16.8250,25.05863874
16.8300,24.9666895
16.8350,24.87476728
16.8400,24.78297348
16.8450,24.69135247
16.8500,24.59996751
16.8550,24.50873425
16.8600,24.41787559
16.8650,24.32736388
16.8700,24.23739848
16.8750,24.14799353
16.8800,24.05932268
16.8850,23.97156395
16.8900,23.88462308
16.8950,23.79841395
16.9000,23.71295651
16.9050,23.62809299
16.9100,23.54401411
16.9150,23.46060797
16.9200,23.37775689
16.9250,23.29551167
16.9300,23.21375607
16.9350,23.13244961
16.9400,23.05189946
16.9450,22.97192272
16.9500,22.8923691
16.9550,22.81316051
16.9600,22.73424179
16.9650,22.65553383
16.9700,22.57682865
16.9750,22.49835878
16.9800,22.42014897
16.9850,22.3419589
16.9900,22.26380212
16.9950,22.1854348
17.0000,22.10697969
17.0050,22.02842914
17.0100,21.94996239
17.0150,21.87171381
17.0200,21.7937712
17.0250,21.71603498
17.0300,21.63829523
17.0350,21.56064112
17.0400,21.48302894
17.0450,21.40542449
17.0500,21.32794802
17.0550,21.25039295
17.0600,21.17278206
17.0650,21.09517441
17.0700,21.0175928
17.0750,20.94005477
17.0800,20.86276627
17.0850,20.78583608
17.0900,20.70937873
17.0950,20.63320735
17.1000,20.55739888
17.1050,20.48184083
17.1100,20.40660547
17.1150,20.33175117
17.1200,20.25694674
17.1250,20.18217083
17.1300,20.10717045
17.1350,20.03186872
17.1400,19.95628221
17.1450,19.88021301
17.1500,19.80355545
17.1550,19.72649424
17.1600,19.64898504
17.1650,19.57111716
17.1700,19.4927923
17.1750,19.41416366
17.1800,19.33516334
17.1850,19.25574724
17.1900,19.17583819
17.1950,19.09536997
17.2000,19.01433753
17.2050,18.93297675
17.2100,18.85103601
17.2150,18.76857194
17.2200,18.68567744
17.2250,18.60229766
17.2300,18.51874446
17.2350,18.43471877
17.2400,18.35046159
17.2450,18.26581238
17.2500,18.18102028
17.2550,18.09600894
17.2600,18.01091479
17.2650,17.92573704
17.2700,17.84056854
17.2750,17.75521909
17.2800,17.66980526
17.2850,17.58431399
17.2900,17.4990045
17.2950,17.41391223
17.3000,17.32919152
17.3050,17.24471097
17.3100,17.16047878
17.3150,17.07637458
17.3200,16.99241983
17.3250,16.90868795
17.3300,16.82526569
17.3350,16.74205279
17.3400,16.65907673
17.3450,16.57644127
17.3500,16.49450017
17.3550,16.41328287
17.3600,16.33297113
17.3650,16.2536214
17.3700,16.17518587
17.3750,16.0976814
17.3800,16.02100816
17.3850,15.94507541
17.3900,15.86996046
17.3950,15.7957175
17.4000,15.72217791
17.4050,15.64938587
17.4100,15.57706764
17.4150,15.50508585
17.4200,15.4335384
17.4250,15.36240536
17.4300,15.29168579
17.4350,15.22151452
17.4400,15.15198015
17.4450,15.08313211
17.4500,15.0150435
17.4550,14.94756235
17.4600,14.88080592
17.4650,14.81472402
17.4700,14.74932758
17.4750,14.68448518
17.4800,14.62013669
17.4850,14.55617483
17.4900,14.49252247
17.4950,14.42927949
17.5000,14.36616837
17.5050,14.30298719
17.5100,14.23986881
17.5150,14.17669115
17.5200,14.11339605
17.5250,14.05016848
17.5300,13.98679123
17.5350,13.92372677
17.5400,13.86061069
17.5450,13.79765736
17.5500,13.73492434
17.5550,13.672687
17.5600,13.61093617
17.5650,13.54989912
17.5700,13.48981165
17.5750,13.43088982
17.5800,13.37318844
17.5850,13.31726467
17.5900,13.26305604
17.5950,13.21087648
17.6000,13.16077296
17.6050,13.11292077
17.6100,13.06735158
17.6150,13.0242671
17.6200,12.98357828
17.6250,12.94514848
17.6300,12.90898578
17.6350,12.87500804
17.6400,12.84319888
17.6450,12.81316396
17.6500,12.78449906
17.6550,12.75715811
17.6600,12.73093628
17.6650,12.70591875
17.6700,12.68199539
17.6750,12.65916651
17.6800,12.63742192
17.6850,12.61661832
17.6900,12.59657956
17.6950,12.57735144
17.7000,12.55900558
17.7050,12.5414162
17.7100,12.5245106
17.7150,12.50835494
17.7200,12.49288565
17.7250,12.47803041
17.7300,12.46384444
17.7350,12.45019425
17.7400,12.43682542
17.7450,12.42356983
17.7500,12.41039146
17.7550,12.39752071
17.7600,12.38469939
17.7650,12.37193093
17.7700,12.35923633
17.7750,12.34652328
17.7800,12.33369661
17.7850,12.32071573
17.7900,12.30768231
17.7950,12.29446635
17.8000,12.28135092
17.8050,12.26838109
17.8100,12.25562256
17.8150,12.2432989
17.8200,12.23127321
17.8250,12.21949027
17.8300,12.20805705
17.8350,12.1968021
17.8400,12.18583919
17.8450,12.1752929
17.8500,12.16530247
17.8550,12.15576694
17.8600,12.14681895
17.8650,12.13868558
17.8700,12.13123441
17.8750,12.12457478
17.8800,12.11887744
17.8850,12.11404373
17.8900,12.11008992
17.8950,12.10704941
17.9000,12.10503457
17.9050,12.10390922
17.9100,12.10370276
17.9150,12.10418027
17.9200,12.10541976
17.9250,12.10729189
17.9300,12.10974646
17.9350,12.11272118
17.9400,12.11627604
17.9450,12.12056012
17.9500,12.12562103
17.9550,12.13169099
17.9600,12.1388242
17.9650,12.14673299
17.9700,12.15564322
17.9750,12.16552085
17.9800,12.17627613
17.9850,12.1879904
17.9900,12.20064863
17.9950,12.21416215
18.0000,12.22844947
18.0050,12.24345322
18.0100,12.25924874
18.0150,12.27561416
18.0200,12.29226191
18.0250,12.30934112
18.0300,12.32665649
18.0350,12.34398933
18.0400,12.36110475
18.0450,12.37803882
18.0500,12.39472737
18.0550,12.41071731
18.0600,12.42616941
18.0650,12.44092222
18.0700,12.45478952
18.0750,12.46780576
18.0800,12.48015573
18.0850,12.49184679
18.0900,12.50302204
18.0950,12.51377355
18.1000,12.52402677
18.1050,12.53396076
18.1100,12.54375482
18.1150,12.55340036
18.1200,12.56324298
18.1250,12.57351571
18.1300,12.58436746
18.1350,12.59588742
18.1400,12.60831063
18.1450,12.62150679
18.1500,12.6356022
18.1550,12.65063817
18.1600,12.66667534
18.1650,12.68366789
18.1700,12.70185337
18.1750,12.72096135
18.1800,12.74091679
18.1850,12.76153809
18.1900,12.78296349
18.1950,12.80520687
18.2000,12.82808519
18.2050,12.85185095
18.2100,12.87637631
18.2150,12.90199582
18.2200,12.92865325
18.2250,12.95652739
18.2300,12.98559985
18.2350,13.01598635
18.2400,13.04769176
18.2450,13.08065097
18.2500,13.1148545
18.2550,13.15016435
18.2600,13.18662878
18.2650,13.22434437
18.2700,13.26319561
18.2750,13.30310378
18.2800,13.34403045
18.2850,13.38589391
18.2900,13.42865244
18.2950,13.47209969
18.3000,13.51617891
18.3050,13.56062025
18.3100,13.60527729
18.3150,13.64990978
18.3200,13.69449088
18.3250,13.73876379
18.3300,13.78243971
18.3350,13.8254353
18.3400,13.86771932
18.3450,13.90918844
18.3500,13.94961007
18.3550,13.98908265
18.3600,14.02740586
18.3650,14.06456238
18.3700,14.10039459
18.3750,14.13492546
18.3800,14.1680786
18.3850,14.19985869
18.3900,14.23010757
18.3950,14.25899713
18.4000,14.28637365
18.4050,14.31253273
18.4100,14.33704463
18.4150,14.36016012
18.4200,14.38183832
18.4250,14.401848
18.4300,14.42036318
18.4350,14.43757517
18.4400,14.45341595
18.4450,14.46811972
18.4500,14.48154791
18.4550,14.49404427
18.4600,14.50554263
18.4650,14.51619066
18.4700,14.52596159
18.4750,14.53510444
18.4800,14.543656
18.4850,14.55168879
18.4900,14.55938229
18.4950,14.56654375
18.5000,14.57339453
18.5050,14.57964205
18.5100,14.58550097
18.5150,14.59069481
18.5200,14.59542843
18.5250,14.59966182
18.5300,14.60347329
18.5350,14.60675043
18.5400,14.60929385
18.5450,14.61138949
18.5500,14.61317346
18.5550,14.61460446
18.5600,14.61578961
18.5650,14.61664901
18.5700,14.61727986
18.5750,14.61763927
18.5800,14.61795891
18.5850,14.61838106
18.5900,14.61884361
18.5950,14.61957499
18.6000,14.6203364
18.6050,14.62127236
18.6100,14.62250983
18.6150,14.62407675
18.6200,14.62604176
18.6250,14.62837776
18.6300,14.631124
18.6350,14.6343859
18.6400,14.63835548
18.6450,14.64303642
18.6500,14.6484976
18.6550,14.6549001
18.6600,14.66228711
18.6650,14.6706678
18.6700,14.68030053
18.6750,14.69131664
18.6800,14.70349387
18.6850,14.71688849
18.6900,14.73152518
18.6950,14.74722334
18.7000,14.76413881
18.7050,14.78196031
18.7100,14.80095512
18.7150,14.82072366
18.7200,14.8410791
18.7250,14.8619392
18.7300,14.8831991
18.7350,14.90459006
18.7400,14.92621943
18.7450,14.94793574
18.7500,14.96970969
18.7550,14.99123307
18.7600,15.01253255
18.7650,15.03333981
18.7700,15.05364103
18.7750,15.07326648
18.7800,15.09225933
18.7850,15.11045455
18.7900,15.12758839
18.7950,15.14366327
18.8000,15.15862112
18.8050,15.17247598
18.8100,15.18524074
18.8150,15.19680154
18.8200,15.20713847
18.8250,15.21613947
18.8300,15.22368576
18.8350,15.22990626
18.8400,15.23477864
18.8450,15.23800672
18.8500,15.23949217
18.8550,15.2392079
18.8600,15.23713307
18.8650,15.23332499
18.8700,15.22774927
18.8750,15.22059023
18.8800,15.2117811
18.8850,15.20142212
18.8900,15.18979482
18.8950,15.17695101
18.9000,15.16329638
18.9050,15.14899391
18.9100,15.13426478
18.9150,15.11946245
18.9200,15.10465217
18.9250,15.09024373
18.9300,15.07649427
18.9350,15.06357235
18.9400,15.05153459
18.9450,15.04059747
18.9500,15.03095105
18.9550,15.02274019
18.9600,15.01612042
18.9650,15.01099744
18.9700,15.00745133
18.9750,15.00530477
18.9800,15.00459401
18.9850,15.00518524
18.9900,15.0069028
18.9950,15.00952931
19.0000,15.01284159
19.0050,15.01647465
19.0100,15.02024577
19.0150,15.02396999
19.0200,15.02748266
19.0250,15.03081879
19.0300,15.03364869
19.0350,15.03586583
19.0400,15.03720906
19.0450,15.03786332
19.0500,15.03779519
19.0550,15.03717793
19.0600,15.03589034
19.0650,15.03407329
19.0700,15.03190561
19.0750,15.02961935
19.0800,15.02699654
19.0850,15.02446619
19.0900,15.02226403
19.0950,15.02050234
19.1000,15.01940375
19.1050,15.01909153
19.1100,15.01946033
19.1150,15.02068511
19.1200,15.02259155
19.1250,15.02511959
19.1300,15.02826504
19.1350,15.031853
19.1400,15.03574992
19.1450,15.04005762
19.1500,15.04456231
19.1550,15.04936492
19.1600,15.05406078
19.1650,15.05874476
19.1700,15.06349288
19.1750,15.0682981
19.1800,15.07320248
19.1850,15.07811764
19.1900,15.0831549
19.1950,15.08818009
19.2000,15.09334271
19.2050,15.09878092
19.2100,15.10435026
19.2150,15.11000397
19.2200,15.1159579
19.2250,15.12217302
19.2300,15.12854716
19.2350,15.13509281
19.2400,15.1417962
19.2450,15.14871
19.2500,15.15579228
19.2550,15.16285203
19.2600,15.16978576
19.2650,15.17668744
19.2700,15.18333989
19.2750,15.18958695
19.2800,15.19562638
19.2850,15.20135961
19.2900,15.20674607
19.2950,15.21192218
19.3000,15.21706079
19.3050,15.22216174
19.3100,15.2272985
19.3150,15.23256753
19.3200,15.23803701
19.3250,15.24377542
19.3300,15.25004016
19.3350,15.2567695
19.3400,15.26420839
19.3450,15.27199746
19.3500,15.28034764
19.3550,15.28896971
19.3600,15.29814349
19.3650,15.30769048
19.3700,15.31763301
19.3750,15.32772625
19.3800,15.33831177
19.3850,15.34895555
19.3900,15.35967665
19.3950,15.3703777
19.4000,15.38094406
19.4050,15.39121259
19.4100,15.40128475
19.4150,15.41108655
19.4200,15.42051557
19.4250,15.42955128
19.4300,15.43823781
19.4350,15.44642013
19.4400,15.45429025
19.4450,15.46183504
19.4500,15.46919156
19.4550,15.47610915
19.4600,15.48303769
19.4650,15.48990885
19.4700,15.49666261
19.4750,15.50320028
19.4800,15.50962052
19.4850,15.51595962
19.4900,15.52200077
19.4950,15.52799543
19.5000,15.53377326
19.5050,15.53921329
19.5100,15.54435326
19.5150,15.54913052
19.5200,15.55351135
19.5250,15.55724637
19.5300,15.5603363
19.5350,15.56259311
19.5400,15.56388926
19.5450,15.56393837
19.5500,15.56282709
19.5550,15.56044625
19.5600,15.55662645
19.5650,15.55138175
19.5700,15.54479624
19.5750,15.53686489
19.5800,15.52739799
19.5850,15.5165077
19.5900,15.50425394
19.5950,15.49072807
19.6000,15.47584774
19.6050,15.45989267
19.6100,15.44281409
19.6150,15.42473208
19.6200,15.40606911
19.6250,15.38681592
19.6300,15.36701367
19.6350,15.34688266
19.6400,15.32656279
19.6450,15.30630671
19.6500,15.28608774
19.6550,15.26621581
19.6600,15.24674337
19.6650,15.22804564
19.6700,15.20975855
19.6750,15.19229139
19.6800,15.17549632
19.6850,15.15948875
19.6900,15.14444051
19.6950,15.13046206
19.7000,15.11730115
19.7050,15.10505447
19.7100,15.09354063
19.7150,15.082858
19.7200,15.07308773
19.7250,15.0642337
19.7300,15.05605108
19.7350,15.04867324
19.7400,15.04205488
19.7450,15.0360619
19.7500,15.03075967
19.7550,15.02617467
19.7600,15.02210369
19.7650,15.01852862
19.7700,15.01539774
19.7750,15.01280303
19.7800,15.01035319
19.7850,15.00807474
19.7900,15.00596347
19.7950,15.00393107
19.8000,15.00184317
19.8050,14.99966812
19.8100,14.9972522
19.8150,14.9945101
19.8200,14.9912686
19.8250,14.9874374
19.8300,14.98280873
19.8350,14.97723495
19.8400,14.97079222
19.8450,14.96343517
19.8500,14.95502401
19.8550,14.94547325
19.8600,14.93477793
19.8650,14.92290741
19.8700,14.90956056
19.8750,14.89495317
19.8800,14.87902024
19.8850,14.86168925
19.8900,14.84314413
19.8950,14.82321547
19.9000,14.80205044
19.9050,14.77955579
19.9100,14.75604752
19.9150,14.73150604
19.9200,14.70578871
19.9250,14.67916431
19.9300,14.65184087
19.9350,14.62392179
19.9400,14.59534509
19.9450,14.5665291
19.9500,14.53746903
19.9550,14.50818758
19.9600,14.4787457
19.9650,14.44891972
19.9700,14.41919251
19.9750,14.38951343
19.9800,14.36002359
19.9850,14.33080578
19.9900,14.30175089
19.9950,14.27303808
20.0000,14.24495899
20.0050,14.21753664
20.0100,14.19090268
20.0150,14.16495493
20.0200,14.13985264
20.0250,14.11577577
20.0300,14.09272695
20.0350,14.07085952
20.0400,14.05005689
20.0450,14.03038043
20.0500,14.01166121
20.0550,13.99405463
20.0600,13.9777117
20.0650,13.9625369
20.0700,13.94837315
20.0750,13.93519772
20.0800,13.9231309
20.0850,13.91207641
20.0900,13.90215781
20.0950,13.89320874
20.1000,13.88516277
20.1050,13.87802203
20.1100,13.87179252
20.1150,13.86645148
20.1200,13.86204548
20.1250,13.85847748
20.1300,13.85612429
20.1350,13.85488797
20.1400,13.85475493
20.1450,13.8558844
20.1500,13.85813982
20.1550,13.86140287
20.1600,13.86568363
20.1650,13.87059883
20.1700,13.87637656
20.1750,13.88272995
20.1800,13.88970585
20.1850,13.89738243
20.1900,13.90565647
20.1950,13.91459892
20.2000,13.92424517
20.2050,13.93448269
20.2100,13.94507422
20.2150,13.95607731
20.2200,13.96727466
20.2250,13.97847786
20.2300,13.98944281
20.2350,14.00002403
20.2400,14.01038208
20.2450,14.02004817
20.2500,14.02921887
20.2550,14.03799828
20.2600,14.04624637
20.2650,14.05414099
20.2700,14.06145399
20.2750,14.06817095
20.2800,14.07418651
20.2850,14.07975496
20.2900,14.08479671
20.2950,14.08924949
20.3000,14.09324383
20.3050,14.09669402
20.3100,14.09967551
20.3150,14.10227175
20.3200,14.10459915
20.3250,14.10651932
20.3300,14.10847949
20.3350,14.1105008
20.3400,14.11257901
20.3450,14.115052
20.3500,14.11793873
20.3550,14.12142661
20.3600,14.12519765
20.3650,14.12935011
20.3700,14.13396468
20.3750,14.13907267
20.3800,14.14489373
20.3850,14.15132699
20.3900,14.15856877
20.3950,14.166823
20.4000,14.17613655
20.4050,14.18659461
20.4100,14.19831172
20.4150,14.21129416
20.4200,14.22550793
20.4250,14.24102773
20.4300,14.2576734
20.4350,14.27550745
20.4400,14.29451779
20.4450,14.31461532
20.4500,14.33603441
20.4550,14.35895745
20.4600,14.38335989
20.4650,14.409795
20.4700,14.43792468
20.4750,14.46792824
20.4800,14.499761
20.4850,14.53318583
20.4900,14.56803156
20.4950,14.60407404
20.5000,14.64115932
20.5050,14.6794669
20.5100,14.71881425
20.5150,14.75922051
20.5200,14.80089331
20.5250,14.84370404
20.5300,14.88793145
20.5350,14.93380041
20.5400,14.98113655
20.5450,15.03008063
20.5500,15.08049811
20.5550,15.13234959
20.5600,15.18580944
20.5650,15.24078601
20.5700,15.29759396
20.5750,15.35610743
20.5800,15.41658177
20.5850,15.47895318
20.5900,15.54321724
20.5950,15.60942704
20.6000,15.67756307
20.6050,15.74786889
20.6100,15.82036026
20.6150,15.89500572
20.6200,15.97161071
20.6250,16.05020164
20.6300,16.1304599
20.6350,16.21224543
20.6400,16.29554503
20.6450,16.38011383
20.6500,16.46588635
20.6550,16.55262051
20.6600,16.64047703
20.6650,16.72946103
20.6700,16.81965583
20.6750,16.91110043
20.6800,17.00368819
20.6850,17.09745383
20.6900,17.19212173
20.6950,17.28733258
20.7000,17.38308514
20.7050,17.47902012
20.7100,17.57486983
20.7150,17.67069922
20.7200,17.76616356
20.7250,17.8609977
20.7300,17.95512496
20.7350,18.04836443
20.7400,18.1404698
20.7450,18.23110616
20.7500,18.32004639
20.7550,18.40699774
20.7600,18.49180109
20.7650,18.57401483
20.7700,18.65365278
20.7750,18.73042185
20.7800,18.80441242
20.7850,18.87575581
20.7900,18.94458557
20.7950,19.0110096
20.8000,19.07500731
20.8050,19.13642697
20.8100,19.19558383
20.8150,19.2524212
20.8200,19.30691641
20.8250,19.35911137
20.8300,19.40910462
20.8350,19.45686165
20.8400,19.50261107
20.8450,19.54646289
20.8500,19.58845265
20.8550,19.62851974
20.8600,19.66654974
20.8650,19.70281002
20.8700,19.7370293
20.8750,19.76959819
20.8800,19.80063058
20.8850,19.83015977
20.8900,19.85846014
20.8950,19.8856719
20.9000,19.91186212
20.9050,19.93725864
20.9100,19.96193777
20.9150,19.9863352
20.9200,20.01062487
20.9250,20.03508633
20.9300,20.05989087
20.9350,20.08538563
20.9400,20.11178201
20.9450,20.13918434
20.9500,20.16806496
20.9550,20.19841122
20.9600,20.23024246
20.9650,20.26359012
20.9700,20.29852233
20.9750,20.33501183
20.9800,20.37297578
20.9850,20.41235396
20.9900,20.45322921
20.9950,20.49572958
21.0000,20.54001435
21.0050,20.58617929
21.0100,20.63438897
21.0150,20.68446975
21.0200,20.73663019
21.0250,20.7911117
21.0300,20.84762536
21.0350,20.90631915
21.0400,20.96724303
21.0450,21.03037201
21.0500,21.09549636
21.0550,21.16283544
21.0600,21.23219816
21.0650,21.30363359
21.0700,21.37697391
21.0750,21.45219031
21.0800,21.5288651
21.0850,21.60657365
21.0900,21.68512632
21.0950,21.76418952
21.1000,21.8435785
21.1050,21.92334457
21.1100,22.00303401
21.1150,22.08241512
21.1200,22.16128482
21.1250,22.23962114
21.1300,22.31705318
21.1350,22.39370598
21.1400,22.46934441
21.1450,22.54394129
21.1500,22.61739712
21.1550,22.68983897
21.1600,22.76141193
21.1650,22.83186437
21.1700,22.90148724
21.1750,22.97011778
21.1800,23.03760572
21.1850,23.10409093
21.1900,23.1695437
21.1950,23.23413025
21.2000,23.29770994
21.2050,23.36001022
21.2100,23.42102371
21.2150,23.48069482
21.2200,23.53898138
21.2250,23.59602718
21.2300,23.65166917
21.2350,23.70595985
21.2400,23.75896524
21.2450,23.81056938
21.2500,23.86054481
21.2550,23.90913429
21.2600,23.95656928
21.2650,24.00281694
21.2700,24.04801274
21.2750,24.09228381
21.2800,24.13591823
21.2850,24.17893965
21.2900,24.22132207
21.2950,24.26331111
21.3000,24.30472816
21.3050,24.34560289
21.3100,24.38598219
21.3150,24.42598026
21.3200,24.46573652
21.3250,24.50513789
21.3300,24.54456661
21.3350,24.58420801
21.3400,24.62415686
21.3450,24.664529
21.3500,24.70551257
21.3550,24.74706959
21.3600,24.78931346
21.3650,24.83231237
21.3700,24.87616022
21.3750,24.92089764
21.3800,24.9666243
21.3850,25.01354753
21.3900,25.06163253
21.3950,25.11105765
21.4000,25.16169917
21.4050,25.21358978
21.4100,25.26658788
21.4150,25.32076532
21.4200,25.37613181
21.4250,25.43254794
21.4300,25.48993635
21.4350,25.54788134
21.4400,25.60637977
21.4450,25.66512689
21.4500,25.72422969
21.4550,25.78336927
21.4600,25.84239809
21.4650,25.90125317
21.4700,25.95998837
21.4750,26.01840191
21.4800,26.0765827
21.4850,26.1342862
21.4900,26.1917475
21.4950,26.24860985
21.5000,26.3049636
21.5050,26.36113812
21.5100,26.41718455
21.5150,26.47306223
21.5200,26.52891521
21.5250,26.58469226
21.5300,26.64069277
21.5350,26.69699976
21.5400,26.753781
21.5450,26.81144687
21.5500,26.86998772
21.5550,26.92955629
21.5600,26.99035463
21.5650,27.0526562
21.5700,27.11660287
21.5750,27.18253914
21.5800,27.25043885
21.5850,27.32077921
21.5900,27.39369041
21.5950,27.46920903
21.6000,27.5476254
21.6050,27.62909118
21.6100,27.71357712
21.6150,27.80106587
21.6200,27.89142618
21.6250,27.98466794
21.6300,28.08058864
21.6350,28.17874795
21.6400,28.27900707
21.6450,28.3810003
21.6500,28.48457818
21.6550,28.58932168
21.6600,28.69501494
21.6650,28.8012289
21.6700,28.9078108
21.6750,29.01447095
21.6800,29.12108482
21.6850,29.2273069
21.6900,29.33283387
21.6950,29.43739107
21.7000,29.54086236
21.7050,29.6429176
21.7100,29.74358068
21.7150,29.84286406
21.7200,29.94070575
21.7250,30.03705823
21.7300,30.13181114
21.7350,30.22493874
21.7400,30.31644153
21.7450,30.40626228
21.7500,30.49434693
21.7550,30.5808853
21.7600,30.66585815
21.7650,30.74929286
21.7700,30.83112142
21.7750,30.91151699
21.7800,30.99031527
21.7850,31.06756811
21.7900,31.14290613
21.7950,31.21674635
21.8000,31.28944758
21.8050,31.36096924
21.8100,31.43138754
21.8150,31.50062648
21.8200,31.56867401
21.8250,31.63577504
21.8300,31.70209238
21.8350,31.76782903
21.8400,31.832918
21.8450,31.89726834
21.8500,31.96121716
21.8550,32.02464865
21.8600,32.08754637
21.8650,32.14994312
21.8700,32.21180679
21.8750,32.27269492
21.8800,32.33263059
21.8850,32.39153022
21.8900,32.44913217
21.8950,32.50560828
21.9000,32.56061195
21.9050,32.61401258
21.9100,32.66544391
21.9150,32.71477705
21.9200,32.76168013
21.9250,32.80581207
21.9300,32.84715569
21.9350,32.88561971
21.9400,32.92101172
21.9450,32.95352862
21.9500,32.9829397
21.9550,33.00925367
21.9600,33.03260013
21.9650,33.05278452
21.9700,33.06979755
21.9750,33.08393457
21.9800,33.09498204
21.9850,33.10309569
21.9900,33.10853526
21.9950,33.11131688
22.0000,33.11172649
22.0050,33.10980653
22.0100,33.10561831
22.0150,33.0992401
22.0200,33.0906361
22.0250,33.08000263
22.0300,33.0674386
22.0350,33.05311429
22.0400,33.03699606
22.0450,33.01934537
22.0500,33.00026516
22.0550,32.97976573
22.0600,32.95801005
22.0650,32.9351016
22.0700,32.91113734
22.0750,32.88614407
22.0800,32.86073721
22.0850,32.83484098
22.0900,32.80881496
22.0950,32.78258593
22.1000,32.75594067
22.1050,32.72894552
22.1100,32.70161141
22.1150,32.6741792
22.1200,32.64674214
22.1250,32.6193982
22.1300,32.59194523
22.1350,32.56429057
22.1400,32.53654026
22.1450,32.50858527
22.1500,32.48041674
22.1550,32.45228365
22.1600,32.42387732
22.1650,32.39533168
22.1700,32.36648777
22.1750,32.33747389
22.1800,32.30824977
22.1850,32.27856731
22.1900,32.24847394
22.1950,32.2174332
22.2000,32.18556778
22.2050,32.15267473
22.2100,32.11880058
22.2150,32.08370962
22.2200,32.04746327
22.2250,32.01014252
22.2300,31.97164089
22.2350,31.93180881
22.2400,31.89082891
22.2450,31.84846142
22.2500,31.80477944
22.2550,31.75987281
22.2600,31.71347499
22.2650,31.66593652
22.2700,31.61712635
22.2750,31.56697918
22.2800,31.51567159
22.2850,31.46332726
22.2900,31.40990629
22.2950,31.3554627
22.3000,31.29995724
22.3050,31.24344622
22.3100,31.18611166
22.3150,31.12793184
22.3200,31.06872613
22.3250,31.00868276
22.3300,30.94772038
22.3350,30.88577008
22.3400,30.82300572
22.3450,30.75941528
22.3500,30.69506972
22.3550,30.6300489
22.3600,30.56413084
22.3650,30.49744494
22.3700,30.42995851
22.3750,30.36179584
22.3800,30.29277809
22.3850,30.22322788
22.3900,30.15307686
22.3950,30.08251731
22.4000,30.01162736
22.4050,29.94039287
22.4100,29.86911721
22.4150,29.79789416
22.4200,29.72682366
22.4250,29.65571558
22.4300,29.58466532
22.4350,29.51368984
22.4400,29.44285099
22.4450,29.37216796
22.4500,29.30150815
22.4550,29.2306615
22.4600,29.15980297
22.4650,29.08861249
22.4700,29.01729771
22.4750,28.94575668
22.4800,28.87401451
22.4850,28.80201959
22.4900,28.729735
22.4950,28.65724573
22.5000,28.58431942
22.5050,28.51100405
22.5100,28.43711656
22.5150,28.36287599
22.5200,28.28824873
22.5250,28.21287632
22.5300,28.13678468
22.5350,28.05997004
22.5400,27.98223965
22.5450,27.90360093
22.5500,27.82395857
22.5550,27.74329909
22.5600,27.66168747
22.5650,27.57915959
22.5700,27.49573834
22.5750,27.41134647
22.5800,27.32599395
22.5850,27.23955984
22.5900,27.15202432
22.5950,27.06333891
22.6000,26.97338332
22.6050,26.88222454
22.6100,26.78982024
22.6150,26.69629197
22.6200,26.60183213
22.6250,26.50640102
22.6300,26.41020721
22.6350,26.31331935
22.6400,26.21566352
22.6450,26.11714058
22.6500,26.01771276
22.6550,25.91755312
22.6600,25.81672848
22.6650,25.71524122
22.6700,25.6130484
22.6750,25.51030061
22.6800,25.40679616
22.6850,25.30269466
22.6900,25.19783142
22.6950,25.09224282
22.7000,24.98600644
22.7050,24.87918887
22.7100,24.77171319
22.7150,24.66357549
22.7200,24.55489894
22.7250,24.44581595
22.7300,24.33638154
22.7350,24.22667159
22.7400,24.11668937
22.7450,24.00646296
22.7500,23.89600902
22.7550,23.78529918
22.7600,23.6743406
22.7650,23.56346814
22.7700,23.45255032
22.7750,23.34176047
22.7800,23.23123919
22.7850,23.12106786
22.7900,23.01113173
22.7950,22.90152795
22.8000,22.79231025
22.8050,22.68337571
22.8100,22.57476696
22.8150,22.46638019
22.8200,22.35801356
22.8250,22.2498701
22.8300,22.14172557
22.8350,22.03338025
22.8400,21.924878
22.8450,21.81639097
22.8500,21.70794541
22.8550,21.59958707
22.8600,21.49123442
22.8650,21.38288316
22.8700,21.27447903
22.8750,21.16609604
22.8800,21.05754926
22.8850,20.94870555
22.8900,20.83961735
22.8950,20.73025434
22.9000,20.62078338
22.9050,20.51130872
22.9100,20.40189322
22.9150,20.29237517
22.9200,20.18304857
22.9250,20.07370022
22.9300,19.96442416
22.9350,19.85519217
22.9400,19.74591925
22.9450,19.63656622
22.9500,19.52704954
22.9550,19.41715429
22.9600,19.30695045
22.9650,19.19643609
22.9700,19.0857881
22.9750,18.9752412
22.9800,18.86501632
22.9850,18.7551398
22.9900,18.64588243
22.9950,18.5372316
23.0000,18.42933069
23.0050,18.32216703
23.0100,18.21564436
23.0150,18.10961323
23.0200,18.00420641
23.0250,17.89919022
23.0300,17.79464705
23.0350,17.69052573
23.0400,17.58647882
23.0450,17.48284169
23.0500,17.37959219
23.0550,17.27693981
23.0600,17.1749196
23.0650,17.07327791
23.0700,16.97209249
23.0750,16.87098833
23.0800,16.76967738
23.0850,16.66811021
23.0900,16.56644477
23.0950,16.46475187
23.1000,16.36298878
23.1050,16.26120474
23.1100,16.15957733
23.1150,16.05824716
23.1200,15.95744324
23.1250,15.8573072
23.1300,15.75804548
23.1350,15.66009499
23.1400,15.56342384
23.1450,15.46805832
23.1500,15.37407227
23.1550,15.28145472
23.1600,15.19047263
23.1650,15.1008829
23.1700,15.01306308
23.1750,14.92687274
23.1800,14.84255038
23.1850,14.76031931
23.1900,14.68035817
23.1950,14.60274732
23.2000,14.52753947
23.2050,14.45470488
23.2100,14.38440326
23.2150,14.31666459
23.2200,14.25123612
23.2250,14.18811814
23.2300,14.12705394
23.2350,14.06816283
23.2400,14.0114207
23.2450,13.95711883
23.2500,13.90533229
23.2550,13.85612677
23.2600,13.80965772
23.2650,13.76570928
23.2700,13.72409554
23.2750,13.68447997
23.2800,13.64666518
23.2850,13.61057652
23.2900,13.57596872
23.2950,13.54270221
23.3000,13.51062908
23.3050,13.47975628
23.3100,13.45023505
23.3150,13.42214578
23.3200,13.39537101
23.3250,13.36991686
23.3300,13.34580938
23.3350,13.3228725
23.3400,13.30140629
23.3450,13.28115821
23.3500,13.26221357
23.3550,13.24449375
23.3600,13.2279762
23.3650,13.21270008
23.3700,13.1986358
23.3750,13.18606001
23.3800,13.17516873
23.3850,13.16578484
23.3900,13.15759933
23.3950,13.15039689
23.4000,13.14415811
23.4050,13.1390525
23.4100,13.1352003
23.4150,13.13238294
23.4200,13.13054674
23.4250,13.12967441
23.4300,13.12965158
23.4350,13.13041236
23.4400,13.13189698
23.4450,13.1342218
23.4500,13.13741792
23.4550,13.14157088
23.4600,13.14672707
23.4650,13.15304937
23.4700,13.16044007
23.4750,13.16900066
23.4800,13.17868523
23.4850,13.18942405
23.4900,13.20108264
23.4950,13.21361308
23.5000,13.22698431
23.5050,13.24121694
23.5100,13.25609894
23.5150,13.27158702
23.5200,13.28787093
23.5250,13.30482755
23.5300,13.32254495
23.5350,13.34108012
23.5400,13.36039515
23.5450,13.38039395
23.5500,13.40074411
23.5550,13.42136713
23.5600,13.44225833
23.5650,13.46361649
23.5700,13.48536413
23.5750,13.50761885
23.5800,13.53035928
23.5850,13.55371402
23.5900,13.57785529
23.5950,13.60299216
23.6000,13.62914442
23.6050,13.65641981
23.6100,13.68449451
23.6150,13.71354908
23.6200,13.74329816
23.6250,13.77370129
23.6300,13.8048574
23.6350,13.83692377
23.6400,13.87005267
23.6450,13.90428769
23.6500,13.93967902
23.6550,13.97638197
23.6600,14.01429536
23.6650,14.053577
23.6700,14.09420008
23.6750,14.13606364
23.6800,14.17911474
23.6850,14.22354374
23.6900,14.2695649
23.6950,14.31717265
23.7000,14.36641981
23.7050,14.41702259
23.7100,14.46875786
23.7150,14.52160163
23.7200,14.57564167
23.7250,14.6307777
23.7300,14.68716922
23.7350,14.74481177
23.7400,14.80361244
23.7450,14.86346143
23.7500,14.92420918
23.7550,14.98588244
23.7600,15.04822532
23.7650,15.11130142
23.7700,15.17495571
23.7750,15.23902483
23.7800,15.30336013
23.7850,15.36792459
23.7900,15.43245658
23.7950,15.49711257
23.8000,15.56160885
23.8050,15.62580317
23.8100,15.68951053
23.8150,15.75262141
23.8200,15.81479023
23.8250,15.87618421
23.8300,15.93662457
23.8350,15.99604366
23.8400,16.05434682
23.8450,16.11121374
23.8500,16.16684317
23.8550,16.22124857
23.8600,16.27433146
23.8650,16.32607379
23.8700,16.37679012
23.8750,16.42664119
23.8800,16.4758377
23.8850,16.52419593
23.8900,16.5718505
23.8950,16.6185183
23.9000,16.66405852
23.9050,16.70856558
23.9100,16.75220335
23.9150,16.79486297
23.9200,16.83642554
23.9250,16.87698792
23.9300,16.91653191
23.9350,16.95519109
23.9400,16.99305312
23.9450,17.03037064
23.9500,17.0673421
23.9550,17.10424382
23.9600,17.14121372
23.9650,17.1785456
23.9700,17.21661358
23.9750,17.25565841
23.9800,17.29563352
23.9850,17.33672645
23.9900,17.37906723
23.9950,17.42292983
24.0000,17.46852391
24.0050,17.51606705
24.0100,17.56552885
24.0150,17.61684401
24.0200,17.66978142
24.0250,17.72421961
24.0300,17.77963639
24.0350,17.83583945
24.0400,17.89242477
24.0450,17.94910002
24.0500,18.00558104
24.0550,18.06142703
24.0600,18.11640952
24.0650,18.17024182
24.0700,18.22266824
24.0750,18.27356539
24.0800,18.32282706
24.0850,18.37033091
24.0900,18.41623567
24.0950,18.46031968
24.1000,18.50239674
24.1050,18.54227704
24.1100,18.58015737
24.1150,18.61580882
24.1200,18.64931651
24.1250,18.68064208
24.1300,18.70950242
24.1350,18.73578863
24.1400,18.75940827
24.1450,18.78052713
24.1500,18.79896943
24.1550,18.81457191
24.1600,18.82734138
24.1650,18.83730418
24.1700,18.84413811
24.1750,18.84788378
24.1800,18.8483435
24.1850,18.84568767
24.1900,18.83982686
24.1950,18.83105148
24.2000,18.81937991
24.2050,18.80487166
24.2100,18.78752461
24.2150,18.76728615
24.2200,18.74444158
24.2250,18.71918153
24.2300,18.69158604
24.2350,18.66193993
24.2400,18.63014882
24.2450,18.59608688
24.2500,18.55995149
24.2550,18.52171276
24.2600,18.481704
24.2650,18.43996877
24.2700,18.39653938
24.2750,18.35148809
24.2800,18.30506439
24.2850,18.25746252
24.2900,18.20852403
24.2950,18.15799286
24.3000,18.10574097
24.3050,18.05155635
24.3100,17.99548768
24.3150,17.93757817
24.3200,17.87764569
24.3250,17.81550446
24.3300,17.75119846
24.3350,17.68475755
24.3400,17.61631462
24.3450,17.54593981
24.3500,17.4737312
24.3550,17.39979237
24.3600,17.32436876
24.3650,17.24733826
24.3700,17.16883735
24.3750,17.08882618
24.3800,17.00764485
24.3850,16.9253074
24.3900,16.84192729
24.3950,16.75766552
24.4000,16.67272674
24.4050,16.58729767
24.4100,16.5014829
24.4150,16.41550251
24.4200,16.32954466
24.4250,16.24345207
24.4300,16.15763777
24.4350,16.07214746
24.4400,15.98707938
24.4450,15.90252313
24.4500,15.81867906
24.4550,15.73569826
24.4600,15.65357943
24.4650,15.57249811
24.4700,15.49257741
24.4750,15.41370026
24.4800,15.33611552
24.4850,15.25973884
24.4900,15.18464726
24.4950,15.11081355
24.5000,15.03848435
24.5050,14.96752691
24.5100,14.89803936
24.5150,14.83002488
24.5200,14.76351021
24.5250,14.69854522
24.5300,14.6349994
24.5350,14.57275368
24.5400,14.51198549
24.5450,14.45285758
24.5500,14.39532819
24.5550,14.33949041
24.5600,14.28525584
24.5650,14.2327568
24.5700,14.18186906
24.5750,14.13260926
24.5800,14.08494047
24.5850,14.03865364
24.5900,13.99388565
24.5950,13.95066363
24.6000,13.90901705
24.6050,13.86899698
24.6100,13.83032848
24.6150,13.79285773
24.6200,13.75676031
24.6250,13.72193294
24.6300,13.68844325
24.6350,13.65599271
24.6400,13.62444287
24.6450,13.59365081
24.6500,13.56333574
24.6550,13.53344653
24.6600,13.50366476
24.6650,13.47427927
24.6700,13.44546404
24.6750,13.41742695
24.6800,13.39017268
24.6850,13.36408356
24.6900,13.33912146
24.6950,13.31552411
24.7000,13.29364132
24.7050,13.27349665
24.7100,13.25513963
24.7150,13.23850899
24.7200,13.22360827
24.7250,13.21030975
24.7300,13.19874621
24.7350,13.18871076
24.7400,13.18029691
24.7450,13.17350577
24.7500,13.16814854
24.7550,13.16413073
24.7600,13.16129203
24.7650,13.15944888
24.7700,13.1587062
24.7750,13.15884114
24.7800,13.15969917
24.7850,13.16117384
24.7900,13.16337857
24.7950,13.16637719
24.8000,13.17004833
24.8050,13.17440043
24.8100,13.17936262
24.8150,13.18492396
24.8200,13.1913223
24.8250,13.19853101
24.8300,13.20674219
24.8350,13.21585639
24.8400,13.2256679
24.8450,13.23620751
24.8500,13.24727465
24.8550,13.25883139
24.8600,13.27080893
24.8650,13.2829895
24.8700,13.29528509
24.8750,13.30781961
24.8800,13.32042715
24.8850,13.33317163
24.8900,13.34604344
24.8950,13.3590738
24.9000,13.37214549
24.9050,13.38534717
24.9100,13.39869658
24.9150,13.41210766
24.9200,13.42547095
24.9250,13.43885645
24.9300,13.45232144
24.9350,13.46571239
24.9400,13.47935548
24.9450,13.49329878
24.9500,13.50771372
24.9550,13.52276729
24.9600,13.53870594
24.9650,13.5556108
24.9700,13.57370246
24.9750,13.59309148
24.9800,13.61398963
24.9850,13.63637642
24.9900,13.66041551
24.9950,13.68608686
25.0000,13.71326446
25.0050,13.742156
25.0100,13.77281975
25.0150,13.80524377
25.0200,13.83948083
25.0250,13.87562811
25.0300,13.91356078
25.0350,13.95322675
25.0400,13.99442563
25.0450,14.03701298
25.0500,14.08093277
25.0550,14.1260908
25.0600,14.17246966
25.0650,14.22013982
25.0700,14.26872446
25.0750,14.31840358
25.0800,14.36927131
25.0850,14.42113262
25.0900,14.47390413
25.0950,14.5273154
25.1000,14.58129296
25.1050,14.63550202
25.1100,14.68971389
25.1150,14.74385736
25.1200,14.79745023
25.1250,14.85038278
25.1300,14.90229575
25.1350,14.95297855
25.1400,15.0024863
25.1450,15.05031124
25.1500,15.09660913
25.1550,15.14102751
25.1600,15.18344466
25.1650,15.22365006
25.1700,15.26148778
25.1750,15.29669086
25.1800,15.3292309
25.1850,15.35900326
25.1900,15.38594762
25.1950,15.41005567
25.2000,15.43135851
25.2050,15.44979917
25.2100,15.46546764
25.2150,15.47857323
25.2200,15.48921284
25.2250,15.49752514
25.2300,15.50331781
25.2350,15.5067683
25.2400,15.50785973
25.2450,15.50646924
25.2500,15.50276507
25.2550,15.49663165
25.2600,15.48813146
25.2650,15.47724038
25.2700,15.46395053
25.2750,15.44854104
25.2800,15.43093715
25.2850,15.41131043
25.2900,15.38984352
25.2950,15.36682052
25.3000,15.34243719
25.3050,15.31685767
25.3100,15.29002586
25.3150,15.2623008
25.3200,15.23360958
25.3250,15.20412123
25.3300,15.17374224
25.3350,15.14263724
25.3400,15.11086308
25.3450,15.07843993
25.3500,15.04525896
25.3550,15.01137062
25.3600,14.97679881
25.3650,14.94129044
25.3700,14.90493958
25.3750,14.86756124
25.3800,14.82900006
25.3850,14.78927497
25.3900,14.74837732
25.3950,14.72695775
25.4000,14.70468237
25.4050,14.68167941
25.4100,14.65811298
25.4150,14.63417317
25.4200,14.61006563
25.4250,14.58600245
25.4300,14.56219456
25.4350,14.53884521
25.4400,14.51614419
25.4450,14.4942639
25.4500,14.47335705
25.4550,14.45355547
25.4600,14.43496962
25.4650,14.41768878
25.4700,14.40178182
25.4750,14.3872979
25.4800,14.37426669
25.4850,14.36269829
25.4900,14.35258337
25.4950,14.34389369
25.5000,14.33658232
25.5050,14.33058335
25.5100,14.32581179
25.5150,14.32216449
25.5200,14.31952148
25.5250,14.31774732
25.5300,14.31669236
25.5350,14.31619294
