type,name,time_units,begin_time,frequency,count,units
signal,"Noraxon MyoMotion-Segments-Upper arm RT-Pitch","s",0.0000,200,5108,"deg"

time,value
0.0000,3.169396019
0.0050,3.173568267
0.0100,3.177740628
0.0150,3.181913099
0.0200,3.186425043
0.0250,3.191253183
0.0300,3.196370397
0.0350,3.201746928
0.0400,3.207351179
0.0450,3.213149565
0.0500,3.219105993
0.0550,3.225181589
0.0600,3.231334922
0.0650,3.237523251
0.0700,3.243704451
0.0750,3.249838143
0.0800,3.255885713
0.0850,3.261810174
0.0900,3.267576417
0.0950,3.273151744
0.1000,3.278506969
0.1050,3.283618042
0.1100,3.288466596
0.1150,3.293038893
0.1200,3.297324733
0.1250,3.30131686
0.1300,3.305010521
0.1350,3.308403481
0.1400,3.311496528
0.1450,3.314294212
0.1500,3.316805547
0.1550,3.322925114
0.1600,3.328688595
0.1650,3.334046888
0.1700,3.339100914
0.1750,3.343777884
0.1800,3.348056048
0.1850,3.352100489
0.1900,3.355870121
0.1950,3.359464727
0.2000,3.362914499
0.2050,3.366154895
0.2100,3.369200305
0.2150,3.371998342
0.2200,3.374616499
0.2250,3.377055018
0.2300,3.379143485
0.2350,3.381033274
0.2400,3.382650761
0.2450,3.384129298
0.2500,3.385212221
0.2550,3.386047962
0.2600,3.386712651
0.2650,3.387246446
0.2700,3.387423161
0.2750,3.387452243
0.2800,3.38709289
0.2850,3.386555532
0.2900,3.385682288
0.2950,3.384448567
0.3000,3.383019312
0.3050,3.381235005
0.3100,3.379252773
0.3150,3.376990015
0.3200,3.374543653
0.3250,3.37184961
0.3300,3.368755473
0.3350,3.365529213
0.3400,3.362017989
0.3450,3.358400967
0.3500,3.354542814
0.3550,3.350469302
0.3600,3.346337949
0.3650,3.342086196
0.3700,3.337663284
0.3750,3.333102093
0.3800,3.328591407
0.3850,3.324077482
0.3900,3.319681095
0.3950,3.315241527
0.4000,3.31078328
0.4050,3.30642624
0.4100,3.30224195
0.4150,3.298180475
0.4200,3.294229129
0.4250,3.290333079
0.4300,3.286651893
0.4350,3.283087465
0.4400,3.279632111
0.4450,3.276438648
0.4500,3.273252757
0.4550,3.270119083
0.4600,3.267127807
0.4650,3.264172312
0.4700,3.261232495
0.4750,3.258393514
0.4800,3.255783046
0.4850,3.253001005
0.4900,3.250350076
0.4950,3.247693182
0.5000,3.244997618
0.5050,3.242200248
0.5100,3.239370631
0.5150,3.236495272
0.5200,3.233593375
0.5250,3.230656103
0.5300,3.227819596
0.5350,3.224938245
0.5400,3.221994702
0.5450,3.218984132
0.5500,3.215982184
0.5550,3.212904965
0.5600,3.209812884
0.5650,3.206468049
0.5700,3.203078565
0.5750,3.199648642
0.5800,3.196059247
0.5850,3.192235705
0.5900,3.188247325
0.5950,3.184024105
0.6000,3.179545046
0.6050,3.174895678
0.6100,3.170075066
0.6150,3.164990271
0.6200,3.15952729
0.6250,3.153931533
0.6300,3.148199165
0.6350,3.142239514
0.6400,3.136036945
0.6450,3.129521947
0.6500,3.122950456
0.6550,3.116092869
0.6600,3.109045689
0.6650,3.101756766
0.6700,3.094335202
0.6750,3.086817206
0.6800,3.079045019
0.6850,3.071295551
0.6900,3.063416889
0.6950,3.055697333
0.7000,3.048041665
0.7050,3.040297959
0.7100,3.032567814
0.7150,3.024680292
0.7200,3.016897081
0.7250,3.009207627
0.7300,3.00145558
0.7350,2.993811978
0.7400,2.986193291
0.7450,2.978618936
0.7500,2.971149468
0.7550,2.963818579
0.7600,2.956512744
0.7650,2.949307436
0.7700,2.942105925
0.7750,2.934973124
0.7800,2.927743547
0.7850,2.92054957
0.7900,2.913320735
0.7950,2.906019686
0.8000,2.898744407
0.8050,2.891655318
0.8100,2.884588111
0.8150,2.877446183
0.8200,2.870457579
0.8250,2.863544478
0.8300,2.856789575
0.8350,2.850088102
0.8400,2.843438149
0.8450,2.836796999
0.8500,2.830175626
0.8550,2.823635063
0.8600,2.817028512
0.8650,2.810581188
0.8700,2.804130323
0.8750,2.797509723
0.8800,2.79104854
0.8850,2.78458621
0.8900,2.778108184
0.8950,2.771786443
0.9000,2.765380114
0.9050,2.759058705
0.9100,2.752741697
0.9150,2.746545777
0.9200,2.74056022
0.9250,2.734550602
0.9300,2.728704755
0.9350,2.723059725
0.9400,2.717656984
0.9450,2.712431603
0.9500,2.707407215
0.9550,2.702755856
0.9600,2.698340983
0.9650,2.694252835
0.9700,2.690392338
0.9750,2.686842114
0.9800,2.68366894
0.9850,2.680712055
0.9900,2.677964862
0.9950,2.675387701
1.0000,2.673065418
1.0050,2.670880866
1.0100,2.668912162
1.0150,2.667232327
1.0200,2.665672864
1.0250,2.664209603
1.0300,2.662931312
1.0350,2.661722672
1.0400,2.660689465
1.0450,2.659743819
1.0500,2.658953586
1.0550,2.658336342
1.0600,2.657895452
1.0650,2.657541494
1.0700,2.65743213
1.0750,2.657494839
1.0800,2.657627332
1.0850,2.657921566
1.0900,2.658352516
1.0950,2.658858094
1.1000,2.65942376
1.1050,2.65997055
1.1100,2.66035542
1.1150,2.660774727
1.1200,2.661005061
1.1250,2.661141062
1.1300,2.661139934
1.1350,2.661159545
1.1400,2.661116778
1.1450,2.661046509
1.1500,2.660835802
1.1550,2.660568863
1.1600,2.660359388
1.1650,2.66011172
1.1700,2.659788343
1.1750,2.659517996
1.1800,2.659016157
1.1850,2.65838475
1.1900,2.657420349
1.1950,2.656140628
1.2000,2.654586096
1.2050,2.65246012
1.2100,2.64970403
1.2150,2.646352088
1.2200,2.642416977
1.2250,2.637701024
1.2300,2.632213453
1.2350,2.626033902
1.2400,2.619155552
1.2450,2.611542775
1.2500,2.603290701
1.2550,2.594489352
1.2600,2.585208841
1.2650,2.575603302
1.2700,2.565862635
1.2750,2.555995148
1.2800,2.546020491
1.2850,2.535995487
1.2900,2.525922674
1.2950,2.515813062
1.3000,2.505628383
1.3050,2.495575026
1.3100,2.485659369
1.3150,2.475815045
1.3200,2.466078919
1.3250,2.456466458
1.3300,2.446865994
1.3350,2.437260498
1.3400,2.427757137
1.3450,2.418063552
1.3500,2.408398073
1.3550,2.39867154
1.3600,2.388847385
1.3650,2.37888169
1.3700,2.368750651
1.3750,2.358330285
1.3800,2.34769233
1.3850,2.336821005
1.3900,2.325647051
1.3950,2.314386257
1.4000,2.302831052
1.4050,2.290945632
1.4100,2.279151881
1.4150,2.267094319
1.4200,2.254924889
1.4250,2.242712175
1.4300,2.230358737
1.4350,2.217712053
1.4400,2.204953307
1.4450,2.192181857
1.4500,2.17941068
1.4550,2.166630727
1.4600,2.153866819
1.4650,2.141067419
1.4700,2.128139405
1.4750,2.115242236
1.4800,2.102363657
1.4850,2.089480674
1.4900,2.076757175
1.4950,2.064003787
1.5000,2.051326439
1.5050,2.038612489
1.5100,2.02608383
1.5150,2.01346113
1.5200,2.000746601
1.5250,1.98803472
1.5300,1.975363821
1.5350,1.962598035
1.5400,1.949932624
1.5450,1.937560742
1.5500,1.925390619
1.5550,1.913555048
1.5600,1.902042514
1.5650,1.890935555
1.5700,1.88023036
1.5750,1.870058355
1.5800,1.860501157
1.5850,1.851709477
1.5900,1.843867166
1.5950,1.837000243
1.6000,1.831226749
1.6050,1.826475937
1.6100,1.822830306
1.6150,1.820286204
1.6200,1.818862071
1.6250,1.818530591
1.6300,1.81937456
1.6350,1.821363776
1.6400,1.824350826
1.6450,1.828648737
1.6500,1.833858409
1.6550,1.840081889
1.6600,1.847469988
1.6650,1.856048785
1.6700,1.865818279
1.6750,1.876779059
1.6800,1.889034153
1.6850,1.90258366
1.6900,1.917322489
1.6950,1.933125934
1.7000,1.950046946
1.7050,1.968263664
1.7100,1.987401284
1.7150,2.007780403
1.7200,2.029318019
1.7250,2.051910385
1.7300,2.075649547
1.7350,2.100529144
1.7400,2.12656037
1.7450,2.153570465
1.7500,2.181669946
1.7550,2.21069505
1.7600,2.240561556
1.7650,2.271416003
1.7700,2.303285982
1.7750,2.336054059
1.7800,2.369601867
1.7850,2.40390176
1.7900,2.438850937
1.7950,2.47440337
1.8000,2.510336778
1.8050,2.546882485
1.8100,2.583729801
1.8150,2.620786171
1.8200,2.658067473
1.8250,2.695676529
1.8300,2.733295675
1.8350,2.770748424
1.8400,2.807873687
1.8450,2.844677147
1.8500,2.881060829
1.8550,2.916968122
1.8600,2.952483532
1.8650,2.987435172
1.8700,3.021885609
1.8750,3.055890297
1.8800,3.089344451
1.8850,3.122289164
1.8900,3.154761008
1.8950,3.186788853
1.9000,3.218362308
1.9050,3.249663225
1.9100,3.280611945
1.9150,3.311230768
1.9200,3.341564408
1.9250,3.371473049
1.9300,3.401073366
1.9350,3.430407882
1.9400,3.459468092
1.9450,3.488231089
1.9500,3.516780182
1.9550,3.54505819
1.9600,3.573021896
1.9650,3.600559751
1.9700,3.627767916
1.9750,3.654569113
1.9800,3.681177513
1.9850,3.707440088
1.9900,3.733446012
1.9950,3.759161491
2.0000,3.784784601
2.0050,3.810131375
2.0100,3.835506897
2.0150,3.860692434
2.0200,3.885745602
2.0250,3.910696888
2.0300,3.935474239
2.0350,3.960090412
2.0400,3.984476157
2.0450,4.008796302
2.0500,4.032895551
2.0550,4.056868433
2.0600,4.08063993
2.0650,4.104185019
2.0700,4.127559011
2.0750,4.150612663
2.0800,4.173445303
2.0850,4.196042094
2.0900,4.218518467
2.0950,4.241012474
2.1000,4.263523114
2.1050,4.285896082
2.1100,4.308015249
2.1150,4.330178994
2.1200,4.352203719
2.1250,4.373835697
2.1300,4.395213845
2.1350,4.41648129
2.1400,4.437596728
2.1450,4.458508039
2.1500,4.479212243
2.1550,4.499677145
2.1600,4.51975345
2.1650,4.539413743
2.1700,4.558694131
2.1750,4.577480649
2.1800,4.596063181
2.1850,4.614282962
2.1900,4.632349777
2.1950,4.650279554
2.2000,4.667988321
2.2050,4.685571215
2.2100,4.702905154
2.2150,4.720218129
2.2200,4.737472128
2.2250,4.755040122
2.2300,4.772712242
2.2350,4.790634108
2.2400,4.808856694
2.2450,4.827486125
2.2500,4.84679824
2.2550,4.866706355
2.2600,4.886953782
2.2650,4.90790655
2.2700,4.929307615
2.2750,4.951397011
2.2800,4.974001312
2.2850,4.99727278
2.2900,5.021215768
2.2950,5.04581877
2.3000,5.071160936
2.3050,5.097380164
2.3100,5.124216386
2.3150,5.151940874
2.3200,5.180434461
2.3250,5.209867372
2.3300,5.240189316
2.3350,5.271575182
2.3400,5.304002066
2.3450,5.33748936
2.3500,5.372150029
2.3550,5.408147231
2.3600,5.445557348
2.3650,5.484243637
2.3700,5.524220644
2.3750,5.565731803
2.3800,5.608786271
2.3850,5.653233312
2.3900,5.699180353
2.3950,5.746402466
2.4000,5.795142606
2.4050,5.845319042
2.4100,5.897269176
2.4150,5.950948551
2.4200,6.006218303
2.4250,6.063450439
2.4300,6.122305566
2.4350,6.182875249
2.4400,6.245100755
2.4450,6.30878617
2.4500,6.374051514
2.4550,6.440592752
2.4600,6.508699945
2.4650,6.578406287
2.4700,6.649598777
2.4750,6.722324857
2.4800,6.796512563
2.4850,6.872342808
2.4900,6.949673674
2.4950,7.028601567
2.5000,7.109125294
2.5050,7.191055143
2.5100,7.274665811
2.5150,7.35983287
2.5200,7.446375269
2.5250,7.534172903
2.5300,7.623373798
2.5350,7.713765313
2.5400,7.80518367
2.5450,7.897528699
2.5500,7.990558448
2.5550,8.084249069
2.5600,8.178641655
2.5650,8.273343666
2.5700,8.368199984
2.5750,8.462980794
2.5800,8.557621941
2.5850,8.651913871
2.5900,8.745873924
2.5950,8.839604386
2.6000,8.932700049
2.6050,9.02507666
2.6100,9.117060116
2.6150,9.208366492
2.6200,9.299174137
2.6250,9.389481324
2.6300,9.479447505
2.6350,9.568963233
2.6400,9.658168212
2.6450,9.746944097
2.6500,9.835375568
2.6550,9.923317685
2.6600,10.01082743
2.6650,10.09802093
2.6700,10.18489168
2.6750,10.27148465
2.6800,10.35771214
2.6850,10.4438344
2.6900,10.52964762
2.6950,10.6153229
2.7000,10.70068625
2.7050,10.78599717
2.7100,10.87104593
2.7150,10.95574132
2.7200,11.04034914
2.7250,11.12470739
2.7300,11.20911678
2.7350,11.29335659
2.7400,11.37767455
2.7450,11.46231349
2.7500,11.54706355
2.7550,11.63216918
2.7600,11.71760171
2.7650,11.80319031
2.7700,11.88901082
2.7750,11.97499796
2.7800,12.06102746
2.7850,12.14691717
2.7900,12.23280679
2.7950,12.31856633
2.8000,12.40422053
2.8050,12.48982891
2.8100,12.57511905
2.8150,12.66013081
2.8200,12.74495181
2.8250,12.82965074
2.8300,12.91408723
2.8350,12.99823141
2.8400,13.08210218
2.8450,13.16583053
2.8500,13.24942163
2.8550,13.33265244
2.8600,13.41571187
2.8650,13.49855513
2.8700,13.58128897
2.8750,13.66388449
2.8800,13.74613292
2.8850,13.82796658
2.8900,13.90942296
2.8950,13.990215
2.9000,14.07038779
2.9050,14.1501664
2.9100,14.22940675
2.9150,14.3084225
2.9200,14.38707938
2.9250,14.46526884
2.9300,14.54312365
2.9350,14.62059171
2.9400,14.69776827
2.9450,14.77454149
2.9500,14.85092175
2.9550,14.9268873
2.9600,15.00223622
2.9650,15.07695515
2.9700,15.15110104
2.9750,15.22442336
2.9800,15.29701003
2.9850,15.36877265
2.9900,15.43962379
2.9950,15.5094072
3.0000,15.57827998
3.0050,15.64595281
3.0100,15.71252663
3.0150,15.77798371
3.0200,15.84233599
3.0250,15.90542783
3.0300,15.96743745
3.0350,16.02842625
3.0400,16.08824673
3.0450,16.14697301
3.0500,16.20471531
3.0550,16.26167667
3.0600,16.31771726
3.0650,16.37311319
3.0700,16.42779483
3.0750,16.48181535
3.0800,16.53505959
3.0850,16.58773388
3.0900,16.6393617
3.0950,16.68994497
3.1000,16.73944294
3.1050,16.78763065
3.1100,16.83454252
3.1150,16.88004088
3.1200,16.92404443
3.1250,16.96623153
3.1300,17.00681205
3.1350,17.0459269
3.1400,17.08373745
3.1450,17.12003118
3.1500,17.15512873
3.1550,17.18923798
3.1600,17.22244157
3.1650,17.25476318
3.1700,17.28643373
3.1750,17.31774214
3.1800,17.3489218
3.1850,17.38026755
3.1900,17.41180819
3.1950,17.44374131
3.2000,17.47629494
3.2050,17.50955712
3.2100,17.54354124
3.2150,17.5781681
3.2200,17.61381833
3.2250,17.65054319
3.2300,17.6882469
3.2350,17.72717961
3.2400,17.7672261
3.2450,17.80865101
3.2500,17.85140315
3.2550,17.89556806
3.2600,17.94135027
3.2650,17.98871484
3.2700,18.03748868
3.2750,18.08771385
3.2800,18.13939989
3.2850,18.19236114
3.2900,18.24666886
3.2950,18.3021716
3.3000,18.35861682
3.3050,18.41586845
3.3100,18.47369686
3.3150,18.53200281
3.3200,18.59052786
3.3250,18.6490652
3.3300,18.70748054
3.3350,18.76560944
3.3400,18.82329642
3.3450,18.88027323
3.3500,18.93636603
3.3550,18.9914586
3.3600,19.04542812
3.3650,19.09812234
3.3700,19.14961733
3.3750,19.19973678
3.3800,19.24848132
3.3850,19.29569576
3.3900,19.34161378
3.3950,19.38613652
3.4000,19.42915982
3.4050,19.47106836
3.4100,19.51161834
3.4150,19.55102106
3.4200,19.58933989
3.4250,19.62674326
3.4300,19.66314823
3.4350,19.69873558
3.4400,19.73364677
3.4450,19.76815476
3.4500,19.80213734
3.4550,19.8357925
3.4600,19.8692007
3.4650,19.9026773
3.4700,19.93632538
3.4750,19.97016289
3.4800,20.00440179
3.4850,20.03912768
3.4900,20.07434813
3.4950,20.11028324
3.5000,20.14726928
3.5050,20.18499784
3.5100,20.22384506
3.5150,20.26379188
3.5200,20.30488838
3.5250,20.34706517
3.5300,20.39034251
3.5350,20.43471422
3.5400,20.48029272
3.5450,20.52694702
3.5500,20.57466848
3.5550,20.62329874
3.5600,20.6727932
3.5650,20.72325249
3.5700,20.77488114
3.5750,20.82749469
3.5800,20.88106113
3.5850,20.9355771
3.5900,20.99097673
3.5950,21.04717545
3.6000,21.10407149
3.6050,21.16157008
3.6100,21.21946149
3.6150,21.27745339
3.6200,21.33546086
3.6250,21.39345903
3.6300,21.45114066
3.6350,21.50844622
3.6400,21.56546858
3.6450,21.62217254
3.6500,21.67855378
3.6550,21.73438513
3.6600,21.78957528
3.6650,21.84406122
3.6700,21.89787599
3.6750,21.95085764
3.6800,22.00303759
3.6850,22.05442681
3.6900,22.10484845
3.6950,22.15441945
3.7000,22.20312343
3.7050,22.25072249
3.7100,22.29755106
3.7150,22.34342134
3.7200,22.38857953
3.7250,22.43294303
3.7300,22.47674143
3.7350,22.51990839
3.7400,22.56239568
3.7450,22.60433755
3.7500,22.6461532
3.7550,22.68804536
3.7600,22.73033996
3.7650,22.77325236
3.7700,22.81681251
3.7750,22.86131956
3.7800,22.90687617
3.7850,22.95356105
3.7900,23.00171222
3.7950,23.05119906
3.8000,23.10187999
3.8050,23.15410585
3.8100,23.20778367
3.8150,23.26290565
3.8200,23.31922342
3.8250,23.37681458
3.8300,23.43553705
3.8350,23.49510702
3.8400,23.55523345
3.8450,23.61582719
3.8500,23.67668094
3.8550,23.73785119
3.8600,23.79937234
3.8650,23.86086305
3.8700,23.92230868
3.8750,23.98371476
3.8800,24.04464841
3.8850,24.10493838
3.8900,24.16451172
3.8950,24.22303073
3.9000,24.28041613
3.9050,24.33661344
3.9100,24.39135511
3.9150,24.44455902
3.9200,24.4962106
3.9250,24.54602738
3.9300,24.59406653
3.9350,24.64003994
3.9400,24.68369604
3.9450,24.72499154
3.9500,24.76375859
3.9550,24.80012332
3.9600,24.83418995
3.9650,24.86590803
3.9700,24.89519426
3.9750,24.92230139
3.9800,24.94722716
3.9850,24.96987101
3.9900,24.99037863
3.9950,25.00879213
4.0000,25.0252294
4.0050,25.03967358
4.0100,25.05204848
4.0150,25.06256546
4.0200,25.07096565
4.0250,25.07744343
4.0300,25.08203239
4.0350,25.08467855
4.0400,25.0857108
4.0450,25.08520214
4.0500,25.08290485
4.0550,25.07908296
4.0600,25.07373877
4.0650,25.06701054
4.0700,25.05911011
4.0750,25.05009649
4.0800,25.04019515
4.0850,25.0295519
4.0900,25.01821635
4.0950,25.00646024
4.1000,24.9943777
4.1050,24.98194439
4.1100,24.96911192
4.1150,24.95598894
4.1200,24.94269475
4.1250,24.92903667
4.1300,24.91529207
4.1350,24.90149736
4.1400,24.88779928
4.1450,24.87410376
4.1500,24.86032997
4.1550,24.84645823
4.1600,24.83239958
4.1650,24.81827996
4.1700,24.80381269
4.1750,24.78896907
4.1800,24.77410729
4.1850,24.75933737
4.1900,24.74464179
4.1950,24.7302592
4.2000,24.71597804
4.2050,24.70191755
4.2100,24.68805746
4.2150,24.67455792
4.2200,24.66091467
4.2250,24.64738352
4.2300,24.63390014
4.2350,24.62057287
4.2400,24.60729774
4.2450,24.5939128
4.2500,24.5806782
4.2550,24.56743672
4.2600,24.55430318
4.2650,24.54119465
4.2700,24.52812134
4.2750,24.51502372
4.2800,24.50201223
4.2850,24.48913129
4.2900,24.47648237
4.2950,24.46402885
4.3000,24.45172717
4.3050,24.43977781
4.3100,24.42805165
4.3150,24.41648895
4.3200,24.40533488
4.3250,24.39455735
4.3300,24.38393995
4.3350,24.37354333
4.3400,24.3631282
4.3450,24.35274956
4.3500,24.34239366
4.3550,24.33194935
4.3600,24.3213334
4.3650,24.31064368
4.3700,24.29971308
4.3750,24.28864723
4.3800,24.27719264
4.3850,24.26549244
4.3900,24.25341143
4.3950,24.24103767
4.4000,24.22840456
4.4050,24.21550049
4.4100,24.20244004
4.4150,24.18912935
4.4200,24.17559165
4.4250,24.16214202
4.4300,24.14849598
4.4350,24.13482566
4.4400,24.12107198
4.4450,24.10729281
4.4500,24.09374534
4.4550,24.08042191
4.4600,24.06722503
4.4650,24.05430084
4.4700,24.04160361
4.4750,24.02914237
4.4800,24.01702036
4.4850,24.00508676
4.4900,23.99342102
4.4950,23.9819752
4.5000,23.97082514
4.5050,23.95985659
4.5100,23.94907549
4.5150,23.93846882
4.5200,23.92815211
4.5250,23.9178348
4.5300,23.90743217
4.5350,23.89688919
4.5400,23.88619136
4.5450,23.8754159
4.5500,23.8643172
4.5550,23.85305676
4.5600,23.84144355
4.5650,23.82964595
4.5700,23.81754348
4.5750,23.80505701
4.5800,23.79215323
4.5850,23.77886424
4.5900,23.76507128
4.5950,23.75075032
4.6000,23.73594092
4.6050,23.72061796
4.6100,23.70485781
4.6150,23.68856345
4.6200,23.67176571
4.6250,23.6542761
4.6300,23.6361184
4.6350,23.61734821
4.6400,23.59798524
4.6450,23.57792788
4.6500,23.5570198
4.6550,23.5352277
4.6600,23.51229582
4.6650,23.48822735
4.6700,23.46310527
4.6750,23.43680508
4.6800,23.40953845
4.6850,23.38118952
4.6900,23.35188328
4.6950,23.32155623
4.7000,23.29022639
4.7050,23.25798233
4.7100,23.22480524
4.7150,23.19087211
4.7200,23.15615106
4.7250,23.12062754
4.7300,23.08440646
4.7350,23.04758387
4.7400,23.01021467
4.7450,22.97262027
4.7500,22.93469238
4.7550,22.89660048
4.7600,22.85839628
4.7650,22.82022443
4.7700,22.78216117
4.7750,22.74426928
4.7800,22.70655125
4.7850,22.66917948
4.7900,22.63198782
4.7950,22.59516013
4.8000,22.55882753
4.8050,22.52300382
4.8100,22.48770826
4.8150,22.45275002
4.8200,22.4182774
4.8250,22.38444693
4.8300,22.35113688
4.8350,22.31831618
4.8400,22.28614024
4.8450,22.25443914
4.8500,22.22336185
4.8550,22.19280625
4.8600,22.16269554
4.8650,22.13302062
4.8700,22.10375342
4.8750,22.07495779
4.8800,22.04648019
4.8850,22.01835813
4.8900,21.99070233
4.8950,21.96340141
4.9000,21.93655485
4.9050,21.90995386
4.9100,21.88361034
4.9150,21.85736906
4.9200,21.83098529
4.9250,21.80473145
4.9300,21.77858398
4.9350,21.75239567
4.9400,21.72619111
4.9450,21.69970646
4.9500,21.67323036
4.9550,21.64664104
4.9600,21.62023074
4.9650,21.59369554
4.9700,21.56719944
4.9750,21.54050668
4.9800,21.51342787
4.9850,21.48598679
4.9900,21.45802643
4.9950,21.42953407
5.0000,21.40056199
5.0050,21.37099251
5.0100,21.34062354
5.0150,21.30950835
5.0200,21.27773624
5.0250,21.24532308
5.0300,21.21222531
5.0350,21.17852563
5.0400,21.14425252
5.0450,21.10918141
5.0500,21.07338381
5.0550,21.03674439
5.0600,20.99951734
5.0650,20.96140489
5.0700,20.92264666
5.0750,20.88334053
5.0800,20.84336304
5.0850,20.80291603
5.0900,20.76205876
5.0950,20.72094645
5.1000,20.67939779
5.1050,20.63745146
5.1100,20.59507571
5.1150,20.55229925
5.1200,20.50906681
5.1250,20.46521286
5.1300,20.42063045
5.1350,20.37554244
5.1400,20.32985256
5.1450,20.28373585
5.1500,20.23705131
5.1550,20.18993463
5.1600,20.14243065
5.1650,20.09451045
5.1700,20.04629466
5.1750,19.99779661
5.1800,19.94909688
5.1850,19.90015563
5.1900,19.85089858
5.1950,19.80130213
5.2000,19.75125148
5.2050,19.70064145
5.2100,19.64947209
5.2150,19.59774529
5.2200,19.54544957
5.2250,19.49258654
5.2300,19.43904425
5.2350,19.38503861
5.2400,19.3306184
5.2450,19.27597775
5.2500,19.22095285
5.2550,19.16541041
5.2600,19.10933406
5.2650,19.05288744
5.2700,18.99600338
5.2750,18.93880916
5.2800,18.88154449
5.2850,18.82401965
5.2900,18.76648505
5.2950,18.70895
5.3000,18.65134218
5.3050,18.59368234
5.3100,18.53606672
5.3150,18.47834076
5.3200,18.42019406
5.3250,18.36156728
5.3300,18.302397
5.3350,18.24255247
5.3400,18.18176322
5.3450,18.12007612
5.3500,18.05739167
5.3550,17.99375787
5.3600,17.92891906
5.3650,17.86329141
5.3700,17.79655766
5.3750,17.72876707
5.3800,17.6599833
5.3850,17.59030245
5.3900,17.51972648
5.3950,17.44830807
5.4000,17.37626426
5.4050,17.30352627
5.4100,17.23047603
5.4150,17.15709438
5.4200,17.08353305
5.4250,17.00984839
5.4300,16.93624559
5.4350,16.86259716
5.4400,16.78898001
5.4450,16.71526758
5.4500,16.64167287
5.4550,16.56805293
5.4600,16.4944261
5.4650,16.42076913
5.4700,16.34704663
5.4750,16.27332361
5.4800,16.19940786
5.4850,16.12530935
5.4900,16.05085651
5.4950,15.97633321
5.5000,15.90165817
5.5050,15.82698451
5.5100,15.7522951
5.5150,15.67771199
5.5200,15.60335076
5.5250,15.52918661
5.5300,15.45543216
5.5350,15.38200057
5.5400,15.30896966
5.5450,15.23627
5.5500,15.16419623
5.5550,15.09286095
5.5600,15.02245366
5.5650,14.95298213
5.5700,14.88440892
5.5750,14.81684317
5.5800,14.7503584
5.5850,14.68500625
5.5900,14.62078956
5.5950,14.55759304
5.6000,14.49560683
5.6050,14.4348838
5.6100,14.37527305
5.6150,14.31678128
5.6200,14.25947468
5.6250,14.20331011
5.6300,14.14819166
5.6350,14.09401942
5.6400,14.04090409
5.6450,13.9887275
5.6500,13.93729316
5.6550,13.88660074
5.6600,13.83673656
5.6650,13.78723514
5.6700,13.73834894
5.6750,13.68995838
5.6800,13.64216592
5.6850,13.59468903
5.6900,13.54735168
5.6950,13.49987327
5.7000,13.45204258
5.7050,13.40387001
5.7100,13.35514317
5.7150,13.30577865
5.7200,13.25573531
5.7250,13.20515177
5.7300,13.15396802
5.7350,13.10219612
5.7400,13.04985593
5.7450,12.99720208
5.7500,12.94410427
5.7550,12.89058162
5.7600,12.83673912
5.7650,12.78235743
5.7700,12.72770607
5.7750,12.67248047
5.7800,12.61702955
5.7850,12.56129011
5.7900,12.50536942
5.7950,12.44930485
5.8000,12.39323947
5.8050,12.33714669
5.8100,12.28124841
5.8150,12.2255415
5.8200,12.17005211
5.8250,12.11484733
5.8300,12.05986027
5.8350,12.0050789
5.8400,11.95046471
5.8450,11.89620961
5.8500,11.84199082
5.8550,11.78800976
5.8600,11.73413562
5.8650,11.68026021
5.8700,11.62659258
5.8750,11.57304942
5.8800,11.51966088
5.8850,11.46636596
5.8900,11.41316611
5.8950,11.36009735
5.9000,11.30703903
5.9050,11.25398901
5.9100,11.20100773
5.9150,11.14801744
5.9200,11.09498094
5.9250,11.04186387
5.9300,10.98885407
5.9350,10.93579418
5.9400,10.88287898
5.9450,10.83024842
5.9500,10.77807339
5.9550,10.72626461
5.9600,10.6748566
5.9650,10.62390992
5.9700,10.57339729
5.9750,10.52347789
5.9800,10.47392249
5.9850,10.42470397
5.9900,10.3760913
5.9950,10.32797876
6.0000,10.28061378
6.0050,10.23391286
6.0100,10.18772409
6.0150,10.14218328
6.0200,10.09716094
6.0250,10.05272979
6.0300,10.00891213
6.0350,9.965727964
6.0400,9.923135417
6.0450,9.880946843
6.0500,9.83917386
6.0550,9.798015802
6.0600,9.75753264
6.0650,9.717854687
6.0700,9.678702081
6.0750,9.64037291
6.0800,9.602586672
6.0850,9.565408508
6.0900,9.528928016
6.0950,9.492872089
6.1000,9.457393464
6.1050,9.422564891
6.1100,9.388184549
6.1150,9.354365902
6.1200,9.321109346
6.1250,9.288401868
6.1300,9.256322683
6.1350,9.225053699
6.1400,9.194596643
6.1450,9.164888253
6.1500,9.136171757
6.1550,9.108379634
6.1600,9.081480866
6.1650,9.05571765
6.1700,9.030877145
6.1750,9.006949037
6.1800,8.983831122
6.1850,8.961638735
6.1900,8.940206029
6.1950,8.91955767
6.2000,8.899275
6.2050,8.879347544
6.2100,8.859582284
6.2150,8.840037634
6.2200,8.820522781
6.2250,8.800914631
6.2300,8.781188773
6.2350,8.761203523
6.2400,8.740840827
6.2450,8.719856458
6.2500,8.698339367
6.2550,8.676119215
6.2600,8.653147209
6.2650,8.629461697
6.2700,8.605132732
6.2750,8.579888899
6.2800,8.553888835
6.2850,8.527154117
6.2900,8.499500522
6.2950,8.471094247
6.3000,8.441862382
6.3050,8.411885562
6.3100,8.381291539
6.3150,8.350133384
6.3200,8.318493616
6.3250,8.286291593
6.3300,8.253527602
6.3350,8.22010358
6.3400,8.186072943
6.3450,8.151587275
6.3500,8.116839773
6.3550,8.081604403
6.3600,8.045961806
6.3650,8.010240829
6.3700,7.97448271
6.3750,7.93868169
6.3800,7.903063561
6.3850,7.867722568
6.3900,7.832726219
6.3950,7.798132525
6.4000,7.763865804
6.4050,7.730038013
6.4100,7.696868511
6.4150,7.664322331
6.4200,7.632549249
6.4250,7.60157238
6.4300,7.571456283
6.4350,7.542222709
6.4400,7.513987225
6.4450,7.48684169
6.4500,7.460770245
6.4550,7.435701735
6.4600,7.41193313
6.4650,7.389262029
6.4700,7.367716082
6.4750,7.347462198
6.4800,7.328303059
6.4850,7.310263764
6.4900,7.29331309
6.4950,7.277415777
6.5000,7.262569438
6.5050,7.24849032
6.5100,7.235271457
6.5150,7.222416214
6.5200,7.209964349
6.5250,7.197596365
6.5300,7.185123889
6.5350,7.172578447
6.5400,7.159707813
6.5450,7.146499665
6.5500,7.132859251
6.5550,7.118636264
6.5600,7.103899455
6.5650,7.088499722
6.5700,7.072359271
6.5750,7.055762274
6.5800,7.03852591
6.5850,7.020792875
6.5900,7.002712135
6.5950,6.984360419
6.6000,6.965730915
6.6050,6.94687327
6.6100,6.927821144
6.6150,6.908510923
6.6200,6.889051929
6.6250,6.869288373
6.6300,6.849246326
6.6350,6.82896766
6.6400,6.808358937
6.6450,6.787399992
6.6500,6.765827397
6.6550,6.743798294
6.6600,6.721185965
6.6650,6.69760094
6.6700,6.673151792
6.6750,6.647963925
6.6800,6.622043744
6.6850,6.595312746
6.6900,6.567764316
6.6950,6.539674696
6.7000,6.510985254
6.7050,6.481808256
6.7100,6.4520903
6.7150,6.422003522
6.7200,6.391583026
6.7250,6.361044788
6.7300,6.33054912
6.7350,6.30026983
6.7400,6.270272588
6.7450,6.240820425
6.7500,6.212054306
6.7550,6.1841718
6.7600,6.157132557
6.7650,6.131126924
6.7700,6.106302914
6.7750,6.082559085
6.7800,6.060021583
6.7850,6.038613882
6.7900,6.018339704
6.7950,5.999358635
6.8000,5.981657096
6.8050,5.965193095
6.8100,5.94990555
6.8150,5.935909479
6.8200,5.923018401
6.8250,5.911370667
6.8300,5.900865676
6.8350,5.891520567
6.8400,5.883107396
6.8450,5.875724409
6.8500,5.869022065
6.8550,5.863081787
6.8600,5.857611341
6.8650,5.852634525
6.8700,5.847890835
6.8750,5.843057473
6.8800,5.838117524
6.8850,5.832792783
6.8900,5.826940722
6.8950,5.820242359
6.9000,5.812606198
6.9050,5.803875369
6.9100,5.79384085
6.9150,5.782371777
6.9200,5.769315993
6.9250,5.754645126
6.9300,5.738354668
6.9350,5.720291087
6.9400,5.700471578
6.9450,5.678712157
6.9500,5.655151783
6.9550,5.629475467
6.9600,5.601778474
6.9650,5.572099298
6.9700,5.540427261
6.9750,5.5067232
6.9800,5.470873268
6.9850,5.433026611
6.9900,5.39337456
6.9950,5.351753872
7.0000,5.308516313
7.0050,5.263687989
7.0100,5.217505465
7.0150,5.170355036
7.0200,5.122248917
7.0250,5.073533209
7.0300,5.024531666
7.0350,4.975273173
7.0400,4.925929161
7.0450,4.876805771
7.0500,4.828053237
7.0550,4.779922529
7.0600,4.732796805
7.0650,4.686876244
7.0700,4.642252011
7.0750,4.59910043
7.0800,4.557660701
7.0850,4.518130085
7.0900,4.480601806
7.0950,4.444978845
7.1000,4.411526342
7.1050,4.380332796
7.1100,4.351532517
7.1150,4.325369265
7.1200,4.301897306
7.1250,4.281315838
7.1300,4.263442463
7.1350,4.248435667
7.1400,4.236326831
7.1450,4.226906676
7.1500,4.220319845
7.1550,4.216420633
7.1600,4.215137955
7.1650,4.216419108
7.1700,4.220025637
7.1750,4.225891331
7.1800,4.233882979
7.1850,4.243934432
7.1900,4.255719846
7.1950,4.269098382
7.2000,4.283768854
7.2050,4.299380656
7.2100,4.315911507
7.2150,4.33293844
7.2200,4.350265705
7.2250,4.367785508
7.2300,4.384990615
7.2350,4.401800154
7.2400,4.417904637
7.2450,4.43331707
7.2500,4.447816807
7.2550,4.461536205
7.2600,4.474273862
7.2650,4.486117034
7.2700,4.497063726
7.2750,4.507076406
7.2800,4.516134417
7.2850,4.524436813
7.2900,4.531799455
7.2950,4.53838189
7.3000,4.544088738
7.3050,4.548979155
7.3100,4.552951537
7.3150,4.555912403
7.3200,4.557976937
7.3250,4.558888513
7.3300,4.558695786
7.3350,4.557429879
7.3400,4.555132668
7.3450,4.551699255
7.3500,4.547168979
7.3550,4.541633053
7.3600,4.534900564
7.3650,4.526980232
7.3700,4.517991936
7.3750,4.508064757
7.3800,4.497150302
7.3850,4.485326442
7.3900,4.472833075
7.3950,4.459560525
7.4000,4.445748933
7.4050,4.431444446
7.4100,4.416663161
7.4150,4.401457278
7.4200,4.385911947
7.4250,4.369973326
7.4300,4.353876287
7.4350,4.337426666
7.4400,4.320870274
7.4450,4.304092378
7.4500,4.287206036
7.4550,4.270264277
7.4600,4.253373396
7.4650,4.236398905
7.4700,4.219401803
7.4750,4.202544572
7.4800,4.185697359
7.4850,4.168785597
7.4900,4.151898381
7.4950,4.134947353
7.5000,4.118041238
7.5050,4.101229726
7.5100,4.084293516
7.5150,4.067425638
7.5200,4.050598042
7.5250,4.033737769
7.5300,4.01699522
7.5350,4.000429825
7.5400,3.984041206
7.5450,3.967781021
7.5500,3.951618655
7.5550,3.935500239
7.5600,3.919377507
7.5650,3.903355552
7.5700,3.88705366
7.5750,3.870582887
7.5800,3.853993815
7.5850,3.837009889
7.5900,3.819679183
7.5950,3.802047317
7.6000,3.783972089
7.6050,3.765621986
7.6100,3.746879406
7.6150,3.727804071
7.6200,3.708387669
7.6250,3.688655573
7.6300,3.668449401
7.6350,3.64802222
7.6400,3.627161207
7.6450,3.606035115
7.6500,3.584564116
7.6550,3.562760455
7.6600,3.540574797
7.6650,3.518159431
7.6700,3.495442447
7.6750,3.472458394
7.6800,3.449409957
7.6850,3.426176344
7.6900,3.402685352
7.6950,3.379138529
7.7000,3.355516067
7.7050,3.332011717
7.7100,3.308546451
7.7150,3.28507449
7.7200,3.26169486
7.7250,3.238443066
7.7300,3.215342883
7.7350,3.192485955
7.7400,3.169782708
7.7450,3.147564997
7.7500,3.125714734
7.7550,3.104274837
7.7600,3.08316757
7.7650,3.062603454
7.7700,3.042556886
7.7750,3.022850569
7.7800,3.003612531
7.7850,2.98473019
7.7900,2.966173003
7.7950,2.94823331
7.8000,2.93070315
7.8050,2.913728008
7.8100,2.897267535
7.8150,2.881366365
7.8200,2.86598826
7.8250,2.851157796
7.8300,2.836965155
7.8350,2.82319651
7.8400,2.809975444
7.8450,2.797186063
7.8500,2.784963057
7.8550,2.773160671
7.8600,2.761955378
7.8650,2.751199343
7.8700,2.741214868
7.8750,2.731690206
7.8800,2.72268986
7.8850,2.714360955
7.8900,2.70652181
7.8950,2.699132751
7.9000,2.692271283
7.9050,2.685658641
7.9100,2.679613941
7.9150,2.673745692
7.9200,2.668262273
7.9250,2.663045811
7.9300,2.65814973
7.9350,2.653438429
7.9400,2.648968835
7.9450,2.644659317
7.9500,2.640491821
7.9550,2.636353817
7.9600,2.632419725
7.9650,2.628474051
7.9700,2.624553031
7.9750,2.620636181
7.9800,2.616548789
7.9850,2.612548389
7.9900,2.608550831
7.9950,2.60469679
8.0000,2.60086127
8.0050,2.596881009
8.0100,2.593060974
8.0150,2.589342404
8.0200,2.585835516
8.0250,2.58235503
8.0300,2.579127159
8.0350,2.576122417
8.0400,2.573213628
8.0450,2.570515536
8.0500,2.567903102
8.0550,2.565522035
8.0600,2.563223431
8.0650,2.560920865
8.0700,2.558625074
8.0750,2.556289958
8.0800,2.553776448
8.0850,2.551169662
8.0900,2.548488203
8.0950,2.545333348
8.1000,2.541922492
8.1050,2.538118132
8.1100,2.533879225
8.1150,2.529353691
8.1200,2.524393124
8.1250,2.519065638
8.1300,2.513449945
8.1350,2.507667242
8.1400,2.501855705
8.1450,2.496029906
8.1500,2.490260412
8.1550,2.484697001
8.1600,2.479308864
8.1650,2.474125584
8.1700,2.469231703
8.1750,2.464758148
8.1800,2.460699904
8.1850,2.457089417
8.1900,2.45405986
8.1950,2.451614974
8.2000,2.449796302
8.2050,2.448762421
8.2100,2.448377212
8.2150,2.448804131
8.2200,2.450006775
8.2250,2.452122691
8.2300,2.45507689
8.2350,2.45890509
8.2400,2.463801842
8.2450,2.469582142
8.2500,2.476510269
8.2550,2.484713563
8.2600,2.494004061
8.2650,2.504501736
8.2700,2.516338343
8.2750,2.529421874
8.2800,2.543905112
8.2850,2.559547593
8.2900,2.576384329
8.2950,2.594450409
8.3000,2.613693132
8.3050,2.634111268
8.3100,2.655507772
8.3150,2.677983095
8.3200,2.701324812
8.3250,2.725591816
8.3300,2.750574872
8.3350,2.776060735
8.3400,2.80228532
8.3450,2.829102715
8.3500,2.856435276
8.3550,2.88418068
8.3600,2.912308924
8.3650,2.940807584
8.3700,2.969739131
8.3750,2.999035919
8.3800,3.028717409
8.3850,3.058848048
8.3900,3.089221781
8.3950,3.12027306
8.4000,3.151690015
8.4050,3.183590778
8.4100,3.216005549
8.4150,3.248757692
8.4200,3.281941006
8.4250,3.315475025
8.4300,3.349346079
8.4350,3.383449319
8.4400,3.417625815
8.4450,3.451999831
8.4500,3.486270085
8.4550,3.520514641
8.4600,3.554423591
8.4650,3.588197159
8.4700,3.621548718
8.4750,3.654395007
8.4800,3.686756313
8.4850,3.718508523
8.4900,3.749683871
8.4950,3.780210219
8.5000,3.810058921
8.5050,3.839170217
8.5100,3.867469202
8.5150,3.89510632
8.5200,3.922037229
8.5250,3.948388539
8.5300,3.974174726
8.5350,3.999438343
8.5400,4.024261734
8.5450,4.048749448
8.5500,4.072851797
8.5550,4.09653882
8.5600,4.120038983
8.5650,4.143301226
8.5700,4.166207482
8.5750,4.188954745
8.5800,4.211443362
8.5850,4.233809527
8.5900,4.256001008
8.5950,4.277957478
8.6000,4.299704974
8.6050,4.321263404
8.6100,4.34259791
8.6150,4.363783139
8.6200,4.384776755
8.6250,4.405723367
8.6300,4.426629138
8.6350,4.447723823
8.6400,4.468953684
8.6450,4.490153323
8.6500,4.511649735
8.6550,4.533338457
8.6600,4.55534871
8.6650,4.577579831
8.6700,4.59998825
8.6750,4.62261647
8.6800,4.645477509
8.6850,4.668543082
8.6900,4.69177676
8.6950,4.715009819
8.7000,4.738381536
8.7050,4.761800881
8.7100,4.785399364
8.7150,4.80912956
8.7200,4.833033342
8.7250,4.857247855
8.7300,4.88169001
8.7350,4.906455614
8.7400,4.931692109
8.7450,4.957169324
8.7500,4.983176192
8.7550,5.009487185
8.7600,5.036464408
8.7650,5.06390062
8.7700,5.091993261
8.7750,5.120766332
8.7800,5.150038147
8.7850,5.179860157
8.7900,5.210366309
8.7950,5.241368652
8.8000,5.272910844
8.8050,5.304931345
8.8100,5.337466698
8.8150,5.370338696
8.8200,5.403487578
8.8250,5.436870543
8.8300,5.470457733
8.8350,5.504215134
8.8400,5.538135804
8.8450,5.57229682
8.8500,5.606818684
8.8550,5.641540556
8.8600,5.676577415
8.8650,5.711853386
8.8700,5.747653808
8.8750,5.783939403
8.8800,5.820730561
8.8850,5.858019526
8.8900,5.895841309
8.8950,5.934163142
8.9000,5.972900311
8.9050,6.012171045
8.9100,6.051904772
8.9150,6.092050021
8.9200,6.132726317
8.9250,6.173788533
8.9300,6.215173449
8.9350,6.256788513
8.9400,6.298654107
8.9450,6.340764055
8.9500,6.383034899
8.9550,6.425603908
8.9600,6.468395953
8.9650,6.511308966
8.9700,6.554441561
8.9750,6.597820533
8.9800,6.641411344
8.9850,6.685215909
8.9900,6.729482345
8.9950,6.773998156
9.0000,6.818787363
9.0050,6.863865397
9.0100,6.909190916
9.0150,6.954952085
9.0200,7.000970366
9.0250,7.047088266
9.0300,7.093267076
9.0350,7.139609981
9.0400,7.185974335
9.0450,7.232366782
9.0500,7.278875042
9.0550,7.325577602
9.0600,7.372470899
9.0650,7.419633814
9.0700,7.467040439
9.0750,7.514800699
9.0800,7.563010351
9.0850,7.611722673
9.0900,7.660795345
9.0950,7.710401673
9.1000,7.760518579
9.1050,7.811112631
9.1100,7.86229533
9.1150,7.914104333
9.1200,7.966584946
9.1250,8.01970538
9.1300,8.073609369
9.1350,8.128300759
9.1400,8.183731441
9.1450,8.23970035
9.1500,8.296189302
9.1550,8.353349838
9.1600,8.411003052
9.1650,8.469358785
9.1700,8.528238948
9.1750,8.587567085
9.1800,8.647385954
9.1850,8.707543958
9.1900,8.768240816
9.1950,8.829455538
9.2000,8.891328053
9.2050,8.953855079
9.2100,9.017224984
9.2150,9.081340822
9.2200,9.146181623
9.2250,9.211827267
9.2300,9.278373842
9.2350,9.345854709
9.2400,9.414233444
9.2450,9.483508908
9.2500,9.553731229
9.2550,9.624725559
9.2600,9.696395106
9.2650,9.7689621
9.2700,9.84230212
9.2750,9.916354881
9.2800,9.991134803
9.2850,10.06674741
9.2900,10.14286027
9.2950,10.21965764
9.3000,10.29713439
9.3050,10.37519813
9.3100,10.45384384
9.3150,10.53295235
9.3200,10.6125812
9.3250,10.69265221
9.3300,10.77317935
9.3350,10.85396224
9.3400,10.93503073
9.3450,11.0165826
9.3500,11.09855356
9.3550,11.18092833
9.3600,11.26364696
9.3650,11.34648989
9.3700,11.42920681
9.3750,11.51185695
9.3800,11.59434941
9.3850,11.67648591
9.3900,11.75829426
9.3950,11.83957388
9.4000,11.92024001
9.4050,12.00031298
9.4100,12.07983023
9.4150,12.15881563
9.4200,12.23735121
9.4250,12.31541697
9.4300,12.39300128
9.4350,12.46999326
9.4400,12.54646815
9.4450,12.62257459
9.4500,12.69821261
9.4550,12.77338424
9.4600,12.84794447
9.4650,12.9218389
9.4700,12.99508261
9.4750,13.06774525
9.4800,13.13980078
9.4850,13.21140708
9.4900,13.28266069
9.4950,13.35372301
9.5000,13.42471929
9.5050,13.495738
9.5100,13.56665241
9.5150,13.63768278
9.5200,13.70887603
9.5250,13.78026337
9.5300,13.85199202
9.5350,13.92402653
9.5400,13.99629532
9.5450,14.06893644
9.5500,14.14187556
9.5550,14.21511102
9.5600,14.28849457
9.5650,14.36194419
9.5700,14.43516614
9.5750,14.50803663
9.5800,14.58021567
9.5850,14.65123626
9.5900,14.72111018
9.5950,14.78955688
9.6000,14.85635677
9.6050,14.92131497
9.6100,14.98421747
9.6150,15.044902
9.6200,15.10344143
9.6250,15.15988355
9.6300,15.21431894
9.6350,15.26695982
9.6400,15.31785546
9.6450,15.36697521
9.6500,15.41443271
9.6550,15.4603757
9.6600,15.50479907
9.6650,15.54802831
9.6700,15.59029849
9.6750,15.63169737
9.6800,15.67244681
9.6850,15.71255113
9.6900,15.75221666
9.6950,15.79154132
9.7000,15.83072456
9.7050,15.8698056
9.7100,15.90866625
9.7150,15.94760076
9.7200,15.98644907
9.7250,16.02523598
9.7300,16.06402164
9.7350,16.10297078
9.7400,16.14229552
9.7450,16.18209138
9.7500,16.22253387
9.7550,16.26363275
9.7600,16.30577836
9.7650,16.3489141
9.7700,16.39310606
9.7750,16.43850032
9.7800,16.48509181
9.7850,16.53298433
9.7900,16.58205975
9.7950,16.63210667
9.8000,16.68305629
9.8050,16.73486145
9.8100,16.78751017
9.8150,16.84111573
9.8200,16.89565583
9.8250,16.95101712
9.8300,17.0069224
9.8350,17.063543
9.8400,17.12089421
9.8450,17.17887237
9.8500,17.23739694
9.8550,17.29641754
9.8600,17.35619133
9.8650,17.41658587
9.8700,17.47765831
9.8750,17.5394028
9.8800,17.60183106
9.8850,17.6649011
9.8900,17.72858368
9.8950,17.79264467
9.9000,17.8571677
9.9050,17.92192929
9.9100,17.98698373
9.9150,18.05228172
9.9200,18.11760594
9.9250,18.18297508
9.9300,18.24831192
9.9350,18.31355159
9.9400,18.37861576
9.9450,18.4435196
9.9500,18.50806491
9.9550,18.57226451
9.9600,18.63619723
9.9650,18.69977746
9.9700,18.76288875
9.9750,18.82531791
9.9800,18.88693134
9.9850,18.94785157
9.9900,19.00786743
9.9950,19.06715212
10.0000,19.12547849
10.0050,19.18277212
10.0100,19.23922466
10.0150,19.29448819
10.0200,19.34876925
10.0250,19.4019399
10.0300,19.4540318
10.0350,19.50500053
10.0400,19.55482552
10.0450,19.60331467
10.0500,19.65062184
10.0550,19.69673795
10.0600,19.74166754
10.0650,19.7854469
10.0700,19.82816965
10.0750,19.86977722
10.0800,19.91041222
10.0850,19.95000853
10.0900,19.98870677
10.0950,20.02676145
10.1000,20.06419409
10.1050,20.10118267
10.1100,20.13780071
10.1150,20.17390447
10.1200,20.20955509
10.1250,20.24487559
10.1300,20.28002932
10.1350,20.31505935
10.1400,20.34997766
10.1450,20.3850481
10.1500,20.42032742
10.1550,20.45591495
10.1600,20.49178068
10.1650,20.52787959
10.1700,20.56447744
10.1750,20.60145451
10.1800,20.63887095
10.1850,20.67674567
10.1900,20.71475248
10.1950,20.75322008
10.2000,20.79185306
10.2050,20.83096128
10.2100,20.87043423
10.2150,20.91026893
10.2200,20.95056385
10.2250,20.99130714
10.2300,21.03238886
10.2350,21.07390843
10.2400,21.11590218
10.2450,21.1583122
10.2500,21.20117682
10.2550,21.24441771
10.2600,21.28799898
10.2650,21.33167742
10.2700,21.37561982
10.2750,21.41980089
10.2800,21.46418027
10.2850,21.50862455
10.2900,21.55289895
10.2950,21.59677581
10.3000,21.6401568
10.3050,21.68305955
10.3100,21.72490056
10.3150,21.76567604
10.3200,21.80512653
10.3250,21.84316771
10.3300,21.87968008
10.3350,21.91471462
10.3400,21.9478983
10.3450,21.97952183
10.3500,22.00955472
10.3550,22.03808742
10.3600,22.06490443
10.3650,22.09035355
10.3700,22.11424584
10.3750,22.13679933
10.3800,22.15801863
10.3850,22.17806822
10.3900,22.19716618
10.3950,22.2152504
10.4000,22.23252166
10.4050,22.24867369
10.4100,22.26395293
10.4150,22.27843099
10.4200,22.2921548
10.4250,22.30536336
10.4300,22.31806363
10.4350,22.33027798
10.4400,22.34238559
10.4450,22.35406741
10.4500,22.36547826
10.4550,22.37672403
10.4600,22.38775117
10.4650,22.39884877
10.4700,22.4098486
10.4750,22.42093655
10.4800,22.43196708
10.4850,22.44305507
10.4900,22.45442818
10.4950,22.4660292
10.5000,22.47768975
10.5050,22.48942647
10.5100,22.5011128
10.5150,22.51290773
10.5200,22.52463466
10.5250,22.536236
10.5300,22.54796874
10.5350,22.55971851
10.5400,22.57119888
10.5450,22.58261399
10.5500,22.59385069
10.5550,22.60490708
10.5600,22.61592467
10.5650,22.62690476
10.5700,22.63791227
10.5750,22.64891869
10.5800,22.65990736
10.5850,22.67092652
10.5900,22.68193279
10.5950,22.69289121
10.6000,22.70369879
10.6050,22.71440034
10.6100,22.72510177
10.6150,22.73549358
10.6200,22.74563191
10.6250,22.75565347
10.6300,22.76532963
10.6350,22.77476678
10.6400,22.78416712
10.6450,22.79339343
10.6500,22.80248483
10.6550,22.81150582
10.6600,22.82062129
10.6650,22.82976549
10.6700,22.83898408
10.6750,22.84807867
10.6800,22.85709218
10.6850,22.86615824
10.6900,22.87488486
10.6950,22.88318024
10.7000,22.89094486
10.7050,22.89848622
10.7100,22.90563356
10.7150,22.91228583
10.7200,22.91834835
10.7250,22.92365183
10.7300,22.92842727
10.7350,22.93254557
10.7400,22.93570204
10.7450,22.93823156
10.7500,22.93992445
10.7550,22.94090885
10.7600,22.94136523
10.7650,22.94100396
10.7700,22.94016054
10.7750,22.9386243
10.7800,22.93669445
10.7850,22.93435479
10.7900,22.9314327
10.7950,22.92770832
10.8000,22.92338678
10.8050,22.91823036
10.8100,22.91194933
10.8150,22.90445918
10.8200,22.89568395
10.8250,22.88566832
10.8300,22.87409187
10.8350,22.86116527
10.8400,22.84712721
10.8450,22.83186564
10.8500,22.81537959
10.8550,22.79800561
10.8600,22.77953809
10.8650,22.760274
10.8700,22.7400816
10.8750,22.71913786
10.8800,22.69760755
10.8850,22.67533691
10.8900,22.65248783
10.8950,22.62918796
10.9000,22.60543799
10.9050,22.58099475
10.9100,22.55601299
10.9150,22.53041408
10.9200,22.50404975
10.9250,22.47682779
10.9300,22.44889005
10.9350,22.41978294
10.9400,22.38934261
10.9450,22.35752063
10.9500,22.32398803
10.9550,22.28881935
10.9600,22.25201968
10.9650,22.21354653
10.9700,22.17349534
10.9750,22.13184183
10.9800,22.08881485
10.9850,22.04419843
10.9900,21.99813951
10.9950,21.95071178
11.0000,21.90210028
11.0050,21.85214974
11.0100,21.80109687
11.0150,21.74888601
11.0200,21.69558636
11.0250,21.64132908
11.0300,21.58598796
11.0350,21.52964483
11.0400,21.47233773
11.0450,21.41388656
11.0500,21.35449134
11.0550,21.29426692
11.0600,21.23318917
11.0650,21.17157476
11.0700,21.10918848
11.0750,21.04633102
11.0800,20.98300928
11.0850,20.91910858
11.0900,20.85501447
11.0950,20.79087426
11.1000,20.72658229
11.1050,20.66220227
11.1100,20.59810617
11.1150,20.53404893
11.1200,20.47010407
11.1250,20.40638304
11.1300,20.34296149
11.1350,20.27963117
11.1400,20.21637506
11.1450,20.15328492
11.1500,20.09043158
11.1550,20.02775082
11.1600,19.96524108
11.1650,19.90281662
11.1700,19.84060566
11.1750,19.7785624
11.1800,19.71670218
11.1850,19.65511754
11.1900,19.59385256
11.1950,19.532885
11.2000,19.47210015
11.2050,19.41172342
11.2100,19.35145271
11.2150,19.29162469
11.2200,19.23218771
11.2250,19.17295557
11.2300,19.11375298
11.2350,19.05477995
11.2400,18.99611497
11.2450,18.93766942
11.2500,18.87946805
11.2550,18.82164968
11.2600,18.76403584
11.2650,18.70672143
11.2700,18.64982833
11.2750,18.59364852
11.2800,18.53801451
11.2850,18.48308575
11.2900,18.42874035
11.2950,18.3750914
11.3000,18.3218244
11.3050,18.26906339
11.3100,18.21647273
11.3150,18.1641123
11.3200,18.11206637
11.3250,18.05996704
11.3300,18.00796099
11.3350,17.95613979
11.3400,17.90461075
11.3450,17.85358529
11.3500,17.80294712
11.3550,17.7522794
11.3600,17.70179865
11.3650,17.65136133
11.3700,17.60087181
11.3750,17.55028574
11.3800,17.49935092
11.3850,17.44816456
11.3900,17.39663876
11.3950,17.3446643
11.4000,17.29267683
11.4050,17.24052247
11.4100,17.18829277
11.4150,17.13602512
11.4200,17.08376478
11.4250,17.0312449
11.4300,16.97841049
11.4350,16.92523409
11.4400,16.87164331
11.4450,16.81765774
11.4500,16.76320051
11.4550,16.70811609
11.4600,16.65237131
11.4650,16.5960953
11.4700,16.53925568
11.4750,16.48179499
11.4800,16.42375629
11.4850,16.36526648
11.4900,16.30626818
11.4950,16.24674436
11.5000,16.18671931
11.5050,16.12605646
11.5100,16.06481
11.5150,16.00282968
11.5200,15.94023591
11.5250,15.87688476
11.5300,15.81297303
11.5350,15.74847976
11.5400,15.68335856
11.5450,15.61774043
11.5500,15.55178959
11.5550,15.4851224
11.5600,15.41797132
11.5650,15.35031306
11.5700,15.28203727
11.5750,15.21297317
11.5800,15.14306721
11.5850,15.07236115
11.5900,15.00104715
11.5950,14.92926455
11.6000,14.8570974
11.6050,14.78460985
11.6100,14.71198308
11.6150,14.63892555
11.6200,14.56555246
11.6250,14.49195808
11.6300,14.41796861
11.6350,14.34353569
11.6400,14.26854322
11.6450,14.19287912
11.6500,14.11676109
11.6550,14.04041449
11.6600,13.96383339
11.6650,13.88705553
11.6700,13.81052374
11.6750,13.73417159
11.6800,13.658405
11.6850,13.58324771
11.6900,13.50861737
11.6950,13.43481093
11.7000,13.36158613
11.7050,13.28920236
11.7100,13.21752802
11.7150,13.14654917
11.7200,13.07626559
11.7250,13.006642
11.7300,12.9376395
11.7350,12.86918205
11.7400,12.80122912
11.7450,12.73364839
11.7500,12.66652427
11.7550,12.59960525
11.7600,12.53308014
11.7650,12.46692731
11.7700,12.40098659
11.7750,12.33552564
11.7800,12.27040917
11.7850,12.20579493
11.7900,12.1415716
11.7950,12.0778649
11.8000,12.01459445
11.8050,11.95185576
11.8100,11.88984768
11.8150,11.82855127
11.8200,11.76773975
11.8250,11.70770696
11.8300,11.64813354
11.8350,11.58905299
11.8400,11.53039051
11.8450,11.47201365
11.8500,11.41384045
11.8550,11.35581909
11.8600,11.29792967
11.8650,11.24007045
11.8700,11.18212883
11.8750,11.12405048
11.8800,11.06586296
11.8850,11.00738839
11.8900,10.94874071
11.8950,10.88956096
11.9000,10.83007365
11.9050,10.77008844
11.9100,10.70963725
11.9150,10.64910645
11.9200,10.58843781
11.9250,10.52793489
11.9300,10.46764675
11.9350,10.40762688
11.9400,10.34792976
11.9450,10.28850114
11.9500,10.22946378
11.9550,10.17084842
11.9600,10.11245677
11.9650,10.05455183
11.9700,9.996753032
11.9750,9.939287465
11.9800,9.882163909
11.9850,9.825394133
11.9900,9.769261716
11.9950,9.713619326
12.0000,9.658516094
12.0050,9.603954174
12.0100,9.549898825
12.0150,9.496338723
12.0200,9.443218857
12.0250,9.3906511
12.0300,9.338776991
12.0350,9.287616777
12.0400,9.237183406
12.0450,9.187647841
12.0500,9.139029625
12.0550,9.091627007
12.0600,9.045391364
12.0650,9.000233999
12.0700,8.956459894
12.0750,8.913925598
12.0800,8.872703177
12.0850,8.832772239
12.0900,8.794168337
12.0950,8.756810756
12.1000,8.720940773
12.1050,8.686413129
12.1100,8.653042268
12.1150,8.62089769
12.1200,8.590170713
12.1250,8.560547741
12.1300,8.53203479
12.1350,8.504564578
12.1400,8.478125742
12.1450,8.45258384
12.1500,8.427685718
12.1550,8.40352772
12.1600,8.379826429
12.1650,8.356397914
12.1700,8.333195524
12.1750,8.310155377
12.1800,8.286969602
12.1850,8.263664082
12.1900,8.239786804
12.1950,8.215674119
12.2000,8.191021048
12.2050,8.165950321
12.2100,8.140349226
12.2150,8.114261472
12.2200,8.087585185
12.2250,8.060411197
12.2300,8.032786731
12.2350,8.004600423
12.2400,7.97604376
12.2450,7.947334118
12.2500,7.918335756
12.2550,7.889375303
12.2600,7.8606302
12.2650,7.832124779
12.2700,7.804143355
12.2750,7.77662473
12.2800,7.749606925
12.2850,7.723296671
12.2900,7.69744871
12.2950,7.672122063
12.3000,7.647129551
12.3050,7.62264146
12.3100,7.598667281
12.3150,7.575360673
12.3200,7.552751604
12.3250,7.530942517
12.3300,7.509742268
12.3350,7.489136417
12.3400,7.469058424
12.3450,7.449408934
12.3500,7.430135444
12.3550,7.411143707
12.3600,7.39231722
12.3650,7.373673543
12.3700,7.355023166
12.3750,7.336198625
12.3800,7.317394873
12.3850,7.298480716
12.3900,7.279494874
12.3950,7.260391835
12.4000,7.241224021
12.4050,7.222029632
12.4100,7.202898931
12.4150,7.183804706
12.4200,7.164488108
12.4250,7.14513919
12.4300,7.125764809
12.4350,7.10627721
12.4400,7.086594843
12.4450,7.066720949
12.4500,7.046802308
12.4550,7.026642697
12.4600,7.006353251
12.4650,6.985865955
12.4700,6.965269846
12.4750,6.94455965
12.4800,6.923840982
12.4850,6.90302608
12.4900,6.882480242
12.4950,6.862031655
12.5000,6.841774932
12.5050,6.821720781
12.5100,6.801979235
12.5150,6.78245804
12.5200,6.76328442
12.5250,6.744392655
12.5300,6.725659453
12.5350,6.70738438
12.5400,6.689590745
12.5450,6.672165614
12.5500,6.655237031
12.5550,6.638770185
12.5600,6.622726664
12.5650,6.607185854
12.5700,6.592161301
12.5750,6.577767991
12.5800,6.563992718
12.5850,6.550851943
12.5900,6.538421928
12.5950,6.526974195
12.6000,6.516412395
12.6050,6.506662402
12.6100,6.497713875
12.6150,6.489302657
12.6200,6.481391449
12.6250,6.473809229
12.6300,6.466515613
12.6350,6.459381995
12.6400,6.452499261
12.6450,6.445803077
12.6500,6.439079042
12.6550,6.432270936
12.6600,6.42549686
12.6650,6.418718833
12.6700,6.411954214
12.6750,6.405443095
12.6800,6.398974902
12.6850,6.392542017
12.6900,6.386080018
12.6950,6.379743387
12.7000,6.373441187
12.7050,6.367042424
12.7100,6.360479226
12.7150,6.353695332
12.7200,6.346774526
12.7250,6.339587526
12.7300,6.332142473
12.7350,6.324539546
12.7400,6.316743076
12.7450,6.308899019
12.7500,6.300863571
12.7550,6.292638781
12.7600,6.284253258
12.7650,6.275706648
12.7700,6.266987233
12.7750,6.258175586
12.7800,6.249278531
12.7850,6.240304363
12.7900,6.23121412
12.7950,6.222019251
12.8000,6.212788242
12.8050,6.203534765
12.8100,6.194287561
12.8150,6.185061164
12.8200,6.175955353
12.8250,6.166937256
12.8300,6.158117503
12.8350,6.149216082
12.8400,6.140305372
12.8450,6.131338293
12.8500,6.122365436
12.8550,6.113319939
12.8600,6.104205894
12.8650,6.094912288
12.8700,6.085232905
12.8750,6.075162589
12.8800,6.0647688
12.8850,6.053827333
12.8900,6.042547754
12.8950,6.03068449
12.9000,6.018456249
12.9050,6.005649789
12.9100,5.992429327
12.9150,5.978911263
12.9200,5.965039257
12.9250,5.950787385
12.9300,5.936156688
12.9350,5.921201287
12.9400,5.905916141
12.9450,5.890264428
12.9500,5.874221395
12.9550,5.857806
12.9600,5.840731416
12.9650,5.823123355
12.9700,5.804844769
12.9750,5.785777598
12.9800,5.765943056
12.9850,5.745253755
12.9900,5.723884948
12.9950,5.701491581
13.0000,5.678257134
13.0050,5.654127516
13.0100,5.629163917
13.0150,5.603130144
13.0200,5.575993752
13.0250,5.547985237
13.0300,5.519196988
13.0350,5.489388328
13.0400,5.458589488
13.0450,5.426783523
13.0500,5.394138361
13.0550,5.360654443
13.0600,5.326301689
13.0650,5.291184975
13.0700,5.255291221
13.0750,5.218622584
13.0800,5.181242335
13.0850,5.143179765
13.0900,5.104444762
13.0950,5.06510123
13.1000,5.02519258
13.1050,4.984861721
13.1100,4.944265461
13.1150,4.903437641
13.1200,4.862513065
13.1250,4.821383478
13.1300,4.780350856
13.1350,4.739578175
13.1400,4.69899738
13.1450,4.65884034
13.1500,4.619126108
13.1550,4.579708509
13.1600,4.540852344
13.1650,4.502395067
13.1700,4.46467706
13.1750,4.427850906
13.1800,4.391827932
13.1850,4.356931485
13.1900,4.323035694
13.1950,4.290149722
13.2000,4.258421206
13.2050,4.227947748
13.2100,4.198568127
13.2150,4.170244546
13.2200,4.143005583
13.2250,4.116749993
13.2300,4.091612595
13.2350,4.067604482
13.2400,4.044611169
13.2450,4.022397446
13.2500,4.00106992
13.2550,3.980547412
13.2600,3.960942737
13.2650,3.941846264
13.2700,3.923307128
13.2750,3.905317699
13.2800,3.887489383
13.2850,3.86981369
13.2900,3.852072436
13.2950,3.834353042
13.3000,3.816345359
13.3050,3.797919685
13.3100,3.778928826
13.3150,3.759473333
13.3200,3.739398765
13.3250,3.718605921
13.3300,3.697021184
13.3350,3.674507354
13.3400,3.651314741
13.3450,3.627340012
13.3500,3.602375672
13.3550,3.576813623
13.3600,3.550503699
13.3650,3.523756761
13.3700,3.496504806
13.3750,3.468771047
13.3800,3.440780558
13.3850,3.412735465
13.3900,3.384767304
13.3950,3.356882651
13.4000,3.329116365
13.4050,3.301564651
13.4100,3.274287489
13.4150,3.247297807
13.4200,3.220613786
13.4250,3.194383658
13.4300,3.168587463
13.4350,3.143266499
13.4400,3.118538332
13.4450,3.09438696
13.4500,3.070777146
13.4550,3.047886427
13.4600,3.025707049
13.4650,3.00434859
13.4700,2.983798599
13.4750,2.963950093
13.4800,2.944994907
13.4850,2.92698074
13.4900,2.909849768
13.4950,2.893684718
13.5000,2.878501601
13.5050,2.864192315
13.5100,2.851045653
13.5150,2.838967939
13.5200,2.82792373
13.5250,2.818006215
13.5300,2.809106457
13.5350,2.800997485
13.5400,2.793703422
13.5450,2.78734853
13.5500,2.781816086
13.5550,2.776952362
13.5600,2.772766087
13.5650,2.769230046
13.5700,2.766251305
13.5750,2.763767514
13.5800,2.761725991
13.5850,2.760126617
13.5900,2.759167444
13.5950,2.758644608
13.6000,2.758482873
13.6050,2.758731215
13.6100,2.759395833
13.6150,2.760488417
13.6200,2.76194063
13.6250,2.763648018
13.6300,2.765538915
13.6350,2.767662585
13.6400,2.76973621
13.6450,2.771873156
13.6500,2.774041581
13.6550,2.776100918
13.6600,2.777982368
13.6650,2.779526168
13.6700,2.780848815
13.6750,2.781823177
13.6800,2.782342619
13.6850,2.782541661
13.6900,2.782154588
13.6950,2.781269373
13.7000,2.780042445
13.7050,2.778559137
13.7100,2.776633197
13.7150,2.774651562
13.7200,2.772542572
13.7250,2.77038641
13.7300,2.768241811
13.7350,2.766202245
13.7400,2.764165973
13.7450,2.76250381
13.7500,2.761189439
13.7550,2.760281567
13.7600,2.75978981
13.7650,2.759885299
13.7700,2.76077083
13.7750,2.762389078
13.7800,2.764816275
13.7850,2.768136217
13.7900,2.772508657
13.7950,2.777995328
13.8000,2.784638279
13.8050,2.792607623
13.8100,2.801667763
13.8150,2.811967098
13.8200,2.82365661
13.8250,2.836700397
13.8300,2.851060073
13.8350,2.866909367
13.8400,2.884078694
13.8450,2.902473316
13.8500,2.922083066
13.8550,2.942926919
13.8600,2.964995986
13.8650,2.988288812
13.8700,3.012681829
13.8750,3.038198921
13.8800,3.064974272
13.8850,3.092892852
13.8900,3.12171762
13.8950,3.151496484
13.9000,3.182320026
13.9050,3.214074325
13.9100,3.246621273
13.9150,3.279951428
13.9200,3.313975862
13.9250,3.348710264
13.9300,3.383967411
13.9350,3.419752644
13.9400,3.456142079
13.9450,3.492841475
13.9500,3.52999716
13.9550,3.567473588
13.9600,3.605338803
13.9650,3.64342366
13.9700,3.681698519
13.9750,3.720426775
13.9800,3.759297118
13.9850,3.798327208
13.9900,3.837636313
13.9950,3.877243038
14.0000,3.91704836
14.0050,3.956936791
14.0100,3.997111125
14.0150,4.037416931
14.0200,4.077948671
14.0250,4.118708735
14.0300,4.159736661
14.0350,4.200884264
14.0400,4.242452431
14.0450,4.283968396
14.0500,4.325601378
14.0550,4.367462728
14.0600,4.409375139
14.0650,4.451345744
14.0700,4.493139
14.0750,4.534977606
14.0800,4.576783237
14.0850,4.618362294
14.0900,4.659740654
14.0950,4.700734993
14.1000,4.741437068
14.1050,4.781880265
14.1100,4.821899422
14.1150,4.861481026
14.1200,4.900456467
14.1250,4.938798165
14.1300,4.976476676
14.1350,5.013556634
14.1400,5.049997938
14.1450,5.085926769
14.1500,5.121320695
14.1550,5.156155789
14.1600,5.190386182
14.1650,5.22407636
14.1700,5.257355656
14.1750,5.290124132
14.1800,5.32234854
14.1850,5.353963481
14.1900,5.385091262
14.1950,5.41577855
14.2000,5.445956388
14.2050,5.476056255
14.2100,5.505977832
14.2150,5.535687047
14.2200,5.565583865
14.2250,5.595712692
14.2300,5.626281021
14.2350,5.657415415
14.2400,5.689280483
14.2450,5.722010802
14.2500,5.755694426
14.2550,5.790348009
14.2600,5.826247747
14.2650,5.863253157
14.2700,5.901533368
14.2750,5.940925702
14.2800,5.98167141
14.2850,6.023695953
14.2900,6.067057517
14.2950,6.111642226
14.3000,6.157555998
14.3050,6.204552089
14.3100,6.252592743
14.3150,6.301462864
14.3200,6.351099873
14.3250,6.401447632
14.3300,6.452197501
14.3350,6.50336353
14.3400,6.554835143
14.3450,6.606569751
14.3500,6.658468926
14.3550,6.71010962
14.3600,6.761623165
14.3650,6.81280461
14.3700,6.863689127
14.3750,6.914096392
14.3800,6.963935618
14.3850,7.013239259
14.3900,7.062039274
14.3950,7.110328059
14.4000,7.157973553
14.4050,7.204699079
14.4100,7.250644479
14.4150,7.295813718
14.4200,7.340228702
14.4250,7.383748027
14.4300,7.426524055
14.4350,7.468403862
14.4400,7.509607458
14.4450,7.549958814
14.4500,7.589563147
14.4550,7.628509484
14.4600,7.6668031
14.4650,7.704623459
14.4700,7.741972181
14.4750,7.778863682
14.4800,7.815707797
14.4850,7.852421745
14.4900,7.889068179
14.4950,7.925718787
14.5000,7.962536077
14.5050,7.999355239
14.5100,8.036456822
14.5150,8.073915205
14.5200,8.11162329
14.5250,8.149515619
14.5300,8.18772831
14.5350,8.226149859
14.5400,8.264621518
14.5450,8.303184079
14.5500,8.341724825
14.5550,8.380481356
14.5600,8.419096369
14.5650,8.457881222
14.5700,8.496794281
14.5750,8.53590142
14.5800,8.575184858
14.5850,8.614678894
14.5900,8.65438221
14.5950,8.694225849
14.6000,8.734143635
14.6050,8.774393145
14.6100,8.814882151
14.6150,8.855766961
14.6200,8.897125969
14.6250,8.938832131
14.6300,8.980978445
14.6350,9.023573796
14.6400,9.066500997
14.6450,9.109633481
14.6500,9.152957546
14.6550,9.196519222
14.6600,9.240176353
14.6650,9.283975021
14.6700,9.327868689
14.6750,9.371918772
14.6800,9.41606658
14.6850,9.460291452
14.6900,9.504451477
14.6950,9.548452103
14.7000,9.592315511
14.7050,9.635978677
14.7100,9.679503399
14.7150,9.722672909
14.7200,9.765582509
14.7250,9.808256951
14.7300,9.850684836
14.7350,9.892862513
14.7400,9.934634716
14.7450,9.976188448
14.7500,10.01736138
14.7550,10.05833213
14.7600,10.0991771
14.7650,10.14001078
14.7700,10.18079002
14.7750,10.22145262
14.7800,10.26183769
14.7850,10.30221799
14.7900,10.34258034
14.7950,10.38330212
14.8000,10.42449623
14.8050,10.46660785
14.8100,10.51002475
14.8150,10.55493071
14.8200,10.60112958
14.8250,10.64843606
14.8300,10.69666978
14.8350,10.74581974
14.8400,10.79583431
14.8450,10.84677117
14.8500,10.89888946
14.8550,10.95196584
14.8600,11.00629593
14.8650,11.06215683
14.8700,11.11966335
14.8750,11.17900799
14.8800,11.24044
14.8850,11.30392936
14.8900,11.36968327
14.8950,11.43791713
14.9000,11.50864656
14.9050,11.5818769
14.9100,11.65762983
14.9150,11.73585117
14.9200,11.81629029
14.9250,11.89909473
14.9300,11.98412784
14.9350,12.07131496
14.9400,12.16034552
14.9450,12.25126673
14.9500,12.34366438
14.9550,12.43728797
14.9600,12.53181041
14.9650,12.62696302
14.9700,12.72228713
14.9750,12.8173494
14.9800,12.91185918
14.9850,13.00555719
14.9900,13.09829636
14.9950,13.19021121
15.0000,13.28113286
15.0050,13.37110295
15.0100,13.46024371
15.0150,13.54894545
15.0200,13.63733276
15.0250,13.72539709
15.0300,13.81294704
15.0350,13.90026998
15.0400,13.98761163
15.0450,14.07489376
15.0500,14.16248921
15.0550,14.25039977
15.0600,14.33878137
15.0650,14.42768376
15.0700,14.51725688
15.0750,14.60778263
15.0800,14.69938813
15.0850,14.7922386
15.0900,14.88627032
15.0950,14.9811712
15.1000,15.07674532
15.1050,15.17240605
15.1100,15.26777538
15.1150,15.36278754
15.1200,15.45756271
15.1250,15.55210488
15.1300,15.64653832
15.1350,15.74087859
15.1400,15.83527892
15.1450,15.92933805
15.1500,16.02278714
15.1550,16.11560739
15.1600,16.20766449
15.1650,16.29837268
15.1700,16.38748291
15.1750,16.47474119
15.1800,16.56006864
15.1850,16.64331885
15.1900,16.72436153
15.1950,16.80288879
15.2000,16.87886373
15.2050,16.95228532
15.2100,17.02301397
15.2150,17.09090772
15.2200,17.15582398
15.2250,17.21768307
15.2300,17.27623418
15.2350,17.33150161
15.2400,17.38346745
15.2450,17.43193962
15.2500,17.4772001
15.2550,17.51919843
15.2600,17.55804826
15.2650,17.59383865
15.2700,17.62692119
15.2750,17.65767877
15.2800,17.68638547
15.2850,17.71352253
15.2900,17.73934887
15.2950,17.76407557
15.3000,17.788096
15.3050,17.81181416
15.3100,17.83543562
15.3150,17.85915744
15.3200,17.88315264
15.3250,17.90768954
15.3300,17.93316729
15.3350,17.95989037
15.3400,17.98789128
15.3450,18.01739459
15.3500,18.04859843
15.3550,18.08142371
15.3600,18.11573738
15.3650,18.15141927
15.3700,18.18866388
15.3750,18.22745564
15.3800,18.26783123
15.3850,18.30970219
15.3900,18.35313642
15.3950,18.39823698
15.4000,18.44525947
15.4050,18.4940162
15.4100,18.54467367
15.4150,18.59690572
15.4200,18.65067147
15.4250,18.70603318
15.4300,18.76277862
15.4350,18.82095493
15.4400,18.8802309
15.4450,18.94088987
15.4500,19.00288853
15.4550,19.06606341
15.4600,19.13029913
15.4650,19.19579378
15.4700,19.26233785
15.4750,19.32970653
15.4800,19.39780425
15.4850,19.46654351
15.4900,19.53575035
15.4950,19.60548957
15.5000,19.67565539
15.5050,19.74598943
15.5100,19.81645368
15.5150,19.88694956
15.5200,19.95752503
15.5250,20.02802502
15.5300,20.09857853
15.5350,20.16897021
15.5400,20.23917365
15.5450,20.30933433
15.5500,20.37920981
15.5550,20.44897152
15.5600,20.51855128
15.5650,20.58766342
15.5700,20.65629683
15.5750,20.72431218
15.5800,20.79179508
15.5850,20.85854478
15.5900,20.92457167
15.5950,20.99004388
15.6000,21.05480316
15.6050,21.11877658
15.6100,21.18202299
15.6150,21.24420531
15.6200,21.30545989
15.6250,21.36570107
15.6300,21.42494415
15.6350,21.48293107
15.6400,21.53984427
15.6450,21.59574502
15.6500,21.65042659
15.6550,21.70389018
15.6600,21.75627574
15.6650,21.80784394
15.6700,21.85854834
15.6750,21.9083201
15.6800,21.95735756
15.6850,22.00563503
15.6900,22.05340236
15.6950,22.10050121
15.7000,22.1470801
15.7050,22.19334799
15.7100,22.23915336
15.7150,22.28459257
15.7200,22.32965616
15.7250,22.37456553
15.7300,22.41922454
15.7350,22.46366995
15.7400,22.50800974
15.7450,22.55206348
15.7500,22.5959438
15.7550,22.63942247
15.7600,22.68268398
15.7650,22.72563464
15.7700,22.76836235
15.7750,22.81101544
15.7800,22.85359016
15.7850,22.89618529
15.7900,22.93870059
15.7950,22.98134729
15.8000,23.02405844
15.8050,23.06698178
15.8100,23.11019915
15.8150,23.15369126
15.8200,23.19752501
15.8250,23.24168247
15.8300,23.28618046
15.8350,23.33083931
15.8400,23.37566871
15.8450,23.42060286
15.8500,23.46557972
15.8550,23.51068586
15.8600,23.55589492
15.8650,23.601462
15.8700,23.64713829
15.8750,23.69301714
15.8800,23.73894916
15.8850,23.78471867
15.8900,23.83026401
15.8950,23.87538687
15.9000,23.91995956
15.9050,23.96371133
15.9100,24.00629354
15.9150,24.04767719
15.9200,24.08755492
15.9250,24.12600859
15.9300,24.16295506
15.9350,24.1982398
15.9400,24.23158388
15.9450,24.26290472
15.9500,24.29217369
15.9550,24.31930344
15.9600,24.3442862
15.9650,24.36672681
15.9700,24.38642444
15.9750,24.4032529
15.9800,24.4167266
15.9850,24.42678523
15.9900,24.43292625
15.9950,24.43500036
16.0000,24.43263021
16.0050,24.42573738
16.0100,24.41405399
16.0150,24.39772685
16.0200,24.37672963
16.0250,24.35109605
16.0300,24.32108153
16.0350,24.2865298
16.0400,24.24763541
16.0450,24.20462016
16.0500,24.15760232
16.0550,24.1075525
16.0600,24.05492191
16.0650,24.00026184
16.0700,23.9445358
16.0750,23.88856371
16.0800,23.83294402
16.0850,23.77847955
16.0900,23.72595421
16.0950,23.6759384
16.1000,23.62913745
16.1050,23.58591674
16.1100,23.5465227
16.1150,23.51151821
16.1200,23.48091982
16.1250,23.45501918
16.1300,23.43402971
16.1350,23.41831677
16.1400,23.40798913
16.1450,23.4028247
16.1500,23.40295179
16.1550,23.40807725
16.1600,23.4180821
16.1650,23.4327586
16.1700,23.45191661
16.1750,23.47515075
16.1800,23.50226892
16.1850,23.53312075
16.1900,23.56749259
16.1950,23.60508452
16.2000,23.64579825
16.2050,23.68954096
16.2100,23.73603136
16.2150,23.78512393
16.2200,23.83635806
16.2250,23.88950765
16.2300,23.9440985
16.2350,23.99968179
16.2400,24.05589027
16.2450,24.11213118
16.2500,24.16776251
16.2550,24.22243665
16.2600,24.27542622
16.2650,24.32636106
16.2700,24.37504141
16.2750,24.42120698
16.2800,24.46455099
16.2850,24.50478394
16.2900,24.54177376
16.2950,24.57536438
16.3000,24.60538973
16.3050,24.63179507
16.3100,24.65476054
16.3150,24.67407808
16.3200,24.6898703
16.3250,24.70210171
16.3300,24.71065957
16.3350,24.71576185
16.3400,24.71742604
16.3450,24.71588397
16.3500,24.71142566
16.3550,24.70418751
16.3600,24.6943305
16.3650,24.6821914
16.3700,24.66770739
16.3750,24.65103784
16.3800,24.63236093
16.3850,24.61163168
16.3900,24.58887281
16.3950,24.56419287
16.4000,24.53762775
16.4050,24.50953585
16.4100,24.48006788
16.4150,24.449396
16.4200,24.4178527
16.4250,24.38555534
16.4300,24.35261619
16.4350,24.31899764
16.4400,24.28449439
16.4450,24.24960948
16.4500,24.21406779
16.4550,24.17804789
16.4600,24.14179107
16.4650,24.10521888
16.4700,24.06841262
16.4750,24.03147203
16.4800,23.9943924
16.4850,23.95715054
16.4900,23.91966439
16.4950,23.88200226
16.5000,23.84388172
16.5050,23.80553389
16.5100,23.76686204
16.5150,23.72772315
16.5200,23.6884687
16.5250,23.64865087
16.5300,23.60841029
16.5350,23.56785907
16.5400,23.52690082
16.5450,23.48555183
16.5500,23.44390551
16.5550,23.4017842
16.5600,23.35940424
16.5650,23.31676193
16.5700,23.27367566
16.5750,23.22985018
16.5800,23.18543336
16.5850,23.14017233
16.5900,23.09430922
16.5950,23.04783286
16.6000,23.0007817
16.6050,22.95311506
16.6100,22.90480081
16.6150,22.85572684
16.6200,22.80582388
16.6250,22.75498625
16.6300,22.70320798
16.6350,22.65067498
16.6400,22.59750458
16.6450,22.54375881
16.6500,22.48936768
16.6550,22.43432846
16.6600,22.37867324
16.6650,22.32234643
16.6700,22.26550116
16.6750,22.20831859
16.6800,22.15084216
16.6850,22.09336205
16.6900,22.03595058
16.6950,21.97866907
16.7000,21.92166827
16.7050,21.86485293
16.7100,21.80827074
16.7150,21.75185139
16.7200,21.69550714
16.7250,21.6392245
16.7300,21.58285362
16.7350,21.5264459
16.7400,21.47024929
16.7450,21.41419949
16.7500,21.35845905
16.7550,21.3030107
16.7600,21.24777524
16.7650,21.19277657
16.7700,21.13824101
16.7750,21.08399451
16.7800,21.03025964
16.7850,20.97710238
16.7900,20.92455029
16.7950,20.87267358
16.8000,20.82163814
16.8050,20.77127677
16.8100,20.72190904
16.8150,20.67360367
16.8200,20.6259673
16.8250,20.57934897
16.8300,20.53335755
16.8350,20.48797522
16.8400,20.44298563
16.8450,20.39830513
16.8500,20.35378799
16.8550,20.30932453
16.8600,20.26451575
16.8650,20.21939502
16.8700,20.17384448
16.8750,20.12802813
16.8800,20.0816566
16.8850,20.03491532
16.8900,19.98757559
16.8950,19.93977314
16.9000,19.89158195
16.9050,19.84292878
16.9100,19.7937236
16.9150,19.74412658
16.9200,19.69414
16.9250,19.64378226
16.9300,19.5931254
16.9350,19.54207835
16.9400,19.49084587
16.9450,19.4393589
16.9500,19.38789965
16.9550,19.33641953
16.9600,19.28505173
16.9650,19.23374357
16.9700,19.18267776
16.9750,19.13145843
16.9800,19.08040886
16.9850,19.02922391
16.9900,18.97824809
16.9950,18.92741751
17.0000,18.87679586
17.0050,18.82617858
17.0100,18.77564303
17.0150,18.7251072
17.0200,18.67477095
17.0250,18.62447023
17.0300,18.57433614
17.0350,18.5244733
17.0400,18.47471036
17.0450,18.42486464
17.0500,18.37500441
17.0550,18.32517885
17.0600,18.27515721
17.0650,18.22517036
17.0700,18.17500463
17.0750,18.12450573
17.0800,18.0735124
17.0850,18.02203933
17.0900,17.97008792
17.0950,17.91752069
17.1000,17.86458463
17.1050,17.81124489
17.1100,17.75744958
17.1150,17.70315775
17.1200,17.64866523
17.1250,17.59387969
17.1300,17.53898751
17.1350,17.48367727
17.1400,17.42830607
17.1450,17.37271313
17.1500,17.31691888
17.1550,17.26092725
17.1600,17.20474066
17.1650,17.1483513
17.1700,17.09168083
17.1750,17.03477882
17.1800,16.97770574
17.1850,16.92041001
17.1900,16.86298714
17.1950,16.80537093
17.2000,16.74751578
17.2050,16.68952156
17.2100,16.63145842
17.2150,16.57316385
17.2200,16.51472414
17.2250,16.45606329
17.2300,16.39743458
17.2350,16.33874961
17.2400,16.27989506
17.2450,16.22096852
17.2500,16.16181598
17.2550,16.10253826
17.2600,16.04311776
17.2650,15.98375986
17.2700,15.92434877
17.2750,15.86497541
17.2800,15.80550065
17.2850,15.74590254
17.2900,15.68602728
17.2950,15.6259391
17.3000,15.56562946
17.3050,15.50522209
17.3100,15.4447368
17.3150,15.38411591
17.3200,15.32324676
17.3250,15.26235382
17.3300,15.2012937
17.3350,15.14004792
17.3400,15.07868261
17.3450,15.01715884
17.3500,14.95538089
17.3550,14.89309019
17.3600,14.83064293
17.3650,14.76774039
17.3700,14.70436195
17.3750,14.64091517
17.3800,14.57732884
17.3850,14.51358114
17.3900,14.44989415
17.3950,14.3864087
17.4000,14.32306213
17.4050,14.26013314
17.4100,14.19757878
17.4150,14.13557846
17.4200,14.07405366
17.4250,14.01302072
17.4300,13.95249537
17.4350,13.89273488
17.4400,13.83344207
17.4450,13.77476634
17.4500,13.71668375
17.4550,13.65930775
17.4600,13.60291755
17.4650,13.5472006
17.4700,13.49234448
17.4750,13.43819779
17.4800,13.38490096
17.4850,13.33246205
17.4900,13.28085836
17.4950,13.23028855
17.5000,13.18059041
17.5050,13.13183675
17.5100,13.08393951
17.5150,13.0370269
17.5200,12.990814
17.5250,12.94544472
17.5300,12.90070939
17.5350,12.85650033
17.5400,12.81271619
17.5450,12.76936122
17.5500,12.72625353
17.5550,12.68320664
17.5600,12.63994802
17.5650,12.59632695
17.5700,12.55220814
17.5750,12.5076389
17.5800,12.46246993
17.5850,12.41676456
17.5900,12.37028615
17.5950,12.32304239
17.6000,12.27497216
17.6050,12.22608367
17.6100,12.17644314
17.6150,12.1260395
17.6200,12.07501122
17.6250,12.02334846
17.6300,11.97131769
17.6350,11.9187563
17.6400,11.86603824
17.6450,11.81320898
17.6500,11.76031954
17.6550,11.70760751
17.6600,11.65474126
17.6650,11.60182854
17.6700,11.54897324
17.6750,11.49609555
17.6800,11.4433256
17.6850,11.39063204
17.6900,11.33804423
17.6950,11.28555864
17.7000,11.23314973
17.7050,11.18094314
17.7100,11.12887847
17.7150,11.07701789
17.7200,11.02548036
17.7250,10.97424958
17.7300,10.92333597
17.7350,10.87272528
17.7400,10.82250684
17.7450,10.77269572
17.7500,10.72340014
17.7550,10.67457374
17.7600,10.62604682
17.7650,10.57809214
17.7700,10.53052972
17.7750,10.48351362
17.7800,10.43693859
17.7850,10.39067939
17.7900,10.34479572
17.7950,10.29892665
17.8000,10.25317056
17.8050,10.20745045
17.8100,10.1617529
17.8150,10.11604653
17.8200,10.07063032
17.8250,10.0252561
17.8300,9.980190867
17.8350,9.935442637
17.8400,9.891076081
17.8450,9.847066984
17.8500,9.803439538
17.8550,9.760330089
17.8600,9.717635495
17.8650,9.675447945
17.8700,9.633548883
17.8750,9.59190154
17.8800,9.550525398
17.8850,9.509388885
17.8900,9.468654879
17.8950,9.428123925
17.9000,9.387686648
17.9050,9.347381081
17.9100,9.307147156
17.9150,9.267006558
17.9200,9.227035988
17.9250,9.187113141
17.9300,9.147151957
17.9350,9.107105189
17.9400,9.066712395
17.9450,9.025742443
17.9500,8.984433593
17.9550,8.942581064
17.9600,8.900223138
17.9650,8.857483062
17.9700,8.814190881
17.9750,8.770334546
17.9800,8.725805064
17.9850,8.680602649
17.9900,8.634642051
17.9950,8.587715842
18.0000,8.539996261
18.0050,8.491420586
18.0100,8.442048851
18.0150,8.392013373
18.0200,8.341307542
18.0250,8.290145811
18.0300,8.238783972
18.0350,8.187276675
18.0400,8.135827652
18.0450,8.08448593
18.0500,8.033455668
18.0550,7.982748588
18.0600,7.932648457
18.0650,7.883265721
18.0700,7.834799511
18.0750,7.787308594
18.0800,7.741174127
18.0850,7.696510444
18.0900,7.653431077
18.0950,7.612298461
18.1000,7.573239358
18.1050,7.536331554
18.1100,7.501857123
18.1150,7.469714983
18.1200,7.4399855
18.1250,7.412681452
18.1300,7.387715345
18.1350,7.365260871
18.1400,7.345171298
18.1450,7.327502312
18.1500,7.31240221
18.1550,7.299678949
18.1600,7.289553195
18.1650,7.281866496
18.1700,7.276678519
18.1750,7.274023234
18.1800,7.27369526
18.1850,7.275689856
18.1900,7.279838483
18.1950,7.286036853
18.2000,7.294228494
18.2050,7.30417992
18.2100,7.315641604
18.2150,7.328604509
18.2200,7.342485349
18.2250,7.357321069
18.2300,7.372778428
18.2350,7.38888286
18.2400,7.405209953
18.2450,7.421856933
18.2500,7.438481761
18.2550,7.45489703
18.2600,7.470933603
18.2650,7.486460664
18.2700,7.501456213
18.2750,7.515699883
18.2800,7.529019167
18.2850,7.541489098
18.2900,7.552878176
18.2950,7.563293877
18.3000,7.572630585
18.3050,7.580788223
18.3100,7.587666864
18.3150,7.59327379
18.3200,7.597596254
18.3250,7.600463561
18.3300,7.601886741
18.3350,7.601962703
18.3400,7.600490741
18.3450,7.597790671
18.3500,7.593733908
18.3550,7.588497241
18.3600,7.582026987
18.3650,7.574241766
18.3700,7.565240391
18.3750,7.555075225
18.3800,7.543391999
18.3850,7.530388568
18.3900,7.516012771
18.3950,7.500224996
18.4000,7.482968537
18.4050,7.46439067
18.4100,7.444290381
18.4150,7.422951606
18.4200,7.400201596
18.4250,7.376349646
18.4300,7.351280108
18.4350,7.325034877
18.4400,7.297752945
18.4450,7.269561445
18.4500,7.240382521
18.4550,7.21039281
18.4600,7.17974555
18.4650,7.148422521
18.4700,7.11673069
18.4750,7.084618243
18.4800,7.052305035
18.4850,7.019684021
18.4900,6.986916919
18.4950,6.954289388
18.5000,6.921521859
18.5050,6.888762042
18.5100,6.856157821
18.5150,6.823646713
18.5200,6.791287543
18.5250,6.759000278
18.5300,6.72702431
18.5350,6.695201833
18.5400,6.663822144
18.5450,6.632827263
18.5500,6.602068455
18.5550,6.571707372
18.5600,6.541922067
18.5650,6.512461059
18.5700,6.483269285
18.5750,6.454561595
18.5800,6.426276824
18.5850,6.398360002
18.5900,6.370950685
18.5950,6.344068512
18.6000,6.317631942
18.6050,6.291639526
18.6100,6.266177528
18.6150,6.241238119
18.6200,6.216635645
18.6250,6.192512457
18.6300,6.168848453
18.6350,6.14555493
18.6400,6.122837327
18.6450,6.100577678
18.6500,6.07871969
18.6550,6.057481391
18.6600,6.03671175
18.6650,6.016579395
18.6700,5.99694781
18.6750,5.977818997
18.6800,5.959358137
18.6850,5.941449903
18.6900,5.924106973
18.6950,5.907193069
18.7000,5.890771833
18.7050,5.874787068
18.7100,5.859224042
18.7150,5.843934253
18.7200,5.828917982
18.7250,5.813999008
18.7300,5.799150065
18.7350,5.7843312
18.7400,5.769665562
18.7450,5.755021571
18.7500,5.740456821
18.7550,5.725932443
18.7600,5.71133954
18.7650,5.697027234
18.7700,5.682753391
18.7750,5.668714904
18.7800,5.654862843
18.7850,5.641280499
18.7900,5.628075478
18.7950,5.615042409
18.8000,5.602440646
18.8050,5.590036955
18.8100,5.577881524
18.8150,5.565722149
18.8200,5.553722051
18.8250,5.541587001
18.8300,5.529100939
18.8350,5.516280878
18.8400,5.502969143
18.8450,5.488963792
18.8500,5.474444019
18.8550,5.4591712
18.8600,5.442826682
18.8650,5.425447129
18.8700,5.406963107
18.8750,5.387109227
18.8800,5.366016961
18.8850,5.343538734
18.8900,5.31974885
18.8950,5.294639755
18.9000,5.268144571
18.9050,5.240395357
18.9100,5.211606296
18.9150,5.181718927
18.9200,5.151009359
18.9250,5.119663036
18.9300,5.087891208
18.9350,5.056061664
18.9400,5.024322601
18.9450,4.992692277
18.9500,4.96167172
18.9550,4.931037301
18.9600,4.901139982
18.9650,4.872136353
18.9700,4.844195255
18.9750,4.81743383
18.9800,4.791950962
18.9850,4.767767751
18.9900,4.744975939
18.9950,4.723470483
19.0000,4.703296287
19.0050,4.684328029
19.0100,4.666434711
19.0150,4.649649849
19.0200,4.633787424
19.0250,4.618785004
19.0300,4.604595832
19.0350,4.591128597
19.0400,4.578381786
19.0450,4.566203133
19.0500,4.554780459
19.0550,4.544101988
19.0600,4.534190714
19.0650,4.525070837
19.0700,4.516919045
19.0750,4.509731155
19.0800,4.50359594
19.0850,4.498595207
19.0900,4.49472247
19.0950,4.491865959
19.1000,4.490025591
19.1050,4.48929174
19.1100,4.489441738
19.1150,4.49059183
19.1200,4.492692128
19.1250,4.495884342
19.1300,4.49993733
19.1350,4.504792563
19.1400,4.510391877
19.1450,4.516875923
19.1500,4.523890823
19.1550,4.531624694
19.1600,4.540340589
19.1650,4.550000965
19.1700,4.560622024
19.1750,4.572347512
19.1800,4.585204705
19.1850,4.599449974
19.1900,4.615093208
19.1950,4.63218986
19.2000,4.650989308
19.2050,4.671404714
19.2100,4.693430702
19.2150,4.716966817
19.2200,4.741970755
19.2250,4.768410559
19.2300,4.796064783
19.2350,4.824625259
19.2400,4.853971806
19.2450,4.884233746
19.2500,4.91487502
19.2550,4.9459437
19.2600,4.977418554
19.2650,5.009088579
19.2700,5.040926263
19.2750,5.072980751
19.2800,5.105034486
19.2850,5.137196022
19.2900,5.169432948
19.2950,5.20195863
19.3000,5.234593252
19.3050,5.267468649
19.3100,5.30072543
19.3150,5.334342151
19.3200,5.368455794
19.3250,5.403175526
19.3300,5.438372634
19.3350,5.474144958
19.3400,5.510421331
19.3450,5.547308455
19.3500,5.584602467
19.3550,5.622186004
19.3600,5.660081355
19.3650,5.698153308
19.3700,5.73625889
19.3750,5.774300055
19.3800,5.812280472
19.3850,5.850115946
19.3900,5.887728948
19.3950,5.925262907
19.4000,5.962609473
19.4050,5.999803729
19.4100,6.036998132
19.4150,6.074180921
19.4200,6.111389252
19.4250,6.148425987
19.4300,6.185734631
19.4350,6.223152553
19.4400,6.260683249
19.4450,6.298378724
19.4500,6.336279597
19.4550,6.374540405
19.4600,6.413095655
19.4650,6.451954597
19.4700,6.491237798
19.4750,6.530910128
19.4800,6.571013055
19.4850,6.611484492
19.4900,6.652252729
19.4950,6.693250139
19.5000,6.734334256
19.5050,6.775473383
19.5100,6.816689566
19.5150,6.857951121
19.5200,6.899275966
19.5250,6.940521653
19.5300,6.981510262
19.5350,7.022540023
19.5400,7.06348795
19.5450,7.103956068
19.5500,7.14431435
19.5550,7.184322367
19.5600,7.22397503
19.5650,7.263146829
19.5700,7.301638774
19.5750,7.339437289
19.5800,7.376407718
19.5850,7.412683981
19.5900,7.447939448
19.5950,7.482207495
19.6000,7.515547104
19.6050,7.547764076
19.6100,7.578715516
19.6150,7.608378128
19.6200,7.636663661
19.6250,7.663586434
19.6300,7.689229625
19.6350,7.713440453
19.6400,7.736222522
19.6450,7.757623857
19.6500,7.77762787
19.6550,7.796355609
19.6600,7.813869011
19.6650,7.830091479
19.6700,7.845216472
19.6750,7.859418862
19.6800,7.872608299
19.6850,7.884999129
19.6900,7.896516456
19.6950,7.907226886
19.7000,7.917298521
19.7050,7.926931584
19.7100,7.935879679
19.7150,7.944351561
19.7200,7.952372563
19.7250,7.960136984
19.7300,7.967406577
19.7350,7.974418538
19.7400,7.98126719
19.7450,7.987780829
19.7500,7.994150545
19.7550,8.000224772
19.7600,8.005988507
19.7650,8.01153968
19.7700,8.016850948
19.7750,8.021903159
19.7800,8.026707166
19.7850,8.031351863
19.7900,8.035873167
19.7950,8.040439648
19.8000,8.045058019
19.8050,8.049913006
19.8100,8.054911887
19.8150,8.060180251
19.8200,8.065690265
19.8250,8.0713872
19.8300,8.077394127
19.8350,8.08361303
19.8400,8.09004309
19.8450,8.096881801
19.8500,8.103858035
19.8550,8.111076135
19.8600,8.118349919
19.8650,8.125787273
19.8700,8.133529069
19.8750,8.141311948
19.8800,8.149184374
19.8850,8.157156381
19.8900,8.165141984
19.8950,8.173231163
19.9000,8.181144118
19.9050,8.189056408
19.9100,8.196962055
19.9150,8.204839799
19.9200,8.212829586
19.9250,8.220617084
19.9300,8.2285595
19.9350,8.236629574
19.9400,8.244729476
19.9450,8.252918679
19.9500,8.261355234
19.9550,8.269935751
19.9600,8.278730992
19.9650,8.287745508
19.9700,8.297078106
19.9750,8.306756826
19.9800,8.316862234
19.9850,8.327448526
19.9900,8.338637394
19.9950,8.350421518
20.0000,8.362834806
20.0050,8.37568631
20.0100,8.389286156
20.0150,8.403546888
20.0200,8.418581183
20.0250,8.434451423
20.0300,8.451142635
20.0350,8.468836213
20.0400,8.487512621
20.0450,8.507355094
20.0500,8.52822935
20.0550,8.550149011
20.0600,8.573018256
20.0650,8.596825338
20.0700,8.621646949
20.0750,8.647609467
20.0800,8.674551308
20.0850,8.70235313
20.0900,8.731059614
20.0950,8.760600127
20.1000,8.790990872
20.1050,8.822029111
20.1100,8.853686756
20.1150,8.885948209
20.1200,8.918685482
20.1250,8.951960281
20.1300,8.985658891
20.1350,9.019516377
20.1400,9.05360546
20.1450,9.087827211
20.1500,9.122167305
20.1550,9.156693511
20.1600,9.191436255
20.1650,9.226234081
20.1700,9.261028812
20.1750,9.295825075
20.1800,9.330701296
20.1850,9.365274407
20.1900,9.399955409
20.1950,9.43435397
20.2000,9.468707515
20.2050,9.502795524
20.2100,9.536895954
20.2150,9.571039142
20.2200,9.605136953
20.2250,9.639464513
20.2300,9.673940123
20.2350,9.708606005
20.2400,9.743538012
20.2450,9.778783165
20.2500,9.814246525
20.2550,9.84998128
20.2600,9.886027926
20.2650,9.922509999
20.2700,9.959267108
20.2750,9.996393805
20.2800,10.03378424
20.2850,10.07150363
20.2900,10.10936326
20.2950,10.14761987
20.3000,10.18624252
20.3050,10.22528709
20.3100,10.264746
20.3150,10.30453019
20.3200,10.34463434
20.3250,10.38500256
20.3300,10.42569221
20.3350,10.46651503
20.3400,10.50763753
20.3450,10.54902579
20.3500,10.59077607
20.3550,10.6330661
20.3600,10.67605677
20.3650,10.71976699
20.3700,10.76406737
20.3750,10.80893495
20.3800,10.85456215
20.3850,10.90081694
20.3900,10.94761373
20.3950,10.99490938
20.4000,11.04298145
20.4050,11.09168734
20.4100,11.14120445
20.4150,11.19162035
20.4200,11.24298987
20.4250,11.29546895
20.4300,11.34915172
20.4350,11.40432462
20.4400,11.46102293
20.4450,11.51917371
20.4500,11.57893137
20.4550,11.64016468
20.4600,11.70289916
20.4650,11.76738294
20.4700,11.83355216
20.4750,11.90145018
20.4800,11.97130562
20.4850,12.04329274
20.4900,12.11724755
20.4950,12.19332269
20.5000,12.27165228
20.5050,12.35221476
20.5100,12.43483242
20.5150,12.51917033
20.5200,12.60543699
20.5250,12.6932845
20.5300,12.78247255
20.5350,12.87294655
20.5400,12.96465019
20.5450,13.05750688
20.5500,13.15134942
20.5550,13.24630515
20.5600,13.34209151
20.5650,13.43859607
20.5700,13.535752
20.5750,13.63335775
20.5800,13.73141984
20.5850,13.82978612
20.5900,13.92858067
20.5950,14.0274627
20.6000,14.12643612
20.6050,14.22549197
20.6100,14.32468339
20.6150,14.42408127
20.6200,14.52369328
20.6250,14.62367457
20.6300,14.72411447
20.6350,14.82519444
20.6400,14.92672775
20.6450,15.02871139
20.6500,15.1310417
20.6550,15.23323356
20.6600,15.33541354
20.6650,15.43760045
20.6700,15.53965995
20.6750,15.64141926
20.6800,15.74290268
20.6850,15.84419989
20.6900,15.94546279
20.6950,16.04684412
20.7000,16.14810408
20.7050,16.24930801
20.7100,16.35035951
20.7150,16.45122229
20.7200,16.55200586
20.7250,16.65280886
20.7300,16.75365306
20.7350,16.85447437
20.7400,16.95531173
20.7450,17.05623393
20.7500,17.15717326
20.7550,17.25823282
20.7600,17.35921913
20.7650,17.45989908
20.7700,17.56026489
20.7750,17.66002763
20.7800,17.75896353
20.7850,17.85667773
20.7900,17.95291256
20.7950,18.04742361
20.8000,18.13986782
20.8050,18.23013892
20.8100,18.31784938
20.8150,18.40318653
20.8200,18.48576992
20.8250,18.56565261
20.8300,18.64295724
20.8350,18.71751661
20.8400,18.78933057
20.8450,18.85844528
20.8500,18.9248694
20.8550,18.98861456
20.8600,19.04984384
20.8650,19.10873504
20.8700,19.1654125
20.8750,19.21987285
20.8800,19.27231281
20.8850,19.32291536
20.8900,19.37165379
20.8950,19.41875047
20.9000,19.46425106
20.9050,19.50845242
20.9100,19.55119568
20.9150,19.59270753
20.9200,19.63308238
20.9250,19.67238039
20.9300,19.71076271
20.9350,19.74818006
20.9400,19.78494221
20.9450,19.82110191
20.9500,19.8569836
20.9550,19.89309005
20.9600,19.92959474
20.9650,19.96650534
20.9700,20.00411897
20.9750,20.04281334
20.9800,20.08245583
20.9850,20.12325389
20.9900,20.16517214
20.9950,20.20801911
21.0000,20.25184103
21.0050,20.2966708
21.0100,20.34258825
21.0150,20.38957328
21.0200,20.43749991
21.0250,20.48633449
21.0300,20.53587844
21.0350,20.5861206
21.0400,20.63693467
21.0450,20.688282
21.0500,20.74018562
21.0550,20.79250691
21.0600,20.84534335
21.0650,20.8987133
21.0700,20.95266853
21.0750,21.00720336
21.0800,21.06232991
21.0850,21.11805927
21.0900,21.17453116
21.0950,21.23182758
21.1000,21.28985007
21.1050,21.3484292
21.1100,21.40777286
21.1150,21.46755024
21.1200,21.5277007
21.1250,21.58803154
21.1300,21.64829343
21.1350,21.70851065
21.1400,21.76831707
21.1450,21.82760809
21.1500,21.88632038
21.1550,21.94433379
21.1600,22.0014827
21.1650,22.05764934
21.1700,22.11265592
21.1750,22.1663997
21.1800,22.21884115
21.1850,22.26988897
21.1900,22.31967386
21.1950,22.36808712
21.2000,22.41533016
21.2050,22.46124932
21.2100,22.50594503
21.2150,22.54942961
21.2200,22.59152749
21.2250,22.63229302
21.2300,22.67168484
21.2350,22.7097922
21.2400,22.74650538
21.2450,22.78195632
21.2500,22.81609953
21.2550,22.84886581
21.2600,22.88019031
21.2650,22.91020108
21.2700,22.93877083
21.2750,22.96586852
21.2800,22.99164543
21.2850,23.01601474
21.2900,23.03930894
21.2950,23.06154367
21.3000,23.082896
21.3050,23.10351444
21.3100,23.12339543
21.3150,23.14262135
21.3200,23.16147049
21.3250,23.17988576
21.3300,23.19802313
21.3350,23.21600352
21.3400,23.23383877
21.3450,23.2517625
21.3500,23.26971951
21.3550,23.2880775
21.3600,23.30690719
21.3650,23.32616112
21.3700,23.34576616
21.3750,23.36624587
21.3800,23.3875766
21.3850,23.40994049
21.3900,23.43320535
21.3950,23.45766989
21.4000,23.48330362
21.4050,23.51027419
21.4100,23.53854625
21.4150,23.56827409
21.4200,23.59963428
21.4250,23.63293225
21.4300,23.66806105
21.4350,23.70483077
21.4400,23.74341285
21.4450,23.78341391
21.4500,23.82481329
21.4550,23.8674903
21.4600,23.91125031
21.4650,23.95586805
21.4700,24.00127264
21.4750,24.04709339
21.4800,24.09335073
21.4850,24.1397015
21.4900,24.1857819
21.4950,24.23158521
21.5000,24.27664163
21.5050,24.32073472
21.5100,24.36393409
21.5150,24.40585023
21.5200,24.44654662
21.5250,24.48585944
21.5300,24.52361048
21.5350,24.55964044
21.5400,24.59405062
21.5450,24.62660978
21.5500,24.6572638
21.5550,24.68585197
21.5600,24.71237428
21.5650,24.73649048
21.5700,24.75841491
21.5750,24.77823323
21.5800,24.79587891
21.5850,24.81153773
21.5900,24.82486601
21.5950,24.83627458
21.6000,24.84563819
21.6050,24.85304411
21.6100,24.85888578
21.6150,24.86338605
21.6200,24.86671735
21.6250,24.86913191
21.6300,24.87097179
21.6350,24.87258134
21.6400,24.87429313
21.6450,24.87642997
21.6500,24.87921127
21.6550,24.88296621
21.6600,24.88789742
21.6650,24.89435958
21.6700,24.9025832
21.6750,24.91266263
21.6800,24.92474926
21.6850,24.93904594
21.6900,24.95563523
21.6950,24.97422186
21.7000,24.99479911
21.7050,25.01753411
21.7100,25.04224893
21.7150,25.068929
21.7200,25.0973323
21.7250,25.12708396
21.7300,25.15794986
21.7350,25.18992007
21.7400,25.22263623
21.7450,25.25598128
21.7500,25.28978291
21.7550,25.32367312
21.7600,25.35763723
21.7650,25.39115457
21.7700,25.42418494
21.7750,25.4567042
21.7800,25.48824049
21.7850,25.51880177
21.7900,25.54825363
21.7950,25.57643475
21.8000,25.60304275
21.8050,25.62812844
21.8100,25.65139366
21.8150,25.67319113
21.8200,25.69331271
21.8250,25.71163356
21.8300,25.72793813
21.8350,25.74203975
21.8400,25.75371848
21.8450,25.76311279
21.8500,25.77026613
21.8550,25.77536092
21.8600,25.77820197
21.8650,25.77910326
21.8700,25.7780803
21.8750,25.77508042
21.8800,25.77036071
21.8850,25.76402207
21.8900,25.75627808
21.8950,25.74704856
21.9000,25.73672365
21.9050,25.72552218
21.9100,25.71354091
21.9150,25.70097785
21.9200,25.6880695
21.9250,25.67485115
21.9300,25.66140191
21.9350,25.64763855
21.9400,25.63389845
21.9450,25.62011004
21.9500,25.60649755
21.9550,25.59277527
21.9600,25.57910697
21.9650,25.56548263
21.9700,25.55197702
21.9750,25.53828045
21.9800,25.5243509
21.9850,25.51007397
21.9900,25.49568164
21.9950,25.48107348
22.0000,25.46631302
22.0050,25.45132668
22.0100,25.43612371
22.0150,25.42066786
22.0200,25.40475806
22.0250,25.38832608
22.0300,25.3715284
22.0350,25.35420189
22.0400,25.33646881
22.0450,25.31832666
22.0500,25.29964961
22.0550,25.28053702
22.0600,25.26085204
22.0650,25.24088739
22.0700,25.22047798
22.0750,25.1995857
22.0800,25.17820366
22.0850,25.15621414
22.0900,25.13371637
22.0950,25.11079499
22.1000,25.08761756
22.1050,25.06408753
22.1100,25.04020863
22.1150,25.01566962
22.1200,24.99045502
22.1250,24.96460112
22.1300,24.93812812
22.1350,24.91133183
22.1400,24.88423742
22.1450,24.85692183
22.1500,24.82926597
22.1550,24.801132
22.1600,24.77264277
22.1650,24.74367564
22.1700,24.71435403
22.1750,24.68461283
22.1800,24.65441556
22.1850,24.62362481
22.1900,24.59240446
22.1950,24.56101827
22.2000,24.52930295
22.2050,24.49751235
22.2100,24.4655449
22.2150,24.43346015
22.2200,24.40122447
22.2250,24.36867469
22.2300,24.3359765
22.2350,24.30294587
22.2400,24.26969061
22.2450,24.23609722
22.2500,24.20216499
22.2550,24.16791668
22.2600,24.13324956
22.2650,24.09819958
22.2700,24.06266471
22.2750,24.02674226
22.2800,23.99044028
22.2850,23.95374173
22.2900,23.9165587
22.2950,23.87905544
22.3000,23.84103093
22.3050,23.80245741
22.3100,23.76336119
22.3150,23.7237186
22.3200,23.68356544
22.3250,23.64304202
22.3300,23.60219664
22.3350,23.56117976
22.3400,23.51993387
22.3450,23.47849026
22.3500,23.43698467
22.3550,23.39522995
22.3600,23.35326659
22.3650,23.31079333
22.3700,23.26799334
22.3750,23.22482039
22.3800,23.18136795
22.3850,23.13755048
22.3900,23.09345715
22.3950,23.04885975
22.4000,23.00386979
22.4050,22.95846312
22.4100,22.91255618
22.4150,22.86615831
22.4200,22.81922829
22.4250,22.77175696
22.4300,22.72386107
22.4350,22.67546882
22.4400,22.62666895
22.4450,22.57730396
22.4500,22.52741144
22.4550,22.47708382
22.4600,22.42632788
22.4650,22.37513952
22.4700,22.32355125
22.4750,22.27165402
22.4800,22.21948303
22.4850,22.16723765
22.4900,22.1147073
22.4950,22.0620328
22.5000,22.00930406
22.5050,21.95647242
22.5100,21.90355545
22.5150,21.85049652
22.5200,21.79719104
22.5250,21.7440608
22.5300,21.6910102
22.5350,21.63811345
22.5400,21.58509151
22.5450,21.53215645
22.5500,21.47929959
22.5550,21.42652401
22.5600,21.37357679
22.5650,21.32035036
22.5700,21.26689491
22.5750,21.2131762
22.5800,21.15906237
22.5850,21.10454826
22.5900,21.04963111
22.5950,20.99431265
22.6000,20.93878783
22.6050,20.88308248
22.6100,20.82709302
22.6150,20.7708716
22.6200,20.71469362
22.6250,20.65837723
22.6300,20.60184872
22.6350,20.54499651
22.6400,20.48789184
22.6450,20.43053883
22.6500,20.37286746
22.6550,20.31504945
22.6600,20.25685201
22.6650,20.1986024
22.6700,20.14004571
22.6750,20.08121541
22.6800,20.02207014
22.6850,19.96254695
22.6900,19.90262361
22.6950,19.84230527
22.7000,19.78167476
22.7050,19.72053756
22.7100,19.65903473
22.7150,19.5969788
22.7200,19.53447387
22.7250,19.47146447
22.7300,19.40793887
22.7350,19.34387988
22.7400,19.27920917
22.7450,19.2140641
22.7500,19.14861754
22.7550,19.08279209
22.7600,19.01626058
22.7650,18.94936675
22.7700,18.88187803
22.7750,18.81373965
22.7800,18.74495188
22.7850,18.67550169
22.7900,18.60548336
22.7950,18.53472471
22.8000,18.4633197
22.8050,18.39127277
22.8100,18.31886991
22.8150,18.246199
22.8200,18.17350591
22.8250,18.10072698
22.8300,18.02793655
22.8350,17.95538756
22.8400,17.88317438
22.8450,17.81136898
22.8500,17.73999961
22.8550,17.66904695
22.8600,17.5987936
22.8650,17.5292504
22.8700,17.46061158
22.8750,17.39282018
22.8800,17.32583831
22.8850,17.25975976
22.8900,17.19443741
22.8950,17.12969905
22.9000,17.06562768
22.9050,17.00196946
22.9100,16.93880551
22.9150,16.87609676
22.9200,16.81378915
22.9250,16.75196685
22.9300,16.69066887
22.9350,16.62995542
22.9400,16.56973544
22.9450,16.51000303
22.9500,16.45067001
22.9550,16.39159082
22.9600,16.33286745
22.9650,16.27427012
22.9700,16.21578208
22.9750,16.15727027
22.9800,16.09870644
22.9850,16.0400983
22.9900,15.98130066
22.9950,15.92236554
23.0000,15.86299504
23.0050,15.8031525
23.0100,15.74282417
23.0150,15.6822717
23.0200,15.62132557
23.0250,15.56018414
23.0300,15.4987639
23.0350,15.43712627
23.0400,15.37535782
23.0450,15.31335149
23.0500,15.25120639
23.0550,15.18895987
23.0600,15.12680529
23.0650,15.06479236
23.0700,15.0030294
23.0750,14.94165481
23.0800,14.88076062
23.0850,14.82008015
23.0900,14.75975247
23.0950,14.69974807
23.1000,14.64005477
23.1050,14.58056722
23.1100,14.52106417
23.1150,14.46144939
23.1200,14.40152909
23.1250,14.34122584
23.1300,14.28052753
23.1350,14.21942945
23.1400,14.15771742
23.1450,14.09547545
23.1500,14.03245546
23.1550,13.96890219
23.1600,13.90462686
23.1650,13.83981755
23.1700,13.77426611
23.1750,13.70804888
23.1800,13.64140918
23.1850,13.57449407
23.1900,13.50723943
23.1950,13.43980511
23.2000,13.37193675
23.2050,13.30378244
23.2100,13.2356108
23.2150,13.16730041
23.2200,13.09896333
23.2250,13.03076237
23.2300,12.96265749
23.2350,12.89479414
23.2400,12.82724907
23.2450,12.76007006
23.2500,12.69339536
23.2550,12.62728588
23.2600,12.56195793
23.2650,12.49748395
23.2700,12.43390658
23.2750,12.37148444
23.2800,12.31015804
23.2850,12.25008516
23.2900,12.19124298
23.2950,12.13346864
23.3000,12.07704444
23.3050,12.02204049
23.3100,11.96837298
23.3150,11.91589131
23.3200,11.86461692
23.3250,11.81444765
23.3300,11.7653535
23.3350,11.71724226
23.3400,11.67005829
23.3450,11.62356769
23.3500,11.57774421
23.3550,11.53262444
23.3600,11.48820962
23.3650,11.44438017
23.3700,11.40109427
23.3750,11.35842096
23.3800,11.31616253
23.3850,11.27451148
23.3900,11.23350903
23.3950,11.19303292
23.4000,11.15320124
23.4050,11.11398244
23.4100,11.07554035
23.4150,11.03787627
23.4200,11.00115705
23.4250,10.96538729
23.4300,10.93074716
23.4350,10.89725732
23.4400,10.86492188
23.4450,10.8335845
23.4500,10.80342247
23.4550,10.77425065
23.4600,10.74630325
23.4650,10.71932678
23.4700,10.69333156
23.4750,10.66837826
23.4800,10.64422744
23.4850,10.62083362
23.4900,10.59824567
23.4950,10.57642279
23.5000,10.55562382
23.5050,10.53577861
23.5100,10.51679735
23.5150,10.49869356
23.5200,10.48133107
23.5250,10.46468268
23.5300,10.44872514
23.5350,10.43346218
23.5400,10.41890202
23.5450,10.40505273
23.5500,10.39175269
23.5550,10.3791325
23.5600,10.36708419
23.5650,10.35569494
23.5700,10.34481617
23.5750,10.33444589
23.5800,10.32435777
23.5850,10.3145495
23.5900,10.30506767
23.5950,10.29591471
23.6000,10.28697677
23.6050,10.27829596
23.6100,10.26979839
23.6150,10.2615263
23.6200,10.25335536
23.6250,10.24522361
23.6300,10.23720944
23.6350,10.22917103
23.6400,10.22105792
23.6450,10.21299378
23.6500,10.20467573
23.6550,10.19610147
23.6600,10.18739522
23.6650,10.17840644
23.6700,10.1692254
23.6750,10.1594489
23.6800,10.14912162
23.6850,10.13833647
23.6900,10.12696971
23.6950,10.11495572
23.7000,10.10214661
23.7050,10.08866474
23.7100,10.07434156
23.7150,10.05935355
23.7200,10.04367707
23.7250,10.02737966
23.7300,10.01037955
23.7350,9.992690301
23.7400,9.974533306
23.7450,9.955962884
23.7500,9.936909353
23.7550,9.917546303
23.7600,9.897857554
23.7650,9.877900007
23.7700,9.857918735
23.7750,9.837869509
23.7800,9.817923477
23.7850,9.798104257
23.7900,9.778380127
23.7950,9.758882335
23.8000,9.739520347
23.8050,9.720415214
23.8100,9.701373063
23.8150,9.682542249
23.8200,9.663857179
23.8250,9.64521012
23.8300,9.626668032
23.8350,9.608102318
23.8400,9.589560982
23.8450,9.570950772
23.8500,9.55238643
23.8550,9.533655388
23.8600,9.5147485
23.8650,9.495409611
23.8700,9.475839987
23.8750,9.455905188
23.8800,9.435568026
23.8850,9.414813676
23.8900,9.393388741
23.8950,9.371362889
23.9000,9.348752995
23.9050,9.325498787
23.9100,9.301506536
23.9150,9.276704981
23.9200,9.251082197
23.9250,9.224667825
23.9300,9.197318545
23.9350,9.169176469
23.9400,9.140216553
23.9450,9.110298873
23.9500,9.07949337
23.9550,9.047778902
23.9600,9.015102271
23.9650,8.981532243
23.9700,8.946879429
23.9750,8.911551731
23.9800,8.875639168
23.9850,8.839028569
23.9900,8.801912897
23.9950,8.764605699
24.0000,8.726971404
24.0050,8.689213345
24.0100,8.651321704
24.0150,8.613240539
24.0200,8.575042874
24.0250,8.53686793
24.0300,8.498780585
24.0350,8.460935191
24.0400,8.42329991
24.0450,8.385934237
24.0500,8.34891987
24.0550,8.312197468
24.0600,8.275772144
24.0650,8.239733123
24.0700,8.203781945
24.0750,8.167868867
24.0800,8.132013075
24.0850,8.095994395
24.0900,8.059990619
24.0950,8.023892691
24.1000,7.987719932
24.1050,7.951519264
24.1100,7.915272347
24.1150,7.878929923
24.1200,7.842578928
24.1250,7.806217355
24.1300,7.769633558
24.1350,7.732931522
24.1400,7.695941825
24.1450,7.658592036
24.1500,7.620925549
24.1550,7.5828599
24.1600,7.544198021
24.1650,7.505052584
24.1700,7.465314455
24.1750,7.424992963
24.1800,7.383998543
24.1850,7.342293289
24.1900,7.299898911
24.1950,7.256665886
24.2000,7.212477829
24.2050,7.167271264
24.2100,7.121070932
24.2150,7.073680982
24.2200,7.025438239
24.2250,6.976174931
24.2300,6.926084536
24.2350,6.875040093
24.2400,6.823097231
24.2450,6.770575564
24.2500,6.717708383
24.2550,6.664369551
24.2600,6.610663821
24.2650,6.556665725
24.2700,6.502463944
24.2750,6.448016154
24.2800,6.393307894
24.2850,6.338305281
24.2900,6.282944375
24.2950,6.227258781
24.3000,6.171413271
24.3050,6.115515343
24.3100,6.059779182
24.3150,6.004338921
24.3200,5.949031531
24.3250,5.894047293
24.3300,5.839333128
24.3350,5.78492744
24.3400,5.730845795
24.3450,5.677094794
24.3500,5.623811275
24.3550,5.570920661
24.3600,5.518534896
24.3650,5.466570644
24.3700,5.415232116
24.3750,5.364778069
24.3800,5.315065893
24.3850,5.266245883
24.3900,5.218094073
24.3950,5.170761623
24.4000,5.124197711
24.4050,5.078198569
24.4100,5.03289357
24.4150,4.988235002
24.4200,4.944125172
24.4250,4.900475328
24.4300,4.857561709
24.4350,4.815192365
24.4400,4.773547343
24.4450,4.732733258
24.4500,4.692801135
24.4550,4.653835088
24.4600,4.615855137
24.4650,4.579127037
24.4700,4.543565859
24.4750,4.509172675
24.4800,4.476052482
24.4850,4.443939556
24.4900,4.412924935
24.4950,4.382999299
24.5000,4.354237293
24.5050,4.326497784
24.5100,4.299816089
24.5150,4.274411658
24.5200,4.250103866
24.5250,4.226968684
24.5300,4.204995372
24.5350,4.184412595
24.5400,4.165133832
24.5450,4.147263005
24.5500,4.130785752
24.5550,4.115773255
24.5600,4.102324854
24.5650,4.090569385
24.5700,4.08049822
24.5750,4.072099596
24.5800,4.065408149
24.5850,4.060394167
24.5900,4.057242747
24.5950,4.055776295
24.6000,4.05602178
24.6050,4.057667144
24.6100,4.060588145
24.6150,4.064581248
24.6200,4.06972592
24.6250,4.075761095
24.6300,4.082599964
24.6350,4.089898649
24.6400,4.09763531
24.6450,4.105798217
24.6500,4.11434854
24.6550,4.123134433
24.6600,4.132194584
24.6650,4.141515996
24.6700,4.151082167
24.6750,4.160623064
24.6800,4.170220499
24.6850,4.179891423
24.6900,4.189616476
24.6950,4.199293514
24.7000,4.208880682
24.7050,4.218435924
24.7100,4.227973424
24.7150,4.237340242
24.7200,4.246628727
24.7250,4.255976427
24.7300,4.26502049
24.7350,4.274044664
24.7400,4.282833949
24.7450,4.291428168
24.7500,4.299647443
24.7550,4.307424753
24.7600,4.31493757
24.7650,4.321959268
24.7700,4.328533129
24.7750,4.334652463
24.7800,4.340481996
24.7850,4.34613588
24.7900,4.351612021
24.7950,4.356900368
24.8000,4.361948764
24.8050,4.366952769
24.8100,4.371789232
24.8150,4.376433118
24.8200,4.380966683
24.8250,4.385293392
24.8300,4.389311949
24.8350,4.392908083
24.8400,4.396153383
24.8450,4.399112469
24.8500,4.401714798
24.8550,4.40406628
24.8600,4.406106018
24.8650,4.407789862
24.8700,4.409334252
24.8750,4.410638831
24.8800,4.411950253
24.8850,4.413427554
24.8900,4.414971678
24.8950,4.416578547
24.9000,4.418267102
24.9050,4.420035218
24.9100,4.421857667
24.9150,4.423912327
24.9200,4.42614677
24.9250,4.428513108
24.9300,4.431176874
24.9350,4.434189153
24.9400,4.437431625
24.9450,4.440935832
24.9500,4.444662698
24.9550,4.448634277
24.9600,4.452526969
24.9650,4.456460352
24.9700,4.460073114
24.9750,4.463484714
24.9800,4.466589331
24.9850,4.469147157
24.9900,4.471289331
24.9950,4.472833091
25.0000,4.473669109
25.0050,4.473807928
25.0100,4.473122809
25.0150,4.471670296
25.0200,4.46910602
25.0250,4.465427357
25.0300,4.460764887
25.0350,4.454829182
25.0400,4.44773351
25.0450,4.439550844
25.0500,4.430297456
25.0550,4.420193333
25.0600,4.409107804
25.0650,4.397088652
25.0700,4.384057641
25.0750,4.370177382
25.0800,4.355353738
25.0850,4.339591291
25.0900,4.323019032
25.0950,4.305703964
25.1000,4.287572846
25.1050,4.268613944
25.1100,4.248923146
25.1150,4.228695406
25.1200,4.207674612
25.1250,4.186020697
25.1300,4.163766953
25.1350,4.141038991
25.1400,4.11797269
25.1450,4.094517911
25.1500,4.070749065
25.1550,4.04680585
25.1600,4.022818268
25.1650,3.998869601
25.1700,3.974982351
25.1750,3.951254325
25.1800,3.927622038
25.1850,3.904203357
25.1900,3.880950637
25.1950,3.857884023
25.2000,3.83517946
25.2050,3.812874042
25.2100,3.791189611
25.2150,3.769814092
25.2200,3.748950808
25.2250,3.728651939
25.2300,3.708763544
25.2350,3.689576364
25.2400,3.671058952
25.2450,3.653131869
25.2500,3.635712827
25.2550,3.619046971
25.2600,3.603158566
25.2650,3.58796327
25.2700,3.573666287
25.2750,3.56022304
25.2800,3.547805333
25.2850,3.536388877
25.2900,3.525807754
25.2950,3.516109606
25.3000,3.507302493
25.3050,3.499185338
25.3100,3.491634954
25.3150,3.48452055
25.3200,3.477806345
25.3250,3.47130244
25.3300,3.464894749
25.3350,3.458724299
25.3400,3.452506433
25.3450,3.446158448
25.3500,3.439730185
25.3550,3.433223191
25.3600,3.426591187
25.3650,3.420019062
25.3700,3.413513668
25.3750,3.407233011
25.3800,3.401324654
25.3850,3.395894852
25.3900,3.391053626
25.3950,3.387124817
25.4000,3.383149852
25.4050,3.379256987
25.4100,3.375574206
25.4150,3.372225712
25.4200,3.369327458
25.4250,3.36698264
25.4300,3.36527861
25.4350,3.36428523
25.4400,3.364053173
25.4450,3.364611769
25.4500,3.365967418
25.4550,3.368103003
25.4600,3.370978243
25.4650,3.374530764
25.4700,3.378677148
25.4750,3.383313682
25.4800,3.388317657
25.4850,3.393550169
25.4900,3.398860149
25.4950,3.404088871
25.5000,3.409075648
25.5050,3.413665746
25.5100,3.417719805
25.5150,3.421123699
25.5200,3.423798947
25.5250,3.425714796
25.5300,3.426903037
25.5350,3.427475016
