type,name,time_units,begin_time,frequency,count,units
signal_3d,"Noraxon MyoMotion-Segments-Forearm RT-Sensor Acceleration","s",0.0000,200,5108,"mG"

time,x,y,z
0.0000,-977.0507813,172.3632813,107.421875
0.0050,-968.75,175.78125,115.234375
0.0100,-980.9570313,170.8984375,120.6054688
0.0150,-975.0976563,167.96875,121.09375
0.0200,-977.5390625,162.109375,112.3046875
0.0250,-971.1914063,169.921875,122.5585938
0.0300,-979.0039063,165.0390625,101.0742188
0.0350,-977.0507813,170.4101563,110.3515625
0.0400,-980.9570313,174.3164063,120.6054688
0.0450,-978.0273438,165.0390625,121.09375
0.0500,-979.9804688,178.2226563,119.6289063
0.0550,-975.5859375,171.3867188,107.9101563
0.0600,-971.6796875,180.6640625,113.28125
0.0650,-979.9804688,167.4804688,112.7929688
0.0700,-972.1679688,177.2460938,105.46875
0.0750,-972.65625,178.7109375,103.515625
0.0800,-973.6328125,172.3632813,106.9335938
0.0850,-965.8203125,181.640625,109.8632813
0.0900,-979.4921875,167.4804688,112.7929688
0.0950,-976.0742188,161.6210938,105.9570313
0.1000,-974.1210938,162.5976563,103.0273438
0.1050,-977.5390625,159.1796875,99.12109375
0.1100,-972.1679688,169.921875,114.2578125
0.1150,-967.2851563,173.3398438,118.1640625
0.1200,-976.5625,168.4570313,106.9335938
0.1250,-974.609375,174.3164063,102.5390625
0.1300,-973.1445313,175.78125,123.5351563
0.1350,-970.703125,173.3398438,118.6523438
0.1400,-977.5390625,174.8046875,122.0703125
0.1450,-966.3085938,177.2460938,125
0.1500,-972.65625,177.2460938,128.4179688
0.1550,-972.1679688,170.8984375,104.0039063
0.1600,-973.1445313,170.8984375,121.09375
0.1650,-967.2851563,169.4335938,108.3984375
0.1700,-973.6328125,168.9453125,111.328125
0.1750,-977.5390625,166.5039063,106.9335938
0.1800,-964.84375,188.9648438,115.7226563
0.1850,-969.7265625,177.734375,114.7460938
0.1900,-973.1445313,176.2695313,108.8867188
0.1950,-967.2851563,177.734375,117.6757813
0.2000,-968.75,179.6875,110.3515625
0.2050,-974.1210938,170.8984375,115.234375
0.2100,-980.46875,166.9921875,126.953125
0.2150,-961.4257813,174.8046875,106.9335938
0.2200,-968.75,176.2695313,116.6992188
0.2250,-969.2382813,171.875,116.2109375
0.2300,-966.3085938,171.875,110.8398438
0.2350,-964.84375,174.8046875,113.7695313
0.2400,-971.1914063,171.875,121.09375
0.2450,-974.609375,174.8046875,114.2578125
0.2500,-970.2148438,177.734375,114.7460938
0.2550,-970.703125,182.1289063,125.4882813
0.2600,-976.0742188,173.3398438,114.2578125
0.2650,-975.0976563,170.4101563,118.6523438
0.2700,-970.703125,169.4335938,111.8164063
0.2750,-978.515625,167.96875,112.3046875
0.2800,-973.6328125,172.8515625,113.7695313
0.2850,-969.7265625,168.9453125,104.9804688
0.2900,-974.1210938,173.828125,125
0.2950,-980.9570313,169.921875,108.8867188
0.3000,-977.5390625,176.2695313,115.7226563
0.3050,-981.4453125,172.8515625,121.5820313
0.3100,-981.4453125,177.734375,120.1171875
0.3150,-974.1210938,178.2226563,120.1171875
0.3200,-973.6328125,180.6640625,118.1640625
0.3250,-976.0742188,174.8046875,116.2109375
0.3300,-977.5390625,171.3867188,119.140625
0.3350,-969.2382813,171.875,111.8164063
0.3400,-971.6796875,166.5039063,124.5117188
0.3450,-975.0976563,166.015625,97.65625
0.3500,-968.2617188,171.3867188,122.0703125
0.3550,-970.703125,166.5039063,114.2578125
0.3600,-970.2148438,164.0625,116.2109375
0.3650,-965.3320313,166.9921875,115.234375
0.3700,-962.4023438,168.9453125,113.7695313
0.3750,-964.3554688,170.4101563,113.28125
0.3800,-966.796875,175.2929688,113.28125
0.3850,-958.4960938,182.1289063,118.6523438
0.3900,-965.8203125,181.640625,105.9570313
0.3950,-963.8671875,189.453125,110.3515625
0.4000,-977.5390625,183.1054688,123.046875
0.4050,-979.9804688,186.0351563,111.8164063
0.4100,-986.328125,184.5703125,126.953125
0.4150,-980.46875,183.59375,124.5117188
0.4200,-986.8164063,188.9648438,129.8828125
0.4250,-975.0976563,189.9414063,119.6289063
0.4300,-980.9570313,182.1289063,131.3476563
0.4350,-978.0273438,175.2929688,120.1171875
0.4400,-976.0742188,174.8046875,114.2578125
0.4450,-975.0976563,170.8984375,108.8867188
0.4500,-967.7734375,182.1289063,113.28125
0.4550,-972.1679688,176.2695313,112.3046875
0.4600,-961.9140625,185.0585938,113.28125
0.4650,-969.2382813,179.1992188,111.328125
0.4700,-972.65625,176.2695313,113.7695313
0.4750,-971.1914063,173.3398438,109.375
0.4800,-969.7265625,181.640625,117.1875
0.4850,-977.5390625,173.828125,123.046875
0.4900,-974.1210938,182.6171875,115.234375
0.4950,-977.0507813,172.3632813,118.6523438
0.5000,-967.7734375,175.2929688,119.6289063
0.5050,-969.7265625,171.3867188,109.8632813
0.5100,-962.890625,180.1757813,112.7929688
0.5150,-969.7265625,173.828125,107.421875
0.5200,-963.8671875,182.6171875,102.5390625
0.5250,-975.0976563,173.3398438,99.609375
0.5300,-977.0507813,170.8984375,108.8867188
0.5350,-978.515625,166.9921875,107.421875
0.5400,-986.328125,169.921875,104.9804688
0.5450,-981.4453125,184.0820313,106.4453125
0.5500,-987.3046875,178.7109375,109.375
0.5550,-978.515625,190.9179688,114.7460938
0.5600,-981.9335938,183.59375,111.8164063
0.5650,-980.9570313,191.8945313,107.421875
0.5700,-973.1445313,193.359375,105.9570313
0.5750,-979.4921875,186.5234375,106.4453125
0.5800,-981.9335938,178.2226563,119.140625
0.5850,-982.9101563,171.875,110.8398438
0.5900,-975.0976563,176.2695313,112.7929688
0.5950,-973.6328125,173.3398438,104.0039063
0.6000,-977.0507813,172.8515625,113.28125
0.6050,-974.609375,171.3867188,93.75
0.6100,-975.5859375,169.921875,99.609375
0.6150,-966.3085938,179.6875,101.0742188
0.6200,-973.1445313,173.828125,108.8867188
0.6250,-971.1914063,176.2695313,104.0039063
0.6300,-973.6328125,179.6875,104.4921875
0.6350,-974.609375,177.734375,112.7929688
0.6400,-975.0976563,180.6640625,105.9570313
0.6450,-968.2617188,189.9414063,115.234375
0.6500,-980.9570313,180.6640625,108.3984375
0.6550,-976.0742188,184.5703125,109.375
0.6600,-972.65625,183.1054688,112.7929688
0.6650,-979.9804688,182.1289063,118.6523438
0.6700,-982.9101563,176.2695313,108.8867188
0.6750,-979.4921875,175.78125,110.3515625
0.6800,-973.1445313,178.7109375,121.5820313
0.6850,-972.65625,172.3632813,97.16796875
0.6900,-966.3085938,181.640625,113.7695313
0.6950,-978.515625,168.9453125,90.8203125
0.7000,-979.9804688,180.1757813,100.0976563
0.7050,-972.1679688,191.8945313,108.8867188
0.7100,-986.8164063,187.0117188,104.4921875
0.7150,-976.0742188,201.6601563,104.0039063
0.7200,-977.0507813,198.2421875,121.09375
0.7250,-972.1679688,193.8476563,104.4921875
0.7300,-977.5390625,199.21875,114.2578125
0.7350,-980.46875,185.0585938,111.328125
0.7400,-978.0273438,191.8945313,118.1640625
0.7450,-982.9101563,176.7578125,103.515625
0.7500,-979.0039063,183.59375,110.8398438
0.7550,-979.0039063,180.6640625,110.3515625
0.7600,-979.0039063,181.1523438,107.9101563
0.7650,-978.0273438,185.0585938,117.6757813
0.7700,-983.8867188,176.2695313,114.2578125
0.7750,-973.1445313,185.546875,112.3046875
0.7800,-979.9804688,186.0351563,106.9335938
0.7850,-973.1445313,189.9414063,113.7695313
0.7900,-978.515625,183.59375,117.1875
0.7950,-977.0507813,179.1992188,113.28125
0.8000,-973.1445313,187.9882813,108.3984375
0.8050,-991.2109375,179.6875,106.4453125
0.8100,-970.703125,194.8242188,116.2109375
0.8150,-972.65625,189.9414063,110.8398438
0.8200,-973.1445313,192.8710938,105.9570313
0.8250,-979.4921875,184.0820313,111.328125
0.8300,-973.6328125,185.0585938,110.3515625
0.8350,-975.5859375,170.8984375,113.28125
0.8400,-976.5625,171.875,103.515625
0.8450,-976.0742188,173.828125,107.421875
0.8500,-970.2148438,186.5234375,113.7695313
0.8550,-977.0507813,178.2226563,104.9804688
0.8600,-975.5859375,184.5703125,110.8398438
0.8650,-979.0039063,181.640625,121.5820313
0.8700,-975.5859375,190.4296875,106.4453125
0.8750,-976.5625,182.1289063,117.1875
0.8800,-974.1210938,176.7578125,117.1875
0.8850,-974.609375,180.6640625,104.4921875
0.8900,-975.5859375,174.8046875,104.4921875
0.8950,-977.5390625,174.3164063,109.375
0.9000,-978.515625,173.828125,109.8632813
0.9050,-979.4921875,175.2929688,104.4921875
0.9100,-978.0273438,182.6171875,99.12109375
0.9150,-974.1210938,189.9414063,105.9570313
0.9200,-978.0273438,185.0585938,107.421875
0.9250,-980.46875,188.9648438,104.0039063
0.9300,-974.1210938,192.8710938,104.4921875
0.9350,-982.9101563,182.6171875,98.14453125
0.9400,-976.0742188,191.8945313,104.0039063
0.9450,-973.6328125,186.0351563,113.7695313
0.9500,-977.0507813,188.9648438,102.0507813
0.9550,-979.0039063,184.5703125,111.328125
0.9600,-978.0273438,187.0117188,114.7460938
0.9650,-978.515625,181.1523438,107.9101563
0.9700,-988.7695313,172.8515625,115.234375
0.9750,-977.5390625,177.2460938,110.3515625
0.9800,-982.421875,180.6640625,115.7226563
0.9850,-992.6757813,173.828125,108.8867188
0.9900,-978.0273438,184.0820313,109.8632813
0.9950,-980.46875,180.6640625,102.0507813
1.0000,-979.0039063,185.0585938,105.9570313
1.0050,-970.703125,190.9179688,100.0976563
1.0100,-982.421875,193.359375,101.5625
1.0150,-973.6328125,197.265625,103.515625
1.0200,-980.9570313,191.8945313,98.14453125
1.0250,-985.8398438,183.59375,100.5859375
1.0300,-982.421875,186.0351563,104.4921875
1.0350,-977.0507813,180.6640625,103.515625
1.0400,-976.5625,170.8984375,105.9570313
1.0450,-983.8867188,158.6914063,109.8632813
1.0500,-977.0507813,165.5273438,100.5859375
1.0550,-978.515625,165.5273438,111.8164063
1.0600,-983.3984375,172.3632813,101.0742188
1.0650,-982.421875,174.3164063,108.3984375
1.0700,-977.5390625,178.2226563,104.9804688
1.0750,-968.75,183.59375,105.46875
1.0800,-977.5390625,181.640625,109.8632813
1.0850,-978.0273438,178.2226563,100.0976563
1.0900,-974.1210938,180.6640625,113.7695313
1.0950,-974.1210938,178.7109375,115.7226563
1.1000,-974.1210938,175.2929688,106.4453125
1.1050,-976.5625,179.1992188,110.8398438
1.1100,-970.703125,186.5234375,94.23828125
1.1150,-979.4921875,186.0351563,95.703125
1.1200,-976.5625,190.4296875,107.9101563
1.1250,-978.0273438,190.9179688,110.3515625
1.1300,-972.65625,192.3828125,105.46875
1.1350,-979.9804688,177.734375,97.65625
1.1400,-982.421875,182.6171875,105.46875
1.1450,-979.9804688,181.640625,103.515625
1.1500,-969.2382813,185.0585938,102.0507813
1.1550,-978.0273438,179.1992188,109.8632813
1.1600,-974.1210938,186.0351563,110.8398438
1.1650,-982.421875,183.1054688,107.421875
1.1700,-981.9335938,181.640625,103.0273438
1.1750,-980.46875,182.1289063,110.3515625
1.1800,-972.1679688,183.1054688,106.4453125
1.1850,-968.75,188.9648438,103.0273438
1.1900,-980.46875,194.8242188,95.703125
1.1950,-986.328125,192.8710938,100.0976563
1.2000,-982.421875,198.7304688,97.65625
1.2050,-984.8632813,194.8242188,90.8203125
1.2100,-983.8867188,192.8710938,93.26171875
1.2150,-978.515625,189.453125,85.9375
1.2200,-986.328125,176.2695313,85.44921875
1.2250,-994.6289063,165.0390625,96.6796875
1.2300,-982.9101563,176.2695313,75.68359375
1.2350,-979.9804688,177.734375,96.19140625
1.2400,-975.5859375,182.1289063,94.7265625
1.2450,-967.7734375,188.9648438,108.3984375
1.2500,-961.9140625,200.1953125,99.609375
1.2550,-975.5859375,186.0351563,105.46875
1.2600,-982.9101563,185.546875,100.0976563
1.2650,-991.6992188,186.5234375,99.609375
1.2700,-991.6992188,191.8945313,108.3984375
1.2750,-982.9101563,199.7070313,95.21484375
1.2800,-982.421875,212.890625,99.609375
1.2850,-981.9335938,216.796875,100.0976563
1.2900,-979.4921875,226.5625,104.0039063
1.2950,-971.6796875,234.375,86.9140625
1.3000,-966.796875,257.8125,94.7265625
1.3050,-970.703125,260.2539063,86.9140625
1.3100,-961.9140625,272.4609375,93.26171875
1.3150,-958.984375,271.484375,87.890625
1.3200,-959.4726563,273.9257813,85.44921875
1.3250,-964.3554688,274.4140625,83.49609375
1.3300,-955.5664063,277.8320313,96.19140625
1.3350,-939.453125,274.4140625,90.8203125
1.3400,-935.0585938,263.671875,78.61328125
1.3450,-941.8945313,242.1875,87.40234375
1.3500,-945.8007813,243.1640625,91.30859375
1.3550,-959.9609375,230.9570313,83.984375
1.3600,-974.1210938,232.421875,112.3046875
1.3650,-978.515625,220.2148438,100.0976563
1.3700,-983.8867188,206.5429688,117.1875
1.3750,-987.7929688,204.1015625,110.8398438
1.3800,-980.9570313,219.7265625,113.7695313
1.3850,-970.703125,234.375,119.140625
1.3900,-964.84375,257.8125,103.0273438
1.3950,-952.6367188,278.3203125,112.3046875
1.4000,-950.6835938,288.5742188,99.12109375
1.4050,-945.3125,292.96875,94.7265625
1.4100,-954.1015625,292.4804688,100.0976563
1.4150,-954.1015625,299.3164063,86.42578125
1.4200,-954.1015625,305.6640625,75.68359375
1.4250,-946.2890625,309.5703125,85.44921875
1.4300,-952.6367188,309.0820313,83.49609375
1.4350,-958.984375,308.1054688,71.2890625
1.4400,-960.9375,326.6601563,74.21875
1.4450,-973.6328125,315.9179688,91.30859375
1.4500,-980.46875,317.8710938,96.6796875
1.4550,-980.9570313,318.359375,100.5859375
1.4600,-988.28125,312.5,125.9765625
1.4650,-986.328125,296.3867188,117.6757813
1.4700,-998.5351563,269.0429688,130.859375
1.4750,-1004.394531,254.8828125,129.8828125
1.4800,-1005.371094,261.71875,125
1.4850,-1001.953125,277.8320313,123.5351563
1.4900,-997.5585938,293.4570313,158.6914063
1.4950,-982.9101563,317.8710938,134.2773438
1.5000,-977.5390625,329.5898438,143.0664063
1.5050,-961.4257813,340.8203125,139.6484375
1.5100,-963.8671875,349.1210938,141.6015625
1.5150,-948.7304688,363.7695313,115.7226563
1.5200,-941.40625,370.6054688,107.9101563
1.5250,-934.5703125,370.6054688,102.0507813
1.5300,-929.1992188,374.5117188,93.26171875
1.5350,-935.0585938,373.046875,96.6796875
1.5400,-928.2226563,379.3945313,97.16796875
1.5450,-931.1523438,380.3710938,82.51953125
1.5500,-928.2226563,390.625,92.7734375
1.5550,-931.1523438,398.9257813,112.7929688
1.5600,-928.2226563,411.6210938,108.8867188
1.5650,-945.3125,402.8320313,106.9335938
1.5700,-945.3125,414.5507813,119.140625
1.5750,-946.2890625,418.9453125,117.6757813
1.5800,-941.40625,427.2460938,126.4648438
1.5850,-945.8007813,428.2226563,130.859375
1.5900,-945.8007813,439.453125,128.90625
1.5950,-948.2421875,436.0351563,131.8359375
1.6000,-935.0585938,449.7070313,110.3515625
1.6050,-929.6875,467.2851563,113.7695313
1.6100,-921.875,491.6992188,121.09375
1.6150,-922.3632813,510.2539063,113.28125
1.6200,-915.5273438,520.0195313,98.6328125
1.6250,-922.3632813,516.6015625,102.5390625
1.6300,-917.96875,520.5078125,107.421875
1.6350,-921.3867188,513.1835938,97.65625
1.6400,-912.5976563,516.1132813,99.12109375
1.6450,-910.6445313,502.9296875,99.609375
1.6500,-909.1796875,508.7890625,89.84375
1.6550,-903.3203125,514.1601563,95.21484375
1.6600,-908.6914063,513.1835938,109.375
1.6650,-898.9257813,529.7851563,106.9335938
1.6700,-901.8554688,541.015625,105.9570313
1.6750,-908.203125,532.2265625,106.4453125
1.6800,-893.5546875,544.4335938,117.6757813
1.6850,-891.6015625,543.4570313,107.9101563
1.6900,-880.859375,552.2460938,120.6054688
1.6950,-881.3476563,553.2226563,114.2578125
1.7000,-888.671875,554.6875,120.1171875
1.7050,-884.2773438,558.1054688,116.2109375
1.7100,-877.9296875,567.3828125,126.953125
1.7150,-875,564.453125,117.1875
1.7200,-870.6054688,572.7539063,114.2578125
1.7250,-863.7695313,578.6132813,122.5585938
1.7300,-856.4453125,579.1015625,124.0234375
1.7350,-854.4921875,572.7539063,131.3476563
1.7400,-844.7265625,581.0546875,116.2109375
1.7450,-849.1210938,583.4960938,114.2578125
1.7500,-845.703125,595.703125,124.5117188
1.7550,-843.75,593.2617188,115.234375
1.7600,-843.2617188,599.609375,125
1.7650,-838.8671875,607.9101563,116.2109375
1.7700,-843.2617188,598.1445313,118.6523438
1.7750,-841.796875,595.2148438,117.6757813
1.7800,-821.2890625,600.0976563,114.2578125
1.7850,-814.9414063,610.8398438,106.4453125
1.7900,-813.9648438,627.9296875,91.796875
1.7950,-812.5,638.671875,99.12109375
1.8000,-804.1992188,657.7148438,114.2578125
1.8050,-815.4296875,653.3203125,112.7929688
1.8100,-802.734375,661.1328125,114.2578125
1.8150,-799.3164063,652.34375,113.28125
1.8200,-798.828125,645.9960938,104.0039063
1.8250,-798.3398438,641.1132813,106.4453125
1.8300,-791.015625,645.0195313,128.90625
1.8350,-787.109375,640.1367188,88.8671875
1.8400,-783.6914063,638.1835938,97.65625
1.8450,-779.296875,644.53125,110.8398438
1.8500,-776.8554688,662.109375,95.21484375
1.8550,-765.1367188,679.1992188,117.1875
1.8600,-760.2539063,693.359375,104.4921875
1.8650,-756.3476563,704.5898438,118.1640625
1.8700,-753.4179688,721.1914063,122.5585938
1.8750,-751.4648438,714.3554688,117.6757813
1.8800,-748.5351563,711.9140625,117.6757813
1.8850,-736.8164063,711.4257813,119.140625
1.8900,-732.421875,717.2851563,117.1875
1.8950,-739.7460938,710.4492188,123.5351563
1.9000,-729.4921875,715.8203125,128.90625
1.9050,-727.0507813,712.4023438,127.9296875
1.9100,-717.2851563,712.4023438,115.7226563
1.9150,-704.5898438,708.4960938,111.8164063
1.9200,-693.359375,720.2148438,113.28125
1.9250,-685.0585938,733.3984375,101.0742188
1.9300,-681.1523438,749.0234375,113.28125
1.9350,-675.2929688,754.8828125,119.6289063
1.9400,-671.3867188,768.5546875,115.234375
1.9450,-670.8984375,778.3203125,112.7929688
1.9500,-660.15625,781.25,120.1171875
1.9550,-661.6210938,783.203125,117.6757813
1.9600,-657.2265625,778.8085938,114.2578125
1.9650,-651.3671875,769.53125,113.28125
1.9700,-643.0664063,763.671875,110.8398438
1.9750,-630.859375,776.3671875,109.375
1.9800,-634.765625,785.15625,121.09375
1.9850,-631.3476563,791.9921875,124.0234375
1.9900,-630.859375,790.5273438,129.8828125
1.9950,-621.5820313,795.4101563,129.8828125
2.0000,-609.375,792.4804688,125
2.0050,-592.2851563,800.78125,129.3945313
2.0100,-590.3320313,792.4804688,131.3476563
2.0150,-588.8671875,791.5039063,122.5585938
2.0200,-585.4492188,796.875,118.6523438
2.0250,-570.8007813,809.5703125,115.7226563
2.0300,-570.8007813,812.9882813,122.0703125
2.0350,-560.0585938,834.9609375,123.5351563
2.0400,-552.2460938,839.3554688,124.5117188
2.0450,-549.3164063,845.2148438,130.859375
2.0500,-542.4804688,844.2382813,134.2773438
2.0550,-536.1328125,845.2148438,124.5117188
2.0600,-536.6210938,840.8203125,136.71875
2.0650,-527.34375,838.8671875,138.1835938
2.0700,-527.34375,837.890625,143.0664063
2.0750,-517.578125,839.84375,135.7421875
2.0800,-506.8359375,856.9335938,137.6953125
2.0850,-500.9765625,868.6523438,144.0429688
2.0900,-501.4648438,880.3710938,143.0664063
2.0950,-499.5117188,879.3945313,150.8789063
2.1000,-489.2578125,882.3242188,146.9726563
2.1050,-482.9101563,870.6054688,138.1835938
2.1100,-472.1679688,874.0234375,157.2265625
2.1150,-471.6796875,880.859375,146.484375
2.1200,-471.6796875,884.2773438,143.5546875
2.1250,-462.890625,887.6953125,151.3671875
2.1300,-455.5664063,891.1132813,150.390625
2.1350,-444.3359375,886.71875,141.6015625
2.1400,-438.9648438,891.1132813,156.25
2.1450,-431.1523438,895.5078125,145.9960938
2.1500,-419.4335938,902.34375,144.53125
2.1550,-421.3867188,909.6679688,153.8085938
2.1600,-427.2460938,921.3867188,160.15625
2.1650,-415.0390625,929.1992188,164.0625
2.1700,-415.0390625,921.875,158.203125
2.1750,-398.4375,920.4101563,159.1796875
2.1800,-400.8789063,916.015625,145.5078125
2.1850,-403.3203125,910.6445313,153.3203125
2.1900,-391.1132813,911.1328125,156.25
2.1950,-383.3007813,915.5273438,144.0429688
2.2000,-374.0234375,928.2226563,142.0898438
2.2050,-368.6523438,937.9882813,134.765625
2.2100,-362.7929688,939.9414063,152.34375
2.2150,-347.1679688,950.1953125,154.296875
2.2200,-346.6796875,943.359375,148.4375
2.2250,-333.0078125,955.078125,157.2265625
2.2300,-327.6367188,958.0078125,155.7617188
2.2350,-312.0117188,979.0039063,163.0859375
2.2400,-311.5234375,989.2578125,176.2695313
2.2450,-301.2695313,985.8398438,160.15625
2.2500,-306.1523438,977.0507813,173.828125
2.2550,-298.3398438,970.2148438,162.5976563
2.2600,-293.9453125,962.890625,162.5976563
2.2650,-296.3867188,948.7304688,167.4804688
2.2700,-289.0625,942.8710938,160.6445313
2.2750,-278.3203125,927.734375,156.25
2.2800,-273.4375,925.2929688,158.6914063
2.2850,-257.3242188,954.1015625,147.9492188
2.2900,-252.4414063,981.9335938,156.25
2.2950,-242.1875,990.234375,165.5273438
2.3000,-234.8632813,990.234375,162.109375
2.3050,-214.84375,991.6992188,162.5976563
2.3100,-216.3085938,979.4921875,181.640625
2.3150,-214.84375,967.2851563,190.9179688
2.3200,-208.4960938,969.7265625,172.3632813
2.3250,-202.6367188,979.0039063,183.1054688
2.3300,-202.6367188,968.75,182.6171875
2.3350,-194.8242188,973.6328125,175.2929688
2.3400,-174.3164063,977.5390625,180.1757813
2.3450,-168.9453125,967.2851563,171.875
2.3500,-159.6679688,968.2617188,177.2460938
2.3550,-159.6679688,983.3984375,176.2695313
2.3600,-162.109375,985.3515625,174.8046875
2.3650,-155.7617188,983.3984375,193.8476563
2.3700,-135.2539063,996.5820313,199.21875
2.3750,-132.3242188,989.7460938,192.3828125
2.3800,-136.71875,999.5117188,182.6171875
2.3850,-125.4882813,1007.8125,192.3828125
2.3900,-122.5585938,1007.8125,201.171875
2.3950,-117.6757813,1000,196.2890625
2.4000,-111.328125,1000.976563,190.9179688
2.4050,-112.7929688,995.1171875,199.21875
2.4100,-114.7460938,990.7226563,202.1484375
2.4150,-100.5859375,989.2578125,192.8710938
2.4200,-81.0546875,984.375,201.171875
2.4250,-78.125,982.421875,199.21875
2.4300,-83.49609375,978.0273438,205.078125
2.4350,-79.58984375,999.0234375,188.9648438
2.4400,-71.2890625,1016.113281,212.4023438
2.4450,-61.03515625,1016.113281,210.4492188
2.4500,-55.17578125,988.7695313,201.171875
2.4550,-39.55078125,965.8203125,182.6171875
2.4600,-27.83203125,965.8203125,187.9882813
2.4650,-30.76171875,969.2382813,197.265625
2.4700,-30.2734375,995.1171875,193.359375
2.4750,-16.11328125,1000.488281,207.5195313
2.4800,-9.27734375,990.234375,210.9375
2.4850,-7.8125,978.515625,216.796875
2.4900,7.8125,979.0039063,210.4492188
2.4950,17.08984375,969.2382813,212.4023438
2.5000,11.23046875,967.2851563,214.84375
2.5050,14.16015625,980.46875,204.5898438
2.5100,21.484375,995.1171875,220.703125
2.5150,40.52734375,992.6757813,208.0078125
2.5200,46.38671875,972.1679688,218.75
2.5250,55.6640625,961.9140625,223.6328125
2.5300,54.19921875,960.9375,222.65625
2.5350,59.5703125,966.796875,225.5859375
2.5400,71.2890625,981.9335938,224.1210938
2.5450,72.75390625,975.5859375,233.8867188
2.5500,86.42578125,972.65625,230.9570313
2.5550,90.33203125,966.3085938,230.46875
2.5600,98.6328125,966.3085938,221.1914063
2.5650,98.14453125,972.65625,227.0507813
2.5700,99.609375,974.1210938,223.1445313
2.5750,107.421875,968.75,235.3515625
2.5800,100.0976563,944.8242188,224.1210938
2.5850,109.375,933.1054688,218.2617188
2.5900,128.90625,931.640625,209.4726563
2.5950,137.2070313,937.9882813,214.84375
2.6000,135.7421875,941.8945313,214.3554688
2.6050,138.671875,940.9179688,222.1679688
2.6100,148.4375,939.453125,222.1679688
2.6150,152.34375,921.875,241.2109375
2.6200,155.7617188,922.3632813,235.8398438
2.6250,165.5273438,937.9882813,225.5859375
2.6300,172.3632813,949.21875,237.7929688
2.6350,179.1992188,953.125,250
2.6400,184.0820313,950.6835938,247.0703125
2.6450,188.4765625,939.9414063,238.28125
2.6500,191.8945313,938.4765625,251.4648438
2.6550,192.8710938,935.0585938,239.2578125
2.6600,196.7773438,930.1757813,241.6992188
2.6650,201.171875,923.828125,238.28125
2.6700,206.5429688,917.96875,241.6992188
2.6750,207.5195313,918.4570313,231.4453125
2.6800,223.6328125,936.5234375,245.6054688
2.6850,217.2851563,926.2695313,240.234375
2.6900,223.1445313,920.4101563,241.2109375
2.6950,237.3046875,924.3164063,239.7460938
2.7000,235.8398438,918.4570313,250.4882813
2.7050,244.6289063,916.015625,258.7890625
2.7100,245.1171875,914.5507813,251.4648438
2.7150,255.3710938,921.875,250.9765625
2.7200,258.7890625,907.7148438,265.625
2.7250,272.9492188,903.3203125,258.7890625
2.7300,279.7851563,904.296875,259.765625
2.7350,281.7382813,891.1132813,252.9296875
2.7400,291.015625,879.8828125,264.1601563
2.7450,308.1054688,874.0234375,254.3945313
2.7500,308.1054688,861.328125,273.4375
2.7550,316.8945313,867.1875,262.2070313
2.7600,308.59375,880.859375,256.8359375
2.7650,315.9179688,908.6914063,263.1835938
2.7700,323.7304688,912.5976563,272.9492188
2.7750,335.9375,899.4140625,277.8320313
2.7800,335.9375,875.9765625,275.8789063
2.7850,336.4257813,866.2109375,264.1601563
2.7900,349.1210938,881.8359375,269.53125
2.7950,344.2382813,892.0898438,255.859375
2.8000,346.6796875,902.8320313,274.9023438
2.8050,352.5390625,894.53125,265.625
2.8100,363.7695313,904.296875,267.0898438
2.8150,366.6992188,903.8085938,262.2070313
2.8200,367.1875,900.8789063,278.3203125
2.8250,371.09375,879.3945313,281.7382813
2.8300,377.9296875,846.6796875,281.7382813
2.8350,389.6484375,818.8476563,257.8125
2.8400,394.0429688,821.2890625,263.1835938
2.8450,413.0859375,833.984375,253.90625
2.8500,415.5273438,848.1445313,260.7421875
2.8550,421.3867188,854.9804688,255.3710938
2.8600,422.3632813,873.046875,261.71875
2.8650,427.2460938,878.90625,277.34375
2.8700,418.4570313,866.6992188,286.1328125
2.8750,429.1992188,862.7929688,291.015625
2.8800,422.8515625,842.7734375,274.9023438
2.8850,431.640625,837.890625,289.0625
2.8900,423.828125,825.6835938,277.34375
2.8950,443.359375,833.0078125,279.296875
2.9000,453.125,827.6367188,279.296875
2.9050,457.03125,806.640625,279.7851563
2.9100,463.3789063,802.2460938,278.3203125
2.9150,478.515625,810.0585938,264.1601563
2.9200,477.5390625,819.8242188,273.9257813
2.9250,476.5625,833.4960938,276.3671875
2.9300,471.6796875,827.6367188,291.5039063
2.9350,484.375,815.9179688,281.25
2.9400,487.3046875,791.9921875,283.6914063
2.9450,495.6054688,793.4570313,285.6445313
2.9500,491.2109375,799.3164063,275.8789063
2.9550,482.9101563,793.4570313,279.7851563
2.9600,499.5117188,799.3164063,288.0859375
2.9650,503.90625,789.0625,279.7851563
2.9700,515.625,793.9453125,285.6445313
2.9750,521.9726563,799.8046875,281.7382813
2.9800,517.0898438,790.5273438,286.1328125
2.9850,523.9257813,797.8515625,293.4570313
2.9900,529.296875,801.2695313,291.015625
2.9950,520.9960938,784.6679688,296.875
3.0000,521.484375,780.2734375,283.6914063
3.0050,524.9023438,768.0664063,286.6210938
3.0100,528.3203125,772.4609375,287.5976563
3.0150,525.8789063,762.6953125,297.8515625
3.0200,528.3203125,754.8828125,284.1796875
3.0250,535.6445313,747.5585938,294.921875
3.0300,542.4804688,745.6054688,275.8789063
3.0350,548.3398438,743.6523438,291.9921875
3.0400,565.4296875,749.5117188,277.34375
3.0450,579.1015625,765.1367188,269.0429688
3.0500,587.890625,786.1328125,280.7617188
3.0550,574.7070313,767.0898438,291.9921875
3.0600,571.2890625,754.8828125,295.8984375
3.0650,564.453125,737.3046875,295.4101563
3.0700,565.9179688,744.140625,289.5507813
3.0750,567.3828125,740.234375,290.0390625
3.0800,570.8007813,748.046875,291.5039063
3.0850,583.0078125,736.8164063,297.8515625
3.0900,571.2890625,724.609375,277.8320313
3.0950,576.6601563,725.0976563,282.2265625
3.1000,580.078125,714.3554688,279.296875
3.1050,585.4492188,694.3359375,273.9257813
3.1100,583.0078125,678.7109375,276.3671875
3.1150,588.3789063,696.2890625,264.6484375
3.1200,589.3554688,704.1015625,268.5546875
3.1250,600.5859375,698.7304688,266.6015625
3.1300,607.421875,678.2226563,281.25
3.1350,608.8867188,658.6914063,283.203125
3.1400,610.3515625,660.6445313,263.1835938
3.1450,619.6289063,666.5039063,288.5742188
3.1500,617.1875,653.3203125,289.0625
3.1550,622.0703125,650.390625,280.2734375
3.1600,624.5117188,650.8789063,284.6679688
3.1650,625.4882813,657.7148438,279.7851563
3.1700,629.3945313,659.1796875,292.96875
3.1750,644.0429688,666.5039063,302.2460938
3.1800,643.5546875,663.5742188,311.0351563
3.1850,646.9726563,658.203125,306.1523438
3.1900,642.0898438,648.9257813,288.5742188
3.1950,648.9257813,644.0429688,290.0390625
3.2000,654.296875,645.5078125,293.4570313
3.2050,659.6679688,653.3203125,306.640625
3.2100,659.1796875,652.34375,297.8515625
3.2150,669.4335938,667.4804688,302.2460938
3.2200,666.9921875,681.1523438,308.1054688
3.2250,680.1757813,687.5,315.4296875
3.2300,677.2460938,668.4570313,320.8007813
3.2350,679.6875,644.0429688,312.0117188
3.2400,669.921875,626.4648438,314.453125
3.2450,679.6875,631.8359375,304.6875
3.2500,681.640625,624.0234375,305.1757813
3.2550,681.640625,613.7695313,298.3398438
3.2600,692.3828125,621.09375,305.6640625
3.2650,703.125,614.2578125,297.8515625
3.2700,698.7304688,606.9335938,294.921875
3.2750,710.9375,604.9804688,291.5039063
3.2800,717.7734375,604.4921875,294.4335938
3.2850,724.1210938,602.5390625,277.8320313
3.2900,726.0742188,611.328125,297.8515625
3.2950,726.0742188,627.9296875,299.8046875
3.3000,712.4023438,621.09375,313.4765625
3.3050,711.4257813,619.140625,313.4765625
3.3100,716.3085938,620.6054688,303.7109375
3.3150,723.6328125,634.2773438,299.3164063
3.3200,722.65625,635.2539063,289.0625
3.3250,716.3085938,623.046875,287.109375
3.3300,726.0742188,613.7695313,300.2929688
3.3350,731.9335938,593.2617188,286.6210938
3.3400,727.0507813,582.03125,265.1367188
3.3450,730.46875,590.8203125,275.8789063
3.3500,726.5625,597.65625,278.8085938
3.3550,736.328125,595.2148438,276.8554688
3.3600,734.8632813,591.796875,286.1328125
3.3650,733.8867188,590.3320313,278.3203125
3.3700,732.9101563,594.2382813,292.96875
3.3750,730.9570313,568.8476563,291.9921875
3.3800,734.375,568.8476563,281.25
3.3850,743.1640625,556.1523438,286.6210938
3.3900,739.2578125,547.3632813,267.0898438
3.3950,754.8828125,583.984375,260.7421875
3.4000,741.6992188,560.0585938,300.2929688
3.4050,754.8828125,565.4296875,286.6210938
3.4100,750,547.3632813,280.7617188
3.4150,756.3476563,548.828125,278.8085938
3.4200,756.3476563,555.1757813,276.3671875
3.4250,750.9765625,561.0351563,276.3671875
3.4300,754.8828125,576.171875,270.5078125
3.4350,758.3007813,568.359375,282.7148438
3.4400,767.578125,556.1523438,293.9453125
3.4450,767.578125,539.5507813,289.0625
3.4500,773.9257813,551.2695313,287.109375
3.4550,773.4375,563.4765625,292.96875
3.4600,775.8789063,567.3828125,296.3867188
3.4650,779.296875,561.0351563,313.9648438
3.4700,777.34375,549.3164063,303.7109375
3.4750,799.8046875,551.7578125,298.828125
3.4800,795.4101563,537.5976563,310.0585938
3.4850,789.5507813,531.7382813,306.1523438
3.4900,796.875,539.5507813,315.9179688
3.4950,797.3632813,544.921875,304.6875
3.5000,800.2929688,541.015625,307.6171875
3.5050,818.359375,531.25,315.4296875
3.5100,811.0351563,498.046875,313.9648438
3.5150,815.4296875,493.6523438,300.78125
3.5200,824.7070313,528.8085938,284.1796875
3.5250,818.359375,511.71875,328.6132813
3.5300,824.7070313,516.6015625,308.59375
3.5350,826.6601563,501.953125,321.7773438
3.5400,830.5664063,483.3984375,308.59375
3.5450,826.171875,476.5625,310.0585938
3.5500,803.7109375,473.1445313,296.3867188
3.5550,817.3828125,512.6953125,291.9921875
3.5600,829.5898438,526.8554688,300.2929688
3.5650,838.8671875,520.9960938,312.5
3.5700,840.8203125,493.6523438,302.734375
3.5750,843.75,459.4726563,290.5273438
3.5800,845.703125,461.9140625,293.4570313
3.5850,848.1445313,462.4023438,286.6210938
3.5900,840.3320313,476.5625,298.3398438
3.5950,841.3085938,492.1875,299.8046875
3.6000,847.1679688,476.0742188,303.2226563
3.6050,839.84375,459.9609375,312.0117188
3.6100,847.65625,458.4960938,300.2929688
3.6150,846.6796875,464.84375,288.5742188
3.6200,848.6328125,456.0546875,305.6640625
3.6250,853.0273438,467.2851563,290.5273438
3.6300,845.2148438,447.265625,291.5039063
3.6350,839.84375,431.640625,295.4101563
3.6400,847.65625,430.6640625,294.921875
3.6450,867.1875,445.8007813,282.7148438
3.6500,858.3984375,433.1054688,291.015625
3.6550,871.5820313,431.1523438,280.7617188
3.6600,865.7226563,414.0625,287.5976563
3.6650,865.7226563,435.546875,273.9257813
3.6700,857.9101563,430.1757813,280.2734375
3.6750,847.1679688,428.7109375,285.6445313
3.6800,842.2851563,433.59375,277.34375
3.6850,864.7460938,449.21875,283.203125
3.6900,861.8164063,426.2695313,288.0859375
3.6950,871.5820313,398.4375,300.2929688
3.7000,866.2109375,382.3242188,291.5039063
3.7050,862.3046875,385.2539063,271.484375
3.7100,862.7929688,418.9453125,278.3203125
3.7150,875,437.9882813,275.390625
3.7200,871.09375,437.0117188,296.3867188
3.7250,856.4453125,436.5234375,279.7851563
3.7300,857.421875,444.8242188,291.9921875
3.7350,855.46875,436.0351563,291.5039063
3.7400,870.6054688,426.7578125,287.5976563
3.7450,875.9765625,410.15625,264.1601563
3.7500,881.3476563,407.2265625,257.3242188
3.7550,901.3671875,413.0859375,265.625
3.7600,887.2070313,390.625,273.9257813
3.7650,908.203125,395.5078125,270.5078125
3.7700,910.15625,398.4375,278.8085938
3.7750,905.7617188,376.4648438,291.015625
3.7800,912.5976563,392.0898438,288.5742188
3.7850,902.8320313,393.0664063,288.5742188
3.7900,912.5976563,403.3203125,322.7539063
3.7950,917.4804688,365.234375,313.4765625
3.8000,916.9921875,305.6640625,305.6640625
3.8050,932.6171875,321.7773438,301.7578125
3.8100,925.78125,341.3085938,318.8476563
3.8150,927.734375,330.078125,348.6328125
3.8200,917.4804688,330.078125,357.9101563
3.8250,918.9453125,347.65625,344.7265625
3.8300,912.109375,380.859375,346.1914063
3.8350,897.4609375,380.3710938,364.2578125
3.8400,887.6953125,354.9804688,361.8164063
3.8450,885.7421875,311.5234375,341.796875
3.8500,893.5546875,308.1054688,323.2421875
3.8550,902.34375,325.6835938,325.6835938
3.8600,898.9257813,328.125,331.0546875
3.8650,895.9960938,319.8242188,328.6132813
3.8700,894.53125,299.3164063,307.6171875
3.8750,896.484375,312.0117188,312.0117188
3.8800,889.1601563,312.5,320.8007813
3.8850,895.5078125,290.0390625,322.7539063
3.8900,889.6484375,260.7421875,326.6601563
3.8950,894.53125,272.9492188,294.4335938
3.9000,894.0429688,323.7304688,316.8945313
3.9050,881.3476563,338.3789063,314.9414063
3.9100,870.1171875,299.3164063,313.4765625
3.9150,872.5585938,259.2773438,286.6210938
3.9200,865.7226563,253.4179688,269.53125
3.9250,860.3515625,260.2539063,270.0195313
3.9300,876.4648438,277.34375,244.6289063
3.9350,884.2773438,275.8789063,234.375
3.9400,883.3007813,282.2265625,231.9335938
3.9450,869.6289063,291.5039063,228.0273438
3.9500,873.046875,316.8945313,233.3984375
3.9550,881.3476563,314.453125,234.8632813
3.9600,874.5117188,271.9726563,237.7929688
3.9650,877.4414063,260.2539063,208.4960938
3.9700,859.375,256.8359375,231.4453125
3.9750,871.09375,258.7890625,234.375
3.9800,887.6953125,236.8164063,231.9335938
3.9850,907.2265625,226.0742188,232.421875
3.9900,890.1367188,230.9570313,230.9570313
3.9950,872.5585938,239.2578125,245.1171875
4.0000,880.859375,264.6484375,253.4179688
4.0050,868.6523438,255.3710938,269.0429688
4.0100,866.2109375,256.8359375,269.0429688
4.0150,866.2109375,252.4414063,248.5351563
4.0200,870.1171875,252.4414063,266.6015625
4.0250,867.1875,220.2148438,260.7421875
4.0300,867.1875,223.1445313,237.7929688
4.0350,868.6523438,235.3515625,242.1875
4.0400,872.5585938,251.953125,246.5820313
4.0450,878.4179688,267.0898438,259.765625
4.0500,882.8125,252.4414063,266.1132813
4.0550,900.8789063,238.7695313,260.7421875
4.0600,882.8125,205.5664063,257.8125
4.0650,895.5078125,191.40625,261.71875
4.0700,909.1796875,233.8867188,252.4414063
4.0750,906.7382813,239.7460938,287.5976563
4.0800,910.6445313,225.5859375,281.25
4.0850,900.390625,203.125,273.9257813
4.0900,906.7382813,234.375,263.671875
4.0950,907.7148438,239.7460938,291.015625
4.1000,904.296875,226.5625,279.7851563
4.1050,907.2265625,228.515625,278.8085938
4.1100,905.7617188,249.0234375,289.0625
4.1150,919.921875,239.7460938,270.9960938
4.1200,916.5039063,227.5390625,284.6679688
4.1250,921.3867188,233.3984375,270.5078125
4.1300,912.5976563,235.8398438,277.34375
4.1350,906.25,225.5859375,268.0664063
4.1400,911.6210938,233.8867188,269.53125
4.1450,918.4570313,265.1367188,265.625
4.1500,917.4804688,277.8320313,273.4375
4.1550,908.203125,247.0703125,284.1796875
4.1600,912.109375,209.4726563,263.1835938
4.1650,924.8046875,204.5898438,258.7890625
4.1700,934.0820313,211.4257813,264.6484375
4.1750,931.640625,214.84375,271.484375
4.1800,930.1757813,209.9609375,286.6210938
4.1850,941.8945313,220.2148438,279.296875
4.1900,930.6640625,232.421875,283.6914063
4.1950,917.96875,237.7929688,273.4375
4.2000,923.828125,249.5117188,288.0859375
4.2050,923.3398438,237.3046875,280.2734375
4.2100,935.0585938,236.8164063,276.3671875
4.2150,938.9648438,233.8867188,271.484375
4.2200,935.546875,243.6523438,276.3671875
4.2250,935.546875,241.6992188,267.578125
4.2300,934.5703125,236.8164063,264.6484375
4.2350,937.9882813,244.6289063,260.2539063
4.2400,927.2460938,254.3945313,269.53125
4.2450,920.8984375,246.09375,253.90625
4.2500,924.8046875,233.8867188,258.3007813
4.2550,935.0585938,242.1875,261.71875
4.2600,940.9179688,238.28125,262.6953125
4.2650,936.5234375,217.7734375,265.625
4.2700,934.5703125,224.609375,271.484375
4.2750,937.5,238.7695313,255.859375
4.2800,939.9414063,246.5820313,280.2734375
4.2850,938.9648438,235.8398438,267.0898438
4.2900,944.3359375,229.4921875,261.2304688
4.2950,940.9179688,222.65625,260.7421875
4.3000,942.3828125,224.1210938,258.3007813
4.3050,939.9414063,246.09375,263.671875
4.3100,931.640625,254.8828125,263.671875
4.3150,927.2460938,246.09375,284.1796875
4.3200,927.2460938,231.4453125,270.0195313
4.3250,930.6640625,237.7929688,269.0429688
4.3300,928.7109375,253.4179688,271.9726563
4.3350,926.7578125,261.2304688,270.0195313
4.3400,917.96875,244.6289063,284.1796875
4.3450,925.2929688,240.234375,272.4609375
4.3500,922.3632813,237.3046875,266.1132813
4.3550,925.78125,246.5820313,259.2773438
4.3600,926.7578125,250.4882813,272.9492188
4.3650,926.7578125,249.5117188,266.6015625
4.3700,933.1054688,248.5351563,258.3007813
4.3750,930.6640625,236.328125,262.2070313
4.3800,921.3867188,232.421875,248.5351563
4.3850,937.0117188,243.6523438,261.2304688
4.3900,930.1757813,238.7695313,252.9296875
4.3950,932.6171875,252.9296875,264.6484375
4.4000,918.9453125,267.0898438,259.765625
4.4050,915.5273438,258.7890625,261.71875
4.4100,926.7578125,260.2539063,275.8789063
4.4150,915.5273438,235.3515625,260.2539063
4.4200,917.4804688,232.9101563,257.3242188
4.4250,921.875,244.6289063,256.3476563
4.4300,930.6640625,250.4882813,269.53125
4.4350,929.1992188,252.4414063,256.3476563
4.4400,917.4804688,263.1835938,246.5820313
4.4450,926.7578125,276.8554688,263.671875
4.4500,923.3398438,274.4140625,260.7421875
4.4550,924.8046875,269.53125,258.3007813
4.4600,922.3632813,270.0195313,259.2773438
4.4650,932.6171875,280.7617188,275.8789063
4.4700,929.6875,274.9023438,261.2304688
4.4750,934.5703125,262.6953125,269.0429688
4.4800,935.0585938,256.3476563,263.1835938
4.4850,938.9648438,257.8125,271.9726563
4.4900,934.5703125,274.9023438,275.8789063
4.4950,934.0820313,279.7851563,274.9023438
4.5000,931.1523438,278.3203125,284.1796875
4.5050,931.640625,262.6953125,273.9257813
4.5100,929.6875,260.7421875,276.3671875
4.5150,936.0351563,269.53125,264.1601563
4.5200,936.5234375,280.7617188,271.484375
4.5250,925.78125,277.8320313,272.4609375
4.5300,920.8984375,286.6210938,257.3242188
4.5350,925.2929688,286.1328125,269.0429688
4.5400,926.7578125,289.5507813,262.2070313
4.5450,931.640625,278.3203125,268.5546875
4.5500,922.3632813,266.1132813,262.2070313
4.5550,920.8984375,273.9257813,264.6484375
4.5600,921.875,277.8320313,269.0429688
4.5650,917.4804688,280.7617188,277.34375
4.5700,916.5039063,283.203125,272.9492188
4.5750,916.9921875,289.0625,270.0195313
4.5800,914.0625,281.25,283.203125
4.5850,915.5273438,271.9726563,263.1835938
4.5900,920.4101563,270.5078125,278.8085938
4.5950,916.5039063,274.4140625,262.6953125
4.6000,904.296875,276.3671875,266.6015625
4.6050,906.7382813,281.7382813,261.71875
4.6100,906.7382813,296.3867188,264.6484375
4.6150,902.8320313,296.3867188,258.7890625
4.6200,901.8554688,304.1992188,271.9726563
4.6250,898.9257813,294.4335938,270.0195313
4.6300,897.4609375,289.0625,264.6484375
4.6350,898.9257813,282.7148438,265.625
4.6400,904.296875,296.875,267.0898438
4.6450,903.3203125,299.8046875,265.1367188
4.6500,900.8789063,295.4101563,281.25
4.6550,895.0195313,283.203125,255.3710938
4.6600,893.0664063,290.0390625,266.1132813
4.6650,897.9492188,300.2929688,247.0703125
4.6700,903.3203125,297.8515625,267.0898438
4.6750,908.203125,297.3632813,259.2773438
4.6800,899.9023438,300.2929688,252.9296875
4.6850,902.34375,321.7773438,251.953125
4.6900,897.9492188,330.5664063,252.4414063
4.6950,895.9960938,337.890625,263.671875
4.7000,900.390625,334.4726563,265.1367188
4.7050,896.484375,314.9414063,269.53125
4.7100,890.1367188,297.3632813,253.90625
4.7150,900.390625,299.8046875,255.3710938
4.7200,898.9257813,303.2226563,253.90625
4.7250,897.4609375,301.7578125,258.7890625
4.7300,912.109375,310.0585938,249.5117188
4.7350,912.109375,303.7109375,251.953125
4.7400,912.109375,308.1054688,254.8828125
4.7450,908.203125,302.2460938,248.5351563
4.7500,902.34375,308.59375,259.2773438
4.7550,910.6445313,319.3359375,252.4414063
4.7600,912.109375,328.125,264.1601563
4.7650,904.296875,328.6132813,280.7617188
4.7700,894.53125,322.265625,270.0195313
4.7750,904.7851563,319.8242188,271.484375
4.7800,903.8085938,307.6171875,291.015625
4.7850,913.0859375,303.2226563,290.0390625
4.7900,905.7617188,300.2929688,279.296875
4.7950,906.25,310.546875,269.0429688
4.8000,912.109375,327.6367188,279.296875
4.8050,910.15625,325.6835938,270.5078125
4.8100,912.109375,318.359375,280.2734375
4.8150,905.7617188,318.8476563,271.9726563
4.8200,905.2734375,334.4726563,277.8320313
4.8250,902.34375,340.3320313,263.671875
4.8300,911.1328125,351.0742188,275.390625
4.8350,907.2265625,333.4960938,276.8554688
4.8400,904.7851563,319.3359375,276.8554688
4.8450,910.15625,322.7539063,277.8320313
4.8500,912.5976563,334.9609375,271.9726563
4.8550,907.2265625,325.6835938,278.8085938
4.8600,905.2734375,322.265625,277.34375
4.8650,902.34375,314.453125,270.9960938
4.8700,914.5507813,319.8242188,269.53125
4.8750,914.0625,326.6601563,258.3007813
4.8800,893.5546875,326.171875,270.5078125
4.8850,895.5078125,336.9140625,274.4140625
4.8900,896.484375,334.9609375,268.0664063
4.8950,903.8085938,345.2148438,262.2070313
4.9000,897.4609375,339.3554688,262.2070313
4.9050,895.5078125,335.4492188,270.9960938
4.9100,907.7148438,335.4492188,260.7421875
4.9150,911.1328125,341.3085938,253.4179688
4.9200,910.15625,335.4492188,266.1132813
4.9250,907.7148438,330.5664063,259.765625
4.9300,907.7148438,317.3828125,255.859375
4.9350,918.9453125,325.6835938,271.9726563
4.9400,915.0390625,335.9375,248.5351563
4.9450,912.5976563,345.2148438,257.8125
4.9500,903.8085938,337.890625,259.765625
4.9550,902.34375,339.3554688,268.5546875
4.9600,904.7851563,343.2617188,258.7890625
4.9650,902.8320313,339.3554688,256.3476563
4.9700,906.25,343.75,262.6953125
4.9750,907.7148438,343.2617188,255.859375
4.9800,895.9960938,334.4726563,260.7421875
4.9850,895.0195313,336.4257813,250.4882813
4.9900,895.9960938,330.5664063,248.5351563
4.9950,896.9726563,334.9609375,250.4882813
5.0000,893.5546875,341.3085938,243.6523438
5.0050,892.0898438,341.3085938,262.6953125
5.0100,882.3242188,338.8671875,247.5585938
5.0150,887.2070313,347.65625,247.0703125
5.0200,888.671875,346.1914063,258.3007813
5.0250,886.2304688,334.9609375,252.9296875
5.0300,886.2304688,348.1445313,252.9296875
5.0350,888.671875,354.0039063,257.8125
5.0400,876.953125,353.515625,266.1132813
5.0450,870.6054688,338.3789063,266.6015625
5.0500,869.6289063,334.4726563,253.4179688
5.0550,876.4648438,333.0078125,257.8125
5.0600,884.2773438,340.3320313,243.1640625
5.0650,879.8828125,345.2148438,247.5585938
5.0700,866.2109375,342.7734375,253.4179688
5.0750,871.5820313,351.0742188,250
5.0800,863.7695313,351.5625,250.9765625
5.0850,860.3515625,348.6328125,254.8828125
5.0900,869.140625,354.0039063,264.1601563
5.0950,870.6054688,358.8867188,263.1835938
5.1000,871.09375,371.5820313,258.3007813
5.1050,860.3515625,369.140625,264.1601563
5.1100,849.1210938,358.3984375,257.8125
5.1150,845.703125,349.609375,260.7421875
5.1200,848.6328125,357.421875,250.4882813
5.1250,838.8671875,357.9101563,229.9804688
5.1300,842.7734375,369.140625,232.421875
5.1350,852.0507813,380.3710938,228.515625
5.1400,840.3320313,380.859375,242.1875
5.1450,840.3320313,395.9960938,247.0703125
5.1500,839.84375,391.6015625,249.5117188
5.1550,836.9140625,389.1601563,240.234375
5.1600,833.4960938,393.0664063,240.234375
5.1650,839.3554688,404.296875,245.6054688
5.1700,837.890625,406.7382813,247.5585938
5.1750,825.1953125,396.484375,245.1171875
5.1800,822.7539063,401.3671875,231.9335938
5.1850,828.6132813,412.109375,236.8164063
5.1900,818.8476563,407.2265625,238.28125
5.1950,813.9648438,401.8554688,237.3046875
5.2000,809.5703125,410.6445313,234.375
5.2050,820.3125,426.2695313,228.0273438
5.2100,831.5429688,456.5429688,228.0273438
5.2150,816.40625,445.8007813,214.3554688
5.2200,803.2226563,448.2421875,231.9335938
5.2250,812.0117188,453.125,223.6328125
5.2300,815.4296875,450.1953125,235.3515625
5.2350,820.8007813,448.2421875,230.46875
5.2400,817.8710938,447.7539063,236.8164063
5.2450,820.3125,460.9375,233.3984375
5.2500,802.2460938,461.9140625,236.328125
5.2550,801.7578125,464.3554688,239.2578125
5.2600,803.7109375,469.7265625,241.6992188
5.2650,799.3164063,457.03125,227.0507813
5.2700,802.2460938,456.5429688,229.0039063
5.2750,808.1054688,459.9609375,223.6328125
5.2800,805.1757813,464.3554688,230.46875
5.2850,806.1523438,467.7734375,229.0039063
5.2900,804.6875,478.515625,225.0976563
5.2950,806.640625,495.6054688,233.3984375
5.3000,809.5703125,525.390625,232.421875
5.3050,804.6875,538.5742188,247.5585938
5.3100,801.2695313,544.921875,244.140625
5.3150,787.5976563,535.15625,246.09375
5.3200,787.109375,532.7148438,248.046875
5.3250,790.5273438,537.109375,256.3476563
5.3300,778.3203125,538.5742188,258.3007813
5.3350,777.8320313,550.2929688,248.046875
5.3400,764.6484375,550.78125,246.09375
5.3450,764.1601563,561.0351563,237.7929688
5.3500,749.5117188,541.9921875,239.2578125
5.3550,759.765625,552.2460938,218.2617188
5.3600,754.3945313,563.4765625,228.0273438
5.3650,746.5820313,583.0078125,224.1210938
5.3700,740.7226563,605.9570313,238.7695313
5.3750,736.328125,615.7226563,240.234375
5.3800,729.0039063,617.6757813,241.6992188
5.3850,731.9335938,625.9765625,250.4882813
5.3900,724.1210938,622.5585938,243.1640625
5.3950,722.65625,621.5820313,249.5117188
5.4000,713.3789063,620.1171875,234.375
5.4050,720.2148438,625.9765625,246.5820313
5.4100,709.4726563,634.765625,244.6289063
5.4150,716.3085938,642.578125,251.4648438
5.4200,701.6601563,633.7890625,255.859375
5.4250,695.8007813,626.4648438,243.1640625
5.4300,691.8945313,621.5820313,252.4414063
5.4350,702.1484375,645.0195313,248.5351563
5.4400,691.8945313,653.8085938,243.6523438
5.4450,691.8945313,658.6914063,243.6523438
5.4500,690.4296875,662.109375,245.1171875
5.4550,707.5195313,676.2695313,246.5820313
5.4600,702.6367188,688.4765625,255.859375
5.4650,703.125,693.8476563,251.953125
5.4700,694.8242188,704.5898438,258.7890625
5.4750,700.6835938,704.1015625,271.484375
5.4800,696.2890625,693.359375,258.7890625
5.4850,697.265625,686.5234375,253.90625
5.4900,697.265625,691.8945313,259.765625
5.4950,684.0820313,690.9179688,242.6757813
5.5000,677.2460938,687.0117188,239.7460938
5.5050,672.8515625,687.5,234.8632813
5.5100,675.2929688,686.5234375,240.7226563
5.5150,677.2460938,689.9414063,241.2109375
5.5200,680.1757813,708.4960938,237.3046875
5.5250,666.015625,716.796875,236.328125
5.5300,660.6445313,734.375,242.6757813
5.5350,652.8320313,724.609375,254.3945313
5.5400,655.7617188,733.8867188,250.9765625
5.5450,654.7851563,742.1875,244.140625
5.5500,657.2265625,760.2539063,247.0703125
5.5550,651.3671875,756.8359375,256.8359375
5.5600,645.0195313,740.234375,255.3710938
5.5650,650.8789063,736.8164063,250
5.5700,649.9023438,733.3984375,253.4179688
5.5750,645.5078125,744.140625,238.28125
5.5800,628.90625,743.6523438,263.1835938
5.5850,620.6054688,726.0742188,259.2773438
5.5900,628.4179688,718.2617188,261.71875
5.5950,625.9765625,718.75,245.6054688
5.6000,630.3710938,749.0234375,255.3710938
5.6050,611.328125,763.671875,252.9296875
5.6100,598.1445313,781.7382813,260.2539063
5.6150,594.7265625,781.25,273.4375
5.6200,589.84375,769.53125,262.6953125
5.6250,597.65625,757.3242188,259.2773438
5.6300,599.609375,759.765625,265.625
5.6350,587.890625,754.8828125,253.4179688
5.6400,572.265625,774.9023438,263.1835938
5.6450,556.640625,772.9492188,268.0664063
5.6500,547.8515625,773.9257813,262.6953125
5.6550,548.828125,782.2265625,256.3476563
5.6600,555.1757813,800.2929688,267.578125
5.6650,547.8515625,810.546875,267.0898438
5.6700,532.2265625,812.5,275.8789063
5.6750,521.9726563,794.921875,268.0664063
5.6800,511.2304688,771.9726563,266.6015625
5.6850,531.25,774.4140625,254.8828125
5.6900,528.3203125,780.2734375,247.5585938
5.6950,526.3671875,784.6679688,258.7890625
5.7000,506.3476563,791.015625,255.3710938
5.7050,483.3984375,802.734375,245.1171875
5.7100,480.9570313,826.171875,249.0234375
5.7150,482.9101563,833.984375,253.90625
5.7200,472.1679688,810.0585938,260.7421875
5.7250,472.1679688,807.1289063,271.9726563
5.7300,474.609375,825.6835938,245.6054688
5.7350,469.2382813,844.2382813,247.0703125
5.7400,458.4960938,842.7734375,268.0664063
5.7450,452.6367188,826.171875,248.046875
5.7500,448.7304688,805.1757813,255.859375
5.7550,448.2421875,792.96875,251.4648438
5.7600,449.21875,807.1289063,249.0234375
5.7650,435.0585938,823.2421875,253.90625
5.7700,435.0585938,850.0976563,258.3007813
5.7750,429.6875,861.328125,270.9960938
5.7800,427.734375,875,271.9726563
5.7850,417.4804688,874.0234375,269.53125
5.7900,411.1328125,888.671875,275.390625
5.7950,395.9960938,888.1835938,270.0195313
5.8000,395.9960938,891.1132813,281.25
5.8050,403.3203125,883.7890625,282.7148438
5.8100,397.9492188,865.234375,281.25
5.8150,395.9960938,863.28125,255.859375
5.8200,395.5078125,883.7890625,234.8632813
5.8250,395.5078125,893.5546875,233.8867188
5.8300,376.953125,868.1640625,249.5117188
5.8350,375.9765625,857.421875,237.3046875
5.8400,383.7890625,867.1875,222.65625
5.8450,389.6484375,891.6015625,226.5625
5.8500,375,908.203125,222.1679688
5.8550,370.1171875,924.3164063,238.7695313
5.8600,378.90625,936.5234375,240.234375
5.8650,378.4179688,925.78125,235.8398438
5.8700,375.9765625,935.546875,230.46875
5.8750,373.046875,934.0820313,232.9101563
5.8800,363.28125,940.9179688,226.5625
5.8850,353.515625,959.4726563,225.0976563
5.8900,341.796875,973.6328125,229.9804688
5.8950,330.078125,965.3320313,223.6328125
5.9000,321.7773438,941.8945313,237.7929688
5.9050,328.125,916.5039063,226.0742188
5.9100,329.1015625,905.7617188,218.2617188
5.9150,322.265625,917.4804688,211.4257813
5.9200,317.3828125,937.9882813,222.65625
5.9250,297.3632813,945.3125,232.9101563
5.9300,293.4570313,936.5234375,243.6523438
5.9350,305.1757813,922.3632813,249.5117188
5.9400,307.1289063,907.2265625,234.8632813
5.9450,305.6640625,918.9453125,233.8867188
5.9500,300.2929688,935.0585938,240.7226563
5.9550,286.1328125,939.453125,254.3945313
5.9600,288.0859375,933.59375,257.8125
5.9650,284.6679688,920.8984375,253.4179688
5.9700,288.5742188,933.1054688,244.140625
5.9750,269.0429688,942.8710938,240.234375
5.9800,255.3710938,946.7773438,259.2773438
5.9850,252.9296875,937.5,268.5546875
5.9900,246.5820313,921.3867188,270.5078125
5.9950,257.3242188,919.921875,265.625
6.0000,247.0703125,949.7070313,257.8125
6.0050,237.7929688,969.7265625,263.1835938
6.0100,215.3320313,966.796875,276.3671875
6.0150,203.6132813,934.5703125,267.0898438
6.0200,210.4492188,905.2734375,252.4414063
6.0250,216.796875,904.7851563,258.3007813
6.0300,219.2382813,943.359375,229.0039063
6.0350,196.2890625,962.4023438,247.5585938
6.0400,181.1523438,971.6796875,269.0429688
6.0450,175.2929688,945.8007813,260.2539063
6.0500,198.2421875,942.3828125,250.4882813
6.0550,206.5429688,944.3359375,243.6523438
6.0600,188.4765625,938.4765625,256.3476563
6.0650,179.1992188,945.3125,259.765625
6.0700,168.9453125,955.5664063,256.8359375
6.0750,153.3203125,953.125,251.953125
6.0800,154.7851563,969.2382813,242.1875
6.0850,156.7382813,967.7734375,243.6523438
6.0900,157.7148438,947.7539063,252.4414063
6.0950,160.6445313,920.8984375,254.3945313
6.1000,162.5976563,930.1757813,223.1445313
6.1050,159.6679688,945.8007813,222.65625
6.1100,144.53125,952.6367188,254.3945313
6.1150,120.6054688,923.3398438,245.6054688
6.1200,123.5351563,934.5703125,255.3710938
6.1250,123.046875,948.7304688,242.6757813
6.1300,120.6054688,963.3789063,254.3945313
6.1350,105.9570313,952.6367188,259.2773438
6.1400,108.8867188,942.8710938,263.671875
6.1450,108.8867188,919.4335938,265.625
6.1500,123.046875,928.2226563,264.6484375
6.1550,112.7929688,929.6875,245.6054688
6.1600,95.703125,944.8242188,249.0234375
6.1650,75.1953125,961.4257813,265.1367188
6.1700,62.5,963.3789063,253.90625
6.1750,81.54296875,958.0078125,256.8359375
6.1800,92.28515625,938.4765625,235.8398438
6.1850,102.5390625,933.1054688,244.6289063
6.1900,102.0507813,950.6835938,231.9335938
6.1950,96.6796875,996.5820313,210.4492188
6.2000,58.10546875,1023.925781,198.7304688
6.2050,35.15625,1031.738281,226.5625
6.2100,10.25390625,983.3984375,222.1679688
6.2150,14.16015625,931.640625,221.1914063
6.2200,20.5078125,914.0625,194.8242188
6.2250,38.57421875,936.0351563,188.4765625
6.2300,29.296875,955.078125,195.3125
6.2350,17.08984375,958.0078125,187.0117188
6.2400,2.9296875,942.8710938,194.8242188
6.2450,1.953125,933.1054688,176.2695313
6.2500,-6.8359375,951.6601563,174.3164063
6.2550,-11.71875,990.234375,178.7109375
6.2600,-21.484375,1014.160156,196.2890625
6.2650,-24.90234375,1015.136719,193.359375
6.2700,-16.11328125,1000,207.03125
6.2750,-9.27734375,979.0039063,183.59375
6.2800,-15.625,962.4023438,188.9648438
6.2850,-34.66796875,965.8203125,191.40625
6.2900,-44.921875,984.8632813,201.6601563
6.2950,-51.7578125,974.609375,186.0351563
6.3000,-47.36328125,981.9335938,200.6835938
6.3050,-49.31640625,978.0273438,202.6367188
6.3100,-61.03515625,970.2148438,204.5898438
6.3150,-64.94140625,953.6132813,208.4960938
6.3200,-64.453125,950.1953125,210.4492188
6.3250,-72.265625,941.8945313,200.6835938
6.3300,-74.70703125,945.3125,192.8710938
6.3350,-80.56640625,944.8242188,213.8671875
6.3400,-88.8671875,951.6601563,203.6132813
6.3450,-103.0273438,966.796875,201.171875
6.3500,-105.9570313,990.234375,209.9609375
6.3550,-106.4453125,993.1640625,211.4257813
6.3600,-111.328125,983.8867188,233.3984375
6.3650,-116.2109375,961.4257813,226.0742188
6.3700,-119.6289063,966.3085938,229.4921875
6.3750,-129.3945313,969.2382813,233.3984375
6.3800,-143.5546875,978.0273438,226.5625
6.3850,-148.9257813,971.1914063,234.375
6.3900,-174.8046875,946.2890625,239.7460938
6.3950,-171.3867188,943.8476563,238.28125
6.4000,-181.1523438,954.1015625,218.75
6.4050,-179.6875,976.0742188,240.7226563
6.4100,-184.0820313,991.6992188,232.9101563
6.4150,-186.5234375,991.2109375,235.3515625
6.4200,-189.453125,987.7929688,223.1445313
6.4250,-184.5703125,1005.859375,222.65625
6.4300,-199.21875,1001.953125,212.890625
6.4350,-206.5429688,1009.765625,207.5195313
6.4400,-207.03125,997.5585938,204.1015625
6.4450,-208.4960938,960.4492188,206.0546875
6.4500,-214.3554688,944.8242188,198.7304688
6.4550,-206.0546875,948.7304688,201.171875
6.4600,-221.6796875,959.4726563,200.6835938
6.4650,-243.6523438,966.3085938,206.0546875
6.4700,-261.71875,957.5195313,211.9140625
6.4750,-255.859375,947.7539063,208.4960938
6.4800,-245.6054688,947.7539063,184.0820313
6.4850,-236.328125,960.4492188,184.0820313
6.4900,-249.0234375,965.3320313,180.6640625
6.4950,-265.625,958.984375,179.1992188
6.5000,-285.6445313,936.5234375,173.828125
6.5050,-282.2265625,933.1054688,155.7617188
6.5100,-269.53125,945.3125,148.4375
6.5150,-264.1601563,960.9375,155.7617188
6.5200,-262.2070313,953.6132813,168.9453125
6.5250,-280.2734375,947.7539063,172.3632813
6.5300,-282.2265625,945.8007813,183.59375
6.5350,-290.0390625,937.0117188,168.4570313
6.5400,-305.6640625,937.0117188,181.1523438
6.5450,-307.1289063,942.8710938,194.3359375
6.5500,-315.9179688,933.1054688,187.0117188
6.5550,-314.453125,932.1289063,192.3828125
6.5600,-322.7539063,937.9882813,184.5703125
6.5650,-331.5429688,943.359375,168.4570313
6.5700,-338.3789063,936.5234375,176.2695313
6.5750,-336.9140625,926.2695313,164.5507813
6.5800,-348.1445313,907.2265625,162.5976563
6.5850,-354.4921875,905.7617188,161.1328125
6.5900,-364.7460938,910.6445313,167.4804688
6.5950,-369.6289063,911.1328125,165.5273438
6.6000,-379.8828125,906.7382813,184.5703125
6.6050,-376.4648438,910.6445313,185.546875
6.6100,-381.3476563,902.8320313,181.640625
6.6150,-380.859375,899.4140625,197.265625
6.6200,-385.7421875,904.296875,186.5234375
6.6250,-387.6953125,901.8554688,194.8242188
6.6300,-389.1601563,914.5507813,181.640625
6.6350,-383.7890625,914.0625,176.2695313
6.6400,-391.1132813,933.1054688,171.875
6.6450,-402.34375,946.7773438,182.6171875
6.6500,-415.0390625,949.21875,187.5
6.6550,-425.78125,934.5703125,166.5039063
6.6600,-434.5703125,907.7148438,192.3828125
6.6650,-438.4765625,875.4882813,167.4804688
6.6700,-442.3828125,861.8164063,171.3867188
6.6750,-445.3125,864.2578125,166.015625
6.6800,-461.4257813,865.234375,169.921875
6.6850,-479.9804688,846.1914063,184.0820313
6.6900,-485.3515625,838.3789063,173.3398438
6.6950,-490.7226563,839.3554688,183.1054688
6.7000,-497.5585938,853.0273438,182.6171875
6.7050,-495.6054688,871.09375,169.921875
6.7100,-493.6523438,885.2539063,169.4335938
6.7150,-497.0703125,896.484375,174.3164063
6.7200,-499.0234375,885.7421875,173.3398438
6.7250,-494.6289063,878.90625,178.2226563
6.7300,-498.5351563,878.4179688,163.5742188
6.7350,-497.5585938,877.4414063,159.1796875
6.7400,-500.4882813,887.6953125,158.6914063
6.7450,-509.765625,881.3476563,165.5273438
6.7500,-516.1132813,860.8398438,181.1523438
6.7550,-526.8554688,836.4257813,171.875
6.7600,-528.8085938,818.8476563,182.6171875
6.7650,-528.3203125,822.7539063,174.3164063
6.7700,-528.3203125,833.0078125,187.5
6.7750,-546.3867188,827.1484375,189.9414063
6.7800,-550.2929688,826.6601563,186.0351563
6.7850,-547.8515625,829.5898438,179.1992188
6.7900,-552.2460938,830.5664063,179.1992188
6.7950,-554.6875,833.984375,169.921875
6.8000,-556.640625,835.4492188,177.2460938
6.8050,-547.8515625,842.2851563,166.015625
6.8100,-555.1757813,846.6796875,164.5507813
6.8150,-557.1289063,844.2382813,156.25
6.8200,-567.8710938,840.8203125,164.5507813
6.8250,-574.7070313,825.1953125,161.6210938
6.8300,-575.1953125,814.9414063,168.9453125
6.8350,-577.6367188,808.1054688,158.6914063
6.8400,-587.4023438,798.3398438,174.8046875
6.8450,-585.9375,795.8984375,166.5039063
6.8500,-613.28125,768.5546875,173.3398438
6.8550,-615.234375,780.2734375,181.640625
6.8600,-626.4648438,784.1796875,164.5507813
6.8650,-632.3242188,785.6445313,167.4804688
6.8700,-628.90625,790.0390625,170.8984375
6.8750,-635.7421875,783.203125,155.2734375
6.8800,-645.0195313,773.9257813,146.9726563
6.8850,-649.4140625,775.8789063,136.71875
6.8900,-643.0664063,774.9023438,131.3476563
6.8950,-648.4375,770.9960938,127.4414063
6.9000,-664.5507813,768.5546875,142.0898438
6.9050,-675.2929688,766.6015625,125.4882813
6.9100,-681.640625,779.7851563,146.9726563
6.9150,-702.6367188,758.7890625,138.671875
6.9200,-707.03125,741.6992188,147.4609375
6.9250,-712.4023438,731.4453125,135.2539063
6.9300,-718.75,725.0976563,138.1835938
6.9350,-729.0039063,709.4726563,125.4882813
6.9400,-737.3046875,708.0078125,117.6757813
6.9450,-745.1171875,704.1015625,121.5820313
6.9500,-752.9296875,696.2890625,123.5351563
6.9550,-758.3007813,693.359375,107.421875
6.9600,-765.1367188,699.7070313,114.2578125
6.9650,-761.71875,703.6132813,98.6328125
6.9700,-758.3007813,716.3085938,103.0273438
6.9750,-770.0195313,713.3789063,82.51953125
6.9800,-760.2539063,731.4453125,83.49609375
6.9850,-757.8125,732.421875,62.5
6.9900,-755.859375,740.234375,62.01171875
6.9950,-755.3710938,739.2578125,64.94140625
7.0000,-754.8828125,738.7695313,75.1953125
7.0050,-763.1835938,728.0273438,88.37890625
7.0100,-761.2304688,715.3320313,93.75
7.0150,-768.0664063,704.1015625,118.1640625
7.0200,-766.1132813,698.7304688,109.375
7.0250,-763.671875,687.5,119.6289063
7.0300,-757.3242188,672.8515625,123.5351563
7.0350,-757.8125,660.15625,145.0195313
7.0400,-767.0898438,640.625,123.5351563
7.0450,-773.4375,635.7421875,114.7460938
7.0500,-774.9023438,653.8085938,108.3984375
7.0550,-771.9726563,666.015625,107.9101563
7.0600,-770.9960938,676.7578125,98.6328125
7.0650,-778.3203125,677.2460938,106.4453125
7.0700,-774.9023438,684.0820313,97.16796875
7.0750,-766.6015625,684.0820313,90.8203125
7.0800,-765.625,690.9179688,97.16796875
7.0850,-755.3710938,710.9375,90.8203125
7.0900,-765.625,713.3789063,84.9609375
7.0950,-753.90625,720.2148438,89.35546875
7.1000,-750.9765625,718.2617188,91.796875
7.1050,-759.2773438,700.1953125,105.46875
7.1100,-761.71875,692.3828125,132.8125
7.1150,-765.625,681.640625,134.765625
7.1200,-777.34375,662.109375,164.0625
7.1250,-775.390625,652.8320313,157.2265625
7.1300,-771.9726563,641.1132813,159.6679688
7.1350,-774.9023438,634.765625,150.8789063
7.1400,-778.8085938,631.3476563,152.34375
7.1450,-788.0859375,623.046875,151.8554688
7.1500,-792.96875,636.71875,142.578125
7.1550,-793.9453125,640.1367188,160.6445313
7.1600,-796.875,632.8125,140.625
7.1650,-803.2226563,629.8828125,139.1601563
7.1700,-812.9882813,644.53125,124.0234375
7.1750,-798.828125,639.1601563,130.859375
7.1800,-784.6679688,629.3945313,118.1640625
7.1850,-783.203125,646.484375,108.3984375
7.1900,-806.1523438,640.625,115.7226563
7.1950,-801.2695313,629.3945313,96.6796875
7.2000,-811.5234375,630.3710938,99.609375
7.2050,-812.5,617.6757813,95.703125
7.2100,-821.2890625,595.2148438,116.6992188
7.2150,-828.125,561.5234375,125.9765625
7.2200,-833.4960938,541.9921875,124.0234375
7.2250,-843.75,516.1132813,135.2539063
7.2300,-850.0976563,499.0234375,124.5117188
7.2350,-850.5859375,485.8398438,143.0664063
7.2400,-855.46875,483.3984375,126.4648438
7.2450,-849.1210938,479.9804688,136.2304688
7.2500,-844.7265625,507.8125,133.3007813
7.2550,-862.3046875,526.3671875,122.5585938
7.2600,-876.953125,533.6914063,122.0703125
7.2650,-869.6289063,546.875,111.328125
7.2700,-857.9101563,522.9492188,102.5390625
7.2750,-853.515625,502.9296875,79.1015625
7.2800,-872.5585938,514.1601563,85.44921875
7.2850,-879.8828125,512.2070313,82.51953125
7.2900,-884.2773438,494.6289063,85.9375
7.2950,-870.6054688,500.4882813,94.7265625
7.3000,-875,499.0234375,93.75
7.3050,-874.0234375,503.4179688,103.0273438
7.3100,-878.4179688,504.3945313,98.14453125
7.3150,-875.4882813,495.1171875,102.0507813
7.3200,-875.4882813,488.28125,116.2109375
7.3250,-886.2304688,470.703125,115.234375
7.3300,-890.1367188,463.3789063,115.7226563
7.3350,-884.2773438,465.3320313,115.234375
7.3400,-890.1367188,460.4492188,107.9101563
7.3450,-887.2070313,461.4257813,93.26171875
7.3500,-881.8359375,477.5390625,79.58984375
7.3550,-888.1835938,481.9335938,65.4296875
7.3600,-893.5546875,476.0742188,61.03515625
7.3650,-886.71875,456.0546875,62.98828125
7.3700,-895.5078125,424.3164063,69.3359375
7.3750,-905.2734375,410.6445313,65.4296875
7.3800,-909.1796875,423.3398438,83.0078125
7.3850,-919.921875,420.8984375,91.796875
7.3900,-914.0625,423.828125,96.6796875
7.3950,-904.296875,422.3632813,97.65625
7.4000,-902.8320313,416.9921875,96.6796875
7.4050,-905.2734375,412.109375,94.7265625
7.4100,-916.9921875,400.8789063,87.890625
7.4150,-911.1328125,412.109375,92.28515625
7.4200,-914.5507813,416.015625,87.890625
7.4250,-915.0390625,412.5976563,79.58984375
7.4300,-910.15625,423.3398438,83.0078125
7.4350,-912.109375,432.6171875,63.96484375
7.4400,-907.7148438,447.7539063,60.05859375
7.4450,-911.6210938,448.2421875,60.546875
7.4500,-912.109375,433.1054688,56.640625
7.4550,-912.5976563,418.9453125,48.33984375
7.4600,-919.921875,407.2265625,60.05859375
7.4650,-927.734375,398.4375,70.3125
7.4700,-936.5234375,389.6484375,73.73046875
7.4750,-925.78125,398.4375,71.77734375
7.4800,-924.3164063,399.9023438,75.1953125
7.4850,-920.4101563,397.9492188,84.9609375
7.4900,-925.78125,384.765625,77.63671875
7.4950,-925.2929688,369.140625,76.171875
7.5000,-928.7109375,356.4453125,92.7734375
7.5050,-917.96875,362.7929688,88.8671875
7.5100,-915.5273438,375.4882813,80.078125
7.5150,-928.2226563,366.6992188,93.75
7.5200,-920.8984375,381.3476563,87.890625
7.5250,-927.734375,373.5351563,84.47265625
7.5300,-919.4335938,397.4609375,71.2890625
7.5350,-921.3867188,395.5078125,77.1484375
7.5400,-921.875,389.6484375,70.3125
7.5450,-930.6640625,369.6289063,92.7734375
7.5500,-928.7109375,362.7929688,81.54296875
7.5550,-938.4765625,355.46875,74.21875
7.5600,-936.0351563,358.8867188,77.63671875
7.5650,-937.0117188,347.1679688,83.0078125
7.5700,-937.0117188,347.1679688,80.56640625
7.5750,-933.1054688,345.703125,93.26171875
7.5800,-945.3125,323.2421875,77.63671875
7.5850,-939.9414063,331.0546875,76.66015625
7.5900,-943.8476563,329.1015625,75.1953125
7.5950,-940.9179688,348.1445313,78.61328125
7.6000,-942.3828125,346.6796875,76.66015625
7.6050,-948.7304688,336.4257813,83.49609375
7.6100,-949.7070313,324.7070313,83.0078125
7.6150,-947.7539063,320.8007813,84.47265625
7.6200,-952.1484375,310.546875,85.9375
7.6250,-954.5898438,302.2460938,84.9609375
7.6300,-953.125,298.3398438,81.0546875
7.6350,-946.2890625,297.3632813,79.1015625
7.6400,-951.6601563,302.734375,62.98828125
7.6450,-960.9375,304.6875,71.2890625
7.6500,-961.9140625,314.453125,77.63671875
7.6550,-966.796875,313.4765625,77.63671875
7.6600,-975.0976563,306.1523438,83.0078125
7.6650,-977.0507813,306.640625,80.078125
7.6700,-970.703125,307.1289063,84.47265625
7.6750,-967.2851563,306.1523438,75.68359375
7.6800,-966.796875,303.7109375,81.0546875
7.6850,-964.84375,299.8046875,75.1953125
7.6900,-968.75,306.640625,82.03125
7.6950,-960.9375,308.59375,77.63671875
7.7000,-963.3789063,304.6875,73.73046875
7.7050,-955.5664063,307.1289063,57.6171875
7.7100,-959.9609375,315.4296875,63.96484375
7.7150,-950.1953125,312.9882813,66.89453125
7.7200,-947.7539063,313.4765625,64.94140625
7.7250,-950.6835938,309.0820313,69.82421875
7.7300,-951.171875,309.0820313,67.87109375
7.7350,-950.6835938,294.4335938,67.3828125
7.7400,-952.6367188,288.0859375,77.1484375
7.7450,-957.5195313,298.3398438,64.453125
7.7500,-961.9140625,302.2460938,81.0546875
7.7550,-954.1015625,312.0117188,69.3359375
7.7600,-949.21875,314.9414063,69.82421875
7.7650,-956.0546875,319.3359375,68.359375
7.7700,-957.03125,314.453125,62.98828125
7.7750,-945.8007813,321.2890625,64.94140625
7.7800,-948.2421875,320.3125,62.5
7.7850,-946.2890625,303.7109375,70.80078125
7.7900,-943.359375,293.9453125,80.078125
7.7950,-942.8710938,293.4570313,55.17578125
7.8000,-957.5195313,304.6875,61.5234375
7.8050,-952.6367188,317.3828125,70.3125
7.8100,-950.1953125,335.9375,57.6171875
7.8150,-952.6367188,327.1484375,68.84765625
7.8200,-950.6835938,335.4492188,66.89453125
7.8250,-960.9375,322.7539063,67.3828125
7.8300,-957.5195313,329.5898438,84.47265625
7.8350,-960.4492188,323.7304688,61.03515625
7.8400,-962.4023438,320.8007813,84.9609375
7.8450,-960.4492188,330.078125,78.61328125
7.8500,-970.2148438,321.2890625,65.4296875
7.8550,-950.6835938,337.890625,80.078125
7.8600,-950.1953125,344.7265625,77.63671875
7.8650,-945.8007813,352.5390625,77.63671875
7.8700,-958.0078125,343.75,78.61328125
7.8750,-963.3789063,332.5195313,78.61328125
7.8800,-959.9609375,329.1015625,74.21875
7.8850,-959.4726563,333.0078125,79.58984375
7.8900,-957.03125,337.4023438,68.359375
7.8950,-957.5195313,356.4453125,62.98828125
7.9000,-959.4726563,368.6523438,75.68359375
7.9050,-952.6367188,370.6054688,79.58984375
7.9100,-958.4960938,360.8398438,86.42578125
7.9150,-954.5898438,348.6328125,78.125
7.9200,-959.9609375,343.75,74.21875
7.9250,-957.03125,336.9140625,86.9140625
7.9300,-952.1484375,342.2851563,76.171875
7.9350,-950.6835938,355.46875,79.1015625
7.9400,-952.6367188,368.6523438,77.63671875
7.9450,-952.6367188,372.0703125,67.3828125
7.9500,-950.6835938,373.046875,72.265625
7.9550,-955.078125,369.6289063,66.89453125
7.9600,-955.078125,371.5820313,78.125
7.9650,-960.4492188,375,69.3359375
7.9700,-958.984375,367.1875,70.80078125
7.9750,-948.7304688,366.6992188,75.68359375
7.9800,-949.7070313,372.0703125,83.49609375
7.9850,-944.8242188,383.7890625,75.1953125
7.9900,-946.2890625,375.9765625,81.0546875
7.9950,-946.7773438,360.8398438,93.75
8.0000,-956.0546875,363.7695313,72.75390625
8.0050,-951.6601563,382.8125,82.03125
8.0100,-937.0117188,407.2265625,70.3125
8.0150,-935.546875,411.1328125,72.265625
8.0200,-938.4765625,410.15625,73.2421875
8.0250,-945.8007813,402.8320313,75.1953125
8.0300,-946.2890625,402.8320313,85.9375
8.0350,-939.9414063,415.5273438,75.1953125
8.0400,-938.4765625,421.875,76.171875
8.0450,-932.6171875,433.59375,83.49609375
8.0500,-938.4765625,429.6875,84.9609375
8.0550,-932.1289063,434.5703125,80.078125
8.0600,-941.8945313,437.5,89.84375
8.0650,-926.7578125,456.5429688,79.58984375
8.0700,-928.2226563,450.6835938,74.70703125
8.0750,-930.1757813,442.3828125,88.37890625
8.0800,-924.8046875,454.5898438,82.03125
8.0850,-931.640625,451.171875,78.61328125
8.0900,-928.7109375,462.890625,76.66015625
8.0950,-927.734375,468.75,82.03125
8.1000,-918.9453125,474.609375,83.0078125
8.1050,-915.5273438,467.7734375,82.51953125
8.1100,-922.8515625,457.03125,89.35546875
8.1150,-923.3398438,452.1484375,81.54296875
8.1200,-922.8515625,457.03125,78.61328125
8.1250,-917.96875,467.7734375,79.58984375
8.1300,-914.0625,480.46875,85.44921875
8.1350,-913.0859375,487.7929688,73.73046875
8.1400,-907.2265625,508.3007813,62.01171875
8.1450,-915.0390625,513.1835938,84.9609375
8.1500,-908.6914063,521.9726563,88.8671875
8.1550,-899.9023438,527.8320313,70.80078125
8.1600,-899.9023438,522.9492188,80.078125
8.1650,-892.0898438,530.7617188,82.03125
8.1700,-891.6015625,534.1796875,81.0546875
8.1750,-886.2304688,540.5273438,84.47265625
8.1800,-877.9296875,553.7109375,71.77734375
8.1850,-876.4648438,559.0820313,81.0546875
8.1900,-876.4648438,562.0117188,76.171875
8.1950,-876.953125,571.7773438,77.63671875
8.2000,-872.0703125,575.6835938,90.8203125
8.2050,-862.3046875,581.5429688,76.66015625
8.2100,-858.3984375,580.5664063,82.51953125
8.2150,-852.0507813,580.078125,82.03125
8.2200,-843.2617188,591.796875,81.54296875
8.2250,-846.6796875,582.5195313,80.078125
8.2300,-842.7734375,592.7734375,76.66015625
8.2350,-834.4726563,605.9570313,90.33203125
8.2400,-830.078125,614.7460938,86.9140625
8.2450,-829.1015625,619.140625,89.35546875
8.2500,-819.8242188,636.71875,92.28515625
8.2550,-817.3828125,645.0195313,87.40234375
8.2600,-818.359375,642.0898438,107.421875
8.2650,-811.0351563,654.7851563,96.19140625
8.2700,-815.4296875,660.15625,96.19140625
8.2750,-811.0351563,661.1328125,104.0039063
8.2800,-804.6875,658.6914063,104.0039063
8.2850,-794.921875,662.109375,90.8203125
8.2900,-799.3164063,661.1328125,89.35546875
8.2950,-795.4101563,661.6210938,89.84375
8.3000,-787.109375,666.015625,104.0039063
8.3050,-778.8085938,667.96875,96.6796875
8.3100,-769.53125,676.2695313,95.21484375
8.3150,-771.484375,664.0625,103.515625
8.3200,-759.765625,672.8515625,97.16796875
8.3250,-761.71875,686.5234375,97.16796875
8.3300,-767.0898438,690.9179688,107.421875
8.3350,-761.2304688,694.8242188,104.4921875
8.3400,-753.90625,697.265625,104.0039063
8.3450,-748.046875,698.7304688,98.14453125
8.3500,-745.1171875,705.5664063,104.4921875
8.3550,-746.09375,703.6132813,96.19140625
8.3600,-734.375,707.03125,97.65625
8.3650,-729.9804688,712.890625,110.3515625
8.3700,-724.1210938,726.0742188,109.8632813
8.3750,-721.6796875,724.1210938,102.0507813
8.3800,-710.4492188,737.7929688,106.4453125
8.3850,-701.171875,736.8164063,118.1640625
8.3900,-709.9609375,729.4921875,107.9101563
8.3950,-707.5195313,730.46875,110.8398438
8.4000,-700.1953125,729.9804688,110.3515625
8.4050,-696.2890625,730.46875,111.8164063
8.4100,-695.3125,736.328125,105.46875
8.4150,-698.7304688,738.28125,104.4921875
8.4200,-686.5234375,750.4882813,115.7226563
8.4250,-674.8046875,758.3007813,109.8632813
8.4300,-671.875,758.7890625,116.6992188
8.4350,-666.015625,757.3242188,112.7929688
8.4400,-663.0859375,760.2539063,109.375
8.4450,-656.25,760.2539063,113.7695313
8.4500,-652.8320313,773.4375,112.3046875
8.4550,-644.53125,778.8085938,109.8632813
8.4600,-643.0664063,786.1328125,101.0742188
8.4650,-638.671875,786.1328125,118.1640625
8.4700,-636.71875,783.203125,111.328125
8.4750,-625,775.8789063,111.8164063
8.4800,-620.6054688,774.4140625,105.46875
8.4850,-613.28125,774.4140625,113.7695313
8.4900,-609.8632813,785.6445313,109.375
8.4950,-615.7226563,786.1328125,107.9101563
8.5000,-604.9804688,800.78125,116.6992188
8.5050,-604.4921875,795.4101563,120.1171875
8.5100,-589.3554688,806.640625,112.7929688
8.5150,-587.4023438,815.4296875,116.2109375
8.5200,-574.21875,827.6367188,130.3710938
8.5250,-571.2890625,829.1015625,126.953125
8.5300,-562.9882813,824.21875,109.375
8.5350,-557.6171875,825.1953125,112.7929688
8.5400,-554.1992188,829.1015625,109.8632813
8.5450,-551.2695313,831.5429688,121.5820313
8.5500,-543.4570313,838.8671875,125.9765625
8.5550,-541.9921875,832.5195313,126.4648438
8.5600,-532.2265625,823.2421875,120.1171875
8.5650,-528.8085938,819.8242188,125.9765625
8.5700,-517.578125,828.125,125.9765625
8.5750,-509.765625,839.3554688,115.234375
8.5800,-501.4648438,862.3046875,124.5117188
8.5850,-491.6992188,875.4882813,128.90625
8.5900,-501.4648438,859.375,123.5351563
8.5950,-484.375,869.6289063,130.859375
8.6000,-477.0507813,862.3046875,126.953125
8.6050,-476.0742188,860.8398438,116.6992188
8.6100,-472.65625,864.7460938,140.625
8.6150,-465.8203125,867.6757813,131.8359375
8.6200,-465.8203125,865.234375,138.1835938
8.6250,-451.171875,871.09375,139.1601563
8.6300,-458.984375,862.7929688,137.6953125
8.6350,-446.2890625,874.0234375,136.71875
8.6400,-440.4296875,883.7890625,138.671875
8.6450,-444.8242188,874.5117188,147.4609375
8.6500,-438.4765625,882.8125,145.5078125
8.6550,-422.3632813,886.71875,150.390625
8.6600,-418.9453125,887.6953125,146.484375
8.6650,-415.5273438,889.1601563,144.53125
8.6700,-415.5273438,887.2070313,145.9960938
8.6750,-405.2734375,906.25,138.671875
8.6800,-394.0429688,916.9921875,144.0429688
8.6850,-394.53125,911.1328125,149.4140625
8.6900,-396.9726563,902.34375,158.203125
8.6950,-390.1367188,905.7617188,150.8789063
8.7000,-390.625,910.15625,149.9023438
8.7050,-394.0429688,914.5507813,157.7148438
8.7100,-382.8125,910.6445313,158.203125
8.7150,-373.046875,908.6914063,164.0625
8.7200,-367.1875,909.6679688,151.3671875
8.7250,-359.8632813,922.3632813,161.1328125
8.7300,-359.8632813,926.7578125,142.0898438
8.7350,-350.0976563,927.734375,154.7851563
8.7400,-352.0507813,918.9453125,156.25
8.7450,-340.8203125,918.9453125,149.9023438
8.7500,-341.796875,926.2695313,158.6914063
8.7550,-335.9375,941.40625,166.015625
8.7600,-326.171875,964.84375,155.2734375
8.7650,-317.8710938,961.9140625,171.875
8.7700,-308.59375,967.2851563,170.8984375
8.7750,-306.640625,964.3554688,172.3632813
8.7800,-306.640625,967.7734375,180.1757813
8.7850,-297.3632813,968.75,166.5039063
8.7900,-297.3632813,959.9609375,167.4804688
8.7950,-280.2734375,959.4726563,164.5507813
8.8000,-277.34375,959.4726563,157.7148438
8.8050,-273.9257813,956.5429688,160.15625
8.8100,-277.34375,951.6601563,163.5742188
8.8150,-263.671875,951.6601563,158.203125
8.8200,-268.5546875,949.7070313,161.6210938
8.8250,-260.7421875,968.75,155.7617188
8.8300,-257.3242188,969.2382813,157.7148438
8.8350,-251.4648438,971.6796875,167.96875
8.8400,-242.6757813,965.8203125,169.4335938
8.8450,-231.9335938,976.0742188,155.7617188
8.8500,-229.9804688,981.4453125,161.6210938
8.8550,-226.0742188,990.234375,176.7578125
8.8600,-216.796875,987.7929688,160.15625
8.8650,-203.125,982.421875,172.3632813
8.8700,-205.5664063,975.5859375,166.9921875
8.8750,-201.6601563,983.3984375,156.7382813
8.8800,-188.9648438,998.5351563,160.15625
8.8850,-188.4765625,981.4453125,164.0625
8.8900,-189.453125,965.8203125,177.734375
8.8950,-173.828125,967.7734375,167.96875
8.9000,-174.3164063,974.609375,175.78125
8.9050,-177.734375,979.9804688,175.78125
8.9100,-167.4804688,1000,177.734375
8.9150,-170.4101563,985.3515625,167.4804688
8.9200,-161.6210938,987.3046875,174.3164063
8.9250,-142.578125,994.140625,173.3398438
8.9300,-146.9726563,986.8164063,177.734375
8.9350,-143.5546875,973.6328125,184.0820313
8.9400,-129.3945313,972.65625,182.1289063
8.9450,-123.046875,973.1445313,168.4570313
8.9500,-120.1171875,979.0039063,176.2695313
8.9550,-113.28125,991.6992188,176.2695313
8.9600,-122.5585938,980.9570313,180.6640625
8.9650,-119.140625,990.234375,187.0117188
8.9700,-116.6992188,981.9335938,187.9882813
8.9750,-100.5859375,980.46875,175.78125
8.9800,-103.0273438,968.75,178.2226563
8.9850,-87.40234375,974.1210938,178.7109375
8.9900,-79.1015625,978.515625,183.59375
8.9950,-68.84765625,987.7929688,173.3398438
9.0000,-78.61328125,978.515625,172.8515625
9.0050,-69.3359375,978.0273438,184.0820313
9.0100,-66.40625,977.5390625,185.0585938
9.0150,-55.6640625,1002.441406,182.1289063
9.0200,-46.875,1018.066406,184.0820313
9.0250,-48.33984375,1018.554688,188.4765625
9.0300,-44.921875,999.5117188,200.6835938
9.0350,-36.1328125,979.4921875,181.1523438
9.0400,-34.66796875,969.7265625,185.546875
9.0450,-27.34375,961.4257813,184.0820313
9.0500,-20.5078125,969.7265625,182.1289063
9.0550,-16.6015625,978.0273438,179.6875
9.0600,-3.41796875,988.28125,187.0117188
9.0650,-4.8828125,985.3515625,201.171875
9.0700,4.8828125,983.3984375,195.3125
9.0750,6.8359375,972.1679688,196.7773438
9.0800,7.8125,972.1679688,194.3359375
9.0850,14.6484375,993.1640625,195.3125
9.0900,34.66796875,1015.625,201.6601563
9.0950,26.3671875,990.7226563,213.8671875
9.1000,42.48046875,977.5390625,211.4257813
9.1050,50.29296875,970.2148438,199.7070313
9.1100,54.6875,983.3984375,197.7539063
9.1150,53.22265625,1000,213.3789063
9.1200,55.6640625,1001.464844,212.4023438
9.1250,60.05859375,980.9570313,210.4492188
9.1300,67.3828125,958.0078125,201.171875
9.1350,73.73046875,963.8671875,208.984375
9.1400,81.0546875,975.5859375,204.1015625
9.1450,83.0078125,986.8164063,212.4023438
9.1500,85.9375,987.3046875,215.8203125
9.1550,92.28515625,980.9570313,210.9375
9.1600,97.65625,986.8164063,222.65625
9.1650,100.5859375,988.28125,200.1953125
9.1700,106.9335938,980.9570313,200.1953125
9.1750,106.4453125,960.9375,202.6367188
9.1800,123.5351563,957.5195313,211.4257813
9.1850,131.3476563,953.125,193.359375
9.1900,140.1367188,956.0546875,215.8203125
9.1950,143.5546875,955.078125,210.4492188
9.2000,144.53125,962.4023438,231.9335938
9.2050,141.1132813,969.7265625,222.1679688
9.2100,154.296875,975.5859375,232.421875
9.2150,160.6445313,962.890625,233.8867188
9.2200,163.0859375,949.7070313,218.75
9.2250,175.78125,957.03125,216.796875
9.2300,178.2226563,946.7773438,224.609375
9.2350,186.0351563,939.453125,217.2851563
9.2400,186.0351563,937.5,216.796875
9.2450,192.8710938,946.7773438,217.7734375
9.2500,188.9648438,949.21875,210.9375
9.2550,195.8007813,961.4257813,224.1210938
9.2600,192.3828125,960.9375,212.890625
9.2650,201.6601563,968.75,231.4453125
9.2700,201.171875,959.4726563,236.8164063
9.2750,209.9609375,932.1289063,230.46875
9.2800,218.75,926.7578125,228.515625
9.2850,219.7265625,932.6171875,228.0273438
9.2900,220.703125,949.7070313,233.3984375
9.2950,234.375,946.7773438,232.9101563
9.3000,237.7929688,932.6171875,225.0976563
9.3050,242.6757813,916.015625,226.5625
9.3100,250.9765625,909.1796875,226.5625
9.3150,257.3242188,918.4570313,224.609375
9.3200,250,913.5742188,219.7265625
9.3250,260.2539063,917.96875,232.9101563
9.3300,272.4609375,917.96875,225.5859375
9.3350,274.9023438,902.8320313,221.6796875
9.3400,278.8085938,915.0390625,227.5390625
9.3450,281.25,928.2226563,226.0742188
9.3500,276.3671875,928.2226563,236.328125
9.3550,278.3203125,916.9921875,251.953125
9.3600,285.6445313,916.015625,250
9.3650,291.9921875,902.34375,247.5585938
9.3700,297.3632813,905.2734375,244.6289063
9.3750,297.8515625,906.25,237.7929688
9.3800,287.109375,921.875,241.2109375
9.3850,290.5273438,929.6875,243.1640625
9.3900,303.2226563,931.640625,250.9765625
9.3950,305.6640625,912.5976563,238.28125
9.4000,316.40625,899.9023438,227.5390625
9.4050,323.2421875,886.2304688,235.8398438
9.4100,326.171875,895.9960938,235.3515625
9.4150,321.7773438,905.2734375,230.9570313
9.4200,315.9179688,900.8789063,253.4179688
9.4250,325.6835938,886.71875,255.3710938
9.4300,342.2851563,869.6289063,248.5351563
9.4350,351.5625,860.8398438,244.140625
9.4400,355.9570313,868.1640625,241.6992188
9.4450,359.8632813,883.3007813,249.0234375
9.4500,356.4453125,883.3007813,252.4414063
9.4550,364.2578125,885.2539063,261.71875
9.4600,375.4882813,895.9960938,242.6757813
9.4650,372.0703125,888.671875,252.4414063
9.4700,383.7890625,876.4648438,253.4179688
9.4750,388.671875,845.2148438,248.046875
9.4800,392.0898438,848.6328125,249.0234375
9.4850,396.9726563,857.421875,252.9296875
9.4900,391.6015625,874.5117188,239.7460938
9.4950,398.9257813,885.7421875,246.5820313
9.5000,407.2265625,863.28125,263.671875
9.5050,417.4804688,834.4726563,269.53125
9.5100,428.7109375,822.7539063,266.6015625
9.5150,443.359375,827.1484375,253.90625
9.5200,440.4296875,835.9375,263.1835938
9.5250,436.5234375,834.9609375,273.4375
9.5300,441.8945313,819.3359375,275.390625
9.5350,455.5664063,808.59375,269.0429688
9.5400,464.84375,799.3164063,259.765625
9.5450,451.6601563,787.109375,273.9257813
9.5500,456.5429688,802.2460938,253.4179688
9.5550,459.4726563,827.6367188,260.7421875
9.5600,458.984375,834.4726563,264.6484375
9.5650,445.8007813,827.1484375,266.6015625
9.5700,439.453125,830.078125,254.3945313
9.5750,448.7304688,857.9101563,266.6015625
9.5800,440.9179688,850.5859375,271.484375
9.5850,447.265625,833.0078125,257.8125
9.5900,442.3828125,814.9414063,251.4648438
9.5950,440.4296875,803.7109375,247.0703125
9.6000,440.9179688,818.8476563,232.421875
9.6050,439.453125,801.2695313,235.3515625
9.6100,459.4726563,796.3867188,244.6289063
9.6150,466.796875,793.4570313,230.9570313
9.6200,471.6796875,795.8984375,242.1875
9.6250,469.7265625,793.4570313,248.5351563
9.6300,474.609375,792.4804688,229.9804688
9.6350,495.1171875,810.0585938,248.046875
9.6400,498.046875,808.59375,237.7929688
9.6450,496.5820313,806.1523438,237.3046875
9.6500,500,799.3164063,248.5351563
9.6550,500,794.921875,254.3945313
9.6600,514.6484375,797.3632813,258.3007813
9.6650,525.8789063,794.4335938,259.765625
9.6700,537.109375,803.2226563,262.2070313
9.6750,538.5742188,805.1757813,267.0898438
9.6800,538.0859375,792.4804688,264.6484375
9.6850,537.109375,775.8789063,273.4375
9.6900,538.5742188,772.4609375,274.9023438
9.6950,555.6640625,783.203125,264.1601563
9.7000,555.1757813,794.4335938,261.2304688
9.7050,567.3828125,811.5234375,279.7851563
9.7100,567.8710938,805.1757813,270.9960938
9.7150,578.6132813,797.3632813,279.7851563
9.7200,573.2421875,782.2265625,277.34375
9.7250,587.4023438,788.0859375,287.109375
9.7300,587.4023438,785.6445313,270.9960938
9.7350,584.4726563,778.8085938,275.8789063
9.7400,589.3554688,770.5078125,273.9257813
9.7450,600.5859375,763.1835938,272.9492188
9.7500,608.3984375,761.2304688,266.6015625
9.7550,618.1640625,766.1132813,274.4140625
9.7600,617.6757813,766.1132813,272.4609375
9.7650,622.0703125,762.6953125,291.9921875
9.7700,612.7929688,748.5351563,276.3671875
9.7750,622.5585938,738.28125,286.1328125
9.7800,625.4882813,744.6289063,289.5507813
9.7850,625.4882813,732.421875,285.6445313
9.7900,631.8359375,738.28125,290.0390625
9.7950,638.671875,750.4882813,285.15625
9.8000,638.671875,747.5585938,281.25
9.8050,631.8359375,730.9570313,277.34375
9.8100,637.2070313,716.3085938,275.8789063
9.8150,651.3671875,721.1914063,260.2539063
9.8200,657.7148438,729.4921875,268.5546875
9.8250,652.34375,731.4453125,273.4375
9.8300,649.4140625,727.0507813,279.7851563
9.8350,655.2734375,706.0546875,285.15625
9.8400,657.7148438,684.5703125,280.7617188
9.8450,663.0859375,674.3164063,270.5078125
9.8500,664.0625,687.0117188,272.9492188
9.8550,668.4570313,687.5,291.5039063
9.8600,673.3398438,680.6640625,270.0195313
9.8650,680.6640625,671.875,291.015625
9.8700,680.1757813,656.7382813,292.4804688
9.8750,682.6171875,654.296875,276.8554688
9.8800,674.3164063,659.6679688,282.7148438
9.8850,676.2695313,671.875,287.5976563
9.8900,674.8046875,672.8515625,303.2226563
9.8950,677.734375,675.2929688,292.4804688
9.9000,679.1992188,673.828125,295.4101563
9.9050,674.3164063,661.1328125,293.9453125
9.9100,685.0585938,659.1796875,276.3671875
9.9150,684.5703125,645.5078125,291.015625
9.9200,689.453125,645.9960938,278.8085938
9.9250,682.6171875,636.2304688,278.3203125
9.9300,690.4296875,651.8554688,273.4375
9.9350,688.4765625,641.6015625,286.6210938
9.9400,686.5234375,627.9296875,270.0195313
9.9450,687.9882813,608.8867188,276.8554688
9.9500,679.6875,601.5625,278.3203125
9.9550,685.0585938,624.0234375,250
9.9600,690.4296875,647.9492188,274.9023438
9.9650,680.1757813,631.8359375,274.4140625
9.9700,688.9648438,609.375,286.6210938
9.9750,699.7070313,595.2148438,279.7851563
9.9800,690.4296875,597.1679688,265.625
9.9850,694.8242188,616.6992188,275.390625
9.9900,693.8476563,602.5390625,291.9921875
9.9950,696.2890625,589.3554688,288.0859375
10.0000,696.7773438,584.9609375,285.15625
10.0050,688.9648438,589.3554688,275.8789063
10.0100,689.9414063,591.3085938,276.8554688
10.0150,700.6835938,578.6132813,286.6210938
10.0200,708.4960938,579.5898438,264.1601563
10.0250,713.3789063,590.3320313,263.1835938
10.0300,713.3789063,595.703125,274.4140625
10.0350,715.8203125,583.4960938,273.4375
10.0400,711.9140625,576.6601563,283.6914063
10.0450,714.3554688,577.1484375,264.1601563
10.0500,721.1914063,596.6796875,273.9257813
10.0550,724.1210938,590.3320313,274.9023438
10.0600,722.1679688,580.078125,297.3632813
10.0650,722.1679688,558.1054688,292.4804688
10.0700,727.0507813,556.640625,285.15625
10.0750,740.7226563,574.21875,276.8554688
10.0800,751.4648438,594.2382813,286.1328125
10.0850,739.7460938,578.125,306.1523438
10.0900,749.5117188,585.9375,284.6679688
10.0950,742.6757813,577.1484375,278.8085938
10.1000,748.5351563,581.0546875,275.8789063
10.1050,750,572.7539063,282.2265625
10.1100,755.3710938,575.6835938,286.1328125
10.1150,762.6953125,573.2421875,280.7617188
10.1200,765.625,559.0820313,284.6679688
10.1250,777.8320313,560.546875,283.203125
10.1300,770.5078125,547.3632813,282.2265625
10.1350,779.296875,558.1054688,277.8320313
10.1400,784.6679688,560.0585938,297.8515625
10.1450,782.2265625,544.4335938,297.3632813
10.1500,791.5039063,544.4335938,299.8046875
10.1550,789.0625,523.9257813,290.0390625
10.1600,793.9453125,527.34375,299.8046875
10.1650,801.7578125,527.8320313,296.875
10.1700,794.921875,523.4375,296.3867188
10.1750,799.8046875,518.5546875,305.1757813
10.1800,808.59375,525.8789063,304.6875
10.1850,819.8242188,519.0429688,310.546875
10.1900,820.3125,501.4648438,312.9882813
10.1950,822.265625,499.5117188,305.6640625
10.2000,820.8007813,511.2304688,309.0820313
10.2050,826.171875,520.5078125,299.8046875
10.2100,827.6367188,522.4609375,308.1054688
10.2150,818.359375,490.7226563,303.2226563
10.2200,828.125,478.0273438,317.8710938
10.2250,829.5898438,458.4960938,292.4804688
10.2300,834.4726563,464.84375,299.3164063
10.2350,832.03125,484.8632813,285.15625
10.2400,824.7070313,509.765625,299.3164063
10.2450,809.0820313,495.6054688,304.1992188
10.2500,809.0820313,488.28125,307.6171875
10.2550,811.5234375,484.8632813,300.2929688
10.2600,821.7773438,492.1875,297.8515625
10.2650,826.171875,485.3515625,304.6875
10.2700,815.4296875,456.0546875,304.1992188
10.2750,806.640625,442.8710938,292.4804688
10.2800,796.875,463.3789063,287.109375
10.2850,792.4804688,492.6757813,297.8515625
10.2900,789.5507813,507.3242188,319.8242188
10.2950,774.4140625,489.2578125,325.6835938
10.3000,776.8554688,504.8828125,313.4765625
10.3050,777.8320313,512.2070313,315.9179688
10.3100,770.9960938,489.2578125,314.9414063
10.3150,779.296875,474.609375,307.1289063
10.3200,762.2070313,439.453125,289.0625
10.3250,765.625,440.4296875,296.3867188
10.3300,779.296875,467.7734375,288.0859375
10.3350,776.8554688,473.6328125,297.3632813
10.3400,770.5078125,485.3515625,303.7109375
10.3450,780.2734375,480.9570313,305.1757813
10.3500,786.1328125,475.0976563,295.8984375
10.3550,797.8515625,462.4023438,302.734375
10.3600,793.9453125,448.2421875,308.1054688
10.3650,794.921875,424.8046875,292.4804688
10.3700,803.7109375,432.6171875,306.640625
10.3750,800.2929688,437.5,298.3398438
10.3800,795.8984375,441.40625,312.9882813
10.3850,800.2929688,435.0585938,299.3164063
10.3900,815.9179688,436.0351563,298.828125
10.3950,823.2421875,426.2695313,314.453125
10.4000,824.21875,433.59375,296.875
10.4050,821.7773438,431.1523438,286.6210938
10.4100,814.453125,434.5703125,298.3398438
10.4150,814.453125,426.2695313,295.8984375
10.4200,819.3359375,436.5234375,304.6875
10.4250,827.6367188,447.265625,308.59375
10.4300,826.6601563,436.0351563,296.875
10.4350,824.7070313,427.2460938,298.3398438
10.4400,834.9609375,422.3632813,287.109375
10.4450,840.8203125,417.4804688,289.0625
10.4500,844.7265625,436.0351563,291.015625
10.4550,847.65625,453.125,294.4335938
10.4600,839.3554688,459.4726563,294.921875
10.4650,845.2148438,462.4023438,305.1757813
10.4700,855.9570313,467.7734375,301.7578125
10.4750,858.3984375,453.125,306.640625
10.4800,854.0039063,431.1523438,315.9179688
10.4850,858.8867188,414.5507813,319.3359375
10.4900,866.6992188,418.9453125,285.15625
10.4950,872.5585938,429.6875,302.2460938
10.5000,868.6523438,438.4765625,305.1757813
10.5050,855.9570313,423.828125,296.3867188
10.5100,867.6757813,425.2929688,294.921875
10.5150,875,412.5976563,293.9453125
10.5200,869.140625,408.203125,312.0117188
10.5250,870.6054688,407.2265625,292.96875
10.5300,861.328125,407.7148438,309.5703125
10.5350,865.7226563,416.9921875,305.1757813
10.5400,867.6757813,426.2695313,308.59375
10.5450,856.9335938,404.7851563,323.2421875
10.5500,854.4921875,388.671875,319.8242188
10.5550,870.6054688,407.7148438,304.1992188
10.5600,875.4882813,418.4570313,325.1953125
10.5650,865.7226563,423.3398438,327.6367188
10.5700,858.3984375,422.8515625,313.9648438
10.5750,860.8398438,411.6210938,320.8007813
10.5800,863.7695313,396.484375,317.8710938
10.5850,874.5117188,396.484375,311.0351563
10.5900,873.046875,399.4140625,323.7304688
10.5950,875,406.7382813,325.6835938
10.6000,876.953125,410.15625,312.0117188
10.6050,868.1640625,394.0429688,316.40625
10.6100,860.3515625,400.8789063,301.7578125
10.6150,855.9570313,418.4570313,310.0585938
10.6200,852.5390625,398.9257813,319.3359375
10.6250,869.140625,387.2070313,312.5
10.6300,871.5820313,368.6523438,292.96875
10.6350,876.4648438,357.421875,312.9882813
10.6400,874.0234375,372.5585938,295.8984375
10.6450,864.2578125,392.0898438,290.5273438
10.6500,865.7226563,431.640625,306.1523438
10.6550,852.5390625,434.0820313,305.6640625
10.6600,849.1210938,416.5039063,329.5898438
10.6650,864.7460938,406.25,308.59375
10.6700,861.328125,395.9960938,306.1523438
10.6750,862.3046875,387.6953125,297.3632813
10.6800,863.7695313,380.3710938,291.015625
10.6850,870.1171875,363.28125,286.1328125
10.6900,862.3046875,353.0273438,290.0390625
10.6950,866.2109375,377.4414063,284.1796875
10.7000,865.234375,414.0625,277.8320313
10.7050,858.3984375,398.4375,291.5039063
10.7100,858.8867188,380.3710938,280.7617188
10.7150,858.3984375,357.421875,284.1796875
10.7200,851.0742188,360.8398438,274.4140625
10.7250,846.6796875,383.3007813,267.0898438
10.7300,857.9101563,398.9257813,283.203125
10.7350,859.375,391.1132813,283.6914063
10.7400,860.3515625,378.4179688,277.34375
10.7450,864.2578125,364.2578125,263.671875
10.7500,863.28125,355.9570313,274.9023438
10.7550,859.8632813,349.609375,272.4609375
10.7600,870.6054688,344.7265625,268.5546875
10.7650,871.09375,353.515625,270.5078125
10.7700,870.6054688,357.421875,291.9921875
10.7750,862.3046875,353.515625,278.8085938
10.7800,864.7460938,384.765625,292.4804688
10.7850,852.5390625,384.765625,307.6171875
10.7900,857.421875,383.3007813,315.9179688
10.7950,855.9570313,364.7460938,304.1992188
10.8000,855.9570313,372.5585938,304.6875
10.8050,848.1445313,362.7929688,325.6835938
10.8100,842.2851563,348.1445313,304.1992188
10.8150,854.4921875,343.2617188,292.4804688
10.8200,856.4453125,357.9101563,301.7578125
10.8250,852.0507813,372.0703125,286.1328125
10.8300,844.2382813,364.7460938,285.6445313
10.8350,848.1445313,355.9570313,281.7382813
10.8400,849.1210938,342.7734375,274.4140625
10.8450,867.6757813,344.7265625,259.2773438
10.8500,871.09375,347.1679688,271.484375
10.8550,871.5820313,351.5625,275.8789063
10.8600,867.1875,342.7734375,283.6914063
10.8650,871.5820313,342.7734375,275.390625
10.8700,873.5351563,352.0507813,286.6210938
10.8750,875,358.3984375,291.5039063
10.8800,871.09375,359.8632813,300.78125
10.8850,869.6289063,356.4453125,294.921875
10.8900,855.46875,332.03125,296.875
10.8950,872.0703125,335.9375,296.875
10.9000,864.7460938,336.9140625,297.8515625
10.9050,862.3046875,352.5390625,291.9921875
10.9100,854.0039063,380.3710938,301.2695313
10.9150,839.84375,379.3945313,291.9921875
10.9200,838.8671875,379.8828125,294.921875
10.9250,840.8203125,375,285.15625
10.9300,846.6796875,372.5585938,279.296875
10.9350,845.703125,364.7460938,271.9726563
10.9400,841.796875,368.1640625,268.0664063
10.9450,844.7265625,368.1640625,277.8320313
10.9500,847.1679688,369.6289063,266.1132813
10.9550,847.65625,364.2578125,266.1132813
10.9600,847.1679688,365.234375,264.6484375
10.9650,848.1445313,361.8164063,270.5078125
10.9700,838.8671875,362.3046875,276.8554688
10.9750,840.3320313,382.3242188,274.4140625
10.9800,834.4726563,385.7421875,280.7617188
10.9850,832.03125,367.1875,290.5273438
10.9900,830.5664063,341.796875,282.2265625
10.9950,842.7734375,345.703125,286.6210938
11.0000,846.6796875,374.5117188,284.1796875
11.0050,835.4492188,397.9492188,294.921875
11.0100,820.3125,401.8554688,292.4804688
11.0150,826.6601563,397.4609375,293.9453125
11.0200,825.1953125,397.9492188,288.5742188
11.0250,835.9375,403.3203125,285.15625
11.0300,828.6132813,398.9257813,290.0390625
11.0350,835.4492188,389.6484375,281.7382813
11.0400,828.6132813,381.8359375,278.3203125
11.0450,823.7304688,394.53125,266.1132813
11.0500,821.7773438,421.3867188,281.7382813
11.0550,824.7070313,432.1289063,289.5507813
11.0600,818.8476563,421.875,276.8554688
11.0650,822.7539063,423.3398438,288.5742188
11.0700,826.6601563,430.1757813,276.3671875
11.0750,829.1015625,427.2460938,271.484375
11.0800,819.3359375,429.1992188,278.8085938
11.0850,823.2421875,434.5703125,294.921875
11.0900,830.5664063,452.6367188,291.015625
11.0950,834.4726563,458.4960938,280.7617188
11.1000,834.9609375,472.1679688,295.4101563
11.1050,829.1015625,465.3320313,301.7578125
11.1100,814.9414063,463.3789063,300.78125
11.1150,818.359375,455.078125,291.5039063
11.1200,824.7070313,452.6367188,272.4609375
11.1250,824.7070313,462.890625,277.34375
11.1300,815.4296875,465.8203125,281.7382813
11.1350,807.1289063,461.4257813,278.8085938
11.1400,818.359375,477.0507813,276.8554688
11.1450,815.9179688,470.703125,280.2734375
11.1500,817.8710938,485.3515625,281.7382813
11.1550,816.40625,489.2578125,280.7617188
11.1600,813.9648438,496.5820313,277.34375
11.1650,805.6640625,495.6054688,288.5742188
11.1700,809.0820313,507.3242188,277.8320313
11.1750,806.640625,498.5351563,280.2734375
11.1800,807.1289063,497.5585938,291.9921875
11.1850,815.9179688,497.0703125,296.3867188
11.1900,806.1523438,496.09375,286.1328125
11.1950,809.0820313,518.0664063,271.9726563
11.2000,802.2460938,542.4804688,277.34375
11.2050,782.7148438,536.1328125,284.6679688
11.2100,783.6914063,536.1328125,282.2265625
11.2150,786.6210938,525.390625,277.8320313
11.2200,787.109375,506.3476563,279.7851563
11.2250,792.4804688,510.2539063,263.671875
11.2300,794.921875,522.4609375,269.0429688
11.2350,792.4804688,546.875,274.4140625
11.2400,768.5546875,568.359375,277.8320313
11.2450,772.4609375,579.5898438,282.7148438
11.2500,779.7851563,570.3125,281.25
11.2550,787.5976563,567.8710938,277.34375
11.2600,779.7851563,554.6875,288.5742188
11.2650,782.2265625,563.9648438,287.109375
11.2700,771.484375,564.9414063,284.6679688
11.2750,769.53125,568.8476563,281.25
11.2800,760.7421875,571.2890625,274.9023438
11.2850,766.1132813,575.1953125,277.34375
11.2900,761.2304688,575.6835938,296.875
11.2950,757.3242188,576.6601563,270.0195313
11.3000,747.5585938,572.265625,287.109375
11.3050,749.0234375,575.6835938,292.96875
11.3100,740.234375,590.8203125,284.6679688
11.3150,750.4882813,610.3515625,293.4570313
11.3200,740.7226563,620.1171875,290.0390625
11.3250,734.8632813,622.0703125,284.6679688
11.3300,741.6992188,609.375,288.5742188
11.3350,730.9570313,582.5195313,274.4140625
11.3400,731.9335938,580.5664063,274.9023438
11.3450,728.0273438,579.1015625,268.0664063
11.3500,726.5625,590.8203125,263.1835938
11.3550,723.6328125,596.6796875,272.4609375
11.3600,719.2382813,612.7929688,260.7421875
11.3650,709.4726563,605.9570313,262.2070313
11.3700,712.4023438,604.9804688,269.0429688
11.3750,714.3554688,604.9804688,270.9960938
11.3800,696.7773438,602.0507813,264.6484375
11.3850,690.4296875,620.6054688,270.0195313
11.3900,682.6171875,620.6054688,275.390625
11.3950,680.6640625,624.0234375,279.296875
11.4000,676.2695313,620.6054688,275.8789063
11.4050,675.78125,640.625,280.7617188
11.4100,673.828125,654.7851563,287.5976563
11.4150,672.8515625,656.7382813,286.6210938
11.4200,663.0859375,662.5976563,274.9023438
11.4250,655.2734375,658.6914063,274.4140625
11.4300,651.3671875,665.5273438,267.578125
11.4350,632.3242188,640.1367188,263.1835938
11.4400,635.2539063,629.8828125,268.0664063
11.4450,643.5546875,631.3476563,251.4648438
11.4500,648.9257813,645.0195313,253.90625
11.4550,649.9023438,650.8789063,266.6015625
11.4600,636.71875,653.3203125,269.0429688
11.4650,634.765625,667.4804688,279.296875
11.4700,627.9296875,690.9179688,270.9960938
11.4750,619.140625,710.4492188,269.0429688
11.4800,611.328125,714.3554688,281.7382813
11.4850,611.328125,708.4960938,297.3632813
11.4900,604.0039063,685.546875,292.4804688
11.4950,609.375,681.640625,274.9023438
11.5000,603.0273438,690.4296875,265.625
11.5050,603.515625,722.65625,250.9765625
11.5100,581.0546875,730.46875,268.5546875
11.5150,570.8007813,720.703125,271.484375
11.5200,567.8710938,690.4296875,295.4101563
11.5250,568.8476563,666.9921875,264.6484375
11.5300,579.1015625,681.640625,270.5078125
11.5350,591.796875,711.9140625,268.5546875
11.5400,578.125,733.8867188,284.1796875
11.5450,558.1054688,738.28125,292.96875
11.5500,543.9453125,740.234375,281.25
11.5550,543.9453125,732.421875,280.7617188
11.5600,553.7109375,740.7226563,284.6679688
11.5650,553.2226563,736.8164063,279.296875
11.5700,551.7578125,752.4414063,271.484375
11.5750,540.0390625,766.1132813,270.9960938
11.5800,520.0195313,779.296875,285.6445313
11.5850,515.625,782.7148438,269.53125
11.5900,516.6015625,780.7617188,279.7851563
11.5950,514.6484375,760.7421875,278.3203125
11.6000,522.9492188,762.2070313,269.53125
11.6050,520.5078125,759.765625,252.4414063
11.6100,513.671875,777.8320313,269.0429688
11.6150,493.1640625,794.4335938,262.6953125
11.6200,483.8867188,819.8242188,274.9023438
11.6250,484.8632813,835.9375,290.0390625
11.6300,479.0039063,809.5703125,285.6445313
11.6350,486.8164063,791.9921875,294.4335938
11.6400,496.5820313,782.2265625,276.8554688
11.6450,490.7226563,791.5039063,257.3242188
11.6500,485.8398438,824.7070313,263.1835938
11.6550,470.703125,846.1914063,266.1132813
11.6600,454.1015625,854.9804688,275.8789063
11.6650,449.7070313,849.1210938,277.34375
11.6700,459.9609375,851.5625,268.0664063
11.6750,462.4023438,859.8632813,266.1132813
11.6800,449.21875,863.7695313,287.109375
11.6850,444.3359375,856.4453125,270.5078125
11.6900,444.3359375,854.9804688,272.4609375
11.6950,435.0585938,829.1015625,272.4609375
11.7000,424.3164063,807.1289063,265.1367188
11.7050,422.3632813,828.125,266.1132813
11.7100,414.5507813,863.7695313,271.9726563
11.7150,409.1796875,886.71875,292.96875
11.7200,404.296875,886.2304688,293.4570313
11.7250,396.9726563,872.0703125,291.015625
11.7300,397.4609375,875.4882813,278.3203125
11.7350,389.1601563,883.3007813,279.296875
11.7400,366.6992188,895.9960938,289.0625
11.7450,365.234375,902.8320313,282.2265625
11.7500,367.1875,895.9960938,288.0859375
11.7550,348.6328125,885.7421875,254.8828125
11.7600,351.5625,904.7851563,254.8828125
11.7650,348.1445313,895.9960938,265.625
11.7700,334.9609375,874.5117188,280.7617188
11.7750,336.4257813,861.8164063,265.625
11.7800,343.2617188,861.328125,280.2734375
11.7850,334.9609375,869.140625,276.3671875
11.7900,325.6835938,893.5546875,275.390625
11.7950,320.3125,913.5742188,288.5742188
11.8000,312.9882813,923.828125,295.4101563
11.8050,306.640625,905.7617188,291.5039063
11.8100,292.96875,902.8320313,284.1796875
11.8150,291.015625,905.2734375,267.578125
11.8200,292.96875,923.828125,266.6015625
11.8250,289.5507813,932.6171875,278.3203125
11.8300,272.4609375,934.0820313,276.3671875
11.8350,269.53125,933.1054688,268.0664063
11.8400,269.53125,945.8007813,270.0195313
11.8450,248.5351563,956.0546875,263.671875
11.8500,225.0976563,958.0078125,269.53125
11.8550,226.5625,955.078125,284.6679688
11.8600,229.0039063,924.3164063,286.1328125
11.8650,222.65625,890.625,266.1132813
11.8700,227.0507813,901.8554688,255.3710938
11.8750,227.5390625,932.1289063,246.09375
11.8800,201.171875,943.359375,265.1367188
11.8850,183.59375,938.4765625,261.2304688
11.8900,188.4765625,931.1523438,267.578125
11.8950,194.8242188,927.2460938,252.4414063
11.9000,191.8945313,934.0820313,258.3007813
11.9050,189.9414063,967.7734375,248.5351563
11.9100,177.2460938,981.4453125,279.7851563
11.9150,166.015625,971.6796875,251.953125
11.9200,169.921875,970.703125,256.3476563
11.9250,160.6445313,960.4492188,263.1835938
11.9300,138.1835938,966.3085938,257.3242188
11.9350,127.4414063,977.0507813,262.6953125
11.9400,125,968.75,276.3671875
11.9450,127.9296875,933.1054688,276.3671875
11.9500,147.9492188,916.5039063,266.6015625
11.9550,152.34375,925.2929688,251.953125
11.9600,123.5351563,948.7304688,254.3945313
11.9650,94.7265625,971.6796875,252.4414063
11.9700,83.0078125,967.2851563,269.0429688
11.9750,90.33203125,945.8007813,243.6523438
11.9800,110.3515625,953.125,244.6289063
11.9850,107.9101563,972.65625,242.1875
11.9900,95.21484375,995.6054688,251.4648438
11.9950,89.35546875,1005.859375,261.2304688
12.0000,76.66015625,997.5585938,281.25
12.0050,67.87109375,978.0273438,279.296875
12.0100,55.17578125,958.0078125,266.1132813
12.0150,54.6875,959.4726563,255.3710938
12.0200,49.31640625,958.0078125,250
12.0250,45.8984375,948.2421875,267.578125
12.0300,35.64453125,932.1289063,257.3242188
12.0350,34.1796875,933.1054688,255.859375
12.0400,25.87890625,927.2460938,254.3945313
12.0450,21.97265625,921.3867188,250.9765625
12.0500,9.765625,908.203125,252.4414063
12.0550,19.04296875,932.6171875,219.7265625
12.0600,13.671875,960.9375,242.6757813
12.0650,22.94921875,1002.441406,242.1875
12.0700,16.11328125,1003.90625,251.953125
12.0750,-2.9296875,977.5390625,266.1132813
12.0800,-9.765625,964.84375,270.5078125
12.0850,-14.16015625,961.4257813,271.484375
12.0900,-11.71875,969.7265625,271.484375
12.0950,-15.13671875,978.0273438,278.8085938
12.1000,-38.0859375,963.8671875,277.8320313
12.1050,-49.8046875,979.4921875,281.25
12.1100,-66.40625,984.8632813,283.6914063
12.1150,-85.9375,982.421875,264.6484375
12.1200,-99.12109375,992.6757813,278.8085938
12.1250,-100.5859375,1017.578125,268.5546875
12.1300,-118.1640625,1020.507813,278.3203125
12.1350,-130.3710938,1000.488281,267.578125
12.1400,-137.2070313,980.9570313,272.9492188
12.1450,-137.6953125,978.0273438,250.9765625
12.1500,-128.90625,987.7929688,246.09375
12.1550,-132.3242188,982.421875,246.5820313
12.1600,-144.0429688,969.2382813,243.1640625
12.1650,-159.6679688,937.5,227.5390625
12.1700,-161.1328125,924.8046875,233.8867188
12.1750,-161.1328125,925.78125,223.6328125
12.1800,-158.6914063,952.1484375,218.2617188
12.1850,-173.3398438,965.3320313,221.1914063
12.1900,-187.0117188,958.4960938,222.1679688
12.1950,-184.5703125,962.4023438,231.4453125
12.2000,-187.5,965.8203125,233.8867188
12.2050,-189.9414063,959.4726563,234.375
12.2100,-198.2421875,960.4492188,232.9101563
12.2150,-201.6601563,965.8203125,227.0507813
12.2200,-219.2382813,954.1015625,237.3046875
12.2250,-239.2578125,950.6835938,249.0234375
12.2300,-246.09375,955.078125,237.3046875
12.2350,-246.5820313,950.6835938,249.0234375
12.2400,-247.5585938,936.5234375,252.4414063
12.2450,-241.6992188,927.734375,250
12.2500,-232.9101563,945.3125,233.3984375
12.2550,-234.375,967.7734375,223.6328125
12.2600,-251.953125,972.65625,231.9335938
12.2650,-265.1367188,946.2890625,249.5117188
12.2700,-278.3203125,917.96875,238.28125
12.2750,-278.8085938,921.875,234.8632813
12.2800,-270.9960938,961.9140625,248.046875
12.2850,-272.4609375,990.7226563,242.1875
12.2900,-266.6015625,991.6992188,261.71875
12.2950,-282.7148438,945.3125,249.0234375
12.3000,-303.2226563,905.2734375,237.3046875
12.3050,-305.6640625,907.7148438,218.75
12.3100,-300.78125,947.265625,215.3320313
12.3150,-313.9648438,959.4726563,213.8671875
12.3200,-308.59375,948.2421875,226.0742188
12.3250,-308.1054688,910.6445313,226.0742188
12.3300,-306.640625,887.6953125,204.5898438
12.3350,-321.7773438,887.2070313,189.9414063
12.3400,-330.078125,911.1328125,200.6835938
12.3450,-343.2617188,924.8046875,193.359375
12.3500,-348.6328125,927.734375,207.03125
12.3550,-347.1679688,937.5,209.4726563
12.3600,-354.4921875,938.9648438,218.2617188
12.3650,-367.1875,937.0117188,237.3046875
12.3700,-373.046875,936.5234375,222.65625
12.3750,-387.6953125,931.640625,221.6796875
12.3800,-387.2070313,921.3867188,218.2617188
12.3850,-392.0898438,891.6015625,216.3085938
12.3900,-398.4375,856.4453125,211.4257813
12.3950,-402.8320313,840.3320313,195.8007813
12.4000,-415.5273438,848.6328125,195.8007813
12.4050,-426.2695313,866.6992188,192.8710938
12.4100,-431.640625,895.5078125,186.5234375
12.4150,-443.359375,906.7382813,189.453125
12.4200,-455.078125,900.390625,202.1484375
12.4250,-451.171875,887.6953125,188.4765625
12.4300,-444.3359375,882.8125,184.5703125
12.4350,-436.5234375,908.6914063,183.1054688
12.4400,-460.9375,920.4101563,203.125
12.4450,-479.4921875,903.8085938,218.75
12.4500,-494.140625,883.3007813,221.1914063
12.4550,-493.6523438,855.9570313,212.4023438
12.4600,-490.7226563,846.1914063,220.703125
12.4650,-501.953125,838.8671875,200.6835938
12.4700,-508.3007813,853.0273438,194.3359375
12.4750,-512.2070313,849.609375,208.0078125
12.4800,-518.0664063,846.1914063,193.8476563
12.4850,-525.390625,841.796875,183.1054688
12.4900,-525.8789063,863.7695313,176.7578125
12.4950,-521.9726563,878.90625,153.3203125
12.5000,-523.4375,896.484375,166.5039063
12.5050,-523.4375,925.2929688,173.3398438
12.5100,-526.3671875,924.3164063,193.8476563
12.5150,-538.5742188,895.9960938,210.9375
12.5200,-547.3632813,862.3046875,197.7539063
12.5250,-551.7578125,836.4257813,203.6132813
12.5300,-544.921875,841.796875,207.5195313
12.5350,-554.6875,829.5898438,195.8007813
12.5400,-562.5,811.0351563,199.7070313
12.5450,-569.3359375,793.9453125,189.453125
12.5500,-571.7773438,782.7148438,192.8710938
12.5550,-567.3828125,786.6210938,182.1289063
12.5600,-572.7539063,800.78125,171.3867188
12.5650,-586.4257813,808.1054688,178.7109375
12.5700,-589.3554688,827.1484375,169.4335938
12.5750,-579.1015625,842.2851563,161.6210938
12.5800,-576.171875,852.0507813,162.5976563
12.5850,-566.40625,866.2109375,174.8046875
12.5900,-579.1015625,854.4921875,186.0351563
12.5950,-589.84375,834.9609375,181.640625
12.6000,-601.0742188,805.1757813,196.7773438
12.6050,-601.0742188,782.2265625,200.1953125
12.6100,-610.3515625,763.1835938,208.0078125
12.6150,-626.4648438,737.3046875,196.2890625
12.6200,-626.953125,760.2539063,190.9179688
12.6250,-640.1367188,756.8359375,197.7539063
12.6300,-634.765625,770.5078125,206.0546875
12.6350,-642.578125,763.1835938,194.8242188
12.6400,-658.6914063,770.9960938,185.546875
12.6450,-661.6210938,792.96875,165.0390625
12.6500,-654.296875,827.6367188,150.8789063
12.6550,-659.1796875,827.6367188,143.0664063
12.6600,-660.15625,803.7109375,159.1796875
12.6650,-663.5742188,770.5078125,169.4335938
12.6700,-685.0585938,740.7226563,162.109375
12.6750,-692.8710938,744.140625,170.8984375
12.6800,-708.0078125,753.4179688,177.734375
12.6850,-702.6367188,754.3945313,173.3398438
12.6900,-702.1484375,735.3515625,180.6640625
12.6950,-706.5429688,697.7539063,181.640625
12.7000,-714.3554688,675.78125,183.59375
12.7050,-729.4921875,656.7382813,179.6875
12.7100,-740.234375,659.1796875,162.5976563
12.7150,-751.4648438,660.6445313,154.7851563
12.7200,-743.6523438,694.3359375,153.8085938
12.7250,-751.953125,701.171875,139.1601563
12.7300,-756.8359375,707.03125,132.8125
12.7350,-748.046875,729.0039063,117.6757813
12.7400,-744.6289063,750.9765625,136.2304688
12.7450,-728.0273438,742.1875,132.3242188
12.7500,-715.3320313,748.5351563,121.5820313
12.7550,-712.4023438,742.1875,112.7929688
12.7600,-720.703125,727.5390625,125.9765625
12.7650,-736.328125,705.078125,150.390625
12.7700,-761.2304688,672.8515625,146.484375
12.7750,-750,670.4101563,166.9921875
12.7800,-757.8125,645.9960938,162.109375
12.7850,-750.9765625,630.3710938,169.4335938
12.7900,-761.71875,616.6992188,160.15625
12.7950,-768.0664063,606.9335938,157.7148438
12.8000,-770.5078125,600.0976563,162.109375
12.8050,-772.9492188,607.9101563,153.8085938
12.8100,-788.5742188,616.6992188,136.71875
12.8150,-783.203125,636.2304688,122.5585938
12.8200,-789.0625,656.25,121.5820313
12.8250,-799.8046875,655.2734375,123.5351563
12.8300,-804.6875,665.5273438,119.140625
12.8350,-812.0117188,682.6171875,120.1171875
12.8400,-790.5273438,677.734375,134.765625
12.8450,-773.4375,648.4375,127.4414063
12.8500,-775.390625,637.6953125,112.3046875
12.8550,-803.2226563,616.6992188,127.9296875
12.8600,-819.3359375,593.2617188,133.7890625
12.8650,-813.9648438,576.171875,137.6953125
12.8700,-812.0117188,562.5,138.671875
12.8750,-819.3359375,546.875,138.671875
12.8800,-835.9375,542.4804688,131.3476563
12.8850,-845.2148438,546.3867188,133.3007813
12.8900,-856.4453125,533.6914063,128.90625
12.8950,-868.6523438,541.5039063,123.046875
12.9000,-860.3515625,554.1992188,118.6523438
12.9050,-857.421875,565.4296875,113.28125
12.9100,-845.703125,570.3125,120.6054688
12.9150,-845.703125,576.6601563,104.4921875
12.9200,-853.515625,578.125,107.421875
12.9250,-861.328125,584.9609375,98.14453125
12.9300,-853.0273438,582.5195313,110.3515625
12.9350,-838.8671875,580.5664063,104.0039063
12.9400,-844.2382813,569.8242188,106.4453125
12.9450,-852.0507813,555.1757813,126.4648438
12.9500,-865.7226563,532.2265625,121.09375
12.9550,-854.4921875,510.7421875,119.140625
12.9600,-854.9804688,492.6757813,122.5585938
12.9650,-858.8867188,485.8398438,119.140625
12.9700,-863.7695313,491.6992188,130.3710938
12.9750,-870.6054688,491.6992188,118.1640625
12.9800,-879.3945313,486.8164063,128.90625
12.9850,-892.578125,486.8164063,120.6054688
12.9900,-888.1835938,495.6054688,116.2109375
12.9950,-896.484375,495.1171875,123.046875
13.0000,-892.0898438,507.8125,105.46875
13.0050,-890.625,521.9726563,104.0039063
13.0100,-877.9296875,524.9023438,94.23828125
13.0150,-870.1171875,527.8320313,93.26171875
13.0200,-875,505.859375,104.4921875
13.0250,-890.1367188,477.0507813,97.65625
13.0300,-893.0664063,464.3554688,106.9335938
13.0350,-896.484375,453.125,113.7695313
13.0400,-898.9257813,439.9414063,119.140625
13.0450,-895.0195313,443.359375,105.9570313
13.0500,-903.3203125,429.1992188,117.1875
13.0550,-895.0195313,427.734375,111.8164063
13.0600,-913.0859375,409.1796875,127.9296875
13.0650,-917.4804688,414.0625,122.5585938
13.0700,-924.8046875,414.5507813,124.5117188
13.0750,-923.3398438,421.875,104.9804688
13.0800,-918.9453125,430.6640625,107.9101563
13.0850,-914.0625,421.875,107.9101563
13.0900,-919.4335938,431.640625,104.0039063
13.0950,-925.78125,428.2226563,98.14453125
13.1000,-912.109375,443.8476563,100.0976563
13.1050,-911.1328125,437.9882813,101.0742188
13.1100,-914.5507813,430.1757813,91.796875
13.1150,-916.5039063,429.1992188,85.9375
13.1200,-916.9921875,428.7109375,101.5625
13.1250,-918.9453125,436.5234375,99.609375
13.1300,-926.2695313,422.3632813,121.09375
13.1350,-927.2460938,408.6914063,106.9335938
13.1400,-937.0117188,389.6484375,113.7695313
13.1450,-933.59375,388.671875,122.5585938
13.1500,-924.3164063,395.0195313,112.7929688
13.1550,-927.734375,392.578125,125.4882813
13.1600,-930.6640625,384.765625,115.234375
13.1650,-935.0585938,384.2773438,128.4179688
13.1700,-926.7578125,385.2539063,121.09375
13.1750,-928.2226563,381.8359375,122.0703125
13.1800,-933.59375,388.1835938,103.0273438
13.1850,-932.6171875,392.578125,116.2109375
13.1900,-926.7578125,396.484375,117.1875
13.1950,-919.4335938,395.9960938,105.46875
13.2000,-925.2929688,387.2070313,116.6992188
13.2050,-921.875,380.3710938,101.0742188
13.2100,-916.5039063,371.5820313,100.5859375
13.2150,-916.9921875,369.140625,94.7265625
13.2200,-930.6640625,366.2109375,92.28515625
13.2250,-938.9648438,374.5117188,107.421875
13.2300,-946.7773438,377.9296875,117.6757813
13.2350,-947.265625,371.5820313,129.3945313
13.2400,-948.7304688,364.7460938,126.4648438
13.2450,-942.3828125,355.46875,139.6484375
13.2500,-951.171875,354.9804688,128.4179688
13.2550,-949.21875,351.5625,140.625
13.2600,-952.1484375,337.890625,129.8828125
13.2650,-947.7539063,340.8203125,123.5351563
13.2700,-958.0078125,324.7070313,117.1875
13.2750,-952.1484375,321.7773438,106.9335938
13.2800,-948.7304688,317.8710938,107.9101563
13.2850,-965.8203125,297.3632813,118.6523438
13.2900,-962.890625,295.8984375,108.3984375
13.2950,-967.7734375,284.6679688,108.3984375
13.3000,-969.2382813,288.5742188,110.3515625
13.3050,-964.3554688,280.2734375,108.3984375
13.3100,-966.3085938,276.8554688,112.3046875
13.3150,-967.7734375,268.0664063,110.3515625
13.3200,-975.0976563,253.90625,105.46875
13.3250,-977.5390625,235.8398438,107.421875
13.3300,-973.6328125,228.515625,86.9140625
13.3350,-964.84375,233.3984375,76.66015625
13.3400,-960.9375,243.6523438,64.94140625
13.3450,-948.7304688,261.2304688,45.8984375
13.3500,-958.984375,258.3007813,53.22265625
13.3550,-955.5664063,255.859375,45.8984375
13.3600,-961.9140625,262.2070313,37.59765625
13.3650,-967.2851563,261.2304688,37.59765625
13.3700,-961.4257813,275.390625,35.15625
13.3750,-966.796875,282.2265625,47.36328125
13.3800,-974.609375,287.5976563,46.875
13.3850,-963.3789063,292.4804688,50.78125
13.3900,-966.3085938,287.5976563,55.17578125
13.3950,-973.1445313,288.0859375,65.91796875
13.4000,-976.5625,285.15625,62.01171875
13.4050,-978.515625,276.3671875,69.3359375
13.4100,-979.9804688,270.0195313,90.33203125
13.4150,-980.46875,264.1601563,87.40234375
13.4200,-985.3515625,250.4882813,99.12109375
13.4250,-981.9335938,241.6992188,98.6328125
13.4300,-978.0273438,241.6992188,114.7460938
13.4350,-978.515625,231.9335938,107.421875
13.4400,-971.1914063,232.9101563,111.328125
13.4450,-973.1445313,219.2382813,113.7695313
13.4500,-976.5625,219.2382813,106.9335938
13.4550,-979.4921875,226.5625,98.14453125
13.4600,-977.5390625,232.9101563,102.0507813
13.4650,-968.2617188,235.3515625,99.609375
13.4700,-973.1445313,237.7929688,92.7734375
13.4750,-971.6796875,244.140625,93.26171875
13.4800,-984.375,250.9765625,86.42578125
13.4850,-983.8867188,259.2773438,95.21484375
13.4900,-981.4453125,271.9726563,93.26171875
13.4950,-984.8632813,270.9960938,62.98828125
13.5000,-975.0976563,281.25,84.9609375
13.5050,-981.9335938,263.1835938,54.19921875
13.5100,-982.9101563,272.9492188,57.6171875
13.5150,-980.46875,285.6445313,57.12890625
13.5200,-981.4453125,296.3867188,51.7578125
13.5250,-974.609375,290.0390625,48.33984375
13.5300,-972.65625,291.015625,46.38671875
13.5350,-968.2617188,287.109375,42.96875
13.5400,-964.3554688,293.4570313,43.9453125
13.5450,-970.703125,292.4804688,47.36328125
13.5500,-967.2851563,299.8046875,50.78125
13.5550,-959.4726563,280.7617188,69.3359375
13.5600,-961.9140625,275.390625,64.453125
13.5650,-964.3554688,271.484375,70.80078125
13.5700,-963.3789063,271.484375,69.82421875
13.5750,-967.7734375,263.671875,69.3359375
13.5800,-962.4023438,271.484375,84.9609375
13.5850,-961.9140625,267.0898438,80.078125
13.5900,-974.609375,264.1601563,91.796875
13.5950,-967.7734375,276.3671875,90.33203125
13.6000,-976.5625,280.2734375,90.8203125
13.6050,-970.2148438,287.5976563,85.9375
13.6100,-979.9804688,279.7851563,97.16796875
13.6150,-978.0273438,288.0859375,100.0976563
13.6200,-985.8398438,287.109375,81.0546875
13.6250,-974.1210938,300.2929688,95.703125
13.6300,-975.5859375,304.6875,78.125
13.6350,-967.2851563,316.40625,80.56640625
13.6400,-970.703125,319.3359375,89.84375
13.6450,-970.2148438,317.8710938,97.16796875
13.6500,-972.1679688,308.1054688,89.35546875
13.6550,-974.1210938,299.3164063,95.703125
13.6600,-973.6328125,287.5976563,110.8398438
13.6650,-970.703125,294.4335938,94.7265625
13.6700,-984.375,300.78125,99.12109375
13.6750,-972.65625,309.5703125,116.6992188
13.6800,-968.2617188,291.015625,91.796875
13.6850,-962.890625,281.7382813,86.42578125
13.6900,-959.4726563,295.8984375,86.9140625
13.6950,-969.7265625,298.3398438,90.8203125
13.7000,-973.1445313,322.265625,98.6328125
13.7050,-961.9140625,334.4726563,96.19140625
13.7100,-957.03125,352.5390625,96.6796875
13.7150,-966.3085938,348.1445313,91.796875
13.7200,-964.3554688,348.1445313,96.19140625
13.7250,-970.2148438,349.609375,85.44921875
13.7300,-974.609375,354.9804688,87.890625
13.7350,-968.75,357.421875,85.9375
13.7400,-970.703125,361.8164063,79.1015625
13.7450,-958.4960938,366.6992188,88.8671875
13.7500,-960.9375,373.046875,86.9140625
13.7550,-951.171875,383.3007813,94.23828125
13.7600,-955.5664063,382.8125,88.8671875
13.7650,-966.3085938,384.2773438,105.9570313
13.7700,-958.0078125,397.4609375,96.6796875
13.7750,-956.5429688,402.34375,106.4453125
13.7800,-948.7304688,416.015625,106.4453125
13.7850,-947.265625,422.8515625,99.12109375
13.7900,-941.40625,436.5234375,102.0507813
13.7950,-934.5703125,450.1953125,111.328125
13.8000,-936.0351563,454.1015625,101.0742188
13.8050,-924.8046875,474.1210938,99.12109375
13.8100,-926.7578125,476.5625,106.4453125
13.8150,-923.828125,470.2148438,95.21484375
13.8200,-925.78125,476.0742188,104.9804688
13.8250,-921.875,476.5625,104.0039063
13.8300,-925.2929688,471.6796875,111.8164063
13.8350,-908.6914063,479.9804688,112.3046875
13.8400,-918.9453125,470.703125,104.0039063
13.8450,-915.5273438,478.0273438,119.6289063
13.8500,-909.6679688,482.421875,110.8398438
13.8550,-910.15625,484.375,104.4921875
13.8600,-904.7851563,487.3046875,102.0507813
13.8650,-905.2734375,500.9765625,104.0039063
13.8700,-904.7851563,508.3007813,115.234375
13.8750,-904.296875,514.6484375,101.0742188
13.8800,-904.296875,519.53125,107.421875
13.8850,-894.53125,527.8320313,106.9335938
13.8900,-895.5078125,527.34375,115.7226563
13.8950,-881.8359375,529.296875,106.4453125
13.9000,-881.3476563,520.5078125,99.12109375
13.9050,-883.3007813,522.4609375,91.796875
13.9100,-878.4179688,531.7382813,103.515625
13.9150,-880.3710938,544.921875,98.6328125
13.9200,-877.4414063,558.59375,96.19140625
13.9250,-877.4414063,560.546875,109.375
13.9300,-871.5820313,572.265625,108.3984375
13.9350,-873.5351563,570.8007813,109.8632813
13.9400,-869.140625,563.4765625,113.28125
13.9450,-873.5351563,563.9648438,114.7460938
13.9500,-864.2578125,572.265625,116.2109375
13.9550,-857.9101563,572.265625,115.7226563
13.9600,-856.9335938,570.3125,118.1640625
13.9650,-852.0507813,578.6132813,111.328125
13.9700,-848.1445313,586.9140625,109.375
13.9750,-838.3789063,585.9375,118.1640625
13.9800,-834.9609375,583.4960938,110.8398438
13.9850,-827.6367188,586.4257813,110.3515625
13.9900,-832.03125,586.9140625,112.3046875
13.9950,-833.984375,586.4257813,106.9335938
14.0000,-823.7304688,606.9335938,108.3984375
14.0050,-813.4765625,625.9765625,94.23828125
14.0100,-815.9179688,623.5351563,110.8398438
14.0150,-812.9882813,635.2539063,122.5585938
14.0200,-811.0351563,642.0898438,117.6757813
14.0250,-806.640625,645.5078125,123.046875
14.0300,-794.921875,651.8554688,121.5820313
14.0350,-791.9921875,649.9023438,124.5117188
14.0400,-790.5273438,647.4609375,121.09375
14.0450,-786.6210938,650.390625,114.7460938
14.0500,-773.4375,656.7382813,124.5117188
14.0550,-771.484375,652.34375,118.1640625
14.0600,-763.1835938,656.25,128.90625
14.0650,-770.5078125,658.203125,137.2070313
14.0700,-764.1601563,671.875,124.0234375
14.0750,-753.90625,670.8984375,120.6054688
14.0800,-744.6289063,677.734375,116.6992188
14.0850,-747.0703125,672.8515625,126.953125
14.0900,-746.5820313,687.5,132.8125
14.0950,-749.0234375,689.9414063,133.7890625
14.1000,-737.7929688,691.8945313,130.3710938
14.1050,-734.8632813,685.546875,129.8828125
14.1100,-733.3984375,685.546875,125
14.1150,-719.7265625,694.3359375,130.859375
14.1200,-714.84375,703.125,120.6054688
14.1250,-709.9609375,710.4492188,119.140625
14.1300,-711.4257813,712.4023438,128.90625
14.1350,-706.0546875,719.7265625,129.3945313
14.1400,-700.6835938,725.0976563,124.0234375
14.1450,-706.5429688,711.4257813,133.3007813
14.1500,-694.3359375,711.9140625,125.4882813
14.1550,-688.9648438,718.2617188,124.5117188
14.1600,-687.9882813,725.0976563,126.953125
14.1650,-685.0585938,737.3046875,127.9296875
14.1700,-667.96875,737.3046875,128.90625
14.1750,-658.6914063,735.8398438,132.8125
14.1800,-659.6679688,734.375,137.6953125
14.1850,-661.1328125,744.6289063,144.53125
14.1900,-656.25,750.4882813,149.9023438
