type,name,time_units,begin_time,frequency,count,units
signal,"Noraxon MyoMotion-Segments-Forearm RT-Roll","s",0.0000,200,5108,"deg"

time,value
0.0000,1.908593027
0.0050,1.908694991
0.0100,1.90879527
0.0150,1.908893866
0.0200,1.909125959
0.0250,1.909516004
0.0300,1.91008803
0.0350,1.91086466
0.0400,1.911866533
0.0450,1.913112055
0.0500,1.914617056
0.0550,1.916394525
0.0600,1.918454105
0.0650,1.920800857
0.0700,1.923433763
0.0750,1.926344354
0.0800,1.92951571
0.0850,1.932922095
0.0900,1.936529228
0.0950,1.94029541
0.1000,1.944173572
0.1050,1.94811321
0.1100,1.952061746
0.1150,1.955965913
0.1200,1.959773443
0.1250,1.963434674
0.1300,1.966904034
0.1350,1.970141636
0.1400,1.97311442
0.1450,1.975796442
0.1500,1.978168785
0.1550,1.982297831
0.1600,1.986180972
0.1650,1.989729592
0.1700,1.993015971
0.1750,1.995967137
0.1800,1.998742198
0.1850,2.001370076
0.1900,2.00369214
0.1950,2.00579728
0.2000,2.007744471
0.2050,2.009489071
0.2100,2.011169446
0.2150,2.012782728
0.2200,2.01441155
0.2250,2.016088219
0.2300,2.017702042
0.2350,2.019343992
0.2400,2.021081274
0.2450,2.022821798
0.2500,2.024555743
0.2550,2.026343175
0.2600,2.02812858
0.2650,2.029983619
0.2700,2.031701556
0.2750,2.033437628
0.2800,2.035106732
0.2850,2.036743099
0.2900,2.038496429
0.2950,2.040232755
0.3000,2.042156839
0.3050,2.044174423
0.3100,2.046392623
0.3150,2.048720968
0.3200,2.051161431
0.3250,2.053926369
0.3300,2.056813643
0.3350,2.059740395
0.3400,2.062865502
0.3450,2.066097682
0.3500,2.06940061
0.3550,2.072712595
0.3600,2.076140125
0.3650,2.079579245
0.3700,2.083080839
0.3750,2.086590968
0.3800,2.090132344
0.3850,2.093693761
0.3900,2.097186486
0.3950,2.100397242
0.4000,2.103337689
0.4050,2.10615605
0.4100,2.108731575
0.4150,2.110934025
0.4200,2.112828636
0.4250,2.114436853
0.4300,2.115736754
0.4350,2.116783743
0.4400,2.117675082
0.4450,2.118406239
0.4500,2.118853208
0.4550,2.119091116
0.4600,2.119211597
0.4650,2.119281913
0.4700,2.119487657
0.4750,2.119662049
0.4800,2.119989882
0.4850,2.120293875
0.4900,2.120864314
0.4950,2.121797308
0.5000,2.123038648
0.5050,2.124786455
0.5100,2.126834872
0.5150,2.129275854
0.5200,2.132035128
0.5250,2.135137027
0.5300,2.138619903
0.5350,2.142470969
0.5400,2.146616495
0.5450,2.151098122
0.5500,2.155870945
0.5550,2.161011404
0.5600,2.166463101
0.5650,2.172159643
0.5700,2.178133121
0.5750,2.184435047
0.5800,2.191106484
0.5850,2.197968425
0.5900,2.205199736
0.5950,2.212619254
0.6000,2.220198708
0.6050,2.227975754
0.6100,2.235956439
0.6150,2.244223938
0.6200,2.252529545
0.6250,2.261106346
0.6300,2.269909175
0.6350,2.279093085
0.6400,2.288409322
0.6450,2.297911782
0.6500,2.307680776
0.6550,2.317690944
0.6600,2.327818274
0.6650,2.338183755
0.6700,2.348497617
0.6750,2.358832432
0.6800,2.369136615
0.6850,2.379307212
0.6900,2.389394247
0.6950,2.399317117
0.7000,2.409016589
0.7050,2.418488744
0.7100,2.427754648
0.7150,2.436668498
0.7200,2.44533373
0.7250,2.453785997
0.7300,2.461860135
0.7350,2.469616206
0.7400,2.476879221
0.7450,2.483823777
0.7500,2.490514385
0.7550,2.496973928
0.7600,2.503120683
0.7650,2.508884016
0.7700,2.514345656
0.7750,2.519475432
0.7800,2.524373409
0.7850,2.529020948
0.7900,2.533301014
0.7950,2.537309929
0.8000,2.540862057
0.8050,2.544077826
0.8100,2.547003984
0.8150,2.549748248
0.8200,2.552366818
0.8250,2.554711421
0.8300,2.556922201
0.8350,2.559009863
0.8400,2.560908384
0.8450,2.562542283
0.8500,2.564128018
0.8550,2.565581881
0.8600,2.566906283
0.8650,2.568166674
0.8700,2.569479038
0.8750,2.570749282
0.8800,2.57195392
0.8850,2.573222773
0.8900,2.574293977
0.8950,2.575563122
0.9000,2.57693082
0.9050,2.578318246
0.9100,2.579861836
0.9150,2.581486808
0.9200,2.583226492
0.9250,2.584948781
0.9300,2.586785113
0.9350,2.588588682
0.9400,2.590578562
0.9450,2.592680914
0.9500,2.594825331
0.9550,2.597098857
0.9600,2.599475523
0.9650,2.601866588
0.9700,2.604519656
0.9750,2.607267727
0.9800,2.610179381
0.9850,2.613344959
0.9900,2.616606563
0.9950,2.62019343
1.0000,2.623926945
1.0050,2.627893567
1.0100,2.63212675
1.0150,2.636628243
1.0200,2.641328201
1.0250,2.646126785
1.0300,2.65125798
1.0350,2.656563206
1.0400,2.662065831
1.0450,2.667754513
1.0500,2.673514023
1.0550,2.679417043
1.0600,2.685280939
1.0650,2.691308111
1.0700,2.697333667
1.0750,2.703506548
1.0800,2.709732834
1.0850,2.716305844
1.0900,2.723322267
1.0950,2.73066633
1.1000,2.738456707
1.1050,2.746662607
1.1100,2.755374309
1.1150,2.764409841
1.1200,2.773552765
1.1250,2.783084072
1.1300,2.792828257
1.1350,2.802725873
1.1400,2.812916634
1.1450,2.823554664
1.1500,2.834372333
1.1550,2.845597071
1.1600,2.857460915
1.1650,2.870034325
1.1700,2.883520776
1.1750,2.898212876
1.1800,2.914238603
1.1850,2.932033553
1.1900,2.951792756
1.1950,2.973720902
1.2000,2.998092006
1.2050,3.025113388
1.2100,3.054672663
1.2150,3.086826394
1.2200,3.12167155
1.2250,3.158901077
1.2300,3.198448007
1.2350,3.240246845
1.2400,3.283965739
1.2450,3.329603155
1.2500,3.376933507
1.2550,3.425817463
1.2600,3.476150747
1.2650,3.52778053
1.2700,3.580330031
1.2750,3.633921272
1.2800,3.688309054
1.2850,3.743472053
1.2900,3.799624213
1.2950,3.8566301
1.3000,3.914679185
1.3050,3.97363566
1.3100,4.033422554
1.3150,4.094092595
1.3200,4.15578436
1.3250,4.218481163
1.3300,4.282053252
1.3350,4.346543448
1.3400,4.412092786
1.3450,4.478639023
1.3500,4.546243236
1.3550,4.614953003
1.3600,4.684972204
1.3650,4.756131649
1.3700,4.828682989
1.3750,4.902765733
1.3800,4.978516213
1.3850,5.055801027
1.3900,5.134785564
1.3950,5.215773372
1.4000,5.298747902
1.4050,5.383838848
1.4100,5.471164738
1.4150,5.560918499
1.4200,5.653468028
1.4250,5.748888552
1.4300,5.847241193
1.4350,5.94856474
1.4400,6.053060489
1.4450,6.160565542
1.4500,6.271427726
1.4550,6.385664186
1.4600,6.503341092
1.4650,6.624705535
1.4700,6.749834748
1.4750,6.878710879
1.4800,7.011652761
1.4850,7.148598302
1.4900,7.289897588
1.4950,7.435456465
1.5000,7.585448905
1.5050,7.739974539
1.5100,7.899542213
1.5150,8.064179948
1.5200,8.234172521
1.5250,8.409743368
1.5300,8.591034897
1.5350,8.778239162
1.5400,8.971616423
1.5450,9.171000996
1.5500,9.376470117
1.5550,9.587847498
1.5600,9.805187094
1.5650,10.02829804
1.5700,10.25732517
1.5750,10.49216814
1.5800,10.7327232
1.5850,10.97889104
1.5900,11.2305805
1.5950,11.48769697
1.6000,11.75019029
1.6050,12.01809599
1.6100,12.29149813
1.6150,12.57013468
1.6200,12.85397511
1.6250,13.14291187
1.6300,13.43698844
1.6350,13.73616532
1.6400,14.04022708
1.6450,14.34913201
1.6500,14.66283256
1.6550,14.98104597
1.6600,15.30353137
1.6650,15.63038548
1.6700,15.96119235
1.6750,16.29575106
1.6800,16.63352658
1.6850,16.97450864
1.6900,17.31841745
1.6950,17.66497339
1.7000,18.0140646
1.7050,18.36561608
1.7100,18.71937788
1.7150,19.07527823
1.7200,19.43307022
1.7250,19.79250457
1.7300,20.15349059
1.7350,20.515855
1.7400,20.87938926
1.7450,21.24402353
1.7500,21.60951904
1.7550,21.97573248
1.7600,22.34220333
1.7650,22.70886194
1.7700,23.0754251
1.7750,23.44197242
1.7800,23.80831061
1.7850,24.17430479
1.7900,24.53994222
1.7950,24.90526858
1.8000,25.27020741
1.8050,25.63468169
1.8100,25.99853579
1.8150,26.36190308
1.8200,26.72474008
1.8250,27.08712805
1.8300,27.44917699
1.8350,27.81090589
1.8400,28.17223105
1.8450,28.53320803
1.8500,28.89384078
1.8550,29.25426107
1.8600,29.61428317
1.8650,29.97409227
1.8700,30.33360264
1.8750,30.69262062
1.8800,31.05153483
1.8850,31.4101821
1.8900,31.76864666
1.8950,32.12692904
1.9000,32.4850702
1.9050,32.84285521
1.9100,33.20040478
1.9150,33.55812048
1.9200,33.91616898
1.9250,34.27469821
1.9300,34.63367273
1.9350,34.99333408
1.9400,35.3538337
1.9450,35.71533548
1.9500,36.0779354
1.9550,36.4419015
1.9600,36.80732833
1.9650,37.17428687
1.9700,37.54299631
1.9750,37.91350387
1.9800,38.28618538
1.9850,38.66082836
1.9900,39.03767509
1.9950,39.41670829
2.0000,39.79819265
2.0050,40.18196646
2.0100,40.56817714
2.0150,40.95664971
2.0200,41.34731934
2.0250,41.74028168
2.0300,42.13545876
2.0350,42.53288524
2.0400,42.93253387
2.0450,43.33443271
2.0500,43.7386878
2.0550,44.14542212
2.0600,44.55461506
2.0650,44.9663557
2.0700,45.38075772
2.0750,45.79769572
2.0800,46.21733898
2.0850,46.63988351
2.0900,47.06505753
2.0950,47.49276663
2.1000,47.92327897
2.1050,48.35625894
2.1100,48.79155304
2.1150,49.22913457
2.1200,49.66897545
2.1250,50.11097526
2.1300,50.55513347
2.1350,51.00152075
2.1400,51.44997772
2.1450,51.90082491
2.1500,52.35394436
2.1550,52.80955702
2.1600,53.26759122
2.1650,53.72808194
2.1700,54.19107832
2.1750,54.65646524
2.1800,55.123867
2.1850,55.5932784
2.1900,56.06484608
2.1950,56.53852352
2.2000,57.01438968
2.2050,57.49257887
2.2100,57.97315955
2.2150,58.45605626
2.2200,58.94134919
2.2250,59.42891797
2.2300,59.91878277
2.2350,60.41078329
2.2400,60.90512619
2.2450,61.40187775
2.2500,61.90095968
2.2550,62.402279
2.2600,62.90616912
2.2650,63.41244219
2.2700,63.92151014
2.2750,64.433492
2.2800,64.94867913
2.2850,65.46732742
2.2900,65.98926355
2.2950,66.51460527
2.3000,67.04310917
2.3050,67.57473417
2.3100,68.10959707
2.3150,68.64763027
2.3200,69.18886932
2.3250,69.73352562
2.3300,70.28150838
2.3350,70.83282487
2.3400,71.38719851
2.3450,71.94480287
2.3500,72.50544993
2.3550,73.0689016
2.3600,73.63564486
2.3650,74.20556875
2.3700,74.77867318
2.3750,75.35490598
2.3800,75.93411596
2.3850,76.5163032
2.3900,77.10131678
2.3950,77.68951141
2.4000,78.28018334
2.4050,78.87370202
2.4100,79.46990717
2.4150,80.06886452
2.4200,80.67051013
2.4250,81.27470869
2.4300,81.88138702
2.4350,82.49026559
2.4400,83.10128242
2.4450,83.71441347
2.4500,84.32957061
2.4550,84.94656874
2.4600,85.56531025
2.4650,86.18587157
2.4700,86.80785459
2.4750,87.43128432
2.4800,88.0562042
2.4850,88.68267167
2.4900,89.3103504
2.4950,89.93931366
2.5000,90.56944016
2.5050,91.20068252
2.5100,91.83270134
2.5150,92.46562902
2.5200,93.09886361
2.5250,93.73248271
2.5300,94.36648558
2.5350,95.00103225
2.5400,95.63596054
2.5450,96.2709617
2.5500,96.90587191
2.5550,97.5409655
2.5600,98.17602889
2.5650,98.81119855
2.5700,99.44603514
2.5750,100.0804749
2.5800,100.7143182
2.5850,101.3476439
2.5900,101.9803648
2.5950,102.6122518
2.6000,103.2428495
2.6050,103.8721341
2.6100,104.4998795
2.6150,105.126135
2.6200,105.7507656
2.6250,106.3735069
2.6300,106.993997
2.6350,107.6125584
2.6400,108.2289614
2.6450,108.8429083
2.6500,109.4544609
2.6550,110.0637418
2.6600,110.6704534
2.6650,111.2743231
2.6700,111.8751579
2.6750,112.473183
2.6800,113.0684592
2.6850,113.6607252
2.6900,114.2501517
2.6950,114.8360805
2.7000,115.4186497
2.7050,115.9979985
2.7100,116.5736268
2.7150,117.1455881
2.7200,117.7138508
2.7250,118.2785071
2.7300,118.8393937
2.7350,119.3965185
2.7400,119.9500835
2.7450,120.4998624
2.7500,121.0462073
2.7550,121.5888877
2.7600,122.1284306
2.7650,122.6644798
2.7700,123.1974234
2.7750,123.7272081
2.7800,124.2538829
2.7850,124.7775206
2.7900,125.2981445
2.7950,125.8155745
2.8000,126.3300009
2.8050,126.8413374
2.8100,127.34973
2.8150,127.8547233
2.8200,128.356371
2.8250,128.8547976
2.8300,129.3499417
2.8350,129.8418407
2.8400,130.3303252
2.8450,130.8154381
2.8500,131.2972526
2.8550,131.7757111
2.8600,132.2507314
2.8650,132.7222347
2.8700,133.1904785
2.8750,133.6551037
2.8800,134.1161892
2.8850,134.5735405
2.8900,135.0269262
2.8950,135.4762373
2.9000,135.9221877
2.9050,136.3642414
2.9100,136.802297
2.9150,137.2364108
2.9200,137.666784
2.9250,138.0931148
2.9300,138.5155143
2.9350,138.9337164
2.9400,139.3477165
2.9450,139.7577755
2.9500,140.1637974
2.9550,140.5655416
2.9600,140.9628813
2.9650,141.3559784
2.9700,141.7446761
2.9750,142.1285301
2.9800,142.507341
2.9850,142.8812752
2.9900,143.2504712
2.9950,143.6152232
3.0000,143.9755956
3.0050,144.3314735
3.0100,144.6832611
3.0150,145.0311866
3.0200,145.3748845
3.0250,145.7146526
3.0300,146.050764
3.0350,146.3832236
3.0400,146.7123516
3.0450,147.0383742
3.0500,147.3612873
3.0550,147.6812981
3.0600,147.9985736
3.0650,148.3130905
3.0700,148.6251554
3.0750,148.9347458
3.0800,149.2421238
3.0850,149.547142
3.0900,149.8497573
3.0950,150.1499793
3.1000,150.447313
3.1050,150.7415942
3.1100,151.0326101
3.1150,151.3203483
3.1200,151.6045101
3.1250,151.8848227
3.1300,152.1612058
3.1350,152.4333316
3.1400,152.7011363
3.1450,152.964456
3.1500,153.2233052
3.1550,153.4776809
3.1600,153.7275937
3.1650,153.9734385
3.1700,154.2151603
3.1750,154.4534142
3.1800,154.6882513
3.1850,154.9197218
3.1900,155.1483615
3.1950,155.3744108
3.2000,155.5976774
3.2050,155.8185555
3.2100,156.0370627
3.2150,156.2534659
3.2200,156.467533
3.2250,156.6795571
3.2300,156.8895591
3.2350,157.0976769
3.2400,157.3037142
3.2450,157.5076981
3.2500,157.7095234
3.2550,157.9094168
3.2600,158.1076065
3.2650,158.3041086
3.2700,158.4990173
3.2750,158.6924384
3.2800,158.8847114
3.2850,159.0756857
3.2900,159.2653913
3.2950,159.454022
3.3000,159.6416513
3.3050,159.8282743
3.3100,160.0138625
3.3150,160.1983849
3.3200,160.3821745
3.3250,160.5651363
3.3300,160.7469487
3.3350,160.9279051
3.3400,161.1077361
3.3450,161.2860826
3.3500,161.4628542
3.3550,161.6381863
3.3600,161.8118674
3.3650,161.983899
3.3700,162.1540302
3.3750,162.3220727
3.3800,162.4879392
3.3850,162.6516498
3.3900,162.8130756
3.3950,162.9722772
3.4000,163.1294685
3.4050,163.2846663
3.4100,163.4377249
3.4150,163.5887247
3.4200,163.7380234
3.4250,163.8858928
3.4300,164.032444
3.4350,164.1779469
3.4400,164.3224179
3.4450,164.4659857
3.4500,164.6090673
3.4550,164.7515657
3.4600,164.8940073
3.4650,165.0363197
3.4700,165.1788619
3.4750,165.3214724
3.4800,165.4644912
3.4850,165.6081082
3.4900,165.7522419
3.4950,165.8969325
3.5000,166.0422873
3.5050,166.1884303
3.5100,166.3355292
3.5150,166.4832799
3.5200,166.6320193
3.5250,166.7814966
3.5300,166.9317924
3.5350,167.0825779
3.5400,167.234166
3.5450,167.386538
3.5500,167.5397497
3.5550,167.6933718
3.5600,167.8472932
3.5650,168.0011595
3.5700,168.1550032
3.5750,168.3087608
3.5800,168.4621934
3.5850,168.6152324
3.5900,168.7680955
3.5950,168.9204918
3.6000,169.0723091
3.6050,169.22368
3.6100,169.3746251
3.6150,169.5248683
3.6200,169.6743932
3.6250,169.8228933
3.6300,169.970459
3.6350,170.1167457
3.6400,170.2615652
3.6450,170.4049727
3.6500,170.5471725
3.6550,170.6879918
3.6600,170.8272324
3.6650,170.9649102
3.6700,171.1010653
3.6750,171.2360154
3.6800,171.3697465
3.6850,171.5020361
3.6900,171.6330947
3.6950,171.7631099
3.7000,171.8923811
3.7050,172.0208612
3.7100,172.1488249
3.7150,172.276379
3.7200,172.4036613
3.7250,172.530825
3.7300,172.6581013
3.7350,172.7855746
3.7400,172.9138689
3.7450,173.0431493
3.7500,173.1733738
3.7550,173.3047269
3.7600,173.4373672
3.7650,173.5715867
3.7700,173.7074908
3.7750,173.8451691
3.7800,173.9845028
3.7850,174.1255635
3.7900,174.2682348
3.7950,174.4125478
3.8000,174.5584614
3.8050,174.7057262
3.8100,174.8540945
3.8150,175.0036443
3.8200,175.154102
3.8250,175.3050798
3.8300,175.456429
3.8350,175.6080494
3.8400,175.7593887
3.8450,175.9101495
3.8500,176.0599483
3.8550,176.2086916
3.8600,176.3561438
3.8650,176.5022718
3.8700,176.6468708
3.8750,176.7898476
3.8800,176.9308103
3.8850,177.0696948
3.8900,177.2059795
3.8950,177.33953
3.9000,177.470494
3.9050,177.5984253
3.9100,177.7232312
3.9150,177.8447981
3.9200,177.9627238
3.9250,178.0770927
3.9300,178.1875854
3.9350,178.2942422
3.9400,178.3971014
3.9450,178.4959734
3.9500,178.5908726
3.9550,178.6816883
3.9600,178.7684834
3.9650,178.8513478
3.9700,178.9304034
3.9750,179.0055826
3.9800,179.0768965
3.9850,179.1448291
3.9900,179.2091125
3.9950,179.2697169
4.0000,179.326551
4.0050,179.3797728
4.0100,179.4295296
4.0150,179.4760291
4.0200,179.5191543
4.0250,179.5587849
4.0300,179.5948146
4.0350,179.627631
4.0400,179.6569822
4.0450,179.6829583
4.0500,179.705871
4.0550,179.725918
4.0600,179.743196
4.0650,179.7576864
4.0700,179.7694565
4.0750,179.7786919
4.0800,179.7856687
4.0850,179.7905635
4.0900,179.7937321
4.0950,179.7951371
4.1000,179.7949966
4.1050,179.7934396
4.1100,179.7906303
4.1150,179.7867555
4.1200,179.7817498
4.1250,179.7760507
4.1300,179.7694527
4.1350,179.7620158
4.1400,179.7538323
4.1450,179.7448883
4.1500,179.7352222
4.1550,179.7247015
4.1600,179.7132818
4.1650,179.7009944
4.1700,179.6877376
4.1750,179.6734757
4.1800,179.6583073
4.1850,179.6424212
4.1900,179.6259076
4.1950,179.6088845
4.2000,179.5912693
4.2050,179.5732435
4.2100,179.5547879
4.2150,179.536094
4.2200,179.5172967
4.2250,179.4984355
4.2300,179.4795505
4.2350,179.4605597
4.2400,179.4413003
4.2450,179.4218162
4.2500,179.4020293
4.2550,179.3818837
4.2600,179.3614831
4.2650,179.3408477
4.2700,179.3198014
4.2750,179.2984358
4.2800,179.276687
4.2850,179.2546032
4.2900,179.2322728
4.2950,179.209782
4.3000,179.1870138
4.3050,179.1641757
4.3100,179.1411096
4.3150,179.1179917
4.3200,179.0949733
4.3250,179.0719935
4.3300,179.0491777
4.3350,179.026226
4.3400,179.0032646
4.3450,178.9801647
4.3500,178.9568154
4.3550,178.9331982
4.3600,178.9090472
4.3650,178.8844407
4.3700,178.8591459
4.3750,178.8333547
4.3800,178.806791
4.3850,178.7792862
4.3900,178.7508517
4.3950,178.7216678
4.4000,178.6917845
4.4050,178.6612726
4.4100,178.630123
4.4150,178.598344
4.4200,178.5660291
4.4250,178.5332682
4.4300,178.5001857
4.4350,178.4670501
4.4400,178.4338153
4.4450,178.4007498
4.4500,178.367688
4.4550,178.3349722
4.4600,178.3026463
4.4650,178.2706203
4.4700,178.2389882
4.4750,178.2078666
4.4800,178.1773912
4.4850,178.1472893
4.4900,178.1176313
4.4950,178.0885761
4.5000,178.0599571
4.5050,178.0318597
4.5100,178.0041181
4.5150,177.9766247
4.5200,177.9494439
4.5250,177.9223469
4.5300,177.8953588
4.5350,177.8684448
4.5400,177.8416058
4.5450,177.8149131
4.5500,177.7881247
4.5550,177.7613123
4.5600,177.734536
4.5650,177.7075922
4.5700,177.6806875
4.5750,177.6533898
4.5800,177.6258343
4.5850,177.5977946
4.5900,177.5692681
4.5950,177.5400486
4.6000,177.5101542
4.6050,177.4796932
4.6100,177.4486657
4.6150,177.4167044
4.6200,177.3837381
4.6250,177.3500374
4.6300,177.3156848
4.6350,177.2804615
4.6400,177.2444814
4.6450,177.2077082
4.6500,177.1699815
4.6550,177.1312492
4.6600,177.091641
4.6650,177.0510108
4.6700,177.0094516
4.6750,176.9668234
4.6800,176.9232729
4.6850,176.8787889
4.6900,176.8334226
4.6950,176.7871898
4.7000,176.7399894
4.7050,176.6919345
4.7100,176.6430467
4.7150,176.5935232
4.7200,176.5434197
4.7250,176.4926586
4.7300,176.4414085
4.7350,176.3896366
4.7400,176.3375421
4.7450,176.2849678
4.7500,176.2322602
4.7550,176.1794249
4.7600,176.1266388
4.7650,176.0739569
4.7700,176.0214364
4.7750,175.9689488
4.7800,175.9167278
4.7850,175.8648063
4.7900,175.8132228
4.7950,175.7618501
4.8000,175.7108803
4.8050,175.6602394
4.8100,175.6100443
4.8150,175.5605439
4.8200,175.5114418
4.8250,175.462841
4.8300,175.4148553
4.8350,175.3675576
4.8400,175.3208033
4.8450,175.274588
4.8500,175.2288981
4.8550,175.1837339
4.8600,175.1389395
4.8650,175.0943797
4.8700,175.0499393
4.8750,175.0057131
4.8800,174.9617202
4.8850,174.9177734
4.8900,174.8738973
4.8950,174.8300774
4.9000,174.7863005
4.9050,174.7423296
4.9100,174.6979805
4.9150,174.6532996
4.9200,174.6081367
4.9250,174.5624536
4.9300,174.5160033
4.9350,174.4689326
4.9400,174.4207845
4.9450,174.3719029
4.9500,174.3222438
4.9550,174.2715109
4.9600,174.2197746
4.9650,174.1669205
4.9700,174.1129996
4.9750,174.057786
4.9800,174.0010633
4.9850,173.943083
4.9900,173.8834644
4.9950,173.8220571
5.0000,173.7586951
5.0050,173.6933995
5.0100,173.6258626
5.0150,173.5560952
5.0200,173.483874
5.0250,173.4091892
5.0300,173.3318972
5.0350,173.2518658
5.0400,173.1688846
5.0450,173.08296
5.0500,172.9939124
5.0550,172.9017111
5.0600,172.8060201
5.0650,172.7068973
5.0700,172.604225
5.0750,172.4981683
5.0800,172.3884824
5.0850,172.2753478
5.0900,172.1584888
5.0950,172.0378906
5.1000,171.9135171
5.1050,171.785463
5.1100,171.6536811
5.1150,171.5179005
5.1200,171.3783456
5.1250,171.2348372
5.1300,171.0875429
5.1350,170.9359968
5.1400,170.7804857
5.1450,170.6208325
5.1500,170.4570438
5.1550,170.2890937
5.1600,170.1171001
5.1650,169.9412878
5.1700,169.7615462
5.1750,169.5782359
5.1800,169.3910764
5.1850,169.2004215
5.1900,169.006197
5.1950,168.8085923
5.2000,168.607497
5.2050,168.4028
5.2100,168.1948299
5.2150,167.9835562
5.2200,167.769046
5.2250,167.5510413
5.2300,167.329901
5.2350,167.1055346
5.2400,166.8783735
5.2450,166.64822
5.2500,166.415155
5.2550,166.1795244
5.2600,165.9409703
5.2650,165.6996869
5.2700,165.455493
5.2750,165.2086746
5.2800,164.9595366
5.2850,164.7076824
5.2900,164.4534915
5.2950,164.196935
5.3000,163.9384821
5.3050,163.6779857
5.3100,163.4160268
5.3150,163.1524016
5.3200,162.8872641
5.3250,162.6208073
5.3300,162.3531238
5.3350,162.0841985
5.3400,161.8144506
5.3450,161.5436276
5.3500,161.2718249
5.3550,160.9989362
5.3600,160.7251662
5.3650,160.4502319
5.3700,160.1742073
5.3750,159.8969195
5.3800,159.6181975
5.3850,159.3380584
5.3900,159.0565681
5.3950,158.7739417
5.4000,158.4899732
5.4050,158.2046563
5.4100,157.9180713
5.4150,157.630343
5.4200,157.3417589
5.4250,157.0524309
5.4300,156.7620224
5.4350,156.4709374
5.4400,156.1791596
5.4450,155.8869586
5.4500,155.5945017
5.4550,155.3016433
5.4600,155.0083595
5.4650,154.714599
5.4700,154.4205422
5.4750,154.1259772
5.4800,153.8310056
5.4850,153.5354281
5.4900,153.239033
5.4950,152.941557
5.5000,152.6431917
5.5050,152.3438922
5.5100,152.0433221
5.5150,151.7415999
5.5200,151.4387974
5.5250,151.1352697
5.5300,150.8306472
5.5350,150.5253091
5.5400,150.2189557
5.5450,149.9114311
5.5500,149.602789
5.5550,149.2927953
5.5600,148.9815854
5.5650,148.6690988
5.5700,148.3555958
5.5750,148.0409564
5.5800,147.7250051
5.5850,147.4081695
5.5900,147.0903185
5.5950,146.771423
5.6000,146.4513221
5.6050,146.1302307
5.6100,145.8077967
5.6150,145.4838714
5.6200,145.1583707
5.6250,144.831163
5.6300,144.5018621
5.6350,144.1705951
5.6400,143.8371387
5.6450,143.501761
5.6500,143.1643305
5.6550,142.8249421
5.6600,142.4834675
5.6650,142.1400985
5.6700,141.7949059
5.6750,141.4476631
5.6800,141.0983921
5.6850,140.746658
5.6900,140.3925828
5.6950,140.0354048
5.7000,139.675234
5.7050,139.3116845
5.7100,138.9443703
5.7150,138.5733344
5.7200,138.1979419
5.7250,137.8183188
5.7300,137.4348441
5.7350,137.0473321
5.7400,136.6555003
5.7450,136.2593369
5.7500,135.8591792
5.7550,135.4555174
5.7600,135.0483153
5.7650,134.6375734
5.7700,134.2233584
5.7750,133.8056729
5.7800,133.3845327
5.7850,132.9604424
5.7900,132.5336851
5.7950,132.1044842
5.8000,131.6729648
5.8050,131.2393428
5.8100,130.8037395
5.8150,130.3665345
5.8200,129.9279239
5.8250,129.4875411
5.8300,129.0457695
5.8350,128.6027356
5.8400,128.1586923
5.8450,127.714186
5.8500,127.2694303
5.8550,126.8247935
5.8600,126.3806358
5.8650,125.937486
5.8700,125.4953305
5.8750,125.0542295
5.8800,124.614418
5.8850,124.1758786
5.8900,123.738378
5.8950,123.3023995
5.9000,122.8678682
5.9050,122.4349581
5.9100,122.0037584
5.9150,121.5740522
5.9200,121.1457001
5.9250,120.7187653
5.9300,120.2932887
5.9350,119.8690595
5.9400,119.445768
5.9450,119.0231
5.9500,118.6010887
5.9550,118.1792827
5.9600,117.7576116
5.9650,117.335944
5.9700,116.9136807
5.9750,116.491115
5.9800,116.0679361
5.9850,115.6440732
5.9900,115.2192655
5.9950,114.7939502
6.0000,114.3675879
6.0050,113.9400174
6.0100,113.5114764
6.0150,113.0815802
6.0200,112.6505216
6.0250,112.217804
6.0300,111.7831747
6.0350,111.3466917
6.0400,110.9082609
6.0450,110.4674715
6.0500,110.0238353
6.0550,109.5775603
6.0600,109.1284021
6.0650,108.6766834
6.0700,108.2219222
6.0750,107.7639002
6.0800,107.3024602
6.0850,106.8371084
6.0900,106.3680405
6.0950,105.8948331
6.1000,105.4173107
6.1050,104.9357479
6.1100,104.4499253
6.1150,103.9599861
6.1200,103.4663608
6.1250,102.9691492
6.1300,102.468667
6.1350,101.9645114
6.1400,101.4573016
6.1450,100.947072
6.1500,100.4338911
6.1550,99.91805883
6.1600,99.39986737
6.1650,98.87902244
6.1700,98.35608038
6.1750,97.83137981
6.1800,97.30536318
6.1850,96.77768045
6.1900,96.24908124
6.1950,95.71937941
6.2000,95.18914205
6.2050,94.65824561
6.2100,94.12714545
6.2150,93.595936
6.2200,93.06505164
6.2250,92.5342299
6.2300,92.0036166
6.2350,91.47330556
6.2400,90.94366344
6.2450,90.41503844
6.2500,89.8874564
6.2550,89.36157302
6.2600,88.83716913
6.2650,88.31446593
6.2700,87.79368038
6.2750,87.27425769
6.2800,86.75654344
6.2850,86.24040089
6.2900,85.72582812
6.2950,85.2124982
6.3000,84.70030851
6.3050,84.18916805
6.3100,83.67888913
6.3150,83.16908354
6.3200,82.65982086
6.3250,82.15119523
6.3300,81.64291869
6.3350,81.13481387
6.3400,80.62693607
6.3450,80.11947516
6.3500,79.61224066
6.3550,79.10422878
6.3600,78.59550117
6.3650,78.08574121
6.3700,77.57524641
6.3750,77.06390268
6.3800,76.55148941
6.3850,76.03777475
6.3900,75.52259862
6.3950,75.00658615
6.4000,74.49003313
6.4050,73.9723114
6.4100,73.45409703
6.4150,72.93461024
6.4200,72.41396139
6.4250,71.89266103
6.4300,71.37062341
6.4350,70.84861521
6.4400,70.32649678
6.4450,69.80464827
6.4500,69.28362977
6.4550,68.76364488
6.4600,68.24516878
6.4650,67.72848036
6.4700,67.21381193
6.4750,66.7015702
6.4800,66.1919881
6.4850,65.68546427
6.4900,65.18235313
6.4950,64.68279637
6.5000,64.18667613
6.5050,63.69421239
6.5100,63.20551429
6.5150,62.72087825
6.5200,62.24033263
6.5250,61.76433979
6.5300,61.29311691
6.5350,60.82687802
6.5400,60.36554269
6.5450,59.90925266
6.5500,59.45820536
6.5550,59.01193377
6.5600,58.57079611
6.5650,58.13440824
6.5700,57.70273358
6.5750,57.27617791
6.5800,56.85414417
6.5850,56.43640732
6.5900,56.02293606
6.5950,55.61327098
6.6000,55.20787979
6.6050,54.80638848
6.6100,54.40855265
6.6150,54.01393339
6.6200,53.62249121
6.6250,53.23412296
6.6300,52.84892118
6.6350,52.46686533
6.6400,52.08788391
6.6450,51.71159249
6.6500,51.3379721
6.6550,50.96735788
6.6600,50.59968314
6.6650,50.23477849
6.6700,49.8725602
6.6750,49.51326171
6.6800,49.15678496
6.6850,48.8033344
6.6900,48.45296526
6.6950,48.10509068
6.7000,47.75949369
6.7050,47.4166363
6.7100,47.07588556
6.7150,46.73766065
6.7200,46.40153538
6.7250,46.06725933
6.7300,45.73464991
6.7350,45.40331497
6.7400,45.07317628
6.7450,44.74393436
6.7500,44.41564273
6.7550,44.08803316
6.7600,43.76114691
6.7650,43.43485855
6.7700,43.10903735
6.7750,42.78365592
6.7800,42.45847737
6.7850,42.1334298
6.7900,41.80839177
6.7950,41.48314849
6.8000,41.15790026
6.8050,40.8326001
6.8100,40.50732236
6.8150,40.18204991
6.8200,39.85678516
6.8250,39.53140983
6.8300,39.20605823
6.8350,38.88062819
6.8400,38.55523512
6.8450,38.22982567
6.8500,37.9044162
6.8550,37.57914469
6.8600,37.25421175
6.8650,36.92994608
6.8700,36.60655289
6.8750,36.28417468
6.8800,35.96339853
6.8850,35.64456784
6.8900,35.32788986
6.8950,35.01379465
6.9000,34.70222857
6.9050,34.39372634
6.9100,34.08848863
6.9150,33.78703893
6.9200,33.48932393
6.9250,33.1956337
6.9300,32.90594681
6.9350,32.62073975
6.9400,32.34017363
6.9450,32.06440502
6.9500,31.79380826
6.9550,31.5285525
6.9600,31.26886851
6.9650,31.01494396
6.9700,30.76698945
6.9750,30.52509891
6.9800,30.28926462
6.9850,30.05969633
6.9900,29.83640028
6.9950,29.61963505
7.0000,29.40919507
7.0050,29.20470714
7.0100,29.0062704
7.0150,28.81362441
7.0200,28.62659256
7.0250,28.44515128
7.0300,28.26889404
7.0350,28.09750212
7.0400,27.93074611
7.0450,27.76843351
7.0500,27.60995599
7.0550,27.45509453
7.0600,27.30335413
7.0650,27.15437538
7.0700,27.00804948
7.0750,26.86377314
7.0800,26.72115939
7.0850,26.57996976
7.0900,26.43943739
7.0950,26.29971188
7.1000,26.15997772
7.1050,26.02005574
7.1100,25.87933856
7.1150,25.73781623
7.1200,25.59516562
7.1250,25.45109822
7.1300,25.30514906
7.1350,25.15722714
7.1400,25.00733762
7.1450,24.85502924
7.1500,24.70044274
7.1550,24.54334781
7.1600,24.38354715
7.1650,24.22095947
7.1700,24.0556949
7.1750,23.88778167
7.1800,23.71714948
7.1850,23.5437812
7.1900,23.36792394
7.1950,23.18973218
7.2000,23.00947907
7.2050,22.82726632
7.2100,22.64327929
7.2150,22.45786779
7.2200,22.27118927
7.2250,22.08334556
7.2300,21.89486472
7.2350,21.70576783
7.2400,21.51620922
7.2450,21.32637626
7.2500,21.13623385
7.2550,20.94591658
7.2600,20.75523689
7.2650,20.56433374
7.2700,20.37316071
7.2750,20.18198295
7.2800,19.99075279
7.2850,19.79920992
7.2900,19.60759864
7.2950,19.41584084
7.3000,19.22427774
7.3050,19.03284226
7.3100,18.84165138
7.3150,18.65095406
7.3200,18.46083278
7.3250,18.27145578
7.3300,18.08319998
7.3350,17.896167
7.3400,17.71058836
7.3450,17.52659353
7.3500,17.34439194
7.3550,17.16413509
7.3600,16.98580265
7.3650,16.80981229
7.3700,16.63581042
7.3750,16.46382495
7.3800,16.29416451
7.3850,16.12665009
7.3900,15.96153967
7.3950,15.79839244
7.4000,15.63757406
7.4050,15.47895811
7.4100,15.32275752
7.4150,15.1686835
7.4200,15.0169107
7.4250,14.86736598
7.4300,14.72012746
7.4350,14.57511217
7.4400,14.43215927
7.4450,14.29149731
7.4500,14.15282978
7.4550,14.01624765
7.4600,13.88169
7.4650,13.74900765
7.4700,13.61816983
7.4750,13.48919966
7.4800,13.36199413
7.4850,13.2367015
7.4900,13.11312438
7.4950,12.99144463
7.5000,12.87148027
7.5050,12.75320524
7.5100,12.63650797
7.5150,12.52114792
7.5200,12.40714066
7.5250,12.29434359
7.5300,12.18265664
7.5350,12.07207564
7.5400,11.96263288
7.5450,11.85438508
7.5500,11.74728003
7.5550,11.64153975
7.5600,11.53738744
7.5650,11.43479214
7.5700,11.33388684
7.5750,11.23446791
7.5800,11.13683993
7.5850,11.04107093
7.5900,10.94703854
7.5950,10.8548204
7.6000,10.76418576
7.6050,10.67537664
7.6100,10.58840509
7.6150,10.50319937
7.6200,10.41975633
7.6250,10.3380787
7.6300,10.25814117
7.6350,10.18024963
7.6400,10.10428579
7.6450,10.03026257
7.6500,9.958277191
7.6550,9.888475513
7.6600,9.820762461
7.6650,9.755074596
7.6700,9.691601596
7.6750,9.630597723
7.6800,9.571827343
7.6850,9.515497004
7.6900,9.461543607
7.6950,9.41018103
7.7000,9.361402555
7.7050,9.315144526
7.7100,9.271365036
7.7150,9.230323426
7.7200,9.192031032
7.7250,9.156503197
7.7300,9.123753174
7.7350,9.093719097
7.7400,9.066478943
7.7450,9.042007889
7.7500,9.020390139
7.7550,9.001850611
7.7600,8.986365757
7.7650,8.97413071
7.7700,8.965173741
7.7750,8.959246141
7.7800,8.956585216
7.7850,8.957257246
7.7900,8.961210414
7.7950,8.968411444
7.8000,8.978791484
7.8050,8.9924101
7.8100,9.009348796
7.8150,9.029656581
7.8200,9.053270395
7.8250,9.08028569
7.8300,9.110609057
7.8350,9.144334876
7.8400,9.181399545
7.8450,9.221655898
7.8500,9.265316085
7.8550,9.312049673
7.8600,9.362076726
7.8650,9.415263919
7.8700,9.47159472
7.8750,9.531084216
7.8800,9.593868245
7.8850,9.659880359
7.8900,9.729081454
7.8950,9.801551409
7.9000,9.87748521
7.9050,9.956806784
7.9100,10.03943546
7.9150,10.12538697
7.9200,10.21483605
7.9250,10.30774931
7.9300,10.40426226
7.9350,10.50422572
7.9400,10.60779313
7.9450,10.71509771
7.9500,10.82598431
7.9550,10.94043088
7.9600,11.05855043
7.9650,11.18035847
7.9700,11.30579033
7.9750,11.4348556
7.9800,11.56767057
7.9850,11.70428322
7.9900,11.84469775
7.9950,11.98882535
8.0000,12.13678003
8.0050,12.28866085
8.0100,12.44431623
8.0150,12.60366053
8.0200,12.76652286
8.0250,12.9330217
8.0300,13.10316009
8.0350,13.27705607
8.0400,13.45459768
8.0450,13.63586007
8.0500,13.82079921
8.0550,14.0093479
8.0600,14.20148969
8.0650,14.39734094
8.0700,14.59677503
8.0750,14.80005659
8.0800,15.00713734
8.0850,15.21800977
8.0900,15.43302318
8.0950,15.65206888
8.1000,15.87518317
8.1050,16.10263288
8.1100,16.3342389
8.1150,16.56997397
8.1200,16.80988239
8.1250,17.053958
8.1300,17.30224482
8.1350,17.55449951
8.1400,17.81073926
8.1450,18.07105366
8.1500,18.3352199
8.1550,18.60316893
8.1600,18.87461993
8.1650,19.1496286
8.1700,19.42802747
8.1750,19.7097781
8.1800,19.99453724
8.1850,20.28249345
8.1900,20.57346976
8.1950,20.86739329
8.2000,21.16410142
8.2050,21.46352829
8.2100,21.76565615
8.2150,22.07047401
8.2200,22.37784935
8.2250,22.68769079
8.2300,22.99999713
8.2350,23.3146205
8.2400,23.63132425
8.2450,23.94983363
8.2500,24.27028946
8.2550,24.59262255
8.2600,24.91659475
8.2650,25.24210847
8.2700,25.56918367
8.2750,25.8975267
8.2800,26.22717358
8.2850,26.5579957
8.2900,26.89004191
8.2950,27.22323607
8.3000,27.55744514
8.3050,27.89254402
8.3100,28.22873011
8.3150,28.56582755
8.3200,28.90405039
8.3250,29.24325332
8.3300,29.58349831
8.3350,29.92452653
8.3400,30.26657169
8.3450,30.60938983
8.3500,30.9531253
8.3550,31.29763572
8.3600,31.6428927
8.3650,31.9888998
8.3700,32.33562548
8.3750,32.68290442
8.3800,33.03091143
8.3850,33.37948115
8.3900,33.72837842
8.3950,34.07765348
8.4000,34.4273267
8.4050,34.77733398
8.4100,35.12782197
8.4150,35.47877214
8.4200,35.8303319
8.4250,36.18238194
8.4300,36.53525299
8.4350,36.88890968
8.4400,37.24334584
8.4450,37.59868888
8.4500,37.95494298
8.4550,38.31223342
8.4600,38.67062968
8.4650,39.0299333
8.4700,39.39019117
8.4750,39.75157021
8.4800,40.11414814
8.4850,40.47773031
8.4900,40.8425652
8.4950,41.20855998
8.5000,41.57568509
8.5050,41.94408839
8.5100,42.31366948
8.5150,42.6844204
8.5200,43.05615409
8.5250,43.42886751
8.5300,43.80249625
8.5350,44.17699619
8.5400,44.55244664
8.5450,44.92892365
8.5500,45.30621325
8.5550,45.68419715
8.5600,46.06294074
8.5650,46.44234519
8.5700,46.82231395
8.5750,47.20269482
8.5800,47.5833537
8.5850,47.96440656
8.5900,48.34539908
8.5950,48.72675294
8.6000,49.10827106
8.6050,49.49004644
8.6100,49.87191475
8.6150,50.25393668
8.6200,50.63597527
8.6250,51.01786206
8.6300,51.39958281
8.6350,51.78119585
8.6400,52.16237682
8.6450,52.54312971
8.6500,52.92336738
8.6550,53.3029825
8.6600,53.68224854
8.6650,54.06110418
8.6700,54.43965277
8.6750,54.818244
8.6800,55.19639437
8.6850,55.57439492
8.6900,55.95249816
8.6950,56.33069386
8.7000,56.70898927
8.7050,57.08752477
8.7100,57.46621929
8.7150,57.84521664
8.7200,58.22463004
8.7250,58.60474318
8.7300,58.98533588
8.7350,59.36671267
8.7400,59.74914609
8.7450,60.13248497
8.7500,60.51692828
8.7550,60.90215417
8.7600,61.28818645
8.7650,61.67537375
8.7700,62.06392036
8.7750,62.45373093
8.7800,62.84486637
8.7850,63.23767179
8.7900,63.6321167
8.7950,64.02818023
8.8000,64.42591349
8.8050,64.82544729
8.8100,65.22709998
8.8150,65.63076768
8.8200,66.03679111
8.8250,66.44550686
8.8300,66.85661276
8.8350,67.2704411
8.8400,67.68691153
8.8450,68.10614103
8.8500,68.52805141
8.8550,68.95290083
8.8600,69.38077566
8.8650,69.81169716
8.8700,70.24577219
8.8750,70.68332211
8.8800,71.12392353
8.8850,71.56750976
8.8900,72.01423583
8.8950,72.46367441
8.9000,72.91594515
8.9050,73.37120869
8.9100,73.82947142
8.9150,74.29083613
8.9200,74.75503404
8.9250,75.22247781
8.9300,75.69284091
8.9350,76.1660829
8.9400,76.64245581
8.9450,77.12202771
8.9500,77.6046395
8.9550,78.09020214
8.9600,78.57828214
8.9650,79.06894135
8.9700,79.56214067
8.9750,80.05778097
8.9800,80.55596009
8.9850,81.05637306
8.9900,81.55906347
8.9950,82.0639366
9.0000,82.57095679
9.0050,83.07992313
9.0100,83.59089046
9.0150,84.10378636
9.0200,84.6185314
9.0250,85.13492034
9.0300,85.65293654
9.0350,86.17250957
9.0400,86.69316583
9.0450,87.21498518
9.0500,87.73790905
9.0550,88.26206605
9.0600,88.78730684
9.0650,89.31367748
9.0700,89.84085388
9.0750,90.36858202
9.0800,90.89714742
9.0850,91.42638756
9.0900,91.95592161
9.0950,92.48611736
9.1000,93.01707891
9.1050,93.54853928
9.1100,94.08070144
9.1150,94.61331603
9.1200,95.14646354
9.1250,95.68009976
9.1300,96.21442829
9.1350,96.7489444
9.1400,97.28380488
9.1450,97.8187391
9.1500,98.35380373
9.1550,98.88877603
9.1600,99.42345767
9.1650,99.9580258
9.1700,100.4918742
9.1750,101.024973
9.1800,101.5574341
9.1850,102.0889655
9.1900,102.6193005
9.1950,103.1485049
9.2000,103.6765174
9.2050,104.2031694
9.2100,104.7287574
9.2150,105.2528725
9.2200,105.7757332
9.2250,106.2972615
9.2300,106.8174767
9.2350,107.3364486
9.2400,107.8540428
9.2450,108.3702033
9.2500,108.8847282
9.2550,109.3978636
9.2600,109.9096595
9.2650,110.4196748
9.2700,110.9279584
9.2750,111.4341832
9.2800,111.9384251
9.2850,112.4407139
9.2900,112.9404928
9.2950,113.4379157
9.3000,113.9329326
9.3050,114.4256009
9.3100,114.915772
9.3150,115.4032107
9.3200,115.8879822
9.3250,116.3700044
9.3300,116.8492987
9.3350,117.3259521
9.3400,117.8001103
9.3450,118.2719091
9.3500,118.7411515
9.3550,119.2083026
9.3600,119.6732224
9.3650,120.1361207
9.3700,120.5964322
9.3750,121.054833
9.3800,121.5108795
9.3850,121.9646488
9.3900,122.4163306
9.3950,122.8656354
9.4000,123.312664
9.4050,123.7574449
9.4100,124.1995575
9.4150,124.639535
9.4200,125.0770165
9.4250,125.5115955
9.4300,125.9432895
9.4350,126.37245
9.4400,126.7989335
9.4450,127.2227509
9.4500,127.6437551
9.4550,128.0616124
9.4600,128.4764875
9.4650,128.8880358
9.4700,129.2965929
9.4750,129.7018537
9.4800,130.1036692
9.4850,130.5019579
9.4900,130.896834
9.4950,131.2879464
9.5000,131.6753405
9.5050,132.0590706
9.5100,132.4387608
9.5150,132.814607
9.5200,133.1866081
9.5250,133.5550242
9.5300,133.9195629
9.5350,134.2804716
9.5400,134.6378142
9.5450,134.9916737
9.5500,135.3421545
9.5550,135.6890207
9.5600,136.0324082
9.5650,136.3727788
9.5700,136.710318
9.5750,137.044955
9.5800,137.3765377
9.5850,137.7051498
9.5900,138.030828
9.5950,138.3536699
9.6000,138.6733661
9.6050,138.9898878
9.6100,139.3032204
9.6150,139.6132467
9.6200,139.9200647
9.6250,140.2237275
9.6300,140.5241659
9.6350,140.8213904
9.6400,141.1158646
9.6450,141.407613
9.6500,141.6970807
9.6550,141.9845048
9.6600,142.2699003
9.6650,142.5532939
9.6700,142.8354767
9.6750,143.1161292
9.6800,143.3956484
9.6850,143.6742828
9.6900,143.952198
9.6950,144.2295164
9.7000,144.5064691
9.7050,144.783555
9.7100,145.0608833
9.7150,145.3383257
9.7200,145.6161938
9.7250,145.8945967
9.7300,146.1736841
9.7350,146.4529505
9.7400,146.7323797
9.7450,147.0122798
9.7500,147.2925243
9.7550,147.5732816
9.7600,147.8545126
9.7650,148.1363515
9.7700,148.4190101
9.7750,148.7024072
9.7800,148.9865073
9.7850,149.2712063
9.7900,149.5563191
9.7950,149.841955
9.8000,150.1279635
9.8050,150.4141607
9.8100,150.7004334
9.8150,150.9863949
9.8200,151.2719189
9.8250,151.5566062
9.8300,151.8409093
9.8350,152.124144
9.8400,152.4061934
9.8450,152.6869074
9.8500,152.9663594
9.8550,153.2446125
9.8600,153.5215346
9.8650,153.7969483
9.8700,154.0704995
9.8750,154.3422947
9.8800,154.6121641
9.8850,154.879977
9.8900,155.1455338
9.8950,155.4087748
9.9000,155.6698232
9.9050,155.9283567
9.9100,156.1843372
9.9150,156.4377529
9.9200,156.6882693
9.9250,156.9359189
9.9300,157.1804479
9.9350,157.4217661
9.9400,157.6597036
9.9450,157.8944217
9.9500,158.1256136
9.9550,158.3531799
9.9600,158.5771532
9.9650,158.7975206
9.9700,159.014109
9.9750,159.2272292
9.9800,159.4367901
9.9850,159.642699
9.9900,159.8449605
9.9950,160.0437683
10.0000,160.2391325
10.0050,160.4308291
10.0100,160.6190574
10.0150,160.8038997
10.0200,160.9852538
10.0250,161.1633699
10.0300,161.338141
10.0350,161.5100143
10.0400,161.6790922
10.0450,161.8454443
10.0500,162.0093663
10.0550,162.1710103
10.0600,162.3306149
10.0650,162.4883271
10.0700,162.6441278
10.0750,162.7983197
10.0800,162.9511873
10.0850,163.1026369
10.0900,163.2529313
10.0950,163.4021655
10.1000,163.5503994
10.1050,163.697847
10.1100,163.8448453
10.1150,163.9914883
10.1200,164.1380392
10.1250,164.2844968
10.1300,164.4307027
10.1350,164.576696
10.1400,164.7226713
10.1450,164.8685808
10.1500,165.014374
10.1550,165.160036
10.1600,165.3058203
10.1650,165.4516471
10.1700,165.5976406
10.1750,165.7438681
10.1800,165.8901792
10.1850,166.0364694
10.1900,166.1829128
10.1950,166.3292594
10.2000,166.4753093
10.2050,166.6214179
10.2100,166.7673403
10.2150,166.9129958
10.2200,167.0583777
10.2250,167.2030699
10.2300,167.3473013
10.2350,167.4908774
10.2400,167.6336174
10.2450,167.7753172
10.2500,167.9162271
10.2550,168.0561533
10.2600,168.194888
10.2650,168.3325036
10.2700,168.4689226
10.2750,168.6038597
10.2800,168.7373746
10.2850,168.8693666
10.2900,168.9995922
10.2950,169.1279065
10.3000,169.2539631
10.3050,169.3776721
10.3100,169.4988948
10.3150,169.6171934
10.3200,169.7327548
10.3250,169.8450739
10.3300,169.9542612
10.3350,170.0603904
10.3400,170.1633153
10.3450,170.2630092
10.3500,170.3591767
10.3550,170.4518858
10.3600,170.5412365
10.3650,170.6272003
10.3700,170.7098202
10.3750,170.7890974
10.3800,170.8652042
10.3850,170.9385267
10.3900,171.0090938
10.3950,171.0771628
10.4000,171.1428507
10.4050,171.2063896
10.4100,171.2678577
10.4150,171.3274369
10.4200,171.3853491
10.4250,171.4416951
10.4300,171.4968571
10.4350,171.5511347
10.4400,171.6045582
10.4450,171.657311
10.4500,171.7094437
10.4550,171.7612718
10.4600,171.8127517
10.4650,171.8638375
10.4700,171.9146297
10.4750,171.9651403
10.4800,172.0155545
10.4850,172.065891
10.4900,172.1163243
10.4950,172.1666132
10.5000,172.2167557
10.5050,172.2666675
10.5100,172.3164754
10.5150,172.3661263
10.5200,172.4155735
10.5250,172.465286
10.5300,172.5149437
10.5350,172.5646487
10.5400,172.6145064
10.5450,172.6643481
10.5500,172.7139416
10.5550,172.7631653
10.5600,172.8124791
10.5650,172.861756
10.5700,172.9109873
10.5750,172.9602542
10.5800,173.0092411
10.5850,173.0579194
10.5900,173.1063988
10.5950,173.1545757
10.6000,173.2025613
10.6050,173.2502951
10.6100,173.2977813
10.6150,173.344976
10.6200,173.3914867
10.6250,173.4376505
10.6300,173.4831361
10.6350,173.5278722
10.6400,173.5717564
10.6450,173.6148706
10.6500,173.65744
10.6550,173.6996152
10.6600,173.7411425
10.6650,173.7822218
10.6700,173.8228149
10.6750,173.8630519
10.6800,173.9029171
10.6850,173.9422862
10.6900,173.9812433
10.6950,174.0195516
10.7000,174.0572387
10.7050,174.0941426
10.7100,174.1301031
10.7150,174.1650236
10.7200,174.1985896
10.7250,174.2309825
10.7300,174.2617117
10.7350,174.2908533
10.7400,174.3184149
10.7450,174.3444015
10.7500,174.3687762
10.7550,174.3913518
10.7600,174.4122792
10.7650,174.4317154
10.7700,174.4495722
10.7750,174.4659204
10.7800,174.480802
10.7850,174.4942925
10.7900,174.5061363
10.7950,174.5165948
10.8000,174.5256602
10.8050,174.5329967
10.8100,174.5382911
10.8150,174.5414009
10.8200,174.5423337
10.8250,174.5405372
10.8300,174.5359134
10.8350,174.528533
10.8400,174.518202
10.8450,174.5050517
10.8500,174.489166
10.8550,174.4705111
10.8600,174.4487577
10.8650,174.423912
10.8700,174.3960475
10.8750,174.3652164
10.8800,174.3315725
10.8850,174.2951315
10.8900,174.2557504
10.8950,174.213478
10.9000,174.1683739
10.9050,174.1201507
10.9100,174.0686333
10.9150,174.0140177
10.9200,173.9561468
10.9250,173.8946758
10.9300,173.829718
10.9350,173.7610221
10.9400,173.6885516
10.9450,173.6120382
10.9500,173.5313769
10.9550,173.4464722
10.9600,173.3572196
10.9650,173.2637583
10.9700,173.166102
10.9750,173.064142
10.9800,172.9579308
10.9850,172.8475556
10.9900,172.7328683
10.9950,172.6141893
11.0000,172.4915104
11.0050,172.3649743
11.0100,172.2347251
11.0150,172.1011602
11.0200,171.9642374
11.0250,171.8238807
11.0300,171.6804916
11.0350,171.5339706
11.0400,171.3843646
11.0450,171.2317403
11.0500,171.0761605
11.0550,170.9177123
11.0600,170.7564328
11.0650,170.5926731
11.0700,170.4263744
11.0750,170.2577678
11.0800,170.0867929
11.0850,169.9137158
11.0900,169.7384853
11.0950,169.5613859
11.1000,169.3825512
11.1050,169.2023677
11.1100,169.0211242
11.1150,168.8389292
11.1200,168.6555856
11.1250,168.4713665
11.1300,168.2863553
11.1350,168.1006071
11.1400,167.9141489
11.1450,167.726783
11.1500,167.5385054
11.1550,167.3495604
11.1600,167.159738
11.1650,166.9691103
11.1700,166.7776506
11.1750,166.5851951
11.1800,166.392032
11.1850,166.1982668
11.1900,166.0037599
11.1950,165.8085428
11.2000,165.6126109
11.2050,165.416043
11.2100,165.218797
11.2150,165.0208017
11.2200,164.822179
11.2250,164.6230338
11.2300,164.4233016
11.2350,164.2230452
11.2400,164.0222374
11.2450,163.821184
11.2500,163.6196506
11.2550,163.4175761
11.2600,163.2151605
11.2650,163.0120561
11.2700,162.8085235
11.2750,162.6046322
11.2800,162.4001963
11.2850,162.195226
11.2900,161.9900354
11.2950,161.7842518
11.3000,161.577982
11.3050,161.3707456
11.3100,161.1624385
11.3150,160.9526757
11.3200,160.7414216
11.3250,160.5285773
11.3300,160.3138701
11.3350,160.097337
11.3400,159.8787599
11.3450,159.6580499
11.3500,159.4349858
11.3550,159.2094277
11.3600,158.9810247
11.3650,158.7492228
11.3700,158.5143696
11.3750,158.2761205
11.3800,158.0345765
11.3850,157.7891526
11.3900,157.5402607
11.3950,157.2873292
11.4000,157.0305499
11.4050,156.769977
11.4100,156.5052199
11.4150,156.2363523
11.4200,155.9633051
11.4250,155.6861096
11.4300,155.4046475
11.4350,155.1186401
11.4400,154.8281831
11.4450,154.5333672
11.4500,154.2340839
11.4550,153.9301024
11.4600,153.6215408
11.4650,153.3084086
11.4700,152.9904894
11.4750,152.6677922
11.4800,152.340254
11.4850,152.0078284
11.4900,151.670724
11.4950,151.328774
11.5000,150.9816953
11.5050,150.6295535
11.5100,150.2722801
11.5150,149.9099369
11.5200,149.5425841
11.5250,149.1702445
11.5300,148.793069
11.5350,148.4109873
11.5400,148.0241997
11.5450,147.6325268
11.5500,147.236242
11.5550,146.8351538
11.5600,146.4292336
11.5650,146.0183505
11.5700,145.6025904
11.5750,145.1820269
11.5800,144.7567361
11.5850,144.3269846
11.5900,143.8926718
11.5950,143.4541212
11.6000,143.0111278
11.6050,142.5641515
11.6100,142.1132983
11.6150,141.6585409
11.6200,141.1999456
11.6250,140.7377122
11.6300,140.2717351
11.6350,139.8017899
11.6400,139.3278735
11.6450,138.8498406
11.6500,138.3678097
11.6550,137.8820312
11.6600,137.3925866
11.6650,136.8999476
11.6700,136.4037046
11.6750,135.9038261
11.6800,135.4005487
11.6850,134.8940289
11.6900,134.3842609
11.6950,133.8714525
11.7000,133.3557357
11.7050,132.8367069
11.7100,132.3147107
11.7150,131.7899766
11.7200,131.2627992
11.7250,130.7326812
11.7300,130.1995937
11.7350,129.663512
11.7400,129.1240372
11.7450,128.5814012
11.7500,128.0352802
11.7550,127.4855605
11.7600,126.932511
11.7650,126.3758855
11.7700,125.8158364
11.7750,125.2525133
11.7800,124.6854537
11.7850,124.1146514
11.7900,123.5399886
11.7950,122.9619643
11.8000,122.3806063
11.8050,121.7957812
11.8100,121.2075901
11.8150,120.6158112
11.8200,120.0205456
11.8250,119.4216867
11.8300,118.8192554
11.8350,118.2130142
11.8400,117.6030537
11.8450,116.9894258
11.8500,116.3724907
11.8550,115.7525196
11.8600,115.1297262
11.8650,114.5048239
11.8700,113.8770924
11.8750,113.2470923
11.8800,112.6147452
11.8850,111.9800227
11.8900,111.3429624
11.8950,110.7039297
11.9000,110.0627612
11.9050,109.4200072
11.9100,108.775567
11.9150,108.1298124
11.9200,107.4828809
11.9250,106.8350326
11.9300,106.1867257
11.9350,105.537984
11.9400,104.8887915
11.9450,104.2391639
11.9500,103.5895087
11.9550,102.939538
11.9600,102.289642
11.9650,101.6396169
11.9700,100.9898179
11.9750,100.3402932
11.9800,99.69130449
11.9850,99.04315941
11.9900,98.3960164
11.9950,97.74974113
12.0000,97.1043383
12.0050,96.45947077
12.0100,95.81543026
12.0150,95.17173832
12.0200,94.52795923
12.0250,93.88441964
12.0300,93.24096982
12.0350,92.59740814
12.0400,91.95369863
12.0450,91.30975138
12.0500,90.66617843
12.0550,90.0228711
12.0600,89.37934528
12.0650,88.73582776
12.0700,88.09257081
12.0750,87.44994266
12.0800,86.8080136
12.0850,86.16674758
12.0900,85.52649475
12.0950,84.8872087
12.1000,84.24915878
12.1050,83.61232075
12.1100,82.97701276
12.1150,82.34357267
12.1200,81.71209563
12.1250,81.08297862
12.1300,80.45608025
12.1350,79.83206611
12.1400,79.210725
12.1450,78.59194523
12.1500,77.97561827
12.1550,77.36196264
12.1600,76.75068544
12.1650,76.14176308
12.1700,75.53570541
12.1750,74.9322511
12.1800,74.33136209
12.1850,73.73329639
12.1900,73.13831051
12.1950,72.54651616
12.2000,71.95865126
12.2050,71.37457512
12.2100,70.79501801
12.2150,70.21989605
12.2200,69.64919183
12.2250,69.0827462
12.2300,68.52049468
12.2350,67.96270346
12.2400,67.40942687
12.2450,66.86088963
12.2500,66.31692265
12.2550,65.77753941
12.2600,65.24242758
12.2650,64.7115981
12.2700,64.1849049
12.2750,63.66225389
12.2800,63.14324104
12.2850,62.62767165
12.2900,62.11537993
12.2950,61.60679085
12.3000,61.10169114
12.3050,60.600162
12.3100,60.10168023
12.3150,59.60647448
12.3200,59.11455844
12.3250,58.62581378
12.3300,58.14029672
12.3350,57.65787991
12.3400,57.17864664
12.3450,56.7024768
12.3500,56.22934275
12.3550,55.75943825
12.3600,55.29306157
12.3650,54.83041174
12.3700,54.37158876
12.3750,53.91637177
12.3800,53.46463847
12.3850,53.01629818
12.3900,52.57139948
12.3950,52.12997674
12.4000,51.69209775
12.4050,51.25816065
12.4100,50.82784365
12.4150,50.40098452
12.4200,49.97760853
12.4250,49.55779891
12.4300,49.14164485
12.4350,48.72891535
12.4400,48.31978244
12.4450,47.91453163
12.4500,47.51330045
12.4550,47.11588323
12.4600,46.72251974
12.4650,46.33296696
12.4700,45.94704416
12.4750,45.56504184
12.4800,45.1870729
12.4850,44.81289026
12.4900,44.44244088
12.4950,44.07504685
12.5000,43.71066646
12.5050,43.34935784
12.5100,42.99085044
12.5150,42.63519461
12.5200,42.2823346
12.5250,41.93230825
12.5300,41.58502745
12.5350,41.24070085
12.5400,40.89922121
12.5450,40.56067019
12.5500,40.22469753
12.5550,39.89134256
12.5600,39.5604303
12.5650,39.23191747
12.5700,38.90571404
12.5750,38.58185877
12.5800,38.26027658
12.5850,37.94104002
12.5900,37.62394401
12.5950,37.30849403
12.6000,36.99473232
12.6050,36.68262595
12.6100,36.37247934
12.6150,36.06425021
12.6200,35.75810477
12.6250,35.45379495
12.6300,35.15157319
12.6350,34.85132292
12.6400,34.55314688
12.6450,34.25721595
12.6500,33.96339413
12.6550,33.67175892
12.6600,33.3820199
12.6650,33.09426306
12.6700,32.80839488
12.6750,32.52458294
12.6800,32.24290642
12.6850,31.9633296
12.6900,31.68591474
12.6950,31.41031702
12.7000,31.13678765
12.7050,30.86516613
12.7100,30.59555636
12.7150,30.32793968
12.7200,30.06222356
12.7250,29.79832966
12.7300,29.53621431
12.7350,29.27577832
12.7400,29.01676578
12.7450,28.75919913
12.7500,28.50292454
12.7550,28.24807215
12.7600,27.99464324
12.7650,27.74252822
12.7700,27.49189552
12.7750,27.2424811
12.7800,26.99432681
12.7850,26.74739166
12.7900,26.50188274
12.7950,26.2580161
12.8000,26.01563021
12.8050,25.77458499
12.8100,25.53474195
12.8150,25.29599703
12.8200,25.05844109
12.8250,24.82207323
12.8300,24.58699818
12.8350,24.35311513
12.8400,24.12015715
12.8450,23.8880305
12.8500,23.65700627
12.8550,23.4269193
12.8600,23.19785097
12.8650,22.96996875
12.8700,22.74313791
12.8750,22.51765234
12.8800,22.29347608
12.8850,22.07065943
12.8900,21.84906255
12.8950,21.62902149
12.9000,21.41061329
12.9050,21.19366849
12.9100,20.9780861
12.9150,20.7639205
12.9200,20.55104625
12.9250,20.33959651
12.9300,20.12942203
12.9350,19.9204721
12.9400,19.71287019
12.9450,19.50659608
12.9500,19.30164752
12.9550,19.09812138
12.9600,18.89605757
12.9650,18.69541193
12.9700,18.49634601
12.9750,18.29866321
12.9800,18.10252951
12.9850,17.90804497
12.9900,17.71525977
12.9950,17.52433208
13.0000,17.3353817
13.0050,17.14850755
13.0100,16.96387101
13.0150,16.78132922
13.0200,16.60107316
13.0250,16.42317122
13.0300,16.24766576
13.0350,16.07461447
13.0400,15.90430432
13.0450,15.73658593
13.0500,15.5716746
13.0550,15.40945148
13.0600,15.24995162
13.0650,15.09333041
13.0700,14.93958097
13.0750,14.78864228
13.0800,14.6405196
13.0850,14.4952157
13.0900,14.35254417
13.0950,14.21238089
13.1000,14.07464738
13.1050,13.93918782
13.1100,13.80598828
13.1150,13.67472835
13.1200,13.54529441
13.1250,13.41743586
13.1300,13.29105703
13.1350,13.16607526
13.1400,13.04230915
13.1450,12.91969482
13.1500,12.79776625
13.1550,12.67636758
13.1600,12.55549335
13.1650,12.43460439
13.1700,12.31370282
13.1750,12.1923906
13.1800,12.07045946
13.1850,11.94759985
13.1900,11.82377711
13.1950,11.69889421
13.2000,11.57286351
13.2050,11.44582416
13.2100,11.31765878
13.2150,11.1882888
13.2200,11.05778023
13.2250,10.92591156
13.2300,10.79286982
13.2350,10.65882971
13.2400,10.52352303
13.2450,10.38704255
13.2500,10.24952566
13.2550,10.11090132
13.2600,9.97146943
13.2650,9.83139188
13.2700,9.690808202
13.2750,9.550023252
13.2800,9.409365914
13.2850,9.269161739
13.2900,9.129770708
13.2950,8.991680081
13.3000,8.8552526
13.3050,8.720942717
13.3100,8.589114797
13.3150,8.460466722
13.3200,8.335413452
13.3250,8.214287263
13.3300,8.097526862
13.3350,7.985653878
13.3400,7.878715868
13.3450,7.77715309
13.3500,7.68096854
13.3550,7.590222941
13.3600,7.50492232
13.3650,7.42483405
13.3700,7.350085392
13.3750,7.280248974
13.3800,7.215228615
13.3850,7.154665331
13.3900,7.098251727
13.3950,7.045774244
13.4000,6.996865503
13.4050,6.951323165
13.4100,6.90873378
13.4150,6.869122687
13.4200,6.83225601
13.4250,6.797730396
13.4300,6.765493724
13.4350,6.735378636
13.4400,6.707354112
13.4450,6.68129342
13.4500,6.657394421
13.4550,6.635594203
13.4600,6.615812208
13.4650,6.598363309
13.4700,6.583230267
13.4750,6.570541311
13.4800,6.560540444
13.4850,6.553305639
13.4900,6.54927495
13.4950,6.548208722
13.5000,6.550361869
13.5050,6.555540234
13.5100,6.563896821
13.5150,6.575339167
13.5200,6.589798055
13.5250,6.607530497
13.5300,6.628328193
13.5350,6.652194971
13.5400,6.679239178
13.5450,6.709454065
13.5500,6.742723995
13.5550,6.779210579
13.5600,6.818924093
13.5650,6.861606142
13.5700,6.907297857
13.5750,6.956052046
13.5800,7.007662271
13.5850,7.062161411
13.5900,7.119488806
13.5950,7.179560427
13.6000,7.24242786
13.6050,7.308052824
13.6100,7.376633157
13.6150,7.448034235
13.6200,7.522310169
13.6250,7.599698459
13.6300,7.679998903
13.6350,7.76330307
13.6400,7.84969346
13.6450,7.939161737
13.6500,8.031941103
13.6550,8.128311636
13.6600,8.228326719
13.6650,8.332279289
13.6700,8.440053294
13.6750,8.551875112
13.6800,8.667769348
13.6850,8.787998779
13.6900,8.91258293
13.6950,9.041710087
13.7000,9.1754234
13.7050,9.313694199
13.7100,9.456585857
13.7150,9.604140824
13.7200,9.756451102
13.7250,9.913552227
13.7300,10.07538701
13.7350,10.24193326
13.7400,10.41320641
13.7450,10.58921155
13.7500,10.76969875
13.7550,10.95484532
13.7600,11.14448295
13.7650,11.33848536
13.7700,11.53678885
13.7750,11.73939344
13.7800,11.946091
13.7850,12.1569816
13.7900,12.37150285
13.7950,12.58972619
13.8000,12.81138606
13.8050,13.03637419
13.8100,13.26467099
13.8150,13.49605126
13.8200,13.73059826
13.8250,13.96808795
13.8300,14.2085015
13.8350,14.45176519
13.8400,14.69790814
13.8450,14.94686013
13.8500,15.19859634
13.8550,15.45278094
13.8600,15.70958112
13.8650,15.96902508
13.8700,16.23106596
13.8750,16.49561165
13.8800,16.76271194
13.8850,17.03231811
13.8900,17.30438959
13.8950,17.57882509
13.9000,17.8555262
13.9050,18.13433835
13.9100,18.41516242
13.9150,18.69787119
13.9200,18.9824726
13.9250,19.26885389
13.9300,19.5570426
13.9350,19.8469929
13.9400,20.13860592
13.9450,20.43193928
13.9500,20.72691308
13.9550,21.02323879
13.9600,21.32101362
13.9650,21.62009581
13.9700,21.92060334
13.9750,22.22244088
13.9800,22.52562943
13.9850,22.83002167
13.9900,23.13570924
13.9950,23.44244023
14.0000,23.75019389
14.0050,24.05893724
14.0100,24.36861776
14.0150,24.6789163
14.0200,24.98971881
14.0250,25.30118728
14.0300,25.61313179
14.0350,25.92537496
14.0400,26.23792063
14.0450,26.55075561
14.0500,26.86406525
14.0550,27.17760124
14.0600,27.49144158
14.0650,27.80571369
14.0700,28.12033346
14.0750,28.435262
14.0800,28.75063322
14.0850,29.06653403
14.0900,29.38293982
14.0950,29.69985865
14.1000,30.01730257
14.1050,30.33570522
14.1100,30.65509642
14.1150,30.97562214
14.1200,31.29741785
14.1250,31.62051012
14.1300,31.94487691
14.1350,32.27048058
14.1400,32.59724335
14.1450,32.92503283
14.1500,33.25389887
14.1550,33.58408303
14.1600,33.91511356
14.1650,34.24721986
14.1700,34.58039479
14.1750,34.91463008
14.1800,35.25015301
14.1850,35.58677065
14.1900,35.92460862
14.1950,36.26356032
14.2000,36.60363401
14.2050,36.94479219
14.2100,37.28698835
14.2150,37.63024269
14.2200,37.97442392
14.2250,38.31916692
14.2300,38.66431184
14.2350,39.00956374
14.2400,39.35467383
14.2450,39.6995037
14.2500,40.04384889
14.2550,40.3877539
14.2600,40.73127898
14.2650,41.07444751
14.2700,41.41699004
14.2750,41.75898643
14.2800,42.1004525
14.2850,42.44136591
14.2900,42.78165303
14.2950,43.12132333
14.3000,43.46055897
14.3050,43.79961698
14.3100,44.1387515
14.3150,44.47821319
14.3200,44.81816173
14.3250,45.15867826
14.3300,45.50011949
14.3350,45.8427176
14.3400,46.18665012
14.3450,46.53195815
14.3500,46.87889154
14.3550,47.22774062
14.3600,47.57873495
14.3650,47.93193447
14.3700,48.28767257
14.3750,48.64595461
14.3800,49.00700002
14.3850,49.37074981
14.3900,49.73782695
14.3950,50.10837922
14.4000,50.48285396
14.4050,50.86140726
14.4100,51.24423373
14.4150,51.63163271
14.4200,52.02343357
14.4250,52.42006781
14.4300,52.82185414
14.4350,53.22880245
14.4400,53.64081685
14.4450,54.05823308
14.4500,54.48110715
14.4550,54.90967735
14.4600,55.34391405
14.4650,55.78394718
14.4700,56.2298562
14.4750,56.6815747
14.4800,57.13886262
14.4850,57.60197807
14.4900,58.07072496
14.4950,58.54535743
14.5000,59.02565944
14.5050,59.51165815
14.5100,60.00304641
14.5150,60.49973674
14.5200,61.00136322
14.5250,61.50818708
14.5300,62.02008676
14.5350,62.53734056
14.5400,63.05997913
14.5450,63.58788466
14.5500,64.12092948
14.5550,64.65895209
14.5600,65.20167967
14.5650,65.74905618
14.5700,66.30077773
14.5750,66.85687671
14.5800,67.41720536
14.5850,67.98176592
14.5900,68.55061426
14.5950,69.12373345
14.6000,69.70108685
14.6050,70.28244376
14.6100,70.86764314
14.6150,71.45676939
14.6200,72.04957173
14.6250,72.64575074
14.6300,73.24515794
14.6350,73.8479336
14.6400,74.45401096
14.6450,75.06347705
14.6500,75.6761462
14.6550,76.29186034
14.6600,76.91027008
14.6650,77.53149048
14.6700,78.15535112
14.6750,78.78199707
14.6800,79.41117461
14.6850,80.04283334
14.6900,80.67708074
14.6950,81.31426879
14.7000,81.95389058
14.7050,82.59625207
14.7100,83.24095905
14.7150,83.88824916
14.7200,84.53839911
14.7250,85.19112283
14.7300,85.84640839
14.7350,86.50395052
14.7400,87.16401224
14.7450,87.8264259
14.7500,88.49116509
14.7550,89.15796203
14.7600,89.82700727
14.7650,90.49792039
14.7700,91.17045495
14.7750,91.84465091
14.7800,92.52031093
14.7850,93.19716753
14.7900,93.87523337
14.7950,94.55406511
14.8000,95.23383003
14.8050,95.91452466
14.8100,96.59616962
14.8150,97.27855371
14.8200,97.9620716
14.8250,98.64637946
14.8300,99.33161576
14.8350,100.0179375
14.8400,100.7050697
14.8450,101.392824
14.8500,102.0814274
14.8550,102.7708731
14.8600,103.460978
14.8650,104.1516874
14.8700,104.8429493
14.8750,105.5346726
14.8800,106.2267843
14.8850,106.9191329
14.8900,107.6114661
14.8950,108.3037812
14.9000,108.9964202
14.9050,109.6890127
14.9100,110.381655
14.9150,111.074425
14.9200,111.7670905
14.9250,112.4602209
14.9300,113.1539242
14.9350,113.848296
14.9400,114.5432227
14.9450,115.2388082
14.9500,115.9349549
14.9550,116.6315662
14.9600,117.3286246
14.9650,118.0255055
14.9700,118.7220488
14.9750,119.4178026
14.9800,120.1122935
14.9850,120.8048612
14.9900,121.4952642
14.9950,122.1828895
15.0000,122.8675153
15.0050,123.5486847
15.0100,124.2256222
15.0150,124.8983789
15.0200,125.5661943
15.0250,126.2285671
15.0300,126.8850172
15.0350,127.5350762
15.0400,128.1785513
15.0450,128.8150102
15.0500,129.4445277
15.0550,130.0669755
15.0600,130.6820625
15.0650,131.2902541
15.0700,131.8911777
15.0750,132.4846093
15.0800,133.0707973
15.0850,133.6498492
15.0900,134.2213525
15.0950,134.7858431
15.1000,135.3433449
15.1050,135.8939634
15.1100,136.4374701
15.1150,136.9736078
15.1200,137.5018912
15.1250,138.0222358
15.1300,138.5350701
15.1350,139.0402947
15.1400,139.5381678
15.1450,140.029462
15.1500,140.5136876
15.1550,140.9908261
15.1600,141.4607039
15.1650,141.9229874
15.1700,142.3774802
15.1750,142.8241194
15.1800,143.2628098
15.1850,143.6935297
15.1900,144.1166371
15.1950,144.5322632
15.2000,144.9404872
15.2050,145.3416029
15.2100,145.735748
15.2150,146.1226668
15.2200,146.5025129
15.2250,146.8751491
15.2300,147.2405193
15.2350,147.5987829
15.2400,147.9501818
15.2450,148.2948074
15.2500,148.632615
15.2550,148.964081
15.2600,149.2893095
15.2650,149.6085347
15.2700,149.9217935
15.2750,150.2293093
15.2800,150.531402
15.2850,150.8285142
15.2900,151.1210058
15.2950,151.4092072
15.3000,151.6934171
15.3050,151.9736434
15.3100,152.2503645
15.3150,152.5234097
15.3200,152.7930893
15.3250,153.0598037
15.3300,153.3236387
15.3350,153.5850306
15.3400,153.8442475
15.3450,154.101604
15.3500,154.3571491
15.3550,154.6108567
15.3600,154.8630111
15.3650,155.1134422
15.3700,155.3624983
15.3750,155.6104876
15.3800,155.857624
15.3850,156.1038541
15.3900,156.3492221
15.3950,156.5937811
15.4000,156.8374344
15.4050,157.0802244
15.4100,157.3223535
15.4150,157.5638385
15.4200,157.8047612
15.4250,158.0453401
15.4300,158.2856658
15.4350,158.5258056
15.4400,158.7658053
15.4450,159.0054563
15.4500,159.2447407
15.4550,159.4838785
15.4600,159.7228099
15.4650,159.9614291
15.4700,160.2000497
15.4750,160.4383822
15.4800,160.6762872
15.4850,160.9138925
15.4900,161.1507578
15.4950,161.3865988
15.5000,161.6210962
15.5050,161.8542944
15.5100,162.0858128
15.5150,162.3155722
15.5200,162.5433449
15.5250,162.7686729
15.5300,162.9916392
15.5350,163.2118658
15.5400,163.4295299
15.5450,163.6442385
15.5500,163.8558296
15.5550,164.0641387
15.5600,164.2692232
15.5650,164.4708352
15.5700,164.6689548
15.5750,164.8634013
15.5800,165.0542248
15.5850,165.2414557
15.5900,165.4251129
15.5950,165.6051681
15.6000,165.7817458
15.6050,165.9549455
15.6100,166.1250418
15.6150,166.2923986
15.6200,166.4568918
15.6250,166.6188517
15.6300,166.7781929
15.6350,166.9348399
15.6400,167.088934
15.6450,167.2405922
15.6500,167.389926
15.6550,167.5371806
15.6600,167.6825858
15.6650,167.8261437
15.6700,167.9678475
15.6750,168.1078549
15.6800,168.246192
15.6850,168.3832485
15.6900,168.5193295
15.6950,168.6544452
15.7000,168.7886976
15.7050,168.9223061
15.7100,169.0552481
15.7150,169.1876394
15.7200,169.3196666
15.7250,169.4516822
15.7300,169.5835565
15.7350,169.715369
15.7400,169.8471179
15.7450,169.9788681
15.7500,170.1107549
15.7550,170.2428269
15.7600,170.3752009
15.7650,170.5079232
15.7700,170.6408742
15.7750,170.7740825
15.7800,170.9076042
15.7850,171.0415669
15.7900,171.1759077
15.7950,171.310755
15.8000,171.4462648
15.8050,171.5820415
15.8100,171.7181993
15.8150,171.8546513
15.8200,171.9911478
15.8250,172.1279595
15.8300,172.2648584
15.8350,172.4017901
15.8400,172.5384668
15.8450,172.6745919
15.8500,172.8102754
15.8550,172.944981
15.8600,173.0786995
15.8650,173.2113094
15.8700,173.3425752
15.8750,173.472359
15.8800,173.6005651
15.8850,173.7270406
15.8900,173.8513307
15.8950,173.9732765
15.9000,174.0927292
15.9050,174.2095418
15.9100,174.3234891
15.9150,174.4342411
15.9200,174.5417074
15.9250,174.6455833
15.9300,174.7458355
15.9350,174.8426799
15.9400,174.9360444
15.9450,175.0258046
15.9500,175.1117822
15.9550,175.1941864
15.9600,175.2727999
15.9650,175.3473722
15.9700,175.418139
15.9750,175.4849034
15.9800,175.5475613
15.9850,175.6059286
15.9900,175.6599174
15.9950,175.709227
16.0000,175.7539794
16.0050,175.7939062
16.0100,175.8290632
16.0150,175.859185
16.0200,175.8845227
16.0250,175.9049098
16.0300,175.9206288
16.0350,175.931853
16.0400,175.9390354
16.0450,175.9426288
16.0500,175.9429087
16.0550,175.9401122
16.0600,175.9347728
16.0650,175.9277254
16.0700,175.9196442
16.0750,175.9113185
16.0800,175.903527
16.0850,175.8968478
16.0900,175.8920542
16.0950,175.889854
16.1000,175.8905411
16.1050,175.8948847
16.1100,175.9030011
16.1150,175.9151098
16.1200,175.9314936
16.1250,175.9520508
16.1300,175.9767887
16.1350,176.0056775
16.1400,176.0385485
16.1450,176.0755776
16.1500,176.1163352
16.1550,176.1608778
16.1600,176.2087032
16.1650,176.25962
16.1700,176.3134297
16.1750,176.3696138
16.1800,176.4276818
16.1850,176.4874208
16.1900,176.5486531
16.1950,176.6112353
16.2000,176.6745813
16.2050,176.738537
16.2100,176.8030259
16.2150,176.867867
16.2200,176.932958
16.2250,176.9982102
16.2300,177.0631423
16.2350,177.1274537
16.2400,177.1906805
16.2450,177.2525037
16.2500,177.3127002
16.2550,177.3705671
16.2600,177.4256734
16.2650,177.4780264
16.2700,177.5270141
16.2750,177.5724578
16.2800,177.614135
16.2850,177.6515936
16.2900,177.6847678
16.2950,177.7135302
16.3000,177.7375813
16.3050,177.7569737
16.3100,177.771714
16.3150,177.7819556
16.3200,177.7874357
16.3250,177.7883751
16.3300,177.7846545
16.3350,177.7765901
16.3400,177.7642175
16.3450,177.7474676
16.3500,177.7264466
16.3550,177.7013899
16.3600,177.6725394
16.3650,177.6401425
16.3700,177.6042937
16.3750,177.565167
16.3800,177.5228953
16.3850,177.477649
16.3900,177.4295165
16.3950,177.3785055
16.4000,177.3247203
16.4050,177.2681248
16.4100,177.2086964
16.4150,177.1469242
16.4200,177.0827949
16.4250,177.0164628
16.4300,176.9479347
16.4350,176.8772229
16.4400,176.8043793
16.4450,176.7292152
16.4500,176.6517827
16.4550,176.5720117
16.4600,176.4899607
16.4650,176.4056964
16.4700,176.3189452
16.4750,176.2300126
16.4800,176.1389747
16.4850,176.0457801
16.4900,175.9503847
16.4950,175.8525096
16.5000,175.7526527
16.5050,175.6507082
16.5100,175.5466809
16.5150,175.440477
16.5200,175.3320169
16.5250,175.2213364
16.5300,175.108765
16.5350,174.9943029
16.5400,174.8780106
16.5450,174.7598751
16.5500,174.6398806
16.5550,174.5179675
16.5600,174.3941081
16.5650,174.2683576
16.5700,174.1406022
16.5750,174.0107185
16.5800,173.8787277
16.5850,173.7447421
16.5900,173.6087397
16.5950,173.4706308
16.6000,173.3306209
16.6050,173.1884157
16.6100,173.0441218
16.6150,172.8974736
16.6200,172.748551
16.6250,172.5970978
16.6300,172.4435394
16.6350,172.2876053
16.6400,172.1293439
16.6450,171.969055
16.6500,171.8068897
16.6550,171.6430706
16.6600,171.4774506
16.6650,171.3100825
16.6700,171.1411232
16.6750,170.9707419
16.6800,170.7990037
16.6850,170.6257938
16.6900,170.4512433
16.6950,170.2752691
16.7000,170.0979969
16.7050,169.9195164
16.7100,169.7401668
16.7150,169.5596587
16.7200,169.377991
16.7250,169.1950699
16.7300,169.011066
16.7350,168.8259545
16.7400,168.6396664
16.7450,168.4522202
16.7500,168.2639465
16.7550,168.0747953
16.7600,167.8847008
16.7650,167.6936147
16.7700,167.501875
16.7750,167.3093075
16.7800,167.1160283
16.7850,166.9220876
16.7900,166.7275612
16.7950,166.5327155
16.8000,166.3374751
16.8050,166.1419555
16.8100,165.9458944
16.8150,165.7494947
16.8200,165.5527774
16.8250,165.3554277
16.8300,165.1574381
16.8350,164.9587424
16.8400,164.7591797
16.8450,164.5587004
16.8500,164.3570575
16.8550,164.1543131
16.8600,163.9503011
16.8650,163.7449481
16.8700,163.5381101
16.8750,163.3298423
16.8800,163.1199631
16.8850,162.9085409
16.8900,162.6954009
16.8950,162.480628
16.9000,162.2638794
16.9050,162.0456926
16.9100,161.8256267
16.9150,161.6041208
16.9200,161.3810202
16.9250,161.1564581
16.9300,160.9301346
16.9350,160.7019881
16.9400,160.4723267
16.9450,160.2407353
16.9500,160.007391
16.9550,159.77208
16.9600,159.5350497
16.9650,159.2959151
16.9700,159.0549984
16.9750,158.8121709
16.9800,158.5671257
16.9850,158.3201663
16.9900,158.0710803
16.9950,157.8202318
17.0000,157.5673836
17.0050,157.3126323
17.0100,157.0557739
17.0150,156.796784
17.0200,156.5357554
17.0250,156.272622
17.0300,156.007279
17.0350,155.7396741
17.0400,155.4698746
17.0450,155.1979091
17.0500,154.9234358
17.0550,154.6465929
17.0600,154.3674863
17.0650,154.0858898
17.0700,153.8017213
17.0750,153.5150786
17.0800,153.2256141
17.0850,152.9332267
17.0900,152.6378728
17.0950,152.3393969
17.1000,152.0376092
17.1050,151.7326789
17.1100,151.4247559
17.1150,151.1137326
17.1200,150.7994724
17.1250,150.4822721
17.1300,150.1620799
17.1350,149.8387449
17.1400,149.5125603
17.1450,149.1832364
17.1500,148.8507003
17.1550,148.5146089
17.1600,148.1751341
17.1650,147.8317606
17.1700,147.4849273
17.1750,147.1346393
17.1800,146.7806772
17.1850,146.4228035
17.1900,146.0610339
17.1950,145.6954225
17.2000,145.326148
17.2050,144.9525759
17.2100,144.5750792
17.2150,144.1934061
17.2200,143.8075528
17.2250,143.4173994
17.2300,143.0229392
17.2350,142.6244183
17.2400,142.2216507
17.2450,141.8145407
17.2500,141.4034399
17.2550,140.9880553
17.2600,140.5683607
17.2650,140.1446618
17.2700,139.7162614
17.2750,139.2832142
17.2800,138.8458494
17.2850,138.4038394
17.2900,137.9571826
17.2950,137.5054531
17.3000,137.048857
17.3050,136.5871164
17.3100,136.1207136
17.3150,135.6493303
17.3200,135.1730098
17.3250,134.6919964
17.3300,134.2062287
17.3350,133.7158164
17.3400,133.2209686
17.3450,132.7217958
17.3500,132.2180795
17.3550,131.7096789
17.3600,131.1965309
17.3650,130.6788254
17.3700,130.1564527
17.3750,129.629554
17.3800,129.0981006
17.3850,128.5619463
17.3900,128.0207372
17.3950,127.474809
17.4000,126.9242559
17.4050,126.3688052
17.4100,125.8082451
17.4150,125.2429438
17.4200,124.672798
17.4250,124.0975529
17.4300,123.5171035
17.4350,122.9315313
17.4400,122.3405667
17.4450,121.7443026
17.4500,121.1427034
17.4550,120.5360669
17.4600,119.924132
17.4650,119.3070887
17.4700,118.6844102
17.4750,118.0561422
17.4800,117.4222143
17.4850,116.7829256
17.4900,116.1380353
17.4950,115.4877691
17.5000,114.8315193
17.5050,114.1698424
17.5100,113.5022461
17.5150,112.8287533
17.5200,112.1496481
17.5250,111.4652179
17.5300,110.7754005
17.5350,110.080295
17.5400,109.3793027
17.5450,108.6729418
17.5500,107.9607005
17.5550,107.243344
17.5600,106.5204039
17.5650,105.7923244
17.5700,105.0592282
17.5750,104.3212766
17.5800,103.5784934
17.5850,102.8315608
17.5900,102.0806385
17.5950,101.3262925
17.6000,100.5682665
17.6050,99.80684371
17.6100,99.04225684
17.6150,98.27516468
17.6200,97.50597905
17.6250,96.73486886
17.6300,95.96247077
17.6350,95.18895719
17.6400,94.41468421
17.6450,93.64011785
17.6500,92.86582917
17.6550,92.09181508
17.6600,91.3183589
17.6650,90.54593393
17.6700,89.7749778
17.6750,89.00564814
17.6800,88.2385676
17.6850,87.47400247
17.6900,86.71237647
17.6950,85.95353274
17.7000,85.1976263
17.7050,84.44497479
17.7100,83.6959477
17.7150,82.9505204
17.7200,82.20941598
17.7250,81.47283711
17.7300,80.74132477
17.7350,80.01476318
17.7400,79.29380269
17.7450,78.57845214
17.7500,77.86868938
17.7550,77.16453363
17.7600,76.46582366
17.7650,75.77316198
17.7700,75.08660412
17.7750,74.40629061
17.7800,73.73243639
17.7850,73.06486575
17.7900,72.40375062
17.7950,71.74909821
17.8000,71.10136474
17.8050,70.4603152
17.8100,69.82636257
17.8150,69.19933496
17.8200,68.57932806
17.8250,67.96613231
17.8300,67.35978417
17.8350,66.76017547
17.8400,66.16752283
17.8450,65.58128823
17.8500,65.00169606
17.8550,64.42796654
17.8600,63.86044908
17.8650,63.29894279
17.8700,62.74317558
17.8750,62.19315285
17.8800,61.64875403
17.8850,61.10998371
17.8900,60.57716397
17.8950,60.05018616
17.9000,59.52916469
17.9050,59.01402428
17.9100,58.50456548
17.9150,58.0008549
17.9200,57.50227213
17.9250,57.00943641
17.9300,56.52200006
17.9350,56.04006704
17.9400,55.56386128
17.9450,55.09367061
17.9500,54.62966817
17.9550,54.17190997
17.9600,53.72067494
17.9650,53.27558291
17.9700,52.83629434
17.9750,52.40272069
17.9800,51.97485416
17.9850,51.55248792
17.9900,51.13561429
17.9950,50.72417477
18.0000,50.31816048
18.0050,49.91750385
18.0100,49.52219378
18.0150,49.13190051
18.0200,48.74657606
18.0250,48.36625419
18.0300,47.99087002
18.0350,47.6204169
18.0400,47.25436416
18.0450,46.89270633
18.0500,46.53527262
18.0550,46.18187207
18.0600,45.83250499
18.0650,45.48637774
18.0700,45.14351
18.0750,44.80369347
18.0800,44.46685946
18.0850,44.1331577
18.0900,43.8023092
18.0950,43.47442945
18.1000,43.14933895
18.1050,42.82671283
18.1100,42.50633698
18.1150,42.18783616
18.1200,41.87063155
18.1250,41.5546445
18.1300,41.23943876
18.1350,40.92500931
18.1400,40.61111068
18.1450,40.29789955
18.1500,39.98516791
18.1550,39.67271943
18.1600,39.36069411
18.1650,39.04893844
18.1700,38.73753203
18.1750,38.42627477
18.1800,38.11525663
18.1850,37.80419865
18.1900,37.4929469
18.1950,37.18152053
18.2000,36.86995551
18.2050,36.5585569
18.2100,36.24727653
18.2150,35.93621145
18.2200,35.62585665
18.2250,35.31592519
18.2300,35.00691081
18.2350,34.69881384
18.2400,34.39170824
18.2450,34.08553342
18.2500,33.78042561
18.2550,33.47659421
18.2600,33.17369973
18.2650,32.87217105
18.2700,32.57191131
18.2750,32.27298159
18.2800,31.97554067
18.2850,31.67935345
18.2900,31.38456535
18.2950,31.09123404
18.3000,30.79918058
18.3050,30.50866155
18.3100,30.21971667
18.3150,29.93258412
18.3200,29.64723896
18.3250,29.36348309
18.3300,29.08138334
18.3350,28.80077668
18.3400,28.52186612
18.3450,28.2446846
18.3500,27.9693968
18.3550,27.69574192
18.3600,27.42391062
18.3650,27.15419525
18.3700,26.88647283
18.3750,26.62095828
18.3800,26.35749213
18.3850,26.0961416
18.3900,25.83710859
18.3950,25.58013858
18.4000,25.32537636
18.4050,25.07290881
18.4100,24.82256686
18.4150,24.5744544
18.4200,24.32871135
18.4250,24.0852595
18.4300,23.84411332
18.4350,23.60522177
18.4400,23.3684154
18.4450,23.13365071
18.4500,22.90077379
18.4550,22.66992814
18.4600,22.44105725
18.4650,22.21397065
18.4700,21.98865928
18.4750,21.76507646
18.4800,21.54307161
18.4850,21.32260624
18.4900,21.10354911
18.4950,20.88615805
18.5000,20.67040267
18.5050,20.45615064
18.5100,20.24325927
18.5150,20.03209862
18.5200,19.82252336
18.5250,19.61451972
18.5300,19.40801518
18.5350,19.20309926
18.5400,18.99984332
18.5450,18.79815359
18.5500,18.598195
18.5550,18.39996336
18.5600,18.20357838
18.5650,18.00890938
18.5700,17.81593088
18.5750,17.62478792
18.5800,17.43531805
18.5850,17.24764102
18.5900,17.06160038
18.5950,16.87746241
18.6000,16.69543659
18.6050,16.51565673
18.6100,16.33819338
18.6150,16.16309119
18.6200,15.99043038
18.6250,15.82058633
18.6300,15.65339526
18.6350,15.48904113
18.6400,15.32734003
18.6450,15.16830754
18.6500,15.01198707
18.6550,14.85851958
18.6600,14.70783875
18.6650,14.55972327
18.6700,14.41432504
18.6750,14.27130711
18.6800,14.13072782
18.6850,13.99223216
18.6900,13.85580572
18.6950,13.7213776
18.7000,13.58867998
18.7050,13.45740745
18.7100,13.32750644
18.7150,13.19882072
18.7200,13.07120982
18.7250,12.94456445
18.7300,12.81878383
18.7350,12.69370847
18.7400,12.56912003
18.7450,12.4449135
18.7500,12.32085113
18.7550,12.19674402
18.7600,12.07224049
18.7650,11.94736004
18.7700,11.82197596
18.7750,11.69589791
18.7800,11.5692197
18.7850,11.44186399
18.7900,11.31395182
18.7950,11.18536382
18.8000,11.05609444
18.8050,10.92632014
18.8100,10.79631398
18.8150,10.66597412
18.8200,10.53539835
18.8250,10.4048529
18.8300,10.27462572
18.8350,10.14474322
18.8400,10.01556813
18.8450,9.887313414
18.8500,9.760071888
18.8550,9.634131279
18.8600,9.509893126
18.8650,9.387643009
18.8700,9.267940414
18.8750,9.151095282
18.8800,9.037509366
18.8850,8.927652557
18.8900,8.82199023
18.8950,8.720738103
18.9000,8.624200539
18.9050,8.532477843
18.9100,8.44595435
18.9150,8.364855065
18.9200,8.289049967
18.9250,8.218554438
18.9300,8.153504552
18.9350,8.093828686
18.9400,8.039446875
18.9450,7.990079138
18.9500,7.945578534
18.9550,7.905602045
18.9600,7.869581199
18.9650,7.83731171
18.9700,7.808203827
18.9750,7.781997211
18.9800,7.758345866
18.9850,7.737000982
18.9900,7.717625707
18.9950,7.699936327
19.0000,7.68370929
19.0050,7.668913987
19.0100,7.655478737
19.0150,7.643183798
19.0200,7.632074624
19.0250,7.622053804
19.0300,7.613187785
19.0350,7.605502765
19.0400,7.599102831
19.0450,7.594002158
19.0500,7.590366911
19.0550,7.588367994
19.0600,7.588175276
19.0650,7.589754179
19.0700,7.593126179
19.0750,7.598482744
19.0800,7.605693716
19.0850,7.614852689
19.0900,7.625917884
19.0950,7.63895723
19.1000,7.654032177
19.1050,7.671143251
19.1100,7.690379305
19.1150,7.711744197
19.1200,7.735244789
19.1250,7.761052812
19.1300,7.788983359
19.1350,7.819284107
19.1400,7.851861124
19.1450,7.886833859
19.1500,7.924334912
19.1550,7.9641913
19.1600,8.006376709
19.1650,8.050950781
19.1700,8.097700847
19.1750,8.146526602
19.1800,8.197321893
19.1850,8.249973716
19.1900,8.30446696
19.1950,8.360809504
19.2000,8.418875639
19.2050,8.478816518
19.2100,8.540508889
19.2150,8.603858981
19.2200,8.669236914
19.2250,8.736899321
19.2300,8.806794109
19.2350,8.879173442
19.2400,8.954277322
19.2450,9.032057034
19.2500,9.112687673
19.2550,9.196217146
19.2600,9.282901102
19.2650,9.372781857
19.2700,9.465949769
19.2750,9.56262002
19.2800,9.662813835
19.2850,9.766464756
19.2900,9.873656967
19.2950,9.984341879
19.3000,10.09862345
19.3050,10.21625304
19.3100,10.33698091
19.3150,10.46092675
19.3200,10.58798038
19.3250,10.71819902
19.3300,10.85143946
19.3350,10.9876493
19.3400,11.12684435
19.3450,11.2689823
19.3500,11.41417569
19.3550,11.56240039
19.3600,11.71359077
19.3650,11.86791843
19.3700,12.02555004
19.3750,12.18635731
19.3800,12.35036174
19.3850,12.51756753
19.3900,12.68808167
19.3950,12.86157829
19.4000,13.03803549
19.4050,13.21756297
19.4100,13.39982853
19.4150,13.58467959
19.4200,13.77219802
19.4250,13.96232297
19.4300,14.1548416
19.4350,14.34965504
19.4400,14.54685216
19.4450,14.74604869
19.4500,14.94696415
19.4550,15.14966658
19.4600,15.35395762
19.4650,15.55961444
19.4700,15.76671377
19.4750,15.97502385
19.4800,16.1845392
19.4850,16.39523532
19.4900,16.60708593
19.4950,16.81999329
19.5000,17.034272
19.5050,17.24964969
19.5100,17.46633736
19.5150,17.68444512
19.5200,17.90408871
19.5250,18.12494508
19.5300,18.34722515
19.5350,18.57083625
19.5400,18.79575156
19.5450,19.0223262
19.5500,19.25048596
19.5550,19.48028609
19.5600,19.7119334
19.5650,19.94552476
19.5700,20.18126686
19.5750,20.41912117
19.5800,20.65901351
19.5850,20.90134994
19.5900,21.14601711
19.5950,21.39308577
19.6000,21.6425913
19.6050,21.89463877
19.6100,22.14979193
19.6150,22.40783836
19.6200,22.66893014
19.6250,22.93296431
19.6300,23.20013828
19.6350,23.47039083
19.6400,23.743866
19.6450,24.02038641
19.6500,24.30002343
19.6550,24.58255693
19.6600,24.8681202
19.6650,25.15672977
19.6700,25.44806666
19.6750,25.74196522
19.6800,26.03842956
19.6850,26.33743454
19.6900,26.63857253
19.6950,26.9419528
19.7000,27.24749494
19.7050,27.55510722
19.7100,27.86480185
19.7150,28.17645143
19.7200,28.48978105
19.7250,28.80440905
19.7300,29.1204993
19.7350,29.43791626
19.7400,29.75639797
19.7450,30.07586436
19.7500,30.39643558
19.7550,30.71805829
19.7600,31.04073388
19.7650,31.36448007
19.7700,31.68918263
19.7750,32.01495511
19.7800,32.34180453
19.7850,32.66954764
19.7900,32.99819528
19.7950,33.32744913
19.8000,33.65730301
19.8050,33.98777322
19.8100,34.31882402
19.8150,34.65057078
19.8200,34.98273076
19.8250,35.31560822
19.8300,35.64906633
19.8350,35.98314498
19.8400,36.31775953
19.8450,36.65296617
19.8500,36.98898282
19.8550,37.32581007
19.8600,37.66359795
19.8650,38.00213467
19.8700,38.34177791
19.8750,38.68250171
19.8800,39.02467504
19.8850,39.36820302
19.8900,39.71330653
19.8950,40.06025218
19.9000,40.40923667
19.9050,40.7603419
19.9100,41.11342083
19.9150,41.46864683
19.9200,41.82622322
19.9250,42.18628216
19.9300,42.54890797
19.9350,42.91423345
19.9400,43.28231788
19.9450,43.653487
19.9500,44.02752564
19.9550,44.40464374
19.9600,44.78469578
19.9650,45.16737795
19.9700,45.55280557
19.9750,45.94086732
19.9800,46.33164755
19.9850,46.72518319
19.9900,47.12160784
19.9950,47.52104968
20.0000,47.9235574
20.0050,48.32900054
20.0100,48.73740402
20.0150,49.14877808
20.0200,49.56345274
20.0250,49.98118034
20.0300,50.40199878
20.0350,50.82602181
20.0400,51.25319042
20.0450,51.68363991
20.0500,52.11724088
20.0550,52.55429858
20.0600,52.99456224
20.0650,53.43810065
20.0700,53.8849768
20.0750,54.33508534
20.0800,54.7883751
20.0850,55.24497782
20.0900,55.70483168
20.0950,56.16810686
20.1000,56.63465111
20.1050,57.10465773
20.1100,57.57791859
20.1150,58.05428736
20.1200,58.53366327
20.1250,59.01589509
20.1300,59.50131263
20.1350,59.98980352
20.1400,60.48145556
20.1450,60.97632246
20.1500,61.47443188
20.1550,61.97574971
20.1600,62.48020304
20.1650,62.98803936
20.1700,63.49916406
20.1750,64.0136189
20.1800,64.53154749
20.1850,65.05282251
20.1900,65.57748393
20.1950,66.10572179
20.2000,66.63733354
20.2050,67.17259887
20.2100,67.71119346
20.2150,68.25334912
20.2200,68.79888595
20.2250,69.3475466
20.2300,69.89926196
20.2350,70.45401164
20.2400,71.01171941
20.2450,71.57199626
20.2500,72.13489035
20.2550,72.70041557
20.2600,73.26841578
20.2650,73.8389818
20.2700,74.41240206
20.2750,74.98886203
20.2800,75.5684599
20.2850,76.15073619
20.2900,76.73609334
20.2950,77.32434263
20.3000,77.91554599
20.3050,78.50977721
20.3100,79.10708061
20.3150,79.70777566
20.3200,80.31158037
20.3250,80.91901791
20.3300,81.53022585
20.3350,82.14468395
20.3400,82.7628453
20.3450,83.38488389
20.3500,84.0106875
20.3550,84.64014978
20.3600,85.27360121
20.3650,85.91075627
20.3700,86.55150792
20.3750,87.19602996
20.3800,87.84415028
20.3850,88.49604565
20.3900,89.15156635
20.3950,89.81071543
20.4000,90.4732778
20.4050,91.13949126
20.4100,91.80921803
20.4150,92.48220624
20.4200,93.15870546
20.4250,93.83861965
20.4300,94.52181644
20.4350,95.20833234
20.4400,95.89783823
20.4450,96.5904285
20.4500,97.28553788
20.4550,97.98352325
20.4600,98.68400639
20.4650,99.3867634
20.4700,100.0916522
20.4750,100.7985558
20.4800,101.507348
20.4850,102.2176733
20.4900,102.9298106
20.4950,103.6432061
20.5000,104.3577823
20.5050,105.0731972
20.5100,105.7897276
20.5150,106.5067155
20.5200,107.223889
20.5250,107.9414526
20.5300,108.6591795
20.5350,109.3765263
20.5400,110.0935175
20.5450,110.8098785
20.5500,111.5252206
20.5550,112.2390062
20.5600,112.9512519
20.5650,113.6616581
20.5700,114.3702943
20.5750,115.0767423
20.5800,115.7804674
20.5850,116.481309
20.5900,117.1789781
20.5950,117.8730556
20.6000,118.5635468
20.6050,119.2501956
20.6100,119.9326894
20.6150,120.610327
20.6200,121.2834704
20.6250,121.9519683
20.6300,122.6155622
20.6350,123.2743238
20.6400,123.9276718
20.6450,124.5755956
20.6500,125.2178792
20.6550,125.8543941
20.6600,126.4848449
20.6650,127.109182
20.6700,127.7274157
20.6750,128.3390451
20.6800,128.9441431
20.6850,129.5422245
20.6900,130.1333116
20.6950,130.7171509
20.7000,131.2940859
20.7050,131.8639379
20.7100,132.4265383
20.7150,132.9819081
20.7200,133.52956
20.7250,134.0699906
20.7300,134.6032301
20.7350,135.1292832
20.7400,135.6481928
20.7450,136.1597919
20.7500,136.6640866
20.7550,137.1609284
20.7600,137.6505017
20.7650,138.1330966
20.7700,138.6086315
20.7750,139.0772454
20.7800,139.5388187
20.7850,139.9933543
20.7900,140.4406559
20.7950,140.8807615
20.8000,141.3133488
20.8050,141.7386959
20.8100,142.1564043
20.8150,142.5669725
20.8200,142.9700603
20.8250,143.3658868
20.8300,143.7542546
20.8350,144.1355601
20.8400,144.5094966
20.8450,144.8767404
20.8500,145.2371816
20.8550,145.5913533
20.8600,145.9397583
20.8650,146.2824779
20.8700,146.6198093
20.8750,146.9521026
20.8800,147.2796535
20.8850,147.6028892
20.8900,147.9217402
20.8950,148.2368583
20.9000,148.5482143
20.9050,148.856129
20.9100,149.1605779
20.9150,149.4621299
20.9200,149.760792
20.9250,150.0569648
20.9300,150.350839
20.9350,150.6422956
20.9400,150.9313812
20.9450,151.2180969
20.9500,151.5027044
20.9550,151.7855138
20.9600,152.0661459
20.9650,152.345078
20.9700,152.6225499
20.9750,152.8986076
20.9800,153.1734487
20.9850,153.4473503
20.9900,153.7200682
20.9950,153.9918568
21.0000,154.26271
21.0050,154.5326709
21.0100,154.8016115
21.0150,155.0696603
21.0200,155.3368563
21.0250,155.6029931
21.0300,155.8676446
21.0350,156.130848
21.0400,156.3925476
21.0450,156.6524493
21.0500,156.9104685
21.0550,157.1666851
21.0600,157.4209601
21.0650,157.6728891
21.0700,157.9227757
21.0750,158.1702107
21.0800,158.4153233
21.0850,158.6580248
21.0900,158.8983011
21.0950,159.1362104
21.1000,159.3717787
21.1050,159.6048573
21.1100,159.8355304
21.1150,160.0634699
21.1200,160.2888949
21.1250,160.5115442
21.1300,160.7314379
21.1350,160.9485155
21.1400,161.1627263
21.1450,161.3740694
21.1500,161.5825453
21.1550,161.7880672
21.1600,161.9902982
21.1650,162.1893837
21.1700,162.3850177
21.1750,162.5773623
21.1800,162.7663
21.1850,162.9517643
21.1900,163.1340803
21.1950,163.3132337
21.2000,163.4891364
21.2050,163.6618971
21.2100,163.831663
21.2150,163.998737
21.2200,164.1630592
21.2250,164.3246387
21.2300,164.4833717
21.2350,164.6395787
21.2400,164.7933028
21.2450,164.9444201
21.2500,165.0933689
21.2550,165.2400152
21.2600,165.3846012
21.2650,165.5270162
21.2700,165.667237
21.2750,165.8052662
21.2800,165.9412396
21.2850,166.0752191
21.2900,166.2072482
21.2950,166.3374901
21.3000,166.4659619
21.3050,166.5922741
21.3100,166.716841
21.3150,166.8394916
21.3200,166.9602053
21.3250,167.0790294
21.3300,167.1962085
21.3350,167.3115852
21.3400,167.425304
21.3450,167.5374158
21.3500,167.6480458
21.3550,167.7572112
21.3600,167.8648877
21.3650,167.9713465
21.3700,168.0764806
21.3750,168.1805128
21.3800,168.2835706
21.3850,168.3857914
21.3900,168.4874006
21.3950,168.5882641
21.4000,168.688682
21.4050,168.7887863
21.4100,168.888488
21.4150,168.9879914
21.4200,169.0874263
21.4250,169.1868327
21.4300,169.2865162
21.4350,169.3864612
21.4400,169.4867952
21.4450,169.5874355
21.4500,169.6884378
21.4550,169.7895128
21.4600,169.8908043
21.4650,169.9924205
21.4700,170.0945108
21.4750,170.1968302
21.4800,170.2994396
21.4850,170.4022087
21.4900,170.5048168
21.4950,170.6071935
21.5000,170.7092489
21.5050,170.8108156
21.5100,170.912003
21.5150,171.0127721
21.5200,171.1131719
21.5250,171.2130751
21.5300,171.3123674
21.5350,171.4112606
21.5400,171.509646
21.5450,171.6076341
21.5500,171.7049123
21.5550,171.8014765
21.5600,171.8971966
21.5650,171.9920249
21.5700,172.0857583
21.5750,172.178532
21.5800,172.2702717
21.5850,172.3609
21.5900,172.4507769
21.5950,172.5396263
21.6000,172.627338
21.6050,172.7143
21.6100,172.8000997
21.6150,172.8850693
21.6200,172.9694942
21.6250,173.0534965
21.6300,173.1372508
21.6350,173.2209164
21.6400,173.3047222
21.6450,173.3889463
21.6500,173.4737654
21.6550,173.5592707
21.6600,173.6459286
21.6650,173.7339419
21.6700,173.8234823
21.6750,173.9145272
21.6800,174.0070814
21.6850,174.101234
21.6900,174.1966833
21.6950,174.2936176
21.7000,174.3919682
21.7050,174.4915601
21.7100,174.5923927
21.7150,174.6940735
21.7200,174.7966394
21.7250,174.8996813
21.7300,175.0028852
21.7350,175.1060662
21.7400,175.2088474
21.7450,175.3106664
21.7500,175.411287
21.7550,175.5104774
21.7600,175.6078522
21.7650,175.7029945
21.7700,175.7956764
21.7750,175.8859644
21.7800,175.9734264
21.7850,176.0580913
21.7900,176.1400323
21.7950,176.2189326
21.8000,176.2947926
21.8050,176.3676691
21.8100,176.4374082
21.8150,176.5037236
21.8200,176.5666204
21.8250,176.626202
21.8300,176.6826063
21.8350,176.7354199
21.8400,176.7849229
21.8450,176.8309434
21.8500,176.8737085
21.8550,176.9130803
21.8600,176.9492572
21.8650,176.9822677
21.8700,177.0124572
21.8750,177.0398272
21.8800,177.0643764
21.8850,177.0863254
21.8900,177.105632
21.8950,177.1224934
21.9000,177.1371699
21.9050,177.1497576
21.9100,177.160699
21.9150,177.1699541
21.9200,177.177636
21.9250,177.1838278
21.9300,177.1884989
21.9350,177.191894
21.9400,177.1936787
21.9450,177.19393
21.9500,177.1928501
21.9550,177.1904569
21.9600,177.1865792
21.9650,177.1811332
21.9700,177.1739279
21.9750,177.1653226
21.9800,177.155168
21.9850,177.1435275
21.9900,177.1303432
21.9950,177.115651
22.0000,177.0992328
22.0050,177.0811289
22.0100,177.0613856
22.0150,177.0403374
22.0200,177.017618
22.0250,176.9932655
22.0300,176.9672147
22.0350,176.9394362
22.0400,176.9099487
22.0450,176.8791645
22.0500,176.8468731
22.0550,176.813213
22.0600,176.7782523
22.0650,176.7420689
22.0700,176.7047067
22.0750,176.6659783
22.0800,176.6260628
22.0850,176.5849377
22.0900,176.5423858
22.0950,176.4986596
22.1000,176.4538782
22.1050,176.4077476
22.1100,176.360505
22.1150,176.31224
22.1200,176.2628448
22.1250,176.2122369
22.1300,176.1604269
22.1350,176.107427
22.1400,176.0530793
22.1450,175.9976397
22.1500,175.9410332
22.1550,175.8833701
22.1600,175.8245769
22.1650,175.7646201
22.1700,175.7033532
22.1750,175.6407871
22.1800,175.576907
22.1850,175.5115651
22.1900,175.4446979
22.1950,175.3763179
22.2000,175.3063452
22.2050,175.2347019
22.2100,175.1613647
22.2150,175.0861274
22.2200,175.0089529
22.2250,174.9298942
22.2300,174.8487823
22.2350,174.7654564
22.2400,174.6800975
22.2450,174.5927802
22.2500,174.5031056
22.2550,174.4112316
22.2600,174.3171622
22.2650,174.2208775
22.2700,174.122384
22.2750,174.0215395
22.2800,173.9182684
22.2850,173.8124594
22.2900,173.7042807
22.2950,173.5936704
22.3000,173.4807051
22.3050,173.3652183
22.3100,173.2472867
22.3150,173.1265818
22.3200,173.0033851
22.3250,172.8778673
22.3300,172.7499278
22.3350,172.6195688
22.3400,172.4870799
22.3450,172.3520421
22.3500,172.2147234
22.3550,172.0749793
22.3600,171.9329292
22.3650,171.7884305
22.3700,171.6413101
22.3750,171.4917007
22.3800,171.3397423
22.3850,171.1852688
22.3900,171.0284606
22.3950,170.8693008
22.4000,170.7077697
22.4050,170.5442057
22.4100,170.3782511
22.4150,170.2100287
22.4200,170.0395511
22.4250,169.8666791
22.4300,169.6914901
22.4350,169.5140836
22.4400,169.3345606
22.4450,169.1524673
22.4500,168.9679903
22.4550,168.7809441
22.4600,168.5915169
22.4650,168.3997091
22.4700,168.2057177
22.4750,168.0096278
22.4800,167.8114508
22.4850,167.6111733
22.4900,167.4087492
22.4950,167.2043361
22.5000,166.9980148
22.5050,166.7896792
22.5100,166.5795422
22.5150,166.3675103
22.5200,166.1534876
22.5250,165.9374081
22.5300,165.7194633
22.5350,165.4996513
22.5400,165.2780882
22.5450,165.0544526
22.5500,164.8290308
22.5550,164.6016834
22.5600,164.3722725
22.5650,164.1407898
22.5700,163.9072691
22.5750,163.6714489
22.5800,163.4333814
22.5850,163.1931768
22.5900,162.9506927
22.5950,162.7058449
22.6000,162.4588806
22.6050,162.2095376
22.6100,161.9580087
22.6150,161.7041823
22.6200,161.4477898
22.6250,161.1886795
22.6300,160.9266125
22.6350,160.661606
22.6400,160.393479
22.6450,160.1225842
22.6500,159.8486883
22.6550,159.5717209
22.6600,159.2915489
22.6650,159.0082098
22.6700,158.721573
22.6750,158.4314631
22.6800,158.1380172
22.6850,157.8413761
22.6900,157.5416511
22.6950,157.2388055
22.7000,156.932791
22.7050,156.6232394
22.7100,156.3101316
22.7150,155.9932427
22.7200,155.6725314
22.7250,155.3480672
22.7300,155.0197593
22.7350,154.6873002
22.7400,154.3507131
22.7450,154.0102924
22.7500,153.665697
22.7550,153.3170282
22.7600,152.9640072
22.7650,152.6065061
22.7700,152.24427
22.7750,151.877107
22.7800,151.5047982
22.7850,151.1275142
22.7900,150.7451594
22.7950,150.3579509
22.8000,149.9656997
22.8050,149.5685209
22.8100,149.1662129
22.8150,148.7588526
22.8200,148.346404
22.8250,147.9288313
22.8300,147.5062552
22.8350,147.0787981
22.8400,146.6461877
22.8450,146.2083482
22.8500,145.7651626
22.8550,145.3161758
22.8600,144.8613278
22.8650,144.4006413
22.8700,143.9337853
22.8750,143.4607449
22.8800,142.9812914
22.8850,142.495152
22.8900,142.0020502
22.8950,141.5020968
22.9000,140.9947066
22.9050,140.480119
22.9100,139.9579553
22.9150,139.4284566
22.9200,138.8915757
22.9250,138.3471812
22.9300,137.7953116
22.9350,137.2356098
22.9400,136.6681299
22.9450,136.0925196
22.9500,135.5084204
22.9550,134.9161137
22.9600,134.3153207
22.9650,133.7058975
22.9700,133.0875411
22.9750,132.4604168
22.9800,131.8240639
22.9850,131.1783733
22.9900,130.5228142
22.9950,129.857109
23.0000,129.1812529
23.0050,128.4954539
23.0100,127.7999035
23.0150,127.0947952
23.0200,126.3804304
23.0250,125.6566331
23.0300,124.9234254
23.0350,124.1811478
23.0400,123.4298015
23.0450,122.669679
23.0500,121.9008604
23.0550,121.1234864
23.0600,120.3375209
23.0650,119.5432031
23.0700,118.7408052
23.0750,117.9306693
23.0800,117.1134797
23.0850,116.2892226
23.0900,115.4579606
23.0950,114.6197646
23.1000,113.7750428
23.1050,112.9243816
23.1100,112.0679812
23.1150,111.2063932
23.1200,110.3397256
23.1250,109.4687481
23.1300,108.5934695
23.1350,107.714298
23.1400,106.8316216
23.1450,105.9458779
23.1500,105.05714
23.1550,104.1663546
23.1600,103.273961
23.1650,102.3802273
23.1700,101.485693
23.1750,100.5904404
23.1800,99.69510048
23.1850,98.79969548
23.1900,97.90447217
23.1950,97.00995086
23.2000,96.11633158
23.2050,95.22442136
23.2100,94.33398389
23.2150,93.44554438
23.2200,92.55978665
23.2250,91.67711405
23.2300,90.79785746
23.2350,89.92214359
23.2400,89.04990855
23.2450,88.1817657
23.2500,87.31802065
23.2550,86.45858599
23.2600,85.60400686
23.2650,84.75430756
23.2700,83.91011281
23.2750,83.0713312
23.2800,82.23841354
23.2850,81.41095346
23.2900,80.58954347
23.2950,79.7742898
23.3000,78.96529828
23.3050,78.16204982
23.3100,77.36462324
23.3150,76.57346277
23.3200,75.78874363
23.3250,75.01105191
23.3300,74.24015888
23.3350,73.47626526
23.3400,72.71935948
23.3450,71.96975135
23.3500,71.2271808
23.3550,70.49194142
23.3600,69.76396307
23.3650,69.04347626
23.3700,68.33050534
23.3750,67.62481196
23.3800,66.92649571
23.3850,66.23551935
23.3900,65.55187296
23.3950,64.87532548
23.4000,64.20556113
23.4050,63.54246094
23.4100,62.8861705
23.4150,62.23637301
23.4200,61.59344888
23.4250,60.95680009
23.4300,60.32605736
23.4350,59.70108735
23.4400,59.08168956
23.4450,58.46790526
23.4500,57.85946001
23.4550,57.2560369
23.4600,56.65751798
23.4650,56.06356688
23.4700,55.47449389
23.4750,54.890147
23.4800,54.31058454
23.4850,53.73579194
23.4900,53.16543057
23.4950,52.59942953
23.5000,52.03785874
23.5050,51.48058244
23.5100,50.92735737
23.5150,50.37828378
23.5200,49.83297575
23.5250,49.29166059
23.5300,48.754146
23.5350,48.22037354
23.5400,47.69062096
23.5450,47.16477789
23.5500,46.64312968
23.5550,46.12576615
23.5600,45.61257066
23.5650,45.10381887
23.5700,44.59985014
23.5750,44.10087967
23.5800,43.60703428
23.5850,43.11832464
23.5900,42.63446148
23.5950,42.15580959
23.6000,41.68224433
23.6050,41.21382104
23.6100,40.75038266
23.6150,40.29182056
23.6200,39.83851483
23.6250,39.39031974
23.6300,38.94716565
23.6350,38.50908062
23.6400,38.07589439
23.6450,37.64760427
23.6500,37.22428988
23.6550,36.80588256
23.6600,36.39266867
23.6650,35.98409002
23.6700,35.58013139
23.6750,35.18091664
23.6800,34.78618342
23.6850,34.39591128
23.6900,34.01026362
23.6950,33.62922567
23.7000,33.25266112
23.7050,32.8807006
23.7100,32.51309485
23.7150,32.14991388
23.7200,31.79075546
23.7250,31.43594401
23.7300,31.08510474
23.7350,30.738078
23.7400,30.39483663
23.7450,30.0551105
23.7500,29.71890046
23.7550,29.38596322
23.7600,29.05629699
23.7650,28.72975141
23.7700,28.40581441
23.7750,28.08468693
23.7800,27.76623666
23.7850,27.4502231
23.7900,27.13661291
23.7950,26.82530045
23.8000,26.51610231
23.8050,26.20896972
23.8100,25.90399426
23.8150,25.6010502
23.8200,25.3000178
23.8250,25.00090977
23.8300,24.70388803
23.8350,24.40921996
23.8400,24.11695512
23.8450,23.82718872
23.8500,23.53988488
23.8550,23.25511558
23.8600,22.97305571
23.8650,22.69364055
23.8700,22.41686162
23.8750,22.14284174
23.8800,21.87178584
23.8850,21.60392519
23.8900,21.339497
23.8950,21.07847154
23.9000,20.82100124
23.9050,20.56745229
23.9100,20.31818174
23.9150,20.07338558
23.9200,19.83283074
23.9250,19.59682747
23.9300,19.36554537
23.9350,19.13905276
23.9400,18.91766569
23.9450,18.70134877
23.9500,18.49003596
23.9550,18.28375349
23.9600,18.08250516
23.9650,17.8864883
23.9700,17.695756
23.9750,17.51020644
23.9800,17.32992968
23.9850,17.15500622
23.9900,16.98535356
23.9950,16.82116032
24.0000,16.66262593
24.0050,16.50964366
24.0100,16.36201695
24.0150,16.2197725
24.0200,16.08288234
24.0250,15.95109489
24.0300,15.82456432
24.0350,15.7031618
24.0400,15.58678189
24.0450,15.47507638
24.0500,15.36780251
24.0550,15.26499504
24.0600,15.16618237
24.0650,15.07132087
24.0700,14.98040358
24.0750,14.89299324
24.0800,14.80876505
24.0850,14.72749191
24.0900,14.64876247
24.0950,14.57203315
24.1000,14.49719158
24.1050,14.42381371
24.1100,14.35157163
24.1150,14.28037864
24.1200,14.21006853
24.1250,14.14030366
24.1300,14.07086024
24.1350,14.00158565
24.1400,13.93229517
24.1450,13.86276203
24.1500,13.7930171
24.1550,13.72312843
24.1600,13.65283712
24.1650,13.58208966
24.1700,13.510795
24.1750,13.43883811
24.1800,13.36610551
24.1850,13.29266814
24.1900,13.21830134
24.1950,13.14314587
24.2000,13.06723388
24.2050,12.99012641
24.2100,12.91199338
24.2150,12.83260364
24.2200,12.75203815
24.2250,12.67018689
24.2300,12.58700455
24.2350,12.50246007
24.2400,12.41648445
24.2450,12.32908048
24.2500,12.24040295
24.2550,12.1505747
24.2600,12.05967734
24.2650,11.96780653
24.2700,11.87511931
24.2750,11.78176722
24.2800,11.68759581
24.2850,11.59275879
24.2900,11.49701163
24.2950,11.40038448
24.3000,11.3026001
24.3050,11.20372092
24.3100,11.1040511
24.3150,11.00358954
24.3200,10.90263522
24.3250,10.80112488
24.3300,10.69913385
24.3350,10.59664651
24.3400,10.49370059
24.3450,10.39030456
24.3500,10.28663187
24.3550,10.18261001
24.3600,10.07813737
24.3650,9.973222382
24.3700,9.867964301
24.3750,9.762316802
24.3800,9.656309476
24.3850,9.55002777
24.3900,9.443465195
24.3950,9.336914684
24.4000,9.230399797
24.4050,9.1239055
24.4100,9.017667388
24.4150,8.911538926
24.4200,8.805605241
24.4250,8.700253049
24.4300,8.5953553
24.4350,8.491134273
24.4400,8.387414241
24.4450,8.284370495
24.4500,8.181960462
24.4550,8.080073741
24.4600,7.978802614
24.4650,7.878141535
24.4700,7.778110047
24.4750,7.678741943
24.4800,7.580032009
24.4850,7.482038807
24.4900,7.385157606
24.4950,7.289340148
24.5000,7.194742376
24.5050,7.101868737
24.5100,7.010902886
24.5150,6.921770758
24.5200,6.834844839
24.5250,6.75015078
24.5300,6.667911687
24.5350,6.588371436
24.5400,6.511606996
24.5450,6.437788352
24.5500,6.367072271
24.5550,6.299480516
24.5600,6.234878995
24.5650,6.173382128
24.5700,6.114684033
24.5750,6.05858209
24.5800,6.005043212
24.5850,5.953760969
24.5900,5.904687263
24.5950,5.857413512
24.6000,5.812061775
24.6050,5.768343049
24.6100,5.726054363
24.6150,5.685149676
24.6200,5.645348379
24.6250,5.606813667
24.6300,5.569305108
24.6350,5.532890293
24.6400,5.497428749
24.6450,5.462999043
24.6500,5.429506511
24.6550,5.396905896
24.6600,5.365395022
24.6650,5.33500096
24.6700,5.305799817
24.6750,5.277820318
24.6800,5.251183762
24.6850,5.225897686
24.6900,5.202371721
24.6950,5.1802383
24.7000,5.159629419
24.7050,5.140836479
24.7100,5.123398932
24.7150,5.107460166
24.7200,5.092933629
24.7250,5.079517893
24.7300,5.067345929
24.7350,5.056217172
24.7400,5.046378168
24.7450,5.037662167
24.7500,5.03001865
24.7550,5.023514398
24.7600,5.018075303
24.7650,5.013729483
24.7700,5.010587207
24.7750,5.008621532
24.7800,5.007737173
24.7850,5.008030964
24.7900,5.009153693
24.7950,5.011237199
24.8000,5.014011055
24.8050,5.017563364
24.8100,5.021633339
24.8150,5.02665744
24.8200,5.032471249
24.8250,5.039273077
24.8300,5.046877284
24.8350,5.055249873
24.8400,5.064279074
24.8450,5.074033616
24.8500,5.084259559
24.8550,5.094790101
24.8600,5.105604363
24.8650,5.116383772
24.8700,5.127197914
24.8750,5.137897666
24.8800,5.148472712
24.8850,5.158975767
24.8900,5.16933212
24.8950,5.179419776
24.9000,5.189161484
24.9050,5.198499449
24.9100,5.20720849
24.9150,5.215304761
24.9200,5.222821473
24.9250,5.229417042
24.9300,5.235265035
24.9350,5.240322129
24.9400,5.244892937
24.9450,5.249232252
24.9500,5.253423549
24.9550,5.257803959
24.9600,5.262452075
24.9650,5.267553387
24.9700,5.273117307
24.9750,5.279329323
24.9800,5.286189481
24.9850,5.293704858
24.9900,5.301812956
24.9950,5.310781957
25.0000,5.320907981
25.0050,5.33221922
25.0100,5.345218508
25.0150,5.359954662
25.0200,5.37669893
25.0250,5.395653956
25.0300,5.416824489
25.0350,5.440209956
25.0400,5.465720917
25.0450,5.493554412
25.0500,5.523716124
25.0550,5.556435919
25.0600,5.59180083
25.0650,5.630053575
25.0700,5.671111174
25.0750,5.715207246
25.0800,5.762506899
25.0850,5.812998215
25.0900,5.866894065
25.0950,5.924114433
25.1000,5.984884963
25.1050,6.048970181
25.1100,6.116307339
25.1150,6.186650425
25.1200,6.26001447
25.1250,6.336194274
25.1300,6.41526829
25.1350,6.496989558
25.1400,6.581529573
25.1450,6.668420165
25.1500,6.75763095
25.1550,6.849068359
25.1600,6.942314904
25.1650,7.037388814
25.1700,7.134120693
25.1750,7.232322665
25.1800,7.331790595
25.1850,7.432295104
25.1900,7.533741997
25.1950,7.635913406
25.2000,7.738861906
25.2050,7.842321978
25.2100,7.946451195
25.2150,8.050931344
25.2200,8.155863795
25.2250,8.261246786
25.2300,8.36705091
25.2350,8.473303339
25.2400,8.579836149
25.2450,8.686665852
25.2500,8.793936111
25.2550,8.901500674
25.2600,9.009635008
25.2650,9.118169675
25.2700,9.227298624
25.2750,9.337136439
25.2800,9.44798798
25.2850,9.560037612
25.2900,9.673629537
25.2950,9.789290323
25.3000,9.907027827
25.3050,10.02726328
25.3100,10.15054779
25.3150,10.27748781
25.3200,10.40837175
25.3250,10.54376117
25.3300,10.68443512
25.3350,10.83109441
25.3400,10.98455075
25.3450,11.14548097
25.3500,11.31496411
25.3550,11.49360955
25.3600,11.68237222
25.3650,11.88187073
25.3700,12.09283437
25.3750,12.31602807
25.3800,12.55208955
25.3850,12.8013298
25.3900,13.06384665
25.3950,13.17732032
25.4000,13.30229081
25.4050,13.43820038
25.4100,13.58428061
25.4150,13.73958912
25.4200,13.90304117
25.4250,14.07343582
25.4300,14.24947809
25.4350,14.42979727
25.4400,14.61296126
25.4450,14.79748818
25.4500,14.9818572
25.4550,15.16451924
25.4600,15.34390926
25.4650,15.51846183
25.4700,15.68662969
25.4750,15.84690425
25.4800,15.99783879
25.4850,16.13807584
25.4900,16.26637897
25.4950,16.3816694
25.5000,16.48306838
25.5050,16.56994719
25.5100,16.64198441
25.5150,16.69922971
25.5200,16.74217316
25.5250,16.77182106
25.5300,16.78977929
25.5350,16.79834368
