type,name,time_units,begin_time,frequency,count,units
signal,"Noraxon MyoMotion-Segments-Forearm RT-Roll","s",0.0000,200,5108,"deg"

time,value
0.0000,1.908593027
0.0050,1.908694991
0.0100,1.90879527
0.0150,1.908893866
0.0200,1.909125959
0.0250,1.909516004
0.0300,1.91008803
0.0350,1.91086466
0.0400,1.911866533
0.0450,1.913112055
0.0500,1.914617056
0.0550,1.916394525
0.0600,1.918454105
0.0650,1.920800857
0.0700,1.923433763
0.0750,1.926344354
0.0800,1.92951571
0.0850,1.932922095
0.0900,1.936529228
0.0950,1.94029541
0.1000,1.944173572
0.1050,1.94811321
0.1100,1.952061746
0.1150,1.955965913
0.1200,1.959773443
0.1250,1.963434674
0.1300,1.966904034
0.1350,1.970141636
0.1400,1.97311442
0.1450,1.975796442
0.1500,1.978168785
0.1550,1.982297831
0.1600,1.986180972
0.1650,1.989729592
0.1700,1.993015971
0.1750,1.995967137
0.1800,1.998742198
0.1850,2.001370076
0.1900,2.00369214
0.1950,2.00579728
0.2000,2.007744471
0.2050,2.009489071
0.2100,2.011169446
0.2150,2.012782728
0.2200,2.01441155
0.2250,2.016088219
0.2300,2.017702042
0.2350,2.019343992
0.2400,2.021081274
0.2450,2.022821798
0.2500,2.024555743
0.2550,2.026343175
0.2600,2.02812858
0.2650,2.029983619
0.2700,2.031701556
0.2750,2.033437628
0.2800,2.035106732
0.2850,2.036743099
0.2900,2.038496429
0.2950,2.040232755
0.3000,2.042156839
0.3050,2.044174423
0.3100,2.046392623
0.3150,2.048720968
0.3200,2.051161431
0.3250,2.053926369
0.3300,2.056813643
0.3350,2.059740395
0.3400,2.062865502
0.3450,2.066097682
0.3500,2.06940061
0.3550,2.072712595
0.3600,2.076140125
0.3650,2.079579245
0.3700,2.083080839
0.3750,2.086590968
0.3800,2.090132344
0.3850,2.093693761
0.3900,2.097186486
0.3950,2.100397242
0.4000,2.103337689
0.4050,2.10615605
0.4100,2.108731575
0.4150,2.110934025
0.4200,2.112828636
0.4250,2.114436853
0.4300,2.115736754
0.4350,2.116783743
0.4400,2.117675082
0.4450,2.118406239
0.4500,2.118853208
0.4550,2.119091116
0.4600,2.119211597
0.4650,2.119281913
0.4700,2.119487657
0.4750,2.119662049
0.4800,2.119989882
0.4850,2.120293875
0.4900,2.120864314
0.4950,2.121797308
0.5000,2.123038648
0.5050,2.124786455
0.5100,2.126834872
0.5150,2.129275854
0.5200,2.132035128
0.5250,2.135137027
0.5300,2.138619903
0.5350,2.142470969
0.5400,2.146616495
0.5450,2.151098122
0.5500,2.155870945
0.5550,2.161011404
0.5600,2.166463101
0.5650,2.172159643
0.5700,2.178133121
0.5750,2.184435047
0.5800,2.191106484
0.5850,2.197968425
0.5900,2.205199736
0.5950,2.212619254
0.6000,2.220198708
0.6050,2.227975754
0.6100,2.235956439
0.6150,2.244223938
0.6200,2.252529545
0.6250,2.261106346
0.6300,2.269909175
0.6350,2.279093085
0.6400,2.288409322
0.6450,2.297911782
0.6500,2.307680776
0.6550,2.317690944
0.6600,2.327818274
0.6650,2.338183755
0.6700,2.348497617
0.6750,2.358832432
0.6800,2.369136615
0.6850,2.379307212
0.6900,2.389394247
0.6950,2.399317117
0.7000,2.409016589
0.7050,2.418488744
0.7100,2.427754648
0.7150,2.436668498
0.7200,2.44533373
0.7250,2.453785997
0.7300,2.461860135
0.7350,2.469616206
0.7400,2.476879221
0.7450,2.483823777
0.7500,2.490514385
0.7550,2.496973928
0.7600,2.503120683
0.7650,2.508884016
0.7700,2.514345656
0.7750,2.519475432
0.7800,2.524373409
0.7850,2.529020948
0.7900,2.533301014
0.7950,2.537309929
0.8000,2.540862057
0.8050,2.544077826
0.8100,2.547003984
0.8150,2.549748248
0.8200,2.552366818
0.8250,2.554711421
0.8300,2.556922201
0.8350,2.559009863
0.8400,2.560908384
0.8450,2.562542283
0.8500,2.564128018
0.8550,2.565581881
0.8600,2.566906283
0.8650,2.568166674
0.8700,2.569479038
0.8750,2.570749282
0.8800,2.57195392
0.8850,2.573222773
0.8900,2.574293977
0.8950,2.575563122
0.9000,2.57693082
0.9050,2.578318246
0.9100,2.579861836
0.9150,2.581486808
0.9200,2.583226492
0.9250,2.584948781
0.9300,2.586785113
0.9350,2.588588682
0.9400,2.590578562
0.9450,2.592680914
0.9500,2.594825331
0.9550,2.597098857
0.9600,2.599475523
0.9650,2.601866588
0.9700,2.604519656
0.9750,2.607267727
0.9800,2.610179381
0.9850,2.613344959
0.9900,2.616606563
0.9950,2.62019343
1.0000,2.623926945
1.0050,2.627893567
1.0100,2.63212675
1.0150,2.636628243
1.0200,2.641328201
1.0250,2.646126785
1.0300,2.65125798
1.0350,2.656563206
1.0400,2.662065831
1.0450,2.667754513
1.0500,2.673514023
1.0550,2.679417043
1.0600,2.685280939
1.0650,2.691308111
1.0700,2.697333667
1.0750,2.703506548
1.0800,2.709732834
1.0850,2.716305844
1.0900,2.723322267
1.0950,2.73066633
1.1000,2.738456707
1.1050,2.746662607
1.1100,2.755374309
1.1150,2.764409841
1.1200,2.773552765
1.1250,2.783084072
1.1300,2.792828257
1.1350,2.802725873
1.1400,2.812916634
1.1450,2.823554664
1.1500,2.834372333
1.1550,2.845597071
1.1600,2.857460915
1.1650,2.870034325
1.1700,2.883520776
1.1750,2.898212876
1.1800,2.914238603
1.1850,2.932033553
1.1900,2.951792756
1.1950,2.973720902
1.2000,2.998092006
1.2050,3.025113388
1.2100,3.054672663
1.2150,3.086826394
1.2200,3.12167155
1.2250,3.158901077
1.2300,3.198448007
1.2350,3.240246845
1.2400,3.283965739
1.2450,3.329603155
1.2500,3.376933507
1.2550,3.425817463
1.2600,3.476150747
1.2650,3.52778053
1.2700,3.580330031
1.2750,3.633921272
1.2800,3.688309054
1.2850,3.743472053
1.2900,3.799624213
1.2950,3.8566301
1.3000,3.914679185
1.3050,3.97363566
1.3100,4.033422554
1.3150,4.094092595
1.3200,4.15578436
1.3250,4.218481163
1.3300,4.282053252
1.3350,4.346543448
1.3400,4.412092786
1.3450,4.478639023
1.3500,4.546243236
1.3550,4.614953003
1.3600,4.684972204
1.3650,4.756131649
1.3700,4.828682989
1.3750,4.902765733
1.3800,4.978516213
1.3850,5.055801027
1.3900,5.134785564
1.3950,5.215773372
1.4000,5.298747902
1.4050,5.383838848
1.4100,5.471164738
1.4150,5.560918499
1.4200,5.653468028
1.4250,5.748888552
1.4300,5.847241193
1.4350,5.94856474
1.4400,6.053060489
1.4450,6.160565542
1.4500,6.271427726
1.4550,6.385664186
1.4600,6.503341092
1.4650,6.624705535
1.4700,6.749834748
1.4750,6.878710879
1.4800,7.011652761
1.4850,7.148598302
1.4900,7.289897588
1.4950,7.435456465
1.5000,7.585448905
1.5050,7.739974539
1.5100,7.899542213
1.5150,8.064179948
1.5200,8.234172521
1.5250,8.409743368
1.5300,8.591034897
1.5350,8.778239162
1.5400,8.971616423
1.5450,9.171000996
1.5500,9.376470117
1.5550,9.587847498
1.5600,9.805187094
1.5650,10.02829804
1.5700,10.25732517
1.5750,10.49216814
1.5800,10.7327232
1.5850,10.97889104
1.5900,11.2305805
1.5950,11.48769697
1.6000,11.75019029
1.6050,12.01809599
1.6100,12.29149813
1.6150,12.57013468
1.6200,12.85397511
1.6250,13.14291187
1.6300,13.43698844
1.6350,13.73616532
1.6400,14.04022708
1.6450,14.34913201
1.6500,14.66283256
1.6550,14.98104597
1.6600,15.30353137
1.6650,15.63038548
1.6700,15.96119235
1.6750,16.29575106
1.6800,16.63352658
1.6850,16.97450864
1.6900,17.31841745
1.6950,17.66497339
1.7000,18.0140646
1.7050,18.36561608
1.7100,18.71937788
1.7150,19.07527823
1.7200,19.43307022
1.7250,19.79250457
1.7300,20.15349059
1.7350,20.515855
1.7400,20.87938926
1.7450,21.24402353
1.7500,21.60951904
1.7550,21.97573248
1.7600,22.34220333
1.7650,22.70886194
1.7700,23.0754251
1.7750,23.44197242
1.7800,23.80831061
1.7850,24.17430479
1.7900,24.53994222
1.7950,24.90526858
1.8000,25.27020741
1.8050,25.63468169
1.8100,25.99853579
1.8150,26.36190308
1.8200,26.72474008
1.8250,27.08712805
1.8300,27.44917699
1.8350,27.81090589
1.8400,28.17223105
1.8450,28.53320803
1.8500,28.89384078
1.8550,29.25426107
1.8600,29.61428317
1.8650,29.97409227
1.8700,30.33360264
1.8750,30.69262062
1.8800,31.05153483
1.8850,31.4101821
1.8900,31.76864666
1.8950,32.12692904
1.9000,32.4850702
1.9050,32.84285521
1.9100,33.20040478
1.9150,33.55812048
1.9200,33.91616898
1.9250,34.27469821
1.9300,34.63367273
1.9350,34.99333408
1.9400,35.3538337
1.9450,35.71533548
1.9500,36.0779354
1.9550,36.4419015
1.9600,36.80732833
1.9650,37.17428687
1.9700,37.54299631
1.9750,37.91350387
1.9800,38.28618538
1.9850,38.66082836
1.9900,39.03767509
1.9950,39.41670829
2.0000,39.79819265
2.0050,40.18196646
2.0100,40.56817714
2.0150,40.95664971
2.0200,41.34731934
2.0250,41.74028168
2.0300,42.13545876
2.0350,42.53288524
2.0400,42.93253387
2.0450,43.33443271
2.0500,43.7386878
2.0550,44.14542212
2.0600,44.55461506
2.0650,44.9663557
2.0700,45.38075772
2.0750,45.79769572
2.0800,46.21733898
2.0850,46.63988351
2.0900,47.06505753
2.0950,47.49276663
2.1000,47.92327897
2.1050,48.35625894
2.1100,48.79155304
2.1150,49.22913457
2.1200,49.66897545
2.1250,50.11097526
2.1300,50.55513347
2.1350,51.00152075
2.1400,51.44997772
2.1450,51.90082491
2.1500,52.35394436
2.1550,52.80955702
2.1600,53.26759122
2.1650,53.72808194
2.1700,54.19107832
2.1750,54.65646524
2.1800,55.123867
2.1850,55.5932784
2.1900,56.06484608
2.1950,56.53852352
2.2000,57.01438968
2.2050,57.49257887
2.2100,57.97315955
2.2150,58.45605626
2.2200,58.94134919
2.2250,59.42891797
2.2300,59.91878277
2.2350,60.41078329
2.2400,60.90512619
2.2450,61.40187775
2.2500,61.90095968
2.2550,62.402279
2.2600,62.90616912
2.2650,63.41244219
2.2700,63.92151014
2.2750,64.433492
2.2800,64.94867913
2.2850,65.46732742
2.2900,65.98926355
2.2950,66.51460527
2.3000,67.04310917
2.3050,67.57473417
2.3100,68.10959707
2.3150,68.64763027
2.3200,69.18886932
2.3250,69.73352562
2.3300,70.28150838
2.3350,70.83282487
2.3400,71.38719851
2.3450,71.94480287
2.3500,72.50544993
2.3550,73.0689016
2.3600,73.63564486
2.3650,74.20556875
2.3700,74.77867318
2.3750,75.35490598
2.3800,75.93411596
2.3850,76.5163032
2.3900,77.10131678
2.3950,77.68951141
2.4000,78.28018334
2.4050,78.87370202
2.4100,79.46990717
2.4150,80.06886452
2.4200,80.67051013
2.4250,81.27470869
2.4300,81.88138702
2.4350,82.49026559
2.4400,83.10128242
2.4450,83.71441347
2.4500,84.32957061
2.4550,84.94656874
2.4600,85.56531025
2.4650,86.18587157
2.4700,86.80785459
2.4750,87.43128432
2.4800,88.0562042
2.4850,88.68267167
2.4900,89.3103504
2.4950,89.93931366
2.5000,90.56944016
2.5050,91.20068252
2.5100,91.83270134
2.5150,92.46562902
2.5200,93.09886361
2.5250,93.73248271
2.5300,94.36648558
2.5350,95.00103225
2.5400,95.63596054
2.5450,96.2709617
2.5500,96.90587191
2.5550,97.5409655
2.5600,98.17602889
2.5650,98.81119855
2.5700,99.44603514
2.5750,100.0804749
2.5800,100.7143182
2.5850,101.3476439
2.5900,101.9803648
2.5950,102.6122518
2.6000,103.2428495
2.6050,103.8721341
2.6100,104.4998795
2.6150,105.126135
2.6200,105.7507656
2.6250,106.3735069
2.6300,106.993997
2.6350,107.6125584
2.6400,108.2289614
2.6450,108.8429083
2.6500,109.4544609
2.6550,110.0637418
2.6600,110.6704534
2.6650,111.2743231
2.6700,111.8751579
2.6750,112.473183
2.6800,113.0684592
2.6850,113.6607252
2.6900,114.2501517
2.6950,114.8360805
2.7000,115.4186497
2.7050,115.9979985
2.7100,116.5736268
2.7150,117.1455881
2.7200,117.7138508
2.7250,118.2785071
2.7300,118.8393937
2.7350,119.3965185
2.7400,119.9500835
2.7450,120.4998624
2.7500,121.0462073
2.7550,121.5888877
2.7600,122.1284306
2.7650,122.6644798
2.7700,123.1974234
2.7750,123.7272081
2.7800,124.2538829
2.7850,124.7775206
2.7900,125.2981445
2.7950,125.8155745
2.8000,126.3300009
2.8050,126.8413374
2.8100,127.34973
2.8150,127.8547233
2.8200,128.356371
2.8250,128.8547976
2.8300,129.3499417
2.8350,129.8418407
2.8400,130.3303252
2.8450,130.8154381
2.8500,131.2972526
2.8550,131.7757111
2.8600,132.2507314
2.8650,132.7222347
2.8700,133.1904785
2.8750,133.6551037
2.8800,134.1161892
2.8850,134.5735405
2.8900,135.0269262
2.8950,135.4762373
2.9000,135.9221877
2.9050,136.3642414
2.9100,136.802297
2.9150,137.2364108
2.9200,137.666784
2.9250,138.0931148
2.9300,138.5155143
2.9350,138.9337164
2.9400,139.3477165
2.9450,139.7577755
2.9500,140.1637974
2.9550,140.5655416
2.9600,140.9628813
2.9650,141.3559784
2.9700,141.7446761
2.9750,142.1285301
2.9800,142.507341
2.9850,142.8812752
2.9900,143.2504712
2.9950,143.6152232
3.0000,143.9755956
3.0050,144.3314735
3.0100,144.6832611
3.0150,145.0311866
3.0200,145.3748845
3.0250,145.7146526
3.0300,146.050764
3.0350,146.3832236
3.0400,146.7123516
3.0450,147.0383742
3.0500,147.3612873
3.0550,147.6812981
3.0600,147.9985736
3.0650,148.3130905
3.0700,148.6251554
3.0750,148.9347458
3.0800,149.2421238
3.0850,149.547142
3.0900,149.8497573
3.0950,150.1499793
3.1000,150.447313
3.1050,150.7415942
3.1100,151.0326101
3.1150,151.3203483
3.1200,151.6045101
3.1250,151.8848227
3.1300,152.1612058
3.1350,152.4333316
3.1400,152.7011363
3.1450,152.964456
3.1500,153.2233052
3.1550,153.4776809
3.1600,153.7275937
3.1650,153.9734385
3.1700,154.2151603
3.1750,154.4534142
3.1800,154.6882513
3.1850,154.9197218
3.1900,155.1483615
3.1950,155.3744108
3.2000,155.5976774
3.2050,155.8185555
3.2100,156.0370627
3.2150,156.2534659
3.2200,156.467533
3.2250,156.6795571
3.2300,156.8895591
3.2350,157.0976769
3.2400,157.3037142
3.2450,157.5076981
3.2500,157.7095234
3.2550,157.9094168
3.2600,158.1076065
3.2650,158.3041086
3.2700,158.4990173
3.2750,158.6924384
3.2800,158.8847114
3.2850,159.0756857
3.2900,159.2653913
3.2950,159.454022
3.3000,159.6416513
3.3050,159.8282743
3.3100,160.0138625
3.3150,160.1983849
3.3200,160.3821745
3.3250,160.5651363
3.3300,160.7469487
3.3350,160.9279051
3.3400,161.1077361
3.3450,161.2860826
3.3500,161.4628542
3.3550,161.6381863
3.3600,161.8118674
3.3650,161.983899
3.3700,162.1540302
3.3750,162.3220727
3.3800,162.4879392
3.3850,162.6516498
3.3900,162.8130756
3.3950,162.9722772
3.4000,163.1294685
3.4050,163.2846663
3.4100,163.4377249
3.4150,163.5887247
3.4200,163.7380234
3.4250,163.8858928
3.4300,164.032444
3.4350,164.1779469
3.4400,164.3224179
3.4450,164.4659857
3.4500,164.6090673
3.4550,164.7515657
3.4600,164.8940073
3.4650,165.0363197
3.4700,165.1788619
3.4750,165.3214724
3.4800,165.4644912
3.4850,165.6081082
3.4900,165.7522419
3.4950,165.8969325
3.5000,166.0422873
3.5050,166.1884303
3.5100,166.3355292
3.5150,166.4832799
3.5200,166.6320193
3.5250,166.7814966
3.5300,166.9317924
3.5350,167.0825779
3.5400,167.234166
3.5450,167.386538
3.5500,167.5397497
3.5550,167.6933718
3.5600,167.8472932
3.5650,168.0011595
3.5700,168.1550032
3.5750,168.3087608
3.5800,168.4621934
3.5850,168.6152324
3.5900,168.7680955
3.5950,168.9204918
3.6000,169.0723091
3.6050,169.22368
3.6100,169.3746251
3.6150,169.5248683
3.6200,169.6743932
3.6250,169.8228933
3.6300,169.970459
3.6350,170.1167457
3.6400,170.2615652
3.6450,170.4049727
3.6500,170.5471725
3.6550,170.6879918
3.6600,170.8272324
3.6650,170.9649102
3.6700,171.1010653
3.6750,171.2360154
3.6800,171.3697465
3.6850,171.5020361
3.6900,171.6330947
3.6950,171.7631099
3.7000,171.8923811
3.7050,172.0208612
3.7100,172.1488249
3.7150,172.276379
3.7200,172.4036613
3.7250,172.530825
3.7300,172.6581013
3.7350,172.7855746
3.7400,172.9138689
3.7450,173.0431493
3.7500,173.1733738
3.7550,173.3047269
3.7600,173.4373672
3.7650,173.5715867
3.7700,173.7074908
3.7750,173.8451691
3.7800,173.9845028
3.7850,174.1255635
3.7900,174.2682348
3.7950,174.4125478
3.8000,174.5584614
3.8050,174.7057262
3.8100,174.8540945
3.8150,175.0036443
3.8200,175.154102
3.8250,175.3050798
3.8300,175.456429
3.8350,175.6080494
3.8400,175.7593887
3.8450,175.9101495
3.8500,176.0599483
3.8550,176.2086916
3.8600,176.3561438
3.8650,176.5022718
3.8700,176.6468708
3.8750,176.7898476
3.8800,176.9308103
3.8850,177.0696948
3.8900,177.2059795
3.8950,177.33953
3.9000,177.470494
3.9050,177.5984253
3.9100,177.7232312
3.9150,177.8447981
3.9200,177.9627238
3.9250,178.0770927
3.9300,178.1875854
3.9350,178.2942422
3.9400,178.3971014
3.9450,178.4959734
3.9500,178.5908726
3.9550,178.6816883
3.9600,178.7684834
3.9650,178.8513478
3.9700,178.9304034
3.9750,179.0055826
3.9800,179.0768965
3.9850,179.1448291
3.9900,179.2091125
3.9950,179.2697169
4.0000,179.326551
4.0050,179.3797728
4.0100,179.4295296
4.0150,179.4760291
4.0200,179.5191543
4.0250,179.5587849
4.0300,179.5948146
4.0350,179.627631
4.0400,179.6569822
4.0450,179.6829583
4.0500,179.705871
4.0550,179.725918
4.0600,179.743196
4.0650,179.7576864
4.0700,179.7694565
4.0750,179.7786919
4.0800,179.7856687
4.0850,179.7905635
4.0900,179.7937321
4.0950,179.7951371
4.1000,179.7949966
4.1050,179.7934396
4.1100,179.7906303
4.1150,179.7867555
4.1200,179.7817498
4.1250,179.7760507
4.1300,179.7694527
4.1350,179.7620158
4.1400,179.7538323
4.1450,179.7448883
4.1500,179.7352222
4.1550,179.7247015
4.1600,179.7132818
4.1650,179.7009944
4.1700,179.6877376
4.1750,179.6734757
4.1800,179.6583073
4.1850,179.6424212
4.1900,179.6259076
4.1950,179.6088845
4.2000,179.5912693
4.2050,179.5732435
4.2100,179.5547879
4.2150,179.536094
4.2200,179.5172967
4.2250,179.4984355
4.2300,179.4795505
4.2350,179.4605597
4.2400,179.4413003
4.2450,179.4218162
4.2500,179.4020293
4.2550,179.3818837
4.2600,179.3614831
4.2650,179.3408477
4.2700,179.3198014
4.2750,179.2984358
4.2800,179.276687
4.2850,179.2546032
4.2900,179.2322728
4.2950,179.209782
4.3000,179.1870138
4.3050,179.1641757
4.3100,179.1411096
4.3150,179.1179917
4.3200,179.0949733
4.3250,179.0719935
4.3300,179.0491777
4.3350,179.026226
4.3400,179.0032646
4.3450,178.9801647
4.3500,178.9568154
4.3550,178.9331982
4.3600,178.9090472
4.3650,178.8844407
4.3700,178.8591459
4.3750,178.8333547
4.3800,178.806791
4.3850,178.7792862
4.3900,178.7508517
4.3950,178.7216678
4.4000,178.6917845
4.4050,178.6612726
4.4100,178.630123
4.4150,178.598344
4.4200,178.5660291
4.4250,178.5332682
4.4300,178.5001857
4.4350,178.4670501
4.4400,178.4338153
4.4450,178.4007498
4.4500,178.367688
4.4550,178.3349722
4.4600,178.3026463
4.4650,178.2706203
4.4700,178.2389882
4.4750,178.2078666
4.4800,178.1773912
4.4850,178.1472893
4.4900,178.1176313
4.4950,178.0885761
4.5000,178.0599571
4.5050,178.0318597
4.5100,178.0041181
4.5150,177.9766247
4.5200,177.9494439
4.5250,177.9223469
4.5300,177.8953588
4.5350,177.8684448
4.5400,177.8416058
4.5450,177.8149131
4.5500,177.7881247
4.5550,177.7613123
4.5600,177.734536
4.5650,177.7075922
4.5700,177.6806875
4.5750,177.6533898
4.5800,177.6258343
4.5850,177.5977946
4.5900,177.5692681
4.5950,177.5400486
4.6000,177.5101542
4.6050,177.4796932
4.6100,177.4486657
4.6150,177.4167044
4.6200,177.3837381
4.6250,177.3500374
4.6300,177.3156848
4.6350,177.2804615
4.6400,177.2444814
4.6450,177.2077082
4.6500,177.1699815
4.6550,177.1312492
4.6600,177.091641
4.6650,177.0510108
4.6700,177.0094516
4.6750,176.9668234
4.6800,176.9232729
4.6850,176.8787889
4.6900,176.8334226
4.6950,176.7871898
4.7000,176.7399894
4.7050,176.6919345
4.7100,176.6430467
4.7150,176.5935232
4.7200,176.5434197
4.7250,176.4926586
4.7300,176.4414085
4.7350,176.3896366
4.7400,176.3375421
4.7450,176.2849678
4.7500,176.2322602
4.7550,176.1794249
4.7600,176.1266388
4.7650,176.0739569
4.7700,176.0214364
4.7750,175.9689488
4.7800,175.9167278
4.7850,175.8648063
4.7900,175.8132228
4.7950,175.7618501
4.8000,175.7108803
4.8050,175.6602394
4.8100,175.6100443
4.8150,175.5605439
4.8200,175.5114418
4.8250,175.462841
4.8300,175.4148553
4.8350,175.3675576
4.8400,175.3208033
4.8450,175.274588
4.8500,175.2288981
4.8550,175.1837339
4.8600,175.1389395
4.8650,175.0943797
4.8700,175.0499393
4.8750,175.0057131
4.8800,174.9617202
4.8850,174.9177734
4.8900,174.8738973
4.8950,174.8300774
4.9000,174.7863005
4.9050,174.7423296
4.9100,174.6979805
4.9150,174.6532996
4.9200,174.6081367
4.9250,174.5624536
4.9300,174.5160033
4.9350,174.4689326
4.9400,174.4207845
4.9450,174.3719029
4.9500,174.3222438
4.9550,174.2715109
4.9600,174.2197746
4.9650,174.1669205
4.9700,174.1129996
4.9750,174.057786
4.9800,174.0010633
4.9850,173.943083
4.9900,173.8834644
4.9950,173.8220571
5.0000,173.7586951
5.0050,173.6933995
5.0100,173.6258626
5.0150,173.5560952
5.0200,173.483874
5.0250,173.4091892
5.0300,173.3318972
5.0350,173.2518658
5.0400,173.1688846
5.0450,173.08296
5.0500,172.9939124
5.0550,172.9017111
5.0600,172.8060201
5.0650,172.7068973
5.0700,172.604225
5.0750,172.4981683
5.0800,172.3884824
5.0850,172.2753478
5.0900,172.1584888
5.0950,172.0378906
5.1000,171.9135171
5.1050,171.785463
5.1100,171.6536811
5.1150,171.5179005
5.1200,171.3783456
5.1250,171.2348372
5.1300,171.0875429
5.1350,170.9359968
5.1400,170.7804857
5.1450,170.6208325
5.1500,170.4570438
5.1550,170.2890937
5.1600,170.1171001
5.1650,169.9412878
5.1700,169.7615462
5.1750,169.5782359
5.1800,169.3910764
5.1850,169.2004215
5.1900,169.006197
5.1950,168.8085923
5.2000,168.607497
5.2050,168.4028
5.2100,168.1948299
5.2150,167.9835562
5.2200,167.769046
5.2250,167.5510413
5.2300,167.329901
5.2350,167.1055346
5.2400,166.8783735
5.2450,166.64822
5.2500,166.415155
