type,name,time_units,begin_time,frequency,count,units
signal,"Noraxon MyoMotion-Segments-Forearm RT-Course","s",0.0000,200,5108,"deg"

time,value
0.0000,-19.0082681
0.0050,-19.01791482
0.0100,-19.02756178
0.0150,-19.03720901
0.0200,-19.04734093
0.0250,-19.05785535
0.0300,-19.06864863
0.0350,-19.07962047
0.0400,-19.09067661
0.0450,-19.10172974
0.0500,-19.11269979
0.0550,-19.12351465
0.0600,-19.13411083
0.0650,-19.14443314
0.0700,-19.15443383
0.0750,-19.16407233
0.0800,-19.17331588
0.0850,-19.18213975
0.0900,-19.19052627
0.0950,-19.19846305
0.1000,-19.20594125
0.1050,-19.21295482
0.1100,-19.21950063
0.1150,-19.22557796
0.1200,-19.23118676
0.1250,-19.23632607
0.1300,-19.24099419
0.1350,-19.24519007
0.1400,-19.24891524
0.1450,-19.25217549
0.1500,-19.25498193
0.1550,-19.2624037
0.1600,-19.26899805
0.1650,-19.27468772
0.1700,-19.27947947
0.1750,-19.28357457
0.1800,-19.28702354
0.1850,-19.28992713
0.1900,-19.29246615
0.1950,-19.29464005
0.2000,-19.29630394
0.2050,-19.29758978
0.2100,-19.29844165
0.2150,-19.29898013
0.2200,-19.29923914
0.2250,-19.29902189
0.2300,-19.29844484
0.2350,-19.29743715
0.2400,-19.29612633
0.2450,-19.29444565
0.2500,-19.29233785
0.2550,-19.28992989
0.2600,-19.28714009
0.2650,-19.28415076
0.2700,-19.28111602
0.2750,-19.27783076
0.2800,-19.27447715
0.2850,-19.27090703
0.2900,-19.26717765
0.2950,-19.26336089
0.3000,-19.25937008
0.3050,-19.25523652
0.3100,-19.25085801
0.3150,-19.24642183
0.3200,-19.24176605
0.3250,-19.23702246
0.3300,-19.23219901
0.3350,-19.2272445
0.3400,-19.22229603
0.3450,-19.21730695
0.3500,-19.21205334
0.3550,-19.20674096
0.3600,-19.20135655
0.3650,-19.19583236
0.3700,-19.19021513
0.3750,-19.18463675
0.3800,-19.17897597
0.3850,-19.17324991
0.3900,-19.16768935
0.3950,-19.16237282
0.4000,-19.15721931
0.4050,-19.15237715
0.4100,-19.14782512
0.4150,-19.14372494
0.4200,-19.13998254
0.4250,-19.1364652
0.4300,-19.133447
0.4350,-19.13099402
0.4400,-19.12896481
0.4450,-19.12749303
0.4500,-19.12646277
0.4550,-19.12582776
0.4600,-19.12545448
0.4650,-19.12533888
0.4700,-19.1254459
0.4750,-19.12561649
0.4800,-19.12576528
0.4850,-19.12574906
0.4900,-19.12553244
0.4950,-19.12494977
0.5000,-19.12418122
0.5050,-19.12303299
0.5100,-19.12150986
0.5150,-19.11971272
0.5200,-19.11753556
0.5250,-19.11517886
0.5300,-19.11259005
0.5350,-19.1097712
0.5400,-19.1067123
0.5450,-19.1035268
0.5500,-19.10027027
0.5550,-19.09669586
0.5600,-19.09290984
0.5650,-19.08898178
0.5700,-19.08462783
0.5750,-19.07995078
0.5800,-19.07495247
0.5850,-19.06968706
0.5900,-19.06435811
0.5950,-19.05883263
0.6000,-19.05338372
0.6050,-19.04782051
0.6100,-19.04226532
0.6150,-19.03677421
0.6200,-19.03127444
0.6250,-19.02567304
0.6300,-19.02005192
0.6350,-19.01444621
0.6400,-19.00887119
0.6450,-19.00334637
0.6500,-18.99792819
0.6550,-18.99258384
0.6600,-18.9874615
0.6650,-18.98267376
0.6700,-18.97820262
0.6750,-18.9739978
0.6800,-18.97031355
0.6850,-18.96695537
0.6900,-18.96417905
0.6950,-18.96197854
0.7000,-18.96045632
0.7050,-18.95957711
0.7100,-18.95941209
0.7150,-18.95980844
0.7200,-18.96088275
0.7250,-18.9628621
0.7300,-18.96565113
0.7350,-18.96906388
0.7400,-18.97320492
0.7450,-18.97802997
0.7500,-18.98358282
0.7550,-18.9898094
0.7600,-18.9966037
0.7650,-19.00394859
0.7700,-19.01173215
0.7750,-19.01993778
0.7800,-19.02865266
0.7850,-19.03793596
0.7900,-19.04761999
0.7950,-19.05789134
0.8000,-19.06866627
0.8050,-19.07989882
0.8100,-19.09182681
0.8150,-19.10411519
0.8200,-19.11678477
0.8250,-19.12965269
0.8300,-19.14270876
0.8350,-19.15583841
0.8400,-19.16924316
0.8450,-19.18260345
0.8500,-19.19593672
0.8550,-19.20937969
0.8600,-19.22281772
0.8650,-19.23623032
0.8700,-19.24954431
0.8750,-19.26291353
0.8800,-19.27596478
0.8850,-19.28883293
0.8900,-19.30128765
0.8950,-19.31335434
0.9000,-19.32494102
0.9050,-19.33610278
0.9100,-19.34680857
0.9150,-19.35693511
0.9200,-19.36669708
0.9250,-19.37613341
0.9300,-19.38544612
0.9350,-19.39472871
0.9400,-19.40376057
0.9450,-19.41270828
0.9500,-19.42172546
0.9550,-19.43078753
0.9600,-19.43965246
0.9650,-19.44847906
0.9700,-19.4573275
0.9750,-19.46597361
0.9800,-19.47442734
0.9850,-19.48274459
0.9900,-19.49084692
0.9950,-19.49872594
1.0000,-19.50643876
1.0050,-19.5139979
1.0100,-19.52129922
1.0150,-19.5283117
1.0200,-19.5350277
1.0250,-19.54139922
1.0300,-19.54733568
1.0350,-19.55267632
1.0400,-19.55771543
1.0450,-19.56229318
1.0500,-19.5663581
1.0550,-19.56994393
1.0600,-19.57338668
1.0650,-19.5764578
1.0700,-19.57938624
1.0750,-19.58206298
1.0800,-19.58435333
1.0850,-19.58619932
1.0900,-19.5874486
1.0950,-19.58804754
1.1000,-19.58793805
1.1050,-19.58720422
1.1100,-19.58583085
1.1150,-19.58394934
1.1200,-19.58164441
1.1250,-19.57896723
1.1300,-19.57612581
1.1350,-19.5732093
1.1400,-19.57004774
1.1450,-19.56690407
1.1500,-19.56355685
1.1550,-19.55977676
1.1600,-19.55561862
1.1650,-19.55079935
1.1700,-19.54541331
1.1750,-19.5391449
1.1800,-19.5320614
1.1850,-19.52384788
1.1900,-19.5142745
1.1950,-19.50330374
1.2000,-19.49083442
1.2050,-19.47672379
1.2100,-19.46106744
1.2150,-19.44403353
1.2200,-19.4257509
1.2250,-19.40655147
1.2300,-19.38615499
1.2350,-19.3647209
1.2400,-19.34253398
1.2450,-19.31971063
1.2500,-19.29629917
1.2550,-19.2724424
1.2600,-19.24869484
1.2650,-19.22499764
1.2700,-19.20172151
1.2750,-19.17908576
1.2800,-19.15722404
1.2850,-19.13615133
1.2900,-19.11591967
1.2950,-19.09672055
1.3000,-19.07844574
1.3050,-19.06145841
1.3100,-19.04582435
1.3150,-19.03186644
1.3200,-19.01976042
1.3250,-19.00956215
1.3300,-19.00117936
1.3350,-18.99469577
1.3400,-18.98948425
1.3450,-18.98562499
1.3500,-18.9829158
1.3550,-18.98119191
1.3600,-18.98020825
1.3650,-18.98002816
1.3700,-18.98034722
1.3750,-18.98121405
1.3800,-18.98251763
1.3850,-18.98414725
1.3900,-18.98627814
1.3950,-18.98864696
1.4000,-18.99150767
1.4050,-18.99467269
1.4100,-18.99820343
1.4150,-19.00208428
1.4200,-19.00649718
1.4250,-19.01143538
1.4300,-19.01677935
1.4350,-19.02260499
1.4400,-19.02881663
1.4450,-19.03523075
1.4500,-19.0419592
1.4550,-19.04886518
1.4600,-19.05554835
1.4650,-19.06176113
1.4700,-19.06709269
1.4750,-19.07140767
1.4800,-19.07433081
1.4850,-19.07560022
1.4900,-19.07511169
1.4950,-19.07253831
1.5000,-19.06772778
1.5050,-19.06042156
1.5100,-19.05026003
1.5150,-19.03691449
1.5200,-19.0201164
1.5250,-18.99948584
1.5300,-18.97516806
1.5350,-18.94704209
1.5400,-18.91501556
1.5450,-18.87916447
1.5500,-18.83954392
1.5550,-18.79630337
1.5600,-18.74926059
1.5650,-18.69846988
1.5700,-18.64394882
1.5750,-18.58566056
1.5800,-18.52353376
1.5850,-18.45759069
1.5900,-18.38804119
1.5950,-18.31472458
1.6000,-18.23773497
1.6050,-18.15687744
1.6100,-18.07218916
1.6150,-17.98357622
1.6200,-17.89097597
1.6250,-17.79447135
1.6300,-17.69409075
1.6350,-17.59014669
1.6400,-17.48283878
1.6450,-17.37224402
1.6500,-17.25839654
1.6550,-17.14154592
1.6600,-17.0217898
1.6650,-16.89920915
1.6700,-16.77413606
1.6750,-16.64658182
1.6800,-16.51688648
1.6850,-16.3853001
1.6900,-16.251727
1.6950,-16.11658869
1.7000,-15.97974914
1.7050,-15.84141374
1.7100,-15.70152918
1.7150,-15.56025244
1.7200,-15.41759048
1.7250,-15.27389496
1.7300,-15.12930577
1.7350,-14.98408856
1.7400,-14.83840839
1.7450,-14.69237975
1.7500,-14.54629806
1.7550,-14.40042314
1.7600,-14.2551898
1.7650,-14.11079316
1.7700,-13.96740659
1.7750,-13.82477532
1.7800,-13.68320711
1.7850,-13.54266236
1.7900,-13.40295282
1.7950,-13.26420942
1.8000,-13.12621864
1.8050,-12.98932313
1.8100,-12.85355458
1.8150,-12.71898188
1.8200,-12.58555999
1.8250,-12.4532603
1.8300,-12.32189534
1.8350,-12.19154437
1.8400,-12.0622276
1.8450,-11.93380782
1.8500,-11.80649311
1.8550,-11.6802599
1.8600,-11.55529361
1.8650,-11.43156871
1.8700,-11.30916861
1.8750,-11.18818565
1.8800,-11.06851945
1.8850,-10.95029423
1.8900,-10.83327577
1.8950,-10.71737463
1.9000,-10.6025161
1.9050,-10.48882309
1.9100,-10.37604265
1.9150,-10.26377099
1.9200,-10.15176074
1.9250,-10.03961907
1.9300,-9.927405817
1.9350,-9.814643786
1.9400,-9.701211118
1.9450,-9.586803896
1.9500,-9.471423182
1.9550,-9.354734786
1.9600,-9.236470029
1.9650,-9.116527695
1.9700,-8.994490656
1.9750,-8.870368941
1.9800,-8.743788187
1.9850,-8.614810492
1.9900,-8.483270637
1.9950,-8.349082413
2.0000,-8.21206612
2.0050,-8.072404828
2.0100,-7.929920678
2.0150,-7.784885519
2.0200,-7.637246234
2.0250,-7.486654219
2.0300,-7.333280423
2.0350,-7.176944457
2.0400,-7.017511399
2.0450,-6.855201464
2.0500,-6.689581734
2.0550,-6.520304817
2.0600,-6.347479821
2.0650,-6.170914627
2.0700,-5.990623504
2.0750,-5.806661957
2.0800,-5.618816118
2.0850,-5.42717328
2.0900,-5.231908673
2.0950,-5.033067033
2.1000,-4.830737496
2.1050,-4.624936997
2.1100,-4.416022437
2.1150,-4.203804174
2.1200,-3.988507629
2.1250,-3.770136648
2.1300,-3.548859308
2.1350,-3.324443582
2.1400,-3.096936309
2.1450,-2.866443501
2.1500,-2.632825878
2.1550,-2.3959136
2.1600,-2.155850102
2.1650,-1.912581823
2.1700,-1.665977078
2.1750,-1.416318994
2.1800,-1.163776056
2.1850,-0.908496774
2.1900,-0.6503099809
2.1950,-0.3893548999
2.2000,-0.1255729865
2.2050,0.1411485691
2.2100,0.4107089807
2.2150,0.6829040116
2.2200,0.9577730281
2.2250,1.235253448
2.2300,1.515148234
2.2350,1.797231498
2.2400,2.081648893
2.2450,2.368243061
2.2500,2.657288751
2.2550,2.94867647
2.2600,3.242532511
2.2650,3.538822474
2.2700,3.837833106
2.2750,4.139837613
2.2800,4.444897798
2.2850,4.75355061
2.2900,5.065339258
2.2950,5.380485934
2.3000,5.698831007
2.3050,6.020368143
2.3100,6.345137978
2.3150,6.673331135
2.3200,7.004920972
2.3250,7.339870669
2.3300,7.67820192
2.3350,8.019947451
2.3400,8.364882382
2.3450,8.713052844
2.3500,9.064204215
2.3550,9.418081824
2.3600,9.775064871
2.3650,10.13491199
2.3700,10.49756223
2.3750,10.86293147
2.3800,11.23079402
2.3850,11.60124399
2.3900,11.97398432
2.3950,12.34933937
2.4000,12.72664232
2.4050,13.10616391
2.4100,13.48784003
2.4150,13.87155048
2.4200,14.25719997
2.4250,14.6447172
2.4300,15.03398904
2.4350,15.42493354
2.4400,15.81728849
2.4450,16.21118487
2.4500,16.60655227
2.4550,17.00313162
2.4600,17.40098594
2.4650,17.80009205
2.4700,18.2001268
2.4750,18.60118627
2.4800,19.00323767
2.4850,19.40640531
2.4900,19.81039726
2.4950,20.21524897
2.5000,20.62095333
2.5050,21.02752166
2.5100,21.43470259
2.5150,21.84274894
2.5200,22.25123641
2.5250,22.6600758
2.5300,23.06952097
2.5350,23.4797506
2.5400,23.89081406
2.5450,24.30255581
2.5500,24.71471159
2.5550,25.12758284
2.5600,25.54129374
2.5650,25.95593568
2.5700,26.37117226
2.5750,26.78710047
2.5800,27.20382222
2.5850,27.62112888
2.5900,28.03909045
2.5950,28.45740878
2.6000,28.87573737
2.6050,29.29405307
2.6100,29.7119257
2.6150,30.12943092
2.6200,30.54636161
2.6250,30.96239904
2.6300,31.37746768
2.6350,31.79165614
2.6400,32.20454036
2.6450,32.61604981
2.6500,33.02616736
2.6550,33.43458686
2.6600,33.8413395
2.6650,34.24618363
2.6700,34.64888433
2.6750,35.04963397
2.6800,35.44874711
2.6850,35.84574558
2.6900,36.2409898
2.6950,36.63365961
2.7000,37.02400242
2.7050,37.41176638
2.7100,37.79653333
2.7150,38.17841011
2.7200,38.55743223
2.7250,38.93342459
2.7300,39.30626201
2.7350,39.67574918
2.7400,40.04214508
2.7450,40.40532576
2.7500,40.76540887
2.7550,41.12232279
2.7600,41.4763525
2.7650,41.82730155
2.7700,42.17537062
2.7750,42.52062054
2.7800,42.86314817
2.7850,43.20286499
2.7900,43.53992901
2.7950,43.87427949
2.8000,44.20599907
2.8050,44.53506773
2.8100,44.86176197
2.8150,45.18540683
2.8200,45.5061587
2.8250,45.82418728
2.8300,46.13932811
2.8350,46.45169576
2.8400,46.76088162
2.8450,47.06720083
2.8500,47.37060295
2.8550,47.67112255
2.8600,47.96863932
2.8650,48.26323469
2.8700,48.55507412
2.8750,48.84387776
2.8800,49.12976276
2.8850,49.41244594
2.8900,49.69208031
2.8950,49.96851746
2.9000,50.2420608
2.9050,50.51248377
2.9100,50.77982106
2.9150,51.04406748
2.9200,51.30548993
2.9250,51.56408467
2.9300,51.81977462
2.9350,52.07238737
2.9400,52.32187774
2.9450,52.56872723
2.9500,52.812849
2.9550,53.05433403
2.9600,53.29277663
2.9650,53.52829852
2.9700,53.76088645
2.9750,53.9899864
2.9800,54.21540376
2.9850,54.43742
2.9900,54.6558776
2.9950,54.87124475
3.0000,55.08349388
3.0050,55.29274799
3.0100,55.49925254
3.0150,55.70305661
3.0200,55.90393608
3.0250,56.10198166
3.0300,56.29748761
3.0350,56.49026474
3.0400,56.68056597
3.0450,56.86829792
3.0500,57.05348495
3.0550,57.23603878
3.0600,57.41632824
3.0650,57.59411182
3.0700,57.76966426
3.0750,57.94290181
3.0800,58.11410548
3.0850,58.28343527
3.0900,58.45085187
3.0950,58.61615994
3.1000,58.77922634
3.1050,58.93977989
3.1100,59.09748498
3.1150,59.25274855
3.1200,59.405353
3.1250,59.5549539
3.1300,59.70169685
3.1350,59.84545243
3.1400,59.98621304
3.1450,60.12383465
3.1500,60.25836898
3.1550,60.38985649
3.1600,60.51838334
3.1650,60.64423418
3.1700,60.76759389
3.1750,60.88884326
3.1800,61.00788412
3.1850,61.12497622
3.1900,61.24048043
3.1950,61.35455979
3.2000,61.46718255
3.2050,61.57833284
3.2100,61.68813865
3.2150,61.79689951
3.2200,61.90428437
3.2250,62.01048722
3.2300,62.11550643
3.2350,62.21929767
3.2400,62.3218416
3.2450,62.42289796
3.2500,62.52196698
3.2550,62.61937092
3.2600,62.71541375
3.2650,62.81034839
3.2700,62.90403675
3.2750,62.99655858
3.2800,63.08793805
3.2850,63.17817733
3.2900,63.26743866
3.2950,63.35588031
3.3000,63.44384113
3.3050,63.53129835
3.3100,63.61829099
3.3150,63.70481861
3.3200,63.79110128
3.3250,63.8771636
3.3300,63.96269083
3.3350,64.0478767
3.3400,64.13241035
3.3450,64.21611955
3.3500,64.29906487
3.3550,64.38158802
3.3600,64.463439
3.3650,64.54470241
3.3700,64.62530262
3.3750,64.70487429
3.3800,64.78349124
3.3850,64.86110085
3.3900,64.93766598
3.3950,65.0135064
3.4000,65.08866766
3.4050,65.16323198
3.4100,65.23719465
3.4150,65.31044362
3.4200,65.38328514
3.4250,65.456369
3.4300,65.52973472
3.4350,65.60350477
3.4400,65.67774255
3.4450,65.75232146
3.4500,65.82753155
3.4550,65.90331585
3.4600,65.97998915
3.4650,66.05761569
3.4700,66.13626013
3.4750,66.21580374
3.4800,66.29663401
3.4850,66.37883735
3.4900,66.46216921
3.4950,66.5466738
3.5000,66.63241357
3.5050,66.71968301
3.5100,66.80860604
3.5150,66.89875755
3.5200,66.99047727
3.5250,67.0835334
3.5300,67.17781701
3.5350,67.27320842
3.5400,67.36983183
3.5450,67.46780968
3.5500,67.56751892
3.5550,67.66847778
3.5600,67.77048291
3.5650,67.87286117
3.5700,67.97561407
3.5750,68.07868318
3.5800,68.18215472
3.5850,68.28582079
3.5900,68.38992352
3.5950,68.49422766
3.6000,68.59837248
3.6050,68.70257342
3.6100,68.8067392
3.6150,68.91060027
3.6200,69.01420714
3.6250,69.11733953
3.6300,69.22003248
3.6350,69.32209759
3.6400,69.42319906
3.6450,69.52352446
3.6500,69.6231157
3.6550,69.72189937
3.6600,69.81924705
3.6650,69.91505486
3.6700,70.00937717
3.6750,70.1025951
3.6800,70.1944238
3.6850,70.28471577
3.6900,70.37355239
3.6950,70.46106193
3.7000,70.54754061
3.7050,70.63281279
3.7100,70.716786
3.7150,70.79978575
3.7200,70.88164329
3.7250,70.96231769
3.7300,71.04166552
3.7350,71.11963963
3.7400,71.19682754
3.7450,71.27365213
3.7500,71.34968961
3.7550,71.42503685
3.7600,71.49975466
3.7650,71.5741432
3.7700,71.64849536
3.7750,71.72281906
3.7800,71.79698876
3.7850,71.87115232
3.7900,71.94524736
3.7950,72.0194828
3.8000,72.09422339
3.8050,72.16932998
3.8100,72.24502686
3.8150,72.32189611
3.8200,72.40019986
3.8250,72.47962414
3.8300,72.56051185
3.8350,72.64311102
3.8400,72.72713881
3.8450,72.81247599
3.8500,72.89879023
3.8550,72.98585893
3.8600,73.07383547
3.8650,73.16274149
3.8700,73.25266755
3.8750,73.34332807
3.8800,73.43437581
3.8850,73.52567879
3.8900,73.61638606
3.8950,73.70617842
3.9000,73.79507149
3.9050,73.88271297
3.9100,73.9689861
3.9150,74.05389485
3.9200,74.13678426
3.9250,74.21724641
3.9300,74.29518634
3.9350,74.37053132
3.9400,74.44325986
3.9450,74.51275638
3.9500,74.57894039
3.9550,74.64159967
3.9600,74.7010106
3.9650,74.75727732
3.9700,74.81034695
3.9750,74.86012058
3.9800,74.90648312
3.9850,74.94976356
3.9900,74.98965347
3.9950,75.02594229
4.0000,75.05837546
4.0050,75.08732533
4.0100,75.11339079
4.0150,75.13663302
4.0200,75.15707384
4.0250,75.17462934
4.0300,75.18950921
4.0350,75.20222039
4.0400,75.2123462
4.0450,75.21990702
4.0500,75.22557325
4.0550,75.22973918
4.0600,75.23227876
4.0650,75.23306983
4.0700,75.2320277
4.0750,75.22960309
4.0800,75.22603313
4.0850,75.22133081
4.0900,75.21583867
4.0950,75.20957979
4.1000,75.20269664
4.1050,75.19537749
4.1100,75.18755515
4.1150,75.17915666
4.1200,75.17008785
4.1250,75.16086901
4.1300,75.15131021
4.1350,75.14150287
4.1400,75.13156131
4.1450,75.12150311
4.1500,75.11142788
4.1550,75.10150114
4.1600,75.09135775
4.1650,75.08100422
4.1700,75.07046164
4.1750,75.05973513
4.1800,75.04874062
4.1850,75.03743775
4.1900,75.02613448
4.1950,75.0150693
4.2000,75.00418828
4.2050,74.9933291
4.2100,74.98237833
4.2150,74.97125755
4.2200,74.96025056
4.2250,74.94977268
4.2300,74.93956261
4.2350,74.92932459
4.2400,74.91909568
4.2450,74.90910383
4.2500,74.89919846
4.2550,74.8893245
4.2600,74.8796049
4.2650,74.87003054
4.2700,74.86063089
4.2750,74.85144464
4.2800,74.84243873
4.2850,74.83332895
4.2900,74.82403975
4.2950,74.81475379
4.3000,74.80544485
4.3050,74.79609922
4.3100,74.78655884
4.3150,74.77684745
4.3200,74.76725215
4.3250,74.75774614
4.3300,74.74849828
4.3350,74.73932124
4.3400,74.73040912
4.3450,74.72174811
4.3500,74.7131369
4.3550,74.70458426
4.3600,74.69609612
4.3650,74.6877616
4.3700,74.67950126
4.3750,74.67114896
4.3800,74.66245179
4.3850,74.65341273
4.3900,74.64397994
4.3950,74.63444536
4.4000,74.62458843
4.4050,74.61451388
4.4100,74.60400411
4.4150,74.59285068
4.4200,74.58111742
4.4250,74.56870411
4.4300,74.55555577
4.4350,74.54174652
4.4400,74.52732173
4.4450,74.51228148
4.4500,74.49663732
4.4550,74.48030952
4.4600,74.46342932
4.4650,74.44612242
4.4700,74.42812743
4.4750,74.40967319
4.4800,74.39091685
4.4850,74.37195656
4.4900,74.35270656
4.4950,74.33318372
4.5000,74.31325193
4.5050,74.29312884
4.5100,74.27282207
4.5150,74.25228624
4.5200,74.23147316
4.5250,74.21000253
4.5300,74.18800689
4.5350,74.16553024
4.5400,74.14260945
4.5450,74.11921846
4.5500,74.09553101
4.5550,74.07151414
4.5600,74.04739339
4.5650,74.02294268
4.5700,73.99816005
4.5750,73.97280606
4.5800,73.94700472
4.5850,73.92082313
4.5900,73.89440282
4.5950,73.86767386
4.6000,73.84075665
4.6050,73.81379194
4.6100,73.78675638
4.6150,73.75950272
4.6200,73.73194196
4.6250,73.7043277
4.6300,73.67677601
4.6350,73.64920855
4.6400,73.6217691
4.6450,73.59425779
4.6500,73.56677651
4.6550,73.53920167
4.6600,73.51151378
4.6650,73.48360316
4.6700,73.45567274
4.6750,73.42772713
4.6800,73.39976978
4.6850,73.37199179
4.6900,73.34439791
4.6950,73.3169771
4.7000,73.2895207
4.7050,73.2620227
4.7100,73.23453898
4.7150,73.20716635
4.7200,73.17994199
4.7250,73.15263642
4.7300,73.12516346
4.7350,73.09746997
4.7400,73.06951542
4.7450,73.04126978
4.7500,73.01291844
4.7550,72.98474489
4.7600,72.95669546
4.7650,72.92881864
4.7700,72.90123028
4.7750,72.87383245
4.7800,72.84659586
4.7850,72.81946968
4.7900,72.79253902
4.7950,72.76581436
4.8000,72.73930698
4.8050,72.71291844
4.8100,72.68706457
4.8150,72.66170598
4.8200,72.63675454
4.8250,72.61261368
4.8300,72.58921216
4.8350,72.56673614
4.8400,72.54510208
4.8450,72.52437775
4.8500,72.50406837
4.8550,72.4843591
4.8600,72.46487898
4.8650,72.44578514
4.8700,72.42694337
4.8750,72.40843806
4.8800,72.39034963
4.8850,72.37262408
4.8900,72.35529714
4.8950,72.33828942
4.9000,72.32172609
4.9050,72.3054376
4.9100,72.28942726
4.9150,72.27375754
4.9200,72.25822849
4.9250,72.24262938
4.9300,72.22686464
4.9350,72.21076342
4.9400,72.19422642
4.9450,72.17743025
4.9500,72.16052249
4.9550,72.14316797
4.9600,72.12564288
4.9650,72.10795736
4.9700,72.09000172
4.9750,72.07148191
4.9800,72.0524553
4.9850,72.03282929
4.9900,72.01218272
4.9950,71.99039697
5.0000,71.96761958
5.0050,71.94386244
5.0100,71.91908844
5.0150,71.89337404
5.0200,71.86661749
5.0250,71.83915032
5.0300,71.81117428
5.0350,71.78253948
5.0400,71.75335973
5.0450,71.72348567
5.0500,71.69301655
5.0550,71.66190151
5.0600,71.62995095
5.0650,71.59706147
5.0700,71.56333709
5.0750,71.5289187
5.0800,71.49370734
5.0850,71.45787884
5.0900,71.42141067
5.0950,71.38430735
5.1000,71.34680136
5.1050,71.30890864
5.1100,71.27041691
5.1150,71.23130187
5.1200,71.1916784
5.1250,71.15110943
5.1300,71.10961705
5.1350,71.06685884
5.1400,71.02271349
5.1450,70.97699391
5.1500,70.92982718
5.1550,70.88082489
5.1600,70.83015579
5.1650,70.77791922
5.1700,70.72405681
5.1750,70.66856243
5.1800,70.61147742
5.1850,70.55275461
5.1900,70.49235796
5.1950,70.4302753
5.2000,70.36630158
5.2050,70.30051503
5.2100,70.23276406
5.2150,70.16296212
5.2200,70.09094335
5.2250,70.01673615
5.2300,69.94059271
5.2350,69.8625385
5.2400,69.78296754
5.2450,69.70163943
5.2500,69.61845702
5.2550,69.53363756
5.2600,69.44680601
5.2650,69.35776357
5.2700,69.26644418
5.2750,69.17309105
5.2800,69.07792735
5.2850,68.98067501
5.2900,68.88177624
5.2950,68.78095558
5.3000,68.6785733
5.3050,68.57454006
5.3100,68.46905386
5.3150,68.3618188
5.3200,68.25291131
5.3250,68.14221007
5.3300,68.02987586
5.3350,67.91594286
5.3400,67.80050776
5.3450,67.68365573
5.3500,67.5650399
5.3550,67.4445755
5.3600,67.32232665
5.3650,67.1982043
5.3700,67.07198857
5.3750,66.94334577
5.3800,66.81208017
5.3850,66.67809616
5.3900,66.54131747
5.3950,66.40180608
5.4000,66.25921197
5.4050,66.11371518
5.4100,65.96520603
5.4150,65.8139156
5.4200,65.66009371
5.4250,65.50388397
5.4300,65.34522604
5.4350,65.18418174
5.4400,65.02108063
5.4450,64.8561619
5.4500,64.68945144
5.4550,64.52105382
5.4600,64.35082351
5.4650,64.17847054
5.4700,64.00428884
5.4750,63.82853478
5.4800,63.6509007
5.4850,63.47157012
5.4900,63.29036541
5.4950,63.10704984
5.5000,62.92178287
5.5050,62.73451697
5.5100,62.54524474
5.5150,62.35414923
5.5200,62.16166935
5.5250,61.9679668
5.5300,61.77267617
5.5350,61.57654592
5.5400,61.3791239
5.5450,61.18052764
5.5500,60.98090699
5.5550,60.78023191
5.5600,60.57870105
5.5650,60.37630322
5.5700,60.1733833
5.5750,59.96991473
5.5800,59.76588728
5.5850,59.56170232
5.5900,59.35718032
5.5950,59.152566
5.6000,58.94765253
5.6050,58.74269904
5.6100,58.53737562
5.6150,58.33165197
5.6200,58.12515262
5.6250,57.91794031
5.6300,57.70951111
5.6350,57.49984914
5.6400,57.28897759
5.6450,57.07685417
5.6500,56.86359831
5.6550,56.6493478
5.6600,56.4342006
5.6650,56.21826596
5.6700,56.00174221
5.6750,55.78442019
5.6800,55.56645793
5.6850,55.34724498
5.6900,55.12669271
5.6950,54.90412788
5.7000,54.67958351
5.7050,54.45253466
5.7100,54.2226063
5.7150,53.989829
5.7200,53.75359494
5.7250,53.51410985
5.7300,53.27150814
5.7350,53.02593885
5.7400,52.77690974
5.7450,52.52450637
5.7500,52.2689401
5.7550,52.01061639
5.7600,51.74949027
5.7650,51.48565834
5.7700,51.21869614
5.7750,50.94850115
5.7800,50.67503505
5.7850,50.39850234
5.7900,50.11906283
5.7950,49.83691751
5.8000,49.55201019
5.8050,49.26424635
5.8100,48.97347044
5.8150,48.6798213
5.8200,48.3834062
5.8250,48.08386547
5.8300,47.78118666
5.8350,47.47517214
5.8400,47.16608948
5.8450,46.85438001
5.8500,46.54019351
5.8550,46.22373614
5.8600,45.90531287
5.8650,45.58548319
5.8700,45.26418869
5.8750,44.94177565
5.8800,44.61806868
5.8850,44.29311144
5.8900,43.96683184
5.8950,43.6395188
5.9000,43.31126998
5.9050,42.98223443
5.9100,42.65266579
5.9150,42.32264156
5.9200,41.99228877
5.9250,41.66172777
5.9300,41.33116131
5.9350,41.0006507
5.9400,40.66982716
5.9450,40.33884565
5.9500,40.00780258
5.9550,39.67633998
5.9600,39.34428108
5.9650,39.01177814
5.9700,38.67833262
5.9750,38.34452266
5.9800,38.00982149
5.9850,37.67448255
5.9900,37.33854387
5.9950,37.00241213
6.0000,36.66585306
6.0050,36.32881755
6.0100,35.99165194
6.0150,35.65380549
6.0200,35.31556214
6.0250,34.97635494
6.0300,34.63620328
6.0350,34.29501604
6.0400,33.95284021
6.0450,33.60919347
6.0500,33.2638704
6.0550,32.91677652
6.0600,32.5679479
6.0650,32.21754377
6.0700,31.86569578
6.0750,31.51205394
6.0800,31.156558
6.0850,30.79886887
6.0900,30.43895595
6.0950,30.0766491
6.1000,29.711731
6.1050,29.34442345
6.1100,28.97460804
6.1150,28.60215773
6.1200,28.22722286
6.1250,27.8498925
6.1300,27.47062709
6.1350,27.08889512
6.1400,26.70508246
6.1450,26.319136
6.1500,25.93110601
6.1550,25.54105742
6.1600,25.14917716
6.1650,24.7552192
6.1700,24.35949391
6.1750,23.96190617
6.1800,23.56293032
6.1850,23.16215717
6.1900,22.7601247
6.1950,22.35671012
6.2000,21.95217222
6.2050,21.54636996
6.2100,21.13971395
6.2150,20.73238842
6.2200,20.32482671
6.2250,19.91680738
6.2300,19.5084989
6.2350,19.09999758
6.2400,18.69165119
6.2450,18.28378695
6.2500,17.87662475
6.2550,17.47079713
6.2600,17.06622832
6.2650,16.66314909
6.2700,16.26183109
6.2750,15.86199967
6.2800,15.46425335
6.2850,15.06872306
6.2900,14.67548529
6.2950,14.28433981
6.3000,13.89534227
6.3050,13.50831656
6.3100,13.12337731
6.3150,12.74028472
6.3200,12.35900696
6.3250,11.97985304
6.3300,11.60234256
6.3350,11.22655747
6.3400,10.85237606
6.3450,10.48005639
6.3500,10.10940075
6.3550,9.739781743
6.3600,9.3711984
6.3650,9.003241986
6.3700,8.636168416
6.3750,8.269760074
6.3800,7.903813898
6.3850,7.537937358
6.3900,7.172140385
6.3950,6.806480134
6.4000,6.441207597
6.4050,6.075528482
6.4100,5.709851659
6.4150,5.34344602
6.4200,4.976245013
6.4250,4.608447353
6.4300,4.239839267
6.4350,3.870894945
6.4400,3.501519068
6.4450,3.131820477
6.4500,2.762188429
6.4550,2.39281066
6.4600,2.023977812
6.4650,1.655903693
6.4700,1.288748314
6.4750,0.9228295044
6.4800,0.5584958474
6.4850,0.1960533069
6.4900,-0.164165145
6.4950,-0.5220238214
6.5000,-0.8774677834
6.5050,-1.230189425
6.5100,-1.580015483
6.5150,-1.926798584
6.5200,-2.270580864
6.5250,-2.610592264
6.5300,-2.946772358
6.5350,-3.278808814
6.5400,-3.606591768
6.5450,-3.93021177
6.5500,-4.249486864
6.5550,-4.564755089
6.5600,-4.875561986
6.5650,-5.18227272
6.5700,-5.484914031
6.5750,-5.783175898
6.5800,-6.077587205
6.5850,-6.368355036
6.5900,-6.655505451
6.5950,-6.939194017
6.6000,-7.219255361
6.6050,-7.49576964
6.6100,-7.769157764
6.6150,-8.039771042
6.6200,-8.307465662
6.6250,-8.572428262
6.6300,-8.834478708
6.6350,-9.093700964
6.6400,-9.350105922
6.6450,-9.60386654
6.6500,-9.855013857
6.6550,-10.10327123
6.6600,-10.34892477
6.6650,-10.59162668
6.6700,-10.83169828
6.6750,-11.06898021
6.6800,-11.30348437
6.6850,-11.53500462
6.6900,-11.76352717
6.6950,-11.98943265
6.7000,-12.21292245
6.7050,-12.43349341
6.7100,-12.65163295
6.7150,-12.86677529
6.7200,-13.07927054
6.7250,-13.28934693
6.7300,-13.49699453
6.7350,-13.70262214
6.7400,-13.90638657
6.7450,-14.10827603
6.7500,-14.30834096
6.7550,-14.5067992
6.7600,-14.7035601
6.7650,-14.89879302
6.7700,-15.09255831
6.7750,-15.28498902
6.7800,-15.47627315
6.7850,-15.6663437
6.7900,-15.85553315
6.7950,-16.04397501
6.8000,-16.23153518
6.8050,-16.41812603
6.8100,-16.60376346
6.8150,-16.78851032
6.8200,-16.97209579
6.8250,-17.15482531
6.8300,-17.33638927
6.8350,-17.51701934
6.8400,-17.69660044
6.8450,-17.87519519
6.8500,-18.05277357
6.8550,-18.22939599
6.8600,-18.40494359
6.8650,-18.5793204
6.8700,-18.75227592
6.8750,-18.92391879
6.8800,-19.09393259
6.8850,-19.26222455
6.8900,-19.42883577
6.8950,-19.59349446
6.9000,-19.75613788
6.9050,-19.91631302
6.9100,-20.07386549
6.9150,-20.22826222
6.9200,-20.37967704
6.9250,-20.52770345
6.9300,-20.67191472
6.9350,-20.81199322
6.9400,-20.94765452
6.9450,-21.07890004
6.9500,-21.20507643
6.9550,-21.32608998
6.9600,-21.44152699
6.9650,-21.55162553
6.9700,-21.65618921
6.9750,-21.75519219
6.9800,-21.84881625
6.9850,-21.93714411
6.9900,-22.0203824
6.9950,-22.0985751
7.0000,-22.17204056
7.0050,-22.24128386
7.0100,-22.30642558
7.0150,-22.36790049
7.0200,-22.42601309
7.0250,-22.4807814
7.0300,-22.53260318
7.0350,-22.58164535
7.0400,-22.62798414
7.0450,-22.67186394
7.0500,-22.71365557
7.0550,-22.75337305
7.0600,-22.79133366
7.0650,-22.82761344
7.0700,-22.86221358
7.0750,-22.89554452
7.0800,-22.92786395
7.0850,-22.95923377
7.0900,-22.99007998
7.0950,-23.02058284
7.1000,-23.05125991
7.1050,-23.08246507
7.1100,-23.11477715
7.1150,-23.14856151
7.1200,-23.18417749
7.1250,-23.22223812
7.1300,-23.26320662
7.1350,-23.30726768
7.1400,-23.35446047
7.1450,-23.40508808
7.1500,-23.45922374
7.1550,-23.51691729
7.1600,-23.57846768
7.1650,-23.64364061
7.1700,-23.7123806
7.1750,-23.78450949
7.1800,-23.85985016
7.1850,-23.93823539
7.1900,-24.01934334
7.1950,-24.10290829
7.2000,-24.18867799
7.2050,-24.27640144
7.2100,-24.36588932
7.2150,-24.45700238
7.2200,-24.54940509
7.2250,-24.64311062
7.2300,-24.73771104
7.2350,-24.83313773
7.2400,-24.92908156
7.2450,-25.02550001
7.2500,-25.12255387
7.2550,-25.22031324
7.2600,-25.3188448
7.2650,-25.41780163
7.2700,-25.51723472
7.2750,-25.61679334
7.2800,-25.71646531
7.2850,-25.81606519
7.2900,-25.91551811
7.2950,-26.01460434
7.3000,-26.11319796
7.3050,-26.21135034
7.3100,-26.30886731
7.3150,-26.40555269
7.3200,-26.50120476
7.3250,-26.59575537
7.3300,-26.68878952
7.3350,-26.78025443
7.3400,-26.86999459
7.3450,-26.95799115
7.3500,-27.04412065
7.3550,-27.12824502
7.3600,-27.21036995
7.3650,-27.29036907
7.3700,-27.36844653
7.3750,-27.44429674
7.3800,-27.51803131
7.3850,-27.58986318
7.3900,-27.65967239
7.3950,-27.72756294
7.4000,-27.793566
7.4050,-27.85782413
7.4100,-27.92022098
7.4150,-27.98048598
7.4200,-28.03873173
7.4250,-28.09468552
7.4300,-28.14831497
7.4350,-28.19977337
7.4400,-28.24916878
7.4450,-28.29642094
7.4500,-28.34162575
7.4550,-28.38481498
7.4600,-28.42582139
7.4650,-28.46502423
7.4700,-28.50251072
7.4750,-28.53828373
7.4800,-28.57256074
7.4850,-28.60515911
7.4900,-28.63616043
7.4950,-28.66556396
7.5000,-28.69364097
7.5050,-28.72049733
7.5100,-28.74623595
7.5150,-28.77089609
7.5200,-28.79464733
7.5250,-28.81754937
7.5300,-28.83990744
7.5350,-28.86161957
7.5400,-28.88293475
7.5450,-28.90354523
7.5500,-28.92354416
7.5550,-28.94265796
7.5600,-28.96067109
7.5650,-28.97754978
7.5700,-28.99330721
7.5750,-29.00817104
7.5800,-29.02193802
7.5850,-29.03489988
7.5900,-29.04696724
7.5950,-29.05828226
7.6000,-29.06888642
7.6050,-29.07853385
7.6100,-29.0874637
7.6150,-29.0958259
7.6200,-29.10348037
7.6250,-29.11049508
7.6300,-29.11705713
7.6350,-29.12300655
7.6400,-29.12854546
7.6450,-29.13344868
7.6500,-29.13753187
7.6550,-29.14089775
7.6600,-29.14348262
7.6650,-29.14526288
7.6700,-29.1462782
7.6750,-29.14646239
7.6800,-29.14569226
7.6850,-29.14404154
7.6900,-29.14129468
7.6950,-29.13742181
7.7000,-29.13227201
7.7050,-29.12586637
7.7100,-29.11814063
7.7150,-29.10914411
7.7200,-29.09883677
7.7250,-29.0872352
7.7300,-29.07445151
7.7350,-29.060334
7.7400,-29.04506748
7.7450,-29.02842549
7.7500,-29.01048234
7.7550,-28.9911723
7.7600,-28.97044737
7.7650,-28.94827915
7.7700,-28.92456177
7.7750,-28.89960643
7.7800,-28.87312753
7.7850,-28.84542248
7.7900,-28.81641686
7.7950,-28.78641887
7.8000,-28.7552626
7.8050,-28.72313129
7.8100,-28.69007953
7.8150,-28.65625515
7.8200,-28.62153615
7.8250,-28.58603465
7.8300,-28.54997886
7.8350,-28.51336586
7.8400,-28.47618931
7.8450,-28.43868491
7.8500,-28.40107284
7.8550,-28.36327779
7.8600,-28.32550528
7.8650,-28.28790537
7.8700,-28.25046942
7.8750,-28.21321746
7.8800,-28.17633734
7.8850,-28.13951742
7.8900,-28.10290587
7.8950,-28.06627837
7.9000,-28.02971306
7.9050,-27.99340919
7.9100,-27.95720086
7.9150,-27.92109638
7.9200,-27.88509976
7.9250,-27.84909459
7.9300,-27.81304554
7.9350,-27.77690568
7.9400,-27.74046129
7.9450,-27.70367194
7.9500,-27.66670528
7.9550,-27.62930656
7.9600,-27.59155542
7.9650,-27.55332188
7.9700,-27.5144309
7.9750,-27.47480891
7.9800,-27.43429147
7.9850,-27.39282911
7.9900,-27.35034702
7.9950,-27.30677354
8.0000,-27.26210784
8.0050,-27.21602915
8.0100,-27.1687916
8.0150,-27.12011213
8.0200,-27.07014509
8.0250,-27.01893016
8.0300,-26.96629377
8.0350,-26.91202655
8.0400,-26.8559354
8.0450,-26.79817133
8.0500,-26.73852034
8.0550,-26.67709153
8.0600,-26.61393191
8.0650,-26.54892465
8.0700,-26.48209851
8.0750,-26.41325358
8.0800,-26.34226248
8.0850,-26.26894973
8.0900,-26.19328088
8.0950,-26.11514346
8.1000,-26.03465834
8.1050,-25.95171325
8.1100,-25.86628399
8.1150,-25.77843867
8.1200,-25.68835789
8.1250,-25.59609097
8.1300,-25.50145841
8.1350,-25.40469534
8.1400,-25.30600752
8.1450,-25.2053696
8.1500,-25.10257302
8.1550,-24.99811569
8.1600,-24.89201846
8.1650,-24.78443786
8.1700,-24.67528868
8.1750,-24.56461417
8.1800,-24.45233436
8.1850,-24.33862211
8.1900,-24.22329111
8.1950,-24.10649095
8.2000,-23.98818345
8.2050,-23.86809
8.2100,-23.74655865
8.2150,-23.62322647
8.2200,-23.49810529
8.2250,-23.37126904
8.2300,-23.24271671
8.2350,-23.11257516
8.2400,-22.98105026
8.2450,-22.84821261
8.2500,-22.71404658
8.2550,-22.57875948
8.2600,-22.44235136
8.2650,-22.30489901
8.2700,-22.16630575
8.2750,-22.02676054
8.2800,-21.88634171
8.2850,-21.74506033
8.2900,-21.60288604
8.2950,-21.45999485
8.3000,-21.31629238
8.3050,-21.17204718
8.3100,-21.02686295
8.3150,-20.88088371
8.3200,-20.73390491
8.3250,-20.58588825
8.3300,-20.43681475
8.3350,-20.28702149
8.3400,-20.13629278
8.3450,-19.98471163
8.3500,-19.83237588
8.3550,-19.67921717
8.3600,-19.52518692
8.3650,-19.37024015
8.3700,-19.21442475
8.3750,-19.0578557
8.3800,-18.90055548
8.3850,-18.74278974
8.3900,-18.58468856
8.3950,-18.42622951
8.4000,-18.26734723
8.4050,-18.10789636
8.4100,-17.94794084
8.4150,-17.78726884
8.4200,-17.62569565
8.4250,-17.46315997
8.4300,-17.29947053
8.4350,-17.1346412
8.4400,-16.96842917
8.4450,-16.80095
8.4500,-16.632153
8.4550,-16.46190391
8.4600,-16.2899755
8.4650,-16.11659301
8.4700,-15.94169638
8.4750,-15.76509289
8.4800,-15.58702107
8.4850,-15.4072716
8.4900,-15.22579955
8.4950,-15.0429611
8.5000,-14.85853138
8.5050,-14.67265512
8.5100,-14.48505177
8.5150,-14.29596545
8.5200,-14.10571849
8.5250,-13.91417083
8.5300,-13.72131711
8.5350,-13.52722381
8.5400,-13.3317267
8.5450,-13.13497725
8.5500,-12.93684313
8.5550,-12.73752456
8.5600,-12.53701305
8.5650,-12.33542713
8.5700,-12.13284667
8.5750,-11.9294371
8.5800,-11.72525019
8.5850,-11.52019279
8.5900,-11.31469743
8.5950,-11.10825687
8.6000,-10.90108507
8.6050,-10.69290564
8.6100,-10.48389953
8.6150,-10.27409689
8.6200,-10.06345476
8.6250,-9.852190189
8.6300,-9.640255091
8.6350,-9.427544904
8.6400,-9.21442714
8.6450,-9.000813613
8.6500,-8.786823576
8.6550,-8.572435431
8.6600,-8.357589856
8.6650,-8.142182124
8.6700,-7.926230844
8.6750,-7.709338855
8.6800,-7.492047081
8.6850,-7.273957325
8.6900,-7.054821725
8.6950,-6.834655203
8.7000,-6.613542137
8.7050,-6.391338398
8.7100,-6.168172203
8.7150,-5.943789287
8.7200,-5.718229847
8.7250,-5.491302675
8.7300,-5.263173385
8.7350,-5.033633527
8.7400,-4.802531097
8.7450,-4.569718063
8.7500,-4.335332729
8.7550,-4.099301355
8.7600,-3.861945061
8.7650,-3.622814078
8.7700,-3.381771912
8.7750,-3.138989572
8.7800,-2.89408836
8.7850,-2.64704441
8.7900,-2.398116951
8.7950,-2.146886366
8.8000,-1.893579942
8.8050,-1.637930929
8.8100,-1.379841504
8.8150,-1.119274627
8.8200,-0.8559368886
8.8250,-0.5895876643
8.8300,-0.3204459712
8.8350,-0.04821495091
8.8400,0.2269288425
8.8450,0.5052000126
8.8500,0.7864352202
8.8550,1.071023095
8.8600,1.358825147
8.8650,1.650024747
8.8700,1.944599034
8.8750,2.242754091
8.8800,2.544093433
8.8850,2.848483922
8.8900,3.156231239
8.8950,3.466595637
8.9000,3.77983701
8.9050,4.096003553
8.9100,4.415203757
8.9150,4.737209513
8.9200,5.061832811
8.9250,5.389564288
8.9300,5.719968955
8.9350,6.053011495
8.9400,6.389039206
8.9450,6.727849845
8.9500,7.069383703
8.9550,7.413610123
8.9600,7.760274125
8.9650,8.109178141
8.9700,8.460470946
8.9750,8.813937901
8.9800,9.169757844
8.9850,9.527696287
8.9900,9.887738448
8.9950,10.24965186
9.0000,10.61359257
9.0050,10.97932225
9.0100,11.34699745
9.0150,11.71638638
9.0200,12.08760077
9.0250,12.46040051
9.0300,12.83492147
9.0350,13.21096433
9.0400,13.58822197
9.0450,13.9665018
9.0500,14.3458992
9.0550,14.72638342
9.0600,15.10789991
9.0650,15.49045908
9.0700,15.87359118
9.0750,16.25723933
9.0800,16.64141772
9.0850,17.02604433
9.0900,17.41089443
9.0950,17.79610031
9.1000,18.18178623
9.1050,18.56774859
9.1100,18.95408483
9.1150,19.34060474
9.1200,19.72742178
9.1250,20.11428453
9.1300,20.50150114
9.1350,20.88870842
9.1400,21.27618761
9.1450,21.6635957
9.1500,22.05090806
9.1550,22.43814277
9.1600,22.82527651
9.1650,23.21225556
9.1700,23.59854004
9.1750,23.98426461
9.1800,24.36932869
9.1850,24.75373905
9.1900,25.1370945
9.1950,25.51961877
9.2000,25.90116676
9.2050,26.28145738
9.2100,26.66072781
9.2150,27.03892009
9.2200,27.41596635
9.2250,27.79181191
9.2300,28.16663152
9.2350,28.54026719
9.2400,28.91277177
9.2450,29.28424821
9.2500,29.65447372
9.2550,30.02363467
9.2600,30.39152916
9.2650,30.758111
9.2700,31.12333429
9.2750,31.48695609
9.2800,31.84910368
9.2850,32.20981169
9.2900,32.56859681
9.2950,32.92565452
9.3000,33.28080625
9.3050,33.63408972
9.3100,33.98544484
9.3150,34.33445199
9.3200,34.68127243
9.3250,35.02579861
9.3300,35.36786988
9.3350,35.70769881
9.3400,36.04525197
9.3450,36.38076558
9.3500,36.7138879
9.3550,37.04503209
9.3600,37.37414971
9.3650,37.70131186
9.3700,38.02612384
9.3750,38.3489385
9.3800,38.66963727
9.3850,38.98806884
9.3900,39.30453638
9.3950,39.6186986
9.4000,39.93078746
9.4050,40.24067807
9.4100,40.5481102
9.4150,40.85332764
9.4200,41.15619549
9.4250,41.45642445
9.4300,41.75400064
9.4350,42.04904901
9.4400,42.34154392
9.4450,42.63143908
9.4500,42.91879955
9.4550,43.20307739
9.4600,43.48440288
9.4650,43.76262799
9.4700,44.03796157
9.4750,44.31019444
9.4800,44.57920805
9.4850,44.84475074
9.4900,45.10695923
9.4950,45.36576303
9.5000,45.6212147
9.5050,45.87340422
9.5100,46.12225979
9.5150,46.36790574
9.5200,46.61062305
9.5250,46.85067759
9.5300,47.08797209
9.5350,47.32282752
9.5400,47.55538863
9.5450,47.7856755
9.5500,48.01408114
9.5550,48.24022767
9.5600,48.4643523
9.5650,48.68695094
9.5700,48.9082243
9.5750,49.1281302
9.5800,49.3465472
9.5850,49.56315286
9.5900,49.77829847
9.5950,49.99171018
9.6000,50.20307308
9.6050,50.41228029
9.6100,50.61895222
9.6150,50.8229619
9.6200,51.02416076
9.6250,51.22237212
9.6300,51.41757727
9.6350,51.609642
9.6400,51.79892414
9.6450,51.98535369
9.6500,52.16928945
9.6550,52.35090233
9.6600,52.52999173
9.6650,52.70669634
9.6700,52.88153659
9.6750,53.05443435
9.6800,53.22547056
9.6850,53.39496058
9.6900,53.56307567
9.6950,53.73017907
9.7000,53.89626657
9.7050,54.06177038
9.7100,54.22678021
9.7150,54.39129568
9.7200,54.55533988
9.7250,54.71907253
9.7300,54.88232982
9.7350,55.04471483
9.7400,55.20600394
9.7450,55.36652373
9.7500,55.52593259
9.7550,55.68457197
9.7600,55.84240982
9.7650,55.9994447
9.7700,56.15600628
9.7750,56.31200414
9.7800,56.46770211
9.7850,56.62304826
9.7900,56.77785989
9.7950,56.93249967
9.8000,57.08693422
9.8050,57.24112178
9.8100,57.39479249
9.8150,57.54772298
9.8200,57.70005398
9.8250,57.85145954
9.8300,58.00225866
9.8350,58.15228125
9.8400,58.30120016
9.8450,58.44904741
9.8500,58.59587363
9.8550,58.74197593
9.8600,58.88751102
9.8650,59.03220508
9.8700,59.1757239
9.8750,59.31848768
9.8800,59.46033179
9.8850,59.60132277
9.8900,59.74118799
9.8950,59.88036333
9.9000,60.0187697
9.9050,60.15640295
9.9100,60.29325819
9.9150,60.42953423
9.9200,60.5648635
9.9250,60.69938912
9.9300,60.83267457
9.9350,60.964847
9.9400,61.0955913
9.9450,61.22518452
9.9500,61.35348405
9.9550,61.48008835
9.9600,61.60517401
9.9650,61.7284316
9.9700,61.84994698
9.9750,61.96987505
9.9800,62.08810157
9.9850,62.20468529
9.9900,62.31932732
9.9950,62.43189533
10.0000,62.54250752
10.0050,62.65113382
10.0100,62.75796921
10.0150,62.86283781
10.0200,62.96583531
10.0250,63.0669645
10.0300,63.16626713
10.0350,63.26382499
10.0400,63.35969498
10.0450,63.45365725
10.0500,63.54585042
10.0550,63.63611434
10.0600,63.72443817
10.0650,63.81078223
10.0700,63.8950762
10.0750,63.97733728
10.0800,64.05767844
10.0850,64.13587982
10.0900,64.21195792
10.0950,64.28559253
10.1000,64.35684093
10.1050,64.42601193
10.1100,64.49328757
10.1150,64.5587634
10.1200,64.6225695
10.1250,64.68485228
10.1300,64.74544348
10.1350,64.80415013
10.1400,64.86098339
10.1450,64.91606618
10.1500,64.96928183
10.1550,65.02060007
10.1600,65.07050144
10.1650,65.11908294
10.1700,65.16658498
10.1750,65.21298659
10.1800,65.25828149
10.1850,65.30271131
10.1900,65.34622359
10.1950,65.38884417
10.2000,65.43103138
10.2050,65.47301141
10.2100,65.51505939
10.2150,65.55733768
10.2200,65.59992041
10.2250,65.64284557
10.2300,65.68655181
10.2350,65.73092582
10.2400,65.77623674
10.2450,65.82244033
10.2500,65.8697395
10.2550,65.91831991
10.2600,65.96803283
10.2650,66.01907523
10.2700,66.07136047
10.2750,66.12467312
10.2800,66.17920122
10.2850,66.23493683
10.2900,66.29185215
10.2950,66.35016753
10.3000,66.40946407
10.3050,66.46967651
10.3100,66.53055327
10.3150,66.59205877
10.3200,66.65400684
10.3250,66.71611649
10.3300,66.77838253
10.3350,66.84116335
10.3400,66.90392067
10.3450,66.96679586
10.3500,67.0291929
10.3550,67.09093962
10.3600,67.15191628
10.3650,67.21214766
10.3700,67.27111454
10.3750,67.32861606
10.3800,67.38437111
10.3850,67.43853457
10.3900,67.49110481
10.3950,67.54190014
10.4000,67.59075148
10.4050,67.63746116
10.4100,67.68184296
10.4150,67.72388531
10.4200,67.7634973
10.4250,67.80049453
10.4300,67.8350711
10.4350,67.86753135
10.4400,67.89807626
10.4450,67.92672442
10.4500,67.95344511
10.4550,67.97859066
10.4600,68.00188866
10.4650,68.02312164
10.4700,68.04242749
10.4750,68.05982954
10.4800,68.07590212
10.4850,68.09048714
10.4900,68.10413864
10.4950,68.11658005
10.5000,68.12744342
10.5050,68.1368207
10.5100,68.14481584
10.5150,68.15168629
10.5200,68.15764881
10.5250,68.16304546
10.5300,68.16799988
10.5350,68.17255477
10.5400,68.17696657
10.5450,68.1811318
10.5500,68.18505648
10.5550,68.18870329
10.5600,68.19260884
10.5650,68.1971444
10.5700,68.2022219
10.5750,68.20826185
10.5800,68.21485207
10.5850,68.22214465
10.5900,68.23043423
10.5950,68.23985368
10.6000,68.25067916
10.6050,68.26282285
10.6100,68.27653716
10.6150,68.29181133
10.6200,68.30846805
10.6250,68.32677568
10.6300,68.34632087
10.6350,68.36698359
10.6400,68.38883809
10.6450,68.41185225
10.6500,68.43638889
10.6550,68.46239648
10.6600,68.48964438
10.6650,68.5180835
10.6700,68.54773923
10.6750,68.57852507
10.6800,68.61033827
10.6850,68.64282669
10.6900,68.67598944
10.6950,68.70969079
10.7000,68.74375349
10.7050,68.77791949
10.7100,68.81207897
10.7150,68.84609496
10.7200,68.87973826
10.7250,68.91305002
10.7300,68.94579572
10.7350,68.97799903
10.7400,69.00985111
10.7450,69.04141399
10.7500,69.07255159
10.7550,69.10309693
10.7600,69.13294911
10.7650,69.16233248
10.7700,69.19121454
10.7750,69.21969367
10.7800,69.24750271
10.7850,69.27477769
10.7900,69.30140007
10.7950,69.32753717
10.8000,69.35364282
10.8050,69.37949065
10.8100,69.40500212
10.8150,69.42981995
10.8200,69.45413194
10.8250,69.47740563
10.8300,69.4995068
10.8350,69.52058969
10.8400,69.54045754
10.8450,69.55936813
10.8500,69.57727851
10.8550,69.59410487
10.8600,69.60941915
10.8650,69.62299784
10.8700,69.63522574
10.8750,69.64602107
10.8800,69.65585704
10.8850,69.66449113
10.8900,69.6717737
10.8950,69.67763927
10.9000,69.68203309
10.9050,69.68479567
10.9100,69.68592351
10.9150,69.68541824
10.9200,69.68333929
10.9250,69.67950111
10.9300,69.67382285
10.9350,69.66617624
10.9400,69.65669063
10.9450,69.64519872
10.9500,69.6313872
10.9550,69.61555384
10.9600,69.5978002
10.9650,69.57818533
10.9700,69.55687854
10.9750,69.53395447
10.9800,69.50919255
10.9850,69.4829316
10.9900,69.45486173
10.9950,69.42522624
11.0000,69.39377052
11.0050,69.36085443
11.0100,69.32648111
11.0150,69.29085314
11.0200,69.253696
11.0250,69.21522271
11.0300,69.17564091
11.0350,69.13473312
11.0400,69.09247645
11.0450,69.04874751
11.0500,69.00397605
11.0550,68.9579458
11.0600,68.91085525
11.0650,68.86296874
11.0700,68.81405153
11.0750,68.76424232
11.0800,68.71333289
11.0850,68.66133418
11.0900,68.60809128
11.0950,68.55376641
11.1000,68.49834287
11.1050,68.44210615
11.1100,68.3853091
11.1150,68.32791518
11.1200,68.26971057
11.1250,68.21094028
11.1300,68.15174499
11.1350,68.09204967
11.1400,68.03163453
11.1450,67.9701414
11.1500,67.90758393
11.1550,67.84416191
11.1600,67.77995305
11.1650,67.71486886
11.1700,67.64864803
11.1750,67.5812827
11.1800,67.5129834
11.1850,67.44388517
11.1900,67.3740051
11.1950,67.30302473
11.2000,67.23105135
11.2050,67.15795956
11.2100,67.08352657
11.2150,67.00784587
11.2200,66.9309829
11.2250,66.85276434
11.2300,66.77349987
11.2350,66.69322403
11.2400,66.61171911
11.2450,66.5291656
11.2500,66.44560249
11.2550,66.36064875
11.2600,66.27434641
11.2650,66.18655531
11.2700,66.09738039
11.2750,66.00693037
11.2800,65.91526078
11.2850,65.8223125
11.2900,65.72850322
11.2950,65.63343328
11.3000,65.53739264
11.3050,65.43982133
11.3100,65.34072868
11.3150,65.2400651
11.3200,65.13782927
11.3250,65.03380752
11.3300,64.92765911
11.3350,64.81969404
11.3400,64.70974456
11.3450,64.59798621
11.3500,64.48393811
11.3550,64.36779825
11.3600,64.24926986
11.3650,64.12786502
11.3700,64.00404634
11.3750,63.87771088
11.3800,63.74906253
11.3850,63.61812069
11.3900,63.48474955
11.3950,63.34877575
11.4000,63.21033093
11.4050,63.06938764
11.4100,62.92552362
11.4150,62.77882399
11.4200,62.62896952
11.4250,62.47601906
11.4300,62.31962484
11.4350,62.15976108
11.4400,61.99659734
11.4450,61.83022463
11.4500,61.66068025
11.4550,61.48795538
11.4600,61.31187816
11.4650,61.1326645
11.4700,60.95008062
11.4750,60.76385668
11.4800,60.57387251
11.4850,60.38014926
11.4900,60.18275841
11.4950,59.9815425
11.5000,59.7761018
11.5050,59.56655566
11.5100,59.35277725
11.5150,59.13470048
11.5200,58.91224495
11.5250,58.68579857
11.5300,58.45540932
11.5350,58.22087774
11.5400,57.98242837
11.5450,57.74014177
11.5500,57.49429685
11.5550,57.24457603
11.5600,56.99096906
11.5650,56.7329566
11.5700,56.47057011
11.5750,56.20382845
11.5800,55.93280858
11.5850,55.65764557
11.5900,55.37802737
11.5950,55.0943204
11.6000,54.80653627
11.6050,54.51498059
11.6100,54.21989618
11.6150,53.9209904
11.6200,53.6185752
11.6250,53.31272131
11.6300,53.00338954
11.6350,52.69026398
11.6400,52.37278812
11.6450,52.05089018
11.6500,51.72461874
11.6550,51.39422736
11.6600,51.05977679
11.6650,50.72187237
11.6700,50.38022646
11.6750,50.03480218
11.6800,49.68573068
11.6850,49.33320398
11.6900,48.97753246
11.6950,48.61883762
11.7000,48.25716445
11.7050,47.89230805
11.7100,47.52450331
11.7150,47.15412377
11.7200,46.78169673
11.7250,46.40673251
11.7300,46.02908964
11.7350,45.64871132
11.7400,45.26519002
11.7450,44.87869313
11.7500,44.48886579
11.7550,44.09541722
11.7600,43.69852856
11.7650,43.29772393
11.7700,42.89335023
11.7750,42.48537133
11.7800,42.07349281
11.7850,41.65744006
11.7900,41.23689801
11.7950,40.8125153
11.8000,40.38437885
11.8050,39.95235954
11.8100,39.51679003
11.8150,39.07715804
11.8200,38.63364135
11.8250,38.18615421
11.8300,37.73462398
11.8350,37.27894176
11.8400,36.81912667
11.8450,36.35507676
11.8500,35.88707646
11.8550,35.41567427
11.8600,34.94090821
11.8650,34.46356085
11.8700,33.98314422
11.8750,33.49987829
11.8800,33.01361775
11.8850,32.52428231
11.8900,32.03192563
11.8950,31.53678579
11.9000,31.03854405
11.9050,30.53776901
11.9100,30.03435396
11.9150,29.52855353
11.9200,29.02028877
11.9250,28.50993073
11.9300,27.99779159
11.9350,27.48390379
11.9400,26.96870565
11.9450,26.45217328
11.9500,25.93496782
11.9550,25.41681564
11.9600,24.89809677
11.9650,24.37878345
11.9700,23.85910572
11.9750,23.33914145
11.9800,22.81930253
11.9850,22.29975255
11.9900,21.78072241
11.9950,21.26226602
12.0000,20.74447562
12.0050,20.22699915
12.0100,19.71019862
12.0150,19.19361657
12.0200,18.67695741
12.0250,18.16063563
12.0300,17.64462614
12.0350,17.12893076
12.0400,16.61357345
12.0450,16.09853263
12.0500,15.58444001
12.0550,15.07113851
12.0600,14.55827369
12.0650,14.04619281
12.0700,13.53496794
12.0750,13.02509175
12.0800,12.51624693
12.0850,12.00863774
12.0900,11.50258495
12.0950,10.99785336
12.1000,10.4947612
12.1050,9.993262571
12.1100,9.49343984
12.1150,8.995732986
12.1200,8.500001014
12.1250,8.006341269
12.1300,7.514769415
12.1350,7.02580739
12.1400,6.539122908
12.1450,6.054576847
12.1500,5.572069948
12.1550,5.091750271
12.1600,4.613771913
12.1650,4.138183052
12.1700,3.665422729
12.1750,3.195521247
12.1800,2.728666394
12.1850,2.265111881
12.1900,1.805554797
12.1950,1.350031011
12.2000,0.8992038881
12.2050,0.4530843425
12.2100,0.01211067112
12.2150,-0.4236663843
12.2200,-0.8542688913
12.2250,-1.279999041
12.2300,-1.700899238
12.2350,-2.116721543
12.2400,-2.527597838
12.2450,-2.933410508
12.2500,-3.33445292
12.2550,-3.730808671
12.2600,-4.122587611
12.2650,-4.509965874
12.2700,-4.893033051
12.2750,-5.272093326
12.2800,-5.647434649
12.2850,-6.019294677
12.2900,-6.387850508
12.2950,-6.752808137
12.3000,-7.114240767
12.3050,-7.472097657
12.3100,-7.826653342
12.3150,-8.177852983
12.3200,-8.525610861
12.3250,-8.869900736
12.3300,-9.210533955
12.3350,-9.547831981
12.3400,-9.881540575
12.3450,-10.21179624
12.3500,-10.53864444
12.3550,-10.8618967
12.3600,-11.18129083
12.3650,-11.49680173
12.3700,-11.80845795
12.3750,-12.11672353
12.3800,-12.42149673
12.3850,-12.72304679
12.3900,-13.02139875
12.3950,-13.31660944
12.4000,-13.60879589
12.4050,-13.89763703
12.4100,-14.18330472
12.4150,-14.46596002
12.4200,-14.74541244
12.4250,-15.02159473
12.4300,-15.29460958
12.4350,-15.56468057
12.4400,-15.83144978
12.4450,-16.09469717
12.4500,-16.3542705
12.4550,-16.61020021
12.4600,-16.86259619
12.4650,-17.11135666
12.4700,-17.3566632
12.4750,-17.59816131
12.4800,-17.83553548
12.4850,-18.06914812
12.4900,-18.29907821
12.4950,-18.52582358
12.5000,-18.74915246
12.5050,-18.96921309
12.5100,-19.18611412
12.5150,-19.39981101
12.5200,-19.61046037
12.5250,-19.81792053
12.5300,-20.02189819
12.5350,-20.22212135
12.5400,-20.41888327
12.5450,-20.61194444
12.5500,-20.80165147
12.5550,-20.98790673
12.5600,-21.17089548
12.5650,-21.35063854
12.5700,-21.52722419
12.5750,-21.7004482
12.5800,-21.87039823
12.5850,-22.03697941
12.5900,-22.20026901
12.5950,-22.36080551
12.6000,-22.51857383
12.6050,-22.67364372
12.6100,-22.82595296
12.6150,-22.97545513
12.6200,-23.12226727
12.6250,-23.26677311
12.6300,-23.40891544
12.6350,-23.54906981
12.6400,-23.68737943
12.6450,-23.82388607
12.6500,-23.95884011
12.6550,-24.09237829
12.6600,-24.2247325
12.6650,-24.35576194
12.6700,-24.48551246
12.6750,-24.61363846
12.6800,-24.73999119
12.6850,-24.86452017
12.6900,-24.98697808
12.6950,-25.10745243
12.7000,-25.22575082
12.7050,-25.34192242
12.7100,-25.45594736
12.7150,-25.56779777
12.7200,-25.67753776
12.7250,-25.78538917
12.7300,-25.89112639
12.7350,-25.99481214
12.7400,-26.09690879
12.7450,-26.19716685
12.7500,-26.29564343
12.7550,-26.39239287
12.7600,-26.48723129
12.7650,-26.5805691
12.7700,-26.67214194
12.7750,-26.7622902
12.7800,-26.85129007
12.7850,-26.93879223
12.7900,-27.02519355
12.7950,-27.11020947
12.8000,-27.19416714
12.8050,-27.27728515
12.8100,-27.35972917
12.8150,-27.44156725
12.8200,-27.52254708
12.8250,-27.60262927
12.8300,-27.68175661
12.8350,-27.76033835
12.8400,-27.83820429
12.8450,-27.91549251
12.8500,-27.99176423
12.8550,-28.06732897
12.8600,-28.14203934
12.8650,-28.21579177
12.8700,-28.28872879
12.8750,-28.36071011
12.8800,-28.43189348
12.8850,-28.50231921
12.8900,-28.57220354
12.8950,-28.64126721
12.9000,-28.70948573
12.9050,-28.77675785
12.9100,-28.84350638
12.9150,-28.90947902
12.9200,-28.97478891
12.9250,-29.03927338
12.9300,-29.10302958
12.9350,-29.16599919
12.9400,-29.22797242
12.9450,-29.28900911
12.9500,-29.34914305
12.9550,-29.40807475
12.9600,-29.46600043
12.9650,-29.52297599
12.9700,-29.57902154
12.9750,-29.63420328
12.9800,-29.68859438
12.9850,-29.7421669
12.9900,-29.79502909
12.9950,-29.84701185
13.0000,-29.89780831
13.0050,-29.9475313
13.0100,-29.99594727
13.0150,-30.04331952
13.0200,-30.08932994
13.0250,-30.13401975
13.0300,-30.17763732
13.0350,-30.22003086
13.0400,-30.26093137
13.0450,-30.30060043
13.0500,-30.33910861
13.0550,-30.37636245
13.0600,-30.412396
13.0650,-30.44714293
13.0700,-30.48056049
13.0750,-30.51242828
13.0800,-30.5426249
13.0850,-30.57129165
13.0900,-30.59809742
13.0950,-30.62331038
13.1000,-30.64695983
13.1050,-30.66892095
13.1100,-30.68908472
13.1150,-30.70763345
13.1200,-30.72466874
13.1250,-30.74044124
13.1300,-30.75507316
13.1350,-30.76824934
13.1400,-30.77988149
13.1450,-30.79031946
13.1500,-30.79963872
13.1550,-30.80773584
13.1600,-30.81478222
13.1650,-30.82092879
13.1700,-30.82620837
13.1750,-30.83084348
13.1800,-30.83483825
13.1850,-30.83837346
13.1900,-30.84117925
13.1950,-30.84348025
13.2000,-30.84517516
13.2050,-30.84629447
13.2100,-30.8464914
13.2150,-30.84598692
13.2200,-30.84471821
13.2250,-30.84280716
13.2300,-30.84024388
13.2350,-30.83688845
13.2400,-30.83320081
13.2450,-30.82927101
13.2500,-30.82524728
13.2550,-30.8211715
13.2600,-30.81692961
13.2650,-30.81266435
13.2700,-30.80807111
13.2750,-30.80323334
13.2800,-30.79765653
13.2850,-30.79107879
13.2900,-30.78328493
13.2950,-30.77400356
13.3000,-30.76300755
13.3050,-30.74971083
13.3100,-30.73387994
13.3150,-30.7148021
13.3200,-30.69221872
13.3250,-30.66564161
13.3300,-30.63450846
13.3350,-30.59851931
13.3400,-30.55751449
13.3450,-30.51112163
13.3500,-30.45916912
13.3550,-30.40179496
13.3600,-30.33900733
13.3650,-30.27072958
13.3700,-30.19720289
13.3750,-30.11900722
13.3800,-30.03649916
13.3850,-29.9500474
13.3900,-29.8602992
13.3950,-29.7674173
13.4000,-29.67209332
13.4050,-29.57480888
13.4100,-29.47627998
13.4150,-29.37691294
13.4200,-29.27719934
13.4250,-29.17759854
13.4300,-29.07864268
13.4350,-28.98087303
13.4400,-28.88468566
13.4450,-28.79039793
13.4500,-28.69830102
13.4550,-28.60873054
13.4600,-28.52178518
13.4650,-28.4377364
13.4700,-28.35649967
13.4750,-28.27814057
13.4800,-28.20260659
13.4850,-28.12974108
13.4900,-28.05954848
13.4950,-27.99193711
13.5000,-27.92687082
13.5050,-27.86441967
13.5100,-27.8046295
13.5150,-27.74742602
13.5200,-27.69270997
13.5250,-27.64037361
13.5300,-27.59028608
13.5350,-27.54259305
13.5400,-27.49707657
13.5450,-27.45355653
13.5500,-27.41178213
13.5550,-27.37182021
13.5600,-27.33359592
13.5650,-27.29701078
13.5700,-27.26232352
13.5750,-27.22936225
13.5800,-27.1985457
13.5850,-27.16990185
13.5900,-27.1433432
13.5950,-27.1187804
13.6000,-27.09610678
13.6050,-27.07533666
13.6100,-27.0563833
13.6150,-27.0390491
13.6200,-27.02349662
13.6250,-27.00927015
13.6300,-26.99649275
13.6350,-26.98494398
13.6400,-26.97447011
13.6450,-26.96489687
13.6500,-26.95613307
13.6550,-26.94759876
13.6600,-26.93907612
13.6650,-26.93063398
13.6700,-26.92209531
13.6750,-26.91303668
13.6800,-26.90337627
13.6850,-26.89284873
13.6900,-26.88132066
13.6950,-26.86863833
13.7000,-26.85463901
13.7050,-26.83916878
13.7100,-26.82183787
13.7150,-26.80242199
13.7200,-26.78066459
13.7250,-26.75639593
13.7300,-26.72951231
13.7350,-26.6997942
13.7400,-26.66714965
13.7450,-26.63132103
13.7500,-26.59240285
13.7550,-26.55032681
13.7600,-26.50509309
13.7650,-26.45668763
13.7700,-26.40514004
13.7750,-26.35039402
13.7800,-26.29279472
13.7850,-26.23229415
13.7900,-26.16930752
13.7950,-26.10394313
13.8000,-26.0362267
13.8050,-25.96650092
13.8100,-25.89464262
13.8150,-25.82083716
13.8200,-25.74523623
13.8250,-25.66794519
13.8300,-25.58909913
13.8350,-25.50872224
13.8400,-25.42678266
13.8450,-25.34326367
13.8500,-25.25827485
13.8550,-25.17197668
13.8600,-25.08406314
13.8650,-24.99459617
13.8700,-24.90348836
13.8750,-24.81062784
13.8800,-24.71612383
13.8850,-24.61973961
13.8900,-24.52164628
13.8950,-24.42191938
13.9000,-24.32073654
13.9050,-24.21816237
13.9100,-24.11426388
13.9150,-24.00945917
13.9200,-23.90344621
13.9250,-23.79647715
13.9300,-23.68854831
13.9350,-23.57982124
13.9400,-23.47037965
13.9450,-23.36013946
13.9500,-23.2491863
13.9550,-23.13775322
13.9600,-23.02591531
13.9650,-22.91355397
13.9700,-22.80045726
13.9750,-22.68684959
13.9800,-22.5726071
13.9850,-22.45778756
13.9900,-22.34233686
13.9950,-22.22642325
14.0000,-22.10989251
14.0050,-21.99269828
14.0100,-21.87505615
14.0150,-21.75716446
14.0200,-21.63903123
14.0250,-21.52057077
14.0300,-21.4017928
14.0350,-21.28293856
14.0400,-21.16392129
14.0450,-21.04482862
14.0500,-20.92539447
14.0550,-20.80569454
14.0600,-20.68583428
14.0650,-20.56571545
14.0700,-20.44542229
14.0750,-20.32516487
14.0800,-20.20463981
14.0850,-20.0838834
14.0900,-19.96279887
14.0950,-19.84132632
14.1000,-19.71963603
14.1050,-19.59726672
14.1100,-19.47394476
14.1150,-19.3497042
14.1200,-19.22413777
14.1250,-19.09716355
14.1300,-18.96885446
14.1350,-18.8388991
14.1400,-18.7073849
14.1450,-18.57437036
14.1500,-18.43987794
14.1550,-18.30369924
14.1600,-18.16631143
14.1650,-18.0273601
14.1700,-17.88670442
14.1750,-17.74442671
14.1800,-17.60019287
14.1850,-17.4542411
14.1900,-17.30646298
14.1950,-17.15699919
14.2000,-17.00576754
14.2050,-16.85280947
14.2100,-16.69825569
14.2150,-16.54187002
14.2200,-16.38379203
14.2250,-16.2243484
14.2300,-16.06350459
14.2350,-15.90158165
14.2400,-15.73872648
14.2450,-15.57515588
14.2500,-15.4106954
14.2550,-15.24531492
14.2600,-15.07891328
14.2650,-14.91140284
14.2700,-14.74303264
14.2750,-14.57361865
14.2800,-14.40298699
14.2850,-14.23131633
14.2900,-14.05848497
14.2950,-13.88461127
14.3000,-13.70944027
14.3050,-13.53295702
14.3100,-13.35487345
14.3150,-13.17500919
14.3200,-12.99329686
14.3250,-12.80976601
14.3300,-12.6243326
14.3350,-12.4367893
14.3400,-12.24718799
14.3450,-12.05541918
14.3500,-11.86156356
14.3550,-11.66539798
14.3600,-11.46676309
14.3650,-11.2655405
14.3700,-11.06171944
14.3750,-10.85504535
14.3800,-10.64570414
14.3850,-10.43360552
14.3900,-10.21825712
14.3950,-9.999473775
14.4000,-9.776710538
14.4050,-9.549827512
14.4100,-9.318733397
14.4150,-9.083059068
14.4200,-8.84286045
14.4250,-8.597856827
14.4300,-8.347645033
14.4350,-8.092498814
14.4400,-7.832415104
14.4450,-7.567030028
14.4500,-7.296392298
14.4550,-7.020060693
14.4600,-6.738226554
14.4650,-6.450769666
14.4700,-6.157901062
14.4750,-5.859512756
14.4800,-5.555991397
14.4850,-5.247176975
14.4900,-4.933156795
14.4950,-4.613847822
14.5000,-4.28941424
14.5050,-3.959924446
14.5100,-3.625598292
14.5150,-3.286520405
14.5200,-2.943156523
14.5250,-2.595214223
14.5300,-2.24272438
14.5350,-1.885377708
14.5400,-1.522964023
14.5450,-1.155630299
14.5500,-0.7834300037
14.5550,-0.4065781779
14.5600,-0.02511227449
14.5650,0.3608426917
14.5700,0.7510262316
14.5750,1.145388194
14.5800,1.543592676
14.5850,1.945802093
14.5900,2.351787293
14.5950,2.761687622
14.6000,3.17543791
14.6050,3.592744923
14.6100,4.013501106
14.6150,4.43762194
14.6200,4.864630947
14.6250,5.294423548
14.6300,5.726920349
14.6350,6.162097017
14.6400,6.599885661
14.6450,7.040250538
14.6500,7.483276589
14.6550,7.928722783
14.6600,8.37632306
14.6650,8.826070637
14.6700,9.277926397
14.6750,9.731899012
14.6800,10.1881397
14.6850,10.64646078
14.6900,11.10684973
14.6950,11.56971693
14.7000,12.03461946
14.7050,12.50176506
14.7100,12.9709203
14.7150,13.44226335
14.7200,13.91584552
14.7250,14.3915956
14.7300,14.86951827
14.7350,15.34937196
14.7400,15.83154385
14.7450,16.31559808
14.7500,16.80183309
14.7550,17.28962508
14.7600,17.77930993
14.7650,18.27058321
14.7700,18.76333559
14.7750,19.25749876
14.7800,19.75291754
14.7850,20.24945487
14.7900,20.74711752
14.7950,21.24571405
14.8000,21.74544815
14.8050,22.24619245
14.8100,22.74824877
14.8150,23.25145562
14.8200,23.75628981
14.8250,24.26261406
14.8300,24.77033471
14.8350,25.27953827
14.8400,25.78966894
14.8450,26.30084535
14.8500,26.81277158
14.8550,27.32558944
14.8600,27.83903904
14.8650,28.35319486
14.8700,28.8679663
14.8750,29.38335779
14.8800,29.89958921
14.8850,30.41648571
14.8900,30.93391784
14.8950,31.45176476
14.9000,31.9703434
14.9050,32.48939637
14.9100,33.00880418
14.9150,33.52884207
14.9200,34.04950406
14.9250,34.57121154
14.9300,35.09406458
14.9350,35.61826973
14.9400,36.14382068
14.9450,36.6708038
14.9500,37.19913954
14.9550,37.72868679
14.9600,38.25921513
14.9650,38.79013858
14.9700,39.32115878
14.9750,39.85167187
14.9800,40.38113012
14.9850,40.9086307
14.9900,41.43406299
14.9950,41.95668853
15.0000,42.47619078
15.0050,42.99235484
15.0100,43.50406987
15.0150,44.01154901
15.0200,44.5140469
15.0250,45.01107865
15.0300,45.50208029
15.0350,45.98669124
15.0400,46.46446856
15.0450,46.93536367
15.0500,47.39947469
15.0550,47.85684832
15.0600,48.30741821
15.0650,48.75158774
15.0700,49.18917306
15.0750,49.62008036
15.0800,50.04457027
15.0850,50.46276275
15.0900,50.87447188
15.0950,51.28033014
15.1000,51.68047808
15.1050,52.07536889
15.1100,52.46482197
15.1150,52.84851073
15.1200,53.22581523
15.1250,53.59655053
15.1300,53.96086482
15.1350,54.31888784
15.1400,54.67113657
15.1450,55.01807237
15.1500,55.35945903
15.1550,55.69508012
15.1600,56.0247508
15.1650,56.34793538
15.1700,56.66443715
15.1750,56.97375525
15.1800,57.27559816
15.1850,57.57005991
15.1900,57.85742801
15.1950,58.13808308
15.2000,58.41203797
15.2050,58.67980555
15.2100,58.94148106
15.2150,59.1968796
15.2200,59.44598891
15.2250,59.68873517
15.2300,59.92493401
15.2350,60.15458425
15.2400,60.3778203
15.2450,60.59466471
15.2500,60.80481105
15.2550,61.00857624
15.2600,61.20578798
15.2650,61.39646489
15.2700,61.58062609
15.2750,61.75834906
15.2800,61.92955018
15.2850,62.0947985
15.2900,62.2542076
15.2950,62.40834954
15.3000,62.55731672
15.3050,62.70110012
15.3100,62.84028019
15.3150,62.97472869
15.3200,63.10492475
15.3250,63.23130274
15.3300,63.35439198
15.3350,63.47476378
15.3400,63.59314132
15.3450,63.71000419
15.3500,63.82543081
15.3550,63.93973227
15.3600,64.05333807
15.3650,64.166223
15.3700,64.27877258
15.3750,64.39124265
15.3800,64.50427827
15.3850,64.61772675
15.3900,64.7316178
15.3950,64.84598879
15.4000,64.96082656
15.4050,65.07616154
15.4100,65.19199776
15.4150,65.30844304
15.4200,65.42582592
15.4250,65.54450502
15.4300,65.66467385
15.4350,65.78640128
15.4400,65.90981798
15.4450,66.03473253
15.4500,66.16126027
15.4550,66.28973093
15.4600,66.42003385
15.4650,66.55235661
15.4700,66.68679805
15.4750,66.82315585
15.4800,66.96139024
15.4850,67.10131672
15.4900,67.24237732
15.4950,67.38419928
15.5000,67.52618624
15.5050,67.6682195
15.5100,67.80981592
15.5150,67.9504297
15.5200,68.08974559
15.5250,68.22697742
15.5300,68.36212724
15.5350,68.49486329
15.5400,68.62518641
15.5450,68.75253479
15.5500,68.87657977
15.5550,68.9971549
15.5600,69.11437508
15.5650,69.22789117
15.5700,69.33755783
15.5750,69.44300356
15.5800,69.54432153
15.5850,69.64145363
15.5900,69.73457753
15.5950,69.82350756
15.6000,69.90847519
15.6050,69.98945301
15.6100,70.06700275
15.6150,70.14142778
15.6200,70.21271609
15.6250,70.28116947
15.6300,70.34661303
15.6350,70.40902887
15.6400,70.4682833
15.6450,70.52428462
15.6500,70.5771187
15.6550,70.62719128
15.6600,70.67417996
15.6650,70.71822374
15.6700,70.75923275
15.6750,70.79744285
15.6800,70.83274403
15.6850,70.86558777
15.6900,70.89634833
15.6950,70.92499909
15.7000,70.95151578
15.7050,70.97583644
15.7100,70.99808377
15.7150,71.01845472
15.7200,71.03705825
15.7250,71.05418587
15.7300,71.06993427
15.7350,71.08460093
15.7400,71.09790505
15.7450,71.11015864
15.7500,71.12143355
15.7550,71.13171205
15.7600,71.14151211
15.7650,71.15079941
15.7700,71.15969579
15.7750,71.16861102
15.7800,71.17750007
15.7850,71.18675197
15.7900,71.19665126
15.7950,71.20723758
15.8000,71.218954
15.8050,71.23159967
15.8100,71.24555248
15.8150,71.26102446
15.8200,71.27785232
15.8250,71.2967189
15.8300,71.31776672
15.8350,71.34122009
15.8400,71.36702362
15.8450,71.39509514
15.8500,71.42583198
15.8550,71.458956
15.8600,71.49450006
15.8650,71.53263491
15.8700,71.57309466
15.8750,71.61582571
15.8800,71.6607755
15.8850,71.70793348
15.8900,71.7569494
15.8950,71.80746874
15.9000,71.8593934
15.9050,71.91296694
15.9100,71.96770402
15.9150,72.02295211
15.9200,72.07859367
15.9250,72.13451246
15.9300,72.19056329
15.9350,72.24674816
15.9400,72.30297242
15.9450,72.35906035
15.9500,72.4146008
15.9550,72.46926385
15.9600,72.5227705
15.9650,72.57452037
15.9700,72.62407906
15.9750,72.67098404
15.9800,72.71466905
15.9850,72.75478423
15.9900,72.79077082
15.9950,72.82192702
16.0000,72.84786823
16.0050,72.86855481
16.0100,72.88344457
16.0150,72.89186665
16.0200,72.89361591
16.0250,72.88785612
16.0300,72.87443372
16.0350,72.8531048
16.0400,72.82383879
16.0450,72.78679205
16.0500,72.74203007
16.0550,72.68932595
16.0600,72.62871683
16.0650,72.56087127
16.0700,72.48617949
16.0750,72.4049476
16.0800,72.3179659
16.0850,72.22579344
16.0900,72.12886974
16.0950,72.02793547
16.1000,71.92324412
16.1050,71.8153266
16.1100,71.70435244
16.1150,71.5910838
16.1200,71.476393
16.1250,71.36059875
16.1300,71.24404688
16.1350,71.12735641
16.1400,71.01116788
16.1450,70.89622539
16.1500,70.78254834
16.1550,70.67075633
16.1600,70.56110949
16.1650,70.45366261
16.1700,70.34888163
16.1750,70.24689663
16.1800,70.14775501
16.1850,70.05178348
16.1900,69.9590119
16.1950,69.86984669
16.2000,69.78434346
16.2050,69.70255981
16.2100,69.62463904
16.2150,69.55118251
16.2200,69.4822819
16.2250,69.41779537
16.2300,69.35758875
16.2350,69.30140845
16.2400,69.24909959
16.2450,69.20031946
16.2500,69.1550692
16.2550,69.11273847
16.2600,69.07334024
16.2650,69.03687633
16.2700,69.00364811
16.2750,68.97348755
16.2800,68.94690409
16.2850,68.92341974
16.2900,68.90304278
16.2950,68.88568025
16.3000,68.87106445
16.3050,68.85875919
16.3100,68.84873816
16.3150,68.84090455
16.3200,68.83505729
16.3250,68.83141237
16.3300,68.82985327
16.3350,68.83030902
16.3400,68.83262266
16.3450,68.83634631
16.3500,68.84144651
16.3550,68.84806071
16.3600,68.85610599
16.3650,68.86546946
16.3700,68.8758217
16.3750,68.88744977
16.3800,68.89988811
16.3850,68.91304477
16.3900,68.92663737
16.3950,68.94056774
16.4000,68.95473685
16.4050,68.96919385
16.4100,68.98400115
16.4150,68.99925575
16.4200,69.0148579
16.4250,69.03100877
16.4300,69.04769203
16.4350,69.06462421
16.4400,69.08142636
16.4450,69.09793972
16.4500,69.11405326
16.4550,69.12965264
16.4600,69.14462059
16.4650,69.15918172
16.4700,69.17307046
16.4750,69.18651849
16.4800,69.19954355
16.4850,69.21187263
16.4900,69.22346594
16.4950,69.23414714
16.5000,69.24380884
16.5050,69.25239789
16.5100,69.25991365
16.5150,69.26629614
16.5200,69.27117902
16.5250,69.27479052
16.5300,69.27731049
16.5350,69.27891704
16.5400,69.27974335
16.5450,69.27997665
16.5500,69.27966052
16.5550,69.27889697
16.5600,69.27752577
16.5650,69.2758972
16.5700,69.27369047
16.5750,69.27078072
16.5800,69.26668021
16.5850,69.26170792
16.5900,69.2556737
16.5950,69.2487471
16.6000,69.24098544
16.6050,69.23238738
16.6100,69.22289114
16.6150,69.2122542
16.6200,69.20044414
16.6250,69.187257
16.6300,69.17300728
16.6350,69.15750571
16.6400,69.14082761
16.6450,69.12328063
16.6500,69.10457121
16.6550,69.08493528
16.6600,69.06424432
16.6650,69.042277
16.6700,69.01909994
16.6750,68.99456052
16.6800,68.96877773
16.6850,68.94153127
16.6900,68.91293881
16.6950,68.88267432
16.7000,68.85087833
16.7050,68.81742611
16.7100,68.78252186
16.7150,68.74605277
16.7200,68.70782472
16.7250,68.66740769
16.7300,68.62481375
16.7350,68.58004565
16.7400,68.53292306
16.7450,68.48325316
16.7500,68.43128333
16.7550,68.37692193
16.7600,68.31993998
16.7650,68.26024811
16.7700,68.19810344
16.7750,68.13325225
16.7800,68.06584621
16.7850,67.99602407
16.7900,67.92394506
16.7950,67.84960983
16.8000,67.77339994
16.8050,67.69522947
16.8100,67.61501814
16.8150,67.53263839
16.8200,67.44839694
16.8250,67.36197394
16.8300,67.27311152
16.8350,67.18214
16.8400,67.08880886
16.8450,66.99333626
16.8500,66.89569579
16.8550,66.79620204
16.8600,66.69485451
16.8650,66.59158121
16.8700,66.48630203
16.8750,66.37930295
16.8800,66.27064121
16.8850,66.16029919
16.8900,66.04837198
16.8950,65.93479804
16.9000,65.81940682
16.9050,65.70254606
16.9100,65.5840932
16.9150,65.4646005
16.9200,65.34409495
16.9250,65.22273685
16.9300,65.10018713
16.9350,64.97655203
16.9400,64.85218046
16.9450,64.72674952
16.9500,64.60038882
16.9550,64.47327422
16.9600,64.34539988
16.9650,64.21675311
16.9700,64.08782576
16.9750,63.95831094
16.9800,63.82790896
16.9850,63.69650235
16.9900,63.56425475
16.9950,63.43137618
17.0000,63.29775024
17.0050,63.16346469
17.0100,63.02818023
17.0150,62.89155416
17.0200,62.75378229
17.0250,62.61481031
17.0300,62.47466352
17.0350,62.3331423
17.0400,62.19038708
17.0450,62.04643832
17.0500,61.90110945
17.0550,61.75450843
17.0600,61.60687227
17.0650,61.45773847
17.0700,61.30708177
17.0750,61.15509304
17.0800,61.00141497
17.0850,60.84565287
17.0900,60.68788951
17.0950,60.52803379
17.1000,60.36590405
17.1050,60.20170286
17.1100,60.03537852
17.1150,59.86710569
17.1200,59.69672428
17.1250,59.52422714
17.1300,59.34995452
17.1350,59.17332609
17.1400,58.99461036
17.1450,58.8132548
17.1500,58.62914634
17.1550,58.44158092
17.1600,58.25073771
17.1650,58.05601084
17.1700,57.85796432
17.1750,57.65655095
17.1800,57.45165282
17.1850,57.24281791
17.1900,57.03012977
17.1950,56.81360136
17.2000,56.59354036
17.2050,56.36934476
17.2100,56.14123213
17.2150,55.9087731
17.2200,55.6719567
17.2250,55.43066818
17.2300,55.18490829
17.2350,54.93466207
17.2400,54.67992218
17.2450,54.42051751
17.2500,54.15690494
17.2550,53.88846998
17.2600,53.61535259
17.2650,53.33763757
17.2700,53.05457739
17.2750,52.76650262
17.2800,52.47375225
17.2850,52.17628454
17.2900,51.87384424
17.2950,51.56601749
17.3000,51.25298358
17.3050,50.93445474
17.3100,50.61104371
17.3150,50.28244872
17.3200,49.94879056
17.3250,49.61026721
17.3300,49.26673882
17.3350,48.91844136
17.3400,48.56562761
17.3450,48.20855378
17.3500,47.84690231
17.3550,47.48057816
17.3600,47.10950294
17.3650,46.73382267
17.3700,46.35348195
17.3750,45.96863229
17.3800,45.57934275
17.3850,45.18542292
17.3900,44.78650887
17.3950,44.38290479
17.4000,43.97448269
17.4050,43.56123639
17.4100,43.14323103
17.4150,42.72075697
17.4200,42.29375076
17.4250,41.86217773
17.4300,41.42581421
17.4350,40.98486127
17.4400,40.53907178
17.4450,40.08873401
17.4500,39.63372268
17.4550,39.17446352
17.4600,38.71054243
17.4650,38.2423272
17.4700,37.76912277
17.4750,37.29113696
17.4800,36.80780423
17.4850,36.31988586
17.4900,35.82693522
17.4950,35.3291808
17.5000,34.82600471
17.5050,34.3177966
17.5100,33.80403575
17.5150,33.28486328
17.5200,32.76032494
17.5250,32.23072756
17.5300,31.69617957
17.5350,31.15663075
17.5400,30.61168022
17.5450,30.06170014
17.5500,29.50629377
17.5550,28.94617218
17.5600,28.38085768
17.5650,27.81074945
17.5700,27.23614381
17.5750,26.65707795
17.5800,26.07359657
17.5850,25.48614662
17.5900,24.89497527
17.5950,24.30072072
17.6000,23.7030333
17.6050,23.1023587
17.6100,22.49883351
17.6150,21.89322556
17.6200,21.28555999
17.6250,20.67612074
17.6300,20.06548496
17.6350,19.4538151
17.6400,18.8412976
17.6450,18.22842388
17.6500,17.61576878
17.6550,17.00309522
17.6600,16.39081628
17.6650,15.77947279
17.6700,15.16924452
17.6750,14.56025418
17.6800,13.95292463
17.6850,13.34767343
17.6900,12.74492538
17.6950,12.14457903
17.7000,11.54678241
17.7050,10.95174336
17.7100,10.35985329
17.7150,9.771055623
17.7200,9.186037549
17.7250,8.604995286
17.7300,8.028368076
17.7350,7.456112442
17.7400,6.888698877
17.7450,6.326074402
17.7500,5.768169286
17.7550,5.215071949
17.7600,4.666879834
17.7650,4.124003985
17.7700,3.586515949
17.7750,3.054542128
17.7800,2.528524504
17.7850,2.007928246
17.7900,1.493008129
17.7950,0.9838041228
17.8000,0.4807599375
17.8050,-0.01628098115
17.8100,-0.5068925873
17.8150,-0.9912470553
17.8200,-1.46914709
17.8250,-1.940789738
17.8300,-2.406222492
17.8350,-2.865319107
17.8400,-3.317997653
17.8450,-3.764566087
17.8500,-4.204806594
17.8550,-4.639330417
17.8600,-5.067786433
17.8650,-5.490266044
17.8700,-5.907081193
17.8750,-6.318336313
17.8800,-6.724051863
17.8850,-7.123949742
17.8900,-7.517893738
17.8950,-7.905887485
17.9000,-8.287953099
17.9050,-8.664266863
17.9100,-9.035105616
17.9150,-9.40052302
17.9200,-9.760858001
17.9250,-10.1157742
17.9300,-10.465437
17.9350,-10.80984054
17.9400,-11.1486177
17.9450,-11.48154402
17.9500,-11.80844047
17.9550,-12.12907954
17.9600,-12.44334468
17.9650,-12.7513604
17.9700,-13.05334911
17.9750,-13.34930372
17.9800,-13.63919791
17.9850,-13.92307736
17.9900,-14.20097088
17.9950,-14.47303597
18.0000,-14.73910294
18.0050,-14.99924178
18.0100,-15.25356371
18.0150,-15.50232762
18.0200,-15.74577979
18.0250,-15.98377128
18.0300,-16.21648113
18.0350,-16.44397769
18.0400,-16.66671454
18.0450,-16.88486796
18.0500,-17.09846497
18.0550,-17.3080146
18.0600,-17.51358948
18.0650,-17.71612695
18.0700,-17.91562453
18.0750,-18.11245232
18.0800,-18.3065331
18.0850,-18.49763965
18.0900,-18.6859461
18.0950,-18.87127496
18.1000,-19.0538473
18.1050,-19.23404087
18.1100,-19.41185151
18.1150,-19.58782094
18.1200,-19.76229982
18.1250,-19.935456
18.1300,-20.10761561
18.1350,-20.27870859
18.1400,-20.44904195
18.1450,-20.61853668
18.1500,-20.78726734
18.1550,-20.95546064
18.1600,-21.1230116
18.1650,-21.28998991
18.1700,-21.45628984
18.1750,-21.62207035
18.1800,-21.78745363
18.1850,-21.95280102
18.1900,-22.11830353
18.1950,-22.28397936
18.2000,-22.44989259
18.2050,-22.61565085
18.2100,-22.78129478
18.2150,-22.94641182
18.2200,-23.11068835
18.2250,-23.27419384
18.2300,-23.43647508
18.2350,-23.59755167
18.2400,-23.75731827
18.2450,-23.91593235
18.2500,-24.07335713
18.2550,-24.22958579
18.2600,-24.38468779
18.2650,-24.53863914
18.2700,-24.69136941
18.2750,-24.84277804
18.2800,-24.99269347
18.2850,-25.14140221
18.2900,-25.28879801
18.2950,-25.43475832
18.3000,-25.57936306
18.3050,-25.72259567
18.3100,-25.8644954
18.3150,-26.00502205
18.3200,-26.1442512
18.3250,-26.28253738
18.3300,-26.41983796
18.3350,-26.55640585
18.3400,-26.69202018
18.3450,-26.82672923
18.3500,-26.96049977
18.3550,-27.09348332
18.3600,-27.22554412
18.3650,-27.35627463
18.3700,-27.4858382
18.3750,-27.61408718
18.3800,-27.74121663
18.3850,-27.86723878
18.3900,-27.99210861
18.3950,-28.11616288
18.4000,-28.2391229
18.4050,-28.36112958
18.4100,-28.48233579
18.4150,-28.60254467
18.4200,-28.72167498
18.4250,-28.83971228
18.4300,-28.95665758
18.4350,-29.07241385
18.4400,-29.1869818
18.4450,-29.30034991
18.4500,-29.41255538
18.4550,-29.52353096
18.4600,-29.63321547
18.4650,-29.74175961
18.4700,-29.84923408
18.4750,-29.9557222
18.4800,-30.06124019
18.4850,-30.16565125
18.4900,-30.26885674
18.4950,-30.37092153
18.5000,-30.47174231
18.5050,-30.57153297
18.5100,-30.67030212
18.5150,-30.76806486
18.5200,-30.86492453
18.5250,-30.96082422
18.5300,-31.05588683
18.5350,-31.15007555
18.5400,-31.24323261
18.5450,-31.33531268
18.5500,-31.42611741
18.5550,-31.51557152
18.5600,-31.60350588
18.5650,-31.68990003
18.5700,-31.7748064
18.5750,-31.85828011
18.5800,-31.94041197
18.5850,-32.02088221
18.5900,-32.09984937
18.5950,-32.17694249
18.6000,-32.25190955
18.6050,-32.32444862
18.6100,-32.3944601
18.6150,-32.46167881
18.6200,-32.5259271
18.6250,-32.58689198
18.6300,-32.64460506
18.6350,-32.69873193
18.6400,-32.74946797
18.6450,-32.79674913
18.6500,-32.84038724
18.6550,-32.88011943
18.6600,-32.91609975
18.6650,-32.94831746
18.6700,-32.976587
18.6750,-33.00118586
18.6800,-33.02201595
18.6850,-33.03915886
18.6900,-33.05274859
18.6950,-33.06305323
18.7000,-33.07057415
18.7050,-33.07552119
18.7100,-33.07805694
18.7150,-33.07863636
18.7200,-33.07764509
18.7250,-33.07529154
18.7300,-33.07189949
18.7350,-33.06779484
18.7400,-33.06350955
18.7450,-33.0593093
18.7500,-33.05570647
18.7550,-33.05298242
18.7600,-33.05183952
18.7650,-33.0526109
18.7700,-33.05566861
18.7750,-33.06126239
18.7800,-33.06966792
18.7850,-33.08107137
18.7900,-33.09573327
18.7950,-33.11359661
18.8000,-33.13458922
18.8050,-33.15852499
18.8100,-33.18526516
18.8150,-33.21497456
18.8200,-33.24720362
18.8250,-33.28175966
18.8300,-33.3184021
18.8350,-33.3570997
18.8400,-33.39774159
18.8450,-33.43991612
18.8500,-33.48362901
18.8550,-33.52833406
18.8600,-33.57357843
18.8650,-33.61881438
18.8700,-33.66338199
18.8750,-33.70658405
18.8800,-33.74764905
18.8850,-33.78602171
18.8900,-33.82084685
18.8950,-33.85172462
18.9000,-33.8782036
18.9050,-33.89967127
18.9100,-33.91580782
18.9150,-33.92632427
18.9200,-33.9309496
18.9250,-33.92950324
18.9300,-33.92181049
18.9350,-33.90790805
18.9400,-33.88772297
18.9450,-33.86135169
18.9500,-33.82911651
18.9550,-33.79129061
18.9600,-33.74814831
18.9650,-33.70023938
18.9700,-33.6482272
18.9750,-33.59256427
18.9800,-33.53384538
18.9850,-33.4727051
18.9900,-33.40951455
18.9950,-33.34459017
19.0000,-33.27829485
19.0050,-33.2111588
19.0100,-33.14360943
19.0150,-33.07572436
19.0200,-33.00791278
19.0250,-32.94050096
19.0300,-32.87362249
19.0350,-32.80768956
19.0400,-32.74270847
19.0450,-32.6790562
19.0500,-32.61670365
19.0550,-32.55586373
19.0600,-32.49650345
19.0650,-32.43885995
19.0700,-32.38283759
19.0750,-32.3282345
19.0800,-32.27511567
19.0850,-32.2235797
19.0900,-32.17348382
19.0950,-32.12476636
19.1000,-32.07742209
19.1050,-32.03156201
19.1100,-31.98698949
19.1150,-31.94358575
19.1200,-31.90158692
19.1250,-31.86102887
19.1300,-31.82195592
19.1350,-31.78425529
19.1400,-31.7480233
19.1450,-31.71344038
19.1500,-31.6802658
19.1550,-31.64880488
19.1600,-31.61941417
19.1650,-31.59195864
19.1700,-31.56669988
19.1750,-31.54380415
19.1800,-31.52330699
19.1850,-31.50528479
19.1900,-31.48986294
19.1950,-31.47689893
19.2000,-31.46646983
19.2050,-31.45852055
19.2100,-31.45272624
19.2150,-31.44886993
19.2200,-31.44642223
19.2250,-31.4448714
19.2300,-31.44381818
19.2350,-31.44290206
19.2400,-31.44173177
19.2450,-31.44018412
19.2500,-31.43772776
19.2550,-31.43415628
19.2600,-31.42929789
19.2650,-31.42299345
19.2700,-31.41501641
19.2750,-31.40485336
19.2800,-31.39262329
19.2850,-31.37836196
19.2900,-31.3620521
19.2950,-31.34372492
19.3000,-31.32346785
19.3050,-31.30104658
19.3100,-31.27655336
19.3150,-31.24988253
19.3200,-31.22104905
19.3250,-31.18996276
19.3300,-31.15680159
19.3350,-31.12163802
19.3400,-31.08429159
19.3450,-31.0446241
19.3500,-31.00271759
19.3550,-30.95832431
19.3600,-30.91149684
19.3650,-30.86195492
19.3700,-30.80978878
19.3750,-30.75494473
19.3800,-30.69745279
19.3850,-30.63745959
19.3900,-30.57491797
19.3950,-30.51026242
19.4000,-30.44346962
19.4050,-30.37474298
19.4100,-30.30445535
19.4150,-30.23273927
19.4200,-30.15975564
19.4250,-30.08551183
19.4300,-30.01022999
19.4350,-29.93398282
19.4400,-29.85679556
19.4450,-29.77874815
19.4500,-29.70019476
19.4550,-29.62096126
19.4600,-29.54125329
19.4650,-29.46122728
19.4700,-29.38094287
19.4750,-29.30058703
19.4800,-29.22029498
19.4850,-29.14007748
19.4900,-29.06011183
19.4950,-28.98034066
19.5000,-28.90066976
19.5050,-28.8212953
19.5100,-28.7421288
19.5150,-28.66335874
19.5200,-28.5850173
19.5250,-28.50769853
19.5300,-28.43121209
19.5350,-28.35553237
19.5400,-28.28087989
19.5450,-28.20679288
19.5500,-28.13361146
19.5550,-28.06129798
19.5600,-27.98954641
19.5650,-27.91820979
19.5700,-27.84713104
19.5750,-27.77656707
19.5800,-27.70614206
19.5850,-27.63553044
19.5900,-27.56449206
19.5950,-27.49293201
19.6000,-27.42038476
19.6050,-27.34670462
19.6100,-27.27140544
19.6150,-27.19449342
19.6200,-27.11563851
19.6250,-27.03488559
19.6300,-26.9518799
19.6350,-26.86624126
19.6400,-26.77804669
19.6450,-26.6874107
19.6500,-26.59402421
19.6550,-26.49799255
19.6600,-26.39897316
19.6650,-26.29677469
19.6700,-26.19147279
19.6750,-26.08341755
19.6800,-25.97265031
19.6850,-25.85903714
19.6900,-25.74286971
19.6950,-25.62404503
19.7000,-25.50275531
19.7050,-25.37881625
19.7100,-25.25240607
19.7150,-25.12369001
19.7200,-24.99268117
19.7250,-24.85979055
19.7300,-24.72487881
19.7350,-24.58805451
19.7400,-24.44945277
19.7450,-24.30905866
19.7500,-24.16689719
19.7550,-24.02306325
19.7600,-23.87734663
19.7650,-23.72989754
19.7700,-23.5806905
19.7750,-23.42964553
19.7800,-23.27679219
19.7850,-23.12230508
19.7900,-22.96593
19.7950,-22.80822839
19.8000,-22.64917163
19.8050,-22.48890488
19.8100,-22.32734372
19.8150,-22.16440267
19.8200,-22.00048592
19.8250,-21.83502487
19.8300,-21.66846984
19.8350,-21.5011181
19.8400,-21.33284633
19.8450,-21.16372235
19.8500,-20.99356277
19.8550,-20.82237634
19.8600,-20.65011798
19.8650,-20.47698709
19.8700,-20.30269187
19.8750,-20.12710718
19.8800,-19.94988469
19.8850,-19.77114229
19.8900,-19.59067542
19.8950,-19.40827377
19.9000,-19.22375538
19.9050,-19.03691662
19.9100,-18.84774397
19.9150,-18.65618069
19.9200,-18.46195157
19.9250,-18.26470683
19.9300,-18.0644469
19.9350,-17.86097492
19.9400,-17.65418491
19.9450,-17.44381935
19.9500,-17.22990249
19.9550,-17.01230916
19.9600,-16.79130414
19.9650,-16.56715868
19.9700,-16.33981708
19.9750,-16.10941121
19.9800,-15.87563574
19.9850,-15.63854834
19.9900,-15.39803006
19.9950,-15.15388541
20.0000,-14.9061099
20.0050,-14.65466272
20.0100,-14.39943421
20.0150,-14.14050112
20.0200,-13.87766207
20.0250,-13.61107729
20.0300,-13.34079654
20.0350,-13.06673979
20.0400,-12.78878375
20.0450,-12.50725419
20.0500,-12.22197103
20.0550,-11.93279577
20.0600,-11.64006267
20.0650,-11.34360736
20.0700,-11.04354459
20.0750,-10.73982818
20.0800,-10.43261873
20.0850,-10.12187532
20.0900,-9.807763466
20.0950,-9.490068183
20.1000,-9.168989758
20.1050,-8.844219585
20.1100,-8.51624655
20.1150,-8.184956733
20.1200,-7.850461773
20.1250,-7.513096649
20.1300,-7.172461265
20.1350,-6.828533461
20.1400,-6.481358555
20.1450,-6.13098952
20.1500,-5.777299949
20.1550,-5.420330053
20.1600,-5.060293833
20.1650,-4.696924993
20.1700,-4.330210761
20.1750,-3.960289351
20.1800,-3.587127183
20.1850,-3.21077686
20.1900,-2.831228863
20.1950,-2.448286602
20.2000,-2.06236997
20.2050,-1.673096197
20.2100,-1.280916273
20.2150,-0.8855056304
20.2200,-0.4871280304
20.2250,-0.08608336525
20.2300,0.3177129527
20.2350,0.7239761463
20.2400,1.132624108
20.2450,1.543494159
20.2500,1.956519392
20.2550,2.371592887
20.2600,2.788675824
20.2650,3.20774822
20.2700,3.628998834
20.2750,4.052829394
20.2800,4.479038188
20.2850,4.907453288
20.2900,5.338280136
20.2950,5.771517632
20.3000,6.207252848
20.3050,6.645346392
20.3100,7.085873225
20.3150,7.529313921
20.3200,7.975328638
20.3250,8.424398633
20.3300,8.87655676
20.3350,9.331422921
20.3400,9.789283188
20.3450,10.25032713
20.3500,10.71439011
20.3550,11.18149562
20.3600,11.65187801
20.3650,12.12535331
20.3700,12.60188632
20.3750,13.08152347
20.3800,13.56422612
20.3850,14.05004808
20.3900,14.53896405
20.3950,15.03114961
20.4000,15.52637898
20.4050,16.02482971
20.4100,16.52650996
20.4150,17.03114572
20.4200,17.53895257
20.4250,18.04985066
20.4300,18.56374876
20.4350,19.08073395
20.4400,19.60055716
20.4450,20.12334202
20.4500,20.64866461
20.4550,21.17673577
20.4600,21.70737063
20.4650,22.24015546
20.4700,22.77493789
20.4750,23.31172727
20.4800,23.85034401
20.4850,24.39052724
20.4900,24.93249616
20.4950,25.47573322
20.5000,26.02033194
20.5050,26.56588358
20.5100,27.11267465
20.5150,27.65997239
20.5200,28.20777666
20.5250,28.75612339
20.5300,29.30477603
20.5350,29.85342971
20.5400,30.40213632
20.5450,30.95067648
20.5500,31.49857591
20.5550,32.04538406
20.5600,32.5911676
20.5650,33.13570735
20.5700,33.67908859
20.5750,34.22079497
20.5800,34.76065217
20.5850,35.29832723
20.5900,35.83349353
20.5950,36.36568527
20.6000,36.89491299
20.6050,37.42087606
20.6100,37.94318221
20.6150,38.46116529
20.6200,38.97505208
20.6250,39.48465139
20.6300,39.98975319
20.6350,40.49027557
20.6400,40.98565668
20.6450,41.4761012
20.6500,41.9613501
20.6550,42.44119903
20.6600,42.91540716
20.6650,43.38390155
20.6700,43.84673826
20.6750,44.3033217
20.6800,44.75365963
20.6850,45.19733588
20.6900,45.63422743
20.6950,46.06404907
20.7000,46.48725099
20.7050,46.90353076
20.7100,47.31289554
20.7150,47.71526513
20.7200,48.11033825
20.7250,48.49843009
20.7300,48.87964028
20.7350,49.25385084
20.7400,49.62113274
20.7450,49.98121711
20.7500,50.33394999
20.7550,50.67914625
20.7600,51.01707108
20.7650,51.34788862
20.7700,51.67153313
20.7750,51.98830252
20.7800,52.29805922
20.7850,52.6006836
20.7900,52.89596517
20.7950,53.18379744
20.8000,53.46392629
20.8050,53.73651254
20.8100,54.00128093
20.8150,54.25860159
20.8200,54.50816544
20.8250,54.75001459
20.8300,54.98410815
20.8350,55.21055653
20.8400,55.42915297
20.8450,55.64025345
20.8500,55.84374341
20.8550,56.0402766
20.8600,56.23033109
20.8650,56.4139444
20.8700,56.59143909
20.8750,56.76320073
20.8800,56.92939883
20.8850,57.09023127
20.8900,57.24596477
20.8950,57.39725477
20.9000,57.54412363
20.9050,57.68697442
20.9100,57.82598764
20.9150,57.96166613
20.9200,58.09421904
20.9250,58.22408941
20.9300,58.35150498
20.9350,58.47665563
20.9400,58.59958684
20.9450,58.72032233
20.9500,58.83920429
20.9550,58.95668258
20.9600,59.07227452
20.9650,59.18652718
20.9700,59.29965438
20.9750,59.41192856
20.9800,59.52343714
20.9850,59.6347537
20.9900,59.74561503
20.9950,59.85641872
21.0000,59.96723992
21.0050,60.07806876
21.0100,60.18888136
21.0150,60.30003599
21.0200,60.41153252
21.0250,60.52358203
21.0300,60.6357141
21.0350,60.74824635
21.0400,60.86124816
21.0450,60.97465344
21.0500,61.08838006
21.0550,61.20265257
21.0600,61.3170581
21.0650,61.43165296
21.0700,61.54660735
21.0750,61.66149312
21.0800,61.77647275
21.0850,61.89153485
21.0900,62.00684689
21.0950,62.1224786
21.1000,62.238474
21.1050,62.35443098
21.1100,62.4703244
21.1150,62.58596935
21.1200,62.70117253
21.1250,62.81578208
21.1300,62.92959477
21.1350,63.04278055
21.1400,63.15529014
21.1450,63.26727405
21.1500,63.37879453
21.1550,63.48948866
21.1600,63.59901378
21.1650,63.70744939
21.1700,63.81455567
21.1750,63.92004971
21.1800,64.02390044
21.1850,64.1259931
21.1900,64.22655647
21.1950,64.32537059
21.2000,64.42217139
21.2050,64.51695165
21.2100,64.60985432
21.2150,64.70110884
21.2200,64.79050004
21.2250,64.87807488
21.2300,64.96383096
21.2350,65.04771217
21.2400,65.13004579
21.2450,65.2105842
21.2500,65.28979106
21.2550,65.36763475
21.2600,65.44469394
21.2650,65.52058314
21.2700,65.59557881
21.2750,65.66972867
21.2800,65.74320401
21.2850,65.81609738
21.2900,65.88860014
21.2950,65.96078575
21.3000,66.03276158
21.3050,66.10441483
21.3100,66.1760725
21.3150,66.2474474
21.3200,66.31876351
21.3250,66.38988927
21.3300,66.46103857
21.3350,66.5321044
21.3400,66.60321769
21.3450,66.67449024
21.3500,66.746081
21.3550,66.81803619
21.3600,66.89055296
21.3650,66.9640735
21.3700,67.03855225
21.3750,67.11407134
21.3800,67.19090448
21.3850,67.26921649
21.3900,67.34904245
21.3950,67.43048932
21.4000,67.51352833
21.4050,67.59829994
21.4100,67.68436673
21.4150,67.77159976
21.4200,67.8599627
21.4250,67.94948926
21.4300,68.04025587
21.4350,68.13184005
21.4400,68.22391298
21.4450,68.31616111
21.4500,68.40811235
21.4550,68.49932803
21.4600,68.58967929
21.4650,68.67914866
21.4700,68.76761402
21.4750,68.85505638
21.4800,68.9410184
21.4850,69.02510173
21.4900,69.10681866
21.4950,69.18606572
21.5000,69.26259704
21.5050,69.33649626
21.5100,69.40755846
21.5150,69.47558314
21.5200,69.54089274
21.5250,69.60315141
21.5300,69.66237711
21.5350,69.71886174
21.5400,69.77244151
21.5450,69.82332879
21.5500,69.87103344
21.5550,69.91546628
21.5600,69.95651331
21.5650,69.99429221
21.5700,70.02869024
21.5750,70.05971179
21.5800,70.08772023
21.5850,70.11284001
21.5900,70.1355055
21.5950,70.15555674
21.6000,70.17288669
21.6050,70.18771205
21.6100,70.19967065
21.6150,70.2090694
21.6200,70.21620686
21.6250,70.22148396
21.6300,70.2250741
21.6350,70.22721293
21.6400,70.22800396
21.6450,70.22770332
21.6500,70.22662377
21.6550,70.22501528
21.6600,70.22336192
21.6650,70.22161582
21.6700,70.22030048
21.6750,70.21940547
21.6800,70.21863263
21.6850,70.21803587
21.6900,70.21729282
21.6950,70.21658706
21.7000,70.21608428
21.7050,70.21588015
21.7100,70.21595656
21.7150,70.21613723
21.7200,70.21663722
21.7250,70.2173165
21.7300,70.21778512
21.7350,70.21814666
21.7400,70.2185699
21.7450,70.21849392
21.7500,70.21802481
21.7550,70.21729661
21.7600,70.21612651
21.7650,70.21410517
21.7700,70.21126778
21.7750,70.20779399
21.7800,70.20384146
21.7850,70.19975964
21.7900,70.19579566
21.7950,70.19200668
21.8000,70.18866867
21.8050,70.18553905
21.8100,70.18244635
21.8150,70.17948111
21.8200,70.17651715
21.8250,70.17393888
21.8300,70.17174813
21.8350,70.1694339
21.8400,70.16695061
21.8450,70.16432785
21.8500,70.16177087
21.8550,70.15939319
21.8600,70.15725249
21.8650,70.15540164
21.8700,70.15412508
21.8750,70.15326806
21.8800,70.15266872
21.8850,70.15223926
21.8900,70.15197791
21.8950,70.15210313
21.9000,70.15270968
21.9050,70.15399444
21.9100,70.15624788
21.9150,70.15961447
21.9200,70.16404685
21.9250,70.16946032
21.9300,70.17586002
21.9350,70.18319248
21.9400,70.1912458
21.9450,70.19997043
21.9500,70.20929767
21.9550,70.21917618
21.9600,70.22929315
21.9650,70.23962051
21.9700,70.2499492
21.9750,70.26065855
21.9800,70.27151184
21.9850,70.28277085
21.9900,70.29450855
21.9950,70.30646305
22.0000,70.31814435
22.0050,70.32948948
22.0100,70.34092194
22.0150,70.35267361
22.0200,70.36451202
22.0250,70.37613272
22.0300,70.38762381
22.0350,70.39872913
22.0400,70.40932332
22.0450,70.41974643
22.0500,70.43006757
22.0550,70.44003657
22.0600,70.44979367
22.0650,70.45926189
22.0700,70.46851959
22.0750,70.47717496
22.0800,70.48495278
22.0850,70.49185115
22.0900,70.49760381
22.0950,70.50210198
22.1000,70.505376
22.1050,70.50750503
22.1100,70.50884763
22.1150,70.50936825
22.1200,70.50920258
22.1250,70.5079825
22.1300,70.50563479
22.1350,70.50248479
22.1400,70.49857745
22.1450,70.49398123
22.1500,70.48870084
22.1550,70.48273161
22.1600,70.47596887
22.1650,70.46864595
22.1700,70.46036151
22.1750,70.45134687
22.1800,70.44172555
22.1850,70.4312934
22.1900,70.41996663
22.1950,70.40775937
22.2000,70.39482697
22.2050,70.38127288
22.2100,70.36728486
22.2150,70.35265986
22.2200,70.33747308
22.2250,70.32161046
22.2300,70.30506187
22.2350,70.2876567
22.2400,70.26942225
22.2450,70.25057914
22.2500,70.231007
22.2550,70.21079275
22.2600,70.18998177
22.2650,70.16844803
22.2700,70.14592682
22.2750,70.12224857
22.2800,70.09765454
22.2850,70.0718398
22.2900,70.04470286
22.2950,70.01630011
22.3000,69.98684522
22.3050,69.95622522
22.3100,69.92453131
22.3150,69.89143411
22.3200,69.85710447
22.3250,69.82178108
22.3300,69.78552623
22.3350,69.7484024
22.3400,69.71056939
22.3450,69.67198481
22.3500,69.63248393
22.3550,69.59213116
22.3600,69.55082413
22.3650,69.50858585
22.3700,69.4651295
22.3750,69.42065186
22.3800,69.37525466
22.3850,69.32899392
22.3900,69.2818338
22.3950,69.23378893
22.4000,69.18493226
22.4050,69.13537858
22.4100,69.08495319
22.4150,69.03348122
22.4200,68.98074004
22.4250,68.92676692
22.4300,68.87165126
22.4350,68.81547813
22.4400,68.75840048
22.4450,68.70000278
22.4500,68.64049084
22.4550,68.57975055
22.4600,68.51798162
22.4650,68.45495539
22.4700,68.39101147
22.4750,68.32623699
22.4800,68.26064831
22.4850,68.19423212
22.4900,68.12702676
22.4950,68.0589645
22.5000,67.98996303
22.5050,67.92005336
22.5100,67.84915842
22.5150,67.77708807
22.5200,67.70352381
22.5250,67.62846861
22.5300,67.55233744
22.5350,67.47514557
22.5400,67.39722173
22.5450,67.31820305
22.5500,67.23822725
22.5550,67.15719462
22.5600,67.07505794
22.5650,66.99161767
22.5700,66.90675385
22.5750,66.82032829
22.5800,66.73208159
22.5850,66.64220377
22.5900,66.55090593
22.5950,66.4580191
22.6000,66.36384155
22.6050,66.26821041
22.6100,66.1710501
22.6150,66.07244219
22.6200,65.97198049
22.6250,65.86953837
22.6300,65.76475434
22.6350,65.65761983
22.6400,65.54817036
22.6450,65.43659388
22.6500,65.32318343
22.6550,65.20787063
22.6600,65.0904556
22.6650,64.97084934
22.6700,64.84902413
22.6750,64.72461316
22.6800,64.59781414
22.6850,64.46884165
22.6900,64.33779196
22.6950,64.20485907
22.7000,64.06987773
22.7050,63.9324106
22.7100,63.79225967
22.7150,63.64906079
22.7200,63.50285333
22.7250,63.3536744
22.7300,63.20122478
22.7350,63.04519635
22.7400,62.88537716
22.7450,62.72217646
22.7500,62.55531415
22.7550,62.38481309
22.7600,62.2104762
22.7650,62.03197545
22.7700,61.84910188
22.7750,61.66157006
22.7800,61.46919798
22.7850,61.27188911
22.7900,61.06936239
22.7950,60.86190995
22.8000,60.64953283
22.8050,60.43213672
22.8100,60.20957976
22.8150,59.98197481
22.8200,59.74911483
22.8250,59.5112187
22.8300,59.2681832
22.8350,59.02034535
22.8400,58.76741326
22.8450,58.50933774
22.8500,58.24601761
22.8550,57.97701344
22.8600,57.70224845
22.8650,57.42210589
22.8700,57.13635991
22.8750,56.84508761
22.8800,56.54811667
22.8850,56.24501862
22.8900,55.9352769
22.8950,55.61907273
22.9000,55.29577133
22.9050,54.96548968
22.9100,54.62783643
22.9150,54.28302305
22.9200,53.93120745
22.9250,53.57235399
22.9300,53.20636913
22.9350,52.83317574
22.9400,52.45260684
22.9450,52.06446373
22.9500,51.66834188
22.9550,51.26456601
22.9600,50.85305106
22.9650,50.43362989
22.9700,50.00618372
22.9750,49.57091237
22.9800,49.12768867
22.9850,48.67588303
22.9900,48.21516861
22.9950,47.74510453
23.0000,47.26564745
23.0050,46.77693338
23.0100,46.27917549
23.0150,45.77285054
23.0200,45.25811689
23.0250,44.7348682
23.0300,44.20334429
23.0350,43.66361466
23.0400,43.11569254
23.0450,42.55962872
23.0500,41.99528812
23.0550,41.4227278
23.0600,40.84180399
23.0650,40.25273733
23.0700,39.65571443
23.0750,39.05106923
23.0800,38.43891652
23.0850,37.81965659
23.0900,37.19314045
23.0950,36.55917796
23.1000,35.91796587
23.1050,35.26988753
23.1100,34.61508616
23.1150,33.9537704
23.1200,33.28644701
23.1250,32.61351709
23.1300,31.93493171
23.1350,31.25103764
23.1400,30.5619487
23.1450,29.86819691
23.1500,29.16987354
23.1550,28.46796739
23.1600,27.76294948
23.1650,27.05493283
23.1700,26.34465371
23.1750,25.63209721
23.1800,24.91837175
23.1850,24.20368165
23.1900,23.48836673
23.1950,22.77290191
23.2000,22.05771906
23.2050,21.34359325
23.2100,20.63046295
23.2150,19.91885326
23.2200,19.20940874
23.2250,18.50246271
23.2300,17.79853731
23.2350,17.09747949
23.2400,16.39946707
23.2450,15.70509277
23.2500,15.01456817
23.2550,14.32769232
23.2600,13.64526156
23.2650,12.96747909
23.2700,12.29476492
23.2750,11.62724653
23.2800,10.96512029
23.2850,10.30841945
23.2900,9.657698982
23.2950,9.01288265
23.3000,8.374052859
23.3050,7.740826168
23.3100,7.113280185
23.3150,6.491772921
23.3200,5.876505409
23.3250,5.267857158
23.3300,4.66562291
23.3350,4.07015006
23.3400,3.481669931
23.3450,2.900401171
23.3500,2.326311107
23.3550,1.759722292
23.3600,1.200584123
23.3650,0.6492280384
23.3700,0.1057663622
23.3750,-0.430115008
23.3800,-0.9580525578
23.3850,-1.478280622
23.3900,-1.990622292
23.3950,-2.495431377
23.4000,-2.993041156
23.4050,-3.483423146
23.4100,-3.96666022
23.4150,-4.442810143
23.4200,-4.911812408
23.4250,-5.374113292
23.4300,-5.83013305
23.4350,-6.280031969
23.4400,-6.723833601
23.4450,-7.161612892
23.4500,-7.593370131
23.4550,-8.019556964
23.4600,-8.440300297
23.4650,-8.855918475
23.4700,-9.266106072
23.4750,-9.670982565
23.4800,-10.07072592
23.4850,-10.46532301
23.4900,-10.85510661
23.4950,-11.24001926
23.5000,-11.62013002
23.5050,-11.99541124
23.5100,-12.36619794
23.5150,-12.73241123
23.5200,-13.09452328
23.5250,-13.45244114
23.5300,-13.80653554
23.5350,-14.15666305
23.5400,-14.50284294
23.5450,-14.84526594
23.5500,-15.18377486
23.5550,-15.51827226
23.5600,-15.84906227
23.5650,-16.17587896
23.5700,-16.49826285
23.5750,-16.81597786
23.5800,-17.12886247
23.5850,-17.43685115
23.5900,-17.74019086
23.5950,-18.0385086
23.6000,-18.33185748
23.6050,-18.62024085
23.6100,-18.90369962
23.6150,-19.18225822
23.6200,-19.45556936
23.6250,-19.72369661
23.6300,-19.98664378
23.6350,-20.24444303
23.6400,-20.49723485
23.6450,-20.74472389
23.6500,-20.9868546
23.6550,-21.22363553
23.6600,-21.4549509
23.6650,-21.68105358
23.6700,-21.90215072
23.6750,-22.11806428
23.6800,-22.32894015
23.6850,-22.53483984
23.6900,-22.73573816
23.6950,-22.93146443
23.7000,-23.12217079
23.7050,-23.30778715
23.7100,-23.48856492
23.7150,-23.66454654
23.7200,-23.83586922
23.7250,-24.00245963
23.7300,-24.16443362
23.7350,-24.32206218
23.7400,-24.47539797
23.7450,-24.62465766
23.7500,-24.77003769
23.7550,-24.91174451
23.7600,-25.04988562
23.7650,-25.18465886
23.7700,-25.31653593
23.7750,-25.44555019
23.7800,-25.5716822
23.7850,-25.69531612
23.7900,-25.81647792
23.7950,-25.93550357
23.8000,-26.05270257
23.8050,-26.16835163
23.8100,-26.28255246
23.8150,-26.39557581
23.8200,-26.50757883
23.8250,-26.61855271
23.8300,-26.72833983
23.8350,-26.83680425
23.8400,-26.94387221
23.8450,-27.04950535
23.8500,-27.15365472
23.8550,-27.25630138
23.8600,-27.35730647
23.8650,-27.45683279
23.8700,-27.55475325
23.8750,-27.6509905
23.8800,-27.74523697
23.8850,-27.83743153
23.8900,-27.92752388
23.8950,-28.01537947
23.9000,-28.10086748
23.9050,-28.1839241
23.9100,-28.2641264
23.9150,-28.3413617
23.9200,-28.41563053
23.9250,-28.48657991
23.9300,-28.5539963
23.9350,-28.61774551
23.9400,-28.67775516
23.9450,-28.73399634
23.9500,-28.78659296
23.9550,-28.83562154
23.9600,-28.88119035
23.9650,-28.92332595
23.9700,-28.96200809
23.9750,-28.99736013
23.9800,-29.0293672
23.9850,-29.05808109
23.9900,-29.08362184
23.9950,-29.10597278
24.0000,-29.1248491
24.0050,-29.14081779
24.0100,-29.15391651
24.0150,-29.16447932
24.0200,-29.17270631
24.0250,-29.17879143
24.0300,-29.18307518
24.0350,-29.18561617
24.0400,-29.18674812
24.0450,-29.18670331
24.0500,-29.18562206
24.0550,-29.18342662
24.0600,-29.18050559
24.0650,-29.17665909
24.0700,-29.17177481
24.0750,-29.16612615
24.0800,-29.1602166
24.0850,-29.15417606
24.0900,-29.14826636
24.0950,-29.1428109
24.1000,-29.13785255
24.1050,-29.13387317
24.1100,-29.13095623
24.1150,-29.12916388
24.1200,-29.12876823
24.1250,-29.13007219
24.1300,-29.13313211
24.1350,-29.13832849
24.1400,-29.14570501
24.1450,-29.15538956
24.1500,-29.16731329
24.1550,-29.18110647
24.1600,-29.19680349
24.1650,-29.21421054
24.1700,-29.23363105
24.1750,-29.25494215
24.1800,-29.27818267
24.1850,-29.30307894
24.1900,-29.32979189
24.1950,-29.35810491
24.2000,-29.38783987
24.2050,-29.41906253
24.2100,-29.45181177
24.2150,-29.48610834
24.2200,-29.5217865
24.2250,-29.55908407
24.2300,-29.59792629
24.2350,-29.63832948
24.2400,-29.6799597
24.2450,-29.72290617
24.2500,-29.76688018
24.2550,-29.81162403
24.2600,-29.85663244
24.2650,-29.90177912
24.2700,-29.94684175
24.2750,-29.99171186
24.2800,-30.03641928
24.2850,-30.08083305
24.2900,-30.12507643
24.2950,-30.16935576
24.3000,-30.2140733
24.3050,-30.25902904
24.3100,-30.30391395
24.3150,-30.34859693
24.3200,-30.39294601
24.3250,-30.4371018
24.3300,-30.48081377
24.3350,-30.52433043
24.3400,-30.56756689
24.3450,-30.61060875
24.3500,-30.65350995
24.3550,-30.69642371
24.3600,-30.73925235
24.3650,-30.78200271
24.3700,-30.82461871
24.3750,-30.86680947
24.3800,-30.90861228
24.3850,-30.94996585
24.3900,-30.99089058
24.3950,-31.03136158
24.4000,-31.07129148
24.4050,-31.11063564
24.4100,-31.14929098
24.4150,-31.18728651
24.4200,-31.22437539
24.4250,-31.26038009
24.4300,-31.29532179
24.4350,-31.32897916
24.4400,-31.36146841
24.4450,-31.39279643
24.4500,-31.42325099
24.4550,-31.45315546
24.4600,-31.48269838
24.4650,-31.5121403
24.4700,-31.54135559
24.4750,-31.57042596
24.4800,-31.59946601
24.4850,-31.62848235
24.4900,-31.65718191
24.4950,-31.68542753
24.5000,-31.71308335
24.5050,-31.73975308
24.5100,-31.76531753
24.5150,-31.78961494
24.5200,-31.81279705
24.5250,-31.83460846
24.5300,-31.85517453
24.5350,-31.87420838
24.5400,-31.89185752
24.5450,-31.90786281
24.5500,-31.9220806
24.5550,-31.93432044
24.5600,-31.94489455
24.5650,-31.95358144
24.5700,-31.96080955
24.5750,-31.96675798
24.5800,-31.97161369
24.5850,-31.9755498
24.5900,-31.97875556
24.5950,-31.98132214
24.6000,-31.98330141
24.6050,-31.98502144
24.6100,-31.98672981
24.6150,-31.98860282
24.6200,-31.99075453
24.6250,-31.9930825
24.6300,-31.99584336
24.6350,-31.99900843
24.6400,-32.00272005
24.6450,-32.007081
24.6500,-32.01227681
24.6550,-32.01819121
24.6600,-32.02492914
24.6650,-32.03255364
24.6700,-32.04099873
24.6750,-32.0505587
24.6800,-32.06067044
24.6850,-32.07134356
24.6900,-32.08236852
24.6950,-32.09343691
24.7000,-32.10451601
24.7050,-32.11551562
24.7100,-32.12643354
24.7150,-32.13741894
24.7200,-32.14878976
24.7250,-32.16050588
24.7300,-32.17256149
24.7350,-32.18507811
24.7400,-32.19785313
24.7450,-32.21088435
24.7500,-32.22392519
24.7550,-32.23699173
24.7600,-32.2497479
24.7650,-32.26204026
24.7700,-32.27384519
24.7750,-32.28511062
24.7800,-32.29559626
24.7850,-32.30564779
24.7900,-32.31526359
24.7950,-32.32463984
24.8000,-32.33387269
24.8050,-32.3428603
24.8100,-32.35169391
24.8150,-32.36013457
24.8200,-32.3681692
24.8250,-32.375543
24.8300,-32.38206359
24.8350,-32.38778064
24.8400,-32.39269805
24.8450,-32.39716298
24.8500,-32.40137211
24.8550,-32.40556057
24.8600,-32.40971606
24.8650,-32.41403714
24.8700,-32.41839022
24.8750,-32.42284081
24.8800,-32.42751795
24.8850,-32.43245719
24.8900,-32.43760637
24.8950,-32.44312563
24.9000,-32.44917338
24.9050,-32.45561888
24.9100,-32.46261284
24.9150,-32.47011144
24.9200,-32.47827224
24.9250,-32.48729416
24.9300,-32.49711262
24.9350,-32.50762008
24.9400,-32.51867545
24.9450,-32.52981761
24.9500,-32.54076046
24.9550,-32.55134298
24.9600,-32.5612533
24.9650,-32.5703046
24.9700,-32.57843053
24.9750,-32.58532963
24.9800,-32.59102066
24.9850,-32.59550663
24.9900,-32.59867933
24.9950,-32.60056379
25.0000,-32.60094271
25.0050,-32.5992914
25.0100,-32.59564448
25.0150,-32.58955465
25.0200,-32.58064996
25.0250,-32.56885535
25.0300,-32.55415205
25.0350,-32.53655665
25.0400,-32.51607636
25.0450,-32.49254692
25.0500,-32.46586134
25.0550,-32.43588908
25.0600,-32.40270749
25.0650,-32.36638757
25.0700,-32.32712757
25.0750,-32.28510497
25.0800,-32.24068094
25.0850,-32.1938196
25.0900,-32.14465306
25.0950,-32.09347718
25.1000,-32.04070981
25.1050,-31.98681803
25.1100,-31.93198751
25.1150,-31.87662302
25.1200,-31.82077342
25.1250,-31.7647124
25.1300,-31.7086527
25.1350,-31.65272719
25.1400,-31.59711104
25.1450,-31.54172578
25.1500,-31.48658335
25.1550,-31.43191348
25.1600,-31.37781166
25.1650,-31.32446477
25.1700,-31.2717906
25.1750,-31.21992269
25.1800,-31.16878956
25.1850,-31.11849152
25.1900,-31.06915669
25.1950,-31.02085505
25.2000,-30.97359063
25.2050,-30.92744153
25.2100,-30.88246655
25.2150,-30.83875222
25.2200,-30.79630045
25.2250,-30.75469177
25.2300,-30.71373547
25.2350,-30.67342675
25.2400,-30.63350328
25.2450,-30.59423193
25.2500,-30.5552841
25.2550,-30.51668008
25.2600,-30.47814114
25.2650,-30.43969253
25.2700,-30.40129743
25.2750,-30.36278209
25.2800,-30.32414961
25.2850,-30.28504079
25.2900,-30.24505889
25.2950,-30.2041762
25.3000,-30.16223303
25.3050,-30.11921154
25.3100,-30.07478
25.3150,-30.02889754
25.3200,-29.98131972
25.3250,-29.93186616
25.3300,-29.88013013
25.3350,-29.82553696
25.3400,-29.76757276
25.3450,-29.70597271
25.3500,-29.64031331
25.3550,-29.57002881
25.3600,-29.49476025
25.3650,-29.41391136
25.3700,-29.32700737
25.3750,-29.23342833
25.3800,-29.13275048
25.3850,-29.02469388
25.3900,-28.90905343
25.3950,-28.85667538
25.4000,-28.79820989
25.4050,-28.73393117
25.4100,-28.66422301
25.4150,-28.58956044
25.4200,-28.51049392
25.4250,-28.42763674
25.4300,-28.34165488
25.4350,-28.25325807
25.4400,-28.16319098
25.4450,-28.07222439
25.4500,-27.98114733
25.4550,-27.8907596
25.4600,-27.80186373
25.4650,-27.71525682
25.4700,-27.63172283
25.4750,-27.55202504
25.4800,-27.47689755
25.4850,-27.40703384
25.4900,-27.34307058
25.4950,-27.28556712
25.5000,-27.23498119
25.5050,-27.19164128
25.5100,-27.15571615
25.5150,-27.12718265
25.5200,-27.10579203
25.5250,-27.09103414
25.5300,-27.08209925
25.5350,-27.07783852
