type,name,time_units,begin_time,frequency,count,units
signal_3d,"Noraxon MyoMotion-Trajectories-Radial styloid process RT","s",0.0000,200,5108,"mm"

time,x,y,z
0.0000,191.2944402,35.37431165,982.1297819
0.0050,191.2562465,35.43612124,982.1448782
0.0100,191.2180452,35.49792302,982.1599845
0.0150,191.1798361,35.55971698,982.1751007
0.0200,191.1372281,35.62680488,982.1916322
0.0250,191.0901913,35.69888228,982.2095268
0.0300,191.0387415,35.77558355,982.2287161
0.0350,190.9829419,35.85649954,982.2491186
0.0400,190.9229087,35.94118942,982.2706417
0.0450,190.8588174,36.02918292,982.293182
0.0500,190.7909048,36.11997888,982.3166251
0.0550,190.7194568,36.21304495,982.3408475
0.0600,190.6447927,36.30782071,982.3657182
0.0650,190.5672599,36.40372911,982.3911013
0.0700,190.4872403,36.50019192,982.4168576
0.0750,190.4051597,36.5966391,982.442845
0.0800,190.3214902,36.69251376,982.4689198
0.0850,190.2367468,36.78727737,982.4949389
0.0900,190.1514851,36.88041422,982.5207607
0.0950,190.0662968,36.97143488,982.5462455
0.1000,189.9817969,37.05988186,982.5712561
0.1050,189.8986069,37.14533683,982.5956593
0.1100,189.8173416,37.22742209,982.6193256
0.1150,189.7385992,37.30579663,982.6421305
0.1200,189.6629547,37.38015491,982.6639561
0.1250,189.5909542,37.45022837,982.6846923
0.1300,189.5231044,37.5157858,982.7042382
0.1350,189.4598544,37.57663617,982.722504
0.1400,189.4015716,37.6326371,982.7394149
0.1450,189.348522,37.68370652,982.7549154
0.1500,189.3008556,37.72983289,982.7689731
0.1550,189.1846881,37.83109298,982.8002851
0.1600,189.0738582,37.92623343,982.8299269
0.1650,188.9679121,38.01484136,982.8579355
0.1700,188.8663812,38.09722104,982.8842576
0.1750,188.7700247,38.17360721,982.9089763
0.1800,188.6768121,38.24322868,982.9320708
0.1850,188.5876126,38.30767961,982.9536353
0.1900,188.5014983,38.3671826,982.9739357
0.1950,188.4179267,38.42209074,982.9929437
0.2000,188.3383664,38.47297033,983.0106466
0.2050,188.2614396,38.52013756,983.0273636
0.2100,188.1872189,38.56258169,983.042725
0.2150,188.1125575,38.60116102,983.0573855
0.2200,188.0385855,38.63603207,983.0711326
0.2250,187.9657739,38.66711993,983.0839048
0.2300,187.8942558,38.69312956,983.09558
0.2350,187.8243468,38.71608983,983.1064797
0.2400,187.7541826,38.73515589,983.1166301
0.2450,187.6849275,38.7510493,983.1259474
0.2500,187.6169093,38.76334631,983.1346652
0.2550,187.5494114,38.77258972,983.1427692
0.2600,187.4826311,38.7795537,983.1503981
0.2650,187.4156477,38.78452825,983.1575982
0.2700,187.3501785,38.78580871,983.1641289
0.2750,187.2847214,38.78518281,983.1703074
0.2800,187.2206932,38.78134383,983.1759936
0.2850,187.1577748,38.77569366,983.1813012
0.2900,187.0954895,38.76647641,983.1859547
0.2950,187.0350766,38.75433793,983.1900664
0.3000,186.975207,38.74014171,983.1937287
0.3050,186.9153858,38.72274174,983.1969184
0.3100,186.8563941,38.70296182,983.1995391
0.3150,186.7978058,38.68054587,983.2016808
0.3200,186.7399433,38.65566575,983.2032477
0.3250,186.6813434,38.62844793,983.2044449
0.3300,186.622984,38.59777151,983.2051316
0.3350,186.5647636,38.56533767,983.2054804
0.3400,186.5065231,38.53020823,983.20538
0.3450,186.4482086,38.49358526,983.2049709
0.3500,186.3909818,38.45389804,983.203925
0.3550,186.3333189,38.4124185,983.2027458
0.3600,186.2765422,38.36944408,983.2010903
0.3650,186.2202291,38.32483876,983.1990922
0.3700,186.1646056,38.27832096,983.1967075
0.3750,186.10966,38.23015717,983.1939768
0.3800,186.0558712,38.18236253,983.1911743
0.3850,186.0034481,38.13385498,983.1880313
0.3900,185.951785,38.08507348,983.1845905
0.3950,185.9023561,38.03560029,983.1808515
0.4000,185.8546176,37.98620367,983.1770705
0.4050,185.8087094,37.93624822,983.1728383
0.4100,185.7644572,37.88760091,983.1686308
0.4150,185.7227851,37.83975072,983.1643363
0.4200,185.6833949,37.79217864,983.1598161
0.4250,185.6459326,37.74439675,983.1550875
0.4300,185.6105683,37.69733445,983.1501485
0.4350,185.5771201,37.65112067,983.1451551
0.4400,185.5449813,37.60516349,983.1399897
0.4450,185.5139347,37.56013655,983.1346374
0.4500,185.484982,37.5148182,983.1290686
0.4550,185.4569692,37.47022463,983.1235821
0.4600,185.4301219,37.42604085,983.117946
0.4650,185.4033693,37.38222278,983.1123804
0.4700,185.3764768,37.33809655,983.1066743
0.4750,185.3489406,37.29500755,983.1012445
0.4800,185.3212334,37.25314651,983.095821
0.4850,185.2925026,37.2107058,983.0906411
0.4900,185.2619176,37.16911057,983.0856388
0.4950,185.2293664,37.12793696,983.0809238
0.5000,185.1941743,37.08605255,983.0762372
0.5050,185.1561707,37.04367132,983.0717255
0.5100,185.1159593,37.00191703,983.0676105
0.5150,185.074855,36.95917558,983.0632454
0.5200,185.0316454,36.91674288,983.0591766
0.5250,184.9852452,36.87521211,983.0556755
0.5300,184.9366484,36.83469707,983.0524363
0.5350,184.8847427,36.79417468,983.0495275
0.5400,184.831316,36.75412223,983.0469434
0.5450,184.7761175,36.71424715,983.0446086
0.5500,184.718367,36.67476806,983.0425701
0.5550,184.6587601,36.63483202,983.0406383
0.5600,184.5981953,36.59452027,983.0386507
0.5650,184.5352059,36.55307883,983.0369294
0.5700,184.4701708,36.51210395,983.0355817
0.5750,184.4033516,36.47121279,983.0344551
0.5800,184.3341594,36.42904401,983.0333427
0.5850,184.2648194,36.38526493,983.0321035
0.5900,184.1928103,36.34045333,983.0309842
0.5950,184.119525,36.29375273,983.0298044
0.6000,184.0438917,36.24498727,983.0286206
0.6050,183.9681823,36.19459772,983.0272217
0.6100,183.8908176,36.14267067,983.0257981
0.6150,183.8135072,36.08843997,983.024039
0.6200,183.7371738,36.03158212,983.0219806
0.6250,183.6610062,35.97255367,983.0194293
0.6300,183.5853315,35.91215188,983.0165925
0.6350,183.5092456,35.84946611,983.0133676
0.6400,183.4339033,35.78506911,983.0098856
0.6450,183.3597999,35.71806574,983.0059244
0.6500,183.2854389,35.65009274,983.0017144
0.6550,183.212572,35.57950263,982.9969384
0.6600,183.1405867,35.50684245,982.9917099
0.6650,183.0679088,35.43248308,982.9863456
0.6700,182.9966392,35.35703536,982.9807536
0.6750,182.9264193,35.28039671,982.9748982
0.6800,182.8568525,35.20155394,982.9687287
0.6850,182.7875952,35.12190619,982.9623694
0.6900,182.7190932,35.04071791,982.955726
0.6950,182.6512058,34.96011113,982.9490821
0.7000,182.5839501,34.87938001,982.9423472
0.7050,182.5170504,34.79793272,982.9356114
0.7100,182.4502938,34.71578667,982.9287602
0.7150,182.3838358,34.63270679,982.9220096
0.7200,182.3176203,34.54949362,982.9151829
0.7250,182.2512409,34.4659784,982.9082332
0.7300,182.1855127,34.38160716,982.9012125
0.7350,182.1206757,34.29680208,982.8939689
0.7400,182.057376,34.21156718,982.8865923
0.7450,181.9955235,34.12577023,982.8789869
0.7500,181.9345321,34.0395364,982.871099
0.7550,181.8743679,33.95310863,982.8629968
0.7600,181.8148848,33.86729153,982.8550894
0.7650,181.7583886,33.78138361,982.8468317
0.7700,181.7035134,33.69578378,982.8385984
0.7750,181.649816,33.61035446,982.8303057
0.7800,181.5977232,33.52420901,982.8218571
0.7850,181.5475174,33.43798191,982.8131793
0.7900,181.5003991,33.35178129,982.804361
0.7950,181.4546827,33.26577363,982.795589
0.8000,181.4120712,33.18016399,982.7866967
0.8050,181.371664,33.09606307,982.7778291
0.8100,181.3326124,33.01198943,982.7688546
0.8150,181.2951004,32.92831111,982.7599721
0.8200,181.2592795,32.8457007,982.7509832
0.8250,181.2260327,32.76368714,982.7418486
0.8300,181.1941349,32.68314901,982.7327951
0.8350,181.1639398,32.60324893,982.7236833
0.8400,181.1341101,32.52445972,982.7148061
0.8450,181.1072481,32.44624627,982.7057948
0.8500,181.0815662,32.3688281,982.6968401
0.8550,181.0576779,32.2928819,982.6879684
0.8600,181.0351675,32.21711784,982.6791117
0.8650,181.015238,32.1424904,982.6700284
0.8700,180.9963871,32.0681583,982.6608569
0.8750,180.9786224,31.99337755,982.6516451
0.8800,180.9621563,31.92058811,982.6426341
0.8850,180.945788,31.84820831,982.6336898
0.8900,180.9304802,31.77765324,982.6252229
0.8950,180.9143426,31.70902884,982.6170863
0.9000,180.8994739,31.64081559,982.6090129
0.9050,180.8839641,31.57452405,982.6014206
0.9100,180.8682128,31.50906337,982.5940132
0.9150,180.8511934,31.44516989,982.58702
0.9200,180.832626,31.38437609,982.5807303
0.9250,180.8141324,31.32488952,982.5748269
0.9300,180.7950782,31.26738293,982.5692373
0.9350,180.7747444,31.21274125,982.5643011
0.9400,180.7534203,31.15979165,982.5595684
0.9450,180.7311544,31.10865557,982.5551652
0.9500,180.7075547,31.05991364,982.5512841
0.9550,180.6813667,31.01436573,982.548002
0.9600,180.653489,30.97154477,982.5453421
0.9650,180.6260149,30.93073657,982.5427511
0.9700,180.5960569,30.89225806,982.5406665
0.9750,180.5653801,30.85628148,982.5389068
0.9800,180.533749,30.82267305,982.5373232
0.9850,180.5007116,30.79160847,982.5362285
0.9900,180.4660963,30.76307404,982.5357189
0.9950,180.430077,30.7360281,982.5354172
1.0000,180.3917754,30.7109305,982.5355116
1.0050,180.3517923,30.68702014,982.5358289
1.0100,180.3093103,30.66500331,982.5365596
1.0150,180.2646443,30.64529586,982.5376853
1.0200,180.2164597,30.62728193,982.5394652
1.0250,180.167171,30.61084716,982.5416442
1.0300,180.1149334,30.595778,982.5441868
1.0350,180.060579,30.58193534,982.5471568
1.0400,180.0035631,30.56955621,982.5505254
1.0450,179.9435996,30.55812242,982.5543177
1.0500,179.8817714,30.54826431,982.5585137
1.0550,179.8174603,30.54038301,982.563267
1.0600,179.7510199,30.53297976,982.5681471
1.0650,179.6810827,30.52627423,982.5734477
1.0700,179.6089729,30.52143634,982.5791457
1.0750,179.5344173,30.51816815,982.5852684
1.0800,179.4573457,30.51673914,982.5920692
1.0850,179.3774319,30.5173959,982.5994343
1.0900,179.2947029,30.51950139,982.6071556
1.0950,179.210153,30.52310635,982.6152872
1.1000,179.1224689,30.52934475,982.6242448
1.1050,179.0331282,30.53669822,982.6335314
1.1100,178.9412189,30.54465867,982.6432969
1.1150,178.8477304,30.55479823,982.6536593
1.1200,178.7537472,30.56547632,982.664439
1.1250,178.658512,30.57708964,982.6755965
1.1300,178.5615196,30.58929932,982.6872451
1.1350,178.4636105,30.60308974,982.6993311
1.1400,178.3652004,30.61751407,982.7116253
1.1450,178.2641339,30.63279538,982.724361
1.1500,178.1629236,30.64834247,982.7373256
1.1550,178.0593467,30.66477183,982.7507859
1.1600,177.9532975,30.68353665,982.7648529
1.1650,177.8438189,30.70411078,982.7796415
1.1700,177.7309335,30.72627546,982.7950315
1.1750,177.6130598,30.75117736,982.8112608
1.1800,177.4904464,30.77703466,982.8281492
1.1850,177.3609695,30.80566065,982.8461484
1.1900,177.2257942,30.8347252,982.8647166
1.1950,177.0840857,30.8655049,982.8841915
1.2000,176.9339195,30.89884876,982.9049106
1.2050,176.7754859,30.93272452,982.9266604
1.2100,176.6092679,30.9681844,982.9497996
1.2150,176.4359559,31.00557667,982.9742753
1.2200,176.2552812,31.04301124,982.9996252
1.2250,176.0679075,31.08093832,983.0262947
1.2300,175.8734127,31.11839341,983.0541814
1.2350,175.6731996,31.15499835,983.0829543
1.2400,175.4686985,31.19088568,983.112604
1.2450,175.2589787,31.22538001,983.1431821
1.2500,175.046427,31.25843375,983.1743383
1.2550,174.8306332,31.28989052,983.2060863
1.2600,174.6103222,31.31952618,983.2384471
1.2650,174.3845053,31.34859781,983.2717689
1.2700,174.1540305,31.37687662,983.3057635
1.2750,173.9169824,31.40451049,983.3406847
1.2800,173.6732418,31.43120759,983.3765666
1.2850,173.4235819,31.45714114,983.4132917
1.2900,173.1655299,31.48225299,983.4511293
1.2950,172.8971831,31.50664925,983.4904345
1.3000,172.6180825,31.53014828,983.5312633
1.3050,172.3276419,31.55394878,983.5737853
1.3100,172.0252197,31.57825389,983.6181722
1.3150,171.7099262,31.60227479,983.6644293
1.3200,171.3827506,31.6271858,983.7126751
1.3250,171.0421097,31.65252222,983.7630398
1.3300,170.6890101,31.67835015,983.8156806
1.3350,170.3228378,31.70402759,983.8705547
1.3400,169.9442378,31.73042261,983.9276878
1.3450,169.5532953,31.75682708,983.98735
1.3500,169.1506258,31.78432218,984.0494883
1.3550,168.7368147,31.81209579,984.1138653
1.3600,168.3118993,31.8413819,984.1809062
1.3650,167.8761592,31.87229705,984.2507165
1.3700,167.428473,31.90471763,984.3234337
1.3750,166.9693895,31.93803769,984.3989806
1.3800,166.4978632,31.97325542,984.4777078
1.3850,166.0137454,32.01088401,984.5598931
1.3900,165.5151252,32.05176446,984.6462089
1.3950,165.001838,32.09697805,984.7366522
1.4000,164.4727252,32.14515419,984.8314392
1.4050,163.9276149,32.19792623,984.9312065
1.4100,163.3658947,32.25832201,985.0364002
1.4150,162.7865178,32.32349016,985.1469242
1.4200,162.1874484,32.39522787,985.2634265
1.4250,161.5680455,32.47470002,985.3863762
1.4300,160.9292329,32.5619023,985.5159652
1.4350,160.2709139,32.65662338,985.6525741
1.4400,159.5927466,32.76025712,985.7965427
1.4450,158.8958569,32.87389983,985.948094
1.4500,158.180785,32.99795353,986.1073993
1.4550,157.4473535,33.13298494,986.2748063
1.4600,156.6954443,33.27935204,986.450598
1.4650,155.926481,33.43586455,986.6344939
1.4700,155.141322,33.60350865,986.8270388
1.4750,154.3406048,33.78351814,987.028445
1.4800,153.523662,33.9761637,987.2390932
1.4850,152.6918594,34.18161802,987.4590911
1.4900,151.8425769,34.40162588,987.6893328
1.4950,150.9759044,34.63560337,987.9302057
1.5000,150.0914286,34.88491231,988.1822537
1.5050,149.1889341,35.149517,988.4460195
1.5100,148.2659944,35.43032568,988.7220875
1.5150,147.32155,35.72668348,989.011276
1.5200,146.355217,36.03970969,989.3143471
1.5250,145.3644293,36.36951702,989.6319933
1.5300,144.3494398,36.71668078,989.9647346
1.5350,143.3094846,37.08036127,990.3132238
1.5400,142.2418434,37.46163154,990.6784274
1.5450,141.1474042,37.86125081,991.0606377
1.5500,140.0246355,38.2777734,991.4603727
1.5550,138.8752861,38.71169189,991.8778602
1.5600,137.6992915,39.1624196,992.3135205
1.5650,136.4974594,39.62982979,992.7675967
1.5700,135.2691384,40.11250578,993.2402826
1.5750,134.0152525,40.61151933,993.7321003
1.5800,132.7368657,41.12620907,994.2430183
1.5850,131.4326014,41.65638025,994.7733291
1.5900,130.1043214,42.20174422,995.3226751
1.5950,128.752638,42.76244543,995.8913818
1.6000,127.378815,43.33772024,996.47917
1.6050,125.9817639,43.92644868,997.0863152
1.6100,124.5619669,44.52873156,997.7130937
1.6150,123.1207298,45.14425822,998.3594752
1.6200,121.6575195,45.77211531,999.0255336
1.6250,120.1717514,46.41231397,999.7117611
1.6300,118.6641821,47.06457422,1000.418199
1.6350,117.1352082,47.72794546,1001.14487
1.6400,115.5849816,48.40171324,1001.892248
1.6450,114.0145251,49.08644529,1002.659994
1.6500,112.4235057,49.77914263,1003.448265
1.6550,110.8130224,50.47997059,1004.257045
1.6600,109.1846039,51.18972748,1005.08628
1.6650,107.5389028,51.90726969,1005.935788
1.6700,105.8790048,52.63202193,1006.80495
1.6750,104.2059014,53.36417721,1007.69386
1.6800,102.5226713,54.10337367,1008.601559
1.6850,100.8291549,54.84935884,1009.528296
1.6900,99.1288508,55.60079414,1010.472983
1.6950,97.4210599,56.35595791,1011.435433
1.7000,95.70903385,57.11565092,1012.415309
1.7050,93.99253418,57.87889912,1013.411732
1.7100,92.27491493,58.64394783,1014.424043
1.7150,90.55614204,59.41274361,1015.452344
1.7200,88.83817095,60.18434428,1016.495813
1.7250,87.12246174,60.95762997,1017.553761
1.7300,85.41047779,61.73322734,1018.626026
1.7350,83.70300932,62.51041825,1019.711987
1.7400,82.0012149,63.28881307,1020.811035
1.7450,80.30581181,64.06755489,1021.923064
1.7500,78.61672844,64.84653779,1023.047597
1.7550,76.93643796,65.62389579,1024.183632
1.7600,75.26698129,66.3997064,1025.330863
1.7650,73.60750753,67.17438343,1026.489144
1.7700,71.95911592,67.94720946,1027.657582
1.7750,70.32287181,68.71691788,1028.835382
1.7800,68.69892192,69.48319204,1030.022637
1.7850,67.08778529,70.2452511,1031.218526
1.7900,65.49157516,71.00329847,1032.422655
1.7950,63.90984592,71.75650121,1033.634818
1.8000,62.34376751,72.50345542,1034.85425
1.8050,60.79329834,73.24532316,1036.080782
1.8100,59.25902846,73.98059995,1037.3142
1.8150,57.74088942,74.70812247,1038.5542
1.8200,56.23812195,75.42805409,1039.800801
1.8250,54.75232955,76.14086502,1041.0533
1.8300,53.28311189,76.84546586,1042.312231
1.8350,51.82979535,77.54063852,1043.577437
1.8400,50.3932986,78.22529944,1044.848239
1.8450,48.97335993,78.90024391,1046.124901
1.8500,47.5691088,79.56439751,1047.407413
1.8550,46.18095092,80.21750896,1048.695698
1.8600,44.80916018,80.86008048,1049.989518
1.8650,43.45374904,81.49058846,1051.288687
1.8700,42.11553789,82.10992046,1052.593201
1.8750,40.79405782,82.71721953,1053.902017
1.8800,39.48857008,83.31244468,1055.216212
1.8850,38.19984391,83.8949123,1056.534709
1.8900,36.9273946,84.46548073,1057.857977
1.8950,35.67170012,85.02371338,1059.185171
1.9000,34.43089405,85.56988069,1060.517072
1.9050,33.20631558,86.10543792,1061.853266
1.9100,31.99662959,86.62911604,1063.193355
1.9150,30.8003829,87.14143851,1064.538141
1.9200,29.61795413,87.64241504,1065.88728
1.9250,28.44913792,88.13161197,1067.240633
1.9300,27.29284625,88.60974991,1068.598359
1.9350,26.14830829,89.07776128,1069.960943
1.9400,25.01529522,89.53523242,1071.327878
1.9450,23.89247617,89.982291,1072.699605
1.9500,22.77991322,90.4199678,1074.076666
1.9550,21.67723615,90.84804358,1075.459295
1.9600,20.58391149,91.26602239,1076.847125
1.9650,19.49990141,91.67369905,1078.240264
1.9700,18.42386388,92.07155178,1079.638641
1.9750,17.35552064,92.4591493,1081.04247
1.9800,16.29403362,92.83766796,1082.451916
1.9850,15.2405821,93.20602406,1083.865988
1.9900,14.19381775,93.56465719,1085.285247
1.9950,13.15613941,93.91365248,1086.708886
2.0000,12.1253805,94.25366757,1088.137423
2.0050,11.10266748,94.58356158,1089.570173
2.0100,10.08764732,94.90482506,1091.007254
2.0150,9.080431762,95.21530126,1092.447792
2.0200,8.082466859,95.5168178,1093.89243
2.0250,7.09447927,95.8096588,1095.340536
2.0300,6.115962781,96.09293424,1096.791737
2.0350,5.146949088,96.36715316,1098.246011
2.0400,4.187353859,96.63254829,1099.703449
2.0450,3.23628366,96.88959048,1101.164249
2.0500,2.294165489,97.1382095,1102.628238
2.0550,1.361008058,97.37990197,1104.095832
2.0600,0.4364862658,97.6131126,1105.565831
2.0650,-0.4792175361,97.83904849,1107.039129
2.0700,-1.387196118,98.05808031,1108.516107
2.0750,-2.287004469,98.26968308,1109.996614
2.0800,-3.179110837,98.47458452,1111.480812
2.0850,-4.06372878,98.67249145,1112.969274
2.0900,-4.940490006,98.86403729,1114.461329
2.0950,-5.808084605,99.05052347,1115.956625
2.1000,-6.667568756,99.23193913,1117.456741
2.1050,-7.518261029,99.40806627,1118.960889
2.1100,-8.359424225,99.57757036,1120.468234
2.1150,-9.19094744,99.74354525,1121.979448
2.1200,-10.01307373,99.90432808,1123.494381
2.1250,-10.8256112,100.0585188,1125.012651
2.1300,-11.62906851,100.2063044,1126.534102
2.1350,-12.423214,100.3488132,1128.058547
2.1400,-13.20647578,100.4863212,1129.585586
2.1450,-13.980947,100.6165583,1131.11549
2.1500,-14.74416947,100.7408255,1132.647849
2.1550,-15.49763818,100.8588506,1134.183275
2.1600,-16.24152437,100.9694985,1135.721314
2.1650,-16.97583974,101.0731025,1137.262602
2.1700,-17.70091752,101.1704303,1138.807482
2.1750,-18.41607498,101.260657,1140.356065
2.1800,-19.12290538,101.3452061,1141.907535
2.1850,-19.82119976,101.4230548,1143.462385
2.1900,-20.51144055,101.4954473,1145.021016
2.1950,-21.19382356,101.5623878,1146.583693
2.2000,-21.86706043,101.6234135,1148.149871
2.2050,-22.53325316,101.6785945,1149.720061
2.2100,-23.19108571,101.727561,1151.294468
2.2150,-23.84062874,101.7710075,1152.872745
2.2200,-24.48322228,101.8089292,1154.455784
2.2250,-25.11783156,101.8438213,1156.043333
2.2300,-25.74573937,101.8737091,1157.635454
2.2350,-26.36715491,101.8990109,1159.231928
2.2400,-26.98238557,101.9200109,1160.833456
2.2450,-27.59178861,101.9366501,1162.440239
2.2500,-28.19525012,101.9514732,1164.051951
2.2550,-28.79260937,101.9638772,1165.668172
2.2600,-29.38410425,101.9718571,1167.289265
2.2650,-29.97176515,101.9773351,1168.914755
2.2700,-30.55482692,101.9788917,1170.545462
2.2750,-31.13380379,101.9779372,1172.180562
2.2800,-31.70865886,101.9730724,1173.820791
2.2850,-32.27891993,101.9662383,1175.466304
2.2900,-32.84494882,101.9561113,1177.116354
2.2950,-33.40668585,101.9433064,1178.771454
2.3000,-33.96347394,101.9284174,1180.43088
2.3050,-34.51624635,101.9122319,1182.095266
2.3100,-35.06493556,101.8931326,1183.764639
